Software Version:	3.9.2.0
Unit SN:	10000200
Spectrometer SN:	6960
Date:	3/8/2024 1:13:54 PM
Data Line Index:	25
Spectral Points:	2048
Integration time (ms):	125
Averages:	20
Delay (ms):	30000
Sequence Number:	1
Processing:	dark subtract
Laser Power (mW):	305
Laser Current (mA):	822
Laser Diode Temp (C):	25
Laser Case Temp (C):	26.2
System Temp (C):	26.1
Spectrometer Temp (C):	24
CCD Temp (C):	0.007
Secondary Temp (C):	20.006
Heatsink Temp (C):	20.442
CCDPCB Temp (C):	36.218
SecondaryPCB Temp (C):	30.549

Wavelength	RamanShift	Raw Counts	Dark Subtracted
787.061	30.1047	454.25	45.2
787.2016	32.3739	456.05	51
787.3422	34.6426	459	53.05
787.4828	36.9109	465	56.2
787.6235	39.1787	474.8	60.95
787.7642	41.4461	481.3	64.15
787.9049	43.7131	490.35	68.25
788.0456	45.9796	499.35	76.85
788.1863	48.2456	510.6	82.3
788.3271	50.5112	516.7	85.15
788.4679	52.7764	522.6	88.95
788.6087	55.0411	536.6	98.65
788.7496	57.3054	548.3	102.85
788.8904	59.5692	555.3	109.35
789.0313	61.8326	567.4	119
789.1722	64.0955	579.15	126.1
789.3132	66.3579	593.2	135.65
789.4541	68.6199	613.15	150.2
789.5951	70.8815	651.85	183.35
789.7361	73.1426	727.85	259
789.8771	75.4032	933.65	457.75
790.0181	77.6634	1427.15	948.25
790.1592	79.9231	2586.3	2099.4
790.3003	82.1824	5072.7	4570.85
790.4414	84.4412	9563	9031.05
790.5825	86.6995	15760.45	15190.1
790.7237	88.9574	21748.35	21144.05
790.8648	91.2148	25853.2	25225.95
791.006	93.4717	27740	27098.2
791.1472	95.7282	28072.6	27427.5
791.2885	97.9842	27858.65	27207.3
791.4297	100.2398	27273.3	26623.6
791.571	102.4949	26535.2	25876.05
791.7123	104.7495	25683.5	25024.2
791.8536	107.0036	24840.45	24180.8
791.9949	109.2573	24066.4	23407.8
792.1363	111.5105	23316.05	22653.85
792.2777	113.7632	22618.45	21956.4
792.4191	116.0154	22039.45	21364.8
792.5605	118.2672	21619.15	20948.55
792.7019	120.5185	21164	20496.3
792.8434	122.7693	20837.4	20163.15
792.9849	125.0197	20551	19875.85
793.1264	127.2696	20264.75	19583.6
793.2679	129.519	20064.35	19375.9
793.4094	131.7679	19842.2	19153.8
793.551	134.0163	19616.9	18924.7
793.6926	136.2642	19342.25	18646.1
793.8342	138.5117	19088.85	18384.4
793.9758	140.7587	18759.3	18060.8
794.1175	143.0052	18505.85	17806.25
794.2591	145.2512	18236	17532.3
794.4008	147.4967	17944.4	17238.25
794.5425	149.7417	17767.1	17067.7
794.6842	151.9863	17610.95	16903.4
794.826	154.2304	17532.75	16815.4
794.9677	156.4739	17396.3	16678.1
795.1095	158.717	17295.35	16574
795.2513	160.9596	17146.75	16419.6
795.3931	163.2017	16889.45	16163.7
795.535	165.4433	16598.85	15868.9
795.6768	167.6844	16256.95	15525.9
795.8187	169.925	15960.6	15227.05
795.9606	172.1651	15604.1	14871.95
796.1025	174.4047	15321.55	14584.1
796.2445	176.6439	15082.1	14342.5
796.3864	178.8825	14849.65	14109.1
796.5284	181.1206	14699.85	13950.95
796.6704	183.3582	14521.5	13768.65
796.8124	185.5954	14437.85	13681.8
796.9544	187.832	14358.5	13597.75
797.0965	190.0681	14333.65	13574.25
797.2386	192.3037	14323.1	13565.5
797.3806	194.5388	14303.55	13539.95
797.5228	196.7734	14380.65	13610.25
797.6649	199.0075	14429.1	13658.75
797.807	201.2411	14576.4	13805
797.9492	203.4742	14635.2	13861.35
798.0914	205.7068	14774	13998.55
798.2336	207.9389	14899.9	14123.2
798.3758	210.1704	15034.5	14264.35
798.518	212.4015	15154.6	14395
798.6603	214.632	15318.9	14563.75
798.8025	216.862	15468.9	14720.05
798.9448	219.0915	15595.35	14838.15
799.0871	221.3205	15779.7	15021.9
799.2294	223.549	15968.8	15219.15
799.3718	225.777	16176.3	15422.5
799.5141	228.0044	16419.7	15657.15
799.6565	230.2314	16753	15990.6
799.7989	232.4578	17077.4	16311.65
799.9413	234.6837	17324.3	16553.6
800.0837	236.909	17473.3	16701.2
800.2262	239.1339	17482.9	16681.8
800.3687	241.3582	17352.75	16565.35
800.5111	243.582	17133.5	16316.75
800.6536	245.8053	16892.05	16087.25
800.7961	248.0281	16639.4	15842.2
800.9387	250.2503	16531.05	15729.7
801.0812	252.472	16465.8	15662
801.2238	254.6932	16457.25	15657.5
801.3664	256.9139	16474.35	15672.6
801.509	259.134	16584.15	15772.25
801.6516	261.3536	16682.6	15874.3
801.7942	263.5727	16844.45	16035.35
801.9369	265.7912	16949.95	16144.15
802.0795	268.0092	17079.2	16272.25
802.2222	270.2267	17146.95	16342.9
802.3649	272.4436	17185.15	16378.65
802.5076	274.6601	17190.15	16371
802.6504	276.8759	17082.85	16269.5
802.7931	279.0913	16986.25	16173.1
802.9359	281.3061	16897.45	16083.1
803.0787	283.5204	16892.35	16071.45
803.2215	285.7341	16910.4	16085.9
803.3643	287.9473	17044.75	16213.75
803.5071	290.16	17132.25	16303.95
803.6499	292.3721	17432.8	16616
803.7928	294.5837	17742.3	16920.4
803.9357	296.7947	18047	17224.35
804.0786	299.0052	18217.55	17396.65
804.2215	301.2152	18114.4	17289.4
804.3644	303.4246	17853.85	17032.3
804.5074	305.6334	17424.75	16606.4
804.6503	307.8418	16910.05	16088.35
804.7933	310.0495	16475.65	15648.45
804.9363	312.2568	16191.05	15361.7
805.0793	314.4635	15880.95	15050.95
805.2223	316.6696	15673.45	14841.45
805.3653	318.8752	15595.4	14754.3
805.5084	321.0802	15584.3	14749.7
805.6514	323.2847	15658.4	14819.5
805.7945	325.4887	15718.1	14883.25
805.9376	327.692	15681.25	14844.35
806.0807	329.8949	15600.1	14762
806.2238	332.0972	15348.9	14509.5
806.367	334.2989	15113.7	14271.4
806.5101	336.5001	14803.3	13961.55
806.6533	338.7007	14623.7	13777.6
806.7965	340.9008	14518.1	13670.75
806.9397	343.1003	14374.15	13527.5
807.0829	345.2992	14319.9	13473.05
807.2261	347.4976	14256.9	13410.3
807.3693	349.6955	14237.65	13388.35
807.5126	351.8927	14290.2	13435.6
807.6559	354.0895	14265.2	13398.2
807.7991	356.2856	14249.55	13393.1
807.9424	358.4812	14228.75	13373.25
808.0857	360.6763	14272.15	13416.05
808.2291	362.8707	14235.6	13374.95
808.3724	365.0646	14287.2	13427
808.5158	367.258	14311.9	13450.8
808.6591	369.4508	14368.6	13503.45
808.8025	371.643	14460.85	13593.25
808.9459	373.8346	14465.9	13595.35
809.0893	376.0257	14527.55	13654.8
809.2327	378.2162	14481.3	13610.55
809.3762	380.4062	14409.15	13542.25
809.5196	382.5956	14254.7	13393.25
809.6631	384.7844	14159.95	13298.35
809.8066	386.9726	14038.95	13181.95
809.9501	389.1603	13998.45	13142.7
810.0936	391.3474	13988.4	13097.75
810.2371	393.5339	13918.1	13056.4
810.3806	395.7199	13889.55	13030.55
810.5241	397.9052	13914.75	13057.55
810.6677	400.09	13983.95	13124.15
810.8113	402.2743	14057.35	13197.3
810.9548	404.4579	14178.2	13315.8
811.0984	406.641	14361.95	13499.4
811.2421	408.8235	14565.85	13701.35
811.3857	411.0054	14803.65	13936.9
811.5293	413.1868	15144.65	14271
811.673	415.3675	15379.1	14504.15
811.8166	417.5477	15498.15	14623.65
811.9603	419.7273	15516.7	14640.1
812.104	421.9064	15396.8	14512.1
812.2477	424.0848	15298.85	14425.15
812.3914	426.2627	15128.4	14252.75
812.5351	428.4399	14880.15	14004.85
812.6788	430.6166	14529.65	13649.45
812.8226	432.7928	14164.4	13282.75
812.9663	434.9683	13869.65	12989.6
813.1101	437.1432	13644.9	12766.65
813.2539	439.3176	13492.3	12621
813.3977	441.4914	13404.45	12535.85
813.5415	443.6645	13351.35	12478.75
813.6853	445.8371	13268.3	12391.75
813.8291	448.0091	13270.35	12391.1
813.973	450.1806	13223.7	12347.45
814.1168	452.3514	13200.9	12325
814.2607	454.5216	13221.5	12336.9
814.4046	456.6913	13179.3	12302.5
814.5485	458.8603	13216.8	12339.25
814.6924	461.0288	13290.55	12417.05
814.8363	463.1967	13281.05	12410.95
814.9802	465.3639	13350.4	12475
815.1241	467.5306	13415.1	12540
815.2681	469.6967	13520.8	12647.2
815.412	471.8622	13602.2	12727.65
815.556	474.0271	13697.25	12820.95
815.7	476.1914	13748.65	12868.7
815.844	478.3551	13755.6	12875.85
815.988	480.5182	13777.1	12902.65
816.132	482.6807	13823.4	12957.8
816.276	484.8426	13941.05	13077.2
816.4201	487.0039	14252.25	13379.75
816.5641	489.1647	14677.7	13801.35
816.7082	491.3248	15041.85	14159.5
816.8522	493.4843	15206.3	14331.15
816.9963	495.6432	15186.7	14310.55
817.1404	497.8015	15089.55	14204.1
817.2845	499.9592	15042.55	14150.85
817.4286	502.1163	14920.95	14031.7
817.5727	504.2728	14652.65	13770.05
817.7168	506.4287	14379.3	13506.45
817.861	508.5839	14003.05	13127.15
818.0051	510.7386	13714.25	12834.8
818.1493	512.8927	13563.9	12674.35
818.2935	515.0461	13505.65	12618.6
818.4377	517.199	13517.45	12631.3
818.5818	519.3512	13585.9	12694.8
818.726	521.5029	13759.8	12868.2
818.8703	523.6539	13907.55	13021.85
819.0145	525.8043	14001.25	13110.45
819.1587	527.9541	13952.45	13061.7
819.303	530.1033	13855.7	12964.9
819.4472	532.2519	13823.35	12933.2
819.5915	534.3999	13869.05	12976.65
819.7357	536.5472	14049.75	13161.55
819.88	538.694	14416.35	13529.15
820.0243	540.8401	14852.85	13960.65
820.1686	542.9856	15257.75	14354.25
820.3129	545.1305	15394.75	14487.75
820.4572	547.2748	15290.7	14382.45
820.6016	549.4185	14998.35	14086.6
820.7459	551.5615	14720.7	13812.9
820.8902	553.704	14623.75	13719.8
821.0346	555.8458	14620.9	13722.65
821.1789	557.987	14702.4	13802.95
821.3233	560.1276	14807.7	13906.75
821.4677	562.2675	15010.5	14109.9
821.6121	564.4069	15251.85	14348.6
821.7565	566.5456	15443.05	14545.4
821.9009	568.6837	15468.5	14574.05
822.0453	570.8212	15121.85	14221.3
822.1897	572.958	14656.7	13757
822.3342	575.0942	14211.5	13314.65
822.4786	577.2299	13945.75	13053.25
822.6231	579.3648	13818.15	12938.2
822.7675	581.4992	13832.25	12959.55
822.912	583.6329	13960.35	13083.6
823.0565	585.766	14212.3	13333.25
823.201	587.8985	14314.8	13431.25
823.3454	590.0304	14372.65	13452.65
823.4899	592.1616	14332.8	13428
823.6345	594.2922	14204	13300.45
823.779	596.4222	14039.45	13132.5
823.9235	598.5515	13841	12933.95
824.068	600.6802	13687.1	12779.15
824.2126	602.8083	13501.05	12596.75
824.3571	604.9358	13469	12567.45
824.5017	607.0626	13443.25	12538.6
824.6462	609.1888	13504.4	12594.7
824.7908	611.3144	13550.75	12636.55
824.9354	613.4393	13534.7	12623.8
825.08	615.5636	13543.9	12630.7
825.2246	617.6873	13451.55	12541.35
825.3692	619.8103	13425.3	12517.55
825.5138	621.9327	13273.85	12362.6
825.6584	624.0544	13182.9	12281.25
825.803	626.1756	13077.45	12172.1
825.9477	628.2961	13003.1	12097.75
826.0923	630.4159	12945.9	12038.45
826.237	632.5351	12929.8	12016.2
826.3816	634.6537	12854.75	11940.25
826.5263	636.7716	12879.35	11961.2
826.6709	638.8889	12884.7	11965.6
826.8156	641.0056	12905.5	11986.1
826.9603	643.1216	12896.05	11980.9
827.105	645.237	12883.2	11965.9
827.2497	647.3518	12862.65	11953.35
827.3944	649.4659	12830.5	11924.2
827.5391	651.5793	12798.2	11891.15
827.6838	653.6922	12809.15	11902
827.8285	655.8043	12794.5	11885.25
827.9733	657.9159	12780.75	11868.05
828.118	660.0268	12718.45	11808.3
828.2627	662.137	12695.3	11780.75
828.4075	664.2466	12752.95	11836.55
828.5522	666.3556	12730.1	11813.25
828.697	668.4639	12664	11748.55
828.8418	670.5716	12673.8	11764.85
828.9865	672.6786	12709.1	11797.15
829.1313	674.785	12721.75	11801.3
829.2761	676.8907	12760.55	11846.15
829.4209	678.9958	12818.85	11905.1
829.5657	681.1002	12785	11867.9
829.7105	683.204	12766.35	11843.35
829.8553	685.3072	12742.85	11820.9
830.0001	687.4097	12690.45	11773.7
830.1449	689.5115	12694.1	11773.85
830.2898	691.6127	12633.3	11716.9
830.4346	693.7132	12579.5	11669.9
830.5794	695.8131	12587.05	11658.65
830.7243	697.9123	12597.65	11673.65
830.8691	700.0109	12617.25	11693.9
831.014	702.1089	12618.05	11701.15
831.1588	704.2061	12627.7	11711.05
831.3037	706.3028	12645	11721.15
831.4486	708.3987	12703.85	11781.9
831.5935	710.4941	12790.55	11870.05
831.7383	712.5887	12915	11997.9
831.8832	714.6827	13077.85	12156.55
832.0281	716.7761	13317.75	12402.8
832.173	718.8688	13619.7	12697.1
832.3179	720.9608	13786.95	12858.9
832.4628	723.0522	13898.7	12972.2
832.6077	725.1429	13813.55	12887.85
832.7527	727.233	13681.55	12756.5
832.8976	729.3224	13609.35	12685.9
833.0425	731.4112	13458.2	12534.75
833.1874	733.4993	13249.65	12329.1
833.3324	735.5867	13049.5	12124.8
833.4773	737.6735	12894.25	11971.85
833.6222	739.7596	12760.75	11833.35
833.7672	741.845	12667.15	11741.85
833.9122	743.9298	12641.35	11717.65
834.0571	746.014	12644.05	11720.85
834.2021	748.0974	12655	11725.8
834.347	750.1802	12657.5	11729.75
834.492	752.2624	12698.9	11771.5
834.637	754.3439	12735.85	11803.4
834.782	756.4247	12818.15	11879.9
834.9269	758.5048	12947.65	12016.2
835.0719	760.5843	13226.45	12295.45
835.2169	762.6631	13579.75	12649.75
835.3619	764.7413	14075.75	13146.6
835.5069	766.8188	14724.3	13793.95
835.6519	768.8956	15206.2	14275.05
835.7969	770.9718	15513.05	14581.05
835.9419	773.0473	15413.7	14486.6
836.0869	775.1221	15111.65	14182.35
836.232	777.1962	14787.3	13857.9
836.377	779.2697	14658.45	13727.25
836.522	781.3426	14714.45	13772.85
836.667	783.4147	14867.65	13939.4
836.8121	785.4862	15074.8	14142.15
836.9571	787.557	15016.05	14083.6
837.1021	789.6271	14643.45	13710.85
837.2472	791.6966	14069.25	13134.75
837.3922	793.7654	13486.8	12558.65
837.5373	795.8335	13157	12223.55
837.6823	797.901	12918.75	11989.4
837.8274	799.9678	12820.65	11884.4
837.9724	802.0339	12789.85	11858
838.1175	804.0993	12789.2	11850.4
838.2626	806.1641	12780.05	11847.45
838.4076	808.2282	12711.85	11781.6
838.5527	810.2916	12651.7	11721.75
838.6978	812.3544	12537.15	11606.95
838.8428	814.4164	12463.85	11534.65
838.9879	816.4778	12503.85	11571.85
839.133	818.5385	12540.4	11604.75
839.2781	820.5986	12648.45	11713.25
839.4232	822.658	12822.95	11885.05
839.5682	824.7166	13029.85	12093.4
839.7133	826.7747	13375.9	12439.4
839.8584	828.832	13728.4	12793.85
840.0035	830.8886	13943.95	13006.9
840.1486	832.9446	14112	13173.3
840.2937	834.9999	14025.25	13090.75
840.4388	837.0545	13910.35	12970.05
840.5839	839.1085	13768.3	12832.4
840.729	841.1618	13621.75	12682.2
840.8741	843.2143	13502.55	12565.1
841.0192	845.2662	13359.1	12422.8
841.1643	847.3175	13279.05	12344.4
841.3095	849.368	13186.55	12249.8
841.4546	851.4179	13071.75	12135.75
841.5997	853.467	12941.45	12006.8
841.7448	855.5155	12856.75	11920.8
841.8899	857.5633	12777.25	11842.2
842.0351	859.6105	12679.15	11742.25
842.1802	861.6569	12622.35	11687.9
842.3253	863.7027	12571.2	11631.05
842.4704	865.7478	12569.05	11630.85
842.6156	867.7922	12553.1	11613.25
842.7607	869.8359	12535.85	11597.35
842.9058	871.8789	12630.2	11692.1
843.0509	873.9212	12764.2	11792.85
843.1961	875.9629	12874.15	11934.55
843.3412	878.0039	13036.6	12098.4
843.4863	880.0441	13133.65	12196.95
843.6315	882.0837	13177.7	12238.5
843.7766	884.1226	13134.25	12197.1
843.9218	886.1609	13113.95	12175.6
844.0669	888.1984	13105.6	12168
844.212	890.2352	13150.15	12210.2
844.3572	892.2714	13120.2	12177.45
844.5023	894.3069	13122.3	12180.1
844.6475	896.3416	13012.15	12067.35
844.7926	898.3757	12921.25	11981.55
844.9377	900.4091	12845.45	11903.4
845.0829	902.4418	12879.55	11931.5
845.228	904.4739	12901	11954.45
845.3732	906.5052	12930.8	11989.7
845.5183	908.5358	12860.4	11919.3
845.6635	910.5658	12719.95	11777.8
845.8086	912.595	12537.5	11596
845.9538	914.6236	12384.5	11444.75
846.0989	916.6515	12280.6	11340.45
846.2441	918.6786	12236.15	11291.9
846.3892	920.7051	12284.85	11339.45
846.5344	922.7309	12377.2	11433.45
846.6795	924.756	12413	11468.15
846.8246	926.7804	12515.85	11573.5
846.9698	928.8041	12502.15	11559.35
847.1149	930.8272	12528.3	11589.45
847.2601	932.8495	12483.85	11537
847.4052	934.8711	12459.9	11516.85
847.5504	936.892	12362.9	11419.3
847.6955	938.9123	12260.95	11315
847.8407	940.9318	12225.8	11282.05
847.9858	942.9506	12172.5	11228.65
848.131	944.9688	12097.75	11157.6
848.2761	946.9862	11999.25	11053.4
848.4213	949.003	11887.45	10946.3
848.5664	951.019	11871.7	10928.65
848.7115	953.0344	11861.15	10916.7
848.8567	955.0491	11887.35	10945.2
849.0018	957.063	11928.5	10990.6
849.147	959.0763	12026.7	11086.65
849.2921	961.0888	12054.55	11110.65
849.4373	963.1007	12134	11194.9
849.5824	965.1119	12171.4	11237.8
849.7275	967.1223	12177.85	11248.1
849.8727	969.1321	12180	11253.55
850.0178	971.1412	12201.5	11269.35
850.1629	973.1495	12227.35	11288.8
850.3081	975.1572	12290	11301.05
850.4532	977.1641	12292	11351.4
850.5983	979.1704	12271.9	11330.25
850.7435	981.1759	12261.95	11316.1
850.8886	983.1808	12310.7	11367.5
851.0337	985.1849	12357	11405.85
851.1788	987.1884	12474.4	11530.1
851.324	989.1911	12612.15	11667.9
851.4691	991.1932	12710.9	11773.35
851.6142	993.1945	12713.1	11772.55
851.7593	995.1951	12688.2	11749.1
851.9045	997.1951	12689.05	11742.05
852.0496	999.1943	12614.6	11674.3
852.1947	1001.1928	12596.15	11656.7
852.3398	1003.1906	12606.15	11663.5
852.4849	1005.1877	12695.3	11750.15
852.63	1007.1841	12731.15	11791.1
852.7751	1009.1798	12687.45	11748.55
852.9202	1011.1748	12547.4	11608.6
853.0653	1013.1691	12400.4	11459
853.2104	1015.1627	12153.6	11212.8
853.3555	1017.1556	11960.2	11021.3
853.5006	1019.1477	11876.55	10936.95
853.6457	1021.1392	11749	10815.85
853.7908	1023.1299	11746.5	10820.45
853.9359	1025.12	11747.2	10820.45
854.081	1027.1093	11786.55	10874.4
854.2261	1029.0979	11899.05	10982.2
854.3712	1031.0859	11966.25	11047.7
854.5163	1033.0731	11986.85	11058.4
854.6613	1035.0596	11953.65	11021.8
854.8064	1037.0454	11808.75	10875.75
854.9515	1039.0304	11713.45	10775.65
855.0965	1041.0148	11607.65	10674
855.2416	1042.9985	11518.3	10575.45
855.3867	1044.9814	11492.9	10554.15
855.5317	1046.9636	11429.75	10488.95
855.6768	1048.9452	11416.95	10477.5
855.8219	1050.926	11455.9	10515.85
855.9669	1052.9061	11462.05	10523.55
856.112	1054.8855	11470.35	10531.6
856.257	1056.8642	11497.55	10561.7
856.4021	1058.8421	11566.55	10619.75
856.5471	1060.8194	11601.05	10658.4
856.6921	1062.7959	11632.55	10695.75
856.8372	1064.7717	11678.9	10738.1
856.9822	1066.7469	11730	10791.85
857.1272	1068.7213	11756.8	10815.85
857.2723	1070.695	11779.95	10838.65
857.4173	1072.6679	11768.7	10828.7
857.5623	1074.6402	11738	10801.2
857.7073	1076.6117	11719.35	10772.95
857.8523	1078.5826	11675.4	10729.2
857.9973	1080.5527	11622.35	10678.95
858.1423	1082.5221	11624.1	10683.95
858.2873	1084.4908	11714.65	10777.25
858.4323	1086.4587	11815.25	10874.6
858.5773	1088.426	11930.9	10989.1
858.7223	1090.3925	11919.3	10978.25
858.8673	1092.3584	11909.25	10968
859.0123	1094.3235	11842.95	10905.15
859.1573	1096.2879	11863.9	10923.05
859.3022	1098.2515	11906.75	10969.5
859.4472	1100.2145	12039.75	11101.6
859.5922	1102.1767	12173.9	11232
859.7371	1104.1382	12348.75	11406.95
859.8821	1106.099	12555.8	11613.85
860.027	1108.0591	12761.35	11825.5
860.172	1110.0185	12909.45	11966.8
860.3169	1111.9771	12985.2	12045
860.4619	1113.9351	12861.25	11921.25
860.6068	1115.8923	12601.2	11663.35
860.7517	1117.8488	12382.2	11438.6
860.8967	1119.8045	12146.3	11208.5
861.0416	1121.7596	12020.45	11084
861.1865	1123.7139	11902.8	10964.25
861.3314	1125.6675	11931.5	10995.35
861.4763	1127.6204	11976.85	11043.05
861.6212	1129.5726	11948.4	11005.9
861.7661	1131.524	11875.75	10938.7
861.911	1133.4748	11843.85	10904.3
862.0559	1135.4248	11737.35	10798.25
862.2008	1137.3741	11669.1	10730.05
862.3457	1139.3226	11579.15	10640.55
862.4905	1141.2705	11537.65	10598.6
862.6354	1143.2176	11447.75	10501.7
862.7803	1145.164	11442.2	10499.4
862.9251	1147.1097	11411.75	10473.75
863.07	1149.0546	11349.35	10407.35
863.2148	1150.9989	11271.65	10332.2
863.3597	1152.9424	11160.65	10220
863.5045	1154.8852	11030.35	10091.85
863.6493	1156.8272	10946.2	10010.05
863.7942	1158.7686	10930.85	9983.7
863.939	1160.7092	10931.4	9993.2
864.0838	1162.6491	10951.7	10011.8
864.2286	1164.5883	11025.85	10089.65
864.3734	1166.5267	11137.85	10197.95
864.5182	1168.4644	11312.1	10373.7
864.663	1170.4014	11484.6	10545.15
864.8078	1172.3377	11721.75	10787
864.9526	1174.2732	11987.05	11048.35
865.0974	1176.2081	12309.45	11374.25
865.2421	1178.1421	12660.75	11718.4
865.3869	1180.0755	13026.05	12093
865.5317	1182.0082	13216.45	12281.15
865.6764	1183.9401	13331.3	12397.65
865.8212	1185.8713	13172.9	12241.45
865.9659	1187.8017	12904.45	11980.5
866.1106	1189.7315	12612	11695.15
866.2554	1191.6605	12275.35	11357.65
866.4001	1193.5888	12044.65	11121.85
866.5448	1195.5163	11933.1	11004.3
866.6895	1197.4432	11844.85	10910.45
866.8342	1199.3693	11819.9	10884.45
866.9789	1201.2947	11785.5	10846.85
867.1236	1203.2193	11749.15	10814.5
867.2683	1205.1432	11768.85	10830
867.413	1207.0664	11756.85	10820.95
867.5576	1208.9889	11751.85	10814.05
867.7023	1210.9106	11767.4	10836.55
867.847	1212.8316	11807.85	10874.95
867.9916	1214.7519	11838	10894.7
868.1363	1216.6715	11842.45	10911.6
868.2809	1218.5903	11907.55	10973.1
868.4255	1220.5084	11914	10979.25
868.5701	1222.4257	11961.15	11025.4
868.7148	1224.3424	11956.5	11025.4
868.8594	1226.2583	12054.35	11118.25
869.004	1228.1735	12124.1	11192.05
869.1486	1230.0879	12264.35	11331.35
869.2932	1232.0016	12368.6	11436.55
869.4377	1233.9146	12458.85	11520.1
869.5823	1235.8269	12396.6	11461.5
869.7269	1237.7384	12319.05	11386.5
869.8715	1239.6492	12149.35	11218.55
870.016	1241.5592	12072.3	11138.85
870.1606	1243.4686	12064.1	11129.3
870.3051	1245.3772	12103.15	11170.6
870.4496	1247.285	12180.25	11245.75
870.5941	1249.1922	12229.75	11295.9
870.7387	1251.0986	12302.45	11371.05
870.8832	1253.0042	12306.45	11374.3
871.0277	1254.9092	12371.5	11438.55
871.1722	1256.8134	12454.2	11523.8
871.3167	1258.7169	12611.6	11677.9
871.4611	1260.6196	12745.6	11812.65
871.6056	1262.5216	12975.95	12041.75
871.7501	1264.4229	13133.55	12204.25
871.8945	1266.3234	13313.1	12384.45
872.039	1268.2232	13479.55	12539.25
872.1834	1270.1223	13507.65	12571.75
872.3278	1272.0207	13495.05	12561.95
872.4723	1273.9183	13440.15	12500.75
872.6167	1275.8151	13391.9	12459.55
872.7611	1277.7113	13373	12439.8
872.9055	1279.6067	13297.95	12366.3
873.0499	1281.5014	13371.5	12435.2
873.1943	1283.3953	13514.8	12578.65
873.3386	1285.2885	13731.25	12801.5
873.483	1287.181	14015.6	13086.4
873.6274	1289.0727	14194.5	13263.65
873.7717	1290.9637	14338.8	13405.35
873.9161	1292.854	14509.85	13576.7
874.0604	1294.7435	14536.15	13603.5
874.2047	1296.6323	14641.55	13708.25
874.349	1298.5204	14689.25	13751.2
874.4933	1300.4077	14748.2	13816.6
874.6376	1302.2943	14738.3	13807.55
874.7819	1304.1802	14641.25	13709.7
874.9262	1306.0653	14382.2	13448.1
875.0705	1307.9497	14049.9	13118.8
875.2147	1309.8333	13765.25	12833.2
875.359	1311.7162	13575.3	12643.3
875.5032	1313.5984	13520.85	12586.65
875.6475	1315.4798	13465.9	12529.75
875.7917	1317.3605	13465.45	12517.4
875.9359	1319.2405	13458.95	12519.5
876.0801	1321.1197	13315.4	12380.95
876.2243	1322.9982	13111.8	12172.95
876.3685	1324.876	12982.55	12049.15
876.5127	1326.753	12772.25	11840.6
876.6569	1328.6293	12708	11773.65
876.801	1330.5048	12625.95	11689.2
876.9452	1332.3796	12502.8	11573.35
877.0893	1334.2537	12475.55	11514.4
877.2335	1336.127	12411.95	11479.05
877.3776	1337.9996	12368.25	11436.8
877.5217	1339.8714	12417.9	11485.1
877.6658	1341.7426	12407.55	11431.8
877.8099	1343.6129	12371.4	11438.8
877.954	1345.4826	12345.3	11409.6
878.0981	1347.3515	12363.75	11425.7
878.2422	1349.2196	12290.15	11357.55
878.3862	1351.087	12310.2	11374.8
878.5303	1352.9537	12385	11449.9
878.6743	1354.8197	12474.95	11541
878.8184	1356.6849	12636.1	11705.15
878.9624	1358.5493	12772.3	11838.1
879.1064	1360.4131	12887.5	11952.9
879.2504	1362.276	12907.85	11979
879.3944	1364.1383	12835.5	11904.7
879.5384	1365.9998	12624.8	11690.75
879.6823	1367.8606	12298.35	11363.65
879.8263	1369.7206	11956.75	11025.45
879.9702	1371.5799	11660.85	10726.5
880.1142	1373.4384	11445.65	10514.15
880.2581	1375.2962	11263.85	10330.8
880.402	1377.1533	10965.95	10038
880.5459	1379.0096	10650.15	9723
880.6898	1380.8652	10355.1	9426.6
880.8337	1382.7201	10045.6	9114.15
880.9776	1384.5742	9814.45	8884.55
881.1215	1386.4275	9643.4	8712.1
881.2653	1388.2802	9501.65	8571.15
881.4092	1390.132	9392.9	8460.75
881.553	1391.9832	9343.15	8409.05
881.6968	1393.8336	9238.5	8305.5
881.8406	1395.6832	9187	8254.2
881.9844	1397.5322	9162.2	8230.6
882.1282	1399.3803	9150.45	8213.3
882.272	1401.2278	9108.4	8177.05
882.4158	1403.0745	9094.75	8168.2
882.5595	1404.9204	9065.05	8137.15
882.7033	1406.7656	9083.55	8154.95
882.847	1408.6101	9126.45	8198.15
882.9908	1410.4538	9146.05	8218.1
883.1345	1412.2968	9192.2	8259.15
883.2782	1414.139	9240.7	8310.85
883.4219	1415.9805	9320.5	8389.45
883.5656	1417.8213	9375.25	8439.35
883.7092	1419.6613	9477	8547.9
883.8529	1421.5006	9654.15	8724.8
883.9965	1423.3391	9881.4	8953.25
884.1402	1425.1769	10168.05	9237.3
884.2838	1427.0139	10594.55	9661
884.4274	1428.8502	11170.8	10240.25
884.571	1430.6858	11719.95	10791.95
884.7146	1432.5206	12085.25	11159
884.8582	1434.3547	12321.15	11392.15
885.0018	1436.188	12330.85	11402.7
885.1453	1438.0206	12237	11309.6
885.2889	1439.8524	12104.5	11176.1
885.4324	1441.6835	11980.95	11055.4
885.5759	1443.5139	11874.4	10940.05
885.7194	1445.3435	11801.45	10874.45
885.8629	1447.1724	11761.75	10833.65
886.0064	1449.0005	11696.6	10769.6
886.1499	1450.8279	11622.75	10695.2
886.2933	1452.6545	11580.35	10652.4
886.4368	1454.4804	11611.8	10685.1
886.5802	1456.3056	11606.75	10674.2
886.7237	1458.13	11525	10599.55
886.8671	1459.9536	11347.35	10420.55
887.0105	1461.7766	11048.6	10121
887.1539	1463.5987	10661.45	9730.15
887.2972	1465.4202	10333.05	9405.1
887.4406	1467.2409	9978.1	9050.85
887.584	1469.0608	9691.3	8764.4
887.7273	1470.88	9413.35	8485.75
887.8706	1472.6984	9196	8271.9
888.0139	1474.5161	8967.55	8038.9
888.1572	1476.3331	8844.4	7918.8
888.3005	1478.1493	8738.2	7811.7
888.4438	1479.9648	8663.05	7738.45
888.5871	1481.7795	8551.2	7623.45
888.7303	1483.5935	8480.85	7550.4
888.8736	1485.4067	8421.25	7494.8
889.0168	1487.2192	8385.75	7459.7
889.16	1489.031	8336.55	7408.8
889.3032	1490.842	8276.65	7348.1
889.4464	1492.6522	8241.75	7316.7
889.5896	1494.4618	8213.9	7285.35
889.7327	1496.2705	8194.7	7269.1
889.8759	1498.0785	8146.3	7219.7
890.019	1499.8858	8118.2	7191.9
890.1622	1501.6924	8086.55	7162.6
890.3053	1503.4981	8056.35	7129.35
890.4484	1505.3032	8011.05	7085.1
890.5914	1507.1075	7972.15	7044.7
890.7345	1508.911	7929.75	7006.4
890.8776	1510.7138	7895.55	6969.5
891.0206	1512.5159	7846.4	6921.35
891.1637	1514.3172	7802.4	6879.7
891.3067	1516.1178	7727.4	6805.15
891.4497	1517.9176	7719.7	6791.25
891.5927	1519.7166	7700.05	6779.65
891.7357	1521.515	7671.3	6741.35
891.8786	1523.3126	7656.5	6730.2
892.0216	1525.1094	7612.15	6687.45
892.1645	1526.9055	7581.35	6657.3
892.3074	1528.7008	7549.75	6630.7
892.4503	1530.4954	7500.95	6576.55
892.5932	1532.2893	7495.75	6577.55
892.7361	1534.0824	7447.1	6523.25
892.879	1535.8747	7469.65	6550.95
893.0218	1537.6663	7434.1	6514.95
893.1647	1539.4572	7431.5	6511.9
893.3075	1541.2473	7436.25	6514.6
893.4503	1543.0367	7417.3	6500.7
893.5931	1544.8253	7431.3	6506.85
893.7359	1546.6132	7459.05	6536.65
893.8787	1548.4003	7458	6528.9
894.0214	1550.1867	7477.05	6547.15
894.1642	1551.9723	7518.35	6595.65
894.3069	1553.7572	7584.9	6664.5
894.4496	1555.5414	7665.4	6746.15
894.5923	1557.3247	7734.45	6819.5
894.735	1559.1074	7840.15	6925.8
894.8777	1560.8893	7968.65	7052.25
895.0204	1562.6705	8077.1	7163.6
895.163	1564.4509	8162.3	7249.8
895.3056	1566.2305	8207.35	7295.1
895.4482	1568.0094	8272.35	7361.65
895.5908	1569.7876	8275.4	7363.85
895.7334	1571.565	8267.3	7351.5
895.876	1573.3417	8261.1	7348.2
896.0186	1575.1176	8257.65	7346.7
896.1611	1576.8928	8204.9	7294
896.3036	1578.6672	8163.4	7255.55
896.4461	1580.4409	8126.1	7220
896.5886	1582.2138	8077.1	7168.2
896.7311	1583.986	8027.05	7119.6
896.8736	1585.7575	8027.55	7118.7
897.0161	1587.5282	8017.45	7109.5
897.1585	1589.2981	8054.5	7151.8
897.3009	1591.0673	8074.55	7169.15
897.4433	1592.8358	8109.2	7203.35
897.5857	1594.6035	8184.7	7271.65
897.7281	1596.3704	8230.85	7320.75
897.8705	1598.1366	8280.05	7371.8
898.0128	1599.9021	8348.4	7439.3
898.1551	1601.6668	8415.5	7506.5
898.2975	1603.4308	8541.55	7631.3
898.4398	1605.194	8685.25	7772.45
898.5821	1606.9564	8834.5	7933.05
898.7243	1608.7182	9014.6	8113.45
898.8666	1610.4791	9243.9	8348.35
899.0088	1612.2394	9458.25	8566
899.1511	1613.9988	9676.25	8777.95
899.2933	1615.7576	9909.4	9009
899.4355	1617.5156	10112.05	9201.95
899.5776	1619.2728	10257.5	9347.15
899.7198	1621.0293	10307.25	9397.35
899.862	1622.785	10205.2	9296.7
900.0041	1624.54	10037.85	9135.3
900.1462	1626.2942	9798.6	8898.35
900.2883	1628.0477	9489.55	8587.3
900.4304	1629.8005	9220.35	8314.75
900.5725	1631.5525	8976.95	8075.45
900.7145	1633.3037	8767.35	7867.85
900.8566	1635.0542	8603.6	7703.35
900.9986	1636.804	8472.6	7572.3
901.1406	1638.553	8504.9	7504.2
901.2826	1640.3013	8361.45	7457.25
901.4245	1642.0488	8317	7412.95
901.5665	1643.7955	8381.85	7485.95
901.7085	1645.5416	8399.75	7502.75
901.8504	1647.2868	8524.5	7623.15
901.9923	1649.0313	8625.85	7722.8
902.1342	1650.7751	8761.9	7858.4
902.2761	1652.5181	8922.25	8023.95
902.4179	1654.2604	9100.75	8200.45
902.5598	1656.0019	9353.55	8455.55
902.7016	1657.7427	9634.85	8734.75
902.8434	1659.4828	9886.35	8982.65
902.9852	1661.222	10046.6	9141.4
903.127	1662.9606	10027.75	9126.55
903.2687	1664.6984	9802.45	8897.9
903.4105	1666.4354	9368.35	8461.85
903.5522	1668.1717	8820.05	7913.05
903.6939	1669.9072	8284.25	7380.8
903.8356	1671.642	7861.15	6953.65
903.9773	1673.3761	7480.55	6578.65
904.119	1675.1094	7182.6	6278.1
904.2606	1676.8419	6948	6046.8
904.4022	1678.5737	6754.15	5848.9
904.5439	1680.3048	6596.4	5691.9
904.6855	1682.0351	6486.55	5584.75
904.827	1683.7646	6400.45	5495.05
904.9686	1685.4934	6310.95	5410.05
905.1101	1687.2215	6236.1	5335.8
905.2517	1688.9488	6155.2	5254.05
905.3932	1690.6754	6125.25	5226
905.5347	1692.4012	6078.25	5175.7
905.6761	1694.1263	6024.55	5122.6
905.8176	1695.8506	5993.8	5091.25
905.9591	1697.5742	5950	5049.55
906.1005	1699.297	5893.45	4994.9
906.2419	1701.0191	5851.3	4956.4
906.3833	1702.7404	5842.65	4945.15
906.5246	1704.461	5797.1	4895.25
906.666	1706.1808	5749.05	4848.7
906.8073	1707.8999	5748.45	4852.4
906.9487	1709.6182	5693.25	4799
907.09	1711.3358	5644.75	4752.55
907.2313	1713.0527	5643.3	4748.7
907.3725	1714.7688	5608.45	4707.05
907.5138	1716.4841	5595.35	4698.05
907.655	1718.1987	5587.95	4685.5
907.7962	1719.9126	5553.45	4658.85
907.9374	1721.6257	5527.05	4631.3
908.0786	1723.338	5523.3	4633.1
908.2198	1725.0496	5496.45	4600.85
908.3609	1726.7605	5481.4	4586.55
908.502	1728.4706	5458	4560.55
908.6431	1730.18	5410.5	4516.95
908.7842	1731.8886	5419.2	4526.95
908.9253	1733.5964	5434	4519.85
909.0664	1735.3036	5398.45	4503.7
909.2074	1737.0099	5368.4	4473.95
909.3484	1738.7156	5356.15	4463.4
909.4894	1740.4204	5316.2	4420.1
909.6304	1742.1246	5318.25	4422.55
909.7714	1743.8279	5267.5	4371.25
909.9123	1745.5306	5256.1	4363.15
910.0532	1747.2325	5228.4	4336.3
910.1941	1748.9336	5231	4336.35
910.335	1750.634	5216.75	4322.15
910.4759	1752.3336	5186.15	4292.35
910.6168	1754.0325	5158.8	4269.65
910.7576	1755.7307	5137.45	4245.2
910.8984	1757.4281	5152.5	4258.75
911.0392	1759.1247	5147	4241.15
911.18	1760.8206	5129.85	4229
911.3208	1762.5158	5113.5	4214.5
911.4615	1764.2102	5097	4202.4
911.6022	1765.9039	5075.45	4184.2
911.7429	1767.5968	5061.15	4170.15
911.8836	1769.289	5048.3	4156.6
912.0243	1770.9804	5025.85	4130.4
912.1649	1772.6711	5031.6	4138.6
912.3056	1774.361	5028.55	4128.95
912.4462	1776.0502	5010.8	4115.05
912.5868	1777.7386	5010	4110.3
912.7274	1779.4263	4988.5	4095
912.8679	1781.1132	4976.15	4085.3
913.0084	1782.7994	4962.1	4070.2
913.149	1784.4849	4935.65	4048.65
913.2895	1786.1696	4948.95	4051.15
913.4299	1787.8535	4917.7	4028.2
913.5704	1789.5367	4893.85	4003.65
913.7108	1791.2192	4884.5	3992.8
913.8513	1792.9009	4889.7	3970.9
913.9917	1794.5818	4868.05	3973.7
914.132	1796.2621	4866.75	3973.5
914.2724	1797.9415	4855.75	3962
914.4128	1799.6202	4857.2	3962.5
914.5531	1801.2982	4834.95	3940.25
914.6934	1802.9755	4830.65	3934.25
914.8337	1804.6519	4816.95	3923
914.9739	1806.3277	4778.9	3886.7
915.1142	1808.0027	4769.05	3880.55
915.2544	1809.6769	4767.45	3878.65
915.3946	1811.3504	4782.35	3892.3
915.5348	1813.0231	4749.9	3859.8
915.675	1814.6951	4743.65	3854.25
915.8151	1816.3664	4747.9	3853.8
915.9553	1818.0369	4736.4	3846.4
916.0954	1819.7067	4723.5	3830.7
916.2355	1821.3757	4737.15	3842.75
916.3755	1823.044	4722.15	3828.7
916.5156	1824.7115	4704.95	3810.95
916.6556	1826.3783	4681.8	3788.95
916.7956	1828.0443	4666.45	3775.15
916.9356	1829.7096	4666	3772.4
917.0756	1831.3741	4663.5	3769.2
917.2155	1833.0379	4654.8	3764.2
917.3555	1834.701	4645.3	3755.4
917.4954	1836.3633	4631.35	3742.2
917.6353	1838.0248	4618.5	3725.9
917.7751	1839.6856	4602.8	3715
917.915	1841.3457	4620.3	3729.05
918.0548	1843.005	4603.9	3712.4
918.1946	1844.6636	4581.4	3691.75
918.3344	1846.3214	4577.2	3685.1
918.4742	1847.9785	4573.55	3681.9
918.6139	1849.6349	4581.45	3689.75
918.7537	1851.2904	4576	3672.05
918.8934	1852.9453	4554.3	3661
919.0331	1854.5994	4535.65	3639.2
919.1727	1856.2528	4540.2	3643.85
919.3124	1857.9054	4525.3	3633.4
919.452	1859.5572	4511.45	3619
919.5916	1861.2083	4503.35	3610.6
919.7312	1862.8587	4501.75	3609.05
919.8708	1864.5084	4496.9	3603.35
920.0103	1866.1572	4492.3	3597.25
920.1498	1867.8054	4469.95	3574.85
920.2893	1869.4528	4458.35	3564.35
920.4288	1871.0994	4452.55	3557.75
920.5683	1872.7453	4451.9	3558.6
920.7077	1874.3905	4435.25	3526.1
920.8471	1876.0349	4425.55	3531.45
920.9865	1877.6786	4417.4	3524.45
921.1259	1879.3215	4416.75	3522.2
921.2653	1880.9637	4408.05	3514.1
921.4046	1882.6051	4396.75	3504.35
921.5439	1884.2458	4382.9	3490.55
921.6832	1885.8858	4375.15	3484.9
921.8225	1887.525	4381.95	3488.75
921.9617	1889.1634	4350.5	3457.3
922.101	1890.8011	4340.75	3448.35
922.2402	1892.4381	4316.8	3424
922.3794	1894.0743	4329.85	3437.7
922.5185	1895.7098	4311.4	3418.8
922.6577	1897.3446	4298.25	3405.55
922.7968	1898.9786	4294.45	3396.8
922.9359	1900.6118	4287.65	3398.1
923.075	1902.2443	4263.25	3371.75
923.214	1903.8761	4276.1	3385.7
923.3531	1905.5071	4241.05	3347.1
923.4921	1907.1374	4233.15	3343.3
923.6311	1908.7669	4216.95	3326.7
923.77	1910.3957	4213.75	3323.5
923.909	1912.0237	4199.75	3307.1
924.0479	1913.651	4196.5	3305.5
924.1868	1915.2776	4178.15	3288.4
924.3257	1916.9034	4171.75	3283.4
924.4646	1918.5285	4150.55	3262.6
924.6034	1920.1528	4137.3	3244.15
924.7422	1921.7764	4143.1	3252.8
924.881	1923.3992	4133.7	3243
925.0198	1925.0213	4106.55	3214.7
925.1586	1926.6427	4095.35	3207.8
925.2973	1928.2633	4253.1	3156.2
925.436	1929.8832	4121.1	3226.4
925.5747	1931.5023	4076.3	3186
925.7134	1933.1207	4075.05	3184.75
925.852	1934.7383	4049.9	3158.75
925.9906	1936.3552	4030.65	3139.9
926.1292	1937.9714	4031.15	3141.25
926.2678	1939.5868	4007.05	3116
926.4064	1941.2015	3991.4	3101.25
926.5449	1942.8154	3986	3092.95
926.6834	1944.4286	3958.25	3065.3
926.8219	1946.041	3978.65	3073.05
926.9604	1947.6528	3957	3062.4
927.0988	1949.2637	3938.75	3048.5
927.2372	1950.8739	3921.7	3029.85
927.3756	1952.4834	3920	3027.7
927.514	1954.0921	3904.85	3015.15
927.6523	1955.7001	3914.25	3019.15
927.7907	1957.3074	3894.7	3006.6
927.929	1958.9139	3877.25	2989.15
928.0673	1960.5197	3868.25	2977.9
928.2055	1962.1247	3847.7	2960.25
928.3438	1963.729	3834.45	2946.3
928.482	1965.3325	3837.7	2943.75
928.6202	1966.9353	3824.5	2940.1
928.7584	1968.5374	3803.1	2915.1
928.8965	1970.1387	3798.5	2910.45
929.0346	1971.7393	3780.5	2893.45
929.1727	1973.3392	3780.9	2894.85
929.3108	1974.9383	3764.45	2880.25
929.4489	1976.5366	3739.9	2851.85
929.5869	1978.1342	3734.2	2849.45
929.7249	1979.7311	3744.35	2858.85
929.8629	1981.3273	3734.05	2847.65
930.0009	1982.9227	3717.85	2832.6
930.1388	1984.5173	3699.1	2815.25
930.2767	1986.1112	3696.9	2811
930.4146	1987.7044	3683.15	2800.5
930.5525	1989.2968	3690.95	2803.2
930.6904	1990.8885	3690.95	2802.05
930.8282	1992.4795	3677.65	2793.85
930.966	1994.0697	3664.3	2780.85
931.1038	1995.6592	3661.75	2778.8
931.2415	1997.2479	3633.85	2747.45
931.3793	1998.8359	3618.7	2735.35
931.517	2000.4232	3619.95	2736.9
931.6547	2002.0097	3605.25	2727.05
931.7923	2003.5955	3588.2	2706.65
931.93	2005.1805	3583.8	2700.95
932.0676	2006.7648	3586.05	2704.05
932.2052	2008.3484	3565.15	2683.25
932.3427	2009.9312	3577.05	2694.35
932.4803	2011.5133	3550.2	2670.1
932.6178	2013.0946	3552.4	2671.9
932.7553	2014.6752	3550.6	2669.45
932.8928	2016.2551	3532.95	2650.45
933.0302	2017.8342	3521.1	2637.25
933.1676	2019.4126	3522.6	2643.6
933.305	2020.9902	3497.25	2619.25
933.4424	2022.5672	3498	2619.4
933.5798	2024.1433	3495.8	2611.85
933.7171	2025.7188	3463.8	2587.25
933.8544	2027.2935	3477.35	2599.45
933.9917	2028.8674	3469	2591.4
934.129	2030.4406	3439.9	2560.85
934.2662	2032.0131	3434.65	2557.15
934.4034	2033.5849	3428.25	2549.35
934.5406	2035.1559	3432.15	2553.75
934.6778	2036.7261	3442.55	2561.4
934.8149	2038.2957	3435.15	2554.2
934.952	2039.8645	3415.7	2532
935.0891	2041.4325	3419.9	2532.1
935.2262	2042.9998	3407.8	2525.15
935.3632	2044.5664	3393.7	2511.2
935.5002	2046.1323	3394.3	2515.6
935.6372	2047.6974	3365.45	2489.15
935.7742	2049.2617	3370.8	2493.75
935.9111	2050.8254	3398.3	2497.75
936.048	2052.3883	3378	2496.7
936.1849	2053.9504	3385	2499.05
936.3218	2055.5118	3361.05	2478.5
936.4586	2057.0725	3355.45	2469.65
936.5955	2058.6325	3332.8	2450.7
936.7323	2060.1917	3333.95	2455.8
936.869	2061.7502	3330.8	2447.7
937.0058	2063.3079	3320.7	2445.3
937.1425	2064.8649	3310.45	2429.25
937.2792	2066.4212	3322.7	2440.05
937.4159	2067.9767	3291.05	2412.75
937.5525	2069.5315	3291.8	2409.9
937.6891	2071.0856	3276.3	2397.25
937.8257	2072.6389	3263.55	2383
937.9623	2074.1915	3246.95	2369.05
938.0989	2075.7433	3231.45	2350.75
938.2354	2077.2945	3228.8	2349.3
938.3719	2078.8448	3233.7	2351.45
938.5084	2080.3945	3231.3	2348.5
938.6448	2081.9434	3231	2347.85
938.7812	2083.4916	3223.8	2337.55
938.9176	2085.039	3208.3	2319.75
939.054	2086.5857	3200.6	2310
939.1903	2088.1317	3199.55	2310.45
939.3267	2089.677	3183.2	2294.6
939.463	2091.2215	3187.1	2297.95
939.5992	2092.7652	3182.3	2293.15
939.7355	2094.3083	3168.15	2278.6
939.8717	2095.8506	3157.4	2275.45
940.0079	2097.3921	3170	2287.35
940.1441	2098.933	3157.85	2275.05
940.2802	2100.4731	3143.35	2260.2
940.4163	2102.0124	3143.75	2250.75
940.5524	2103.5511	3138.35	2250.4
940.6885	2105.089	3130.75	2243.95
940.8245	2106.6261	3126.65	2241.25
940.9606	2108.1626	3119.65	2235.65
941.0965	2109.6983	3141.4	2226.3
941.2325	2111.2332	3111.8	2227.2
941.3684	2112.7675	3097.1	2207.95
941.5044	2114.301	3102.95	2217.15
941.6403	2115.8337	3096.85	2209.4
941.7761	2117.3657	3085.35	2199.25
941.912	2118.897	3083.1	2199.15
942.0478	2120.4276	3075.55	2183.3
942.1835	2121.9575	3053	2163.35
942.3193	2123.4866	3064.05	2174.85
942.455	2125.0149	3063.55	2175.35
942.5907	2126.5426	3040.85	2159.25
942.7264	2128.0695	3045.1	2160.05
942.8621	2129.5956	3024.6	2147.25
942.9977	2131.1211	3024.1	2138.55
943.1333	2132.6458	3020.7	2137.8
943.2689	2134.1698	3029	2140.7
943.4044	2135.693	3029.7	2139.25
943.54	2137.2155	3012.95	2121.3
943.6755	2138.7373	2995.65	2108.55
943.8109	2140.2584	2977.75	2094.55
943.9464	2141.7787	2986.85	2099.9
944.0818	2143.2983	2975.4	2096.25
944.2172	2144.8171	2957.2	2079.5
944.3526	2146.3353	2956.05	2071.9
944.4879	2147.8527	2945.1	2061
944.6232	2149.3693	2955.3	2069.45
944.7585	2150.8853	2952.35	2066.2
944.8938	2152.4005	2932.75	2045.7
945.029	2153.9149	2937.1	2049.3
945.1642	2155.4287	2930.95	2042.6
945.2994	2156.9417	2920.1	2033.35
945.4346	2158.454	2919.7	2032.6
945.5697	2159.9655	2904.6	2022.45
945.7048	2161.4764	2909.65	2027
945.8399	2162.9865	2898.95	2015.8
945.9749	2164.4958	2885.6	2003.1
946.1099	2166.0045	2896.9	2012.1
946.2449	2167.5124	2877.2	1992.3
946.3799	2169.0195	2865.05	1979.15
946.5148	2170.526	2879.45	1993.25
946.6498	2172.0317	2868.75	1980.65
946.7846	2173.5367	2870.6	1985.5
946.9195	2175.0409	2860.05	1974.1
947.0543	2176.5445	2854.8	1970.65
947.1891	2178.0473	2850.85	1964.6
947.3239	2179.5494	2845.15	1955.75
947.4587	2181.0507	2832	1946.8
947.5934	2182.5513	2831.4	1945.45
947.7281	2184.0512	2821	1933.25
947.8628	2185.5504	2818.15	1932.7
947.9974	2187.0488	2812.05	1931.8
948.132	2188.5465	2801.95	1919.25
948.2666	2190.0435	2804.85	1920.9
948.4012	2191.5397	2792.75	1905.7
948.5357	2193.0353	2787.85	1901.1
948.6702	2194.5301	2782.95	1893.95
948.8047	2196.0241	2777.1	1887.2
948.9392	2197.5175	2777.85	1889.15
949.0736	2199.0101	2773.1	1879.55
949.208	2200.502	2763.5	1878.75
949.3424	2201.9931	2733.45	1848.3
949.4767	2203.4835	2729.1	1845.5
949.611	2204.9733	2738.5	1850.75
949.7453	2206.4622	2732.65	1852.5
949.8796	2207.9505	2717.55	1833.05
950.0138	2209.438	2709.4	1831.7
950.148	2210.9248	2700.7	1816.9
950.2822	2212.4109	2703.55	1818.85
950.4164	2213.8962	2700.45	1810.25
950.5505	2215.3809	2695.45	1805.45
950.6846	2216.8648	2698.6	1807.6
950.8186	2218.3479	2693.55	1794.05
950.9527	2219.8304	2687.15	1792.5
951.0867	2221.3121	2679.15	1787.25
951.2207	2222.7931	2655.4	1768.35
951.3546	2224.2733	2660.9	1773.1
951.4886	2225.7529	2663.6	1776.1
951.6225	2227.2317	2642.65	1756.55
951.7563	2228.7098	2629.1	1747.2
951.8902	2230.1872	2622.85	1739.7
952.024	2231.6638	2634.25	1751.85
952.1578	2233.1397	2613.75	1724.65
952.2916	2234.6149	2620.5	1738.8
952.4253	2236.0894	2613.8	1729.3
952.559	2237.5632	2627.95	1734.75
952.6927	2239.0362	2594.45	1708.95
952.8263	2240.5085	2589.4	1706.4
952.9599	2241.9801	2587.3	1698.7
953.0935	2243.4509	2586.65	1699.1
953.2271	2244.921	2578.05	1690.95
953.3606	2246.3904	2572.3	1680.75
953.4941	2247.8591	2553.2	1665
953.6276	2249.3271	2551.95	1663.55
953.7611	2250.7943	2551.65	1663.25
953.8945	2252.2608	2537.8	1650.55
954.0279	2253.7266	2552.75	1664.25
954.1612	2255.1917	2541.8	1656.55
954.2946	2256.656	2542.4	1658.15
954.4279	2258.1197	2524.35	1640.8
954.5612	2259.5826	2525.2	1636.4
954.6944	2261.0447	2516.2	1626.55
954.8276	2262.5062	2510.75	1623.4
954.9608	2263.9669	2515.5	1624.05
955.094	2265.4269	2508.8	1622.9
955.2271	2266.8862	2497.1	1611.75
955.3602	2268.3448	2491.65	1607.9
955.4933	2269.8026	2495.2	1612.3
955.6264	2271.2598	2479.45	1595.45
955.7594	2272.7162	2484.9	1601.15
955.8924	2274.1719	2485.75	1597.5
956.0253	2275.6268	2481.15	1592.6
956.1583	2277.0811	2473.55	1584.1
956.2912	2278.5346	2461.05	1574.9
956.4241	2279.9874	2459.95	1576.9
956.5569	2281.4395	2466.75	1580.55
956.6897	2282.8908	2464.3	1574.1
956.8225	2284.3414	2448.65	1560.2
956.9553	2285.7914	2449.35	1565.1
957.088	2287.2406	2440.75	1552.85
957.2207	2288.689	2442.7	1552.75
957.3534	2290.1368	2432.3	1540.35
957.486	2291.5838	2437.15	1543.25
957.6186	2293.0302	2444.2	1549.95
957.7512	2294.4758	2424.75	1535.55
957.8838	2295.9206	2423.1	1534.25
958.0163	2297.3648	2412.85	1527.85
958.1488	2298.8082	2416	1528.8
958.2813	2300.251	2408.55	1522.1
958.4137	2301.693	2416.9	1526.05
958.5461	2303.1343	2401.15	1510.3
958.6785	2304.5748	2389.35	1502.85
958.8108	2306.0147	2382.15	1498.15
958.9432	2307.4538	2382.2	1495.05
959.0754	2308.8922	2374.35	1492.85
959.2077	2310.3299	2371.15	1487.5
959.3399	2311.7669	2351.4	1466.95
959.4721	2313.2031	2369.2	1485.5
959.6043	2314.6387	2362.5	1476.25
959.7365	2316.0735	2348.2	1461.55
959.8686	2317.5076	2350.2	1463.15
960.0006	2318.941	2336.3	1447.45
960.1327	2320.3737	2336.7	1447.9
960.2647	2321.8056	2342.1	1449.75
960.3967	2323.2369	2338.2	1451.25
960.5287	2324.6674	2326.3	1438.45
960.6606	2326.0972	2324.75	1437.6
960.7925	2327.5263	2315.9	1430.25
960.9244	2328.9547	2313.25	1423
961.0562	2330.3823	2305.9	1416.2
961.1881	2331.8092	2321.8	1428.9
961.3198	2333.2355	2300.85	1411.85
961.4516	2334.661	2305.65	1415.95
961.5833	2336.0858	2295.5	1406.75
961.715	2337.5098	2288.45	1398
961.8467	2338.9332	2287.2	1399.55
961.9783	2340.3558	2285.1	1395.9
962.1099	2341.7778	2282.95	1398.05
962.2415	2343.199	2281.95	1392.05
962.373	2344.6195	2275.75	1388.75
962.5045	2346.0393	2272.15	1386.5
962.636	2347.4583	2283.45	1396.75
962.7675	2348.8767	2269	1381.2
962.8989	2350.2943	2254.45	1367.05
963.0303	2351.7113	2262.05	1370.3
963.1617	2353.1275	2255.75	1365.75
963.293	2354.543	2271.35	1372.95
963.4243	2355.9578	2245.25	1357.75
963.5556	2357.3718	2234.15	1347.6
963.6868	2358.7852	2237.05	1348.55
963.818	2360.1978	2232.35	1347.35
963.9492	2361.6098	2235.25	1349.75
964.0803	2363.021	2233.9	1345.3
964.2114	2364.4315	2216.3	1330.4
964.3425	2365.8413	2215.35	1327.85
964.4736	2367.2504	2205.6	1320.45
964.6046	2368.6587	2202.25	1313.9
964.7356	2370.0664	2205.95	1321.3
964.8666	2371.4733	2205.55	1319.95
964.9975	2372.8795	2204.65	1317.3
965.1284	2374.285	2190.95	1303
965.2593	2375.6899	2185.8	1300.85
965.3901	2377.0939	2176.3	1292.85
965.5209	2378.4973	2182.15	1298.45
965.6517	2379.9	2163.65	1278.45
965.7825	2381.3019	2154.15	1269.75
965.9132	2382.7032	2163.45	1279.4
966.0439	2384.1037	2157.5	1277.1
966.1745	2385.5035	2146	1262.95
966.3051	2386.9027	2138.35	1257.1
966.4357	2388.3011	2140.85	1252.9
966.5663	2389.6987	2142.75	1260.5
966.6968	2391.0957	2134.1	1250.4
966.8273	2392.492	2116.4	1235.35
966.9578	2393.8876	2119.9	1236.05
967.0882	2395.2824	2111.15	1226.95
967.2186	2396.6765	2118.95	1235.55
967.349	2398.07	2115.25	1229.65
967.4793	2399.4627	2107.35	1222.7
967.6097	2400.8547	2108.05	1223.7
967.7399	2402.246	2106.55	1215.95
967.8702	2403.6366	2095.85	1211.75
968.0004	2405.0265	2087.1	1205.15
968.1306	2406.4156	2083.55	1199.3
968.2607	2407.8041	2093.1	1205.8
968.3909	2409.1918	2081.75	1194.45
968.521	2410.5789	2071.25	1184.8
968.651	2411.9652	2076.55	1188.5
968.781	2413.3508	2064.65	1180.7
968.911	2414.7358	2072.05	1185.6
969.041	2416.12	2060.2	1174.9
969.1709	2417.5035	2054.65	1170.3
969.3008	2418.8863	2054.8	1167.95
969.4307	2420.2684	2061.65	1176.5
969.5606	2421.6497	2041.25	1157.1
969.6904	2423.0304	2044.05	1158.65
969.8201	2424.4104	2034.5	1148.75
969.9499	2425.7896	2035.25	1146.5
970.0796	2427.1682	2037.65	1153.7
970.2093	2428.546	2033.7	1151.15
970.3389	2429.9232	2026.8	1141.55
970.4685	2431.2996	2020.55	1134.8
970.5981	2432.6753	2013.55	1130.1
970.7277	2434.0503	2009.25	1123.9
970.8572	2435.4246	1997.95	1112.5
970.9867	2436.7982	2006.45	1119.7
971.1161	2438.1711	2004.8	1121.45
971.2456	2439.5433	2006.85	1120.95
971.375	2440.9148	1999.4	1109.45
971.5043	2442.2856	1983.6	1098.45
971.6336	2443.6557	1981.2	1092.85
971.7629	2445.025	1977.9	1091.85
971.8922	2446.3937	1986.75	1099.85
972.0214	2447.7617	1977.15	1091.2
972.1506	2449.1289	1969.05	1086.55
972.2798	2450.4955	1967.45	1079
972.4089	2451.8613	1954.85	1072.95
972.538	2453.2265	1959.6	1073
972.6671	2454.5909	1970.6	1084.65
972.7961	2455.9546	1960.25	1075
972.9251	2457.3177	1956.35	1069.85
973.0541	2458.68	1959.7	1072.45
973.1831	2460.0416	1956.8	1070.35
973.312	2461.4025	1956.8	1067.25
973.4408	2462.7627	1945.15	1049.4
973.5697	2464.1222	1932.85	1049.9
973.6985	2465.4811	1934.7	1052.25
973.8273	2466.8392	1931.15	1046.4
973.956	2468.1966	1934.7	1048.15
974.0847	2469.5533	1951.95	1065.1
974.2134	2470.9093	1939.85	1056.2
974.3421	2472.2645	1934.65	1046.85
974.4707	2473.6191	1922.95	1039.65
974.5993	2474.973	1917.8	1031.95
974.7278	2476.3262	1929.1	1043.3
974.8563	2477.6787	1918.05	1033.3
974.9848	2479.0305	1913.7	1031.1
975.1132	2480.3816	1914.3	1028.25
975.2417	2481.7319	1899.95	1015.25
975.37	2483.0816	1902.95	1016.75
975.4984	2484.4306	1893.45	1007.65
975.6267	2485.7789	1894.2	1011.35
975.755	2487.1264	1896.5	1009.65
975.8833	2488.4733	1889.95	1007.2
976.0115	2489.8195	1888.7	996.05
976.1397	2491.165	1876.5	991.1
976.2678	2492.5097	1881.75	995.5
976.3959	2493.8538	1874.45	992.25
976.524	2495.1972	1865.85	980.6
976.6521	2496.5398	1868.8	980.1
976.7801	2497.8818	1875	986.65
976.9081	2499.2231	1857.55	971.4
977.036	2500.5637	1865.8	979.3
977.164	2501.9035	1864.55	978.65
977.2918	2503.2427	1863.45	973.95
977.4197	2504.5812	1848.55	962.7
977.5475	2505.919	1854.45	967.35
977.6753	2507.256	1844	957.2
977.8031	2508.5924	1843.35	959.25
977.9308	2509.9281	1842.05	950.25
978.0585	2511.2631	1825.2	940.95
978.1861	2512.5974	1829.1	944.6
978.3137	2513.9309	1825.75	941
978.4413	2515.2638	1850.15	938.5
978.5689	2516.596	1826.45	941.55
978.6964	2517.9275	1821.1	932.9
978.8239	2519.2583	1813.7	929.25
978.9513	2520.5884	1813.85	927.15
979.0788	2521.9178	1811.7	927.05
979.2062	2523.2465	1808.7	923.85
979.3335	2524.5745	1808.1	923.9
979.4608	2525.9018	1807.55	922.15
979.5881	2527.2284	1800.5	915.45
979.7154	2528.5543	1801	916.8
979.8426	2529.8796	1796.55	912.6
979.9698	2531.2041	1806.5	922.7
980.0969	2532.5279	1800.35	916.85
980.224	2533.851	1787.5	904.15
980.3511	2535.1735	1787.55	902.9
980.4781	2536.4952	1782.4	897.7
980.6052	2537.8163	1783.25	896.55
980.7321	2539.1366	1787	901.3
980.8591	2540.4562	1783.05	896.4
980.986	2541.7752	1783.35	897.75
981.1129	2543.0935	1779.2	892.8
981.2397	2544.411	1765.9	879.8
981.3665	2545.7279	1779.05	894.3
981.4933	2547.0441	1763.9	879.05
981.62	2548.3596	1773.15	885.45
981.7467	2549.6744	1774.85	887.8
981.8734	2550.9885	1769.25	882.85
982.0001	2552.3019	1771.05	887.5
982.1267	2553.6146	1767.15	881.05
982.2532	2554.9266	1761.55	875.1
982.3798	2556.2379	1755.75	867.95
982.5063	2557.5485	1746.45	861.65
982.6327	2558.8585	1759	865.55
982.7592	2560.1677	1754.65	866.15
982.8856	2561.4762	1759.5	872.85
983.0119	2562.7841	1745.85	856.95
983.1383	2564.0913	1745.5	860.35
983.2646	2565.3977	1745.2	859.5
983.3908	2566.7035	1746.9	860.5
983.517	2568.0086	1742.55	855.9
983.6432	2569.313	1741.5	855.05
983.7694	2570.6167	1737.5	846.6
983.8955	2571.9197	1736.2	850.5
984.0216	2573.222	1739.65	850.4
984.1476	2574.5236	1732.9	844.5
984.2737	2575.8246	1729.05	842.9
984.3996	2577.1248	1732.6	843.45
984.5256	2578.4244	1729.45	844.1
984.6515	2579.7232	1726	840.55
984.7774	2581.0214	1753.05	839.6
984.9032	2582.3189	1720.8	835.05
985.029	2583.6157	1722.35	833.3
985.1548	2584.9118	1728.45	842.15
985.2806	2586.2072	1732.3	847.1
985.4063	2587.5019	1722	836.1
985.5319	2588.7959	1723.9	838.3
985.6576	2590.0893	1733.2	847.25
985.7832	2591.3819	1718.05	830.9
985.9087	2592.6739	1723.8	838.8
986.0343	2593.9652	1725.5	835.9
986.1597	2595.2557	1728.15	841.65
986.2852	2596.5456	1718.05	829.65
986.4106	2597.8348	1720.35	834.55
986.536	2599.1234	1716.15	831.2
986.6614	2600.4112	1719.85	834.95
986.7867	2601.6983	1717.25	829.6
986.912	2602.9848	1709.65	824.95
987.0372	2604.2705	1714.65	822.5
987.1624	2605.5556	1705.8	819.85
987.2876	2606.84	1707.75	822.4
987.4128	2608.1237	1710.35	823.95
987.5379	2609.4067	1701.15	816.75
987.6629	2610.689	1702.95	807
987.788	2611.9707	1704.6	815.9
987.913	2613.2516	1705.95	818
988.0379	2614.5319	1694.15	810.8
988.1629	2615.8115	1685.3	801.35
988.2878	2617.0903	1685	798.15
988.4126	2618.3685	1681.9	795.25
988.5375	2619.6461	1683.5	798.5
988.6622	2620.9229	1678.75	794.15
988.787	2622.199	1668.05	783.35
988.9117	2623.4745	1680.25	795.3
989.0364	2624.7493	1676.55	791.75
989.161	2626.0234	1666.05	782.95
989.2857	2627.2968	1662.8	779.45
989.4102	2628.5695	1661.25	775.2
989.5348	2629.8415	1659.4	775.85
989.6593	2631.1128	1663.6	778.75
989.7837	2632.3835	1653.1	771.25
989.9082	2633.6535	1663.15	778.9
990.0326	2634.9228	1661.4	779
990.1569	2636.1914	1648.5	763.75
990.2812	2637.4593	1653.5	768
990.4055	2638.7265	1652.6	768.6
990.5298	2639.9931	1643.95	760
990.654	2641.259	1653.55	768.75
990.7782	2642.5242	1645.95	760.25
990.9023	2643.7887	1646.95	759.35
991.0264	2645.0525	1636.95	753.4
991.1505	2646.3156	1642.7	756.35
991.2745	2647.5781	1633.25	749.8
991.3985	2648.8398	1626.65	745.45
991.5225	2650.1009	1665.05	743.45
991.6464	2651.3613	1633.35	748.75
991.7703	2652.6211	1633.5	749.5
991.8942	2653.8801	1623.55	740.95
992.018	2655.1385	1624.7	738.55
992.1418	2656.3961	1625.7	740.15
992.2655	2657.6531	1624.9	741.9
992.3892	2658.9094	1621.75	736
992.5129	2660.1651	1620.45	738.7
992.6366	2661.42	1624.35	740.4
992.7602	2662.6743	1622.95	737.85
992.8837	2663.9279	1622	740
993.0073	2665.1808	1631.35	746.5
993.1307	2666.433	1637.05	752
993.2542	2667.6846	1622.25	736.85
993.3776	2668.9354	1626.55	738.2
993.501	2670.1856	1621.9	737.6
993.6244	2671.4351	1629	745.35
993.7477	2672.6839	1635.95	750.75
993.8709	2673.9321	1636.2	752.95
993.9942	2675.1795	1635.85	751.7
994.1174	2676.4263	1636.4	752.8
994.2405	2677.6724	1634	750.7
994.3637	2678.9179	1624.65	739.35
994.4868	2680.1626	1635.25	750.65
994.6098	2681.4067	1637.4	754.75
994.7328	2682.6501	1625.2	740.7
994.8558	2683.8928	1623.05	739.75
994.9788	2685.1348	1627.85	743.65
995.1017	2686.3761	1618.8	735.55
995.2245	2687.6168	1606.55	723.9
995.3474	2688.8568	1612.5	729.8
995.4702	2690.0961	1604.05	720.05
995.5929	2691.3348	1609.75	725.55
995.7156	2692.5727	1601.4	716.4
995.8383	2693.81	1590.75	706.5
995.961	2695.0466	1588.3	705.9
996.0836	2696.2826	1595	708.8
996.2062	2697.5178	1611.9	708.15
996.3287	2698.7524	1597.6	713.75
996.4512	2699.9863	1603	717.05
996.5737	2701.2195	1593.85	711.6
996.6961	2702.452	1603.05	718.4
996.8185	2703.6839	1600.85	717.95
996.9408	2704.9151	1604.4	719.85
997.0631	2706.1456	1609.35	725.2
997.1854	2707.3755	1616.95	733.3
997.3077	2708.6046	1621.9	737.9
997.4299	2709.8331	1622.4	737.25
997.552	2711.0609	1630.8	745.65
997.6742	2712.2881	1639.25	756.65
997.7963	2713.5145	1644.25	757.4
997.9183	2714.7403	1646	763.5
998.0403	2715.9654	1661	775.8
998.1623	2717.1899	1686	789.15
998.2842	2718.4136	1676.9	793.2
998.4062	2719.6367	1690.7	805
998.528	2720.8591	1703.75	814.8
998.6498	2722.0809	1716.7	832
998.7716	2723.3019	1720.75	835.9
998.8934	2724.5223	1727.7	844.8
999.0151	2725.7421	1733.4	847.95
999.1368	2726.9611	1736	851.35
999.2584	2728.1795	1746.5	859.5
999.38	2729.3972	1718.7	837.4
999.5016	2730.6142	1716.95	822.5
999.6231	2731.8306	1698.9	813.7
999.7446	2733.0462	1680.4	797.7
999.8661	2734.2612	1666.55	778.1
999.9875	2735.4756	1648.1	762.4
1000.1089	2736.6892	1634.2	750.55
1000.2302	2737.9022	1621.85	738.15
1000.3515	2739.1145	1599.5	717.85
1000.4728	2740.3262	1601.45	710.75
1000.594	2741.5372	1590	706.55
1000.7152	2742.7475	1565.55	682.65
1000.8363	2743.9571	1558.95	675.4
1000.9575	2745.1661	1559.5	671.75
1001.0785	2746.3744	1545	662.15
1001.1996	2747.582	1536.8	652
1001.3206	2748.7889	1531.95	647.6
1001.4415	2749.9952	1520.7	638.15
1001.5625	2751.2008	1510.05	625.85
1001.6833	2752.4057	1512	629.35
1001.8042	2753.61	1503.6	620.3
1001.925	2754.8136	1507.7	623.3
1002.0458	2756.0165	1497.4	615.35
1002.1665	2757.2188	1499.55	616.6
1002.2872	2758.4204	1502.75	622.2
1002.4078	2759.6213	1499.1	616.25
1002.5285	2760.8215	1504.55	616.95
1002.649	2762.0211	1497.45	612.1
1002.7696	2763.22	1496	610
1002.8901	2764.4182	1490.8	606.1
1003.0106	2765.6158	1487.05	603.05
1003.131	2766.8127	1488.5	606.95
1003.2514	2768.009	1479.75	598.7
1003.3717	2769.2045	1479.05	595.7
1003.492	2770.3994	1482.7	598.25
1003.6123	2771.5936	1475.05	592.7
1003.7325	2772.7872	1466.15	583.6
1003.8527	2773.9801	1459.55	574.6
1003.9729	2775.1723	1481.35	583.5
1004.093	2776.3639	1466.8	587.1
1004.2131	2777.5548	1463.15	577.55
1004.3331	2778.745	1465	582.4
1004.4531	2779.9346	1459.5	576.8
1004.5731	2781.1235	1459.2	575.85
1004.693	2782.3117	1464.05	581.65
1004.8129	2783.4992	1465.75	583.4
1004.9328	2784.6861	1464.8	582.2
1005.0526	2785.8723	1480.3	597.65
1005.1723	2787.0579	1475.75	593.95
1005.2921	2788.2428	1487.6	607.05
1005.4118	2789.427	1493.35	611.85
1005.5314	2790.6106	1503	621.1
1005.651	2791.7935	1501.1	616.75
1005.7706	2792.9757	1511.85	632.65
1005.8902	2794.1573	1518.95	632.85
1006.0097	2795.3382	1530.45	648.75
1006.1291	2796.5184	1544.95	663.4
1006.2485	2797.698	1555	670.4
1006.3679	2798.8769	1565.1	682.75
1006.4873	2800.0551	1578.9	697.05
1006.6066	2801.2327	1598.05	712.55
1006.7258	2802.4096	1609.8	729.6
1006.8451	2803.5859	1620.45	738.65
1006.9642	2804.7615	1642.05	760
1007.0834	2805.9364	1665.15	785.5
1007.2025	2807.1106	1685.05	804.2
1007.3216	2808.2842	1712.75	830.1
1007.4406	2809.4572	1741.95	860.2
1007.5596	2810.6294	1773.85	892.75
1007.6785	2811.801	1805.95	927.6
1007.7975	2812.972	1838.5	958.8
1007.9163	2814.1423	1878.75	997.65
1008.0352	2815.3119	1921.5	1039.75
1008.154	2816.4808	1966.25	1086.1
1008.2727	2817.6491	2018.4	1136.05
1008.3914	2818.8167	2066.85	1187.65
1008.5101	2819.9837	2121.95	1236.35
1008.6288	2821.15	2166.15	1284.85
1008.7474	2822.3157	2210.9	1331.9
1008.8659	2823.4807	2275.85	1394.15
1008.9844	2824.645	2322.5	1439.15
1009.1029	2825.8086	2374.9	1495.25
1009.2214	2826.9716	2423.25	1543.9
1009.3398	2828.134	2455.6	1573.3
1009.4581	2829.2957	2506.9	1628.5
1009.5764	2830.4567	2538.8	1657.25
1009.6947	2831.617	2567.1	1685.5
1009.813	2832.7767	2572.65	1691
1009.9312	2833.9358	2569.8	1690.15
1010.0493	2835.0941	2558.4	1675.55
1010.1675	2836.2519	2552.3	1671.85
1010.2855	2837.4089	2530	1646.85
1010.4036	2838.5653	2518.4	1635.15
1010.5216	2839.7211	2514.9	1634.05
1010.6396	2840.8761	2526.95	1645.05
1010.7575	2842.0306	2538.05	1657.05
1010.8754	2843.1843	2564.65	1682.2
1010.9932	2844.3374	2613.25	1731.35
1011.111	2845.4899	2652.45	1769.3
1011.2288	2846.6417	2716.1	1837.15
1011.3465	2847.7928	2779.15	1897.5
1011.4642	2848.9433	2847.9	1967.95
1011.5818	2850.0931	2926.35	2047.15
1011.6995	2851.2422	2986.75	2105.45
1011.817	2852.3907	3030.8	2149.1
1011.9345	2853.5385	3103.95	2221.45
1012.052	2854.6857	3159.1	2267.2
1012.1695	2855.8323	3202.3	2323.2
1012.2869	2856.9781	3252.25	2372.65
1012.4042	2858.1233	3285.1	2405.4
1012.5216	2859.2679	3342.05	2461.5
1012.6389	2860.4118	3394.35	2513.15
1012.7561	2861.555	3430.75	2546.45
1012.8733	2862.6976	3486.75	2606.9
1012.9905	2863.8395	3502.6	2625.15
1013.1076	2864.9808	3533	2651.4
1013.2247	2866.1214	3545.7	2666.45
1013.3417	2867.2614	3548.25	2667.05
1013.4587	2868.4007	3576.9	2693.45
1013.5757	2869.5393	3585.1	2702.15
1013.6926	2870.6773	3602.3	2718.1
1013.8095	2871.8146	3623.15	2738.1
1013.9263	2872.9513	3616.55	2732.7
1014.0431	2874.0874	3607	2724.05
1014.1599	2875.2227	3606.55	2724.6
1014.2766	2876.3574	3581.2	2702.2
1014.3933	2877.4915	3560.05	2680
1014.51	2878.6249	3537.6	2658.75
1014.6266	2879.7577	3507.3	2626.6
1014.7431	2880.8898	3491.2	2601.5
1014.8596	2882.0212	3469.45	2593.4
1014.9761	2883.152	3459.95	2580.5
1015.0925	2884.2821	3445.25	2565
1015.2089	2885.4116	3434.65	2555.75
1015.3253	2886.5405	3435.35	2556.35
1015.4416	2887.6686	3451.3	2568.4
1015.5579	2888.7962	3461.3	2582.3
1015.6741	2889.923	3469.6	2591.6
1015.7903	2891.0493	3462.7	2584.3
1015.9065	2892.1748	3481.15	2602.35
1016.0226	2893.2997	3493.25	2611.85
1016.1387	2894.424	3513.15	2634.75
1016.2547	2895.5476	3523.9	2643.6
1016.3707	2896.6706	3548.85	2669.95
1016.4866	2897.7929	3573.65	2692.55
1016.6025	2898.9145	3599.65	2720.7
1016.7184	2900.0355	3621.7	2742.55
1016.8342	2901.1559	3655.75	2774.4
1016.95	2902.2756	3686.85	2809.1
1017.0658	2903.3946	3723.45	2841.95
1017.1815	2904.513	3747.1	2865
1017.2971	2905.6308	3757.6	2879.25
1017.4127	2906.7479	3792.85	2912.6
1017.5283	2907.8643	3821	2940.45
1017.6439	2908.9801	3830.35	2950.4
1017.7594	2910.0953	3834.2	2954.95
1017.8748	2911.2098	3849.45	2966.75
1017.9902	2912.3236	3845.65	2958.1
1018.1056	2913.4368	3827.75	2948.15
1018.2209	2914.5494	3805.75	2925.65
1018.3362	2915.6613	3773	2887.3
1018.4515	2916.7725	3753.25	2871.85
1018.5667	2917.8831	3717.35	2839.25
1018.6819	2918.9931	3687.4	2806.25
1018.797	2920.1024	3671.3	2790.95
1018.9121	2921.211	3640.95	2761.3
1019.0271	2922.319	3623.2	2743.5
1019.1421	2923.4264	3604.7	2727.5
1019.2571	2924.5331	3592.4	2714.5
1019.372	2925.6391	3574.9	2695.7
1019.4869	2926.7445	3581.55	2705.2
1019.6017	2927.8493	3586.6	2705.65
1019.7165	2928.9534	3583.5	2702.5
1019.8313	2930.0569	3585.25	2702.75
1019.946	2931.1597	3566.35	2684.95
1020.0606	2932.2619	3566.4	2688.65
1020.1753	2933.3634	3562.15	2681.9
1020.2899	2934.4643	3576.55	2690.3
1020.4044	2935.5645	3561.25	2675.9
1020.5189	2936.6641	3529.1	2646.2
1020.6334	2937.763	3484.5	2603.6
1020.7478	2938.8613	3440	2559.3
1020.8622	2939.959	3400.6	2515.3
1020.9765	2941.056	3332.5	2455.85
1021.0908	2942.1523	3248.25	2368.45
1021.2051	2943.248	3180.75	2301.25
1021.3193	2944.3431	3086.55	2208.1
1021.4334	2945.4375	2985.45	2106.7
1021.5476	2946.5313	2893.3	2013.85
1021.6617	2947.6244	2789.1	1908.9
1021.7757	2948.7169	2688.9	1808.7
1021.8897	2949.8087	2603.65	1724.5
1022.0037	2950.8999	2526.5	1646.7
1022.1176	2951.9904	2441.1	1563.8
1022.2315	2953.0803	2365	1485.35
1022.3453	2954.1696	2312.45	1434.65
1022.4591	2955.2582	2260.6	1383.65
1022.5728	2956.3462	2202.65	1321.7
1022.6865	2957.4335	2174.4	1295.55
1022.8002	2958.5202	2140.85	1258.7
1022.9138	2959.6062	2113.65	1238.9
1023.0274	2960.6916	2082.6	1205.65
1023.141	2961.7764	2073.95	1195.1
1023.2545	2962.8605	2047.35	1166.5
1023.3679	2963.9439	2038.65	1162.3
1023.4813	2965.0267	2025.7	1146.2
1023.5947	2966.1089	2046.4	1146.35
1023.708	2967.1905	2016.35	1137.45
1023.8213	2968.2714	2009.15	1131.15
1023.9346	2969.3516	2010.4	1133.1
1024.0478	2970.4312	2013	1125.7
1024.1609	2971.5102	2014.6	1135.55
1024.274	2972.5885	2013.25	1134.8
1024.3871	2973.6662	2016.8	1132.75
1024.5002	2974.7432	2002.45	1124.65
1024.6132	2975.8196	2009.8	1130.2
1024.7261	2976.8954	1994.1	1115.95
1024.839	2977.9705	1988.65	1110.35
1024.9519	2979.045	1981.8	1103.65
1025.0647	2980.1188	1961.6	1083.25
1025.1775	2981.192	1937.4	1059.3
1025.2902	2982.2645	1919.25	1040.5
1025.4029	2983.3364	1904.5	1025.05
1025.5156	2984.4077	1877.05	1000.25
1025.6282	2985.4783	1852.85	970
1025.7407	2986.5483	1813.85	938.2
1025.8532	2987.6177	1788.35	911.75
1025.9657	2988.6864	1757.3	878.35
1026.0782	2989.7545	1720.65	842.15
1026.1906	2990.8219	1692.35	814.15
1026.3029	2991.8887	1656.25	776.2
1026.4152	2992.9548	1632.55	753.15
1026.5275	2994.0204	1599.55	723.4
1026.6397	2995.0852	1571.15	695.1
1026.7519	2996.1495	1539.3	660.4
1026.864	2997.2131	1512.7	634.8
1026.9761	2998.276	1497.3	617.4
1027.0882	2999.3383	1482	602.5
1027.2002	3000.4	1454.25	575.45
1027.3122	3001.4611	1436.55	558.35
1027.4241	3002.5215	1426.65	548.3
1027.536	3003.5812	1408.8	531.75
1027.6478	3004.6404	1388	509.4
1027.7596	3005.6989	1389.35	507.5
1027.8714	3006.7567	1375.2	496.35
1027.9831	3007.8139	1390.85	485.85
1028.0947	3008.8705	1355.7	477.95
1028.2064	3009.9264	1370.8	475.65
1028.3179	3010.9818	1340.65	463.05
1028.4295	3012.0364	1340.6	461.9
1028.541	3013.0905	1333.5	457.85
1028.6524	3014.1439	1330.85	451.9
1028.7638	3015.1966	1325.85	447.8
1028.8752	3016.2487	1321.85	445.9
1028.9865	3017.3002	1328.75	443.75
1029.0978	3018.3511	1319.7	443.65
1029.209	3019.4013	1322.85	445.85
1029.3202	3020.4509	1319.35	442.35
1029.4314	3021.4998	1319	441.4
1029.5425	3022.5481	1310.65	433.1
1029.6535	3023.5958	1313.1	435
1029.7645	3024.6428	1314.75	436.25
1029.8755	3025.6892	1308.2	432.05
1029.9864	3026.735	1314.7	436.8
1030.0973	3027.7802	1317.7	439.25
1030.2082	3028.8247	1308	429.1
1030.319	3029.8685	1313.8	436.15
1030.4297	3030.9118	1319.65	442.45
1030.5404	3031.9544	1316.85	440.55
1030.6511	3032.9963	1320.6	443.2
1030.7617	3034.0376	1318.45	441.3
1030.8723	3035.0783	1330.65	452
1030.9829	3036.1184	1334.55	455.7
1031.0934	3037.1578	1329.25	451.85
1031.2038	3038.1966	1338.6	461.5
1031.3142	3039.2348	1327.45	450.1
1031.4246	3040.2723	1344.45	457.55
1031.5349	3041.3092	1333.2	456.8
1031.6452	3042.3455	1333.95	456
1031.7554	3043.3811	1332.8	452.45
1031.8656	3044.4161	1334.6	455.05
1031.9758	3045.4505	1329.45	453.7
1032.0859	3046.4842	1325.4	448.8
1032.1959	3047.5173	1317.8	441.15
1032.3059	3048.5498	1312.25	434.3
1032.4159	3049.5816	1311.05	434.7
1032.5258	3050.6128	1306.45	427.8
1032.6357	3051.6434	1300.3	422.5
1032.7455	3052.6734	1299.25	419.75
1032.8553	3053.7027	1291.35	413.1
1032.9651	3054.7314	1284.95	408.25
1033.0748	3055.7594	1284	407.3
1033.1845	3056.7868	1276.55	399.4
1033.2941	3057.8136	1277.05	400.95
1033.4037	3058.8398	1269.9	392.75
1033.5132	3059.8653	1269.05	392.8
1033.6227	3060.8902	1261.45	384.1
1033.7321	3061.9145	1263.55	387.1
1033.8415	3062.9381	1257.8	379.6
1033.9509	3063.9612	1270.1	375.1
1034.0602	3064.9835	1248.4	371.4
1034.1694	3066.0053	1251.8	373.55
1034.2787	3067.0264	1242.4	366.65
1034.3878	3068.0469	1228.15	350.85
1034.497	3069.0668	1227.6	348.25
1034.6061	3070.086	1220.7	346
1034.7151	3071.1046	1216.5	341.85
1034.8241	3072.1226	1210.35	332.3
1034.9331	3073.1399	1201.7	323.65
1035.042	3074.1567	1189.75	311.55
1035.1508	3075.1727	1186.5	308.25
1035.2597	3076.1882	1176.55	297.6
1035.3684	3077.203	1171.1	294.85
1035.4772	3078.2173	1164.1	285.25
1035.5859	3079.2308	1160	281.2
1035.6945	3080.2438	1155.25	276.5
1035.8031	3081.2561	1139.8	261.85
1035.9117	3082.2678	1133.8	258.35
1036.0202	3083.2789	1128.95	252.9
1036.1286	3084.2893	1123.95	246.95
1036.2371	3085.2991	1121.75	246.5
1036.3454	3086.3083	1117.35	233.5
1036.4538	3087.3169	1112.1	233.5
1036.562	3088.3248	1109.05	230.7
1036.6703	3089.3321	1103	224.35
1036.7785	3090.3388	1100	223.15
1036.8866	3091.3449	1092	214.55
1036.9948	3092.3503	1094.6	216.45
1037.1028	3093.3551	1087.75	211.85
1037.2108	3094.3593	1077.8	203.55
1037.3188	3095.3629	1079.4	203.4
1037.4267	3096.3658	1078.2	203.15
1037.5346	3097.3681	1073.9	199.6
1037.6425	3098.3698	1077	199.05
1037.7503	3099.3708	1075.35	190
1037.858	3100.3713	1070.6	196.3
1037.9657	3101.3711	1065.8	190.45
1038.0734	3102.3702	1197.3	185.85
1038.181	3103.3688	1067.6	188.55
1038.2886	3104.3667	1053.6	178.1
1038.3961	3105.364	1056.3	181
1038.5036	3106.3607	1058.55	181.25
1038.611	3107.3568	1051.05	173.8
1038.7184	3108.3522	1046.8	171.35
1038.8257	3109.347	1049.35	171.75
1038.933	3110.3412	1046.9	166.6
1039.0403	3111.3348	1044.2	166.65
1039.1475	3112.3277	1039.95	165.55
1039.2547	3113.32	1042.4	165.75
1039.3618	3114.3117	1037.5	160.3
1039.4689	3115.3028	1041.8	167.35
1039.5759	3116.2932	1038.7	160.7
1039.6829	3117.2831	1039.85	157.8
1039.7898	3118.2723	1033.6	157.9
1039.8967	3119.2608	1037.2	160.4
1040.0035	3120.2488	1030.5	154.35
1040.1103	3121.2361	1030.15	153.35
1040.2171	3122.2229	1026.75	151.25
1040.3238	3123.209	1025.5	147.75
1040.4305	3124.1944	1024.8	148.8
1040.5371	3125.1793	1027.25	149.6
1040.6437	3126.1635	1022.95	147.3
1040.7502	3127.1471	1019.15	141.85
1040.8567	3128.1301	1020.05	146.05
1040.9631	3129.1125	1020.35	142.1
1041.0695	3130.0942	1016.35	142.25
1041.1759	3131.0753	1021.5	136.7
1041.2822	3132.0558	1013.05	132.95
1041.3884	3133.0357	1011.15	134.6
1041.4946	3134.015	1014.35	136.15
1041.6008	3134.9936	1011.55	132.1
1041.7069	3135.9716	1032.05	134.55
1041.813	3136.949	1008.25	133.6
1041.919	3137.9258	1025.85	132.25
1042.025	3138.902	1012.5	130.2
1042.1309	3139.8775	1003.65	125.7
1042.2368	3140.8524	1002.4	127.5
1042.3427	3141.8267	1007.05	128.9
1042.4485	3142.8004	1004.35	129.15
1042.5542	3143.7735	1011.25	129
1042.6599	3144.7459	1002.55	126.25
1042.7656	3145.7178	1004.65	127
1042.8712	3146.689	995.75	119.75
1042.9768	3147.6596	1001.5	121.35
1043.0823	3148.6295	997.8	123.6
1043.1878	3149.5989	998.65	123.5
1043.2932	3150.5676	993.3	118.55
1043.3986	3151.5357	994.5	120.1
1043.5039	3152.5032	995.4	119.2
1043.6092	3153.4701	993.1	116.3
1043.7145	3154.4364	992.7	115.5
1043.8197	3155.402	991.55	116.05
1043.9248	3156.367	991.15	113.55
1044.03	3157.3315	1021.8	114.1
1044.135	3158.2952	987.8	113.35
1044.24	3159.2584	983.6	107.8
1044.345	3160.221	984.4	108.5
1044.4499	3161.1829	986.25	110.8
1044.5548	3162.1442	980.7	106.05
1044.6596	3163.105	982.1	107.55
1044.7644	3164.065	983	106.45
1044.8692	3165.0245	984.05	105.7
1044.9739	3165.9834	978.35	105.95
1045.0785	3166.9416	978.85	104.95
1045.1831	3167.8993	983.2	107.65
1045.2877	3168.8563	983.25	106.5
1045.3922	3169.8127	977.35	101.55
1045.4966	3170.7684	977.1	102.6
1045.6011	3171.7236	977.35	101.95
1045.7054	3172.6782	979	104.4
1045.8098	3173.6321	975.9	98.7
1045.914	3174.5854	981.35	101.2
1046.0183	3175.5381	975.6	100.3
1046.1224	3176.4902	973.35	99.35
1046.2266	3177.4417	975.25	100.15
1046.3307	3178.3926	971.4	96.3
1046.4347	3179.3428	971.55	96.9
1046.5387	3180.2924	971.05	94.4
1046.6427	3181.2415	971.55	95.6
1046.7466	3182.1899	971.4	92.7
1046.8504	3183.1377	967.15	91.9
1046.9542	3184.0848	970	93.85
1047.058	3185.0314	967.25	92.75
1047.1617	3185.9773	966.2	91.5
1047.2654	3186.9227	968.25	92.35
1047.369	3187.8674	966.05	90.85
1047.4726	3188.8115	967.45	87.65
1047.5761	3189.755	967.55	90.5
1047.6796	3190.6979	966.45	91.35
1047.783	3191.6402	962.55	89.2
1047.8864	3192.5818	969.05	91.55
1047.9898	3193.5229	980.8	88.3
1048.0931	3194.4633	964.3	89.4
1048.1963	3195.4031	963.2	86.75
1048.2995	3196.3423	959.4	84.1
1048.4027	3197.2809	960.35	87.25
1048.5058	3198.2189	961.8	85.4
1048.6089	3199.1563	965.3	85.05
1048.7119	3200.0931	959.55	85.3
1048.8148	3201.0292	960.65	85.55
1048.9178	3201.9648	955.35	81.1
1049.0206	3202.8997	961.45	84.9
1049.1235	3203.834	955.65	82.35
1049.2262	3204.7677	959.85	85.25
1049.329	3205.7008	955.8	80.05
1049.4317	3206.6333	955.15	82.95
1049.5343	3207.5652	959.35	81.95
1049.6369	3208.4964	956.35	79.85
1049.7394	3209.4271	955.75	79.8
1049.8419	3210.3571	955.15	80.8
1049.9444	3211.2865	957.5	79.15
1050.0468	3212.2154	953.05	76.7
1050.1491	3213.1436	956.4	80.25
1050.2514	3214.0712	958.15	75.3
1050.3537	3214.9982	953.15	78.05
1050.4559	3215.9246	951.25	76.45
1050.5581	3216.8503	948.95	73.8
1050.6602	3217.7755	951.15	75.95
1050.7623	3218.7001	952.85	78.75
1050.8643	3219.624	950.05	75.35
1050.9663	3220.5473	948.15	73.5
1051.0682	3221.4701	948.5	72.6
1051.1701	3222.3922	951	74.75
1051.2719	3223.3137	947.4	72.3
1051.3737	3224.2346	948.7	73.25
1051.4754	3225.1549	945	69.6
1051.5771	3226.0746	946.7	73.15
1051.6788	3226.9937	947.4	71.7
1051.7804	3227.9121	948.05	73.75
1051.8819	3228.83	945.8	71.7
1051.9834	3229.7473	944.7	70.4
1052.0849	3230.6639	944.4	71.45
1052.1863	3231.5799	943.5	69.15
1052.2876	3232.4954	945.15	69.95
1052.3889	3233.4102	942.9	68.2
1052.4902	3234.3244	941.2	67.6
1052.5914	3235.238	942.6	67.8
1052.6926	3236.151	969.05	71.4
1052.7937	3237.0634	938.35	65.85
1052.8948	3237.9752	939.3	63.35
1052.9958	3238.8864	940.3	63.95
1053.0968	3239.797	940.6	66.4
1053.1977	3240.7069	940	66.2
1053.2986	3241.6163	940.25	64.75
1053.3994	3242.5251	936.85	64.5
1053.5002	3243.4332	939.2	65.75
1053.6009	3244.3408	937.5	63.3
1053.7016	3245.2477	939.5	63.9
1053.8022	3246.154	939.25	63.6
1053.9028	3247.0598	941.65	66.2
1054.0034	3247.9649	934.8	60.3
1054.1039	3248.8694	936.3	60.9
1054.2043	3249.7733	935.05	60.1
1054.3047	3250.6766	935.65	61.05
1054.4051	3251.5793	935.75	59.5
1054.5054	3252.4814	935	59.15
1054.6056	3253.3829	933.65	61.2
1054.7058	3254.2838	933.05	58.95
1054.806	3255.1841	934.2	57.9
1054.9061	3256.0838	931.85	56.9
1055.0061	3256.9829	928.9	56.75
1055.1062	3257.8814	934.85	60.5
1055.2061	3258.7792	932.85	55.75
1055.306	3259.6765	932.55	55.5
1055.4059	3260.5731	925.55	54.55
1055.5057	3261.4692	927.95	52.7
1055.6055	3262.3647	925.6	51.25
1055.7052	3263.2595	926.6	50.65
1055.8049	3264.1538	922.7	50.85
1055.9045	3265.0474	923.55	48.55
1056.0041	3265.9404	921.35	49.45
1056.1036	3266.8329	923.15	49.5
1056.2031	3267.7247	933.95	49.7
1056.3025	3268.616	919.2	45.75
1056.4019	3269.5066	917.15	42.85
1056.5013	3270.3966	919.65	48
1056.6005	3271.286	915.25	43.4
