Software Version:	3.9.2.0
Unit SN:	10000200
Spectrometer SN:	6960
Date:	3/8/2024 1:46:13 PM
Data Line Index:	25
Spectral Points:	2048
Integration time (ms):	125
Averages:	20
Delay (ms):	30000
Sequence Number:	1
Processing:	dark subtract
Laser Power (mW):	300
Laser Current (mA):	823
Laser Diode Temp (C):	25
Laser Case Temp (C):	26.3
System Temp (C):	26.3
Spectrometer Temp (C):	24.1
CCD Temp (C):	0.012
Secondary Temp (C):	20.001
Heatsink Temp (C):	21.33
CCDPCB Temp (C):	36.151
SecondaryPCB Temp (C):	30.816

Wavelength	RamanShift	Raw Counts	Dark Subtracted
787.061	30.1047	471.25	61.2
787.2016	32.3739	471.85	65.75
787.3422	34.6426	476	70.2
787.4828	36.9109	482.6	72.95
787.6235	39.1787	493.25	80.25
787.7642	41.4461	503.45	84.9
787.9049	43.7131	511.75	91.1
788.0456	45.9796	518.3	94
788.1863	48.2456	530.65	103.05
788.3271	50.5112	540.55	107.2
788.4679	52.7764	551.4	116.1
788.6087	55.0411	566.85	125
788.7496	57.3054	575	129.9
788.8904	59.5692	583.75	137.2
789.0313	61.8326	595.8	148.75
789.1722	64.0955	606.5	152.5
789.3132	66.3579	626.95	169.7
789.4541	68.6199	649.95	186.35
789.5951	70.8815	687.5	220.65
789.7361	73.1426	775.3	305.55
789.8771	75.4032	991.8	518.4
790.0181	77.6634	1532.05	1052.9
790.1592	79.9231	2815.9	2330.6
790.3003	82.1824	5604.15	5100.05
790.4414	84.4412	10655.1	10121.65
790.5825	86.6995	17593.85	17022.05
790.7237	88.9574	24440.5	23833.9
790.8648	91.2148	29202.3	28574.6
791.006	93.4717	31440.7	30797.65
791.1472	95.7282	31989.85	31340.9
791.2885	97.9842	31961.95	31304.85
791.4297	100.2398	31441.7	30785.15
791.571	102.4949	30885.45	30223.9
791.7123	104.7495	30130.9	29467
791.8536	107.0036	29357.25	28690.9
791.9949	109.2573	28630.2	27965.95
792.1363	111.5105	27925.15	27255.6
792.2777	113.7632	27237.45	26566.55
792.4191	116.0154	26667.8	25991.3
792.5605	118.2672	26266.65	25594.35
792.7019	120.5185	25829	25152.45
792.8434	122.7693	25525.35	24846.05
792.9849	125.0197	25212.85	24526.4
793.1264	127.2696	25005.85	24318.95
793.2679	129.519	24861.2	24174.25
793.4094	131.7679	24702.55	24009.85
793.551	134.0163	24572.55	23876.75
793.6926	136.2642	24378.35	23679.5
793.8342	138.5117	24154.9	23451
793.9758	140.7587	23957.5	23254.55
794.1175	143.0052	23768.05	23061.55
794.2591	145.2512	23546.1	22841.55
794.4008	147.4967	23264.45	22560.85
794.5425	149.7417	23140.9	22436.9
794.6842	151.9863	23069.4	22353.85
794.826	154.2304	23036.45	22316.55
794.9677	156.4739	22878.35	22156.6
795.1095	158.717	22850.45	22128.2
795.2513	160.9596	22694.6	21965.85
795.3931	163.2017	22462.45	21729.85
795.535	165.4433	22167.1	21437.85
795.6768	167.6844	21850.35	21118
795.8187	169.925	21574.55	20839.9
795.9606	172.1651	21219.2	20480.35
796.1025	174.4047	20980	20238.1
796.2445	176.6439	20741.85	20001.15
796.3864	178.8825	20507.35	19763.4
796.5284	181.1206	20381.95	19633
796.6704	183.3582	20218.1	19462.95
796.8124	185.5954	20155.3	19398.05
796.9544	187.832	20087.85	19324.75
797.0965	190.0681	20083.85	19319.3
797.2386	192.3037	20084.1	19321.2
797.3806	194.5388	20120.3	19350.3
797.5228	196.7734	20187.8	19415.05
797.6649	199.0075	20294.95	19522
797.807	201.2411	20448.25	19671.45
797.9492	203.4742	20563.8	19788.6
798.0914	205.7068	20723.9	19944.85
798.2336	207.9389	20830.25	20047.1
798.3758	210.1704	21038.9	20262.45
798.518	212.4015	21097.75	20335.35
798.6603	214.632	21328.9	20570.4
798.8025	216.862	21546.9	20791.05
798.9448	219.0915	21709.15	20950.25
799.0871	221.3205	21948.75	21182.5
799.2294	223.549	22204.6	21445.15
799.3718	225.777	22518.75	21759.1
799.5141	228.0044	22862.85	22097.15
799.6565	230.2314	23299.65	22534.45
799.7989	232.4578	23751.4	22983.9
799.9413	234.6837	24084.15	23302.45
800.0837	236.909	24322.5	23543.35
800.2262	239.1339	24347.7	23543.55
800.3687	241.3582	24139.3	23348.05
800.5111	243.582	23827.45	23006.15
800.6536	245.8053	23533.1	22724.25
800.7961	248.0281	23285.65	22481.5
800.9387	250.2503	23047.35	22240.8
801.0812	252.472	22950.6	22143.1
801.2238	254.6932	22923.85	22120.25
801.3664	256.9139	22882.4	22077.7
801.509	259.134	22940.65	22130
801.6516	261.3536	22942.95	22130.5
801.7942	263.5727	23063.8	22247.85
801.9369	265.7912	23037.95	22226.5
802.0795	268.0092	23120.55	22307.9
802.2222	270.2267	23122.25	22310.7
802.3649	272.4436	23119.2	22308.5
802.5076	274.6601	23080.15	22254.6
802.6504	276.8759	23024.05	22207.15
802.7931	279.0913	22986.3	22169.2
802.9359	281.3061	22993.4	22172.85
803.0787	283.5204	23044.45	22215.45
803.2215	285.7341	23111	22282.3
803.3643	287.9473	23290	22453.6
803.5071	290.16	23517.6	22686.75
803.6499	292.3721	23828.7	23005.5
803.7928	294.5837	24231	23400.35
803.9357	296.7947	24597.9	23769.6
804.0786	299.0052	24786.95	23956.55
804.2215	301.2152	24645.45	23814
804.3644	303.4246	24393.55	23566.6
804.5074	305.6334	23873.6	23049.5
804.6503	307.8418	23393.2	22565
804.7933	310.0495	22981.4	22153.05
804.9363	312.2568	22701.2	21867.15
805.0793	314.4635	22435.95	21601.55
805.2223	316.6696	22353.8	21516.65
805.3653	318.8752	22337.25	21485.85
805.5084	321.0802	22391.4	21555.35
805.6514	323.2847	22493.85	21651.15
805.7945	325.4887	22575.75	21733.7
805.9376	327.692	22530.35	21687
806.0807	329.8949	22460.95	21615
806.2238	332.0972	22198.7	21353.9
806.367	334.2989	21954.8	21107.85
806.5101	336.5001	21701.25	20850.3
806.6533	338.7007	21499.1	20649.85
806.7965	340.9008	21459.35	20610.2
806.9397	343.1003	21290.1	20439.4
807.0829	345.2992	21243.55	20391.7
807.2261	347.4976	21256.85	20405.65
807.3693	349.6955	21241.55	20383.15
807.5126	351.8927	21392.7	20532.2
807.6559	354.0895	21379.3	20512.6
807.7991	356.2856	21394.65	20532.25
807.9424	358.4812	21432.15	20574.75
808.0857	360.6763	21492.05	20632.3
808.2291	362.8707	21439.95	20576.45
808.3724	365.0646	21527.05	20661.15
808.5158	367.258	21541.25	20673.3
808.6591	369.4508	21572.35	20699.5
808.8025	371.643	21670.9	20799.95
808.9459	373.8346	21670	20795.5
809.0893	376.0257	21680.8	20808.05
809.2327	378.2162	21594.5	20722.45
809.3762	380.4062	21523.95	20649.75
809.5196	382.5956	21391.15	20519.3
809.6631	384.7844	21354.4	20487
809.8066	386.9726	21255.85	20391.9
809.9501	389.1603	21204.15	20342.45
810.0936	391.3474	21171.95	20272.25
810.2371	393.5339	21164.7	20298.8
810.3806	395.7199	21102.25	20237.9
810.5241	397.9052	21154.8	20284.55
810.6677	400.09	21170	20305.8
810.8113	402.2743	21267.3	20402.8
810.9548	404.4579	21358.8	20491.85
811.0984	406.641	21572.1	20703.9
811.2421	408.8235	21773.5	20907
811.3857	411.0054	22094.3	21221.8
811.5293	413.1868	22528.25	21650.95
811.673	415.3675	22829.75	21954
811.8166	417.5477	23036.75	22159.3
811.9603	419.7273	23089.8	22209.5
812.104	421.9064	23001.65	22117.15
812.2477	424.0848	22859.15	21979.3
812.3914	426.2627	22660.4	21782.55
812.5351	428.4399	22409.4	21526.55
812.6788	430.6166	22038.75	21149.05
812.8226	432.7928	21708.3	20821.8
812.9663	434.9683	21373.45	20489.9
813.1101	437.1432	21179	20296.75
813.2539	439.3176	21016.2	20142.2
813.3977	441.4914	20920.5	20045
813.5415	443.6645	20924.3	20047
813.6853	445.8371	20852.45	19970
813.8291	448.0091	20783.9	19903.9
813.973	450.1806	20722.85	19843.9
814.1168	452.3514	20714.8	19832.55
814.2607	454.5216	20754	19863.1
814.4046	456.6913	20675.35	19792.25
814.5485	458.8603	20721.65	19843.45
814.6924	461.0288	20818.1	19939.75
814.8363	463.1967	20819.15	19945.5
814.9802	465.3639	20932.15	20056.6
815.1241	467.5306	21039.1	20158.45
815.2681	469.6967	21206.6	20327.85
815.412	471.8622	21334.05	20460.1
815.556	474.0271	21483.05	20605.1
815.7	476.1914	21562.4	20674.05
815.844	478.3551	21577.8	20694.55
815.988	480.5182	21565.15	20685.15
816.132	482.6807	21600.85	20727.7
816.276	484.8426	21698.45	20834.6
816.4201	487.0039	22040.25	21166.85
816.5641	489.1647	22473.4	21592.5
816.7082	491.3248	22912.95	22029
816.8522	493.4843	23066.95	22188.25
816.9963	495.6432	23078.85	22196.95
817.1404	497.8015	22986.2	22094.7
817.2845	499.9592	22988.2	22090.9
817.4286	502.1163	22953.9	22056.05
817.5727	504.2728	22722.65	21832.3
817.7168	506.4287	22431.6	21555.95
817.861	508.5839	22063.75	21185.5
818.0051	510.7386	21734.15	20849.35
818.1493	512.8927	21552.55	20663.1
818.2935	515.0461	21478.35	20587
818.4377	517.199	21474.2	20578.75
818.5818	519.3512	21512.8	20615.7
818.726	521.5029	21627.2	20730.85
818.8703	523.6539	21729.35	20834.15
819.0145	525.8043	21810.75	20912.95
819.1587	527.9541	21859.95	20959.05
819.303	530.1033	21773.25	20878.85
819.4472	532.2519	21808.75	20912.25
819.5915	534.3999	21939.65	21042.55
819.7357	536.5472	22207.9	21309.7
819.88	538.694	22648.75	21760.2
820.0243	540.8401	23281.8	22382.7
820.1686	542.9856	23738	22834.9
820.3129	545.1305	23873.7	22963.35
820.4572	547.2748	23741.65	22833.2
820.6016	549.4185	23440.55	22526
820.7459	551.5615	23088.35	22180.15
820.8902	553.704	23028.8	22121.95
821.0346	555.8458	22987.05	22077.7
821.1789	557.987	23047.2	22144.25
821.3233	560.1276	23062.75	22157.25
821.4677	562.2675	23116.75	22208.5
821.6121	564.4069	23221	22314.35
821.7565	566.5456	23251.6	22348.15
821.9009	568.6837	23207.7	22304.25
822.0453	570.8212	22911.4	22012.6
822.1897	572.958	22560.4	21653.7
822.3342	575.0942	22239	21341.3
822.4786	577.2299	22009.35	21111.8
822.6231	579.3648	21986.8	21101.65
822.7675	581.4992	22027.9	21149.6
822.912	583.6329	22215.7	21338.45
823.0565	585.766	22485.65	21603.05
823.201	587.8985	22600.8	21712
823.3454	590.0304	22643.75	21718.95
823.4899	592.1616	22564.8	21659.75
823.6345	594.2922	22434.25	21525.25
823.779	596.4222	22307.9	21397.6
823.9235	598.5515	22133.5	21221.1
824.068	600.6802	21984.55	21071
824.2126	602.8083	21810.2	20904.75
824.3571	604.9358	21801.2	20889.35
824.5017	607.0626	21709.3	20799.2
824.6462	609.1888	21704.95	20785.8
824.7908	611.3144	21732.15	20814.25
824.9354	613.4393	21640.8	20724.7
825.08	615.5636	21566.9	20648.05
825.2246	617.6873	21482	20570.25
825.3692	619.8103	21428.8	20512.75
825.5138	621.9327	21374.4	20463.3
825.6584	624.0544	21304.25	20394.15
825.803	626.1756	21290.4	20383.55
825.9477	628.2961	21273.45	20357.6
826.0923	630.4159	21220.3	20302.55
826.237	632.5351	21222.75	20305.3
826.3816	634.6537	21184.95	20263.9
826.5263	636.7716	21165.05	20241.75
826.6709	638.8889	21191.9	20268.7
826.8156	641.0056	21268.8	20343.5
826.9603	643.1216	21240.1	20314.9
827.105	645.237	21334	20412.2
827.2497	647.3518	21252.3	20338.95
827.3944	649.4659	21306.25	20397.35
827.5391	651.5793	21276.95	20367.3
827.6838	653.6922	21306.1	20394.65
827.8285	655.8043	21298.75	20386.6
827.9733	657.9159	21325.35	20410.25
828.118	660.0268	21232.1	20316.35
828.2627	662.137	21204.5	20284.75
828.4075	664.2466	21207.6	20282.3
828.5522	666.3556	21203.9	20281.6
828.697	668.4639	21178.45	20259
828.8418	670.5716	21258.85	20344.7
828.9865	672.6786	21308	20387.95
829.1313	674.785	21379.45	20451.85
829.2761	676.8907	21412.6	20491.4
829.4209	678.9958	21522.35	20606.65
829.5657	681.1002	21476.05	20558.6
829.7105	683.204	21467.55	20537.85
829.8553	685.3072	21440.1	20510.3
830.0001	687.4097	21369.5	20444.45
830.1449	689.5115	21394.3	20468.8
830.2898	691.6127	21325.5	20403.9
830.4346	693.7132	21272.8	20353.4
830.5794	695.8131	21280.35	20351.95
830.7243	697.9123	21296.4	20368.1
830.8691	700.0109	21269	20341.1
831.014	702.1089	21310.9	20386.5
831.1588	704.2061	21301.15	20374.3
831.3037	706.3028	21371.75	20443.3
831.4486	708.3987	21428.85	20500.4
831.5935	710.4941	21480.4	20554.35
831.7383	712.5887	21712.6	20785.65
831.8832	714.6827	21969.35	21040.85
832.0281	716.7761	22304.4	21382.35
832.173	718.8688	22644.85	21714.8
832.3179	720.9608	22881.75	21945.95
832.4628	723.0522	22946	22009.4
832.6077	725.1429	22756.45	21826.8
832.7527	727.233	22548.6	21617.65
832.8976	729.3224	22353.45	21423.75
833.0425	731.4112	22090.5	21159.9
833.1874	733.4993	21903.5	20974.55
833.3324	735.5867	21737.7	20811.5
833.4773	737.6735	21663.1	20732.7
833.6222	739.7596	21608.95	20678.7
833.7672	741.845	21540.05	20610.65
833.9122	743.9298	21493.5	20563.2
834.0571	746.014	21503.85	20575.1
834.2021	748.0974	21532.15	20597.6
834.347	750.1802	21526.8	20590.65
834.492	752.2624	21537.5	20604.9
834.637	754.3439	21599.65	20664.15
834.782	756.4247	21633.75	20693.55
834.9269	758.5048	21743.6	20805
835.0719	760.5843	22002.15	21066.85
835.2169	762.6631	22357.75	21420.45
835.3619	764.7413	22786.45	21851.6
835.5069	766.8188	23401.1	22465
835.6519	768.8956	23833.05	22896.3
835.7969	770.9718	24167.95	23233.5
835.9419	773.0473	23995.3	23061.95
836.0869	775.1221	23682.6	22744.8
836.232	777.1962	23322	22385.55
836.377	779.2697	23175	22240.75
836.522	781.3426	23196.95	22242.5
836.667	783.4147	23458.65	22517.35
836.8121	785.4862	23748.8	22816.1
836.9571	787.557	23734.95	22798.3
837.1021	789.6271	23411.9	22470.25
837.2472	791.6966	22853.85	21917.3
837.3922	793.7654	22323.2	21385.2
837.5373	795.8335	22040.7	21104.25
837.6823	797.901	21835.55	20899.45
837.8274	799.9678	21791	20846.1
837.9724	802.0339	21831.6	20890.15
838.1175	804.0993	21899.45	20952.55
838.2626	806.1641	21852.8	20909.85
838.4076	808.2282	21811.4	20873.5
838.5527	810.2916	21740.25	20799.25
838.6978	812.3544	21662.15	20727.35
838.8428	814.4164	21583.05	20643.7
838.9879	816.4778	21657.85	20715.25
839.133	818.5385	21592.2	20650.8
839.2781	820.5986	21659.05	20716.3
839.4232	822.658	21833.8	20894.25
839.5682	824.7166	21915.7	20974.3
839.7133	826.7747	22239.55	21297.1
839.8584	828.832	22473.7	21533.95
840.0035	830.8886	22620.2	21676.5
840.1486	832.9446	22765.15	21820.85
840.2937	834.9999	22801	21861.8
840.4388	837.0545	22737.25	21792.1
840.5839	839.1085	22730.6	21786.95
840.729	841.1618	22689.35	21745.7
840.8741	843.2143	22628.7	21684.7
841.0192	845.2662	22483.95	21542.95
841.1643	847.3175	22482.15	21540.8
841.3095	849.368	22384.75	21443.5
841.4546	851.4179	22293.15	21351.8
841.5997	853.467	22143.4	21201.35
841.7448	855.5155	22028.8	21087
841.8899	857.5633	21938.35	20995
842.0351	859.6105	21837.9	20894.95
842.1802	861.6569	21797.25	20852.2
842.3253	863.7027	21757.9	20811.05
842.4704	865.7478	21803.45	20856.55
842.6156	867.7922	21831.65	20888.55
842.7607	869.8359	21863.65	20915.5
842.9058	871.8789	21944.8	20997.45
843.0509	873.9212	22142.95	21166
843.1961	875.9629	22284.95	21338.1
843.3412	878.0039	22476.9	21536.15
843.4863	880.0441	22560.35	21616.15
843.6315	882.0837	22609.45	21665.85
843.7766	884.1226	22517.25	21575.15
843.9218	886.1609	22417.25	21476.05
844.0669	888.1984	22421.5	21477.4
844.212	890.2352	22469.15	21522.05
844.3572	892.2714	22423.35	21473.25
844.5023	894.3069	22428.2	21481.7
844.6475	896.3416	22348.2	21400.9
844.7926	898.3757	22320.1	21376.1
844.9377	900.4091	22288.45	21336.95
845.0829	902.4418	22328.45	21376.35
845.228	904.4739	22335.6	21379.35
845.3732	906.5052	22402.2	21450.85
845.5183	908.5358	22292.95	21350.05
845.6635	910.5658	22111.8	21159.05
845.8086	912.595	21940.9	20992.85
845.9538	914.6236	21832.3	20886.85
846.0989	916.6515	21768.45	20822.25
846.2441	918.6786	21725.1	20776.25
846.3892	920.7051	21814.15	20862.35
846.5344	922.7309	21984.2	21035.85
846.6795	924.756	21942.75	20995.9
846.8246	926.7804	22104.4	21151.6
846.9698	928.8041	21998.1	21047.3
847.1149	930.8272	22103.75	21153.85
847.2601	932.8495	21999.6	21050.85
847.4052	934.8711	21924.45	20971.8
847.5504	936.892	21832	20882.2
847.6955	938.9123	21687.75	20738.6
847.8407	940.9318	21597.9	20648.05
847.9858	942.9506	21458.05	20510.85
848.131	944.9688	21413.5	20465.85
848.2761	946.9862	21330.05	20380
848.4213	949.003	21226.75	20275.95
848.5664	951.019	21224.3	20275.1
848.7115	953.0344	21240.05	20288.05
848.8567	955.0491	21300.7	20351
849.0018	957.063	21409.35	20460.9
849.147	959.0763	21530.9	20581.75
849.2921	961.0888	21561.4	20614.15
849.4373	963.1007	21644.95	20700.5
849.5824	965.1119	21688.4	20745.25
849.7275	967.1223	21689.15	20757.7
849.8727	969.1321	21763.65	20832.15
850.0178	971.1412	21770.45	20832.95
850.1629	973.1495	21793.35	20851.3
850.3081	975.1572	21883.1	20888.5
850.4532	977.1641	21848.45	20900.9
850.5983	979.1704	21865.5	20913.1
850.7435	981.1759	21815.4	20864.65
850.8886	983.1808	21909.45	20958.4
851.0337	985.1849	21982.95	21025.65
851.1788	987.1884	22130.25	21176.85
851.324	989.1911	22306.55	21354.7
851.4691	991.1932	22418.85	21472.4
851.6142	993.1945	22435.6	21489.65
851.7593	995.1951	22376.9	21428.5
851.9045	997.1951	22369.4	21416.4
852.0496	999.1943	22241.7	21292.5
852.1947	1001.1928	22229.35	21278.6
852.3398	1003.1906	22210.9	21261.65
852.4849	1005.1877	22237.3	21287.95
852.63	1007.1841	22200.4	21253.55
852.7751	1009.1798	22203.7	21257.35
852.9202	1011.1748	21980.7	21035
853.0653	1013.1691	21779.75	20830.8
853.2104	1015.1627	21540.05	20592.7
853.3555	1017.1556	21286.25	20339.2
853.5006	1019.1477	21220.9	20275.5
853.6457	1021.1392	21103.2	20161.7
853.7908	1023.1299	21134.75	20197.75
853.9359	1025.12	21122.5	20188.45
854.081	1027.1093	21147.05	20230.05
854.2261	1029.0979	21167.85	20248.35
854.3712	1031.0859	21256.3	20330.3
854.5163	1033.0731	21262.15	20326.5
854.6613	1035.0596	21194.05	20254.25
854.8064	1037.0454	21001.25	20060.15
854.9515	1039.0304	20952.95	20010.1
855.0965	1041.0148	20803.2	19860.7
855.2416	1042.9985	20737.75	19794
855.3867	1044.9814	20689.25	19740.4
855.5317	1046.9636	20640.7	19692.55
855.6768	1048.9452	20569.35	19627.3
855.8219	1050.926	20600.35	19657
855.9669	1052.9061	20584.8	19638.1
856.112	1054.8855	20584	19639
856.257	1056.8642	20638.95	19693.1
856.4021	1058.8421	20713.95	19765.05
856.5471	1060.8194	20729	19780.65
856.6921	1062.7959	20782.6	19837
856.8372	1064.7717	20778.1	19831
856.9822	1066.7469	20812.55	19864.65
857.1272	1068.7213	20811.6	19862.8
857.2723	1070.695	20801.9	19856.55
857.4173	1072.6679	20715.4	19769.25
857.5623	1074.6402	20725.15	19776.45
857.7073	1076.6117	20722.45	19772.35
857.8523	1078.5826	20695.2	19747.55
857.9973	1080.5527	20662.7	19711
858.1423	1082.5221	20768.1	19825.75
858.2873	1084.4908	20923.85	19976.7
858.4323	1086.4587	21057.9	20111.4
858.5773	1088.426	21181.55	20233.75
858.7223	1090.3925	21169.2	20217.45
858.8673	1092.3584	21151.4	20205.35
859.0123	1094.3235	20981.15	20034.4
859.1573	1096.2879	20939.25	19991.3
859.3022	1098.2515	20952.75	20011.05
859.4472	1100.2145	21021.1	20073.8
859.5922	1102.1767	21134.45	20188.6
859.7371	1104.1382	21290.3	20347.85
859.8821	1106.099	21449.9	20500.05
860.027	1108.0591	21674.6	20729.75
860.172	1110.0185	21833.7	20887.15
860.3169	1111.9771	21871.65	20924.6
860.4619	1113.9351	21642.55	20694.65
860.6068	1115.8923	21352.7	20405.95
860.7517	1117.8488	21086.4	20138.35
860.8967	1119.8045	20794.75	19852.4
861.0416	1121.7596	20642.35	19696.55
861.1865	1123.7139	20558	19618.6
861.3314	1125.6675	20602.55	19660.75
861.4763	1127.6204	20679	19734.6
861.6212	1129.5726	20606.25	19659.2
861.7661	1131.524	20615.25	19672.35
861.911	1133.4748	20597.1	19654.55
862.0559	1135.4248	20560.05	19615.95
862.2008	1137.3741	20522.95	19577.35
862.3457	1139.3226	20457.5	19511.8
862.4905	1141.2705	20474.35	19525.9
862.6354	1143.2176	20319.65	19370.9
862.7803	1145.164	20338.25	19392.9
862.9251	1147.1097	20361.25	19413.15
863.07	1149.0546	20309.4	19363.55
863.2148	1150.9989	20257.2	19312.35
863.3597	1152.9424	20101.6	19154.45
863.5045	1154.8852	19969.3	19022.95
863.6493	1156.8272	19875.45	18932.1
863.7942	1158.7686	19857.6	18905.95
863.939	1160.7092	19772.8	18829.35
864.0838	1162.6491	19800.9	18852.1
864.2286	1164.5883	19890.4	18947.1
864.3734	1166.5267	19945.45	18997.95
864.5182	1168.4644	20082.5	19137.45
864.663	1170.4014	20267.4	19323.75
864.8078	1172.3377	20554.2	19612.75
864.9526	1174.2732	20761.6	19822.25
865.0974	1176.2081	21005.85	20062.6
865.2421	1178.1421	21281	20333.8
865.3869	1180.0755	21540.5	20597.55
865.5317	1182.0082	21624.85	20683.45
865.6764	1183.9401	21657.2	20715.85
865.8212	1185.8713	21456.9	20523.25
865.9659	1187.8017	21231.95	20301.75
866.1106	1189.7315	20961.45	20038.15
866.2554	1191.6605	20647.95	19726.2
866.4001	1193.5888	20433.7	19503.6
866.5448	1195.5163	20325.95	19394.05
866.6895	1197.4432	20210.75	19274.4
866.8342	1199.3693	20154.3	19215.45
866.9789	1201.2947	20110.8	19164.15
867.1236	1203.2193	20072.6	19131.6
867.2683	1205.1432	20142.15	19203.2
867.413	1207.0664	20107.15	19169.3
867.5576	1208.9889	20126.05	19183.25
867.7023	1210.9106	20161.95	19218.85
867.847	1212.8316	20139.55	19201.6
867.9916	1214.7519	20191.95	19243.45
868.1363	1216.6715	20183.55	19241.1
868.2809	1218.5903	20232.6	19290.1
868.4255	1220.5084	20170.15	19229.1
868.5701	1222.4257	20200.5	19259.65
868.7148	1224.3424	20088.6	19153.35
868.8594	1226.2583	20181.35	19235.8
869.004	1228.1735	20205.7	19263.9
869.1486	1230.0879	20323.55	19383.4
869.2932	1232.0016	20457.1	19519.9
869.4377	1233.9146	20486.35	19541.2
869.5823	1235.8269	20357	19417
869.7269	1237.7384	20297.2	19357
869.8715	1239.6492	20035.6	19093.75
870.016	1241.5592	19951.2	19012
870.1606	1243.4686	19871.85	18933.55
870.3051	1245.3772	19888.7	18950.9
870.4496	1247.285	19866	18926.65
870.5941	1249.1922	19822.85	18884.4
870.7387	1251.0986	19823.7	18886.5
870.8832	1253.0042	19807.25	18869.6
871.0277	1254.9092	19888.75	18949.85
871.1722	1256.8134	19913.95	18981.35
871.3167	1258.7169	20072.7	19133
871.4611	1260.6196	20173.6	19240.7
871.6056	1262.5216	20435.7	19499.65
871.7501	1264.4229	20571.95	19635.7
871.8945	1266.3234	20736.05	19800.6
872.039	1268.2232	20770.8	19832.75
872.1834	1270.1223	20784.65	19846.1
872.3278	1272.0207	20769.05	19833.35
872.4723	1273.9183	20726.85	19779.5
872.6167	1275.8151	20650.2	19713.45
872.7611	1277.7113	20604.55	19667.05
872.9055	1279.6067	20429.65	19491.15
873.0499	1281.5014	20323.7	19384.55
873.1943	1283.3953	20374.95	19438.65
873.3386	1285.2885	20427.5	19494.05
873.483	1287.181	20499.45	19563.45
873.6274	1289.0727	20622	19687.5
873.7717	1290.9637	20766.65	19832.95
873.9161	1292.854	20869.5	19932.75
874.0604	1294.7435	20964.25	20027.45
874.2047	1296.6323	21114.6	20178.1
874.349	1298.5204	21279.55	20341.4
874.4933	1300.4077	21473	20534.95
874.6376	1302.2943	21544.6	20606.45
874.7819	1304.1802	21578.25	20643.15
874.9262	1306.0653	21393.85	20456.5
875.0705	1307.9497	21173.3	20237.5
875.2147	1309.8333	21002.85	20070.45
875.359	1311.7162	20866.1	19929.7
875.5032	1313.5984	20884.75	19946.35
875.6475	1315.4798	20854.25	19904.9
875.7917	1317.3605	20907.5	19964.6
875.9359	1319.2405	20955.65	20014.4
876.0801	1321.1197	20851.85	19909.75
876.2243	1322.9982	20732.3	19787.25
876.3685	1324.876	20672.95	19735.9
876.5127	1326.753	20496.3	19558.4
876.6569	1328.6293	20473	19533.7
876.801	1330.5048	20445.95	19505.2
876.9452	1332.3796	20339.4	19399.05
877.0893	1334.2537	20376.65	19414.15
877.2335	1336.127	20293.85	19356.5
877.3776	1337.9996	20271.1	19335.8
877.5217	1339.8714	20236.6	19300.4
877.6658	1341.7426	20218.7	19235.85
877.8099	1343.6129	20165.05	19226.7
877.954	1345.4826	20095.7	19156.5
878.0981	1347.3515	20080.5	19138.15
878.2422	1349.2196	20029.2	19089.5
878.3862	1351.087	20029.95	19092.55
878.5303	1352.9537	20096.45	19157.5
878.6743	1354.8197	20218	19278.65
878.8184	1356.6849	20391	19452.5
878.9624	1358.5493	20432.25	19494.05
879.1064	1360.4131	20475.35	19540.4
879.2504	1362.276	20431	19495.45
879.3944	1364.1383	20270.1	19334.45
879.5384	1365.9998	20053.35	19111.3
879.6823	1367.8606	19664.2	18725.95
879.8263	1369.7206	19395.6	18459.9
879.9702	1371.5799	19168.1	18230.25
880.1142	1373.4384	18958.25	18017.6
880.2581	1375.2962	18784.55	17846.35
880.402	1377.1533	18465.5	17531.2
880.5459	1379.0096	18124.5	17192.05
880.6898	1380.8652	17838.6	16906.7
880.8337	1382.7201	17586.9	16653.45
880.9776	1384.5742	17320.45	16384.3
881.1215	1386.4275	17123.65	16183.1
881.2653	1388.2802	16985.15	16047.35
881.4092	1390.132	16820.45	15884.2
881.553	1391.9832	16756.55	15816.9
881.6968	1393.8336	16656.3	15718.25
881.8406	1395.6832	16610.15	15671.45
881.9844	1397.5322	16539.05	15603.1
882.1282	1399.3803	16517.95	15580.35
882.272	1401.2278	16416.35	15479.6
882.4158	1403.0745	16423.05	15488.65
882.5595	1404.9204	16392.05	15458.4
882.7033	1406.7656	16378.1	15440.5
882.847	1408.6101	16348	15411
882.9908	1410.4538	16327.45	15395.25
883.1345	1412.2968	16396.3	15460.6
883.2782	1414.139	16401.85	15465
883.4219	1415.9805	16460.65	15522.7
883.5656	1417.8213	16512.45	15572.95
883.7092	1419.6613	16615.6	15679.8
883.8529	1421.5006	16797.55	15861.55
883.9965	1423.3391	16982.6	16048.5
884.1402	1425.1769	17272.7	16338.1
884.2838	1427.0139	17737.55	16802.3
884.4274	1428.8502	18297.1	17362.8
884.571	1430.6858	18810.15	17877.45
884.7146	1432.5206	19177.95	18241.9
884.8582	1434.3547	19445.85	18512.95
885.0018	1436.188	19434	18498.15
885.1453	1438.0206	19355.65	18423.4
885.2889	1439.8524	19161.4	18227.2
885.4324	1441.6835	19077.5	18143.6
885.5759	1443.5139	18949.4	18015.6
885.7194	1445.3435	18839.9	17906.25
885.8629	1447.1724	18799.85	17867.65
886.0064	1449.0005	18727.75	17798.6
886.1499	1450.8279	18625.2	17692.5
886.2933	1452.6545	18576.2	17648.15
886.4368	1454.4804	18624.3	17697.2
886.5802	1456.3056	18563	17628
886.7237	1458.13	18469.3	17542.35
886.8671	1459.9536	18234.35	17304.5
887.0105	1461.7766	17921.1	16992.85
887.1539	1463.5987	17524.45	16591.2
887.2972	1465.4202	17095.55	16162.45
887.4406	1467.2409	16749.75	15815.45
887.584	1469.0608	16494.55	15562.2
887.7273	1470.88	16195.15	15261.3
887.8706	1472.6984	15973.7	15043.65
888.0139	1474.5161	15747.8	14817.5
888.1572	1476.3331	15585.5	14655.1
888.3005	1478.1493	15455.15	14523.3
888.4438	1479.9648	15316.25	14384.1
888.5871	1481.7795	15228.3	14294.35
888.7303	1483.5935	15157.3	14226.3
888.8736	1485.4067	15065.45	14135.4
889.0168	1487.2192	15030.6	14098.3
889.16	1489.031	14946.65	14015.05
889.3032	1490.842	14922.25	13991.1
889.4464	1492.6522	14895.25	13963.3
889.5896	1494.4618	14833.45	13897.85
889.7327	1496.2705	14814.7	13885.75
889.8759	1498.0785	14761	13828.9
890.019	1499.8858	14686.8	13754.35
890.1622	1501.6924	14644.1	13713.35
890.3053	1503.4981	14610.9	13680.95
890.4484	1505.3032	14563.3	13630.4
890.5914	1507.1075	14519.25	13585.55
890.7345	1508.911	14502.15	13571.9
890.8776	1510.7138	14417.15	13486.3
891.0206	1512.5159	14371.35	13439.95
891.1637	1514.3172	14318.4	13388.85
891.3067	1516.1178	14225.8	13299.8
891.4497	1517.9176	14224.1	13292.85
891.5927	1519.7166	14156.9	13231.45
891.7357	1521.515	14116.75	13183.55
891.8786	1523.3126	14077.65	13147.45
892.0216	1525.1094	14011.5	13082.85
892.1645	1526.9055	13959.1	13035.6
892.3074	1528.7008	13942.45	13017.65
892.4503	1530.4954	13843.35	12916.5
892.5932	1532.2893	13827.8	12902.55
892.7361	1534.0824	13761.3	12832.65
892.879	1535.8747	13757.05	12835.85
893.0218	1537.6663	13746.35	12821.55
893.1647	1539.4572	13697.8	12771.4
893.3075	1541.2473	13666.3	12744
893.4503	1543.0367	13618.6	12694.55
893.5931	1544.8253	13574.8	12643.05
893.7359	1546.6132	13599.15	12673.2
893.8787	1548.4003	13570.2	12636.25
894.0214	1550.1867	13576.25	12644.75
894.1642	1551.9723	13596.5	12671.8
894.3069	1553.7572	13613.35	12691.75
894.4496	1555.5414	13660.25	12741.75
894.5923	1557.3247	13680.05	12760.55
894.735	1559.1074	13723.65	12808.6
894.8777	1560.8893	13773.2	12853.4
895.0204	1562.6705	13858.45	12942.55
895.163	1564.4509	13927.1	13010.6
895.3056	1566.2305	13941.9	13025.2
895.4482	1568.0094	14036.2	13123.6
895.5908	1569.7876	14078.35	13165.1
895.7334	1571.565	14063.25	13144.5
895.876	1573.3417	14050.95	13132.35
896.0186	1575.1176	14028.1	13110.2
896.1611	1576.8928	13974.7	13061.4
896.3036	1578.6672	13852.7	12944.65
896.4461	1580.4409	13757.35	12849.95
896.5886	1582.2138	13629.95	12716.85
896.7311	1583.986	13532.95	12622.7
896.8736	1585.7575	13492	12580.45
897.0161	1587.5282	13418.55	12510.15
897.1585	1589.2981	13365.75	12457.95
897.3009	1591.0673	13323.1	12413.7
897.4433	1592.8358	13353.25	12443.05
897.5857	1594.6035	13375.3	12461.75
897.7281	1596.3704	13369.3	12452.95
897.8705	1598.1366	13368.75	12457.05
898.0128	1599.9021	13400.55	12492.65
898.1551	1601.6668	13421.1	12513.05
898.2975	1603.4308	13514.2	12600.2
898.4398	1605.194	13602.15	12684.3
898.5821	1606.9564	13700.25	12795.85
898.7243	1608.7182	13834.95	12931.3
898.8666	1610.4791	13978.25	13081.95
899.0088	1612.2394	14159.95	13262.85
899.1511	1613.9988	14305.6	13407
899.2933	1615.7576	14507.05	13603.1
899.4355	1617.5156	14713.8	13795.5
899.5776	1619.2728	14913.45	14001.9
899.7198	1621.0293	14980.7	14070.3
899.862	1622.785	14990.8	14077.45
900.0041	1624.54	14823.65	13918.4
900.1462	1626.2942	14624.9	13719.45
900.2883	1628.0477	14361.95	13455.4
900.4304	1629.8005	14150.2	13242.9
900.5725	1631.5525	13900.25	12995.9
900.7145	1633.3037	13698.15	12796.35
900.8566	1635.0542	13536.8	12634
900.9986	1636.804	13413.05	12506.75
901.1406	1638.553	13417.95	12443.5
901.2826	1640.3013	13303.7	12397.35
901.4245	1642.0488	13241.15	12332.25
901.5665	1643.7955	13276.15	12373.75
901.7085	1645.5416	13314.55	12412.55
901.8504	1647.2868	13388.6	12485.05
901.9923	1649.0313	13466.35	12560.2
902.1342	1650.7751	13610.55	12702.1
902.2761	1652.5181	13771.95	12867.75
902.4179	1654.2604	13922.8	13021.8
902.5598	1656.0019	14168	13267.15
902.7016	1657.7427	14493.5	13590
902.8434	1659.4828	14746.7	13839.95
902.9852	1661.222	14877.2	13971.3
903.127	1662.9606	14886.8	13979.15
903.2687	1664.6984	14634.45	13727.35
903.4105	1666.4354	14233.85	13326.7
903.5522	1668.1717	13706.25	12798.5
903.6939	1669.9072	13155.1	12246.8
903.8356	1671.642	12766.55	11857.9
903.9773	1673.3761	12393.6	11487.8
904.119	1675.1094	12088.8	11185.85
904.2606	1676.8419	11846.75	10941.75
904.4022	1678.5737	11642.1	10738.8
904.5439	1680.3048	11479.5	10570.6
904.6855	1682.0351	11346.75	10441.65
904.827	1683.7646	11244.8	10336.15
904.9686	1685.4934	11144.65	10239.25
905.1101	1687.2215	11065.25	10160.9
905.2517	1688.9488	10993.6	10093
905.3932	1690.6754	10911.1	10010.35
905.5347	1692.4012	10875.9	9971.35
905.6761	1694.1263	10823.8	9919.8
905.8176	1695.8506	10795.15	9891.9
905.9591	1697.5742	10732.25	9831.85
906.1005	1699.297	10682.1	9783.2
906.2419	1701.0191	10614.65	9719.8
906.3833	1702.7404	10588.8	9690.7
906.5246	1704.461	10510.15	9606.1
906.666	1706.1808	10456.2	9554
906.8073	1707.8999	10393.7	9492.2
906.9487	1709.6182	10370.9	9472.25
907.09	1711.3358	10343.65	9447.5
907.2313	1713.0527	10314.85	9420.7
907.3725	1714.7688	10253.9	9350.4
907.5138	1716.4841	10195.75	9293.75
907.655	1718.1987	10181.25	9275.35
907.7962	1719.9126	10161.55	9266.05
907.9374	1721.6257	10115.95	9221.05
908.0786	1723.338	10085.55	9191.5
908.2198	1725.0496	10039.3	9140.85
908.3609	1726.7605	10004.85	9106
908.502	1728.4706	9984.4	9086.35
908.6431	1730.18	9936.2	9040.05
908.7842	1731.8886	9923.4	9028.1
908.9253	1733.5964	9884.2	8968.7
909.0664	1735.3036	9840.65	8943.7
909.2074	1737.0099	9812.3	8916.35
909.3484	1738.7156	9807.5	8914.65
909.4894	1740.4204	9722.2	8823.25
909.6304	1742.1246	9709.15	8810.05
909.7714	1743.8279	9703.65	8807.9
909.9123	1745.5306	9664.55	8770.45
910.0532	1747.2325	9622.5	8729.4
910.1941	1748.9336	9591.3	8695.75
910.335	1750.634	9522	8622.1
910.4759	1752.3336	9516.45	8618.3
910.6168	1754.0325	9499.75	8610.85
910.7576	1755.7307	9467.1	8572.15
910.8984	1757.4281	9465.95	8569.35
911.0392	1759.1247	9469.3	8560.6
911.18	1760.8206	9423.15	8518.5
911.3208	1762.5158	9418.15	8515
911.4615	1764.2102	9390.5	8493.8
911.6022	1765.9039	9344.2	8450.25
911.7429	1767.5968	9333.65	8440
911.8836	1769.289	9299.7	8407.6
912.0243	1770.9804	9280.85	8384.15
912.1649	1772.6711	9239.7	8342.05
912.3056	1774.361	9224.25	8325.75
912.4462	1776.0502	9225.75	8326.55
912.5868	1777.7386	9191.55	8291.3
912.7274	1779.4263	9146.15	8247.75
912.8679	1781.1132	9148.15	8254.05
913.0084	1782.7994	9110.4	8218.45
913.149	1784.4849	9083.75	8190.9
913.2895	1786.1696	9065.1	8164.8
913.4299	1787.8535	9038.9	8148.1
913.5704	1789.5367	9007.55	8119.3
913.7108	1791.2192	9024.85	8132.75
913.8513	1792.9009	9003.65	8082.55
913.9917	1794.5818	8970.1	8075.85
914.132	1796.2621	8967.3	8073.5
914.2724	1797.9415	8915.55	8018.75
914.4128	1799.6202	8898.1	8002.1
914.5531	1801.2982	8855.45	7958.55
914.6934	1802.9755	8844.25	7945.25
914.8337	1804.6519	8831.45	7934.1
914.9739	1806.3277	8804.95	7911.2
915.1142	1808.0027	8767.95	7878.1
915.2544	1809.6769	8754.05	7864.9
915.3946	1811.3504	8733.5	7843.8
915.5348	1813.0231	8693.8	7804.45
915.675	1814.6951	8690.45	7800
915.8151	1816.3664	8696.4	7799.7
915.9553	1818.0369	8661.85	7765.55
916.0954	1819.7067	8633.2	7736.5
916.2355	1821.3757	8617.65	7718.9
916.3755	1823.044	8606.55	7711.5
916.5156	1824.7115	8605.2	7708.15
916.6556	1826.3783	8561.1	7667.75
916.7956	1828.0443	8531	7637.8
916.9356	1829.7096	8512.15	7616.55
917.0756	1831.3741	8488.15	7592.2
917.2155	1833.0379	8467.05	7575.85
917.3555	1834.701	8440.5	7548.9
917.4954	1836.3633	8441.75	7551.2
917.6353	1838.0248	8408.5	7517.15
917.7751	1839.6856	8398.3	7506.45
917.915	1841.3457	8375.65	7480.5
918.0548	1843.005	8375.5	7481.1
918.1946	1844.6636	8346.7	7454.45
918.3344	1846.3214	8341.75	7450.2
918.4742	1847.9785	8327.75	7438.5
918.6139	1849.6349	8294.6	7397.15
918.7537	1851.2904	8302.95	7396.6
918.8934	1852.9453	8253.8	7356.95
919.0331	1854.5994	8247.15	7349.1
919.1727	1856.2528	8244.1	7345.25
919.3124	1857.9054	8215.15	7320.35
919.452	1859.5572	8187.8	7296.4
919.5916	1861.2083	8199.55	7307.5
919.7312	1862.8587	8191.15	7298.45
919.8708	1864.5084	8160.1	7266.6
920.0103	1866.1572	8128.75	7233.25
920.1498	1867.8054	8113.6	7215.6
920.2893	1869.4528	8066.1	7170.25
920.4288	1871.0994	8070.2	7174.1
920.5683	1872.7453	8035.05	7138.65
920.7077	1874.3905	8037.85	7124.3
920.8471	1876.0349	8004.4	7110.25
920.9865	1877.6786	7998.25	7101.7
921.1259	1879.3215	7977.35	7083
921.2653	1880.9637	7969.2	7073.8
921.4046	1882.6051	7946.95	7052.9
921.5439	1884.2458	7908	7012.45
921.6832	1885.8858	7895	7001.95
921.8225	1887.525	7888.7	6992.9
921.9617	1889.1634	7856	6962.15
922.101	1890.8011	7850.4	6954.95
922.2402	1892.4381	7821.45	6925.35
922.3794	1894.0743	7792.95	6898.55
922.5185	1895.7098	7806.95	6912.95
922.6577	1897.3446	7759.15	6863.25
922.7968	1898.9786	7749.65	6851.2
922.9359	1900.6118	7722.45	6829.85
923.075	1902.2443	7681.7	6789.3
923.214	1903.8761	7686.5	6793.2
923.3531	1905.5071	7651.65	6757.2
923.4921	1907.1374	7600.5	6707.5
923.6311	1908.7669	7584.4	6691.25
923.77	1910.3957	7585	6693.6
923.909	1912.0237	7553.35	6660.45
924.0479	1913.651	7536.85	6641.85
924.1868	1915.2776	7525.9	6634.5
924.3257	1916.9034	7478.6	6587.85
924.4646	1918.5285	7456.9	6568.8
924.6034	1920.1528	7430.15	6537.6
924.7422	1921.7764	7413.15	6520.8
924.881	1923.3992	7409.9	6518.45
925.0198	1925.0213	7357.1	6463.15
925.1586	1926.6427	7332.95	6441.55
925.2973	1928.2633	7384.2	6399.45
925.436	1929.8832	7326	6431.1
925.5747	1931.5023	7254.05	6361.85
925.7134	1933.1207	7219.05	6328.2
925.852	1934.7383	7223.65	6332
925.9906	1936.3552	7217.3	6325.9
926.1292	1937.9714	7198.05	6306.8
926.2678	1939.5868	7152.25	6259.15
926.4064	1941.2015	7129.65	6235.2
926.5449	1942.8154	7104.05	6210
926.6834	1944.4286	7081.2	6188.05
926.8219	1946.041	7070.4	6151.1
926.9604	1947.6528	7030.85	6133.55
927.0988	1949.2637	6994.25	6101.6
927.2372	1950.8739	6960.75	6069.95
927.3756	1952.4834	6970.7	6079.4
927.514	1954.0921	6967.25	6074.5
927.6523	1955.7001	6929	6035
927.7907	1957.3074	6899.8	6011.4
927.929	1958.9139	6874.45	5989.6
928.0673	1960.5197	6895.85	6008.4
928.2055	1962.1247	6832.4	5939.9
928.3438	1963.729	6798.35	5909.05
928.482	1965.3325	6784.75	5892
928.6202	1966.9353	6747.65	5861.6
928.7584	1968.5374	6736.65	5848.75
928.8965	1970.1387	6722.15	5832.6
929.0346	1971.7393	6695	5804.75
929.1727	1973.3392	6677.7	5791.45
929.3108	1974.9383	6643.05	5756.45
929.4489	1976.5366	6622.65	5733.15
929.5869	1978.1342	6604.55	5718.35
929.7249	1979.7311	6612.35	5724.45
929.8629	1981.3273	6576.75	5691.8
930.0009	1982.9227	6560.65	5671.15
930.1388	1984.5173	6543.3	5659.05
930.2767	1986.1112	6510.85	5625.45
930.4146	1987.7044	6505	5621.15
930.5525	1989.2968	6478.5	5590.7
930.6904	1990.8885	6468.7	5579.15
930.8282	1992.4795	6443.4	5556.85
930.966	1994.0697	6425.1	5541.5
931.1038	1995.6592	6411.4	5527.3
931.2415	1997.2479	6396.8	5510.55
931.3793	1998.8359	6392.8	5508.8
931.517	2000.4232	6345.65	5463.35
931.6547	2002.0097	6323.9	5445.3
931.7923	2003.5955	6303.5	5421.2
931.93	2005.1805	6293.6	5409.45
932.0676	2006.7648	6282.3	5397.8
932.2052	2008.3484	6261.75	5381.7
932.3427	2009.9312	6264.7	5383
932.4803	2011.5133	6230.2	5350.05
932.6178	2013.0946	6217.05	5335.65
932.7553	2014.6752	6186.15	5304.35
932.8928	2016.2551	6175.95	5290.85
933.0302	2017.8342	6167.7	5283.2
933.1676	2019.4126	6146.8	5263.55
933.305	2020.9902	6115.15	5236
933.4424	2022.5672	6105.4	5223.65
933.5798	2024.1433	6099.65	5213.15
933.7171	2025.7188	6080.35	5202.3
933.8544	2027.2935	6054.65	5173.45
933.9917	2028.8674	6050.25	5172.9
934.129	2030.4406	6015.1	5136.75
934.2662	2032.0131	6010	5129.3
934.4034	2033.5849	6007.6	5126.4
934.5406	2035.1559	5954.55	5076.95
934.6778	2036.7261	5966.8	5084.95
934.8149	2038.2957	5954.35	5069.3
934.952	2039.8645	5948.75	5064.5
935.0891	2041.4325	5944.95	5056.9
935.2262	2042.9998	5912.7	5029.6
935.3632	2044.5664	5892.5	5009.7
935.5002	2046.1323	5894.05	5013.3
935.6372	2047.6974	5847	4966.4
935.7742	2049.2617	5837.45	4954.8
935.9111	2050.8254	5848.95	4946
936.048	2052.3883	5842.65	4960.3
936.1849	2053.9504	5817.15	4931.35
936.3218	2055.5118	5811	4925.9
936.4586	2057.0725	5785.25	4896.65
936.5955	2058.6325	5772.1	4890.7
936.7323	2060.1917	5763.8	4882.9
936.869	2061.7502	5737	4853.35
937.0058	2063.3079	5712.55	4832.05
937.1425	2064.8649	5710.6	4826.75
937.2792	2066.4212	5680.35	4797.85
937.4159	2067.9767	5683.8	4801.8
937.5525	2069.5315	5645	4762.6
937.6891	2071.0856	5632.65	4750.9
937.8257	2072.6389	5632.55	4749.95
937.9623	2074.1915	5583.75	4704.5
938.0989	2075.7433	5564	4680.3
938.2354	2077.2945	5560.25	4680.95
938.3719	2078.8448	5567.75	4682.1
938.5084	2080.3945	5530	4645.8
938.6448	2081.9434	5505.5	4620.55
938.7812	2083.4916	5506	4620.2
938.9176	2085.039	5476.35	4587.4
939.054	2086.5857	5471.1	4579.5
939.1903	2088.1317	5468.35	4575.65
939.3267	2089.677	5466.55	4576
939.463	2091.2215	5424.75	4532.7
939.5992	2092.7652	5422.2	4530
939.7355	2094.3083	5406.05	4517.75
939.8717	2095.8506	5401.3	4513.25
940.0079	2097.3921	5388.5	4502.5
940.1441	2098.933	5369.6	4484.2
940.2802	2100.4731	5367.05	4481
940.4163	2102.0124	5340.2	4445.05
940.5524	2103.5511	5346.7	4460.05
940.6885	2105.089	5338.65	4451.5
940.8245	2106.6261	5325.85	4438.55
940.9606	2108.1626	5291.7	4404.45
941.0965	2109.6983	5308.25	4393.05
941.2325	2111.2332	5288.1	4400.05
941.3684	2112.7675	5288.9	4399.35
941.5044	2114.301	5236.75	4346.95
941.6403	2115.8337	5246.7	4359.5
941.7761	2117.3657	5221.45	4333.4
941.912	2118.897	5227.65	4337.9
942.0478	2120.4276	5200.25	4308.5
942.1835	2121.9575	5182.85	4294.25
942.3193	2123.4866	5203.45	4298.95
942.455	2125.0149	5173.85	4285.25
942.5907	2126.5426	5132.2	4249.2
942.7264	2128.0695	5135.45	4249.35
942.8621	2129.5956	5114.75	4234.2
942.9977	2131.1211	5107.95	4217.5
943.1333	2132.6458	5099.65	4215.15
943.2689	2134.1698	5086.4	4196.75
943.4044	2135.693	5068.45	4175.4
943.54	2137.2155	5065.45	4174.3
943.6755	2138.7373	5060.6	4173.65
943.8109	2140.2584	5045.05	4163.95
943.9464	2141.7787	5021.2	4131.05
944.0818	2143.2983	4998.65	4117.15
944.2172	2144.8171	4988	4108
944.3526	2146.3353	4970.6	4085.85
944.4879	2147.8527	4964.45	4082.75
944.6232	2149.3693	4961	4073.5
944.7585	2150.8853	4954.1	4064
944.8938	2152.4005	4928.55	4039.1
945.029	2153.9149	4928.15	4039.75
945.1642	2155.4287	4920.1	4030.6
945.2994	2156.9417	4900.25	4010.3
945.4346	2158.454	4892.1	4004.3
945.5697	2159.9655	4868.7	3985.1
945.7048	2161.4764	4867.3	3982.1
945.8399	2162.9865	4846.2	3963.15
945.9749	2164.4958	4833.75	3950.6
946.1099	2166.0045	4818.3	3932
946.2449	2167.5124	4819.95	3934.5
946.3799	2169.0195	4819.75	3931.1
946.5148	2170.526	4794.7	3906.35
946.6498	2172.0317	4778.3	3888.9
946.7846	2173.5367	4780	3891.95
946.9195	2175.0409	4763.2	3876.9
947.0543	2176.5445	4779.65	3891.15
947.1891	2178.0473	4751.95	3865.45
947.3239	2179.5494	4725.45	3833.6
947.4587	2181.0507	4711.95	3826.2
947.5934	2182.5513	4686.75	3799.65
947.7281	2184.0512	4696.45	3806.2
947.8628	2185.5504	4689.2	3804.05
947.9974	2187.0488	4660.85	3776.45
948.132	2188.5465	4650.2	3765.9
948.2666	2190.0435	4632.1	3747.05
948.4012	2191.5397	4606	3717.2
948.5357	2193.0353	4596.6	3708.55
948.6702	2194.5301	4585.9	3695.7
948.8047	2196.0241	4579.5	3687.25
948.9392	2197.5175	4567.15	3675.5
949.0736	2199.0101	4567	3671.65
949.208	2200.502	4533.05	3643.95
949.3424	2201.9931	4511.75	3626.45
949.4767	2203.4835	4498.05	3612.15
949.611	2204.9733	4510.9	3620.05
949.7453	2206.4622	4486.25	3603
949.8796	2207.9505	4464.4	3577
950.0138	2209.438	4449.75	3568.8
950.148	2210.9248	4438.85	3554.35
950.2822	2212.4109	4440.2	3553.35
950.4164	2213.8962	4415.25	3521.9
950.5505	2215.3809	4417.7	3525.4
950.6846	2216.8648	4398.8	3507.15
950.8186	2218.3479	4399.4	3500.75
950.9527	2219.8304	4380.2	3484.55
951.0867	2221.3121	4373	3477.85
951.2207	2222.7931	4349.15	3459.7
951.3546	2224.2733	4334.6	3446
951.4886	2225.7529	4325.1	3436.4
951.6225	2227.2317	4310.5	3422.7
951.7563	2228.7098	4300.35	3414.6
951.8902	2230.1872	4276.7	3391.6
952.024	2231.6638	4271.5	3386.8
952.1578	2233.1397	4264.55	3376.1
952.2916	2234.6149	4256.2	3371.45
952.4253	2236.0894	4252.95	3365.8
952.559	2237.5632	4255.95	3358.85
952.6927	2239.0362	4243.3	3357.3
952.8263	2240.5085	4221.5	3335.15
952.9599	2241.9801	4200.8	3311.95
953.0935	2243.4509	4186.75	3295.25
953.2271	2244.921	4173.1	3283.5
953.3606	2246.3904	4158.4	3262.65
953.4941	2247.8591	4146	3253.55
953.6276	2249.3271	4166.75	3276.8
953.7611	2250.7943	4131.65	3241.75
953.8945	2252.2608	4107	3215.05
954.0279	2253.7266	4102.8	3213.2
954.1612	2255.1917	4089.85	3201.6
954.2946	2256.656	4083.85	3197.1
954.4279	2258.1197	4067.6	3181.6
954.5612	2259.5826	4060.55	3172.45
954.6944	2261.0447	4040.95	3152.55
954.8276	2262.5062	4039.2	3149.45
954.9608	2263.9669	4033.6	3141.1
955.094	2265.4269	4030.2	3138.55
955.2271	2266.8862	4015.75	3129.7
955.3602	2268.3448	4018.05	3131.95
955.4933	2269.8026	4008.15	3123.7
955.6264	2271.2598	3990.85	3104.45
955.7594	2272.7162	3982.15	3095.3
955.8924	2274.1719	3990.2	3099.9
956.0253	2275.6268	3973.05	3082.1
956.1583	2277.0811	3974.25	3085.55
956.2912	2278.5346	3960.5	3074.2
956.4241	2279.9874	3945.65	3058.15
956.5569	2281.4395	3945.05	3060.8
956.6897	2282.8908	3935.7	3043.85
956.8225	2284.3414	3925.75	3037.5
956.9553	2285.7914	3898.6	3010.2
957.088	2287.2406	3891.05	3000.1
957.2207	2288.689	3893.3	3001.85
957.3534	2290.1368	3888.95	2994.8
957.486	2291.5838	3881.8	2985
957.6186	2293.0302	3868.45	2975.7
957.7512	2294.4758	3851.9	2961.7
957.8838	2295.9206	3836.95	2946.4
958.0163	2297.3648	3823.25	2935.05
958.1488	2298.8082	3821.9	2934.05
958.2813	2300.251	3821.6	2932.05
958.4137	2301.693	3808.5	2914.65
958.5461	2303.1343	3789.45	2898.15
958.6785	2304.5748	3785.7	2899
958.8108	2306.0147	3784.05	2898.55
958.9432	2307.4538	3775.1	2890.6
959.0754	2308.8922	3743.55	2860.05
959.2077	2310.3299	3736.8	2853.1
959.3399	2311.7669	3733.4	2847.45
959.4721	2313.2031	3711.55	2822.15
959.6043	2314.6387	3734.9	2848
959.7365	2316.0735	3709.8	2820.35
959.8686	2317.5076	3697	2809.25
960.0006	2318.941	3683.6	2793.95
960.1327	2320.3737	3681.85	2789
960.2647	2321.8056	3678.35	2787.4
960.3967	2323.2369	3661.35	2771.3
960.5287	2324.6674	3666.4	2773.65
960.6606	2326.0972	3646.7	2756.05
960.7925	2327.5263	3645.25	2756.4
960.9244	2328.9547	3630.05	2740.1
961.0562	2330.3823	3636.85	2746.75
961.1881	2331.8092	3618.05	2724.85
961.3198	2333.2355	3596.55	2706.35
961.4516	2334.661	3586.2	2694.15
961.5833	2336.0858	3585.3	2693.75
961.715	2337.5098	3581	2688.65
961.8467	2338.9332	3582.55	2692.7
961.9783	2340.3558	3565.9	2674
962.1099	2341.7778	3549.85	2662.2
962.2415	2343.199	3522.25	2631.8
962.373	2344.6195	3546.45	2659.55
962.5045	2346.0393	3536.15	2648.1
962.636	2347.4583	3536.45	2648.3
962.7675	2348.8767	3527.75	2639.2
962.8989	2350.2943	3521.45	2629.4
963.0303	2351.7113	3530.05	2635.5
963.1617	2353.1275	3497.95	2604.2
963.293	2354.543	3503.85	2602.25
963.4243	2355.9578	3477.85	2585.05
963.5556	2357.3718	3460.15	2571.1
963.6868	2358.7852	3461.25	2573.85
963.818	2360.1978	3449	2561.8
963.9492	2361.6098	3458	2572.4
964.0803	2363.021	3452.5	2560.35
964.2114	2364.4315	3446.35	2556.95
964.3425	2365.8413	3418.7	2529
964.4736	2367.2504	3408.5	2521.95
964.6046	2368.6587	3391.45	2504.05
964.7356	2370.0664	3382.55	2497.45
964.8666	2371.4733	3379.45	2493.35
964.9975	2372.8795	3371.45	2485.3
965.1284	2374.285	3363.1	2476.7
965.2593	2375.6899	3338.7	2452.65
965.3901	2377.0939	3318.4	2433.55
965.5209	2378.4973	3321.95	2434.65
965.6517	2379.9	3307.7	2422.25
965.7825	2381.3019	3297.55	2414.1
965.9132	2382.7032	3300.75	2417.55
966.0439	2384.1037	3296.7	2413.8
966.1745	2385.5035	3275.95	2392.8
966.3051	2386.9027	3265.55	2383.4
966.4357	2388.3011	3265.65	2379.5
966.5663	2389.6987	3267.95	2384.1
966.6968	2391.0957	3250.6	2368.4
966.8273	2392.492	3227.6	2343.05
966.9578	2393.8876	3224.05	2337.6
967.0882	2395.2824	3217.8	2331.7
967.2186	2396.6765	3196	2310.7
967.349	2398.07	3205.45	2320.15
967.4793	2399.4627	3194.65	2307.15
967.6097	2400.8547	3192.6	2306.75
967.7399	2402.246	3186.2	2295.35
967.8702	2403.6366	3167.05	2278.65
968.0004	2405.0265	3147.95	2265.15
968.1306	2406.4156	3141.25	2253.25
968.2607	2407.8041	3142.45	2255.15
968.3909	2409.1918	3127.95	2241.45
968.521	2410.5789	3123.25	2237.5
968.651	2411.9652	3124.65	2235.4
968.781	2413.3508	3119.95	2235.3
968.911	2414.7358	3097.1	2210
969.041	2416.12	3088.8	2204.15
969.1709	2417.5035	3098.2	2213.6
969.3008	2418.8863	3093.6	2209.35
969.4307	2420.2684	3067.25	2181.5
969.5606	2421.6497	3060.75	2177
969.6904	2423.0304	3050.5	2165.05
969.8201	2424.4104	3047.1	2161.5
969.9499	2425.7896	3058.45	2171.85
970.0796	2427.1682	3035.5	2151.9
970.2093	2428.546	3009.6	2122.95
970.3389	2429.9232	3016.45	2130.1
970.4685	2431.2996	3015.9	2131.8
970.5981	2432.6753	3007.1	2122.75
970.7277	2434.0503	3004.4	2118.55
970.8572	2435.4246	2989.95	2102.8
970.9867	2436.7982	2987.35	2098.75
971.1161	2438.1711	2981.6	2093.25
971.2456	2439.5433	2973.25	2086.8
971.375	2440.9148	2954.15	2062.4
971.5043	2442.2856	2949.95	2065.35
971.6336	2443.6557	2943.15	2057.3
971.7629	2445.025	2935.95	2050.3
971.8922	2446.3937	2925.35	2038.25
972.0214	2447.7617	2923.2	2035.3
972.1506	2449.1289	2922.75	2036.15
972.2798	2450.4955	2920.55	2029.8
972.4089	2451.8613	2900	2015
972.538	2453.2265	2905.35	2019.65
972.6671	2454.5909	2892.85	2005.75
972.7961	2455.9546	2897	2009.6
972.9251	2457.3177	2884.75	1999.3
973.0541	2458.68	2886.85	1998.05
973.1831	2460.0416	2900.95	2014.45
973.312	2461.4025	2877.2	1989
973.4408	2462.7627	2882	1984.55
973.5697	2464.1222	2864.9	1982.15
973.6985	2465.4811	2852.3	1967
973.8273	2466.8392	2840.9	1955.25
973.956	2468.1966	2840	1951.5
974.0847	2469.5533	2843.45	1952.95
974.2134	2470.9093	2832	1945.05
974.3421	2472.2645	2843.75	1956.3
974.4707	2473.6191	2821.65	1935.65
974.5993	2474.973	2813.45	1924.95
974.7278	2476.3262	2807.65	1918.05
974.8563	2477.6787	2803.55	1917.1
974.9848	2479.0305	2794.55	1909.35
975.1132	2480.3816	2780.75	1893.4
975.2417	2481.7319	2774.15	1890.15
975.37	2483.0816	2770.3	1880.65
975.4984	2484.4306	2762.7	1876.6
975.6267	2485.7789	2762.75	1879.4
975.755	2487.1264	2752.15	1862.6
975.8833	2488.4733	2730	1846.2
976.0115	2489.8195	2736.35	1843.25
976.1397	2491.165	2726.2	1837.7
976.2678	2492.5097	2724.95	1838.2
976.3959	2493.8538	2700.45	1816.1
976.524	2495.1972	2696.95	1812.95
976.6521	2496.5398	2695.15	1806.15
976.7801	2497.8818	2692.4	1804.1
976.9081	2499.2231	2678.15	1789.3
977.036	2500.5637	2671	1780.85
977.164	2501.9035	2665.25	1778
977.2918	2503.2427	2664.6	1772.45
977.4197	2504.5812	2667.1	1781.65
977.5475	2505.919	2652.1	1764.55
977.6753	2507.256	2660.4	1775
977.8031	2508.5924	2638.45	1751.95
977.9308	2509.9281	2637.35	1744.4
978.0585	2511.2631	2629.2	1743.45
978.1861	2512.5974	2627.35	1742.45
978.3137	2513.9309	2618.4	1732.6
978.4413	2515.2638	2632.7	1715.9
978.5689	2516.596	2606.3	1718.9
978.6964	2517.9275	2599.7	1709.75
978.8239	2519.2583	2594.05	1707.35
978.9513	2520.5884	2586.45	1699.4
979.0788	2521.9178	2587.3	1700.95
979.2062	2523.2465	2571.85	1685.55
979.3335	2524.5745	2559.05	1673.65
979.4608	2525.9018	2553.75	1666.8
979.5881	2527.2284	2556.15	1669.6
979.7154	2528.5543	2551.95	1667.35
979.8426	2529.8796	2548.7	1661.8
979.9698	2531.2041	2544.1	1658.8
980.0969	2532.5279	2539.85	1655.35
980.224	2533.851	2540.6	1653.7
980.3511	2535.1735	2538.9	1654.4
980.4781	2536.4952	2530.1	1644.05
980.6052	2537.8163	2533.3	1645.2
980.7321	2539.1366	2527.6	1639.45
980.8591	2540.4562	2522.2	1632.35
980.986	2541.7752	2524.05	1636.3
981.1129	2543.0935	2511.6	1622.55
981.2397	2544.411	2513.9	1625.85
981.3665	2545.7279	2500.1	1612.35
981.4933	2547.0441	2505.8	1617.45
981.62	2548.3596	2494.05	1605.85
981.7467	2549.6744	2487.15	1598.15
981.8734	2550.9885	2500.1	1601.75
982.0001	2552.3019	2477.8	1590.1
982.1267	2553.6146	2472.9	1586.45
982.2532	2554.9266	2468.45	1582.3
982.3798	2556.2379	2457.75	1571
982.5063	2557.5485	2455.45	1569.7
982.6327	2558.8585	2455.2	1560.5
982.7592	2560.1677	2458.55	1567.65
982.8856	2561.4762	2451.25	1564.2
983.0119	2562.7841	2445.75	1556.3
983.1383	2564.0913	2445.7	1558.5
983.2646	2565.3977	2440.6	1553
983.3908	2566.7035	2429.05	1540.3
983.517	2568.0086	2426.3	1537.5
983.6432	2569.313	2428.75	1540
983.7694	2570.6167	2420.35	1529.35
983.8955	2571.9197	2428.1	1540.05
984.0216	2573.222	2414.65	1524.35
984.1476	2574.5236	2414.5	1527
984.2737	2575.8246	2411.7	1522.05
984.3996	2577.1248	2403.7	1515.05
984.5256	2578.4244	2396.35	1508.65
984.6515	2579.7232	2407.25	1519.25
984.7774	2581.0214	2421.1	1506.15
984.9032	2582.3189	2399.8	1514.5
985.029	2583.6157	2397.4	1504.95
985.1548	2584.9118	2390.15	1501.9
985.2806	2586.2072	2387.1	1498.35
985.4063	2587.5019	2379.5	1491.3
985.5319	2588.7959	2380.6	1491.9
985.6576	2590.0893	2394	1504.05
985.7832	2591.3819	2377.7	1488.85
985.9087	2592.6739	2375.8	1487.5
986.0343	2593.9652	2369	1479.85
986.1597	2595.2557	2365.45	1477.4
986.2852	2596.5456	2362.2	1471.1
986.4106	2597.8348	2352.45	1466.75
986.536	2599.1234	2354.6	1466.8
986.6614	2600.4112	2348.35	1461.4
986.7867	2601.6983	2351.85	1461.55
986.912	2602.9848	2331.8	1442.85
987.0372	2604.2705	2335.25	1441.9
987.1624	2605.5556	2332.4	1445.05
987.2876	2606.84	2336.65	1448.75
987.4128	2608.1237	2324.8	1438
987.5379	2609.4067	2320.1	1432.95
987.6629	2610.689	2316.35	1420.4
987.788	2611.9707	2308.15	1416.45
987.913	2613.2516	2301.75	1410.7
988.0379	2614.5319	2300.55	1413.6
988.1629	2615.8115	2295.45	1409.15
988.2878	2617.0903	2280.95	1394.8
988.4126	2618.3685	2282.55	1393.5
988.5375	2619.6461	2271.4	1383.75
988.6622	2620.9229	2270.7	1383.45
988.787	2622.199	2278.3	1390.95
988.9117	2623.4745	2275.65	1387.5
989.0364	2624.7493	2265	1377.9
989.161	2626.0234	2250.05	1364.6
989.2857	2627.2968	2247.65	1362.1
989.4102	2628.5695	2264.1	1374.9
989.5348	2629.8415	2244.75	1358.65
989.6593	2631.1128	2235.05	1345.75
989.7837	2632.3835	2232.1	1346.15
989.9082	2633.6535	2225.25	1339.15
990.0326	2634.9228	2222.5	1336.05
990.1569	2636.1914	2223.65	1339.45
990.2812	2637.4593	2216.7	1327.85
990.4055	2638.7265	2216.3	1327.95
990.5298	2639.9931	2202.4	1313.95
990.654	2641.259	2208.55	1320.8
990.7782	2642.5242	2214.3	1327.65
990.9023	2643.7887	2203.5	1318.45
991.0264	2645.0525	2195.55	1307.15
991.1505	2646.3156	2181.65	1296.3
991.2745	2647.5781	2180.65	1295.8
991.3985	2648.8398	2171.15	1285.25
991.5225	2650.1009	2186	1290.45
991.6464	2651.3613	2166.3	1281.1
991.7703	2652.6211	2171.2	1282.85
991.8942	2653.8801	2157.6	1271.25
992.018	2655.1385	2162.65	1273.8
992.1418	2656.3961	2160.15	1274
992.2655	2657.6531	2156.25	1269.9
992.3892	2658.9094	2155.25	1269.05
992.5129	2660.1651	2151.3	1266.6
992.6366	2661.42	2145.75	1259.9
992.7602	2662.6743	2147.1	1260.65
992.8837	2663.9279	2149	1261.4
993.0073	2665.1808	2150.95	1263.2
993.1307	2666.433	2148.65	1261
993.2542	2667.6846	2140.15	1255.75
993.3776	2668.9354	2144.7	1256.5
993.501	2670.1856	2141.5	1252.4
993.6244	2671.4351	2142.7	1256.35
993.7477	2672.6839	2144	1257.15
993.8709	2673.9321	2129.45	1243.8
993.9942	2675.1795	2132.25	1244.1
994.1174	2676.4263	2135.15	1248.2
994.2405	2677.6724	2133.65	1249.4
994.3637	2678.9179	2136.65	1249.85
994.4868	2680.1626	2128.8	1241.25
994.6098	2681.4067	2136.05	1249.35
994.7328	2682.6501	2127.7	1241.9
994.8558	2683.8928	2125.85	1239.35
994.9788	2685.1348	2108.05	1222.85
995.1017	2686.3761	2105.3	1220.7
995.2245	2687.6168	2099.05	1212.75
995.3474	2688.8568	2096.2	1209.45
995.4702	2690.0961	2091.1	1205.05
995.5929	2691.3348	2081.9	1196.2
995.7156	2692.5727	2083.4	1198.55
995.8383	2693.81	2074.5	1189.15
995.961	2695.0466	2066.25	1183.25
996.0836	2696.2826	2073.8	1185.2
996.2062	2697.5178	2091.45	1186.25
996.3287	2698.7524	2062.35	1176.65
996.4512	2699.9863	2061.2	1173.35
996.5737	2701.2195	2055.1	1172.3
996.6961	2702.452	2061.5	1175.8
996.8185	2703.6839	2067.05	1179.75
996.9408	2704.9151	2056.65	1171.8
997.0631	2706.1456	2070.6	1185.2
997.1854	2707.3755	2071.45	1186.05
997.3077	2708.6046	2080.5	1191.6
997.4299	2709.8331	2084.1	1198.55
997.552	2711.0609	2081.25	1196.1
997.6742	2712.2881	2091.25	1205.1
997.7963	2713.5145	2091.7	1205.75
997.9183	2714.7403	2097.9	1213.65
998.0403	2715.9654	2104.7	1219.55
998.1623	2717.1899	2128.4	1229.4
998.2842	2718.4136	2124.95	1240.75
998.4062	2719.6367	2126.3	1241.1
998.528	2720.8591	2145.1	1252.1
998.6498	2722.0809	2148.8	1262.55
998.7716	2723.3019	2149.5	1258.75
998.8934	2724.5223	2155.45	1267.25
999.0151	2725.7421	2169.25	1284.65
999.1368	2726.9611	2161.5	1273.45
999.2584	2728.1795	2166.85	1274.3
999.38	2729.3972	2138.45	1254.3
999.5016	2730.6142	2140.95	1242
999.6231	2731.8306	2114.85	1226.95
999.7446	2733.0462	2103.75	1216.25
999.8661	2734.2612	2088.5	1198.7
999.9875	2735.4756	2065.55	1178.15
1000.1089	2736.6892	2048.65	1162.85
1000.2302	2737.9022	2020.35	1135.8
1000.3515	2739.1145	2009.9	1124.4
1000.4728	2740.3262	2004.15	1112.15
1000.594	2741.5372	1995.8	1110.45
1000.7152	2742.7475	1958.05	1073.65
1000.8363	2743.9571	1954.25	1067.85
1000.9575	2745.1661	1958.25	1070.6
1001.0785	2746.3744	1940.7	1055.55
1001.1996	2747.582	1921.3	1037.35
1001.3206	2748.7889	1920.5	1032.1
1001.4415	2749.9952	1914	1028.8
1001.5625	2751.2008	1909.25	1022.45
1001.6833	2752.4057	1891	1004.25
1001.8042	2753.61	1885.6	999.25
1001.925	2754.8136	1883.9	997.15
1002.0458	2756.0165	1875.35	989.2
1002.1665	2757.2188	1880.15	997.35
1002.2872	2758.4204	1875.8	993.05
1002.4078	2759.6213	1874.55	987.6
1002.5285	2760.8215	1873.95	984.7
1002.649	2762.0211	1874.75	987.45
1002.7696	2763.22	1862.9	974
1002.8901	2764.4182	1862.75	974.9
1003.0106	2765.6158	1853.45	967.25
1003.131	2766.8127	1843.6	960.3
1003.2514	2768.009	1851.15	966.9
1003.3717	2769.2045	1848.7	963.55
1003.492	2770.3994	1844.9	959
1003.6123	2771.5936	1842	955.8
1003.7325	2772.7872	1827.45	943.55
1003.8527	2773.9801	1823.55	936.7
1003.9729	2775.1723	1840.4	939.1
1004.093	2776.3639	1820.3	936.2
1004.2131	2777.5548	1824.4	939.05
1004.3331	2778.745	1825.25	936.9
1004.4531	2779.9346	1813.35	930.75
1004.5731	2781.1235	1825.6	940.9
1004.693	2782.3117	1818.5	933.5
1004.8129	2783.4992	1806.8	924.95
1004.9328	2784.6861	1814.55	929.65
1005.0526	2785.8723	1821.3	936.3
1005.1723	2787.0579	1832.2	947.45
1005.2921	2788.2428	1832.4	947.7
1005.4118	2789.427	1835.95	953.35
1005.5314	2790.6106	1840.7	955.55
1005.651	2791.7935	1854.65	968.35
1005.7706	2792.9757	1852.7	970
1005.8902	2794.1573	1876	989.25
1006.0097	2795.3382	1874.5	989.15
1006.1291	2796.5184	1885.15	1001.3
1006.2485	2797.698	1906.1	1021.8
1006.3679	2798.8769	1913.8	1031.15
1006.4873	2800.0551	1934.35	1051.3
1006.6066	2801.2327	1937.7	1052.55
1006.7258	2802.4096	1954.75	1070.15
1006.8451	2803.5859	1973.2	1090.75
1006.9642	2804.7615	1994.25	1109.1
1007.0834	2805.9364	2018.7	1136.75
1007.2025	2807.1106	2038.8	1155.2
1007.3216	2808.2842	2059.4	1175.5
1007.4406	2809.4572	2094.45	1211.7
1007.5596	2810.6294	2121.6	1238.75
1007.6785	2811.801	2163.2	1281.2
1007.7975	2812.972	2198	1313.2
1007.9163	2814.1423	2229.25	1348
1008.0352	2815.3119	2277.9	1393.35
1008.154	2816.4808	2331.75	1450.2
1008.2727	2817.6491	2377.55	1491.45
1008.3914	2818.8167	2413.55	1527.95
1008.5101	2819.9837	2472.4	1584.9
1008.6288	2821.15	2518.95	1635.65
1008.7474	2822.3157	2561.8	1678.8
1008.8659	2823.4807	2607.45	1723.8
1008.9844	2824.645	2650.6	1766
1009.1029	2825.8086	2712	1826.3
1009.2214	2826.9716	2743.1	1859
1009.3398	2828.134	2794.9	1912.55
1009.4581	2829.2957	2823.85	1942.95
1009.5764	2830.4567	2853.55	1972
1009.6947	2831.617	2873.65	1990.1
1009.813	2832.7767	2890.1	2008.1
1009.9312	2833.9358	2880	1996.8
1010.0493	2835.0941	2885.2	2001.6
1010.1675	2836.2519	2869.55	1985.1
1010.2855	2837.4089	2846.4	1962.8
1010.4036	2838.5653	2845.75	1962.15
1010.5216	2839.7211	2853.05	1973.55
1010.6396	2840.8761	2846.1	1960.6
1010.7575	2842.0306	2862.5	1979.8
1010.8754	2843.1843	2898.4	2015.65
1010.9932	2844.3374	2942.6	2060.15
1011.111	2845.4899	2988.65	2103.55
1011.2288	2846.6417	3060.1	2178.15
1011.3465	2847.7928	3133.2	2251.9
1011.4642	2848.9433	3214.35	2331.8
1011.5818	2850.0931	3274	2390.05
1011.6995	2851.2422	3358.6	2474.05
1011.817	2852.3907	3431.3	2543.9
1011.9345	2853.5385	3487.4	2602.85
1012.052	2854.6857	3559.3	2650.5
1012.1695	2855.8323	3557.4	2673.5
1012.2869	2856.9781	3619	2737.3
1012.4042	2858.1233	3669.75	2785.7
1012.5216	2859.2679	3716.85	2836
1012.6389	2860.4118	3776.5	2895
1012.7561	2861.555	3801	2913.65
1012.8733	2862.6976	3847.05	2963.6
1012.9905	2863.8395	3870.35	2987.15
1013.1076	2864.9808	3883.9	3001.8
1013.2247	2866.1214	3900.7	3019.75
1013.3417	2867.2614	3925.7	3042.3
1013.4587	2868.4007	3942.55	3057.8
1013.5757	2869.5393	3960.75	3075.6
1013.6926	2870.6773	3963.75	3079
1013.8095	2871.8146	3982.2	3096.95
1013.9263	2872.9513	3971.55	3086
1014.0431	2874.0874	3966.65	3084.75
1014.1599	2875.2227	3976.65	3093.85
1014.2766	2876.3574	3925.75	3045.2
1014.3933	2877.4915	3899.9	3016.85
1014.51	2878.6249	3883.8	3001
1014.6266	2879.7577	3876.55	2991.3
1014.7431	2880.8898	3826.95	2937.4
1014.8596	2882.0212	3805.35	2923.9
1014.9761	2883.152	3795.15	2913.3
1015.0925	2884.2821	3792.2	2911.3
1015.2089	2885.4116	3778.65	2897.35
1015.3253	2886.5405	3783.1	2901.1
1015.4416	2887.6686	3804.95	2921.85
1015.5579	2888.7962	3802.45	2921.35
1015.6741	2889.923	3779.45	2898
1015.7903	2891.0493	3805.25	2923.05
1015.9065	2892.1748	3820.25	2939.75
1016.0226	2893.2997	3825.05	2943.45
1016.1387	2894.424	3840.75	2958.6
1016.2547	2895.5476	3853.65	2971.75
1016.3707	2896.6706	3871.4	2990.35
1016.4866	2897.7929	3903.55	3020.5
1016.6025	2898.9145	3924.85	3044.7
1016.7184	2900.0355	3964.6	3080.2
1016.8342	2901.1559	3987.55	3104.7
1016.95	2902.2756	4019.3	3137.3
1017.0658	2903.3946	4055.5	3176.2
1017.1815	2904.513	4091.75	3206.8
1017.2971	2905.6308	4113.95	3232.45
1017.4127	2906.7479	4129.8	3248.45
1017.5283	2907.8643	4146.85	3264.3
1017.6439	2908.9801	4170.9	3290.05
1017.7594	2910.0953	4180.2	3299.2
1017.8748	2911.2098	4178.35	3292.95
1017.9902	2912.3236	4167.95	3278.9
1018.1056	2913.4368	4150.35	3265.45
1018.2209	2914.5494	4128.25	3245.7
1018.3362	2915.6613	4091.25	3205.05
1018.4515	2916.7725	4071.3	3187.65
1018.5667	2917.8831	4041.05	3158.2
1018.6819	2918.9931	4005.1	3122.55
1018.797	2920.1024	3978	3096.25
1018.9121	2921.211	3963.85	3083.85
1019.0271	2922.319	3934.45	3053.5
1019.1421	2923.4264	3917.55	3037.95
1019.2571	2924.5331	3911.65	3032.35
1019.372	2925.6391	3906.6	3025.7
1019.4869	2926.7445	3886.8	3007.25
1019.6017	2927.8493	3873.15	2990.35
1019.7165	2928.9534	3881.2	2999.55
1019.8313	2930.0569	3884.6	3000.55
1019.946	2931.1597	3862.95	2981.9
1020.0606	2932.2619	3854.75	2974.9
1020.1753	2933.3634	3842	2960.85
1020.2899	2934.4643	3837.35	2949.95
1020.4044	2935.5645	3839.3	2952.75
1020.5189	2936.6641	3781.9	2895.55
1020.6334	2937.763	3755.4	2876.55
1020.7478	2938.8613	3699.1	2816
1020.8622	2939.959	3650.5	2764.6
1020.9765	2941.056	3579.3	2700.65
1021.0908	2942.1523	3489.8	2608.3
1021.2051	2943.248	3412	2532.1
1021.3193	2944.3431	3303.3	2423.95
1021.4334	2945.4375	3207.05	2326.6
1021.5476	2946.5313	3113.5	2233.45
1021.6617	2947.6244	3010.6	2129.1
1021.7757	2948.7169	2913.15	2032.6
1021.8897	2949.8087	2812.2	1929.6
1022.0037	2950.8999	2717.6	1836.15
1022.1176	2951.9904	2637.55	1758
1022.2315	2953.0803	2568.95	1686.1
1022.3453	2954.1696	2504	1622.95
1022.4591	2955.2582	2453.3	1573.45
1022.5728	2956.3462	2392.7	1511.25
1022.6865	2957.4335	2363.75	1480.95
1022.8002	2958.5202	2337.55	1455.2
1022.9138	2959.6062	2299.45	1421.3
1023.0274	2960.6916	2274.9	1392.45
1023.141	2961.7764	2261.75	1380.5
1023.2545	2962.8605	2243.45	1361.95
1023.3679	2963.9439	2226.25	1349.45
1023.4813	2965.0267	2211.95	1330.55
1023.5947	2966.1089	2232.75	1329.45
1023.708	2967.1905	2197.6	1317.85
1023.8213	2968.2714	2192.35	1309.9
1023.9346	2969.3516	2189.7	1310.45
1024.0478	2970.4312	2205.7	1315.55
1024.1609	2971.5102	2194.95	1315.95
1024.274	2972.5885	2202.9	1320.3
1024.3871	2973.6662	2196.85	1311
1024.5002	2974.7432	2204.2	1324.7
1024.6132	2975.8196	2176.8	1296.65
1024.7261	2976.8954	2172.95	1293.85
1024.839	2977.9705	2156.85	1275.9
1024.9519	2979.045	2144.5	1266.25
1025.0647	2980.1188	2130.7	1250.95
1025.1775	2981.192	2110	1230.35
1025.2902	2982.2645	2097.55	1215.35
1025.4029	2983.3364	2056	1177.65
1025.5156	2984.4077	2032.2	1154
1025.6282	2985.4783	2012.5	1127.15
1025.7407	2986.5483	1979.05	1098.75
1025.8532	2987.6177	1946.25	1067.5
1025.9657	2988.6864	1908.2	1028.7
1026.0782	2989.7545	1869.1	988.15
1026.1906	2990.8219	1830.55	951.1
1026.3029	2991.8887	1813.45	932.45
1026.4152	2992.9548	1777.35	895.7
1026.5275	2994.0204	1747	867.5
1026.6397	2995.0852	1707.2	828.55
1026.7519	2996.1495	1683.65	802.55
1026.864	2997.2131	1656.8	776.6
1026.9761	2998.276	1642	763.2
1027.0882	2999.3383	1620.2	741.55
1027.2002	3000.4	1592.1	711.5
1027.3122	3001.4611	1573.75	693.1
1027.4241	3002.5215	1561.75	682
1027.536	3003.5812	1546.2	664.7
1027.6478	3004.6404	1541.35	662.55
1027.7596	3005.6989	1525.8	644.25
1027.8714	3006.7567	1514.5	632.75
1027.9831	3007.8139	1538.35	628.15
1028.0947	3008.8705	1501.6	621.95
1028.2064	3009.9264	1505.35	620.65
1028.3179	3010.9818	1489.55	610.15
1028.4295	3012.0364	1481.7	600.25
1028.541	3013.0905	1480.3	599.2
1028.6524	3014.1439	1472.15	593.2
1028.7638	3015.1966	1468.2	588.15
1028.8752	3016.2487	1465.5	585.95
1028.9865	3017.3002	1471.05	588.5
1029.0978	3018.3511	1467.05	587.85
1029.209	3019.4013	1468.2	589.85
1029.3202	3020.4509	1462.4	582.6
1029.4314	3021.4998	1459.6	578.2
1029.5425	3022.5481	1456.7	577.15
1029.6535	3023.5958	1456.9	579.3
1029.7645	3024.6428	1454.2	574.5
1029.8755	3025.6892	1458.35	581.5
1029.9864	3026.735	1461.8	581.35
1030.0973	3027.7802	1460.15	581.3
1030.2082	3028.8247	1458.7	576.15
1030.319	3029.8685	1462.55	584.6
1030.4297	3030.9118	1468.05	587.6
1030.5404	3031.9544	1465.3	585.95
1030.6511	3032.9963	1474.8	596.65
1030.7617	3034.0376	1471	592.3
1030.8723	3035.0783	1480.95	598.35
1030.9829	3036.1184	1475.75	593.85
1031.0934	3037.1578	1484.3	606.35
1031.2038	3038.1966	1482.95	603.7
1031.3142	3039.2348	1478.7	600.2
1031.4246	3040.2723	1489.5	602.65
1031.5349	3041.3092	1481.1	604.25
1031.6452	3042.3455	1480.9	602.25
1031.7554	3043.3811	1473.6	593.5
1031.8656	3044.4161	1470.4	590.05
1031.9758	3045.4505	1467.25	588.4
1032.0859	3046.4842	1458.1	582.3
1032.1959	3047.5173	1449.3	570.5
1032.3059	3048.5498	1449.45	569.2
1032.4159	3049.5816	1442.45	563.15
1032.5258	3050.6128	1442.2	561.95
1032.6357	3051.6434	1434.95	553.65
1032.7455	3052.6734	1429.85	549.7
1032.8553	3053.7027	1422.5	543.9
1032.9651	3054.7314	1415.7	536.9
1033.0748	3055.7594	1404.9	526.55
1033.1845	3056.7868	1406.3	526.35
1033.2941	3057.8136	1401	522.4
1033.4037	3058.8398	1390.7	512.45
1033.5132	3059.8653	1392.65	514.7
1033.6227	3060.8902	1375.85	497
1033.7321	3061.9145	1377.2	495.4
1033.8415	3062.9381	1373.85	494.15
1033.9509	3063.9612	1381.5	487
1034.0602	3064.9835	1358.5	481.55
1034.1694	3066.0053	1354.55	476.1
1034.2787	3067.0264	1347.95	468.5
1034.3878	3068.0469	1342.8	464.4
1034.497	3069.0668	1338.4	456.15
1034.6061	3070.086	1325.45	448.25
1034.7151	3071.1046	1320.3	439.1
1034.8241	3072.1226	1310.05	429
1034.9331	3073.1399	1302.3	423.15
1035.042	3074.1567	1294.95	415.95
1035.1508	3075.1727	1287	407
1035.2597	3076.1882	1275.95	397.9
1035.3684	3077.203	1265.7	386.9
1035.4772	3078.2173	1261.6	382.75
1035.5859	3079.2308	1254.35	372.9
1035.6945	3080.2438	1248.1	366.8
1035.8031	3081.2561	1243.55	364.1
1035.9117	3082.2678	1230.15	351.8
1036.0202	3083.2789	1223.5	342.95
1036.1286	3084.2893	1216.85	338.85
1036.2371	3085.2991	1215.75	337.75
1036.3454	3086.3083	1213.25	328.4
1036.4538	3087.3169	1198.45	320.2
1036.562	3088.3248	1191.85	312.45
1036.6703	3089.3321	1190.5	309.5
1036.7785	3090.3388	1191.25	312.8
1036.8866	3091.3449	1184.6	305.05
1036.9948	3092.3503	1178.8	298.85
1037.1028	3093.3551	1173.25	296.25
1037.2108	3094.3593	1170.25	293.3
1037.3188	3095.3629	1170	292.6
1037.4267	3096.3658	1161.6	281.75
1037.5346	3097.3681	1158.35	281.25
1037.6425	3098.3698	1159.05	280.15
1037.7503	3099.3708	1153.55	274.15
1037.858	3100.3713	1148.25	269.95
1037.9657	3101.3711	1145.5	267.35
1038.0734	3102.3702	1280.9	261.85
1038.181	3103.3688	1144.8	264.95
1038.2886	3104.3667	1137.8	261.75
1038.3961	3105.364	1134.45	257.65
1038.5036	3106.3607	1130.15	252.25
1038.611	3107.3568	1134.85	254.65
1038.7184	3108.3522	1126.45	250.5
1038.8257	3109.347	1128.95	249.6
1038.933	3110.3412	1126.65	244.8
1039.0403	3111.3348	1119	240.1
1039.1475	3112.3277	1117.05	237.9
1039.2547	3113.32	1120.4	242.4
1039.3618	3114.3117	1122.75	243.75
1039.4689	3115.3028	1113.05	234.45
1039.5759	3116.2932	1119.6	240.15
1039.6829	3117.2831	1113.75	229.95
1039.7898	3118.2723	1109.7	233.05
1039.8967	3119.2608	1108.7	230.45
1040.0035	3120.2488	1107.45	229.45
1040.1103	3121.2361	1098.8	219.95
1040.2171	3122.2229	1103.95	226.85
1040.3238	3123.209	1104.2	225.45
1040.4305	3124.1944	1102.25	223.35
1040.5371	3125.1793	1100.2	220.55
1040.6437	3126.1635	1092.9	216.6
1040.7502	3127.1471	1093.6	216.2
1040.8567	3128.1301	1096.1	218.45
1040.9631	3129.1125	1090.55	212.75
1041.0695	3130.0942	1086.3	208.8
1041.1759	3131.0753	1090.55	204.8
1041.2822	3132.0558	1091.8	211.65
1041.3884	3133.0357	1087.3	208.7
1041.4946	3134.015	1084.3	204.75
1041.6008	3134.9936	1086.45	204.2
1041.7069	3135.9716	1105.05	205.05
1041.813	3136.949	1077.8	199.85
1041.919	3137.9258	1093.7	199.1
1042.025	3138.902	1079.6	196.7
1042.1309	3139.8775	1075.35	197.85
1042.2368	3140.8524	1073.5	197.9
1042.3427	3141.8267	1077.65	197.3
1042.4485	3142.8004	1075.05	198.5
1042.5542	3143.7735	1078.7	194.25
1042.6599	3144.7459	1069.6	188.7
1042.7656	3145.7178	1068.05	190.45
1042.8712	3146.689	1070.55	194
1042.9768	3147.6596	1067.9	187.8
1043.0823	3148.6295	1060.55	182.65
1043.1878	3149.5989	1063.45	186.55
1043.2932	3150.5676	1058.8	181.05
1043.3986	3151.5357	1059.8	184.45
1043.5039	3152.5032	1057.1	179.95
1043.6092	3153.4701	1054.6	176.4
1043.7145	3154.4364	1059.4	178.05
1043.8197	3155.402	1053.05	176.5
1043.9248	3156.367	1053.95	174.6
1044.03	3157.3315	1080.7	176.95
1044.135	3158.2952	1047.75	170.45
1044.24	3159.2584	1048.4	173.35
1044.345	3160.221	1049.4	170.3
1044.4499	3161.1829	1043.5	166.55
1044.5548	3162.1442	1044.1	165.8
1044.6596	3163.105	1043.1	166.5
1044.7644	3164.065	1041.1	161.15
1044.8692	3165.0245	1044.6	165.35
1044.9739	3165.9834	1040.75	164.7
1045.0785	3166.9416	1042.35	164.5
1045.1831	3167.8993	1034.1	156.1
1045.2877	3168.8563	1034.35	158.4
1045.3922	3169.8127	1035.65	159.5
1045.4966	3170.7684	1037.25	159.65
1045.6011	3171.7236	1038.15	159.2
1045.7054	3172.6782	1035	155.1
1045.8098	3173.6321	1033.2	155.25
1045.914	3174.5854	1036.05	155
1046.0183	3175.5381	1029.2	151.15
1046.1224	3176.4902	1026.7	149.5
1046.2266	3177.4417	1026.6	151.3
1046.3307	3178.3926	1024.15	146.65
1046.4347	3179.3428	1023.85	147.45
1046.5387	3180.2924	1025.7	148.45
1046.6427	3181.2415	1022.7	146.25
1046.7466	3182.1899	1024.55	145.3
1046.8504	3183.1377	1021.7	145.2
1046.9542	3184.0848	1030.05	147.25
1047.058	3185.0314	1024.25	145.55
1047.1617	3185.9773	1020.05	143.75
1047.2654	3186.9227	1017.7	139.2
1047.369	3187.8674	1017.9	139.35
1047.4726	3188.8115	1019.25	137.2
1047.5761	3189.755	1014.3	138.25
1047.6796	3190.6979	1018.3	142.1
1047.783	3191.6402	1012.95	138.25
1047.8864	3192.5818	1016.05	138.7
1047.9898	3193.5229	1017.25	134.95
1048.0931	3194.4633	1011.15	135.2
1048.1963	3195.4031	1010.7	131.45
1048.2995	3196.3423	1011.3	134.05
1048.4027	3197.2809	1012.65	134.1
1048.5058	3198.2189	1011.45	134.2
1048.6089	3199.1563	1015.55	135.55
1048.7119	3200.0931	1007.8	134.1
1048.8148	3201.0292	1007.6	131.35
1048.9178	3201.9648	1008.5	131.8
1049.0206	3202.8997	1009.15	129.8
1049.1235	3203.834	1003.7	127.75
1049.2262	3204.7677	1000.6	125.4
1049.329	3205.7008	1004.6	125.95
1049.4317	3206.6333	1001	126.8
1049.5343	3207.5652	1004.95	124.85
1049.6369	3208.4964	999.85	121.9
1049.7394	3209.4271	1003.9	129.4
1049.8419	3210.3571	998.45	123.8
1049.9444	3211.2865	1001.05	121.25
1050.0468	3212.2154	997.4	117.45
1050.1491	3213.1436	1000.55	121.85
1050.2514	3214.0712	1008.15	124.05
1050.3537	3214.9982	999.9	123.35
1050.4559	3215.9246	995.8	117.9
1050.5581	3216.8503	997.05	122.15
1050.6602	3217.7755	999.9	122.3
1050.7623	3218.7001	993.5	118
1050.8643	3219.624	994.85	119.5
1050.9663	3220.5473	989	112.65
1051.0682	3221.4701	993.15	115.75
1051.1701	3222.3922	994.2	115.05
1051.2719	3223.3137	991.6	114.4
1051.3737	3224.2346	990.15	114.25
1051.4754	3225.1549	990.25	115.05
1051.5771	3226.0746	992.2	116.2
1051.6788	3226.9937	987.8	111.45
1051.7804	3227.9121	991.8	115.4
1051.8819	3228.83	985.7	110.45
1051.9834	3229.7473	985.1	106.55
1052.0849	3230.6639	985.2	109.55
1052.1863	3231.5799	985.75	111.75
1052.2876	3232.4954	985	108.6
1052.3889	3233.4102	982.6	106
1052.4902	3234.3244	982.3	104.4
1052.5914	3235.238	983.55	107.55
1052.6926	3236.151	1007.75	106.45
1052.7937	3237.0634	975.7	101.05
1052.8948	3237.9752	978.55	103
1052.9958	3238.8864	978.85	101.6
1053.0968	3239.797	977.35	101.8
1053.1977	3240.7069	979.6	101.75
1053.2986	3241.6163	982.55	106.75
1053.3994	3242.5251	976.1	102.1
1053.5002	3243.4332	978.7	102.2
1053.6009	3244.3408	977.15	99.75
1053.7016	3245.2477	975.2	100.2
1053.8022	3246.154	975.95	99.75
1053.9028	3247.0598	973.15	94.55
1054.0034	3247.9649	972.25	96.6
1054.1039	3248.8694	972.25	96.15
1054.2043	3249.7733	969.95	93.55
1054.3047	3250.6766	969.75	92.15
1054.4051	3251.5793	968.2	90.3
1054.5054	3252.4814	967.45	91.5
1054.6056	3253.3829	967.2	91.95
1054.7058	3254.2838	968.75	92.1
1054.806	3255.1841	968.25	92.9
1054.9061	3256.0838	965.3	90.3
1055.0061	3256.9829	967.35	91.3
1055.1062	3257.8814	969.9	91.4
1055.2061	3258.7792	962.55	86.6
1055.306	3259.6765	968.5	92.8
1055.4059	3260.5731	961.4	83.85
1055.5057	3261.4692	961.85	84.75
1055.6055	3262.3647	957.7	82.5
1055.7052	3263.2595	956.5	81.3
1055.8049	3264.1538	958.35	83
1055.9045	3265.0474	957.9	81.7
1056.0041	3265.9404	952.75	77.45
1056.1036	3266.8329	951.4	77.5
1056.2031	3267.7247	962.05	76.1
1056.3025	3268.616	944.55	67.6
1056.4019	3269.5066	948.15	71.55
1056.5013	3270.3966	948.55	71.45
1056.6005	3271.286	940.65	66.75
