Software Version:	3.9.2.0
Unit SN:	10000200
Spectrometer SN:	6960
Date:	3/8/2024 11:50:03 AM
Data Line Index:	25
Spectral Points:	2048
Integration time (ms):	125
Averages:	20
Delay (ms):	30000
Sequence Number:	1
Processing:	dark subtract
Laser Power (mW):	300
Laser Current (mA):	822
Laser Diode Temp (C):	25.1
Laser Case Temp (C):	25.4
System Temp (C):	25.4
Spectrometer Temp (C):	23.2
CCD Temp (C):	0.008
Secondary Temp (C):	20.01
Heatsink Temp (C):	19.947
CCDPCB Temp (C):	35.262
SecondaryPCB Temp (C):	27.559

Wavelength	RamanShift	Raw Counts	Dark Subtracted
787.061	30.1047	413.5	3.9
787.2016	32.3739	413.6	7.6
787.3422	34.6426	413.35	5.3
787.4828	36.9109	415.2	5.75
787.6235	39.1787	418.55	3.85
787.7642	41.4461	426.35	6.45
787.9049	43.7131	430.65	8.7
788.0456	45.9796	433	8
788.1863	48.2456	440.4	12.7
788.3271	50.5112	440.55	8.3
788.4679	52.7764	445.4	10.55
788.6087	55.0411	450.2	8.8
788.7496	57.3054	455.5	9.05
788.8904	59.5692	458.4	11.1
789.0313	61.8326	462.8	13.4
789.1722	64.0955	467.9	15.2
789.3132	66.3579	474.3	17.5
789.4541	68.6199	482.55	20.9
789.5951	70.8815	491.7	24.5
789.7361	73.1426	508.75	39.95
789.8771	75.4032	541.3	67.7
790.0181	77.6634	612.4	136.7
790.1592	79.9231	775.85	295.05
790.3003	82.1824	1123.8	632.95
790.4414	84.4412	1691.6	1186.65
790.5825	86.6995	2400.7	1874.75
790.7237	88.9574	3072.4	2530.6
790.8648	91.2148	3525.8	2970.05
791.006	93.4717	3715.55	3153.6
791.1472	95.7282	3747.1	3181.15
791.2885	97.9842	3717.45	3149.8
791.4297	100.2398	3664.7	3096.05
791.571	102.4949	3607.3	3035.95
791.7123	104.7495	3571.4	2995.8
791.8536	107.0036	3513.05	2935.5
791.9949	109.2573	3434.85	2859.55
792.1363	111.5105	3352.5	2775.55
792.2777	113.7632	3243.75	2663.75
792.4191	116.0154	3151.1	2558.9
792.5605	118.2672	3032.85	2447.35
792.7019	120.5185	2926.3	2340.45
792.8434	122.7693	2843.6	2251.1
792.9849	125.0197	2760.85	2163.8
793.1264	127.2696	2676.85	2077.45
793.2679	129.519	2645.5	2042.2
793.4094	131.7679	2621.35	2020.65
793.551	134.0163	2595.55	1991.15
793.6926	136.2642	2588.65	1981
793.8342	138.5117	2576.9	1958.05
793.9758	140.7587	2540.45	1924.25
794.1175	143.0052	2490	1872.15
794.2591	145.2512	2454.45	1833.35
794.4008	147.4967	2391.1	1772.55
794.5425	149.7417	2357.9	1735.55
794.6842	151.9863	2331.95	1707.15
794.826	154.2304	2326.4	1696.4
794.9677	156.4739	2327.85	1692
795.1095	158.717	2335.4	1699.65
795.2513	160.9596	2358.55	1715.65
795.3931	163.2017	2375.3	1736.7
795.535	165.4433	2384.7	1741
795.6768	167.6844	2373.5	1726.35
795.8187	169.925	2347.7	1698.75
795.9606	172.1651	2292.5	1636.5
796.1025	174.4047	2240.3	1583.05
796.2445	176.6439	2194.8	1537.2
796.3864	178.8825	2170.6	1510.7
796.5284	181.1206	2160.2	1499
796.6704	183.3582	2153.25	1484.4
796.8124	185.5954	2152.45	1483.45
796.9544	187.832	2149.95	1473.5
797.0965	190.0681	2157.2	1480.05
797.2386	192.3037	2152.05	1470.1
797.3806	194.5388	2166.9	1482.9
797.5228	196.7734	2169.5	1483
797.6649	199.0075	2186.45	1500.65
797.807	201.2411	2204.2	1516.4
797.9492	203.4742	2231.65	1543.75
798.0914	205.7068	2265.25	1570.85
798.2336	207.9389	2284.9	1588.5
798.3758	210.1704	2289.25	1604.7
798.518	212.4015	2290.9	1615.4
798.6603	214.632	2273.05	1600.9
798.8025	216.862	2287.05	1617.4
798.9448	219.0915	2288.4	1614.95
799.0871	221.3205	2313.1	1635.55
799.2294	223.549	2310.5	1639.85
799.3718	225.777	2310.95	1641.75
799.5141	228.0044	2311.75	1631.45
799.6565	230.2314	2301.1	1617.8
799.7989	232.4578	2287.95	1603.15
799.9413	234.6837	2274.25	1580.75
800.0837	236.909	2261.5	1567.7
800.2262	239.1339	2271.6	1550.45
800.3687	241.3582	2252.9	1549.35
800.5111	243.582	2282.3	1547.35
800.6536	245.8053	2283.9	1558.55
800.7961	248.0281	2272.25	1554.4
800.9387	250.2503	2279.15	1558.4
801.0812	252.472	2295.3	1573.7
801.2238	254.6932	2312.45	1590.9
801.3664	256.9139	2319.55	1595.25
801.509	259.134	2334.85	1606.65
801.6516	261.3536	2347.25	1623.65
801.7942	263.5727	2392.7	1665.65
801.9369	265.7912	2452.1	1727.95
802.0795	268.0092	2504.65	1782.45
802.2222	270.2267	2561.35	1837.8
802.3649	272.4436	2606.35	1875.7
802.5076	274.6601	2643.1	1900.5
802.6504	276.8759	2659.05	1925
802.7931	279.0913	2677.3	1939.65
802.9359	281.3061	2695.4	1959.2
803.0787	283.5204	2725.6	1983.05
803.2215	285.7341	2733.05	1987.5
803.3643	287.9473	2758.8	2014.1
803.5071	290.16	2750.35	2002.8
803.6499	292.3721	2723.85	1981.7
803.7928	294.5837	2686.3	1941.55
803.9357	296.7947	2667.8	1925.9
804.0786	299.0052	2653.8	1909.5
804.2215	301.2152	2635.4	1886.8
804.3644	303.4246	2630.85	1888.85
804.5074	305.6334	2603.2	1862.35
804.6503	307.8418	2578.8	1831.05
804.7933	310.0495	2546.6	1797.8
804.9363	312.2568	2520.55	1769.5
805.0793	314.4635	2468.1	1714.55
805.2223	316.6696	2426.7	1671.4
805.3653	318.8752	2383.65	1619
805.5084	321.0802	2347.85	1592.25
805.6514	323.2847	2344.7	1587
805.7945	325.4887	2359.55	1602.6
805.9376	327.692	2381.25	1621.9
806.0807	329.8949	2420.8	1657.15
806.2238	332.0972	2451.25	1688.7
806.367	334.2989	2479.85	1713.05
806.5101	336.5001	2472.3	1705.05
806.6533	338.7007	2443.8	1677.35
806.7965	340.9008	2397.1	1628.35
806.9397	343.1003	2329.85	1560.1
807.0829	345.2992	2300.25	1530.45
807.2261	347.4976	2258.85	1484.6
807.3693	349.6955	2228.2	1451.85
807.5126	351.8927	2212.65	1435
807.6559	354.0895	2203.25	1415.05
807.7991	356.2856	2186.5	1408.4
807.9424	358.4812	2177.3	1396.5
808.0857	360.6763	2176.7	1395.35
808.2291	362.8707	2167.7	1382.35
808.3724	365.0646	2178.65	1392.2
808.5158	367.258	2195.95	1408.1
808.6591	369.4508	2204.05	1415.25
808.8025	371.643	2232.75	1442.4
808.9459	373.8346	2255.2	1463.3
809.0893	376.0257	2293.1	1499.65
809.2327	378.2162	2314.7	1519.8
809.3762	380.4062	2324.6	1527.25
809.5196	382.5956	2302.8	1508.3
809.6631	384.7844	2253.4	1466.3
809.8066	386.9726	2230.25	1442.75
809.9501	389.1603	2196.5	1415.35
810.0936	391.3474	2212.75	1397.35
810.2371	393.5339	2195.6	1409.2
810.3806	395.7199	2184.6	1397.25
810.5241	397.9052	2208.6	1424.05
810.6677	400.09	2250.4	1463.3
810.8113	402.2743	2294.6	1505.5
810.9548	404.4579	2340.35	1551.8
811.0984	406.641	2392	1599.35
811.2421	408.8235	2418.15	1624.85
811.3857	411.0054	2467	1674.75
811.5293	413.1868	2541.3	1740.25
811.673	415.3675	2590	1786.1
811.8166	417.5477	2574.8	1771
811.9603	419.7273	2532.5	1727.7
812.104	421.9064	2439.95	1626.1
812.2477	424.0848	2379	1571.3
812.3914	426.2627	2322.35	1515.95
812.5351	428.4399	2259.35	1455.95
812.6788	430.6166	2211	1402.35
812.8226	432.7928	2164.65	1352.4
812.9663	434.9683	2118.5	1307.15
813.1101	437.1432	2090.1	1275.8
813.2539	439.3176	2081.2	1275.9
813.3977	441.4914	2068.6	1258.95
813.5415	443.6645	2059.85	1251.35
813.6853	445.8371	2072.05	1260.6
813.8291	448.0091	2072.3	1260.6
813.973	450.1806	2068.1	1254.45
814.1168	452.3514	2065.05	1251.55
814.2607	454.5216	2067.95	1244.4
814.4046	456.6913	2060.8	1242.2
814.5485	458.8603	2070.05	1254.4
814.6924	461.0288	2066	1252.05
814.8363	463.1967	2066.75	1252.6
814.9802	465.3639	2057.45	1242.25
815.1241	467.5306	2063.35	1248.85
815.2681	469.6967	2048.7	1233.55
815.412	471.8622	2036.1	1218.9
815.556	474.0271	2037.75	1222.65
815.7	476.1914	2036.3	1215.3
815.844	478.3551	2036.95	1221
815.988	480.5182	2041.7	1221.4
816.132	482.6807	2033.25	1216.75
816.276	484.8426	2055.3	1241.15
816.4201	487.0039	2108.65	1292.35
816.5641	489.1647	2157	1336.55
816.7082	491.3248	2197.75	1375.7
816.8522	493.4843	2212.9	1392
816.9963	495.6432	2205.85	1383.25
817.1404	497.8015	2182	1355.8
817.2845	499.9592	2129.85	1303.05
817.4286	502.1163	2090.3	1264
817.5727	504.2728	2036.8	1211.7
817.7168	506.4287	2018.85	1196.4
817.861	508.5839	2002.4	1178.25
818.0051	510.7386	1996.25	1169.95
818.1493	512.8927	2003.6	1168.1
818.2935	515.0461	2008.55	1179.2
818.4377	517.199	2036.2	1207.9
818.5818	519.3512	2073.65	1244.85
818.726	521.5029	2135.9	1301.05
818.8703	523.6539	2199.05	1367.3
819.0145	525.8043	2198.45	1365.9
819.1587	527.9541	2148.8	1312.7
819.303	530.1033	2083.55	1249.4
819.4472	532.2519	2032.85	1198.15
819.5915	534.3999	2009	1172.65
819.7357	536.5472	2007	1169.5
819.88	538.694	2006.4	1172.45
820.0243	540.8401	2028.8	1191.5
820.1686	542.9856	2045.6	1204.85
820.3129	545.1305	2059	1219.45
820.4572	547.2748	2070.8	1232.05
820.6016	549.4185	2082.6	1239.1
820.7459	551.5615	2092.4	1251.05
820.8902	553.704	2103.95	1263.45
821.0346	555.8458	2116.5	1277.45
821.1789	557.987	2139.75	1301.95
821.3233	560.1276	2160.9	1318.15
821.4677	562.2675	2222	1380.9
821.6121	564.4069	2273.85	1434.2
821.7565	566.5456	2310.45	1473.1
821.9009	568.6837	2295.5	1456.25
822.0453	570.8212	2226.15	1388.6
822.1897	572.958	2152.45	1311.4
822.3342	575.0942	2103.2	1260.6
822.4786	577.2299	2069.35	1229.35
822.6231	579.3648	2041.05	1204.65
822.7675	581.4992	2021.5	1189.8
822.912	583.6329	2033.3	1198.55
823.0565	585.766	2059.15	1221.2
823.201	587.8985	2111.85	1276.1
823.3454	590.0304	2169	1316.3
823.4899	592.1616	2188.2	1340.55
823.6345	594.2922	2175.3	1326.2
823.779	596.4222	2134.05	1287.4
823.9235	598.5515	2082.05	1234.85
824.068	600.6802	2035.8	1188.45
824.2126	602.8083	1986.7	1136.95
824.3571	604.9358	1988.8	1141.9
824.5017	607.0626	1976.3	1127.65
824.6462	609.1888	1993.85	1142.8
824.7908	611.3144	2016.45	1163.85
824.9354	613.4393	2061.05	1212.4
825.08	615.5636	2097.55	1247.65
825.2246	617.6873	2151.3	1301.5
825.3692	619.8103	2183.65	1331.65
825.5138	621.9327	2177.6	1324.6
825.6584	624.0544	2133.15	1284.85
825.803	626.1756	2083.75	1234.2
825.9477	628.2961	2040.75	1187.4
826.0923	630.4159	2015.55	1159.5
826.237	632.5351	2011.75	1158
826.3816	634.6537	2009.8	1154.6
826.5263	636.7716	1988.85	1128.3
826.6709	638.8889	1996.85	1140.1
826.8156	641.0056	1995.7	1138.3
826.9603	643.1216	2001.15	1143
827.105	645.237	2002	1144.55
827.2497	647.3518	1976.65	1122.6
827.3944	649.4659	1964.1	1110.35
827.5391	651.5793	1946.3	1090.85
827.6838	653.6922	1923.7	1069.5
827.8285	655.8043	1916.8	1060.85
827.9733	657.9159	1910.4	1053.15
828.118	660.0268	1901.85	1043.15
828.2627	662.137	1894.95	1036
828.4075	664.2466	1904.75	1039.5
828.5522	666.3556	1899.6	1037.6
828.697	668.4639	1892	1031.3
828.8418	670.5716	1879.05	1020.85
828.9865	672.6786	1880.05	1020.1
829.1313	674.785	1877.4	1011.85
829.2761	676.8907	1868.45	1005.3
829.4209	678.9958	1872.7	1013.05
829.5657	681.1002	1873.2	1010.75
829.7105	683.204	1866.55	998.45
829.8553	685.3072	1872.8	1010.45
830.0001	687.4097	1869.45	1005.35
830.1449	689.5115	1862.2	995.3
830.2898	691.6127	1862.35	999.5
830.4346	693.7132	1862.8	999.55
830.5794	695.8131	1884.45	996.55
830.7243	697.9123	1877.4	1011.7
830.8691	700.0109	1885.9	1017.45
831.014	702.1089	1887.25	1023.55
831.1588	704.2061	1904.95	1041.25
831.3037	706.3028	1927.75	1058.6
831.4486	708.3987	1935.55	1067.9
831.5935	710.4941	1948.9	1083.25
831.7383	712.5887	1963.05	1094.5
831.8832	714.6827	1947.8	1078.7
832.0281	716.7761	1950.85	1084.3
832.173	718.8688	1951.25	1084
832.3179	720.9608	1952.8	1082.7
832.4628	723.0522	1973.55	1099.15
832.6077	725.1429	1979.8	1110.25
832.7527	727.233	2036.25	1165.45
832.8976	729.3224	2094.3	1224.1
833.0425	731.4112	2138.25	1266.55
833.1874	733.4993	2156.1	1283.3
833.3324	735.5867	2086.1	1214.3
833.4773	737.6735	2030.15	1158.45
833.6222	739.7596	1978.6	1105.15
833.7672	741.845	1941.75	1070.55
833.9122	743.9298	1934.9	1060.35
834.0571	746.014	1950.25	1079.55
834.2021	748.0974	1958.5	1082.8
834.347	750.1802	1955.9	1082.25
834.492	752.2624	1945	1071.5
834.637	754.3439	1936.1	1060
834.782	756.4247	1934.95	1051.25
834.9269	758.5048	1929.8	1055.25
835.0719	760.5843	1962.65	1085.85
835.2169	762.6631	1988.45	1113.4
835.3619	764.7413	2050	1174.2
835.5069	766.8188	2124.3	1247.05
835.6519	768.8956	2200.6	1326.15
835.7969	770.9718	2265.15	1391.6
835.9419	773.0473	2256.9	1381.2
836.0869	775.1221	2236.1	1361.6
836.232	777.1962	2214.7	1338.7
836.377	779.2697	2280.25	1402.45
836.522	781.3426	2371.1	1475.1
836.667	783.4147	2415.75	1538.5
836.8121	785.4862	2400.7	1525.4
836.9571	787.557	2308.35	1430.8
837.1021	789.6271	2194.3	1314.95
837.2472	791.6966	2062.9	1183.4
837.3922	793.7654	1979.4	1099.75
837.5373	795.8335	1930.85	1054.4
837.6823	797.901	1899.7	1021.65
837.8274	799.9678	1886.15	1005.55
837.9724	802.0339	1890	1012.1
838.1175	804.0993	1898.3	1010.95
838.2626	806.1641	1884.75	1004.75
838.4076	808.2282	1865	987.65
838.5527	810.2916	1851.75	970.15
838.6978	812.3544	1831.1	951.85
838.8428	814.4164	1824.95	948.3
838.9879	816.4778	1837	955.45
839.133	818.5385	1846.9	964.8
839.2781	820.5986	1881.5	999
839.4232	822.658	1926.4	1043.1
839.5682	824.7166	1984.1	1104.8
839.7133	826.7747	2076.25	1195.7
839.8584	828.832	2155	1275.7
840.0035	830.8886	2209.1	1327.45
840.1486	832.9446	2242.5	1358.45
840.2937	834.9999	2202.6	1323.7
840.4388	837.0545	2133.95	1246.95
840.5839	839.1085	2059.1	1175.4
840.729	841.1618	1984.25	1098.85
840.8741	843.2143	1932	1045.55
841.0192	845.2662	1891	1009.65
841.1643	847.3175	1878	994.75
841.3095	849.368	1851.05	969.05
841.4546	851.4179	1874.7	990.5
841.5997	853.467	1864.2	981.6
841.7448	855.5155	1867.3	982.2
841.8899	857.5633	1878.15	996.05
842.0351	859.6105	1852.95	971.25
842.1802	861.6569	1862.5	979.5
842.3253	863.7027	1843.8	957.25
842.4704	865.7478	1827.25	940.75
842.6156	867.7922	1822.85	938.55
842.7607	869.8359	1814.15	925.4
842.9058	871.8789	1808.45	922.15
843.0509	873.9212	1850.6	933.25
843.1961	875.9629	1820.45	932.95
843.3412	878.0039	1834.35	948.4
843.4863	880.0441	1839.9	955
843.6315	882.0837	1870.7	984.8
843.7766	884.1226	1881.3	994.65
843.9218	886.1609	1919.1	1033.65
844.0669	888.1984	1976.35	1092.75
844.212	890.2352	2008.55	1124.6
844.3572	892.2714	2019.35	1130.7
844.5023	894.3069	1998.15	1109.4
844.6475	896.3416	1952.95	1068.5
844.7926	898.3757	1892.6	1004.95
844.9377	900.4091	1884.75	995.4
845.0829	902.4418	1893.8	1000.8
845.228	904.4739	1899.9	1008.95
845.3732	906.5052	1909.6	1022
845.5183	908.5358	1904.85	1016.85
845.6635	910.5658	1885.3	994.15
845.8086	912.595	1849.5	963.25
845.9538	914.6236	1821.25	932.85
846.0989	916.6515	1795.45	904.95
846.2441	918.6786	1771.3	879.45
846.3892	920.7051	1757.8	865.9
846.5344	922.7309	1760.6	872
846.6795	924.756	1763.55	871.65
846.8246	926.7804	1769.7	877.95
846.9698	928.8041	1788.2	896
847.1149	930.8272	1799.05	909.95
847.2601	932.8495	1810.2	916.25
847.4052	934.8711	1812.2	920.05
847.5504	936.892	1827.05	937.2
847.6955	938.9123	1846.5	952.4
847.8407	940.9318	1858.8	966.2
847.9858	942.9506	1879.9	989.2
848.131	944.9688	1871.85	981.2
848.2761	946.9862	1843	952.6
848.4213	949.003	1809.45	919.05
848.5664	951.019	1788.5	894.75
848.7115	953.0344	1776.4	884.85
848.8567	955.0491	1765.75	871.95
849.0018	957.063	1758.85	868.35
849.147	959.0763	1755	864.75
849.2921	961.0888	1754.5	860.8
849.4373	963.1007	1749.7	859.6
849.5824	965.1119	1747.5	860.25
849.7275	967.1223	1731	847.85
849.8727	969.1321	1723.6	838.9
850.0178	971.1412	1729.75	837.75
850.1629	973.1495	1726.4	835.1
850.3081	975.1572	1752.75	828.1
850.4532	977.1641	1725.55	835.65
850.5983	979.1704	1726.15	834.3
850.7435	981.1759	1732.15	836.45
850.8886	983.1808	1723.9	830.25
851.0337	985.1849	1722.35	818.8
851.1788	987.1884	1707.85	812.2
851.324	989.1911	1723.4	828.2
851.4691	991.1932	1726.05	834.3
851.6142	993.1945	1721.1	829.45
851.7593	995.1951	1720.5	828.4
851.9045	997.1951	1715.85	815.7
852.0496	999.1943	1709.1	818.25
852.1947	1001.1928	1725.15	832.75
852.3398	1003.1906	1728.65	836.5
852.4849	1005.1877	1751.55	858.2
852.63	1007.1841	1774.2	881.45
852.7751	1009.1798	1793.95	903.95
852.9202	1011.1748	1772.95	879.9
853.0653	1013.1691	1760.05	867.35
853.2104	1015.1627	1726.9	834.75
853.3555	1017.1556	1696.15	802.2
853.5006	1019.1477	1677	783.5
853.6457	1021.1392	1662.5	775.75
853.7908	1023.1299	1646.05	756.15
853.9359	1025.12	1654	766.7
854.081	1027.1093	1656.95	772.5
854.2261	1029.0979	1673.6	791.15
854.3712	1031.0859	1689.9	803.25
854.5163	1033.0731	1704.05	815.05
854.6613	1035.0596	1706.8	817.55
854.8064	1037.0454	1700.3	808
854.9515	1039.0304	1689.5	797.05
855.0965	1041.0148	1674.8	780.3
855.2416	1042.9985	1647.2	751.9
855.3867	1044.9814	1643.05	752.1
855.5317	1046.9636	1643.15	745.45
855.6768	1048.9452	1657.35	765.75
855.8219	1050.926	1665.85	774.2
855.9669	1052.9061	1671.45	781.05
856.112	1054.8855	1687.2	795
856.257	1056.8642	1676.65	781.2
856.4021	1058.8421	1677.1	783.05
856.5471	1060.8194	1669.4	775.35
856.6921	1062.7959	1674.6	781.95
856.8372	1064.7717	1673.3	778.05
856.9822	1066.7469	1672.85	777.3
857.1272	1068.7213	1681.8	785.45
857.2723	1070.695	1692	800.6
857.4173	1072.6679	1712	816.7
857.5623	1074.6402	1734.15	840.15
857.7073	1076.6117	1740	839.2
857.8523	1078.5826	1708.1	810.85
857.9973	1080.5527	1678.7	782.15
858.1423	1082.5221	1656.25	762.1
858.2873	1084.4908	1635.55	742.15
858.4323	1086.4587	1615.15	720.25
858.5773	1088.426	1605.9	707.55
858.7223	1090.3925	1607.7	707.8
858.8673	1092.3584	1612.4	715.6
859.0123	1094.3235	1615.4	720.3
859.1573	1096.2879	1639.25	743.75
859.3022	1098.2515	1663.7	769.2
859.4472	1100.2145	1692.55	796.8
859.5922	1102.1767	1722.75	828.1
859.7371	1104.1382	1767.05	874.3
859.8821	1106.099	1817.3	923.9
860.027	1108.0591	1854.3	959.9
860.172	1110.0185	1901.85	1005.25
860.3169	1111.9771	1929.6	1033.85
860.4619	1113.9351	1978.85	1082.6
860.6068	1115.8923	2021.45	1127.7
860.7517	1117.8488	2050.25	1154.15
860.8967	1119.8045	1993.9	1099.5
861.0416	1121.7596	1911.2	1017.15
861.1865	1123.7139	1826.85	936.75
861.3314	1125.6675	1767.35	874.1
861.4763	1127.6204	1772.2	878.8
861.6212	1129.5726	1789.55	892.35
861.7661	1131.524	1778.85	881.95
861.911	1133.4748	1746.45	851
862.0559	1135.4248	1697.1	800.25
862.2008	1137.3741	1639.7	746.05
862.3457	1139.3226	1623.3	727.15
862.4905	1141.2705	1626.8	733
862.6354	1143.2176	1634.8	734.15
862.7803	1145.164	1650.05	753.25
862.9251	1147.1097	1633.4	737.65
863.07	1149.0546	1617.35	720.3
863.2148	1150.9989	1590.95	695.9
863.3597	1152.9424	1585.8	690.7
863.5045	1154.8852	1563.1	667.8
863.6493	1156.8272	1561.4	664.6
863.7942	1158.7686	1571.55	669.35
863.939	1160.7092	1560.7	662.4
864.0838	1162.6491	1558.4	660.35
864.2286	1164.5883	1580	683.65
864.3734	1166.5267	1590.65	692.85
864.5182	1168.4644	1611.5	715.6
864.663	1170.4014	1652.8	755.45
864.8078	1172.3377	1688.7	794
864.9526	1174.2732	1730.75	836.85
865.0974	1176.2081	1827.35	933.8
865.2421	1178.1421	1939.5	1039.7
865.3869	1180.0755	2033.4	1137.35
865.5317	1182.0082	2087.25	1193.3
865.6764	1183.9401	2061.9	1164.05
865.8212	1185.8713	1962.3	1069.7
865.9659	1187.8017	1842.5	949.45
866.1106	1189.7315	1752.7	865.45
866.2554	1191.6605	1711.9	794.5
866.4001	1193.5888	1643	753.05
866.5448	1195.5163	1618.45	725.9
866.6895	1197.4432	1599.5	705.65
866.8342	1199.3693	1587.85	690.95
866.9789	1201.2947	1582.1	683.8
867.1236	1203.2193	1561.25	664.55
867.2683	1205.1432	1559.4	664.5
867.413	1207.0664	1558.6	663.05
867.5576	1208.9889	1559.95	661.05
867.7023	1210.9106	1561.35	663.2
867.847	1212.8316	1567.65	674.05
867.9916	1214.7519	1585.65	680.8
868.1363	1216.6715	1597.6	702.65
868.2809	1218.5903	1605	708.95
868.4255	1220.5084	1619.75	724.85
868.5701	1222.4257	1631.3	736
868.7148	1224.3424	1641.85	747.6
868.8594	1226.2583	1671.65	770.5
869.004	1228.1735	1690.55	794.25
869.1486	1230.0879	1722.95	824.15
869.2932	1232.0016	1774.7	878.4
869.4377	1233.9146	1809.85	912.35
869.5823	1235.8269	1815.6	920.35
869.7269	1237.7384	1822.4	927.25
869.8715	1239.6492	1825.1	928.7
870.016	1241.5592	1845.85	948.6
870.1606	1243.4686	1898.6	1004.15
870.3051	1245.3772	1969.65	1074.95
870.4496	1247.285	2050.75	1154.5
870.5941	1249.1922	2122.2	1225.55
870.7387	1251.0986	2203.3	1306.55
870.8832	1253.0042	2253.65	1358.4
871.0277	1254.9092	2345.85	1449.25
871.1722	1256.8134	2407.2	1512.3
871.3167	1258.7169	2467.4	1570.55
871.4611	1260.6196	2483.75	1586.2
871.6056	1262.5216	2500.25	1602.95
871.7501	1264.4229	2471.4	1576.2
871.8945	1266.3234	2447.3	1552.55
872.039	1268.2232	2408.8	1511.25
872.1834	1270.1223	2346.4	1448.6
872.3278	1272.0207	2330.7	1434.8
872.4723	1273.9183	2316.6	1412.3
872.6167	1275.8151	2318.4	1421.2
872.7611	1277.7113	2362.15	1466.1
872.9055	1279.6067	2450.4	1553.55
873.0499	1281.5014	2591.25	1694.05
873.1943	1283.3953	2742.55	1843.6
873.3386	1285.2885	2885.05	1989.95
873.483	1287.181	3001.05	2103.05
873.6274	1289.0727	3050.55	2155.85
873.7717	1290.9637	3003.4	2106.25
873.9161	1292.854	2923.6	2025.1
874.0604	1294.7435	2832.55	1932.7
874.2047	1296.6323	2741.1	1844.3
874.349	1298.5204	2657.55	1758.35
874.4933	1300.4077	2596.1	1699.3
874.6376	1302.2943	2554.95	1658.9
874.7819	1304.1802	2519.05	1622.1
874.9262	1306.0653	2481.5	1582.1
875.0705	1307.9497	2443.1	1545.95
875.2147	1309.8333	2411.7	1513.6
875.359	1311.7162	2362.45	1464.7
875.5032	1313.5984	2352.1	1450
875.6475	1315.4798	2322.85	1415
875.7917	1317.3605	2309.55	1407.7
875.9359	1319.2405	2300.95	1402.05
876.0801	1321.1197	2273.85	1374.8
876.2243	1322.9982	2211	1308.85
876.3685	1324.876	2135.95	1238.8
876.5127	1326.753	2062.45	1165.95
876.6569	1328.6293	1978.25	1077.95
876.801	1330.5048	1908.8	1009.75
876.9452	1332.3796	1836.3	939.05
877.0893	1334.2537	1816.6	893.5
877.2335	1336.127	1759.8	862.35
877.3776	1337.9996	1733.8	839.1
877.5217	1339.8714	1721.5	826.8
877.6658	1341.7426	1748.15	808.2
877.8099	1343.6129	1691.7	794.5
877.954	1345.4826	1678.85	781.2
878.0981	1347.3515	1673.3	772.3
878.2422	1349.2196	1662.2	763.95
878.3862	1351.087	1638.55	741.55
878.5303	1352.9537	1647.65	749.4
878.6743	1354.8197	1654.25	757.7
878.8184	1356.6849	1655.6	754.6
878.9624	1358.5493	1671.5	772.75
879.1064	1360.4131	1701.9	808
879.2504	1362.276	1728.7	833.75
879.3944	1364.1383	1755.65	859.45
879.5384	1365.9998	1777.65	873.75
879.6823	1367.8606	1766.7	866.1
879.8263	1369.7206	1752.4	853.55
879.9702	1371.5799	1744.35	843.6
880.1142	1373.4384	1737.8	839.5
880.2581	1375.2962	1713.55	812.95
880.402	1377.1533	1659.65	765.5
880.5459	1379.0096	1610.65	714.65
880.6898	1380.8652	1592.1	698.65
880.8337	1382.7201	1559.4	662.2
880.9776	1384.5742	1533.6	637.9
881.1215	1386.4275	1529.65	629.65
881.2653	1388.2802	1496.45	598.5
881.4092	1390.132	1490.55	591.9
881.553	1391.9832	1484.45	588
881.6968	1393.8336	1472.05	575.05
881.8406	1395.6832	1476.65	577.55
881.9844	1397.5322	1474.05	577.65
882.1282	1399.3803	1455.55	554.95
882.272	1401.2278	1449.4	550.1
882.4158	1403.0745	1442.45	546.75
882.5595	1404.9204	1429.55	535.8
882.7033	1406.7656	1432.45	538.65
882.847	1408.6101	1422.5	525.6
882.9908	1410.4538	1421.5	523.3
883.1345	1412.2968	1424.35	527
883.2782	1414.139	1431	533.95
883.4219	1415.9805	1435.25	538.9
883.5656	1417.8213	1451.8	548
883.7092	1419.6613	1454.8	556.35
883.8529	1421.5006	1487.7	592.55
883.9965	1423.3391	1520.25	622.9
884.1402	1425.1769	1569.15	670.1
884.2838	1427.0139	1630.6	734.7
884.4274	1428.8502	1714.35	813.45
884.571	1430.6858	1765	867.25
884.7146	1432.5206	1792.55	894.75
884.8582	1434.3547	1798.8	900.2
885.0018	1436.188	1769.85	871.65
885.1453	1438.0206	1745.9	849.5
885.2889	1439.8524	1742.75	843.7
885.4324	1441.6835	1744.75	849.2
885.5759	1443.5139	1754.95	855
885.7194	1445.3435	1750.3	854.75
885.8629	1447.1724	1758	860.1
886.0064	1449.0005	1752.8	855.95
886.1499	1450.8279	1738.85	842.8
886.2933	1452.6545	1740.2	845.45
886.4368	1454.4804	1726.15	832.6
886.5802	1456.3056	1736.6	834.2
886.7237	1458.13	1714.55	820.8
886.8671	1459.9536	1691.5	796.55
887.0105	1461.7766	1653.25	756.6
887.1539	1463.5987	1619.4	721
887.2972	1465.4202	1582.75	683.5
887.4406	1467.2409	1554.3	657.35
887.584	1469.0608	1520.9	622.9
887.7273	1470.88	1492.9	597.05
887.8706	1472.6984	1464.1	566.25
888.0139	1474.5161	1457.9	559.65
888.1572	1476.3331	1435.2	539.25
888.3005	1478.1493	1427.45	526.95
888.4438	1479.9648	1426.55	530.2
888.5871	1481.7795	1428.95	532.25
888.7303	1483.5935	1419.3	523.25
888.8736	1485.4067	1427.65	530.9
889.0168	1487.2192	1425.05	530.05
889.16	1489.031	1421.85	522.85
889.3032	1490.842	1419.7	522.4
889.4464	1492.6522	1415.4	519.1
889.5896	1494.4618	1413.1	515.45
889.7327	1496.2705	1411.8	516
889.8759	1498.0785	1405.2	507.6
890.019	1499.8858	1399.2	503.4
890.1622	1501.6924	1389.35	493.15
890.3053	1503.4981	1384.75	488.85
890.4484	1505.3032	1381.1	483.8
890.5914	1507.1075	1375.2	477.7
890.7345	1508.911	1362.95	467
890.8776	1510.7138	1369.4	473.5
891.0206	1512.5159	1358.35	463.45
891.1637	1514.3172	1346.35	452.4
891.3067	1516.1178	1336.85	442.35
891.4497	1517.9176	1345.3	446.6
891.5927	1519.7166	1330.95	436.2
891.7357	1521.515	1335.8	436.6
891.8786	1523.3126	1327.5	429.25
892.0216	1525.1094	1321.95	424.8
892.1645	1526.9055	1320.65	425.2
892.3074	1528.7008	1320.75	424.3
892.4503	1530.4954	1315.55	415.7
892.5932	1532.2893	1308.45	416.25
892.7361	1534.0824	1307.15	409.65
892.879	1535.8747	1304.45	410.6
893.0218	1537.6663	1304.45	409.4
893.1647	1539.4572	1307.05	410.2
893.3075	1541.2473	1306.8	411.85
893.4503	1543.0367	1304.65	409.45
893.5931	1544.8253	1308.35	410.35
893.7359	1546.6132	1317.6	421.5
893.8787	1548.4003	1323	417.95
894.0214	1550.1867	1329.75	426.65
894.1642	1551.9723	1342.65	445.35
894.3069	1553.7572	1345.7	451.15
894.4496	1555.5414	1366.25	473
894.5923	1557.3247	1380.5	485.55
894.735	1559.1074	1422.95	530.65
894.8777	1560.8893	1457.5	564.55
895.0204	1562.6705	1490.8	596.95
895.163	1564.4509	1508.4	617.8
895.3056	1566.2305	1513.95	623.15
895.4482	1568.0094	1514.15	620.25
895.5908	1569.7876	1510.35	619.35
895.7334	1571.565	1518.35	624.9
895.876	1573.3417	1514.7	621.5
896.0186	1575.1176	1518.7	627.2
896.1611	1576.8928	1524.9	633.25
896.3036	1578.6672	1534.15	645.4
896.4461	1580.4409	1565.95	676.85
896.5886	1582.2138	1591.2	699.4
896.7311	1583.986	1629.6	739.75
896.8736	1585.7575	1658.7	768.45
897.0161	1587.5282	1681.75	792.85
897.1585	1589.2981	1708.25	819.35
897.3009	1591.0673	1719.85	830.45
897.4433	1592.8358	1732.3	842.35
897.5857	1594.6035	1735.4	841.7
897.7281	1596.3704	1724.65	832.85
897.8705	1598.1366	1710.2	819.05
898.0128	1599.9021	1690.05	800
898.1551	1601.6668	1670.35	779.3
898.2975	1603.4308	1663.6	774.2
898.4398	1605.194	1673.55	778.45
898.5821	1606.9564	1692.55	801.25
898.7243	1608.7182	1745.25	854.35
898.8666	1610.4791	1819.1	935.2
899.0088	1612.2394	1902.8	1017.4
899.1511	1613.9988	1987.55	1101.3
899.2933	1615.7576	2036.55	1148.2
899.4355	1617.5156	2064.55	1169.7
899.5776	1619.2728	2017.55	1125.75
899.7198	1621.0293	1943	1052.3
899.862	1622.785	1848.7	955.85
900.0041	1624.54	1735.65	844.9
900.1462	1626.2942	1641.1	752.8
900.2883	1628.0477	1557.65	666.2
900.4304	1629.8005	1494.6	603.4
900.5725	1631.5525	1428.85	541.2
900.7145	1633.3037	1387.15	499.35
900.8566	1635.0542	1356.1	467.15
900.9986	1636.804	1331.4	442.6
901.1406	1638.553	1412.6	416.05
901.2826	1640.3013	1293.55	405.35
901.4245	1642.0488	1270.4	380.1
901.5665	1643.7955	1257.95	372.9
901.7085	1645.5416	1248.55	362.1
901.8504	1647.2868	1240.3	351.65
901.9923	1649.0313	1236.45	348.85
902.1342	1650.7751	1240	347.55
902.2761	1652.5181	1233.15	345.7
902.4179	1654.2604	1230.5	342.85
902.5598	1656.0019	1233.95	348.1
902.7016	1657.7427	1249.85	361.75
902.8434	1659.4828	1268.7	381.35
902.9852	1661.222	1294.4	402.95
903.127	1662.9606	1321.2	432.5
903.2687	1664.6984	1340.85	450.45
903.4105	1666.4354	1345.35	452.45
903.5522	1668.1717	1317.7	425.9
903.6939	1669.9072	1277.8	389
903.8356	1671.642	1250.4	358.5
903.9773	1673.3761	1217.65	329.55
904.119	1675.1094	1193.75	304.1
904.2606	1676.8419	1171.55	282.55
904.4022	1678.5737	1162.45	271.7
904.5439	1680.3048	1162.4	271.85
904.6855	1682.0351	1150.75	260.6
904.827	1683.7646	1141.6	248.55
904.9686	1685.4934	1141.5	251.6
905.1101	1687.2215	1140.4	249.2
905.2517	1688.9488	1129.25	242.05
905.3932	1690.6754	1129.75	240.35
905.5347	1692.4012	1128.65	237.45
905.6761	1694.1263	1120.7	230.25
905.8176	1695.8506	1123.4	233.05
905.9591	1697.5742	1115.05	227.4
906.1005	1699.297	1115.75	229.35
906.2419	1701.0191	1114.3	226.7
906.3833	1702.7404	1113	225.45
906.5246	1704.461	1110.4	222.7
906.666	1706.1808	1110.55	221.2
906.8073	1707.8999	1106.7	218.75
906.9487	1709.6182	1101.6	214.6
907.09	1711.3358	1097.35	211.8
907.2313	1713.0527	1095.9	210.15
907.3725	1714.7688	1107.15	215.75
907.5138	1716.4841	1099.35	208.1
907.655	1718.1987	1105.35	214.05
907.7962	1719.9126	1095.95	210.55
907.9374	1721.6257	1094	207.35
908.0786	1723.338	1096.25	210.1
908.2198	1725.0496	1089.35	199.9
908.3609	1726.7605	1095.6	205
908.502	1728.4706	1093.05	206.1
908.6431	1730.18	1094.7	206.3
908.7842	1731.8886	1089.75	204.65
908.9253	1733.5964	1108.65	199.3
909.0664	1735.3036	1094.7	202.5
909.2074	1737.0099	1089	199.95
909.3484	1738.7156	1086.8	201.05
909.4894	1740.4204	1083.3	194
909.6304	1742.1246	1088.8	203.15
909.7714	1743.8279	1086.25	199.1
909.9123	1745.5306	1082.5	196.2
910.0532	1747.2325	1084.4	200.1
910.1941	1748.9336	1083.15	196.5
910.335	1750.634	1088.05	196.8
910.4759	1752.3336	1082.35	195.8
910.6168	1754.0325	1077.95	193.6
910.7576	1755.7307	1081.5	195.6
910.8984	1757.4281	1082.75	196
911.0392	1759.1247	1091.5	194.05
911.18	1760.8206	1086.95	195.1
911.3208	1762.5158	1089.3	197.55
911.4615	1764.2102	1082.05	193.5
911.6022	1765.9039	1079.6	191.7
911.7429	1767.5968	1077.1	191.2
911.8836	1769.289	1076.2	189.85
912.0243	1770.9804	1077.15	189.75
912.1649	1772.6711	1076.65	187.5
912.3056	1774.361	1079.9	189.15
912.4462	1776.0502	1075.3	186.6
912.5868	1777.7386	1077.1	185.8
912.7274	1779.4263	1077.15	188.75
912.8679	1781.1132	1078	189.95
913.0084	1782.7994	1073.55	186.2
913.149	1784.4849	1072.25	187.2
913.2895	1786.1696	1088	181.9
913.4299	1787.8535	1069.1	185.1
913.5704	1789.5367	1075.3	190.9
913.7108	1791.2192	1063.25	177.8
913.8513	1792.9009	1093.85	181.45
913.9917	1794.5818	1069.45	180.6
914.132	1796.2621	1070.15	183.15
914.2724	1797.9415	1064.35	175.3
914.4128	1799.6202	1066.75	178.85
914.5531	1801.2982	1061.75	174.8
914.6934	1802.9755	1069.8	181.15
914.8337	1804.6519	1065.5	178.55
914.9739	1806.3277	1067.45	181.05
915.1142	1808.0027	1061.15	176.75
915.2544	1809.6769	1058.65	174.25
915.3946	1811.3504	1062.95	178.5
915.5348	1813.0231	1059.15	174.6
915.675	1814.6951	1055.8	171.1
915.8151	1816.3664	1063.55	176.25
915.9553	1818.0369	1058.5	170.85
916.0954	1819.7067	1063.65	176.9
916.2355	1821.3757	1060.2	170
916.3755	1823.044	1060.95	173.5
916.5156	1824.7115	1057.8	170.8
916.6556	1826.3783	1057	172
916.7956	1828.0443	1056.8	170.95
916.9356	1829.7096	1058.95	171.15
917.0756	1831.3741	1061.75	170.15
917.2155	1833.0379	1056.5	169.7
917.3555	1834.701	1054.15	167.4
917.4954	1836.3633	1057.15	170.95
917.6353	1838.0248	1057.15	170.25
917.7751	1839.6856	1054.15	166.65
917.915	1841.3457	1053.9	166.2
918.0548	1843.005	1055.55	169.4
918.1946	1844.6636	1051.7	162.05
918.3344	1846.3214	1054.75	166.7
918.4742	1847.9785	1053.25	166
918.6139	1849.6349	1054.9	166.05
918.7537	1851.2904	1060.3	163.8
918.8934	1852.9453	1055.1	167.05
919.0331	1854.5994	1056.55	167.6
919.1727	1856.2528	1054.75	163.7
919.3124	1857.9054	1048.3	161.45
919.452	1859.5572	1052.35	166.9
919.5916	1861.2083	1054.4	165.4
919.7312	1862.8587	1044.2	157.9
919.8708	1864.5084	1047.8	159.6
920.0103	1866.1572	1050.85	163
920.1498	1867.8054	1047.45	160.3
920.2893	1869.4528	1047.65	159.25
920.4288	1871.0994	1047.7	159.6
920.5683	1872.7453	1046.25	157.8
920.7077	1874.3905	1055.8	159.9
920.8471	1876.0349	1046.45	157.8
920.9865	1877.6786	1048.2	159.3
921.1259	1879.3215	1045.4	157.3
921.2653	1880.9637	1044.35	157.15
921.4046	1882.6051	1042.3	155.25
921.5439	1884.2458	1046.75	158.45
921.6832	1885.8858	1044.25	156.7
921.8225	1887.525	1048.45	160.85
921.9617	1889.1634	1046.8	160
922.101	1890.8011	1044.6	154.3
922.2402	1892.4381	1044.75	157.15
922.3794	1894.0743	1039.45	152.4
922.5185	1895.7098	1041.7	153.25
922.6577	1897.3446	1047.85	159.25
922.7968	1898.9786	1044.5	151.2
922.9359	1900.6118	1040.9	155.05
923.075	1902.2443	1033.8	147
923.214	1903.8761	1039.6	152.45
923.3531	1905.5071	1035.05	148.3
923.4921	1907.1374	1034.45	147.3
923.6311	1908.7669	1036	147.85
923.77	1910.3957	1032.05	144.6
923.909	1912.0237	1039.35	153.65
924.0479	1913.651	1036.2	149.8
924.1868	1915.2776	1031.85	146.5
924.3257	1916.9034	1032.85	148.25
924.4646	1918.5285	1032.3	148.35
924.6034	1920.1528	1035	148.05
924.7422	1921.7764	1029.55	145.45
924.881	1923.3992	1031.15	143.4
925.0198	1925.0213	1031.95	145.55
925.1586	1926.6427	1027.95	139.45
925.2973	1928.2633	1245.6	142.4
925.436	1929.8832	1038.4	149.25
925.5747	1931.5023	1029	140.2
925.7134	1933.1207	1030.3	144
925.852	1934.7383	1030.75	144.6
925.9906	1936.3552	1028.55	144
926.1292	1937.9714	1024.45	136.75
926.2678	1939.5868	1028.95	140.25
926.4064	1941.2015	1029.05	139.4
926.5449	1942.8154	1025.85	137.6
926.6834	1944.4286	1025.65	136.4
926.8219	1946.041	1047.15	136.5
926.9604	1947.6528	1031.7	137.25
927.0988	1949.2637	1028.25	142.3
927.2372	1950.8739	1023.65	137.65
927.3756	1952.4834	1023.45	138.75
927.514	1954.0921	1024.95	136.8
927.6523	1955.7001	1024.75	135.3
927.7907	1957.3074	1023.9	138.45
927.929	1958.9139	1022.45	139.7
928.0673	1960.5197	1024	136.75
928.2055	1962.1247	1021.35	135.8
928.3438	1963.729	1018.7	134.7
928.482	1965.3325	1020.85	131.6
928.6202	1966.9353	1018.25	134.8
928.7584	1968.5374	1021.65	135.2
928.8965	1970.1387	1017.65	132.95
929.0346	1971.7393	1016	131.6
929.1727	1973.3392	1020.35	137.4
929.3108	1974.9383	1014.35	132.05
929.4489	1976.5366	1013.65	129.75
929.5869	1978.1342	1015.5	131.25
929.7249	1979.7311	1015.1	128.2
929.8629	1981.3273	1015.85	134.25
930.0009	1982.9227	1015.8	130.85
930.1388	1984.5173	1012.5	130.9
930.2767	1986.1112	1011.7	129.9
930.4146	1987.7044	1011.05	129.2
930.5525	1989.2968	1012.5	128.7
930.6904	1990.8885	1017.5	132.5
930.8282	1992.4795	1012.65	129.7
930.966	1994.0697	1012.55	129.5
931.1038	1995.6592	1011.9	127.55
931.2415	1997.2479	1012.7	129.15
931.3793	1998.8359	1007.35	126.95
931.517	2000.4232	1009	130.45
931.6547	2002.0097	1009.1	130.3
931.7923	2003.5955	1009.2	128.85
931.93	2005.1805	1008.4	125.8
932.0676	2006.7648	1010.85	131.2
932.2052	2008.3484	1008.95	127.45
932.3427	2009.9312	1010.1	127.75
932.4803	2011.5133	1006.1	129.3
932.6178	2013.0946	1008.05	125.35
932.7553	2014.6752	1005.2	124.95
932.8928	2016.2551	1008.65	125.25
933.0302	2017.8342	1009.15	129
933.1676	2019.4126	1009.05	129.75
933.305	2020.9902	1003.25	125.25
933.4424	2022.5672	1005.65	126.05
933.5798	2024.1433	1007.25	121.1
933.7171	2025.7188	1000	122.55
933.8544	2027.2935	1005.2	125.1
933.9917	2028.8674	1004.6	125.25
934.129	2030.4406	1003.5	128.65
934.2662	2032.0131	998.8	121.55
934.4034	2033.5849	1009.4	123.5
934.5406	2035.1559	1001.35	122.2
934.6778	2036.7261	1001.75	121.2
934.8149	2038.2957	1008.1	126.05
934.952	2039.8645	1002.3	119.55
935.0891	2041.4325	1009.5	126.8
935.2262	2042.9998	1001.2	121.85
935.3632	2044.5664	1006.1	124.7
935.5002	2046.1323	1002.85	124.15
935.6372	2047.6974	1001	122.05
935.7742	2049.2617	1004	126.85
935.9111	2050.8254	1008.55	121.4
936.048	2052.3883	1004.65	124.55
936.1849	2053.9504	1006.75	124.25
936.3218	2055.5118	1004.5	122
936.4586	2057.0725	1004.15	118.55
936.5955	2058.6325	1003.7	126.45
936.7323	2060.1917	1002.25	122.7
936.869	2061.7502	1002.55	119.05
937.0058	2063.3079	999.95	122.45
937.1425	2064.8649	1003.45	120.4
937.2792	2066.4212	1000.15	122.25
937.4159	2067.9767	998.4	117.4
937.5525	2069.5315	1004.1	124.9
937.6891	2071.0856	1000.1	120.55
937.8257	2072.6389	1001.35	120.65
937.9623	2074.1915	1001.25	124.3
938.0989	2075.7433	997.05	115.4
938.2354	2077.2945	997.75	117.15
938.3719	2078.8448	999.65	120.65
938.5084	2080.3945	997.75	117.1
938.6448	2081.9434	1000.05	118.25
938.7812	2083.4916	999.6	117.65
938.9176	2085.039	1004.7	118.7
939.054	2086.5857	1005.1	120.25
939.1903	2088.1317	999.55	114.65
939.3267	2089.677	1001.85	119.1
939.463	2091.2215	1001.4	118.45
939.5992	2092.7652	1004.1	117.3
939.7355	2094.3083	1003.3	119
939.8717	2095.8506	999.25	118.4
940.0079	2097.3921	1001.5	120.8
940.1441	2098.933	998.7	116.95
940.2802	2100.4731	999.9	117.45
940.4163	2102.0124	1015.1	114.65
940.5524	2103.5511	996.35	116.65
940.6885	2105.089	1001.1	118.5
940.8245	2106.6261	1001.1	119.75
940.9606	2108.1626	1001.05	118.05
941.0965	2109.6983	1029.1	119.5
941.2325	2111.2332	1001.8	119.65
941.3684	2112.7675	1000.85	118.45
941.5044	2114.301	1000.1	116.8
941.6403	2115.8337	1002.1	121
941.7761	2117.3657	997.55	115.5
941.912	2118.897	1002	118.9
942.0478	2120.4276	1004.1	115.2
942.1835	2121.9575	1000.8	122
942.3193	2123.4866	1001.15	114.15
942.455	2125.0149	997.6	113
942.5907	2126.5426	993.8	113.3
942.7264	2128.0695	999.7	115.9
942.8621	2129.5956	993.95	117.6
942.9977	2131.1211	1000.85	116.65
943.1333	2132.6458	999.7	120.8
943.2689	2134.1698	995.2	111.8
943.4044	2135.693	999.85	112.65
943.54	2137.2155	996.9	112.7
943.6755	2138.7373	999.05	116.2
943.8109	2140.2584	992.4	115.05
943.9464	2141.7787	997.9	112.5
944.0818	2143.2983	993.4	115.3
944.2172	2144.8171	990.7	113.2
944.3526	2146.3353	998.95	117.6
944.4879	2147.8527	994.9	116.75
944.6232	2149.3693	996.1	113.5
944.7585	2150.8853	998.05	113.6
944.8938	2152.4005	996.15	113.25
945.029	2153.9149	997.85	114.9
945.1642	2155.4287	994.35	113.95
945.2994	2156.9417	996.3	111.25
945.4346	2158.454	995.55	113.05
945.5697	2159.9655	992.45	113.8
945.7048	2161.4764	993.3	112.55
945.8399	2162.9865	992.3	112.15
945.9749	2164.4958	995.2	115.45
946.1099	2166.0045	994.2	110.5
946.2449	2167.5124	991.95	112.8
946.3799	2169.0195	994.35	113.15
946.5148	2170.526	991.35	110.65
946.6498	2172.0317	995.05	111.4
946.7846	2173.5367	992.4	110.35
946.9195	2175.0409	991.1	111.55
947.0543	2176.5445	991.45	110.95
947.1891	2178.0473	994.5	111.3
947.3239	2179.5494	993.6	107.75
947.4587	2181.0507	996.4	112.9
947.5934	2182.5513	994.1	111.45
947.7281	2184.0512	991.9	110.7
947.8628	2185.5504	987.5	104.4
947.9974	2187.0488	988.1	108.15
948.132	2188.5465	985.25	104.85
948.2666	2190.0435	989.2	108.9
948.4012	2191.5397	987.2	104.35
948.5357	2193.0353	985.95	103.9
948.6702	2194.5301	992.45	107.3
948.8047	2196.0241	989.8	108.45
948.9392	2197.5175	992.3	109.55
949.0736	2199.0101	996.3	109.85
949.208	2200.502	987.2	108
949.3424	2201.9931	987.75	107.25
949.4767	2203.4835	990.55	108.75
949.611	2204.9733	1005.95	110.05
949.7453	2206.4622	987.4	107.9
949.8796	2207.9505	988.6	107.7
950.0138	2209.438	985.25	107.85
950.148	2210.9248	986.7	105.25
950.2822	2212.4109	986.5	107
950.4164	2213.8962	989.6	106.2
950.5505	2215.3809	990.05	106
950.6846	2216.8648	987.25	102.35
950.8186	2218.3479	991.9	103.75
950.9527	2219.8304	987.6	101.6
951.0867	2221.3121	989.7	104.25
951.2207	2222.7931	984.4	100.6
951.3546	2224.2733	984.4	99.6
951.4886	2225.7529	980.35	96.8
951.6225	2227.2317	984.65	102.3
951.7563	2228.7098	981.15	103.15
951.8902	2230.1872	982.95	104.25
952.024	2231.6638	983.55	104.9
952.1578	2233.1397	986	100.8
952.2916	2234.6149	983.45	105.4
952.4253	2236.0894	983.9	102.4
952.559	2237.5632	991.15	98.65
952.6927	2239.0362	984.85	104.5
952.8263	2240.5085	978.9	96.05
952.9599	2241.9801	976.35	95.85
953.0935	2243.4509	982.8	101.2
953.2271	2244.921	982.4	100.85
953.3606	2246.3904	983.45	98.4
953.4941	2247.8591	980.8	100.6
953.6276	2249.3271	979.2	96.65
953.7611	2250.7943	979.95	97.95
953.8945	2252.2608	980	97.45
954.0279	2253.7266	981.15	101.85
954.1612	2255.1917	977	96.15
954.2946	2256.656	980.45	98.3
954.4279	2258.1197	974.7	95.75
954.5612	2259.5826	979.9	96.1
954.6944	2261.0447	979.9	99.35
954.8276	2262.5062	977.15	94.6
954.9608	2263.9669	979.3	94.65
955.094	2265.4269	976.65	93.95
955.2271	2266.8862	976.5	95.85
955.3602	2268.3448	976.25	95
955.4933	2269.8026	974.1	93.35
955.6264	2271.2598	975.05	94.35
955.7594	2272.7162	974.9	94.85
955.8924	2274.1719	973.95	92.8
956.0253	2275.6268	977.6	95.5
956.1583	2277.0811	973.25	90.85
956.2912	2278.5346	973.25	92.6
956.4241	2279.9874	977.1	97.75
956.5569	2281.4395	971.9	91.9
956.6897	2282.8908	978.3	91.85
956.8225	2284.3414	973.2	91.45
956.9553	2285.7914	975.65	93.95
957.088	2287.2406	976.95	95.25
957.2207	2288.689	974.45	88.7
957.3534	2290.1368	977.5	92.35
957.486	2291.5838	978.05	95
957.6186	2293.0302	974.3	91
957.7512	2294.4758	975.65	93.65
957.8838	2295.9206	972.6	87.05
958.0163	2297.3648	973.75	92.75
958.1488	2298.8082	973.05	91.6
958.2813	2300.251	974.5	91.55
958.4137	2301.693	978.55	94.25
958.5461	2303.1343	978.75	96.25
958.6785	2304.5748	970.95	88.45
958.8108	2306.0147	972.95	90.4
958.9432	2307.4538	971.8	88.7
959.0754	2308.8922	968.2	89.75
959.2077	2310.3299	968.9	90.15
959.3399	2311.7669	971.8	90.8
959.4721	2313.2031	971.1	90.15
959.6043	2314.6387	972.9	92.3
959.7365	2316.0735	968.45	86.5
959.8686	2317.5076	973.2	90.7
960.0006	2318.941	972.8	88.55
960.1327	2320.3737	970.95	88.55
960.2647	2321.8056	973.25	90.55
960.3967	2323.2369	970.55	88.1
960.5287	2324.6674	974.35	88.65
960.6606	2326.0972	977.85	96.2
960.7925	2327.5263	980.05	99.55
960.9244	2328.9547	979.25	95.65
961.0562	2330.3823	981.4	101.35
961.1881	2331.8092	976.15	91.1
961.3198	2333.2355	973.75	90.85
961.4516	2334.661	969.7	87.75
961.5833	2336.0858	969.7	86.4
961.715	2337.5098	969.65	86.55
961.8467	2338.9332	967.75	85.45
961.9783	2340.3558	968.55	84
962.1099	2341.7778	967.5	86.95
962.2415	2343.199	967.5	84.05
962.373	2344.6195	965.3	83.75
962.5045	2346.0393	966.6	85.65
962.636	2347.4583	965	83.9
962.7675	2348.8767	968.15	84.65
962.8989	2350.2943	967.35	84.1
963.0303	2351.7113	971.6	86.95
963.1617	2353.1275	968.15	84.4
963.293	2354.543	990.75	82.3
963.4243	2355.9578	968.2	84.85
963.5556	2357.3718	966.25	82.8
963.6868	2358.7852	965.5	82.95
963.818	2360.1978	964.2	80.55
963.9492	2361.6098	963.35	83.45
964.0803	2363.021	969.5	83.35
964.2114	2364.4315	967.2	84.05
964.3425	2365.8413	972.1	81.95
964.4736	2367.2504	963.9	83.35
964.6046	2368.6587	965.45	83.2
964.7356	2370.0664	964.2	81.1
964.8666	2371.4733	966.55	82.35
964.9975	2372.8795	965	82.35
965.1284	2374.285	963.45	83.25
965.2593	2375.6899	963.25	81.85
965.3901	2377.0939	964.15	81.35
965.5209	2378.4973	962.9	76.05
965.6517	2379.9	961.4	76.9
965.7825	2381.3019	962.65	79.5
965.9132	2382.7032	959.6	78.4
966.0439	2384.1037	960.7	78.5
966.1745	2385.5035	960.3	78.1
966.3051	2386.9027	963.4	80.9
966.4357	2388.3011	965.1	79.8
966.5663	2389.6987	961.6	78.55
966.6968	2391.0957	959.6	76.65
966.8273	2392.492	959.8	78.3
966.9578	2393.8876	960.5	75.7
967.0882	2395.2824	959.1	75.45
967.2186	2396.6765	960.65	78.75
967.349	2398.07	965.45	80.4
967.4793	2399.4627	966.3	80.35
967.6097	2400.8547	959.3	77.15
967.7399	2402.246	964.65	73.65
967.8702	2403.6366	958.5	73.9
968.0004	2405.0265	955.65	74.15
968.1306	2406.4156	963	75.5
968.2607	2407.8041	961.5	75.7
968.3909	2409.1918	960.15	73.6
968.521	2410.5789	961.05	74.55
968.651	2411.9652	962.4	75.3
968.781	2413.3508	955.95	73.8
968.911	2414.7358	956.2	71.55
969.041	2416.12	954.6	72.3
969.1709	2417.5035	957.65	74.7
969.3008	2418.8863	960.45	75.4
969.4307	2420.2684	955.75	70.75
969.5606	2421.6497	957.1	72.15
969.6904	2423.0304	956.6	74.45
969.8201	2424.4104	958.9	73.45
969.9499	2425.7896	961.7	72.45
970.0796	2427.1682	956.25	71.85
970.2093	2428.546	955.95	70.95
970.3389	2429.9232	956.2	69.5
970.4685	2431.2996	952.1	67.8
970.5981	2432.6753	954.5	70.5
970.7277	2434.0503	957.1	72.95
970.8572	2435.4246	957.2	71.6
970.9867	2436.7982	953.95	67.5
971.1161	2438.1711	955.2	75.1
971.2456	2439.5433	956.9	70.75
971.375	2440.9148	955.2	71.75
971.5043	2442.2856	951.35	66.5
971.6336	2443.6557	955.55	69.6
971.7629	2445.025	949.4	65.45
971.8922	2446.3937	955.3	71.3
972.0214	2447.7617	955.05	71.85
972.1506	2449.1289	953.2	70.1
972.2798	2450.4955	958.15	71.9
972.4089	2451.8613	950.55	68.55
972.538	2453.2265	951.65	67.6
972.6671	2454.5909	951.4	68.75
972.7961	2455.9546	951.2	69.65
972.9251	2457.3177	949.7	65.9
973.0541	2458.68	950.5	68.85
973.1831	2460.0416	949.45	64.45
973.312	2461.4025	950.8	65
973.4408	2462.7627	962.1	66.8
973.5697	2464.1222	952.15	72.6
973.6985	2465.4811	950.05	66.9
973.8273	2466.8392	950	68.15
973.956	2468.1966	953.7	66.7
974.0847	2469.5533	952.5	68.25
974.2134	2470.9093	951	67.3
974.3421	2472.2645	954.2	68.15
974.4707	2473.6191	951.3	68.65
974.5993	2474.973	950.7	69.1
974.7278	2476.3262	951.85	66.5
974.8563	2477.6787	948.65	66.8
974.9848	2479.0305	950.35	68.2
975.1132	2480.3816	948	65.4
975.2417	2481.7319	945.7	63.05
975.37	2483.0816	948.65	63.95
975.4984	2484.4306	949	63.8
975.6267	2485.7789	947.8	65.45
975.755	2487.1264	952.5	69.2
975.8833	2488.4733	947.45	66.2
976.0115	2489.8195	954.3	64.35
976.1397	2491.165	952.35	66.55
976.2678	2492.5097	947.5	64.3
976.3959	2493.8538	944.65	61.6
976.524	2495.1972	949.45	66.1
976.6521	2496.5398	948.25	63.95
976.7801	2497.8818	948.9	63.9
976.9081	2499.2231	945.9	63.15
977.036	2500.5637	951.55	64
977.164	2501.9035	947.4	62.85
977.2918	2503.2427	950.7	64.75
977.4197	2504.5812	946.1	62.6
977.5475	2505.919	948.55	65.65
977.6753	2507.256	944.85	63.3
977.8031	2508.5924	942.8	60.5
977.9308	2509.9281	953.4	65.6
978.0585	2511.2631	943.85	60.7
978.1861	2512.5974	945.2	63.75
978.3137	2513.9309	944.8	61.5
978.4413	2515.2638	974.2	62.65
978.5689	2516.596	942.8	62.65
978.6964	2517.9275	944.8	61.45
978.8239	2519.2583	944.55	61.85
978.9513	2520.5884	945.05	60.1
979.0788	2521.9178	941	57.8
979.2062	2523.2465	940	58.55
979.3335	2524.5745	938.8	56.05
979.4608	2525.9018	947.9	65.05
979.5881	2527.2284	942.25	60.95
979.7154	2528.5543	938.15	55.5
979.8426	2529.8796	942.7	60.05
979.9698	2531.2041	942.3	59.75
980.0969	2532.5279	939	59.5
980.224	2533.851	940.85	58.3
980.3511	2535.1735	940.7	58.2
980.4781	2536.4952	939.55	57.55
980.6052	2537.8163	941.9	56.95
980.7321	2539.1366	939.3	56.9
980.8591	2540.4562	944.05	58.5
980.986	2541.7752	940.1	55.7
981.1129	2543.0935	943.6	61.9
981.2397	2544.411	944.5	60.85
981.3665	2545.7279	943.35	60.55
981.4933	2547.0441	940.15	55.6
981.62	2548.3596	944.5	60.05
981.7467	2549.6744	939.2	58
981.8734	2550.9885	948.15	55.75
982.0001	2552.3019	943.3	63.25
982.1267	2553.6146	938.9	56.45
982.2532	2554.9266	938.2	54.55
982.3798	2556.2379	940.95	58.85
982.5063	2557.5485	935.3	52.5
982.6327	2558.8585	947.35	56.9
982.7592	2560.1677	946.35	59.7
982.8856	2561.4762	939.45	56.05
983.0119	2562.7841	941.95	57.1
983.1383	2564.0913	939.3	58.05
983.2646	2565.3977	941.1	58.35
983.3908	2566.7035	938.6	57
983.517	2568.0086	939.1	52.3
983.6432	2569.313	937.95	54.2
983.7694	2570.6167	945.7	60.35
983.8955	2571.9197	939.75	58.2
984.0216	2573.222	943.3	56.55
984.1476	2574.5236	940.2	56.85
984.2737	2575.8246	941	55.1
984.3996	2577.1248	941.7	56.65
984.5256	2578.4244	935.85	54.15
984.6515	2579.7232	938.65	56.9
984.7774	2581.0214	963.9	53.95
984.9032	2582.3189	934.9	52.55
985.029	2583.6157	943.15	54.7
985.1548	2584.9118	938.65	57.6
985.2806	2586.2072	939.05	56.55
985.4063	2587.5019	935.2	51.35
985.5319	2588.7959	939.7	55.35
985.6576	2590.0893	943.05	59.35
985.7832	2591.3819	938.2	56.8
985.9087	2592.6739	936.95	54.9
986.0343	2593.9652	940.6	56.25
986.1597	2595.2557	940.25	55.4
986.2852	2596.5456	940.1	54.7
986.4106	2597.8348	938.9	59.05
986.536	2599.1234	936.95	56.55
986.6614	2600.4112	937.15	54.35
986.7867	2601.6983	941.5	54.75
986.912	2602.9848	940.6	56.7
987.0372	2604.2705	943.25	51.95
987.1624	2605.5556	939.8	56.25
987.2876	2606.84	937.9	54
987.4128	2608.1237	937.3	54.3
987.5379	2609.4067	939.55	58.25
987.6629	2610.689	942.65	48.1
987.788	2611.9707	940.65	54.2
987.913	2613.2516	942.4	55.45
988.0379	2614.5319	934.4	53.25
988.1629	2615.8115	933.45	50.35
988.2878	2617.0903	936.2	52.95
988.4126	2618.3685	934.85	50.7
988.5375	2619.6461	935.55	53.95
988.6622	2620.9229	936.8	54
988.787	2622.199	933.65	50.75
988.9117	2623.4745	936.9	52.35
989.0364	2624.7493	933.6	49.9
989.161	2626.0234	933.1	53.2
989.2857	2627.2968	935.15	52.8
989.4102	2628.5695	935.1	50.7
989.5348	2629.8415	929.05	47.85
989.6593	2631.1128	936.3	50.4
989.7837	2632.3835	934.5	53.15
989.9082	2633.6535	929.55	49.4
990.0326	2634.9228	932.35	53.2
990.1569	2636.1914	933.25	49.2
990.2812	2637.4593	937.95	48.45
990.4055	2638.7265	935.3	53.05
990.5298	2639.9931	929.4	46.45
990.654	2641.259	932.75	50
990.7782	2642.5242	930.3	45.65
990.9023	2643.7887	930.75	48.4
991.0264	2645.0525	933.15	51.3
991.1505	2646.3156	928.4	45.65
991.2745	2647.5781	928.25	46.9
991.3985	2648.8398	930.2	48.35
991.5225	2650.1009	935.6	44.2
991.6464	2651.3613	931.65	50.3
991.7703	2652.6211	930.25	49.25
991.8942	2653.8801	923.5	42.8
992.018	2655.1385	930.95	45.7
992.1418	2656.3961	927.9	43.95
992.2655	2657.6531	931.05	48.6
992.3892	2658.9094	929	45.05
992.5129	2660.1651	926.45	44.05
992.6366	2661.42	931.7	51.2
992.7602	2662.6743	927.35	44.85
992.8837	2663.9279	928.1	47.35
993.0073	2665.1808	927.15	46.35
993.1307	2666.433	929.85	48.1
993.2542	2667.6846	929.15	47.2
993.3776	2668.9354	930.6	46.1
993.501	2670.1856	929.5	48.55
993.6244	2671.4351	928.85	47.15
993.7477	2672.6839	929.4	45.55
993.8709	2673.9321	928.85	47.1
993.9942	2675.1795	932.95	52.3
994.1174	2676.4263	930.75	49.65
994.2405	2677.6724	928.6	49.8
994.3637	2678.9179	931	49.75
994.4868	2680.1626	929.1	47.75
994.6098	2681.4067	928.45	46.6
994.7328	2682.6501	931.7	49.3
994.8558	2683.8928	927.15	45.5
994.9788	2685.1348	928.15	47.3
995.1017	2686.3761	926.45	43.7
995.2245	2687.6168	928.7	45.75
995.3474	2688.8568	928.25	46.75
995.4702	2690.0961	927.8	45.55
995.5929	2691.3348	925.5	43.25
995.7156	2692.5727	926.8	45.25
995.8383	2693.81	927.7	45.75
995.961	2695.0466	923.6	42.35
996.0836	2696.2826	926.1	43.2
996.2062	2697.5178	927.95	45.4
996.3287	2698.7524	925.7	43.05
996.4512	2699.9863	928.95	44.5
996.5737	2701.2195	926.05	44.05
996.6961	2702.452	928.15	45.7
996.8185	2703.6839	926.75	44.95
996.9408	2704.9151	924.4	43.75
997.0631	2706.1456	926.05	43.75
997.1854	2707.3755	926.5	44.95
997.3077	2708.6046	931.7	49.05
997.4299	2709.8331	926.3	44.6
997.552	2711.0609	930.35	48.75
997.6742	2712.2881	929.25	50.2
997.7963	2713.5145	929.1	44.55
997.9183	2714.7403	927.8	49.65
998.0403	2715.9654	928.75	47.3
998.1623	2717.1899	948.9	54.6
998.2842	2718.4136	933.85	53.75
998.4062	2719.6367	936.15	54.55
998.528	2720.8591	941.95	52.75
998.6498	2722.0809	934.9	53.1
998.7716	2723.3019	938.15	54.15
998.8934	2724.5223	936.2	54.85
999.0151	2725.7421	935.05	50.4
999.1368	2726.9611	938.6	58.3
999.2584	2728.1795	936.7	51.35
999.38	2729.3972	930.45	50.15
999.5016	2730.6142	938.25	49.9
999.6231	2731.8306	932.2	50.3
999.7446	2733.0462	930.5	47.8
999.8661	2734.2612	935.25	49.15
999.9875	2735.4756	928.1	44.35
1000.1089	2736.6892	928	44.9
1000.2302	2737.9022	923.05	43.75
1000.3515	2739.1145	924	41.5
1000.4728	2740.3262	930.25	41.95
1000.594	2741.5372	925.6	44.8
1000.7152	2742.7475	921.8	39.45
1000.8363	2743.9571	922.4	40.45
1000.9575	2745.1661	928	41.35
1001.0785	2746.3744	922.1	43.35
1001.1996	2747.582	918.7	35.5
1001.3206	2748.7889	922.8	39
1001.4415	2749.9952	919.55	39.1
1001.5625	2751.2008	919.65	38.65
1001.6833	2752.4057	921.65	38.95
1001.8042	2753.61	920.6	38.75
1001.925	2754.8136	924.05	41.3
1002.0458	2756.0165	917.25	36.2
1002.1665	2757.2188	918	40.1
1002.2872	2758.4204	919.1	38.35
1002.4078	2759.6213	922.5	40.65
1002.5285	2760.8215	921.5	35.65
1002.649	2762.0211	920.75	41.1
1002.7696	2763.22	919.55	35.3
1002.8901	2764.4182	915.95	34.8
1003.0106	2765.6158	919.35	38.8
1003.131	2766.8127	915.85	37.1
1003.2514	2768.009	915.35	34.85
1003.3717	2769.2045	918.8	37.85
1003.492	2770.3994	918.3	35.85
1003.6123	2771.5936	918.3	38
1003.7325	2772.7872	917.45	36.15
1003.8527	2773.9801	915.45	34.1
1003.9729	2775.1723	930.85	34.75
1004.093	2776.3639	914.95	36.1
1004.2131	2777.5548	917.05	34.95
1004.3331	2778.745	915.2	31.65
1004.4531	2779.9346	916.9	37.35
1004.5731	2781.1235	918.05	36
1004.693	2782.3117	912.8	34.6
1004.8129	2783.4992	915.8	36.45
1004.9328	2784.6861	916.95	36.95
1005.0526	2785.8723	917.05	35.75
1005.1723	2787.0579	915.35	35.8
1005.2921	2788.2428	914.35	31.75
1005.4118	2789.427	913.6	34.9
1005.5314	2790.6106	915.9	36.55
1005.651	2791.7935	918.65	34.85
1005.7706	2792.9757	914.8	34.85
1005.8902	2794.1573	917.55	36.1
1006.0097	2795.3382	917.4	38.35
1006.1291	2796.5184	914.4	37.05
1006.2485	2797.698	918.6	37.45
1006.3679	2798.8769	915.95	36.4
1006.4873	2800.0551	917.8	37.7
1006.6066	2801.2327	918.45	37.45
1006.7258	2802.4096	918.25	40.25
1006.8451	2803.5859	917.55	36.45
1006.9642	2804.7615	920.7	39.4
1007.0834	2805.9364	917.25	39
1007.2025	2807.1106	918.95	39.4
1007.3216	2808.2842	920.2	39.85
1007.4406	2809.4572	922.65	42.95
1007.5596	2810.6294	923.2	41.9
1007.6785	2811.801	923.45	44.35
1007.7975	2812.972	923.65	45
1007.9163	2814.1423	928.25	48.75
1008.0352	2815.3119	929.5	50.1
1008.154	2816.4808	929.85	50.7
1008.2727	2817.6491	933.55	52.4
1008.3914	2818.8167	934.2	53.9
1008.5101	2819.9837	944.8	57.85
1008.6288	2821.15	943.7	63.35
1008.7474	2822.3157	946.25	66.95
1008.8659	2823.4807	952.95	73
1008.9844	2824.645	959.3	79.1
1009.1029	2825.8086	968.05	91
1009.2214	2826.9716	971.55	91.25
1009.3398	2828.134	981.8	102.65
1009.4581	2829.2957	985.4	105.8
1009.5764	2830.4567	991.15	112.8
1009.6947	2831.617	993.05	111.7
1009.813	2832.7767	993.3	114.9
1009.9312	2833.9358	996.45	115.9
1010.0493	2835.0941	998.2	115.55
1010.1675	2836.2519	992.8	112.9
1010.2855	2837.4089	992.05	110.05
1010.4036	2838.5653	987.95	109.8
1010.5216	2839.7211	981.95	102.6
1010.6396	2840.8761	982.7	99.95
1010.7575	2842.0306	976.15	97.8
1010.8754	2843.1843	980	99.25
1010.9932	2844.3374	975.55	98.4
1011.111	2845.4899	978.85	98.4
1011.2288	2846.6417	979.35	98.8
1011.3465	2847.7928	983.35	102.7
1011.4642	2848.9433	983.6	104.6
1011.5818	2850.0931	983.2	104.6
1011.6995	2851.2422	990.8	110.15
1011.817	2852.3907	991.65	111.05
1011.9345	2853.5385	994.9	115.75
1012.052	2854.6857	1021.75	116.45
1012.1695	2855.8323	992.65	114
1012.2869	2856.9781	993.2	113.8
1012.4042	2858.1233	997.85	119.95
1012.5216	2859.2679	1001.7	123
1012.6389	2860.4118	1004.8	123.75
1012.7561	2861.555	1014.5	130.2
1012.8733	2862.6976	1009.7	130.35
1012.9905	2863.8395	1013.3	136.45
1013.1076	2864.9808	1015.7	137.4
1013.2247	2866.1214	1012.1	135.15
1013.3417	2867.2614	1016.05	139.15
1013.4587	2868.4007	1016.4	135.45
1013.5757	2869.5393	1018.15	138.25
1013.6926	2870.6773	1021.4	138.55
1013.8095	2871.8146	1020.2	136.9
1013.9263	2872.9513	1022.85	141.65
1014.0431	2874.0874	1024.3	146.25
1014.1599	2875.2227	1024.7	144.45
1014.2766	2876.3574	1029.1	147.9
1014.3933	2877.4915	1030.2	151.75
1014.51	2878.6249	1029.85	149.7
1014.6266	2879.7577	1035.15	153.6
1014.7431	2880.8898	1047	161.1
1014.8596	2882.0212	1034.8	156.3
1014.9761	2883.152	1040.8	161.35
1015.0925	2884.2821	1038.5	161.3
1015.2089	2885.4116	1040.25	161.7
1015.3253	2886.5405	1038.6	160.3
1015.4416	2887.6686	1046.95	164.3
1015.5579	2888.7962	1041.9	164.95
1015.6741	2889.923	1041.65	163.9
1015.7903	2891.0493	1044.25	167.5
1015.9065	2892.1748	1041.1	162.45
1016.0226	2893.2997	1044.55	166.05
1016.1387	2894.424	1040.05	160.85
1016.2547	2895.5476	1044.15	163.9
1016.3707	2896.6706	1042.65	165.4
1016.4866	2897.7929	1046.5	167.7
1016.6025	2898.9145	1046.55	167.8
1016.7184	2900.0355	1047.95	166.9
1016.8342	2901.1559	1041.55	161.65
1016.95	2902.2756	1048.2	163.65
1017.0658	2903.3946	1038.7	160.75
1017.1815	2904.513	1043.2	161
1017.2971	2905.6308	1044.95	168.2
1017.4127	2906.7479	1040.15	159.7
1017.5283	2907.8643	1043.1	164.7
1017.6439	2908.9801	1038.8	161.25
1017.7594	2910.0953	1042.45	163.95
1017.8748	2911.2098	1040.25	156.85
1017.9902	2912.3236	1051.6	163.35
1018.1056	2913.4368	1045.1	163.6
1018.2209	2914.5494	1039.2	161.25
1018.3362	2915.6613	1047.85	163.1
1018.4515	2916.7725	1038.05	155.55
1018.5667	2917.8831	1032.3	151.65
1018.6819	2918.9931	1036.1	154.55
1018.797	2920.1024	1028.55	147.5
1018.9121	2921.211	1027.1	150
1019.0271	2922.319	1024.4	144.95
1019.1421	2923.4264	1030.5	154.85
1019.2571	2924.5331	1023.1	144.9
1019.372	2925.6391	1019.35	141.55
1019.4869	2926.7445	1019.7	141.85
1019.6017	2927.8493	1019.6	141.6
1019.7165	2928.9534	1023.35	145.15
1019.8313	2930.0569	1027.25	144.3
1019.946	2931.1597	1030.15	149.9
1020.0606	2932.2619	1025.65	146.85
1020.1753	2933.3634	1026.6	148.65
1020.2899	2934.4643	1033.5	147.35
1020.4044	2935.5645	1033.35	148.35
1020.5189	2936.6641	1030.8	147.4
1020.6334	2937.763	1032.4	154.7
1020.7478	2938.8613	1030.75	151.35
1020.8622	2939.959	1037.25	152.6
1020.9765	2941.056	1028.35	150.7
1021.0908	2942.1523	1018.45	139.3
1021.2051	2943.248	1013	133.95
1021.3193	2944.3431	1006.45	126.15
1021.4334	2945.4375	999.15	122.9
1021.5476	2946.5313	994.45	117.35
1021.6617	2947.6244	989.05	109.35
1021.7757	2948.7169	982.7	102.8
1021.8897	2949.8087	978.3	99.2
1022.0037	2950.8999	973	94.25
1022.1176	2951.9904	966.35	86.85
1022.2315	2953.0803	962.65	83.95
1022.3453	2954.1696	960.05	81.9
1022.4591	2955.2582	956.6	79.2
1022.5728	2956.3462	956.6	78.7
1022.6865	2957.4335	954	72.6
1022.8002	2958.5202	956	73.85
1022.9138	2959.6062	951.2	72.2
1023.0274	2960.6916	948.4	70.95
1023.141	2961.7764	952.5	73.95
1023.2545	2962.8605	953.3	76.1
1023.3679	2963.9439	950.75	71.75
1023.4813	2965.0267	954.15	76.25
1023.5947	2966.1089	974.15	74.95
1023.708	2967.1905	948.05	71.5
1023.8213	2968.2714	945.85	67.65
1023.9346	2969.3516	949.65	71.35
1024.0478	2970.4312	957.5	70.95
1024.1609	2971.5102	949.3	71.1
1024.274	2972.5885	947.15	69.4
1024.3871	2973.6662	957.1	76.65
1024.5002	2974.7432	953.8	76.7
1024.6132	2975.8196	949.65	71.8
1024.7261	2976.8954	949.8	72.45
1024.839	2977.9705	948.5	71.8
1024.9519	2979.045	950	74.1
1025.0647	2980.1188	947.15	69.2
1025.1775	2981.192	947	70.1
1025.2902	2982.2645	950.35	70.75
1025.4029	2983.3364	944.3	67.25
1025.5156	2984.4077	946.05	67.9
1025.6282	2985.4783	950.15	66.1
1025.7407	2986.5483	940.75	63.6
1025.8532	2987.6177	937.6	59.5
1025.9657	2988.6864	936	56.3
1026.0782	2989.7545	935.9	54.65
1026.1906	2990.8219	933.55	54.75
1026.3029	2991.8887	931.85	52.65
1026.4152	2992.9548	929.25	51.15
1026.5275	2994.0204	921.35	44.4
1026.6397	2995.0852	920.35	42.65
1026.7519	2996.1495	920.15	39.8
1026.864	2997.2131	915.4	38.15
1026.9761	2998.276	915.85	37.45
1027.0882	2999.3383	915.75	37.8
1027.2002	3000.4	913.85	33.7
1027.3122	3001.4611	911.05	32.5
1027.4241	3002.5215	910.9	32.65
1027.536	3003.5812	910.6	31.55
1027.6478	3004.6404	908.95	29.2
1027.7596	3005.6989	909.85	29
1027.8714	3006.7567	910	31.15
1027.9831	3007.8139	937.05	30.1
1028.0947	3008.8705	906	28.9
1028.2064	3009.9264	908.35	29.1
1028.3179	3010.9818	903.7	26.55
1028.4295	3012.0364	903.35	22.25
1028.541	3013.0905	903.45	24.25
1028.6524	3014.1439	901.8	23.65
1028.7638	3015.1966	900.9	22.95
1028.8752	3016.2487	905.4	26.9
1028.9865	3017.3002	906.35	23
1029.0978	3018.3511	901.55	26.25
1029.209	3019.4013	903.6	25.25
1029.3202	3020.4509	900.75	24.2
1029.4314	3021.4998	899.55	20
1029.5425	3022.5481	902.9	24.4
1029.6535	3023.5958	900.95	21.3
1029.7645	3024.6428	904.15	24.35
1029.8755	3025.6892	900.5	23.25
1029.9864	3026.735	901.15	22.4
1030.0973	3027.7802	898.7	20.4
1030.2082	3028.8247	900.45	21.8
1030.319	3029.8685	900.45	22.2
1030.4297	3030.9118	903.3	25
1030.5404	3031.9544	899.4	24.5
1030.6511	3032.9963	900.7	21.65
1030.7617	3034.0376	899.25	21.6
1030.8723	3035.0783	902.3	22.3
1030.9829	3036.1184	902.8	22.65
1031.0934	3037.1578	899.1	23.65
1031.2038	3038.1966	901.95	23.9
1031.3142	3039.2348	897.3	21.15
1031.4246	3040.2723	911.55	26.25
1031.5349	3041.3092	900.9	22.45
1031.6452	3042.3455	899.65	22.2
1031.7554	3043.3811	900.3	21.75
1031.8656	3044.4161	899	18.2
1031.9758	3045.4505	901.8	25.45
1032.0859	3046.4842	898.45	18.45
1032.1959	3047.5173	898.75	22.6
1032.3059	3048.5498	900.55	22.3
1032.4159	3049.5816	900.05	22.65
1032.5258	3050.6128	899.95	22.4
1032.6357	3051.6434	902.45	23.7
1032.7455	3052.6734	900	20
1032.8553	3053.7027	899.5	21.6
1032.9651	3054.7314	899.4	22.85
1033.0748	3055.7594	900.6	24.15
1033.1845	3056.7868	902.55	21.3
1033.2941	3057.8136	900.35	24.75
1033.4037	3058.8398	898.65	21.45
1033.5132	3059.8653	902.35	24.1
1033.6227	3060.8902	899.35	22.8
1033.7321	3061.9145	901.3	22.15
1033.8415	3062.9381	901.6	23.8
1033.9509	3063.9612	917.3	23.3
1034.0602	3064.9835	902.7	25.5
1034.1694	3066.0053	901.85	22.55
1034.2787	3067.0264	901.65	26.2
1034.3878	3068.0469	902.9	22.95
1034.497	3069.0668	901.6	20.7
1034.6061	3070.086	900.9	24.5
1034.7151	3071.1046	903.45	26.8
1034.8241	3072.1226	903.65	25.2
1034.9331	3073.1399	900.3	21.8
1035.042	3074.1567	899.4	20.75
1035.1508	3075.1727	902.2	23.7
1035.2597	3076.1882	898	21.15
1035.3684	3077.203	900.2	22.25
1035.4772	3078.2173	899.8	22.55
1035.5859	3079.2308	901.7	21.55
1035.6945	3080.2438	902.75	23.2
1035.8031	3081.2561	898.4	22.85
1035.9117	3082.2678	897.55	21.2
1036.0202	3083.2789	895.1	19.05
1036.1286	3084.2893	895.6	18.9
1036.2371	3085.2991	895.3	17.2
1036.3454	3086.3083	900.15	16
1036.4538	3087.3169	897.95	20.55
1036.562	3088.3248	897.45	17.5
1036.6703	3089.3321	894.65	16.1
1036.7785	3090.3388	894.8	18.15
1036.8866	3091.3449	894.15	17.25
1036.9948	3092.3503	900.1	22.5
1037.1028	3093.3551	893.6	18.45
1037.2108	3094.3593	891.3	16.35
1037.3188	3095.3629	891.75	13.9
1037.4267	3096.3658	895.45	16.6
1037.5346	3097.3681	894.1	16.6
1037.6425	3098.3698	893.15	14.05
1037.7503	3099.3708	892.1	12.1
1037.858	3100.3713	891.45	13.35
1037.9657	3101.3711	889.75	12.8
1038.0734	3102.3702	1030.25	13.25
1038.181	3103.3688	893.1	14.55
1038.2886	3104.3667	890.5	16.1
1038.3961	3105.364	892.3	14.5
1038.5036	3106.3607	893.1	14.15
1038.611	3107.3568	894.1	15.95
1038.7184	3108.3522	891	13.75
1038.8257	3109.347	890.6	14.7
1038.933	3110.3412	893.5	11.6
1039.0403	3111.3348	889.45	12.65
1039.1475	3112.3277	890.75	14.8
1039.2547	3113.32	888.5	12.2
1039.3618	3114.3117	890.25	14.1
1039.4689	3115.3028	890.15	10.5
1039.5759	3116.2932	891.85	13.5
1039.6829	3117.2831	896.05	13
1039.7898	3118.2723	889.9	14.4
1039.8967	3119.2608	886.75	9.1
1040.0035	3120.2488	890.9	12.8
1040.1103	3121.2361	890.35	12.45
1040.2171	3122.2229	889.5	14.75
1040.3238	3123.209	889.9	10.55
1040.4305	3124.1944	888.95	13.35
1040.5371	3125.1793	889.65	9.6
1040.6437	3126.1635	887.55	10.85
1040.7502	3127.1471	886.85	10.9
1040.8567	3128.1301	886.75	8.1
1040.9631	3129.1125	888.7	13.8
1041.0695	3130.0942	888.25	8.65
1041.1759	3131.0753	894.9	7.55
1041.2822	3132.0558	889.8	11.65
1041.3884	3133.0357	888.6	10.55
1041.4946	3134.015	886.05	7.65
1041.6008	3134.9936	890.25	10.1
1041.7069	3135.9716	905.8	10.6
1041.813	3136.949	888.6	11.8
1041.919	3137.9258	904.6	9.7
1042.025	3138.902	890.75	9
1042.1309	3139.8775	887.3	11.5
1042.2368	3140.8524	885.2	7.6
1042.3427	3141.8267	887.25	9.15
1042.4485	3142.8004	889.05	11.85
1042.5542	3143.7735	893.55	11.85
1042.6599	3144.7459	891.4	12.8
1042.7656	3145.7178	888.95	12.6
1042.8712	3146.689	883.15	7.55
1042.9768	3147.6596	888.4	9.4
1043.0823	3148.6295	888.8	11.5
1043.1878	3149.5989	887.35	8.7
1043.2932	3150.5676	884.65	6.75
1043.3986	3151.5357	882.1	6.4
1043.5039	3152.5032	886.1	10.55
1043.6092	3153.4701	885.95	7.25
1043.7145	3154.4364	886.8	9.2
1043.8197	3155.402	885.95	8.85
1043.9248	3156.367	886.45	10.7
1044.03	3157.3315	929.95	8.7
1044.135	3158.2952	885.65	8.95
1044.24	3159.2584	884.25	7.9
1044.345	3160.221	886.15	5.9
1044.4499	3161.1829	883.6	6.6
1044.5548	3162.1442	885.2	8.3
1044.6596	3163.105	885.05	9.15
1044.7644	3164.065	886.05	10.05
1044.8692	3165.0245	889.55	10.5
1044.9739	3165.9834	884.3	9.75
1045.0785	3166.9416	884.55	7.65
1045.1831	3167.8993	886.85	10.9
1045.2877	3168.8563	884.65	6.65
1045.3922	3169.8127	885.95	10.5
1045.4966	3170.7684	884.55	8.45
1045.6011	3171.7236	886.05	7.75
1045.7054	3172.6782	886.7	8.6
1045.8098	3173.6321	884.85	7.65
1045.914	3174.5854	888.05	8.45
1046.0183	3175.5381	885.8	10.25
1046.1224	3176.4902	883.75	7.6
1046.2266	3177.4417	882.7	5.15
1046.3307	3178.3926	882.5	6.7
1046.4347	3179.3428	884.65	7.25
1046.5387	3180.2924	883.35	8.2
1046.6427	3181.2415	884.35	7.85
1046.7466	3182.1899	884.45	4.8
1046.8504	3183.1377	884.7	9
1046.9542	3184.0848	887.3	7.05
1047.058	3185.0314	884.15	6.75
1047.1617	3185.9773	884.85	7.4
1047.2654	3186.9227	884.9	6.7
1047.369	3187.8674	884.9	8.5
1047.4726	3188.8115	888.7	7.5
1047.5761	3189.755	883.7	7.15
1047.6796	3190.6979	882.75	6.7
1047.783	3191.6402	885	7.2
1047.8864	3192.5818	881.9	7.55
1047.9898	3193.5229	899.8	8.1
1048.0931	3194.4633	883.05	6.4
1048.1963	3195.4031	881.55	5.4
1048.2995	3196.3423	883.35	6.75
1048.4027	3197.2809	881.2	4.65
1048.5058	3198.2189	885.4	8.05
1048.6089	3199.1563	889.5	8.3
1048.7119	3200.0931	882.95	5.9
1048.8148	3201.0292	881.9	5.1
1048.9178	3201.9648	883.85	7.65
1049.0206	3202.8997	883.75	3.5
1049.1235	3203.834	882.8	5.9
1049.2262	3204.7677	881.5	5.5
1049.329	3205.7008	883.3	4.35
1049.4317	3206.6333	881.75	5.6
1049.5343	3207.5652	885.25	5.55
1049.6369	3208.4964	884.55	7.15
1049.7394	3209.4271	882.2	7.05
1049.8419	3210.3571	885.65	10
1049.9444	3211.2865	882.5	5.4
1050.0468	3212.2154	883.95	6.35
1050.1491	3213.1436	882.65	3.95
1050.2514	3214.0712	889.05	6.7
1050.3537	3214.9982	884.3	7.65
1050.4559	3215.9246	883	4.35
1050.5581	3216.8503	881.85	6.45
1050.6602	3217.7755	883.15	6.6
1050.7623	3218.7001	880.9	5.6
1050.8643	3219.624	884.05	8.25
1050.9663	3220.5473	882.4	6.75
1051.0682	3221.4701	882.95	3.2
1051.1701	3222.3922	882.95	2.1
1051.2719	3223.3137	882.75	6.15
1051.3737	3224.2346	881	3.6
1051.4754	3225.1549	882.6	6.25
1051.5771	3226.0746	883.45	6.5
1051.6788	3226.9937	882.9	4.45
1051.7804	3227.9121	879.95	3.15
1051.8819	3228.83	880.35	4.1
1051.9834	3229.7473	882.45	6.1
1052.0849	3230.6639	881.8	4.95
1052.1863	3231.5799	880.6	3.85
1052.2876	3232.4954	883.75	6.5
1052.3889	3233.4102	882.1	6
1052.4902	3234.3244	882.2	5.55
1052.5914	3235.238	879.7	3
1052.6926	3236.151	906.8	6.1
1052.7937	3237.0634	880.25	6.25
1052.8948	3237.9752	881.7	4.7
1052.9958	3238.8864	881.7	4.65
1053.0968	3239.797	881.75	4.5
1053.1977	3240.7069	882.3	2.6
1053.2986	3241.6163	881.1	3
1053.3994	3242.5251	878.85	4.75
1053.5002	3243.4332	883.15	7.45
1053.6009	3244.3408	881.5	4.55
1053.7016	3245.2477	881.7	4.15
1053.8022	3246.154	881.8	3.15
1053.9028	3247.0598	884.4	6.85
1054.0034	3247.9649	882.6	7.5
1054.1039	3248.8694	881.25	3.7
1054.2043	3249.7733	881.1	3.85
1054.3047	3250.6766	882.45	4.25
1054.4051	3251.5793	881	3.55
1054.5054	3252.4814	882.45	6
1054.6056	3253.3829	879.3	4.9
1054.7058	3254.2838	882.9	4.9
1054.806	3255.1841	879.2	3.1
1054.9061	3256.0838	881.1	3.9
1055.0061	3256.9829	880.55	5.1
1055.1062	3257.8814	883.5	4.8
1055.2061	3258.7792	881.1	1.15
1055.306	3259.6765	881.05	5.65
1055.4059	3260.5731	878.2	0.45
1055.5057	3261.4692	881.4	2.75
1055.6055	3262.3647	881.5	4.2
1055.7052	3263.2595	880	2.8
1055.8049	3264.1538	877.6	1.8
1055.9045	3265.0474	880.4	4
1056.0041	3265.9404	880.3	3.4
1056.1036	3266.8329	877.7	2.7
1056.2031	3267.7247	890.6	3.75
1056.3025	3268.616	879.25	3.05
1056.4019	3269.5066	880.25	4.7
1056.5013	3270.3966	881.5	1.35
1056.6005	3271.286	878.8	3.15
