Software Version:	3.9.2.0
Unit SN:	10000200
Spectrometer SN:	6960
Date:	3/8/2024 2:17:07 PM
Data Line Index:	25
Spectral Points:	2048
Integration time (ms):	125
Averages:	20
Delay (ms):	30000
Sequence Number:	1
Processing:	dark subtract
Laser Power (mW):	305
Laser Current (mA):	823
Laser Diode Temp (C):	25.1
Laser Case Temp (C):	26.2
System Temp (C):	26.2
Spectrometer Temp (C):	24.2
CCD Temp (C):	0.008
Secondary Temp (C):	20.008
Heatsink Temp (C):	20.702
CCDPCB Temp (C):	36.274
SecondaryPCB Temp (C):	32.339

Wavelength	RamanShift	Raw Counts	Dark Subtracted
787.061	30.1047	460.95	52.95
787.2016	32.3739	463.6	56.4
787.3422	34.6426	467.8	61.05
787.4828	36.9109	474.4	66.7
787.6235	39.1787	483.5	72.65
787.7642	41.4461	494.45	78.55
787.9049	43.7131	502.4	83.45
788.0456	45.9796	510.75	88.2
788.1863	48.2456	520.7	96.25
788.3271	50.5112	529.9	97.35
788.4679	52.7764	541.75	106.5
788.6087	55.0411	550.65	110.2
788.7496	57.3054	562.3	117.65
788.8904	59.5692	574.25	128.95
789.0313	61.8326	584.65	136.2
789.1722	64.0955	598.25	146.5
789.3132	66.3579	611.3	154.55
789.4541	68.6199	637.25	174.8
789.5951	70.8815	670.5	207
789.7361	73.1426	748.1	277.95
789.8771	75.4032	966.8	493.1
790.0181	77.6634	1482.4	1003.75
790.1592	79.9231	2710.25	2225.9
790.3003	82.1824	5366.85	4864.8
790.4414	84.4412	10148.65	9616.5
790.5825	86.6995	16669.25	16099.45
790.7237	88.9574	23049.5	22453.25
790.8648	91.2148	27439.35	26819.2
791.006	93.4717	29504.1	28869.9
791.1472	95.7282	30002.75	29361.95
791.2885	97.9842	29990.8	29346.1
791.4297	100.2398	29472.45	28823.65
791.571	102.4949	28935.8	28285
791.7123	104.7495	28224.6	27571.95
791.8536	107.0036	27448.1	26793.8
791.9949	109.2573	26717.9	26063.05
792.1363	111.5105	26006.7	25350.05
792.2777	113.7632	25271.25	24611.95
792.4191	116.0154	24685.2	24006.35
792.5605	118.2672	24230.85	23565.7
792.7019	120.5185	23755.7	23088.4
792.8434	122.7693	23386.8	22715.5
792.9849	125.0197	23111.9	22438.15
793.1264	127.2696	22847.95	22169.3
793.2679	129.519	22719.15	22035.75
793.4094	131.7679	22534.95	21852
793.551	134.0163	22401.8	21713.2
793.6926	136.2642	22237.7	21545.6
793.8342	138.5117	22081.2	21381
793.9758	140.7587	21815.2	21122.35
794.1175	143.0052	21672.25	20972.7
794.2591	145.2512	21466.5	20769.7
794.4008	147.4967	21222.3	20524.25
794.5425	149.7417	21092.1	20391.25
794.6842	151.9863	20967.95	20262.6
794.826	154.2304	20968.4	20256.95
794.9677	156.4739	20823.25	20111.3
795.1095	158.717	20784.45	20067.15
795.2513	160.9596	20641.75	19921.9
795.3931	163.2017	20418.8	19695.55
795.535	165.4433	20139.05	19417.6
795.6768	167.6844	19817.85	19092.1
795.8187	169.925	19513.4	18788.1
795.9606	172.1651	19158.8	18430.65
796.1025	174.4047	18891.2	18159.5
796.2445	176.6439	18627.15	17892.75
796.3864	178.8825	18372	17634.75
796.5284	181.1206	18250	17504.35
796.6704	183.3582	18097.5	17351.1
796.8124	185.5954	17981.55	17232
796.9544	187.832	17923.5	17170.85
797.0965	190.0681	17893.45	17140.5
797.2386	192.3037	17893.85	17136.9
797.3806	194.5388	17922.75	17160.15
797.5228	196.7734	17971.85	17206.1
797.6649	199.0075	18056.05	17288.4
797.807	201.2411	18213.45	17444.05
797.9492	203.4742	18268.6	17500.3
798.0914	205.7068	18411.05	17636.75
798.2336	207.9389	18565.4	17794.35
798.3758	210.1704	18753.95	17992.65
798.518	212.4015	18870.45	18124.05
798.6603	214.632	19035.4	18289.3
798.8025	216.862	19243.7	18497.3
798.9448	219.0915	19437.15	18686.05
799.0871	221.3205	19675	18919.95
799.2294	223.549	19926.05	19175
799.3718	225.777	20231.05	19482.9
799.5141	228.0044	20632.85	19873.65
799.6565	230.2314	21111.05	20352.7
799.7989	232.4578	21581.9	20819.45
799.9413	234.6837	21958.5	21193.9
800.0837	236.909	22189.75	21414.75
800.2262	239.1339	22214.2	21416.75
800.3687	241.3582	22004.6	21221.05
800.5111	243.582	21697.1	20883.7
800.6536	245.8053	21299.95	20497.65
800.7961	248.0281	20996.3	20199.6
800.9387	250.2503	20742.2	19943.5
801.0812	252.472	20605.65	19811.75
801.2238	254.6932	20513.5	19719.7
801.3664	256.9139	20461	19660.35
801.509	259.134	20426.1	19621.9
801.6516	261.3536	20389.95	19589.55
801.7942	263.5727	20388.15	19580.8
801.9369	265.7912	20355.75	19550.15
802.0795	268.0092	20399.65	19597.95
802.2222	270.2267	20356.55	19549.05
802.3649	272.4436	20354.65	19548.65
802.5076	274.6601	20278.95	19463.15
802.6504	276.8759	20224.45	19413.05
802.7931	279.0913	20183.55	19370.55
802.9359	281.3061	20204.25	19392.65
803.0787	283.5204	20265.15	19446.15
803.2215	285.7341	20360.25	19543.85
803.3643	287.9473	20554.2	19723.1
803.5071	290.16	20822.85	20002.75
803.6499	292.3721	21164.6	20346.8
803.7928	294.5837	21588.2	20768.9
803.9357	296.7947	21966.35	21148.4
804.0786	299.0052	22145.45	21327.05
804.2215	301.2152	22017.45	21194.8
804.3644	303.4246	21700.35	20881.2
804.5074	305.6334	21154.25	20340
804.6503	307.8418	20661.45	19844.85
804.7933	310.0495	20260.55	19433.3
804.9363	312.2568	19914.35	19089.85
805.0793	314.4635	19729.35	18901.2
805.2223	316.6696	19667.8	18836.45
805.3653	318.8752	19623.1	18780.65
805.5084	321.0802	19718.9	18885.9
805.6514	323.2847	19792.7	18961.65
805.7945	325.4887	19876.3	19042.75
805.9376	327.692	19838.7	19001.95
806.0807	329.8949	19746.75	18914.1
806.2238	332.0972	19488.8	18651.85
806.367	334.2989	19241.2	18397.1
806.5101	336.5001	18955.35	18110.4
806.6533	338.7007	18754.9	17910.45
806.7965	340.9008	18668.1	17824.8
806.9397	343.1003	18583.4	17740.6
807.0829	345.2992	18548	17706.5
807.2261	347.4976	18533.95	17689.8
807.3693	349.6955	18542.75	17692.7
807.5126	351.8927	18642.8	17793.6
807.6559	354.0895	18585.4	17720.55
807.7991	356.2856	18674.9	17823.45
807.9424	358.4812	18648.4	17794.65
808.0857	360.6763	18691.55	17832.1
808.2291	362.8707	18673.6	17815.1
808.3724	365.0646	18733	17871.75
808.5158	367.258	18736.8	17879.75
808.6591	369.4508	18772.25	17907.6
808.8025	371.643	18860.15	17994.85
808.9459	373.8346	18856	17992.3
809.0893	376.0257	18862.05	17996.05
809.2327	378.2162	18780.15	17912.4
809.3762	380.4062	18681	17818.4
809.5196	382.5956	18526.65	17666.1
809.6631	384.7844	18475	17619.25
809.8066	386.9726	18350.95	17501.5
809.9501	389.1603	18304.65	17449.85
810.0936	391.3474	18303.25	17421.45
810.2371	393.5339	18287.65	17429.95
810.3806	395.7199	18229.2	17372.55
810.5241	397.9052	18281.8	17425.2
810.6677	400.09	18252.05	17394.2
810.8113	402.2743	18361.35	17502.65
810.9548	404.4579	18464.8	17605.4
811.0984	406.641	18612.4	17750.15
811.2421	408.8235	18839.9	17979.9
811.3857	411.0054	19198.1	18334.75
811.5293	413.1868	19648.1	18777.6
811.673	415.3675	20009.75	19135.35
811.8166	417.5477	20212.3	19337.35
811.9603	419.7273	20238.85	19366.85
812.104	421.9064	20150.1	19271.3
812.2477	424.0848	20046.45	19175
812.3914	426.2627	19838.6	18967.05
812.5351	428.4399	19553.1	18675.85
812.6788	430.6166	19190.35	18313.9
812.8226	432.7928	18827.2	17946.25
812.9663	434.9683	18529.35	17655.6
813.1101	437.1432	18298.15	17424.15
813.2539	439.3176	18122.25	17253.35
813.3977	441.4914	18005.1	17135.4
813.5415	443.6645	17996.35	17125.95
813.6853	445.8371	17956.7	17081.1
813.8291	448.0091	17868.8	16991.9
813.973	450.1806	17848.5	16977.1
814.1168	452.3514	17785.05	16913.4
814.2607	454.5216	17829.25	16950
814.4046	456.6913	17740.65	16865
814.5485	458.8603	17800.9	16925.5
814.6924	461.0288	17873.45	17005.05
814.8363	463.1967	17910.9	17045.65
814.9802	465.3639	18059.05	17190.45
815.1241	467.5306	18134.9	17258.1
815.2681	469.6967	18280.3	17412.5
815.412	471.8622	18485.4	17619.5
815.556	474.0271	18648.95	17782.55
815.7	476.1914	18730.7	17855.05
815.844	478.3551	18714.8	17835.4
815.988	480.5182	18720.35	17850.8
816.132	482.6807	18729.6	17862.25
816.276	484.8426	18814.15	17953.4
816.4201	487.0039	19111.6	18244.35
816.5641	489.1647	19489.5	18613.05
816.7082	491.3248	19988.9	19114.1
816.8522	493.4843	20154.35	19285.85
816.9963	495.6432	20201.25	19331.6
817.1404	497.8015	20087.4	19205.15
817.2845	499.9592	20122.15	19231.65
817.4286	502.1163	20066.55	19181.55
817.5727	504.2728	19859.3	18980.35
817.7168	506.4287	19563.7	18693.15
817.861	508.5839	19161.05	18291.15
818.0051	510.7386	18840.4	17960.6
818.1493	512.8927	18697.4	17811
818.2935	515.0461	18578.7	17692.75
818.4377	517.199	18515.45	17630.15
818.5818	519.3512	18503	17615
818.726	521.5029	18572.15	17683
818.8703	523.6539	18632.2	17744
819.0145	525.8043	18686.4	17799.85
819.1587	527.9541	18726.35	17833.4
819.303	530.1033	18718.65	17830.8
819.4472	532.2519	18775.7	17887.75
819.5915	534.3999	18924.35	18033.95
819.7357	536.5472	19217.75	18328.05
819.88	538.694	19701.5	18814.65
820.0243	540.8401	20332.95	19439.15
820.1686	542.9856	20845.5	19947.05
820.3129	545.1305	21040.2	20137.1
820.4572	547.2748	20912.8	20003.55
820.6016	549.4185	20562.55	19651.4
820.7459	551.5615	20190.25	19283.95
820.8902	553.704	20068	19161.45
821.0346	555.8458	19970.35	19071.6
821.1789	557.987	20004.35	19105.4
821.3233	560.1276	19960	19062.9
821.4677	562.2675	20008.8	19110.15
821.6121	564.4069	20037.9	19137.7
821.7565	566.5456	19995.1	19101.65
821.9009	568.6837	19909.5	19015.9
822.0453	570.8212	19641.05	18744.65
822.1897	572.958	19313.95	18423.1
822.3342	575.0942	19073.5	18182.4
822.4786	577.2299	18930.6	18043.55
822.6231	579.3648	18892.2	18018.1
822.7675	581.4992	18946.75	18076.3
822.912	583.6329	19159.4	18294.7
823.0565	585.766	19440.75	18567.5
823.201	587.8985	19543.35	18661.1
823.3454	590.0304	19607.05	18708
823.4899	592.1616	19516.05	18616.1
823.6345	594.2922	19441.5	18538.2
823.779	596.4222	19294.5	18387.8
823.9235	598.5515	19118.6	18217
824.068	600.6802	18997.85	18094.45
824.2126	602.8083	18810	17910.55
824.3571	604.9358	18799.1	17899.55
824.5017	607.0626	18693.95	17787.4
824.6462	609.1888	18679.25	17763.15
824.7908	611.3144	18619.95	17708.35
824.9354	613.4393	18559.15	17649.3
825.08	615.5636	18406.9	17497.8
825.2246	617.6873	18325.9	17417.05
825.3692	619.8103	18283.75	17373.65
825.5138	621.9327	18160.85	17251.6
825.6584	624.0544	18179.15	17274.7
825.803	626.1756	18165.55	17263.1
825.9477	628.2961	18119.45	17211.9
826.0923	630.4159	18072.45	17161.4
826.237	632.5351	18073.65	17163.6
826.3816	634.6537	18033.85	17124.7
826.5263	636.7716	18038.8	17125.5
826.6709	638.8889	18058.15	17142.75
826.8156	641.0056	18079.6	17159.05
826.9603	643.1216	18081.55	17168.95
827.105	645.237	18115.3	17201.35
827.2497	647.3518	18126.7	17225.5
827.3944	649.4659	18172	17272.75
827.5391	651.5793	18197.75	17296.1
827.6838	653.6922	18198.05	17293
827.8285	655.8043	18173.45	17266.05
827.9733	657.9159	18166.1	17261.5
828.118	660.0268	18086.85	17179.8
828.2627	662.137	18065.85	17158.8
828.4075	664.2466	18056.1	17139.25
828.5522	666.3556	18054.4	17144.35
828.697	668.4639	18014.5	17105.4
828.8418	670.5716	18109.35	17203.8
828.9865	672.6786	18176.65	17264.4
829.1313	674.785	18268.1	17350.3
829.2761	676.8907	18319.1	17404.55
829.4209	678.9958	18439.45	17530
829.5657	681.1002	18395.2	17479.75
829.7105	683.204	18388.8	17467.6
829.8553	685.3072	18353.65	17434.95
830.0001	687.4097	18296.7	17382.85
830.1449	689.5115	18267	17353
830.2898	691.6127	18228.6	17316.75
830.4346	693.7132	18168	17257.25
830.5794	695.8131	18164.7	17232.75
830.7243	697.9123	18170	17251.15
830.8691	700.0109	18154.3	17230.65
831.014	702.1089	18121.75	17201.8
831.1588	704.2061	18125.7	17204.3
831.3037	706.3028	18192.65	17269.75
831.4486	708.3987	18263.05	17347.35
831.5935	710.4941	18327.5	17409.5
831.7383	712.5887	18553.6	17636.65
831.8832	714.6827	18868.8	17948.65
832.0281	716.7761	19204.5	18287.95
832.173	718.8688	19563.8	18648.8
832.3179	720.9608	19778.45	18850.25
832.4628	723.0522	19896.7	18966.65
832.6077	725.1429	19709.95	18788.95
832.7527	727.233	19410.1	18492.25
832.8976	729.3224	19159.25	18236.1
833.0425	731.4112	18865.05	17943.05
833.1874	733.4993	18663.15	17738.75
833.3324	735.5867	18499.35	17581.7
833.4773	737.6735	18409.55	17488.4
833.6222	739.7596	18374.95	17450.35
833.7672	741.845	18367.25	17444.7
833.9122	743.9298	18325.2	17404
834.0571	746.014	18348.6	17428.05
834.2021	748.0974	18374.5	17444.75
834.347	750.1802	18375.75	17447.95
834.492	752.2624	18365.6	17436.45
834.637	754.3439	18410.35	17480.7
834.782	756.4247	18506.3	17570.8
834.9269	758.5048	18594	17664.1
835.0719	760.5843	18817.55	17887.75
835.2169	762.6631	19091.85	18162.05
835.3619	764.7413	19565.8	18639.4
835.5069	766.8188	20122.6	19194.8
835.6519	768.8956	20540.6	19607.4
835.7969	770.9718	20849.25	19921.2
835.9419	773.0473	20762.9	19831.8
836.0869	775.1221	20445.15	19514.3
836.232	777.1962	20070.7	19144.7
836.377	779.2697	19875.1	18946.75
836.522	781.3426	19953.15	19001.9
836.667	783.4147	20212.5	19282.85
836.8121	785.4862	20545.3	19616.9
836.9571	787.557	20583.1	19648.4
837.1021	789.6271	20237.2	19304.5
837.2472	791.6966	19699.65	18771.6
837.3922	793.7654	19200.9	18268.9
837.5373	795.8335	18936.3	18006.7
837.6823	797.901	18741.4	17811.95
837.8274	799.9678	18686.2	17755.35
837.9724	802.0339	18714.6	17782.05
838.1175	804.0993	18787.2	17843.9
838.2626	806.1641	18751.5	17815.85
838.4076	808.2282	18681.45	17752.8
838.5527	810.2916	18653.05	17718
838.6978	812.3544	18564.55	17636.35
838.8428	814.4164	18448.7	17518.6
838.9879	816.4778	18538.1	17603.4
839.133	818.5385	18495.45	17557.4
839.2781	820.5986	18586.65	17650.1
839.4232	822.658	18675.35	17737
839.5682	824.7166	18777.25	17842.05
839.7133	826.7747	18984.3	18050
839.8584	828.832	19170.35	18234.85
840.0035	830.8886	19284.75	18350.1
840.1486	832.9446	19467.85	18531.3
840.2937	834.9999	19501.8	18567.05
840.4388	837.0545	19549.95	18610.2
840.5839	839.1085	19590.95	18655
840.729	841.1618	19583.9	18644.65
840.8741	843.2143	19541.45	18606.05
841.0192	845.2662	19437.25	18498.95
841.1643	847.3175	19391.55	18456
841.3095	849.368	19307.4	18371.05
841.4546	851.4179	19203.9	18268.7
841.5997	853.467	19067.9	18130.4
841.7448	855.5155	18960.6	18024.1
841.8899	857.5633	18910.3	17974.55
842.0351	859.6105	18773.8	17833.75
842.1802	861.6569	18745.4	17807.2
842.3253	863.7027	18733.85	17792.2
842.4704	865.7478	18722.5	17784.5
842.6156	867.7922	18743.2	17805.6
842.7607	869.8359	18806.3	17867.6
842.9058	871.8789	18894.55	17952.5
843.0509	873.9212	19108.95	18136.9
843.1961	875.9629	19259.2	18320.2
843.3412	878.0039	19437.1	18497.25
843.4863	880.0441	19578.5	18642.95
843.6315	882.0837	19600.6	18664.7
843.7766	884.1226	19515.65	18577.3
843.9218	886.1609	19418.7	18481.1
844.0669	888.1984	19321.45	18382.85
844.212	890.2352	19334.65	18396.35
844.3572	892.2714	19289.2	18347.75
844.5023	894.3069	19285.6	18347.95
844.6475	896.3416	19235.8	18295.8
844.7926	898.3757	19234.2	18295.95
844.9377	900.4091	19265.2	18327.35
845.0829	902.4418	19243.15	18297.7
845.228	904.4739	19249.25	18304.9
845.3732	906.5052	19288.1	18346.2
845.5183	908.5358	19175.85	18233.25
845.6635	910.5658	19025.3	18077.25
845.8086	912.595	18878.4	17940
845.9538	914.6236	18729.85	17787.1
846.0989	916.6515	18738.55	17795
846.2441	918.6786	18695.45	17756
846.3892	920.7051	18783.05	17840.1
846.5344	922.7309	18905	17963.5
846.6795	924.756	18953.75	18015.35
846.8246	926.7804	19100.5	18160.65
846.9698	928.8041	19035.75	18091.65
847.1149	930.8272	19028.35	18083.95
847.2601	932.8495	18953.2	18011.25
847.4052	934.8711	18901.65	17957.35
847.5504	936.892	18771.15	17829.3
847.6955	938.9123	18629.35	17683.95
847.8407	940.9318	18520.25	17578.7
847.9858	942.9506	18415.65	17472.7
848.131	944.9688	18319.45	17380.45
848.2761	946.9862	18254.4	17310.5
848.4213	949.003	18183.75	17241.45
848.5664	951.019	18161.2	17220.95
848.7115	953.0344	18201.85	17261.05
848.8567	955.0491	18277.9	17335.1
849.0018	957.063	18377.8	17436.3
849.147	959.0763	18540.4	17595.05
849.2921	961.0888	18548.7	17605.8
849.4373	963.1007	18631.5	17689.9
849.5824	965.1119	18697.65	17767.25
849.7275	967.1223	18745.85	17821.35
849.8727	969.1321	18728.2	17800.55
850.0178	971.1412	18800.05	17866.5
850.1629	973.1495	18828	17890.9
850.3081	975.1572	18950.15	17971.4
850.4532	977.1641	18928.25	17986.9
850.5983	979.1704	18890.8	17944.85
850.7435	981.1759	18855	17907.5
850.8886	983.1808	18955.65	18013.85
851.0337	985.1849	19061.1	18111.05
851.1788	987.1884	19187.35	18243.8
851.324	989.1911	19359.8	18414.75
851.4691	991.1932	19504.25	18564.95
851.6142	993.1945	19574.2	18631.45
851.7593	995.1951	19514.95	18571.45
851.9045	997.1951	19489.8	18541.35
852.0496	999.1943	19396.95	18454.85
852.1947	1001.1928	19356.8	18415.15
852.3398	1003.1906	19324.95	18381.35
852.4849	1005.1877	19384.75	18441.6
852.63	1007.1841	19328.7	18387.3
852.7751	1009.1798	19258.6	18315.7
852.9202	1011.1748	19063.25	18121.2
853.0653	1013.1691	18905.35	17963.1
853.2104	1015.1627	18674.9	17734.15
853.3555	1017.1556	18492	17552.4
853.5006	1019.1477	18360.8	17422.7
853.6457	1021.1392	18215.4	17281.75
853.7908	1023.1299	18250.35	17322.7
853.9359	1025.12	18252.5	17325.65
854.081	1027.1093	18302.3	17387.55
854.2261	1029.0979	18423.4	17511.95
854.3712	1031.0859	18462.15	17544.3
854.5163	1033.0731	18444.15	17514.75
854.6613	1035.0596	18382.15	17446.7
854.8064	1037.0454	18213.1	17277.7
854.9515	1039.0304	18115.8	17176.7
855.0965	1041.0148	17974.95	17036.75
855.2416	1042.9985	17898.8	16959.35
855.3867	1044.9814	17879.65	16942.45
855.5317	1046.9636	17800.85	16861.8
855.6768	1048.9452	17761.6	16827.05
855.8219	1050.926	17786.35	16849.45
855.9669	1052.9061	17783.95	16844.95
856.112	1054.8855	17788.85	16847.85
856.257	1056.8642	17811.4	16870.95
856.4021	1058.8421	17894.3	16950
856.5471	1060.8194	17914.55	16972.4
856.6921	1062.7959	17940.55	16998.8
856.8372	1064.7717	17967	17023.85
856.9822	1066.7469	17953.9	17009
857.1272	1068.7213	17977.7	17038.25
857.2723	1070.695	17969.4	17029.2
857.4173	1072.6679	17895.05	16955.05
857.5623	1074.6402	17902	16960.75
857.7073	1076.6117	17845.15	16895.3
857.8523	1078.5826	17854.55	16912.25
857.9973	1080.5527	17856.1	16911.4
858.1423	1082.5221	17968.35	17029.55
858.2873	1084.4908	18143.05	17204.9
858.4323	1086.4587	18350.15	17409.65
858.5773	1088.426	18490.1	17549
858.7223	1090.3925	18495.25	17548.3
858.8673	1092.3584	18426.9	17487.25
859.0123	1094.3235	18263.3	17327.65
859.1573	1096.2879	18216.3	17275.8
859.3022	1098.2515	18196.8	17257.55
859.4472	1100.2145	18252.1	17313.15
859.5922	1102.1767	18341.25	17401.55
859.7371	1104.1382	18477.7	17539
859.8821	1106.099	18671.45	17729.85
860.027	1108.0591	18885.2	17942.65
860.172	1110.0185	18990.65	18050.85
860.3169	1111.9771	19038.35	18098.55
860.4619	1113.9351	18807.25	17869.05
860.6068	1115.8923	18531.35	17595.95
860.7517	1117.8488	18248.1	17303.35
860.8967	1119.8045	17938.15	17000.3
861.0416	1121.7596	17807.55	16871.05
861.1865	1123.7139	17749.15	16813.4
861.3314	1125.6675	17736.3	16796
861.4763	1127.6204	17823.25	16883.7
861.6212	1129.5726	17827.45	16887.45
861.7661	1131.524	17823.3	16886.05
861.911	1133.4748	17829.2	16890.35
862.0559	1135.4248	17767.1	16828.4
862.2008	1137.3741	17779.45	16842.35
862.3457	1139.3226	17758.7	16817.05
862.4905	1141.2705	17753.1	16811.85
862.6354	1143.2176	17666.75	16718.2
862.7803	1145.164	17681.85	16739.75
862.9251	1147.1097	17654.45	16717
863.07	1149.0546	17670.85	16733
863.2148	1150.9989	17569.05	16630.1
863.3597	1152.9424	17453.45	16512.15
863.5045	1154.8852	17278.95	16336.65
863.6493	1156.8272	17181.3	16240.2
863.7942	1158.7686	17131.55	16184.4
863.939	1160.7092	17061.6	16119.7
864.0838	1162.6491	17048.5	16106.85
864.2286	1164.5883	17102.35	16163.65
864.3734	1166.5267	17197.2	16256.4
864.5182	1168.4644	17333	16392.9
864.663	1170.4014	17524.7	16584.2
864.8078	1172.3377	17792.25	16853.35
864.9526	1174.2732	17997.15	17058.6
865.0974	1176.2081	18226.45	17287.8
865.2421	1178.1421	18441.5	17500.85
865.3869	1180.0755	18656	17721.1
865.5317	1182.0082	18718.3	17784.05
865.6764	1183.9401	18744.2	17809.65
865.8212	1185.8713	18578.4	17644.6
865.9659	1187.8017	18311.85	17386.4
866.1106	1189.7315	18090.5	17178.3
866.2554	1191.6605	17738.1	16819.55
866.4001	1193.5888	17518.95	16597
866.5448	1195.5163	17469.7	16539
866.6895	1197.4432	17365.25	16432.8
866.8342	1199.3693	17318.45	16380.05
866.9789	1201.2947	17262.25	16324
867.1236	1203.2193	17210.65	16274.55
867.2683	1205.1432	17216.5	16280.05
867.413	1207.0664	17262.5	16324.45
867.5576	1208.9889	17291.8	16354.1
867.7023	1210.9106	17340.75	16406.45
867.847	1212.8316	17391.55	16458.35
867.9916	1214.7519	17448.25	16500.4
868.1363	1216.6715	17444.55	16511
868.2809	1218.5903	17405.15	16469.1
868.4255	1220.5084	17366.6	16434.7
868.5701	1222.4257	17376.7	16442.9
868.7148	1224.3424	17298.25	16366.35
868.8594	1226.2583	17361.3	16422.8
869.004	1228.1735	17442.65	16511.1
869.1486	1230.0879	17515.35	16582.35
869.2932	1232.0016	17616.15	16680.95
869.4377	1233.9146	17641.8	16704.85
869.5823	1235.8269	17560.7	16627.25
869.7269	1237.7384	17472.6	16538.55
869.8715	1239.6492	17236.45	16304.6
870.016	1241.5592	17147.5	16212.2
870.1606	1243.4686	17042.35	16109.7
870.3051	1245.3772	17047.3	16115.3
870.4496	1247.285	17005.25	16069.65
870.5941	1249.1922	16961.35	16025.25
870.7387	1251.0986	16961.35	16027.15
870.8832	1253.0042	16948.55	16015.6
871.0277	1254.9092	16968.75	16037.45
871.1722	1256.8134	17068.75	16140.4
871.3167	1258.7169	17219	16284.45
871.4611	1260.6196	17349.75	16416.9
871.6056	1262.5216	17533.5	16601.4
871.7501	1264.4229	17642.7	16711.15
871.8945	1266.3234	17786.7	16851.7
872.039	1268.2232	17863.1	16927.15
872.1834	1270.1223	17908.1	16969.9
872.3278	1272.0207	17843.45	16909.5
872.4723	1273.9183	17806.25	16864.2
872.6167	1275.8151	17704.75	16772.2
872.7611	1277.7113	17648.05	16713.65
872.9055	1279.6067	17490.2	16557.6
873.0499	1281.5014	17424.85	16492.55
873.1943	1283.3953	17333.8	16400.9
873.3386	1285.2885	17307.8	16377.35
873.483	1287.181	17362.5	16433.75
873.6274	1289.0727	17427.45	16496.4
873.7717	1290.9637	17469.55	16535.75
873.9161	1292.854	17619.25	16689.6
874.0604	1294.7435	17745.65	16811.45
874.2047	1296.6323	17953.65	17022.75
874.349	1298.5204	18195.6	17258.85
874.4933	1300.4077	18417.3	17484.05
874.6376	1302.2943	18554.25	17622.9
874.7819	1304.1802	18627.85	17698.2
874.9262	1306.0653	18491.3	17560.55
875.0705	1307.9497	18268.1	17336.2
875.2147	1309.8333	18179.2	17247.45
875.359	1311.7162	18111.55	17178.95
875.5032	1313.5984	18106.55	17171.8
875.6475	1315.4798	18124.7	17184.85
875.7917	1317.3605	18217.5	17271.15
875.9359	1319.2405	18274.05	17339.75
876.0801	1321.1197	18262.55	17327.55
876.2243	1322.9982	18100.75	17165.35
876.3685	1324.876	18069.6	17136.9
876.5127	1326.753	17998.9	17067.5
876.6569	1328.6293	17983.6	17049.7
876.801	1330.5048	17955.25	17021.6
876.9452	1332.3796	17887.65	16957.7
877.0893	1334.2537	17857.8	16897.75
877.2335	1336.127	17769.95	16837.95
877.3776	1337.9996	17726.8	16796.15
877.5217	1339.8714	17682.35	16752.4
877.6658	1341.7426	17698.2	16724.2
877.8099	1343.6129	17650.9	16716.45
877.954	1345.4826	17535.3	16600.9
878.0981	1347.3515	17542.4	16607.5
878.2422	1349.2196	17464.6	16529.9
878.3862	1351.087	17489.7	16554.4
878.5303	1352.9537	17522.85	16588.6
878.6743	1354.8197	17628.5	16693.35
878.8184	1356.6849	17793.5	16866.35
878.9624	1358.5493	17839.6	16907.9
879.1064	1360.4131	17890.65	16958.15
879.2504	1362.276	17821.9	16892.05
879.3944	1364.1383	17659.2	16731.25
879.5384	1365.9998	17441.5	16505
879.6823	1367.8606	17125.05	16192.05
879.8263	1369.7206	16835.6	15901.35
879.9702	1371.5799	16577.9	15644.95
880.1142	1373.4384	16422.8	15488
880.2581	1375.2962	16276.3	15344.95
880.402	1377.1533	15997.55	15068.7
880.5459	1379.0096	15682.65	14756.25
880.6898	1380.8652	15393.35	14467
880.8337	1382.7201	15158.55	14230.9
880.9776	1384.5742	14892	13960.95
881.1215	1386.4275	14729.25	13796.65
881.2653	1388.2802	14585.75	13651.5
881.4092	1390.132	14467.15	13538.1
881.553	1391.9832	14414.05	13481.1
881.6968	1393.8336	14294.25	13361.95
881.8406	1395.6832	14261.8	13329.2
881.9844	1397.5322	14209.55	13280.95
882.1282	1399.3803	14161.2	13227.25
882.272	1401.2278	14114.6	13185.2
882.4158	1403.0745	14104.05	13174.3
882.5595	1404.9204	14035.05	13107.5
882.7033	1406.7656	14053.3	13122.4
882.847	1408.6101	14064.7	13133.75
882.9908	1410.4538	14025	13098.45
883.1345	1412.2968	14077.75	13145.25
883.2782	1414.139	14086.75	13154.45
883.4219	1415.9805	14188.05	13258.75
883.5656	1417.8213	14242.25	13306.15
883.7092	1419.6613	14326.5	13399.3
883.8529	1421.5006	14524.3	13594.75
883.9965	1423.3391	14752.95	13820.95
884.1402	1425.1769	15044.9	14113.5
884.2838	1427.0139	15518.95	14589.55
884.4274	1428.8502	16085.95	15154.65
884.571	1430.6858	16618.6	15689.55
884.7146	1432.5206	17055.9	16130.7
884.8582	1434.3547	17284.5	16353.75
885.0018	1436.188	17309.35	16380.45
885.1453	1438.0206	17208.75	16282.45
885.2889	1439.8524	17035.15	16109.5
885.4324	1441.6835	16928.8	16000.15
885.5759	1443.5139	16879.5	15946.05
885.7194	1445.3435	16750.6	15825.5
885.8629	1447.1724	16671.9	15747.85
886.0064	1449.0005	16629.95	15702.8
886.1499	1450.8279	16512.1	15585.6
886.2933	1452.6545	16468.75	15543.2
886.4368	1454.4804	16480.95	15557.85
886.5802	1456.3056	16457.1	15527.85
886.7237	1458.13	16355.2	15431.55
886.8671	1459.9536	16144.7	15216.3
887.0105	1461.7766	15796.35	14870.05
887.1539	1463.5987	15409.95	14480.75
887.2972	1465.4202	15016.55	14087.7
887.4406	1467.2409	14649.9	13725.3
887.584	1469.0608	14353.7	13428.35
887.7273	1470.88	14102.95	13175.45
887.8706	1472.6984	13872.1	12943.3
888.0139	1474.5161	13650.6	12718.85
888.1572	1476.3331	13469.55	12545.9
888.3005	1478.1493	13337.3	12409.45
888.4438	1479.9648	13230.45	12303.7
888.5871	1481.7795	13124.9	12200.95
888.7303	1483.5935	13032.25	12105.25
888.8736	1485.4067	12982.35	12053.85
889.0168	1487.2192	12915.2	11986.05
889.16	1489.031	12869.5	11940.4
889.3032	1490.842	12800.5	11877.35
889.4464	1492.6522	12798.2	11869.9
889.5896	1494.4618	12722.15	11793.95
889.7327	1496.2705	12696.15	11770.2
889.8759	1498.0785	12625.5	11698.1
890.019	1499.8858	12591.2	11663.25
890.1622	1501.6924	12579.85	11655.3
890.3053	1503.4981	12555	11630.4
890.4484	1505.3032	12527.05	11601.85
890.5914	1507.1075	12471.2	11543.85
890.7345	1508.911	12433.8	11510.4
890.8776	1510.7138	12408	11482.35
891.0206	1512.5159	12346.95	11418.3
891.1637	1514.3172	12257.55	11333.75
891.3067	1516.1178	12208.7	11285.5
891.4497	1517.9176	12156.65	11230.4
891.5927	1519.7166	12127.6	11205.4
891.7357	1521.515	12058.15	11126.2
891.8786	1523.3126	12036.35	11114.75
892.0216	1525.1094	12012.8	11088.05
892.1645	1526.9055	11945.65	11026
892.3074	1528.7008	11947	11024
892.4503	1530.4954	11870.7	10949.35
892.5932	1532.2893	11843.05	10922
892.7361	1534.0824	11804.1	10882.7
892.879	1535.8747	11777.1	10857.1
893.0218	1537.6663	11747.5	10826.75
893.1647	1539.4572	11718.65	10797.95
893.3075	1541.2473	11705.7	10784.35
893.4503	1543.0367	11680.95	10764.05
893.5931	1544.8253	11644.3	10719.95
893.7359	1546.6132	11658.2	10734.45
893.8787	1548.4003	11620.15	10688.85
894.0214	1550.1867	11641.5	10717.1
894.1642	1551.9723	11638	10717.7
894.3069	1553.7572	11658.5	10740.5
894.4496	1555.5414	11672.6	10756
894.5923	1557.3247	11707.95	10791.75
894.735	1559.1074	11769.25	10857.7
894.8777	1560.8893	11807.05	10895.2
895.0204	1562.6705	11838.35	10926.75
895.163	1564.4509	11925.65	11016.1
895.3056	1566.2305	11961.5	11055.65
895.4482	1568.0094	12057.05	11149.95
895.5908	1569.7876	12066.9	11154.9
895.7334	1571.565	12087.7	11175.45
895.876	1573.3417	12106.4	11195.7
896.0186	1575.1176	12094.5	11182.05
896.1611	1576.8928	12034.55	11126.7
896.3036	1578.6672	11923.6	11018.75
896.4461	1580.4409	11829	10926.35
896.5886	1582.2138	11687.15	10780.3
896.7311	1583.986	11601.25	10692.15
896.8736	1585.7575	11507.25	10599.2
897.0161	1587.5282	11415.4	10509.6
897.1585	1589.2981	11376.75	10474.45
897.3009	1591.0673	11318.5	10414.45
897.4433	1592.8358	11343.85	10441
897.5857	1594.6035	11302.45	10393.4
897.7281	1596.3704	11304.5	10398.5
897.8705	1598.1366	11321.65	10416.55
898.0128	1599.9021	11335.2	10431.2
898.1551	1601.6668	11384.9	10479.75
898.2975	1603.4308	11424.6	10515.6
898.4398	1605.194	11515.35	10605.55
898.5821	1606.9564	11604	10703
898.7243	1608.7182	11751.8	10853.9
898.8666	1610.4791	11894.65	11004.3
899.0088	1612.2394	12024.5	11132.9
899.1511	1613.9988	12141.85	11249.7
899.2933	1615.7576	12363.2	11464.5
899.4355	1617.5156	12585.3	11674.15
899.5776	1619.2728	12785.3	11877.3
899.7198	1621.0293	12902.5	11995.35
899.862	1622.785	12926.3	12020.95
900.0041	1624.54	12829.15	11926.35
900.1462	1626.2942	12674.35	11773.55
900.2883	1628.0477	12415.85	11514.5
900.4304	1629.8005	12141	11237
900.5725	1631.5525	11937.7	11035.7
900.7145	1633.3037	11726.2	10827.9
900.8566	1635.0542	11597.35	10699.95
900.9986	1636.804	11464.8	10566.55
901.1406	1638.553	11474.85	10485.3
901.2826	1640.3013	11346.2	10446.1
901.4245	1642.0488	11303.5	10401.65
901.5665	1643.7955	11337.6	10441.15
901.7085	1645.5416	11355.15	10459.2
901.8504	1647.2868	11420.8	10522.2
901.9923	1649.0313	11493.85	10594
902.1342	1650.7751	11668.15	10767.05
902.2761	1652.5181	11771.8	10874.1
902.4179	1654.2604	11962.55	11063.25
902.5598	1656.0019	12244.15	11346.75
902.7016	1657.7427	12540.5	11640.75
902.8434	1659.4828	12853.5	11953.75
902.9852	1661.222	13019.75	12116.75
903.127	1662.9606	13009.65	12110.65
903.2687	1664.6984	12829.85	11929.8
903.4105	1666.4354	12463.5	11559.4
903.5522	1668.1717	11953.4	11050.35
903.6939	1669.9072	11422.25	10519.9
903.8356	1671.642	11026.05	10120.2
903.9773	1673.3761	10690.25	9790.5
904.119	1675.1094	10390.7	9490.8
904.2606	1676.8419	10146.8	9246.8
904.4022	1678.5737	9998.45	9095.3
904.5439	1680.3048	9857.1	8953.9
904.6855	1682.0351	9741.85	8840.65
904.827	1683.7646	9607.35	8702.25
904.9686	1685.4934	9550.25	8650.45
905.1101	1687.2215	9484.25	8585.35
905.2517	1688.9488	9387.15	8488.1
905.3932	1690.6754	9325	8427.4
905.5347	1692.4012	9334	8434.25
905.6761	1694.1263	9260.35	8361.3
905.8176	1695.8506	9198.4	8298.5
905.9591	1697.5742	9158.45	8261.45
906.1005	1699.297	9111.95	8217.05
906.2419	1701.0191	9047.85	8153.6
906.3833	1702.7404	9013.25	8119.55
906.5246	1704.461	8951.45	8054.75
906.666	1706.1808	8935.25	8038.2
906.8073	1707.8999	8890.8	7997.9
906.9487	1709.6182	8875.8	7983.1
907.09	1711.3358	8826.8	7937
907.2313	1713.0527	8780.35	7890.4
907.3725	1714.7688	8764.8	7866.95
907.5138	1716.4841	8720.75	7824.3
907.655	1718.1987	8709.1	7809.35
907.7962	1719.9126	8665.8	7774.7
907.9374	1721.6257	8621.65	7727.5
908.0786	1723.338	8620.5	7729.9
908.2198	1725.0496	8573.25	7677.55
908.3609	1726.7605	8553.1	7660.05
908.502	1728.4706	8540.6	7647.55
908.6431	1730.18	8479.1	7588.85
908.7842	1731.8886	8463.85	7573.75
908.9253	1733.5964	8456.55	7545.25
909.0664	1735.3036	8435.1	7540.15
909.2074	1737.0099	8385.3	7493.15
909.3484	1738.7156	8359.1	7469.05
909.4894	1740.4204	8311.15	7416.65
909.6304	1742.1246	8320.95	7426.55
909.7714	1743.8279	8284.85	7393.55
909.9123	1745.5306	8250.9	7363.4
910.0532	1747.2325	8224.8	7336.1
910.1941	1748.9336	8187.8	7297.85
910.335	1750.634	8168	7274.85
910.4759	1752.3336	8174.55	7281.95
910.6168	1754.0325	8133.95	7246.35
910.7576	1755.7307	8114.35	7225.75
910.8984	1757.4281	8100.65	7210.5
911.0392	1759.1247	8078.9	7179.75
911.18	1760.8206	8080.2	7180.45
911.3208	1762.5158	8074.5	7177.8
911.4615	1764.2102	8007.7	7116.2
911.6022	1765.9039	7983.75	7091.9
911.7429	1767.5968	7966.9	7077.65
911.8836	1769.289	7923.9	7036.05
912.0243	1770.9804	7916.4	7024.35
912.1649	1772.6711	7900.3	7005.75
912.3056	1774.361	7880.65	6985.25
912.4462	1776.0502	7865.7	6971.9
912.5868	1777.7386	7846.85	6952.25
912.7274	1779.4263	7810.7	6918.15
912.8679	1781.1132	7807.55	6919.95
913.0084	1782.7994	7792.4	6904.3
913.149	1784.4849	7765.3	6880.8
913.2895	1786.1696	7738	6844.55
913.4299	1787.8535	7721.5	6835.6
913.5704	1789.5367	7712.9	6829.1
913.7108	1791.2192	7718.05	6829.55
913.8513	1792.9009	7671	6757.75
913.9917	1794.5818	7659	6765.95
914.132	1796.2621	7641.75	6751.45
914.2724	1797.9415	7610.85	6719.35
914.4128	1799.6202	7611.25	6720.1
914.5531	1801.2982	7572.15	6682
914.6934	1802.9755	7548.7	6653.65
914.8337	1804.6519	7544.5	6652.15
914.9739	1806.3277	7525	6637.55
915.1142	1808.0027	7472.75	6588.1
915.2544	1809.6769	7479.9	6595.2
915.3946	1811.3504	7453.6	6568.75
915.5348	1813.0231	7436.35	6550.75
915.675	1814.6951	7438.85	6549.95
915.8151	1816.3664	7438.8	6547
915.9553	1818.0369	7414.75	6524.05
916.0954	1819.7067	7401.5	6513.65
916.2355	1821.3757	7369.4	6477.6
916.3755	1823.044	7358	6465.2
916.5156	1824.7115	7327.05	6435.05
916.6556	1826.3783	7313.35	6424.4
916.7956	1828.0443	7285.75	6395.8
916.9356	1829.7096	7264.6	6372.2
917.0756	1831.3741	7265.3	6373.3
917.2155	1833.0379	7257.25	6371.7
917.3555	1834.701	7220.45	6334.1
917.4954	1836.3633	7222.35	6335.3
917.6353	1838.0248	7193.65	6304.75
917.7751	1839.6856	7189.6	6303.15
917.915	1841.3457	7166	6277.35
918.0548	1843.005	7178.5	6289.45
918.1946	1844.6636	7143.25	6254.6
918.3344	1846.3214	7121.25	6231.4
918.4742	1847.9785	7119.45	6231.55
918.6139	1849.6349	7108.4	6216.3
918.7537	1851.2904	7115.4	6214.7
918.8934	1852.9453	7081.9	6188.15
919.0331	1854.5994	7057.6	6163.7
919.1727	1856.2528	7053.1	6158.2
919.3124	1857.9054	7030.4	6139.95
919.452	1859.5572	7004.75	6117.95
919.5916	1861.2083	7017.9	6128.55
919.7312	1862.8587	7001.3	6110.8
919.8708	1864.5084	6986.55	6094
920.0103	1866.1572	6962.05	6068.95
920.1498	1867.8054	6938.65	6044.8
920.2893	1869.4528	6924.2	6031.5
920.4288	1871.0994	6905.65	6014.45
920.5683	1872.7453	6889.4	5999.5
920.7077	1874.3905	6904.35	5998.5
920.8471	1876.0349	6849.35	5958.3
920.9865	1877.6786	6842.3	5951.1
921.1259	1879.3215	6829.85	5939.6
921.2653	1880.9637	6822.9	5933.9
921.4046	1882.6051	6793.45	5905.65
921.5439	1884.2458	6791.2	5901.5
921.6832	1885.8858	6751.55	5862.5
921.8225	1887.525	6738.9	5847.95
921.9617	1889.1634	6700.25	5811.65
922.101	1890.8011	6706.85	5815.4
922.2402	1892.4381	6682.15	5793.45
922.3794	1894.0743	6688	5802.75
922.5185	1895.7098	6665.15	5776.5
922.6577	1897.3446	6646.65	5753.75
922.7968	1898.9786	6630.3	5738.05
922.9359	1900.6118	6623	5735.9
923.075	1902.2443	6572.95	5681.95
923.214	1903.8761	6581.1	5694.35
923.3531	1905.5071	6547.55	5657
923.4921	1907.1374	6544.45	5655.3
923.6311	1908.7669	6533.35	5646.4
923.77	1910.3957	6519.65	5633.35
923.909	1912.0237	6471.65	5583.05
924.0479	1913.651	6453.95	5564.1
924.1868	1915.2776	6443.95	5557.75
924.3257	1916.9034	6423.8	5537.55
924.4646	1918.5285	6383.25	5499.35
924.6034	1920.1528	6366.3	5479.2
924.7422	1921.7764	6349.85	5462.25
924.881	1923.3992	6326.15	5436.15
925.0198	1925.0213	6301.7	5412.3
925.1586	1926.6427	6255.7	5369.4
925.2973	1928.2633	6338.1	5348.85
925.436	1929.8832	6263.55	5372.75
925.5747	1931.5023	6217.9	5332.25
925.7134	1933.1207	6227.95	5340.15
925.852	1934.7383	6209.25	5321.3
925.9906	1936.3552	6163.5	5276.2
926.1292	1937.9714	6175.3	5285.3
926.2678	1939.5868	6126.1	5237.45
926.4064	1941.2015	6123.35	5232.45
926.5449	1942.8154	6078.75	5186.7
926.6834	1944.4286	6055.55	5166.1
926.8219	1946.041	6062.9	5150.1
926.9604	1947.6528	6020.65	5128.2
927.0988	1949.2637	6013.1	5128.3
927.2372	1950.8739	5972.45	5085.1
927.3756	1952.4834	5955.8	5068.6
927.514	1954.0921	5945.15	5060
927.6523	1955.7001	5932.6	5043
927.7907	1957.3074	5891.35	5007.7
927.929	1958.9139	5890.75	5009.6
928.0673	1960.5197	5888.15	4999.65
928.2055	1962.1247	5858.85	4974.6
928.3438	1963.729	5837.6	4955.6
928.482	1965.3325	5820.6	4931.65
928.6202	1966.9353	5796.7	4915.55
928.7584	1968.5374	5778.8	4891.95
928.8965	1970.1387	5781.15	4897
929.0346	1971.7393	5745.05	4861.3
929.1727	1973.3392	5739.75	4855.65
929.3108	1974.9383	5697.15	4816.25
929.4489	1976.5366	5668.35	4785.75
929.5869	1978.1342	5661	4778.7
929.7249	1979.7311	5657.5	4776.25
929.8629	1981.3273	5639.8	4758
930.0009	1982.9227	5637	4753.7
930.1388	1984.5173	5618.9	4736.9
930.2767	1986.1112	5593.9	4712.65
930.4146	1987.7044	5592.95	4714.7
930.5525	1989.2968	5566.85	4685.15
930.6904	1990.8885	5540.1	4655.55
930.8282	1992.4795	5539.3	4659.5
930.966	1994.0697	5522.55	4645.3
931.1038	1995.6592	5498	4617.3
931.2415	1997.2479	5494.85	4615.3
931.3793	1998.8359	5477.95	4598.2
931.517	2000.4232	5430.35	4552.45
931.6547	2002.0097	5445.6	4570.15
931.7923	2003.5955	5410.6	4534.95
931.93	2005.1805	5394.95	4515.15
932.0676	2006.7648	5403.15	4524.85
932.2052	2008.3484	5366.75	4488.7
932.3427	2009.9312	5388.65	4510.7
932.4803	2011.5133	5369.9	4496.15
932.6178	2013.0946	5337.55	4460.75
932.7553	2014.6752	5325.8	4448.45
932.8928	2016.2551	5307.1	4427.5
933.0302	2017.8342	5297	4417.9
933.1676	2019.4126	5271.5	4393.7
933.305	2020.9902	5259.75	4385.15
933.4424	2022.5672	5244.35	4366.55
933.5798	2024.1433	5229.75	4349.8
933.7171	2025.7188	5210.8	4336.8
933.8544	2027.2935	5204.8	4329.05
933.9917	2028.8674	5181.15	4306.05
934.129	2030.4406	5179.65	4303.85
934.2662	2032.0131	5171.9	4299.7
934.4034	2033.5849	5153.2	4274.65
934.5406	2035.1559	5153.7	4278.5
934.6778	2036.7261	5124.9	4248.1
934.8149	2038.2957	5118.5	4237.5
934.952	2039.8645	5115.2	4235.1
935.0891	2041.4325	5112	4228.3
935.2262	2042.9998	5091.55	4213.6
935.3632	2044.5664	5072.45	4193
935.5002	2046.1323	5070.1	4193.95
935.6372	2047.6974	5026.85	4152.8
935.7742	2049.2617	5026.2	4149.1
935.9111	2050.8254	5031.8	4151.4
936.048	2052.3883	5022.05	4144.55
936.1849	2053.9504	5007.35	4126.45
936.3218	2055.5118	4981.95	4101.9
936.4586	2057.0725	4968.75	4086.1
936.5955	2058.6325	4957.8	4080.6
936.7323	2060.1917	4950.95	4075.55
936.869	2061.7502	4931.4	4052.3
937.0058	2063.3079	4915.25	4038.95
937.1425	2064.8649	4893.3	4013.45
937.2792	2066.4212	4886	4008.1
937.4159	2067.9767	4885.85	4007.35
937.5525	2069.5315	4873.4	3993.05
937.6891	2071.0856	4858.05	3980.5
937.8257	2072.6389	4829.4	3953.4
937.9623	2074.1915	4825.85	3950.25
938.0989	2075.7433	4786.7	3907.7
938.2354	2077.2945	4773.25	3894.75
938.3719	2078.8448	4779.35	3899.1
938.5084	2080.3945	4757.75	3877.85
938.6448	2081.9434	4752.6	3872.45
938.7812	2083.4916	4738.85	3856.4
938.9176	2085.039	4740.55	3852.05
939.054	2086.5857	4728.25	3839.3
939.1903	2088.1317	4717	3829.5
939.3267	2089.677	4701.55	3815.25
939.463	2091.2215	4676.55	3790.25
939.5992	2092.7652	4634.95	3749.05
939.7355	2094.3083	4643.4	3759.3
939.8717	2095.8506	4657.3	3777.3
940.0079	2097.3921	4646.5	3765.35
940.1441	2098.933	4635.05	3755.85
940.2802	2100.4731	4621.75	3740.35
940.4163	2102.0124	4636.1	3737.5
940.5524	2103.5511	4601.25	3719.6
940.6885	2105.089	4589.8	3704.8
940.8245	2106.6261	4583.55	3703.3
940.9606	2108.1626	4580.25	3696.5
941.0965	2109.6983	4598.25	3687.15
941.2325	2111.2332	4555.35	3673.15
941.3684	2112.7675	4558.25	3674.05
941.5044	2114.301	4544.85	3660.8
941.6403	2115.8337	4530.5	3647.4
941.7761	2117.3657	4507.5	3625.95
941.912	2118.897	4510.8	3625.75
942.0478	2120.4276	4494.75	3604.75
942.1835	2121.9575	4480.95	3597.15
942.3193	2123.4866	4481.1	3584.6
942.455	2125.0149	4467.9	3582.5
942.5907	2126.5426	4454.5	3577
942.7264	2128.0695	4411.45	3528.3
942.8621	2129.5956	4416.3	3540.5
942.9977	2131.1211	4421.6	3538.4
943.1333	2132.6458	4406.65	3525.7
943.2689	2134.1698	4414.55	3529.45
943.4044	2135.693	4404.85	3516.45
943.54	2137.2155	4381.95	3496.95
943.6755	2138.7373	4373.9	3492.25
943.8109	2140.2584	4340.1	3460.5
943.9464	2141.7787	4345.6	3463.5
944.0818	2143.2983	4313.6	3438.15
944.2172	2144.8171	4302.8	3428.4
944.3526	2146.3353	4299.6	3419.55
944.4879	2147.8527	4302.95	3424.05
944.6232	2149.3693	4300.2	3417.5
944.7585	2150.8853	4281.75	3398.65
944.8938	2152.4005	4246.25	3363.2
945.029	2153.9149	4252.95	3365.85
945.1642	2155.4287	4238.05	3353.7
945.2994	2156.9417	4242.45	3358.85
945.4346	2158.454	4221.05	3338.45
945.5697	2159.9655	4217.2	3340.2
945.7048	2161.4764	4207.45	3325.45
945.8399	2162.9865	4180.4	3303.1
945.9749	2164.4958	4167.8	3287.75
946.1099	2166.0045	4158.25	3276
946.2449	2167.5124	4176.45	3295.75
946.3799	2169.0195	4147.05	3264.65
946.5148	2170.526	4159.1	3274.8
946.6498	2172.0317	4144.9	3263.15
946.7846	2173.5367	4131.6	3249.35
946.9195	2175.0409	4127.55	3246.2
947.0543	2176.5445	4109.9	3231.05
947.1891	2178.0473	4097	3214.4
947.3239	2179.5494	4102.85	3216.15
947.4587	2181.0507	4087.25	3208.05
947.5934	2182.5513	4073.65	3190.8
947.7281	2184.0512	4053.55	3170.3
947.8628	2185.5504	4052.1	3172.05
947.9974	2187.0488	4032.2	3151.95
948.132	2188.5465	4028.6	3150.1
948.2666	2190.0435	4003.8	3121.45
948.4012	2191.5397	4001.95	3120.3
948.5357	2193.0353	3987.35	3104
948.6702	2194.5301	3979.4	3095.55
948.8047	2196.0241	3975.6	3089.6
948.9392	2197.5175	3972	3086.1
949.0736	2199.0101	3946.1	3056.35
949.208	2200.502	3933.25	3049.6
949.3424	2201.9931	3922.7	3040.5
949.4767	2203.4835	3911.8	3033
949.611	2204.9733	3907.9	3019.85
949.7453	2206.4622	3901.45	3024.5
949.8796	2207.9505	3875	2994.75
950.0138	2209.438	3854.75	2979.2
950.148	2210.9248	3859.1	2978.65
950.2822	2212.4109	3852.85	2969.95
950.4164	2213.8962	3837.15	2949.75
950.5505	2215.3809	3850.35	2965.15
950.6846	2216.8648	3833.55	2945.4
950.8186	2218.3479	3828.85	2935.8
950.9527	2219.8304	3794.45	2901.25
951.0867	2221.3121	3793.85	2903.05
951.2207	2222.7931	3776.15	2891.65
951.3546	2224.2733	3769.15	2883.7
951.4886	2225.7529	3760.5	2879
951.6225	2227.2317	3759	2874.85
951.7563	2228.7098	3729.7	2851.7
951.8902	2230.1872	3731.4	2852.05
952.024	2231.6638	3715.7	2836.45
952.1578	2233.1397	3709.3	2824.45
952.2916	2234.6149	3712	2833
952.4253	2236.0894	3701.4	2819.95
952.559	2237.5632	3685.2	2790.2
952.6927	2239.0362	3655.1	2773.45
952.8263	2240.5085	3662.15	2779.85
952.9599	2241.9801	3650.4	2766.45
953.0935	2243.4509	3644.1	2758
953.2271	2244.921	3634.8	2750.7
953.3606	2246.3904	3625.6	2737.5
953.4941	2247.8591	3605.1	2721.9
953.6276	2249.3271	3593.9	2709.15
953.7611	2250.7943	3602	2716.3
953.8945	2252.2608	3589.4	2704
954.0279	2253.7266	3576	2692.3
954.1612	2255.1917	3574.35	2692.2
954.2946	2256.656	3554.65	2672.7
954.4279	2258.1197	3550.95	2671.65
954.5612	2259.5826	3537.4	2654.75
954.6944	2261.0447	3526.35	2641.6
954.8276	2262.5062	3522.3	2636.7
954.9608	2263.9669	3523.95	2636.95
955.094	2265.4269	3507.55	2624.3
955.2271	2266.8862	3504.5	2622.55
955.3602	2268.3448	3493	2611.75
955.4933	2269.8026	3503.75	2622.7
955.6264	2271.2598	3485.2	2603.95
955.7594	2272.7162	3476.85	2595.1
955.8924	2274.1719	3471.6	2589.05
956.0253	2275.6268	3456.5	2569.6
956.1583	2277.0811	3457.4	2574.55
956.2912	2278.5346	3454.7	2575.2
956.4241	2279.9874	3444.25	2562.6
956.5569	2281.4395	3434.3	2555.45
956.6897	2282.8908	3429.25	2543.35
956.8225	2284.3414	3428.2	2545.35
956.9553	2285.7914	3410.3	2527.8
957.088	2287.2406	3398.8	2514.2
957.2207	2288.689	3374.6	2487.75
957.3534	2290.1368	3395.9	2508.75
957.486	2291.5838	3385.35	2491.8
957.6186	2293.0302	3394.45	2504.7
957.7512	2294.4758	3361.4	2473.6
957.8838	2295.9206	3336.3	2448.8
958.0163	2297.3648	3344.05	2462.45
958.1488	2298.8082	3341.05	2458.75
958.2813	2300.251	3327.1	2443.95
958.4137	2301.693	3323.05	2433.05
958.5461	2303.1343	3311.1	2427.5
958.6785	2304.5748	3313.35	2428.4
958.8108	2306.0147	3303.15	2418.8
958.9432	2307.4538	3295.85	2413.4
959.0754	2308.8922	3281.05	2401.65
959.2077	2310.3299	3268.8	2387.5
959.3399	2311.7669	3274.55	2392.85
959.4721	2313.2031	3255.5	2373.75
959.6043	2314.6387	3260.15	2376.6
959.7365	2316.0735	3248.25	2365.85
959.8686	2317.5076	3232.55	2349.9
960.0006	2318.941	3225.3	2341.45
960.1327	2320.3737	3239.45	2354
960.2647	2321.8056	3233.5	2347.2
960.3967	2323.2369	3210.15	2323.2
960.5287	2324.6674	3196.75	2311.15
960.6606	2326.0972	3201.55	2316.8
960.7925	2327.5263	3193.05	2307.6
960.9244	2328.9547	3181.3	2295.95
961.0562	2330.3823	3169.7	2282.1
961.1881	2331.8092	3181.5	2289.65
961.3198	2333.2355	3155.75	2268.65
961.4516	2334.661	3163.3	2274.25
961.5833	2336.0858	3134.95	2247.3
961.715	2337.5098	3139.45	2256
961.8467	2338.9332	3130.5	2245.6
961.9783	2340.3558	3120.15	2233.8
962.1099	2341.7778	3115.25	2232.25
962.2415	2343.199	3101.8	2217.1
962.373	2344.6195	3094.15	2213.15
962.5045	2346.0393	3089.85	2207.8
962.636	2347.4583	3105.05	2221.35
962.7675	2348.8767	3085.55	2201.6
962.8989	2350.2943	3076.35	2190.2
963.0303	2351.7113	3083.3	2193.05
963.1617	2353.1275	3080.7	2194.15
963.293	2354.543	3092.8	2183.8
963.4243	2355.9578	3063.55	2178.7
963.5556	2357.3718	3042	2159.6
963.6868	2358.7852	3045.65	2162.3
963.818	2360.1978	3034	2151.55
963.9492	2361.6098	3025.75	2145.35
964.0803	2363.021	3029.4	2143
964.2114	2364.4315	3004.75	2121.75
964.3425	2365.8413	3007	2123.75
964.4736	2367.2504	2994.95	2113.55
964.6046	2368.6587	2977.25	2097.3
964.7356	2370.0664	2967.05	2087.9
964.8666	2371.4733	2969.6	2088
964.9975	2372.8795	2966.8	2085.6
965.1284	2374.285	2949.65	2067.5
965.2593	2375.6899	2933	2052.9
965.3901	2377.0939	2931.9	2052.1
965.5209	2378.4973	2933.75	2052.85
965.6517	2379.9	2922.95	2041.05
965.7825	2381.3019	2912.5	2032.2
965.9132	2382.7032	2913.05	2032.4
966.0439	2384.1037	2904.15	2027.45
966.1745	2385.5035	2893.65	2016.45
966.3051	2386.9027	2887.65	2010.95
966.4357	2388.3011	2879.5	2000.35
966.5663	2389.6987	2873.5	1997
966.6968	2391.0957	2862.5	1981.8
966.8273	2392.492	2845.15	1969.3
966.9578	2393.8876	2840.4	1962.9
967.0882	2395.2824	2829.5	1950.1
967.2186	2396.6765	2822.8	1942.3
967.349	2398.07	2825.8	1945.4
967.4793	2399.4627	2824.9	1944.55
967.6097	2400.8547	2810.15	1929.45
967.7399	2402.246	2820	1935.7
967.8702	2403.6366	2802.6	1923.95
968.0004	2405.0265	2802.55	1921.8
968.1306	2406.4156	2784.1	1899.8
968.2607	2407.8041	2770.4	1886.6
968.3909	2409.1918	2774.65	1893.65
968.521	2410.5789	2760.85	1880.5
968.651	2411.9652	2749.5	1866.2
968.781	2413.3508	2749.2	1870.3
968.911	2414.7358	2751.4	1870.85
969.041	2416.12	2736.1	1857.1
969.1709	2417.5035	2727.65	1847.4
969.3008	2418.8863	2723.55	1843.4
969.4307	2420.2684	2720.75	1838.75
969.5606	2421.6497	2716.1	1836.65
969.6904	2423.0304	2691.15	1810.7
969.8201	2424.4104	2674.1	1794.9
969.9499	2425.7896	2687.05	1807.35
970.0796	2427.1682	2677.9	1797.8
970.2093	2428.546	2669.45	1790.1
970.3389	2429.9232	2674.6	1791.5
970.4685	2431.2996	2659.6	1781.4
970.5981	2432.6753	2657.3	1777.85
970.7277	2434.0503	2657.7	1778.95
970.8572	2435.4246	2653.05	1770.15
970.9867	2436.7982	2646.9	1764.4
971.1161	2438.1711	2636.3	1755.1
971.2456	2439.5433	2631	1748.1
971.375	2440.9148	2628.05	1741.85
971.5043	2442.2856	2612.4	1731.9
971.6336	2443.6557	2604.6	1722.9
971.7629	2445.025	2603.25	1723.95
971.8922	2446.3937	2597	1714.15
972.0214	2447.7617	2593	1709.9
972.1506	2449.1289	2590.6	1710.85
972.2798	2450.4955	2590.5	1707
972.4089	2451.8613	2589.65	1707.5
972.538	2453.2265	2577.35	1696.55
972.6671	2454.5909	2558.75	1678.1
972.7961	2455.9546	2563.7	1684.15
972.9251	2457.3177	2557.2	1676.15
973.0541	2458.68	2540.5	1659.7
973.1831	2460.0416	2554.05	1674.5
973.312	2461.4025	2548.1	1666.75
973.4408	2462.7627	2560.65	1670.7
973.5697	2464.1222	2527.8	1649.15
973.6985	2465.4811	2531.95	1650.5
973.8273	2466.8392	2535.55	1652.6
973.956	2468.1966	2534.7	1651.25
974.0847	2469.5533	2531.8	1647.15
974.2134	2470.9093	2521	1639.4
974.3421	2472.2645	2513.05	1632.5
974.4707	2473.6191	2510.65	1631.85
974.5993	2474.973	2503.15	1622.65
974.7278	2476.3262	2499.3	1616.85
974.8563	2477.6787	2491.25	1613.45
974.9848	2479.0305	2484.15	1603.55
975.1132	2480.3816	2476.15	1593
975.2417	2481.7319	2476.95	1594.25
975.37	2483.0816	2462.05	1580.2
975.4984	2484.4306	2456.65	1575.55
975.6267	2485.7789	2462.25	1581.65
975.755	2487.1264	2447.35	1564.1
975.8833	2488.4733	2438.25	1558.95
976.0115	2489.8195	2435.6	1539.35
976.1397	2491.165	2434.5	1552.45
976.2678	2492.5097	2429.2	1549.4
976.3959	2493.8538	2413.4	1533.05
976.524	2495.1972	2404.9	1524.4
976.6521	2496.5398	2409.55	1528.05
976.7801	2497.8818	2409.8	1525.05
976.9081	2499.2231	2388.8	1506.6
977.036	2500.5637	2399.35	1516.6
977.164	2501.9035	2380.35	1497.15
977.2918	2503.2427	2391.1	1507.25
977.4197	2504.5812	2371.05	1488.9
977.5475	2505.919	2369.95	1486.45
977.6753	2507.256	2357.5	1476.75
977.8031	2508.5924	2365.5	1485.15
977.9308	2509.9281	2362.2	1474.85
978.0585	2511.2631	2351.85	1471.8
978.1861	2512.5974	2339.45	1460.15
978.3137	2513.9309	2339.85	1458.9
978.4413	2515.2638	2348.7	1439.2
978.5689	2516.596	2350.7	1470.55
978.6964	2517.9275	2328.15	1446.9
978.8239	2519.2583	2310.1	1428.2
978.9513	2520.5884	2319.85	1437.35
979.0788	2521.9178	2318.6	1437.7
979.2062	2523.2465	2312.65	1432.6
979.3335	2524.5745	2300.65	1420.8
979.4608	2525.9018	2307.6	1425.2
979.5881	2527.2284	2290.2	1411.35
979.7154	2528.5543	2277.5	1398.5
979.8426	2529.8796	2283	1401.65
979.9698	2531.2041	2286.3	1406.55
980.0969	2532.5279	2279.05	1397.4
980.224	2533.851	2277.5	1398.4
980.3511	2535.1735	2265.7	1384.95
980.4781	2536.4952	2271.4	1389.4
980.6052	2537.8163	2265.45	1384.4
980.7321	2539.1366	2260.45	1377.7
980.8591	2540.4562	2257.15	1374.3
980.986	2541.7752	2258	1375.75
981.1129	2543.0935	2252.15	1366.45
981.2397	2544.411	2250.65	1368.45
981.3665	2545.7279	2241.5	1361.25
981.4933	2547.0441	2243.05	1361.85
981.62	2548.3596	2243.15	1359.4
981.7467	2549.6744	2225.7	1342.9
981.8734	2550.9885	2240	1348.65
982.0001	2552.3019	2228.5	1349.7
982.1267	2553.6146	2219.9	1337.9
982.2532	2554.9266	2213.05	1329.4
982.3798	2556.2379	2210.25	1325.3
982.5063	2557.5485	2208.7	1327.25
982.6327	2558.8585	2214.15	1324.55
982.7592	2560.1677	2207.95	1321.25
982.8856	2561.4762	2204.4	1323.35
983.0119	2562.7841	2202.05	1317.5
983.1383	2564.0913	2192.25	1314.15
983.2646	2565.3977	2184.55	1302.05
983.3908	2566.7035	2180.5	1298.3
983.517	2568.0086	2194.05	1312
983.6432	2569.313	2182.2	1298.35
983.7694	2570.6167	2174.3	1287.95
983.8955	2571.9197	2179	1296.85
984.0216	2573.222	2177.45	1291.9
984.1476	2574.5236	2174.25	1293.1
984.2737	2575.8246	2166.35	1281.6
984.3996	2577.1248	2165.75	1279.75
984.5256	2578.4244	2154.05	1271.55
984.6515	2579.7232	2158.8	1276
984.7774	2581.0214	2180.25	1263.6
984.9032	2582.3189	2155.65	1274.4
985.029	2583.6157	2151.3	1263.15
985.1548	2584.9118	2159.7	1276.7
985.2806	2586.2072	2152.1	1267.5
985.4063	2587.5019	2152.3	1269.9
985.5319	2588.7959	2142.75	1258.25
985.6576	2590.0893	2145.75	1262.25
985.7832	2591.3819	2140.9	1260
985.9087	2592.6739	2147.3	1265.4
986.0343	2593.9652	2147.15	1264.1
986.1597	2595.2557	2137.6	1255.75
986.2852	2596.5456	2131.1	1246.3
986.4106	2597.8348	2139.6	1258
986.536	2599.1234	2114.8	1235.25
986.6614	2600.4112	2126.3	1243.3
986.7867	2601.6983	2122.4	1238.55
986.912	2602.9848	2121.5	1239.6
987.0372	2604.2705	2125	1238
987.1624	2605.5556	2123	1242.75
987.2876	2606.84	2113.15	1229.8
987.4128	2608.1237	2105.85	1224.45
987.5379	2609.4067	2091	1210.4
987.6629	2610.689	2110.45	1219.9
987.788	2611.9707	2094.3	1207.95
987.913	2613.2516	2096.2	1208.85
988.0379	2614.5319	2087.6	1205.6
988.1629	2615.8115	2077.7	1196.7
988.2878	2617.0903	2068.55	1185.5
988.4126	2618.3685	2071.3	1188.2
988.5375	2619.6461	2063.5	1178.85
988.6622	2620.9229	2071.05	1191.35
988.787	2622.199	2072.2	1191.95
988.9117	2623.4745	2055.25	1173.8
989.0364	2624.7493	2055.7	1173.5
989.161	2626.0234	2045.5	1165.75
989.2857	2627.2968	2047.35	1164
989.4102	2628.5695	2042.4	1157.6
989.5348	2629.8415	2039.3	1159.4
989.6593	2631.1128	2036.65	1152.5
989.7837	2632.3835	2034.65	1154.4
989.9082	2633.6535	2026.65	1146.95
990.0326	2634.9228	2023.85	1142.75
990.1569	2636.1914	2020.75	1138.5
990.2812	2637.4593	2023.35	1141.9
990.4055	2638.7265	2012.8	1129.5
990.5298	2639.9931	2003.7	1120.45
990.654	2641.259	2012	1129.55
990.7782	2642.5242	2005.45	1122.7
990.9023	2643.7887	2005.45	1123.7
991.0264	2645.0525	1996.25	1114.25
991.1505	2646.3156	1996.75	1112.55
991.2745	2647.5781	1992.3	1111.65
991.3985	2648.8398	1983.2	1101
991.5225	2650.1009	1992.1	1101.9
991.6464	2651.3613	1994.9	1111.35
991.7703	2652.6211	1972.95	1091.9
991.8942	2653.8801	1975.2	1095
992.018	2655.1385	1973.9	1088.5
992.1418	2656.3961	1979.15	1098.9
992.2655	2657.6531	1960.65	1078.9
992.3892	2658.9094	1973.3	1091.6
992.5129	2660.1651	1962.7	1081.4
992.6366	2661.42	1969.55	1088.6
992.7602	2662.6743	1972.55	1091.2
992.8837	2663.9279	1965.6	1087.4
993.0073	2665.1808	1958.25	1077.05
993.1307	2666.433	1955	1072.8
993.2542	2667.6846	1958.45	1078.25
993.3776	2668.9354	1961.5	1076
993.501	2670.1856	1960.1	1075.4
993.6244	2671.4351	1966.9	1088.15
993.7477	2672.6839	1974.25	1092.05
993.8709	2673.9321	1953.6	1073.7
993.9942	2675.1795	1958.2	1074.6
994.1174	2676.4263	1958.25	1077.2
994.2405	2677.6724	1955.8	1074.35
994.3637	2678.9179	1961.6	1080.25
994.4868	2680.1626	1958.05	1077.55
994.6098	2681.4067	1951.5	1068.15
994.7328	2682.6501	1950.75	1069.9
994.8558	2683.8928	1956.3	1075.85
994.9788	2685.1348	1939.1	1058.3
995.1017	2686.3761	1937.6	1056.65
995.2245	2687.6168	1934	1052.55
995.3474	2688.8568	1920.25	1036.6
995.4702	2690.0961	1919.55	1041
995.5929	2691.3348	1915.5	1034.85
995.7156	2692.5727	1903.15	1022.5
995.8383	2693.81	1903.4	1023.55
995.961	2695.0466	1904	1024.35
996.0836	2696.2826	1902.5	1020.3
996.2062	2697.5178	1895.6	1011.05
996.3287	2698.7524	1902.7	1022.55
996.4512	2699.9863	1896.25	1014.1
996.5737	2701.2195	1895.15	1016.2
996.6961	2702.452	1906.55	1022.55
996.8185	2703.6839	1905.5	1025.85
996.9408	2704.9151	1902.1	1022.5
997.0631	2706.1456	1901.15	1021.9
997.1854	2707.3755	1914.3	1033.45
997.3077	2708.6046	1905.35	1021.5
997.4299	2709.8331	1920.3	1038.4
997.552	2711.0609	1923.9	1042.05
997.6742	2712.2881	1931.7	1049.65
997.7963	2713.5145	1945.55	1061.55
997.9183	2714.7403	1942.95	1063
998.0403	2715.9654	1950.4	1069.85
998.1623	2717.1899	1969.2	1075.1
998.2842	2718.4136	1967.05	1087.55
998.4062	2719.6367	1978.2	1095.65
998.528	2720.8591	1990.2	1101.55
998.6498	2722.0809	1994.6	1113.4
998.7716	2723.3019	1997.45	1114.8
998.8934	2724.5223	2012.7	1129.6
999.0151	2725.7421	2012.9	1130.85
999.1368	2726.9611	2006.45	1123.65
999.2584	2728.1795	2010.75	1125.8
999.38	2729.3972	1998.6	1117.4
999.5016	2730.6142	1995.95	1103.05
999.6231	2731.8306	1972.6	1089.9
999.7446	2733.0462	1952.15	1068.35
999.8661	2734.2612	1938.9	1053.55
999.9875	2735.4756	1921.8	1040.35
1000.1089	2736.6892	1904.25	1026.35
1000.2302	2737.9022	1890.45	1012.1
1000.3515	2739.1145	1866	986.95
1000.4728	2740.3262	1863.9	974.45
1000.594	2741.5372	1839.15	958.85
1000.7152	2742.7475	1826.6	947.65
1000.8363	2743.9571	1818.55	935.25
1000.9575	2745.1661	1815.9	928.85
1001.0785	2746.3744	1798.75	916.8
1001.1996	2747.582	1790.75	912.7
1001.3206	2748.7889	1778.65	894.6
1001.4415	2749.9952	1764.85	886
1001.5625	2751.2008	1764.6	881.05
1001.6833	2752.4057	1760.9	879.35
1001.8042	2753.61	1750.7	870.45
1001.925	2754.8136	1757.45	876.65
1002.0458	2756.0165	1742.2	862.1
1002.1665	2757.2188	1741.25	861.65
1002.2872	2758.4204	1741.6	862.85
1002.4078	2759.6213	1732.6	851.4
1002.5285	2760.8215	1735.1	850.25
1002.649	2762.0211	1747.15	864.95
1002.7696	2763.22	1740.55	858.9
1002.8901	2764.4182	1728.55	846.25
1003.0106	2765.6158	1718.45	836
1003.131	2766.8127	1717	838.35
1003.2514	2768.009	1709.9	830.9
1003.3717	2769.2045	1716.05	833.55
1003.492	2770.3994	1711.8	830.65
1003.6123	2771.5936	1705.85	825.55
1003.7325	2772.7872	1701.3	822.9
1003.8527	2773.9801	1694.25	812.85
1003.9729	2775.1723	1704.25	809
1004.093	2776.3639	1691.5	814.85
1004.2131	2777.5548	1689.15	807.7
1004.3331	2778.745	1682.85	801.75
1004.4531	2779.9346	1690.1	808.15
1004.5731	2781.1235	1698.3	818.15
1004.693	2782.3117	1693.6	814.8
1004.8129	2783.4992	1696.4	818.5
1004.9328	2784.6861	1691.25	813.55
1005.0526	2785.8723	1705.2	826.05
1005.1723	2787.0579	1704.4	825.45
1005.2921	2788.2428	1717.3	841.5
1005.4118	2789.427	1713.8	834.05
1005.5314	2790.6106	1725.05	847
1005.651	2791.7935	1731.05	850.9
1005.7706	2792.9757	1739.75	861.75
1005.8902	2794.1573	1748.55	868.95
1006.0097	2795.3382	1761.65	883
1006.1291	2796.5184	1772.55	895.25
1006.2485	2797.698	1782.5	900.7
1006.3679	2798.8769	1795.9	918.55
1006.4873	2800.0551	1813.4	934.9
1006.6066	2801.2327	1833.35	952
1006.7258	2802.4096	1843.65	965.9
1006.8451	2803.5859	1866.65	989.45
1006.9642	2804.7615	1886.35	1006.25
1007.0834	2805.9364	1906.3	1028.65
1007.2025	2807.1106	1926.05	1048.15
1007.3216	2808.2842	1960.95	1081.15
1007.4406	2809.4572	1983.9	1105.85
1007.5596	2810.6294	2023.7	1143.5
1007.6785	2811.801	2066.5	1188.7
1007.7975	2812.972	2101.45	1223
1007.9163	2814.1423	2132.55	1253.6
1008.0352	2815.3119	2181.65	1303.55
1008.154	2816.4808	2224.7	1344.2
1008.2727	2817.6491	2278.7	1399.45
1008.3914	2818.8167	2331.55	1456.45
1008.5101	2819.9837	2374.4	1491.1
1008.6288	2821.15	2418.95	1541.45
1008.7474	2822.3157	2470.8	1591.9
1008.8659	2823.4807	2518.9	1639.55
1008.9844	2824.645	2551.2	1671.4
1009.1029	2825.8086	2600.2	1723.1
1009.2214	2826.9716	2640.35	1762.05
1009.3398	2828.134	2694.5	1817.65
1009.4581	2829.2957	2723.8	1845.85
1009.5764	2830.4567	2763.4	1886.75
1009.6947	2831.617	2771.5	1893.55
1009.813	2832.7767	2782.8	1905.25
1009.9312	2833.9358	2793.8	1916.3
1010.0493	2835.0941	2778.6	1899.4
1010.1675	2836.2519	2762.65	1885.7
1010.2855	2837.4089	2744.25	1863.95
1010.4036	2838.5653	2751.75	1873.45
1010.5216	2839.7211	2748.4	1871.05
1010.6396	2840.8761	2750	1869.2
1010.7575	2842.0306	2772.6	1896.7
1010.8754	2843.1843	2809.4	1930.85
1010.9932	2844.3374	2855.95	1978.3
1011.111	2845.4899	2919.25	2040.1
1011.2288	2846.6417	2985.25	2107.55
1011.3465	2847.7928	3052.7	2175.75
1011.4642	2848.9433	3119.5	2242.35
1011.5818	2850.0931	3200.4	2320.95
1011.6995	2851.2422	3283.45	2404.4
1011.817	2852.3907	3344.5	2465.65
1011.9345	2853.5385	3414.15	2533.3
1012.052	2854.6857	3479.6	2573.7
1012.1695	2855.8323	3514.1	2637.05
1012.2869	2856.9781	3566.85	2689.8
1012.4042	2858.1233	3607.55	2729.8
1012.5216	2859.2679	3654.05	2775.65
1012.6389	2860.4118	3709.7	2832.7
1012.7561	2861.555	3748.65	2864.35
1012.8733	2862.6976	3775.3	2897.05
1012.9905	2863.8395	3802.2	2924.9
1013.1076	2864.9808	3824.05	2947.5
1013.2247	2866.1214	3835.7	2960.55
1013.3417	2867.2614	3855.5	2976.4
1013.4587	2868.4007	3874.15	2995.55
1013.5757	2869.5393	3865.9	2985
1013.6926	2870.6773	3889.8	3008.5
1013.8095	2871.8146	3914.65	3033.9
1013.9263	2872.9513	3904.05	3021.4
1014.0431	2874.0874	3907.5	3029.2
1014.1599	2875.2227	3884.3	3006.35
1014.2766	2876.3574	3865.55	2988.7
1014.3933	2877.4915	3847.95	2971.5
1014.51	2878.6249	3810.9	2933.9
1014.6266	2879.7577	3790.6	2913.3
1014.7431	2880.8898	3780	2891.5
1014.8596	2882.0212	3760.3	2883.5
1014.9761	2883.152	3736.2	2860.5
1015.0925	2884.2821	3723.05	2846.8
1015.2089	2885.4116	3713.5	2835.25
1015.3253	2886.5405	3724.9	2846.95
1015.4416	2887.6686	3738.15	2859.1
1015.5579	2888.7962	3729.1	2850.6
1015.6741	2889.923	3742.2	2866.7
1015.7903	2891.0493	3766.35	2889.45
1015.9065	2892.1748	3765.05	2887.8
1016.0226	2893.2997	3768.65	2891
1016.1387	2894.424	3798.75	2925.6
1016.2547	2895.5476	3811.2	2934.7
1016.3707	2896.6706	3822.85	2946.25
1016.4866	2897.7929	3841.7	2963.15
1016.6025	2898.9145	3880.05	3003.3
1016.7184	2900.0355	3917.6	3040.05
1016.8342	2901.1559	3943.35	3064.2
1016.95	2902.2756	3968.75	3091.35
1017.0658	2903.3946	4011.2	3138
1017.1815	2904.513	4036.45	3155.7
1017.2971	2905.6308	4064.75	3188.9
1017.4127	2906.7479	4087.9	3212.75
1017.5283	2907.8643	4105.4	3227.4
1017.6439	2908.9801	4121.1	3242.95
1017.7594	2910.0953	4137.5	3259.15
1017.8748	2911.2098	4116.2	3236.65
1017.9902	2912.3236	4127.7	3242.6
1018.1056	2913.4368	4117.4	3238.35
1018.2209	2914.5494	4077.95	3200
1018.3362	2915.6613	4059.85	3180.1
1018.4515	2916.7725	4029.65	3147.95
1018.5667	2917.8831	3991.55	3114.9
1018.6819	2918.9931	3974.45	3096
1018.797	2920.1024	3943.05	3066.8
1018.9121	2921.211	3922.8	3045.6
1019.0271	2922.319	3895.6	3019.45
1019.1421	2923.4264	3883.85	3007.7
1019.2571	2924.5331	3860.7	2985.55
1019.372	2925.6391	3833.1	2957.05
1019.4869	2926.7445	3841.1	2965.05
1019.6017	2927.8493	3848.6	2971.35
1019.7165	2928.9534	3827.95	2950.55
1019.8313	2930.0569	3826.95	2948.75
1019.946	2931.1597	3835.8	2958.3
1020.0606	2932.2619	3805.8	2927.65
1020.1753	2933.3634	3798.95	2920.85
1020.2899	2934.4643	3791.35	2908.9
1020.4044	2935.5645	3771.65	2887.6
1020.5189	2936.6641	3752.9	2871.15
1020.6334	2937.763	3693.35	2817.05
1020.7478	2938.8613	3652.9	2776.75
1020.8622	2939.959	3600.7	2719.85
1020.9765	2941.056	3514.25	2641.65
1021.0908	2942.1523	3436.85	2558.75
1021.2051	2943.248	3334.9	2458.25
1021.3193	2944.3431	3256.25	2380.75
1021.4334	2945.4375	3154.05	2277.95
1021.5476	2946.5313	3040.6	2165.45
1021.6617	2947.6244	2944.7	2069.4
1021.7757	2948.7169	2855.35	1976.15
1021.8897	2949.8087	2754.1	1877.55
1022.0037	2950.8999	2665.5	1788.9
1022.1176	2951.9904	2571.5	1696.4
1022.2315	2953.0803	2504.15	1625.6
1022.3453	2954.1696	2446.75	1572.6
1022.4591	2955.2582	2394.05	1517.35
1022.5728	2956.3462	2336.45	1460.5
1022.6865	2957.4335	2311.45	1433.9
1022.8002	2958.5202	2278	1399.25
1022.9138	2959.6062	2240.05	1365.4
1023.0274	2960.6916	2228	1351.95
1023.141	2961.7764	2195.85	1320.8
1023.2545	2962.8605	2180.1	1303.75
1023.3679	2963.9439	2169	1296.3
1023.4813	2965.0267	2156.15	1280.05
1023.5947	2966.1089	2172	1275.6
1023.708	2967.1905	2140.6	1265.7
1023.8213	2968.2714	2139.35	1262.35
1023.9346	2969.3516	2144.25	1267.3
1024.0478	2970.4312	2145.8	1261.45
1024.1609	2971.5102	2139.55	1262.8
1024.274	2972.5885	2134	1257.6
1024.3871	2973.6662	2141.65	1261.5
1024.5002	2974.7432	2137.4	1261.85
1024.6132	2975.8196	2133.75	1258.1
1024.7261	2976.8954	2120.55	1246.35
1024.839	2977.9705	2098.75	1223.15
1024.9519	2979.045	2083.45	1208.55
1025.0647	2980.1188	2072.5	1194.95
1025.1775	2981.192	2049.9	1176.25
1025.2902	2982.2645	2033.5	1159.95
1025.4029	2983.3364	2002.25	1126.7
1025.5156	2984.4077	1979.6	1105.1
1025.6282	2985.4783	1954.9	1072.8
1025.7407	2986.5483	1917.35	1041.8
1025.8532	2987.6177	1877.55	1002.4
1025.9657	2988.6864	1836.8	960.25
1026.0782	2989.7545	1820.7	942.65
1026.1906	2990.8219	1780.95	905.7
1026.3029	2991.8887	1749	874.35
1026.4152	2992.9548	1711.7	836
1026.5275	2994.0204	1685.9	812.65
1026.6397	2995.0852	1653.6	780.85
1026.7519	2996.1495	1624.7	747.1
1026.864	2997.2131	1608.6	734.65
1026.9761	2998.276	1588.2	714.2
1027.0882	2999.3383	1573.5	696.8
1027.2002	3000.4	1548.6	672.45
1027.3122	3001.4611	1527.45	650.05
1027.4241	3002.5215	1513.5	635.85
1027.536	3003.5812	1498	624.45
1027.6478	3004.6404	1484.65	609.7
1027.7596	3005.6989	1479.25	601.95
1027.8714	3006.7567	1464.2	589.4
1027.9831	3007.8139	1484.65	577.3
1028.0947	3008.8705	1446.2	572.25
1028.2064	3009.9264	1438.85	562.3
1028.3179	3010.9818	1440.05	563.5
1028.4295	3012.0364	1430.25	554.85
1028.541	3013.0905	1430.75	553
1028.6524	3014.1439	1428.05	554.9
1028.7638	3015.1966	1419.35	543.85
1028.8752	3016.2487	1417.5	543.5
1028.9865	3017.3002	1424.45	547.35
1029.0978	3018.3511	1418.5	543.4
1029.209	3019.4013	1411.6	535.9
1029.3202	3020.4509	1417	540.8
1029.4314	3021.4998	1419.4	543.05
1029.5425	3022.5481	1412.6	537.65
1029.6535	3023.5958	1414.5	538.3
1029.7645	3024.6428	1421.35	545.3
1029.8755	3025.6892	1419.35	543.8
1029.9864	3026.735	1416.2	542.35
1030.0973	3027.7802	1418.1	543
1030.2082	3028.8247	1420.65	546.45
1030.319	3029.8685	1424.5	549
1030.4297	3030.9118	1429.5	553.5
1030.5404	3031.9544	1431.4	559.85
1030.6511	3032.9963	1434.75	559.1
1030.7617	3034.0376	1431.55	556.3
1030.8723	3035.0783	1447.7	568.8
1030.9829	3036.1184	1441	562.3
1031.0934	3037.1578	1446.6	573.35
1031.2038	3038.1966	1449.15	570.3
1031.3142	3039.2348	1446	572.3
1031.4246	3040.2723	1455.5	572.15
1031.5349	3041.3092	1444.25	569
1031.6452	3042.3455	1447.65	572.25
1031.7554	3043.3811	1442.55	567.4
1031.8656	3044.4161	1441.9	566.45
1031.9758	3045.4505	1425.4	550.55
1032.0859	3046.4842	1424.5	550.8
1032.1959	3047.5173	1415.55	541
1032.3059	3048.5498	1415.1	541
1032.4159	3049.5816	1409.25	535.35
1032.5258	3050.6128	1395.85	522.1
1032.6357	3051.6434	1401.95	526.75
1032.7455	3052.6734	1392.4	517.6
1032.8553	3053.7027	1382.3	505.85
1032.9651	3054.7314	1382.85	507.75
1033.0748	3055.7594	1367.75	495
1033.1845	3056.7868	1356.85	482.6
1033.2941	3057.8136	1356.95	482
1033.4037	3058.8398	1355.5	481.2
1033.5132	3059.8653	1347.4	471.15
1033.6227	3060.8902	1344.6	470.6
1033.7321	3061.9145	1339.6	465.35
1033.8415	3062.9381	1340.3	465.1
1033.9509	3063.9612	1348.1	457.75
1034.0602	3064.9835	1328	453.95
1034.1694	3066.0053	1322.6	446.75
1034.2787	3067.0264	1310.05	433.4
1034.3878	3068.0469	1299.1	421.95
1034.497	3069.0668	1297.55	419.95
1034.6061	3070.086	1284.65	411.7
1034.7151	3071.1046	1283.35	407.85
1034.8241	3072.1226	1273.6	399.05
1034.9331	3073.1399	1261.55	388.05
1035.042	3074.1567	1254.85	380.2
1035.1508	3075.1727	1242.4	367.4
1035.2597	3076.1882	1232.9	359.3
1035.3684	3077.203	1226.8	354.4
1035.4772	3078.2173	1222.6	347.4
1035.5859	3079.2308	1214.7	340.5
1035.6945	3080.2438	1204.55	328.1
1035.8031	3081.2561	1194	319.65
1035.9117	3082.2678	1188.9	314.35
1036.0202	3083.2789	1182.5	307.85
1036.1286	3084.2893	1177.2	301.55
1036.2371	3085.2991	1168.95	294.7
1036.3454	3086.3083	1168.3	289.5
1036.4538	3087.3169	1157.45	282.4
1036.562	3088.3248	1157	282.4
1036.6703	3089.3321	1149.1	273.15
1036.7785	3090.3388	1143.9	270.55
1036.8866	3091.3449	1139.8	265.75
1036.9948	3092.3503	1142.6	267.65
1037.1028	3093.3551	1132.2	259.1
1037.2108	3094.3593	1126.05	252.4
1037.3188	3095.3629	1129.15	255.65
1037.4267	3096.3658	1120.75	243.2
1037.5346	3097.3681	1116.8	241.75
1037.6425	3098.3698	1116.5	242.2
1037.7503	3099.3708	1119.65	239.8
1037.858	3100.3713	1110.65	239.1
1037.9657	3101.3711	1109.95	235.35
1038.0734	3102.3702	1221.55	229.15
1038.181	3103.3688	1107.35	230.9
1038.2886	3104.3667	1095	222.55
1038.3961	3105.364	1093.75	220.85
1038.5036	3106.3607	1095.1	220
1038.611	3107.3568	1097.3	222.1
1038.7184	3108.3522	1094.35	222.6
1038.8257	3109.347	1093.5	219.4
1038.933	3110.3412	1090.55	213.45
1039.0403	3111.3348	1081.8	207.85
1039.1475	3112.3277	1081.6	209.5
1039.2547	3113.32	1079.9	207.65
1039.3618	3114.3117	1083.55	210.95
1039.4689	3115.3028	1081.1	206.15
1039.5759	3116.2932	1081.1	205.6
1039.6829	3117.2831	1079.7	199.85
1039.7898	3118.2723	1075.55	200.45
1039.8967	3119.2608	1073.65	202.15
1040.0035	3120.2488	1070.65	197.35
1040.1103	3121.2361	1068.7	192.95
1040.2171	3122.2229	1065.1	191.05
1040.3238	3123.209	1067.8	193.1
1040.4305	3124.1944	1063.2	193.3
1040.5371	3125.1793	1067	194.2
1040.6437	3126.1635	1063.3	192.45
1040.7502	3127.1471	1059.45	188.2
1040.8567	3128.1301	1060.4	186.25
1040.9631	3129.1125	1057.45	185
1041.0695	3130.0942	1057.95	183.8
1041.1759	3131.0753	1061.3	180
1041.2822	3132.0558	1055.75	179.15
1041.3884	3133.0357	1053	178.15
1041.4946	3134.015	1052.15	175.7
1041.6008	3134.9936	1051.3	175.15
1041.7069	3135.9716	1065.65	168.15
1041.813	3136.949	1046.5	172.4
1041.919	3137.9258	1065.6	173.1
1042.025	3138.902	1050.55	173.2
1042.1309	3139.8775	1043.7	168.7
1042.2368	3140.8524	1040.2	167.45
1042.3427	3141.8267	1038.1	161.85
1042.4485	3142.8004	1040.1	166.35
1042.5542	3143.7735	1045.15	165.85
1042.6599	3144.7459	1036.2	160.95
1042.7656	3145.7178	1040.9	167.05
1042.8712	3146.689	1036.1	164.15
1042.9768	3147.6596	1034.6	159.25
1043.0823	3148.6295	1034.8	161.05
1043.1878	3149.5989	1037.5	164.15
1043.2932	3150.5676	1026.7	153.15
1043.3986	3151.5357	1024.95	153.3
1043.5039	3152.5032	1027.95	155.7
1043.6092	3153.4701	1027.45	153.4
1043.7145	3154.4364	1025.85	148.9
1043.8197	3155.402	1023.45	149.3
1043.9248	3156.367	1023.35	147.8
1044.03	3157.3315	1047.75	149.3
1044.135	3158.2952	1022.3	148.75
1044.24	3159.2584	1022.3	148.95
1044.345	3160.221	1021.4	147.15
1044.4499	3161.1829	1015.4	143.95
1044.5548	3162.1442	1016	143.5
1044.6596	3163.105	1012.25	140.1
1044.7644	3164.065	1010.4	138.75
1044.8692	3165.0245	1012.75	136.15
1044.9739	3165.9834	1005	132.8
1045.0785	3166.9416	1012.15	138.1
1045.1831	3167.8993	1010.8	137
1045.2877	3168.8563	1009.85	134.15
1045.3922	3169.8127	1002.95	129
1045.4966	3170.7684	1005.3	130.75
1045.6011	3171.7236	1005.5	130.6
1045.7054	3172.6782	1005.3	133.55
1045.8098	3173.6321	1005.5	132.25
1045.914	3174.5854	1010.25	134.2
1046.0183	3175.5381	1006.2	133.25
1046.1224	3176.4902	1002.35	132.1
1046.2266	3177.4417	1003.55	130.65
1046.3307	3178.3926	1002.25	129.85
1046.4347	3179.3428	997.3	126.25
1046.5387	3180.2924	993.35	120.45
1046.6427	3181.2415	998.1	124.6
1046.7466	3182.1899	1000.05	126.9
1046.8504	3183.1377	997.85	125.7
1046.9542	3184.0848	996.35	120.9
1047.058	3185.0314	996.3	122.4
1047.1617	3185.9773	995.9	122.35
1047.2654	3186.9227	992.55	119.6
1047.369	3187.8674	992.85	119.4
1047.4726	3188.8115	992.6	116.95
1047.5761	3189.755	989.9	117.3
1047.6796	3190.6979	993.05	118.45
1047.783	3191.6402	988.65	116.6
1047.8864	3192.5818	987.25	113.65
1047.9898	3193.5229	990.9	111.95
1048.0931	3194.4633	988.8	115.7
1048.1963	3195.4031	986.15	113.75
1048.2995	3196.3423	987.85	115.2
1048.4027	3197.2809	990.15	116.95
1048.5058	3198.2189	988.4	117.8
1048.6089	3199.1563	1000.95	113.8
1048.7119	3200.0931	987.7	116.7
1048.8148	3201.0292	983.05	111.35
1048.9178	3201.9648	984.5	111.85
1049.0206	3202.8997	982.35	105.8
1049.1235	3203.834	982.45	109.4
1049.2262	3204.7677	979.25	105.95
1049.329	3205.7008	983.2	110.65
1049.4317	3206.6333	979.1	107.5
1049.5343	3207.5652	980.55	105.55
1049.6369	3208.4964	979.55	108.55
1049.7394	3209.4271	980.8	108.2
1049.8419	3210.3571	976.25	106.2
1049.9444	3211.2865	975.95	102.15
1050.0468	3212.2154	977.35	104.9
1050.1491	3213.1436	977.75	100.6
1050.2514	3214.0712	977.6	97.8
1050.3537	3214.9982	975.7	102.85
1050.4559	3215.9246	973.55	100.05
1050.5581	3216.8503	972.35	99.8
1050.6602	3217.7755	971.6	99.45
1050.7623	3218.7001	969.75	96.95
1050.8643	3219.624	970.55	99.65
1050.9663	3220.5473	969.65	96.55
1051.0682	3221.4701	972.15	99.55
1051.1701	3222.3922	975.15	100.95
1051.2719	3223.3137	969.35	96.85
1051.3737	3224.2346	970.8	100.1
1051.4754	3225.1549	967.3	94.5
1051.5771	3226.0746	964.9	93.9
1051.6788	3226.9937	968.5	96.65
1051.7804	3227.9121	966.05	93.8
1051.8819	3228.83	967.05	95.85
1051.9834	3229.7473	965.45	91.9
1052.0849	3230.6639	965.1	94.25
1052.1863	3231.5799	964.9	92
1052.2876	3232.4954	962.1	88.8
1052.3889	3233.4102	964.35	92.3
1052.4902	3234.3244	960.45	88.35
1052.5914	3235.238	962.4	93.15
1052.6926	3236.151	976.15	91.3
1052.7937	3237.0634	966.25	94.75
1052.8948	3237.9752	959.2	87.05
1052.9958	3238.8864	961.85	89.8
1053.0968	3239.797	959.55	87.9
1053.1977	3240.7069	957.45	84.25
1053.2986	3241.6163	961.1	87.7
1053.3994	3242.5251	958.4	88.45
1053.5002	3243.4332	954.35	82.95
1053.6009	3244.3408	960.9	88.3
1053.7016	3245.2477	952.9	81.7
1053.8022	3246.154	959.35	84.55
1053.9028	3247.0598	955.05	84.2
1054.0034	3247.9649	954.8	80.75
1054.1039	3248.8694	951	78.05
1054.2043	3249.7733	952.1	81.5
1054.3047	3250.6766	951.5	79.25
1054.4051	3251.5793	952	81.2
1054.5054	3252.4814	950	78.6
1054.6056	3253.3829	952.15	81.35
1054.7058	3254.2838	950.3	78.4
1054.806	3255.1841	948.5	76
1054.9061	3256.0838	948.65	78
1055.0061	3256.9829	947.05	76.45
1055.1062	3257.8814	949.45	75.5
1055.2061	3258.7792	945.55	70.2
1055.306	3259.6765	948.25	74.95
1055.4059	3260.5731	943.5	72.65
1055.5057	3261.4692	945.7	73.65
1055.6055	3262.3647	944.25	72.45
1055.7052	3263.2595	940.25	69
1055.8049	3264.1538	938.15	65.7
1055.9045	3265.0474	939.85	69.5
1056.0041	3265.9404	939.05	67.25
1056.1036	3266.8329	937.05	66.65
1056.2031	3267.7247	943.8	62.5
1056.3025	3268.616	935.9	66.25
1056.4019	3269.5066	931.8	61.3
1056.5013	3270.3966	929.35	56.65
1056.6005	3271.286	928.1	56.4
