Software Version:	3.9.2.0
Unit SN:	10000200
Spectrometer SN:	6960
Date:	3/8/2024 11:28:34 AM
Data Line Index:	25
Spectral Points:	2048
Integration time (ms):	125
Averages:	20
Delay (ms):	30000
Sequence Number:	1
Processing:	dark subtract
Laser Power (mW):	300
Laser Current (mA):	823
Laser Diode Temp (C):	25
Laser Case Temp (C):	25
System Temp (C):	25
Spectrometer Temp (C):	22.9
CCD Temp (C):	0.007
Secondary Temp (C):	20.011
Heatsink Temp (C):	19.352
CCDPCB Temp (C):	33.072
SecondaryPCB Temp (C):	27.159

Wavelength	RamanShift	Raw Counts	Dark Subtracted
787.061	30.1047	415.1	4.95
787.2016	32.3739	412.1	4.65
787.3422	34.6426	413.5	4.95
787.4828	36.9109	416.25	5.25
787.6235	39.1787	421.3	6
787.7642	41.4461	424	5.65
787.9049	43.7131	429.85	7.65
788.0456	45.9796	431.95	6.85
788.1863	48.2456	435.65	5.55
788.3271	50.5112	440.7	8
788.4679	52.7764	443.7	7.2
788.6087	55.0411	453.95	13.5
788.7496	57.3054	455.2	9.7
788.8904	59.5692	457.55	10.55
789.0313	61.8326	463	12.95
789.1722	64.0955	467.75	16.8
789.3132	66.3579	475.55	19.05
789.4541	68.6199	479.55	19.4
789.5951	70.8815	491.7	25.7
789.7361	73.1426	506.7	36.7
789.8771	75.4032	538.05	67.15
790.0181	77.6634	613.3	137.2
790.1592	79.9231	771.5	290.35
790.3003	82.1824	1111.4	623.3
790.4414	84.4412	1667.55	1161.3
790.5825	86.6995	2361.9	1839.55
790.7237	88.9574	3019.55	2480.4
790.8648	91.2148	3472.75	2922.05
791.006	93.4717	3673.4	3116.85
791.1472	95.7282	3692.9	3127.85
791.2885	97.9842	3672.3	3104.6
791.4297	100.2398	3629.65	3062.35
791.571	102.4949	3583.45	3013.65
791.7123	104.7495	3553.7	2978.8
791.8536	107.0036	3512.7	2937.35
791.9949	109.2573	3453.9	2882.85
792.1363	111.5105	3359.6	2782.85
792.2777	113.7632	3274.2	2695.2
792.4191	116.0154	3195.6	2608.75
792.5605	118.2672	3095.95	2513.4
792.7019	120.5185	2995.1	2412.3
792.8434	122.7693	2905.4	2317.85
792.9849	125.0197	2818.9	2225.15
793.1264	127.2696	2752.15	2156.1
793.2679	129.519	2695.3	2094.15
793.4094	131.7679	2676.7	2077.55
793.551	134.0163	2666.4	2063.4
793.6926	136.2642	2667.15	2058.15
793.8342	138.5117	2652.95	2043.8
793.9758	140.7587	2631.05	2021.1
794.1175	143.0052	2584.1	1970.85
794.2591	145.2512	2538.4	1925.55
794.4008	147.4967	2489.45	1871.7
794.5425	149.7417	2437.15	1818.5
794.6842	151.9863	2423.3	1800.15
794.826	154.2304	2413.25	1788.55
794.9677	156.4739	2400.05	1767.7
795.1095	158.717	2415.35	1781.85
795.2513	160.9596	2432.85	1793.15
795.3931	163.2017	2459	1818
795.535	165.4433	2464.5	1823.85
795.6768	167.6844	2471.35	1828.85
795.8187	169.925	2459.6	1815.15
795.9606	172.1651	2397.85	1750.6
796.1025	174.4047	2357.05	1705.9
796.2445	176.6439	2319.1	1664.55
796.3864	178.8825	2297.05	1636.1
796.5284	181.1206	2286.4	1627.5
796.6704	183.3582	2271.75	1608.9
796.8124	185.5954	2261.7	1596.25
796.9544	187.832	2262.3	1592.25
797.0965	190.0681	2277.45	1604.6
797.2386	192.3037	2279.35	1601
797.3806	194.5388	2279	1600.1
797.5228	196.7734	2292.35	1610.85
797.6649	199.0075	2308.45	1623.85
797.807	201.2411	2341.95	1658.4
797.9492	203.4742	2349.4	1661.7
798.0914	205.7068	2377.55	1688.1
798.2336	207.9389	2398.45	1707.2
798.3758	210.1704	2407.65	1721.65
798.518	212.4015	2406.65	1733.85
798.6603	214.632	2399	1730.5
798.8025	216.862	2406.5	1738.95
798.9448	219.0915	2413.1	1742.25
799.0871	221.3205	2422.5	1748
799.2294	223.549	2426.3	1760.95
799.3718	225.777	2433.9	1762.3
799.5141	228.0044	2421.25	1740.45
799.6565	230.2314	2427.2	1752.05
799.7989	232.4578	2405.75	1722.5
799.9413	234.6837	2401.75	1714.65
800.0837	236.909	2389.75	1697.55
800.2262	239.1339	2404.2	1688.85
800.3687	241.3582	2379.7	1677.65
800.5111	243.582	2414.85	1681.3
800.6536	245.8053	2414.35	1694.3
800.7961	248.0281	2410.2	1693.35
800.9387	250.2503	2418.4	1699.1
801.0812	252.472	2413.55	1693.35
801.2238	254.6932	2416.3	1696.8
801.3664	256.9139	2430.25	1709.35
801.509	259.134	2447.7	1721.8
801.6516	261.3536	2468.45	1745
801.7942	263.5727	2517.8	1791.15
801.9369	265.7912	2559.1	1833.5
802.0795	268.0092	2608.25	1882.1
802.2222	270.2267	2656.05	1928.55
802.3649	272.4436	2707.75	1979.2
802.5076	274.6601	2744.75	2005.35
802.6504	276.8759	2767.8	2032.95
802.7931	279.0913	2778.3	2045.8
802.9359	281.3061	2803.6	2069.35
803.0787	283.5204	2832.6	2096
803.2215	285.7341	2836.05	2099
803.3643	287.9473	2866.15	2121.95
803.5071	290.16	2862.5	2120
803.6499	292.3721	2816.7	2083.55
803.7928	294.5837	2789.65	2049.25
803.9357	296.7947	2752.65	2012.1
804.0786	299.0052	2747.65	2006.05
804.2215	301.2152	2727.5	1984.65
804.3644	303.4246	2720.3	1977.7
804.5074	305.6334	2697	1955.8
804.6503	307.8418	2698.45	1952.75
804.7933	310.0495	2659.15	1913.15
804.9363	312.2568	2631.1	1884.75
805.0793	314.4635	2592.25	1843.15
805.2223	316.6696	2546.7	1795.6
805.3653	318.8752	2495.85	1734.25
805.5084	321.0802	2484.95	1732.25
805.6514	323.2847	2480.05	1723.7
805.7945	325.4887	2471.8	1715.9
805.9376	327.692	2486.55	1728.15
806.0807	329.8949	2540.35	1783.9
806.2238	332.0972	2579.15	1821.1
806.367	334.2989	2615.55	1852.25
806.5101	336.5001	2598.7	1839.85
806.6533	338.7007	2574.85	1811.25
806.7965	340.9008	2547.35	1782.2
806.9397	343.1003	2480.8	1713.4
807.0829	345.2992	2434.75	1664
807.2261	347.4976	2389.4	1621.6
807.3693	349.6955	2358.9	1585
807.5126	351.8927	2348.05	1572.65
807.6559	354.0895	2331.85	1547.85
807.7991	356.2856	2317	1538.8
807.9424	358.4812	2308.4	1532.2
808.0857	360.6763	2303.9	1525.55
808.2291	362.8707	2295.95	1516
808.3724	365.0646	2302.85	1520.9
808.5158	367.258	2304.15	1519.3
808.6591	369.4508	2336.35	1550.5
808.8025	371.643	2371.3	1582.55
808.9459	373.8346	2387.1	1597.75
809.0893	376.0257	2422.55	1631.75
809.2327	378.2162	2445.5	1654.2
809.3762	380.4062	2456	1661.85
809.5196	382.5956	2430.7	1635.35
809.6631	384.7844	2383.05	1598.7
809.8066	386.9726	2348.35	1564.45
809.9501	389.1603	2312.45	1530.35
810.0936	391.3474	2317.75	1502.6
810.2371	393.5339	2319.3	1531.8
810.3806	395.7199	2310.5	1525.75
810.5241	397.9052	2336.8	1552.2
810.6677	400.09	2365.25	1582.15
810.8113	402.2743	2412.7	1627.25
810.9548	404.4579	2459.5	1672.25
811.0984	406.641	2503.65	1715.3
811.2421	408.8235	2536.1	1745
811.3857	411.0054	2590.7	1797.05
811.5293	413.1868	2653.4	1856.7
811.673	415.3675	2712.2	1915.05
811.8166	417.5477	2709.8	1910.55
811.9603	419.7273	2658.3	1857.45
812.104	421.9064	2559.05	1751.4
812.2477	424.0848	2499.4	1697.7
812.3914	426.2627	2436.5	1633.95
812.5351	428.4399	2382.25	1576.7
812.6788	430.6166	2329.05	1519.1
812.8226	432.7928	2294.4	1486.5
812.9663	434.9683	2251.05	1442.8
813.1101	437.1432	2224.4	1413.6
813.2539	439.3176	2207.5	1399
813.3977	441.4914	2185.6	1377.25
813.5415	443.6645	2184.05	1374.75
813.6853	445.8371	2189.4	1378.9
813.8291	448.0091	2190.7	1380.35
813.973	450.1806	2189.3	1379.45
814.1168	452.3514	2178.8	1366.9
814.2607	454.5216	2193.3	1373.15
814.4046	456.6913	2179.2	1365.35
814.5485	458.8603	2183.7	1369.2
814.6924	461.0288	2178.95	1368.85
814.8363	463.1967	2176.15	1368.4
814.9802	465.3639	2185.25	1370.1
815.1241	467.5306	2171.05	1355.95
815.2681	469.6967	2178.45	1366.7
815.412	471.8622	2163.25	1351
815.556	474.0271	2174.1	1359.7
815.7	476.1914	2160.2	1343.05
815.844	478.3551	2152.85	1337.5
815.988	480.5182	2156.4	1339.9
816.132	482.6807	2158.2	1343.85
816.276	484.8426	2181.4	1369.2
816.4201	487.0039	2208.15	1393.4
816.5641	489.1647	2269.35	1450.8
816.7082	491.3248	2297.95	1482.85
816.8522	493.4843	2327.8	1510.75
816.9963	495.6432	2310	1493.15
817.1404	497.8015	2286.3	1462.15
817.2845	499.9592	2246.1	1419.75
817.4286	502.1163	2211.15	1383.45
817.5727	504.2728	2159.7	1335.35
817.7168	506.4287	2134.5	1315.25
817.861	508.5839	2111.65	1289.35
818.0051	510.7386	2102	1280.2
818.1493	512.8927	2120.2	1288.35
818.2935	515.0461	2115.75	1285.3
818.4377	517.199	2129.75	1300.35
818.5818	519.3512	2179.35	1350.15
818.726	521.5029	2253.55	1418.5
818.8703	523.6539	2309.1	1480.25
819.0145	525.8043	2323.75	1491
819.1587	527.9541	2273.5	1441.25
819.303	530.1033	2190.95	1361.45
819.4472	532.2519	2140.35	1308.4
819.5915	534.3999	2125.55	1290.4
819.7357	536.5472	2119.45	1286.75
819.88	538.694	2113.85	1284.1
820.0243	540.8401	2123.35	1289.1
820.1686	542.9856	2150.85	1312
820.3129	545.1305	2154.55	1313.55
820.4572	547.2748	2181.25	1339.1
820.6016	549.4185	2180.9	1342.55
820.7459	551.5615	2177.25	1339.45
820.8902	553.704	2206.25	1368.5
821.0346	555.8458	2218.5	1383.1
821.1789	557.987	2233.85	1397.75
821.3233	560.1276	2267.3	1426.4
821.4677	562.2675	2320.8	1484.65
821.6121	564.4069	2385.25	1546.05
821.7565	566.5456	2405.25	1571.3
821.9009	568.6837	2405.85	1566.25
822.0453	570.8212	2338	1498.65
822.1897	572.958	2247.6	1407.9
822.3342	575.0942	2196.85	1360
822.4786	577.2299	2170.55	1331.55
822.6231	579.3648	2137.1	1304.9
822.7675	581.4992	2114	1283
822.912	583.6329	2122.6	1291.05
823.0565	585.766	2152.95	1317.8
823.201	587.8985	2187.8	1351.6
823.3454	590.0304	2257.25	1405
823.4899	592.1616	2276.3	1433.1
823.6345	594.2922	2269.85	1425.55
823.779	596.4222	2249.15	1402.75
823.9235	598.5515	2182.7	1337
824.068	600.6802	2137.75	1290.35
824.2126	602.8083	2092.35	1246.9
824.3571	604.9358	2090	1243.8
824.5017	607.0626	2086.6	1236.5
824.6462	609.1888	2083.95	1235.2
824.7908	611.3144	2103.8	1252.95
824.9354	613.4393	2146.85	1299.85
825.08	615.5636	2193.8	1345.25
825.2246	617.6873	2236.5	1387.15
825.3692	619.8103	2280.55	1429
825.5138	621.9327	2264.4	1411.95
825.6584	624.0544	2233.35	1385.55
825.803	626.1756	2178.45	1327.65
825.9477	628.2961	2130.45	1279.25
826.0923	630.4159	2107.75	1257.35
826.237	632.5351	2106.9	1253.85
826.3816	634.6537	2095.3	1242.75
826.5263	636.7716	2080.5	1226.1
826.6709	638.8889	2072.1	1216.25
826.8156	641.0056	2083.45	1229.05
826.9603	643.1216	2098.5	1241.65
827.105	645.237	2104.8	1248.55
827.2497	647.3518	2081.1	1226.95
827.3944	649.4659	2047.45	1196.1
827.5391	651.5793	2032.2	1182.15
827.6838	653.6922	2020.4	1167.5
827.8285	655.8043	2012.05	1158.65
827.9733	657.9159	2005.9	1150.6
828.118	660.0268	1993.5	1136.2
828.2627	662.137	1992.65	1136.4
828.4075	664.2466	1995	1134.6
828.5522	666.3556	1997.35	1140.6
828.697	668.4639	1986	1128.6
828.8418	670.5716	1976.15	1121.6
828.9865	672.6786	1967.1	1108.8
829.1313	674.785	1956.3	1090.35
829.2761	676.8907	1948.95	1091
829.4209	678.9958	1955.4	1099.75
829.5657	681.1002	1962.9	1103.1
829.7105	683.204	1959.45	1096.15
829.8553	685.3072	1964.35	1102.15
830.0001	687.4097	1956.2	1095.2
830.1449	689.5115	1955.5	1092.4
830.2898	691.6127	1957.8	1095.8
830.4346	693.7132	1947.3	1087.65
830.5794	695.8131	1958.1	1083.45
830.7243	697.9123	1966.15	1098.5
830.8691	700.0109	1956.3	1090.45
831.014	702.1089	1965.9	1102.6
831.1588	704.2061	1984.55	1121.45
831.3037	706.3028	2001.9	1136.8
831.4486	708.3987	2021.2	1159.85
831.5935	710.4941	2041.2	1176.9
831.7383	712.5887	2046.15	1180.95
831.8832	714.6827	2041.55	1172.95
832.0281	716.7761	2022.7	1161.45
832.173	718.8688	2025.8	1161.25
832.3179	720.9608	2032.2	1161.05
832.4628	723.0522	2048.7	1176.55
832.6077	725.1429	2064.55	1193.85
832.7527	727.233	2103.2	1235.3
832.8976	729.3224	2156.45	1287.2
833.0425	731.4112	2210.25	1341.4
833.1874	733.4993	2225.85	1356.3
833.3324	735.5867	2176.25	1305.6
833.4773	737.6735	2116.9	1247.45
833.6222	739.7596	2060.25	1187.15
833.7672	741.845	2022.05	1151.2
833.9122	743.9298	2016.55	1144.35
834.0571	746.014	2024.1	1152.55
834.2021	748.0974	2042.55	1171.45
834.347	750.1802	2033.85	1160.85
834.492	752.2624	2023.3	1152.1
834.637	754.3439	2016.5	1144.9
834.782	756.4247	2021.9	1141.55
834.9269	758.5048	2009.25	1136.95
835.0719	760.5843	2022.95	1148.85
835.2169	762.6631	2055.05	1180.9
835.3619	764.7413	2116.25	1246.25
835.5069	766.8188	2195.05	1317.6
835.6519	768.8956	2269.95	1393.65
835.7969	770.9718	2320.45	1447.95
835.9419	773.0473	2317.3	1444.95
836.0869	775.1221	2282.9	1412.65
836.232	777.1962	2261.8	1387.2
836.377	779.2697	2323.8	1448
836.522	781.3426	2437.35	1542.25
836.667	783.4147	2495.4	1618.35
836.8121	785.4862	2477.3	1604.1
836.9571	787.557	2405.5	1528.05
837.1021	789.6271	2268	1391.1
837.2472	791.6966	2142.6	1267.6
837.3922	793.7654	2054.35	1178.7
837.5373	795.8335	1993.9	1119.25
837.6823	797.901	1965.6	1089.15
837.8274	799.9678	1950.4	1071.75
837.9724	802.0339	1949.85	1072.25
838.1175	804.0993	1965.35	1076.4
838.2626	806.1641	1957.65	1080.5
838.4076	808.2282	1939.7	1060.9
838.5527	810.2916	1923.05	1044.65
838.6978	812.3544	1909.3	1034.3
838.8428	814.4164	1894.25	1019.45
838.9879	816.4778	1912.15	1031.6
839.133	818.5385	1910.85	1031.25
839.2781	820.5986	1941.3	1060.85
839.4232	822.658	1989.65	1109.6
839.5682	824.7166	2050.55	1170.05
839.7133	826.7747	2145.5	1268.1
839.8584	828.832	2221.75	1342.45
840.0035	830.8886	2287.6	1404.55
840.1486	832.9446	2299.8	1421.2
840.2937	834.9999	2276.25	1396.95
840.4388	837.0545	2207.5	1324.75
840.5839	839.1085	2127.5	1245.7
840.729	841.1618	2053.25	1170.4
840.8741	843.2143	1996.55	1116.7
841.0192	845.2662	1959.8	1080.7
841.1643	847.3175	1948.65	1067.1
841.3095	849.368	1936.5	1054.5
841.4546	851.4179	1928.45	1050.95
841.5997	853.467	1932.85	1055.5
841.7448	855.5155	1943.65	1058.85
841.8899	857.5633	1934.6	1053.7
842.0351	859.6105	1936.05	1052.6
842.1802	861.6569	1917.3	1035.25
842.3253	863.7027	1909.2	1027.4
842.4704	865.7478	1886.3	1002.25
842.6156	867.7922	1884.65	1002.1
842.7607	869.8359	1875	993.55
842.9058	871.8789	1878.35	993.4
843.0509	873.9212	1893.65	976.4
843.1961	875.9629	1880.8	997.95
843.3412	878.0039	1885.6	1002.1
843.4863	880.0441	1898	1014.55
843.6315	882.0837	1917.25	1033.7
843.7766	884.1226	1941.45	1056.9
843.9218	886.1609	1971.8	1089.35
844.0669	888.1984	2024.7	1141.35
844.212	890.2352	2073.85	1190.15
844.3572	892.2714	2088.3	1197.25
844.5023	894.3069	2067.15	1183.3
844.6475	896.3416	2010.55	1126
844.7926	898.3757	1961.05	1075.75
844.9377	900.4091	1937.95	1050.65
845.0829	902.4418	1942.7	1052.6
845.228	904.4739	1963.4	1074.9
845.3732	906.5052	1983.1	1098.2
845.5183	908.5358	1980.85	1092.2
845.6635	910.5658	1961.3	1072.3
845.8086	912.595	1931.35	1043.6
845.9538	914.6236	1885.7	1001.35
846.0989	916.6515	1861.5	972.1
846.2441	918.6786	1843.1	954.8
846.3892	920.7051	1828	941.15
846.5344	922.7309	1827.8	940.55
846.6795	924.756	1821.05	933.25
846.8246	926.7804	1841.15	955.05
846.9698	928.8041	1841.6	952.45
847.1149	930.8272	1862.7	975.95
847.2601	932.8495	1869.15	978.75
847.4052	934.8711	1888.35	1000.05
847.5504	936.892	1885.9	997.2
847.6955	938.9123	1907.2	1016.9
847.8407	940.9318	1927.95	1041.2
847.9858	942.9506	1945.1	1054.65
848.131	944.9688	1938.8	1049.95
848.2761	946.9862	1919.65	1033.9
848.4213	949.003	1874.2	986.05
848.5664	951.019	1852.05	966.35
848.7115	953.0344	1841.85	952.45
848.8567	955.0491	1826.5	936.95
849.0018	957.063	1825.05	936.3
849.147	959.0763	1819	931.35
849.2921	961.0888	1812.55	922.85
849.4373	963.1007	1806.65	914.65
849.5824	965.1119	1810.65	924.55
849.7275	967.1223	1790.9	909.5
849.8727	969.1321	1784.75	899.2
850.0178	971.1412	1791.55	904.8
850.1629	973.1495	1789.55	904.45
850.3081	975.1572	1821.95	901.65
850.4532	977.1641	1785.05	897.45
850.5983	979.1704	1791.75	900.4
850.7435	981.1759	1787.5	895.15
850.8886	983.1808	1780.2	888.2
851.0337	985.1849	1786.05	884.7
851.1788	987.1884	1773.25	880.7
851.324	989.1911	1776.65	885.75
851.4691	991.1932	1787.45	898.75
851.6142	993.1945	1787.1	895.65
851.7593	995.1951	1776.65	884
851.9045	997.1951	1788.3	891.3
852.0496	999.1943	1774.9	884.7
852.1947	1001.1928	1777.2	889.3
852.3398	1003.1906	1794	905.15
852.4849	1005.1877	1818.1	926.1
852.63	1007.1841	1836.05	944.7
852.7751	1009.1798	1848.5	960.5
852.9202	1011.1748	1837.75	947.7
853.0653	1013.1691	1815.25	922.55
853.2104	1015.1627	1788.55	896.5
853.3555	1017.1556	1745.05	853.7
853.5006	1019.1477	1734.7	842.4
853.6457	1021.1392	1717.2	829.8
853.7908	1023.1299	1712.25	824.65
853.9359	1025.12	1702.85	816.05
854.081	1027.1093	1708.95	828.15
854.2261	1029.0979	1726.35	846.3
854.3712	1031.0859	1749.25	868.7
854.5163	1033.0731	1752.65	866
854.6613	1035.0596	1769.2	882.65
854.8064	1037.0454	1754.7	865.4
854.9515	1039.0304	1747.65	855.2
855.0965	1041.0148	1727.25	836.05
855.2416	1042.9985	1708.3	816.45
855.3867	1044.9814	1689.35	795.3
855.5317	1046.9636	1694.65	801.9
855.6768	1048.9452	1700.7	811.6
855.8219	1050.926	1709.8	820.35
855.9669	1052.9061	1737	847.4
856.112	1054.8855	1738.5	846.1
856.257	1056.8642	1735	844.8
856.4021	1058.8421	1740.45	846.25
856.5471	1060.8194	1728.7	833
856.6921	1062.7959	1724.7	833.5
856.8372	1064.7717	1735.35	842.75
856.9822	1066.7469	1736.65	846.1
857.1272	1068.7213	1725.7	831.25
857.2723	1070.695	1747.45	854.65
857.4173	1072.6679	1761.05	867.45
857.5623	1074.6402	1796.95	902.65
857.7073	1076.6117	1804.55	909.15
857.8523	1078.5826	1783.45	891.3
857.9973	1080.5527	1740.8	846.55
858.1423	1082.5221	1705.7	811.1
858.2873	1084.4908	1681.35	788.7
858.4323	1086.4587	1667.75	773.6
858.5773	1088.426	1662.2	767.6
858.7223	1090.3925	1660.1	760.6
858.8673	1092.3584	1660.95	767
859.0123	1094.3235	1678.3	786.95
859.1573	1096.2879	1689.35	796.6
859.3022	1098.2515	1710.35	817.5
859.4472	1100.2145	1747.2	854
859.5922	1102.1767	1767	872.95
859.7371	1104.1382	1821.15	926.25
859.8821	1106.099	1870.6	974
860.027	1108.0591	1911.55	1019.2
860.172	1110.0185	1954.5	1061.05
860.3169	1111.9771	1982.2	1088.6
860.4619	1113.9351	2031.95	1141.1
860.6068	1115.8923	2085.85	1192.05
860.7517	1117.8488	2126.35	1229.55
860.8967	1119.8045	2079.25	1186.25
861.0416	1121.7596	1983	1088.2
861.1865	1123.7139	1882.55	991.1
861.3314	1125.6675	1828.35	935.9
861.4763	1127.6204	1823.15	929.55
861.6212	1129.5726	1844.9	952.05
861.7661	1131.524	1846.55	955.35
861.911	1133.4748	1811.6	916.9
862.0559	1135.4248	1756.75	860
862.2008	1137.3741	1702.35	809.35
862.3457	1139.3226	1682.65	786.9
862.4905	1141.2705	1666.55	771.9
862.6354	1143.2176	1690.4	792.05
862.7803	1145.164	1695.9	798.4
862.9251	1147.1097	1699.15	803.85
863.07	1149.0546	1675.5	780.4
863.2148	1150.9989	1638.55	743
863.3597	1152.9424	1632.5	738.65
863.5045	1154.8852	1621.3	725.1
863.6493	1156.8272	1613.65	719.75
863.7942	1158.7686	1609.7	706.35
863.939	1160.7092	1612	719.65
864.0838	1162.6491	1618.95	718.5
864.2286	1164.5883	1623.4	729.85
864.3734	1166.5267	1630.75	734.75
864.5182	1168.4644	1662.85	768.2
864.663	1170.4014	1693.95	796
864.8078	1172.3377	1726.9	832.9
864.9526	1174.2732	1773.75	881.45
865.0974	1176.2081	1854.6	960
865.2421	1178.1421	1978.7	1082.4
865.3869	1180.0755	2097.1	1202.3
865.5317	1182.0082	2166.2	1272.7
865.6764	1183.9401	2148.95	1255.55
865.8212	1185.8713	2059.25	1168.75
865.9659	1187.8017	1933.1	1042.95
866.1106	1189.7315	1807.2	920.55
866.2554	1191.6605	1768.3	853.3
866.4001	1193.5888	1708.85	819.45
866.5448	1195.5163	1681.6	790.05
866.6895	1197.4432	1664.6	769.9
866.8342	1199.3693	1642.15	748.9
866.9789	1201.2947	1627.7	730.95
867.1236	1203.2193	1615.15	721.95
867.2683	1205.1432	1620.8	726.3
867.413	1207.0664	1612.35	715.7
867.5576	1208.9889	1613.45	716.65
867.7023	1210.9106	1602.65	712.05
867.847	1212.8316	1619.75	726.95
867.9916	1214.7519	1634.25	731
868.1363	1216.6715	1638.45	746.1
868.2809	1218.5903	1645.25	750.3
868.4255	1220.5084	1658.7	763.25
868.5701	1222.4257	1679.35	784.6
868.7148	1224.3424	1688.25	793.6
868.8594	1226.2583	1709	810.25
869.004	1228.1735	1734.75	838.65
869.1486	1230.0879	1762.5	863.6
869.2932	1232.0016	1805.05	909.25
869.4377	1233.9146	1839.9	944.3
869.5823	1235.8269	1850.95	958
869.7269	1237.7384	1861.85	967.15
869.8715	1239.6492	1859.3	966.25
870.016	1241.5592	1865.6	970.9
870.1606	1243.4686	1915.85	1020.8
870.3051	1245.3772	1988.85	1095.15
870.4496	1247.285	2062.3	1167
870.5941	1249.1922	2147.85	1252.6
870.7387	1251.0986	2216.9	1322.45
870.8832	1253.0042	2283.85	1390.1
871.0277	1254.9092	2358.8	1463.65
871.1722	1256.8134	2441.95	1546.1
871.3167	1258.7169	2528.5	1634.6
871.4611	1260.6196	2579.2	1684.6
871.6056	1262.5216	2607.55	1712
871.7501	1264.4229	2585.9	1693.25
871.8945	1266.3234	2554	1663
872.039	1268.2232	2506.35	1611.55
872.1834	1270.1223	2447.8	1552.65
872.3278	1272.0207	2407.45	1511.5
872.4723	1273.9183	2401.45	1499
872.6167	1275.8151	2394.3	1498.45
872.7611	1277.7113	2424.25	1531.25
872.9055	1279.6067	2501.65	1608.1
873.0499	1281.5014	2636.75	1740.75
873.1943	1283.3953	2825.95	1929.4
873.3386	1285.2885	3014.1	2119.2
873.483	1287.181	3139.35	2242.3
873.6274	1289.0727	3184.6	2288.4
873.7717	1290.9637	3164.35	2269.1
873.9161	1292.854	3057.45	2162.75
874.0604	1294.7435	2932.5	2035.2
874.2047	1296.6323	2828.1	1932.5
874.349	1298.5204	2728.25	1830.5
874.4933	1300.4077	2661.8	1765.55
874.6376	1302.2943	2601.25	1706.25
874.7819	1304.1802	2562.6	1668.2
874.9262	1306.0653	2542.75	1647.2
875.0705	1307.9497	2510	1614.55
875.2147	1309.8333	2467.5	1571.1
875.359	1311.7162	2435	1538.7
875.5032	1313.5984	2411.6	1512.05
875.6475	1315.4798	2396.25	1491.2
875.7917	1317.3605	2392.55	1492.2
875.9359	1319.2405	2389.95	1491.3
876.0801	1321.1197	2386.9	1488.65
876.2243	1322.9982	2332.2	1433.85
876.3685	1324.876	2260.95	1366.5
876.5127	1326.753	2181.25	1282.75
876.6569	1328.6293	2102.7	1205.95
876.801	1330.5048	2003.75	1106.6
876.9452	1332.3796	1925	1029.5
877.0893	1334.2537	1894.45	971.45
877.2335	1336.127	1836.8	940.15
877.3776	1337.9996	1800.65	904.45
877.5217	1339.8714	1781.55	886.25
877.6658	1341.7426	1804.05	863.25
877.8099	1343.6129	1754.65	858.65
877.954	1345.4826	1738.75	840.95
878.0981	1347.3515	1722.35	821.15
878.2422	1349.2196	1717.65	818.45
878.3862	1351.087	1702.8	807.55
878.5303	1352.9537	1699.75	800.7
878.6743	1354.8197	1704.35	808
878.8184	1356.6849	1708.85	811.85
878.9624	1358.5493	1721.05	824.3
879.1064	1360.4131	1737.35	840.35
879.2504	1362.276	1784.5	889.75
879.3944	1364.1383	1817.95	922.45
879.5384	1365.9998	1833.65	930.1
879.6823	1367.8606	1818.45	920.9
879.8263	1369.7206	1808.9	912.15
879.9702	1371.5799	1804.35	905.35
880.1142	1373.4384	1803.2	908.4
880.2581	1375.2962	1781	883.1
880.402	1377.1533	1738.3	843
880.5459	1379.0096	1688.65	794.55
880.6898	1380.8652	1648.8	753.2
880.8337	1382.7201	1626.35	731.8
880.9776	1384.5742	1604.2	707.2
881.1215	1386.4275	1582.65	683
881.2653	1388.2802	1563.8	668.65
881.4092	1390.132	1550.35	652.8
881.553	1391.9832	1536.6	637.9
881.6968	1393.8336	1537.3	640.7
881.8406	1395.6832	1527.7	629.55
881.9844	1397.5322	1523.15	625.8
882.1282	1399.3803	1515.75	614.25
882.272	1401.2278	1504.55	608.85
882.4158	1403.0745	1491.65	596.35
882.5595	1404.9204	1486.6	591.55
882.7033	1406.7656	1482.2	585.05
882.847	1408.6101	1482	585.65
882.9908	1410.4538	1472.1	575.9
883.1345	1412.2968	1476.25	580.5
883.2782	1414.139	1479.1	581.9
883.4219	1415.9805	1491.85	597.2
883.5656	1417.8213	1503.75	600.9
883.7092	1419.6613	1513.4	615.05
883.8529	1421.5006	1541.3	642.9
883.9965	1423.3391	1580.9	683.2
884.1402	1425.1769	1620.65	723.5
884.2838	1427.0139	1698.25	802.1
884.4274	1428.8502	1788.85	889.95
884.571	1430.6858	1848.55	954.95
884.7146	1432.5206	1860.75	965.6
884.8582	1434.3547	1869.2	974.55
885.0018	1436.188	1856.15	959.35
885.1453	1438.0206	1830.4	931.85
885.2889	1439.8524	1818.45	922.3
885.4324	1441.6835	1807.7	912.3
885.5759	1443.5139	1824.55	925.1
885.7194	1445.3435	1826.75	931.55
885.8629	1447.1724	1829.1	932.2
886.0064	1449.0005	1812.95	917.75
886.1499	1450.8279	1816.95	919.1
886.2933	1452.6545	1810.35	914.2
886.4368	1454.4804	1802.9	906.9
886.5802	1456.3056	1798.9	895.4
886.7237	1458.13	1779	885.55
886.8671	1459.9536	1749.75	851.85
887.0105	1461.7766	1727.25	831.5
887.1539	1463.5987	1684.95	789.05
887.2972	1465.4202	1647.1	750.7
887.4406	1467.2409	1616	718.25
887.584	1469.0608	1581.25	687.1
887.7273	1470.88	1542.65	644.95
887.8706	1472.6984	1528.15	634.5
888.0139	1474.5161	1498.4	600.2
888.1572	1476.3331	1488.95	592.5
888.3005	1478.1493	1484.05	588.1
888.4438	1479.9648	1475.95	582
888.5871	1481.7795	1476.75	580.75
888.7303	1483.5935	1481.45	587.2
888.8736	1485.4067	1474.55	579.75
889.0168	1487.2192	1480.4	582.5
889.16	1489.031	1473.35	573.25
889.3032	1490.842	1474.05	578.05
889.4464	1492.6522	1470.2	573.4
889.5896	1494.4618	1476	579.65
889.7327	1496.2705	1467	571.9
889.8759	1498.0785	1460.2	564.95
890.019	1499.8858	1462.05	565.4
890.1622	1501.6924	1456.85	562.35
890.3053	1503.4981	1445.25	548.1
890.4484	1505.3032	1438.75	544.8
890.5914	1507.1075	1439.65	542.8
890.7345	1508.911	1430.85	536.5
890.8776	1510.7138	1420.55	525.25
891.0206	1512.5159	1412.4	517.55
891.1637	1514.3172	1413.25	517.5
891.3067	1516.1178	1401.45	509.45
891.4497	1517.9176	1406.75	508.4
891.5927	1519.7166	1398.45	502.65
891.7357	1521.515	1402.05	500.3
891.8786	1523.3126	1390.75	495.75
892.0216	1525.1094	1380.3	483.65
892.1645	1526.9055	1368.25	475.2
892.3074	1528.7008	1372.05	478
892.4503	1530.4954	1378.2	478.05
892.5932	1532.2893	1365.05	473.2
892.7361	1534.0824	1366.95	468.8
892.879	1535.8747	1360.3	468.85
893.0218	1537.6663	1362.25	466.35
893.1647	1539.4572	1370.65	474.85
893.3075	1541.2473	1364.45	469.35
893.4503	1543.0367	1366.15	472.15
893.5931	1544.8253	1366.55	468.2
893.7359	1546.6132	1368.75	472.6
893.8787	1548.4003	1380.3	474.8
894.0214	1550.1867	1394.5	491.45
894.1642	1551.9723	1392	494.45
894.3069	1553.7572	1401	505.6
894.4496	1555.5414	1417.1	523.9
894.5923	1557.3247	1444.85	552.6
894.735	1559.1074	1472.4	580.9
894.8777	1560.8893	1510	618.8
895.0204	1562.6705	1539.15	646.55
895.163	1564.4509	1572.35	680.9
895.3056	1566.2305	1584.65	695
895.4482	1568.0094	1576.7	686.5
895.5908	1569.7876	1576.5	686.25
895.7334	1571.565	1580.8	689.35
895.876	1573.3417	1588.75	697.1
896.0186	1575.1176	1582.9	689.75
896.1611	1576.8928	1597.2	708.15
896.3036	1578.6672	1616	726.7
896.4461	1580.4409	1641.3	752
896.5886	1582.2138	1681.25	791.15
896.7311	1583.986	1715.85	825.75
896.8736	1585.7575	1744.85	855.3
897.0161	1587.5282	1779.35	891.55
897.1585	1589.2981	1811.1	921.95
897.3009	1591.0673	1825.15	936.35
897.4433	1592.8358	1833.15	943.4
897.5857	1594.6035	1837.95	945.4
897.7281	1596.3704	1817.7	927.7
897.8705	1598.1366	1801.8	911.7
898.0128	1599.9021	1777.4	887.7
898.1551	1601.6668	1762.45	870.45
898.2975	1603.4308	1730.7	838.45
898.4398	1605.194	1746.95	850.45
898.5821	1606.9564	1759.7	872.6
898.7243	1608.7182	1809.95	919.95
898.8666	1610.4791	1892.55	1007.45
899.0088	1612.2394	1981.85	1098.4
899.1511	1613.9988	2078.45	1190.7
899.2933	1615.7576	2160.05	1273.25
899.4355	1617.5156	2201.1	1305.7
899.5776	1619.2728	2171.25	1281.5
899.7198	1621.0293	2085.8	1196.3
899.862	1622.785	1988.05	1094.25
900.0041	1624.54	1865	973.9
900.1462	1626.2942	1762.1	875.2
900.2883	1628.0477	1651.3	762.6
900.4304	1629.8005	1582.45	691
900.5725	1631.5525	1513.8	625.75
900.7145	1633.3037	1465.15	577.15
900.8566	1635.0542	1433.4	547.15
900.9986	1636.804	1394.65	506.55
901.1406	1638.553	1431.9	480.6
901.2826	1640.3013	1351.05	463.2
901.4245	1642.0488	1335.3	446.45
901.5665	1643.7955	1319	432.4
901.7085	1645.5416	1307.95	420.3
901.8504	1647.2868	1297.55	409.15
901.9923	1649.0313	1298.45	408.85
902.1342	1650.7751	1297.35	406.6
902.2761	1652.5181	1289.7	401.3
902.4179	1654.2604	1285.85	398
902.5598	1656.0019	1287.75	402.55
902.7016	1657.7427	1299.65	411.3
902.8434	1659.4828	1312.3	423.55
902.9852	1661.222	1346.45	455.4
903.127	1662.9606	1374.25	485.75
903.2687	1664.6984	1411.7	521.25
903.4105	1666.4354	1416.6	524.5
903.5522	1668.1717	1400.3	508.85
903.6939	1669.9072	1365.25	476.95
903.8356	1671.642	1323.95	432.9
903.9773	1673.3761	1284.9	395.1
904.119	1675.1094	1257.6	367.6
904.2606	1676.8419	1231.4	345
904.4022	1678.5737	1222.8	333.35
904.5439	1680.3048	1210.65	319.75
904.6855	1682.0351	1210.05	319.5
904.827	1683.7646	1205.05	313.3
904.9686	1685.4934	1193.65	303.75
905.1101	1687.2215	1187.2	297.6
905.2517	1688.9488	1191.1	303.25
905.3932	1690.6754	1182.75	295.1
905.5347	1692.4012	1182.2	292.95
905.6761	1694.1263	1183.6	293.15
905.8176	1695.8506	1175.3	286
905.9591	1697.5742	1173.6	284.8
906.1005	1699.297	1171.85	283.05
906.2419	1701.0191	1165.5	277.1
906.3833	1702.7404	1162.6	275.3
906.5246	1704.461	1162.3	273.8
906.666	1706.1808	1162.9	272.5
906.8073	1707.8999	1160.55	272.25
906.9487	1709.6182	1160.3	273.4
907.09	1711.3358	1153.45	265.5
907.2313	1713.0527	1147.3	262.95
907.3725	1714.7688	1158.35	266.2
907.5138	1716.4841	1148.9	258.05
907.655	1718.1987	1154.95	261.9
907.7962	1719.9126	1153.95	266.35
907.9374	1721.6257	1147.05	259.55
908.0786	1723.338	1142.7	256.85
908.2198	1725.0496	1142.5	255.55
908.3609	1726.7605	1143.85	255.05
908.502	1728.4706	1141.1	250.75
908.6431	1730.18	1141.3	251.65
908.7842	1731.8886	1142.05	256.45
908.9253	1733.5964	1160.8	252.75
909.0664	1735.3036	1139.35	251.8
909.2074	1737.0099	1140	253.9
909.3484	1738.7156	1133.05	248.45
909.4894	1740.4204	1140.15	251.45
909.6304	1742.1246	1136.2	246.05
909.7714	1743.8279	1129.15	244.85
909.9123	1745.5306	1134.1	245.9
910.0532	1747.2325	1130.75	243.25
910.1941	1748.9336	1135	248.55
910.335	1750.634	1130.2	239.4
910.4759	1752.3336	1131.9	246.4
910.6168	1754.0325	1129	244.4
910.7576	1755.7307	1126.75	241.6
910.8984	1757.4281	1130.1	244.65
911.0392	1759.1247	1132.1	235.25
911.18	1760.8206	1130.2	237.75
911.3208	1762.5158	1127.5	235.2
911.4615	1764.2102	1129.25	239.4
911.6022	1765.9039	1118.4	230.2
911.7429	1767.5968	1122	236.05
911.8836	1769.289	1122.6	238.15
912.0243	1770.9804	1126.85	238.75
912.1649	1772.6711	1122.8	232.75
912.3056	1774.361	1123.65	234.5
912.4462	1776.0502	1126.35	239.05
912.5868	1777.7386	1123.7	233.25
912.7274	1779.4263	1120.35	233.2
912.8679	1781.1132	1121.4	235.1
913.0084	1782.7994	1120.5	234.7
913.149	1784.4849	1118.25	231.9
913.2895	1786.1696	1136.8	232.25
913.4299	1787.8535	1117.35	229.2
913.5704	1789.5367	1116.05	230.4
913.7108	1791.2192	1114	227.8
913.8513	1792.9009	1140.6	228
913.9917	1794.5818	1118.55	230
914.132	1796.2621	1111.25	225.1
914.2724	1797.9415	1109.75	222.1
914.4128	1799.6202	1110.3	224.35
914.5531	1801.2982	1108.95	223.1
914.6934	1802.9755	1114.85	226
914.8337	1804.6519	1106.45	221.1
914.9739	1806.3277	1101.65	214.15
915.1142	1808.0027	1108.15	223.55
915.2544	1809.6769	1107	222.1
915.3946	1811.3504	1103.55	217.45
915.5348	1813.0231	1107.7	221.9
915.675	1814.6951	1100.3	215.6
915.8151	1816.3664	1105.05	216.55
915.9553	1818.0369	1105.75	217.35
916.0954	1819.7067	1096.45	210.25
916.2355	1821.3757	1104	213.3
916.3755	1823.044	1101.9	214.1
916.5156	1824.7115	1100.65	211.7
916.6556	1826.3783	1102.1	217.3
916.7956	1828.0443	1101.75	215.45
916.9356	1829.7096	1103.6	213.2
917.0756	1831.3741	1104.95	215.25
917.2155	1833.0379	1098.5	213.5
917.3555	1834.701	1096.05	209.45
917.4954	1836.3633	1093.1	208.25
917.6353	1838.0248	1095.2	208.9
917.7751	1839.6856	1097.65	210.35
917.915	1841.3457	1093.15	208
918.0548	1843.005	1098.15	213.15
918.1946	1844.6636	1094.95	208.4
918.3344	1846.3214	1092.5	205
918.4742	1847.9785	1091.95	207.4
918.6139	1849.6349	1096.15	208.4
918.7537	1851.2904	1104.5	206.55
918.8934	1852.9453	1094.95	204.1
919.0331	1854.5994	1090.25	198.35
919.1727	1856.2528	1095.2	201.85
919.3124	1857.9054	1092.7	203.95
919.452	1859.5572	1089.3	203
919.5916	1861.2083	1090	202.65
919.7312	1862.8587	1088.55	202.25
919.8708	1864.5084	1089.75	200.45
920.0103	1866.1572	1089.5	203.15
920.1498	1867.8054	1088.5	200.25
920.2893	1869.4528	1089.55	202.05
920.4288	1871.0994	1090.9	201.85
920.5683	1872.7453	1092.1	204.05
920.7077	1874.3905	1091.45	197.5
920.8471	1876.0349	1087.3	199.75
920.9865	1877.6786	1088.2	199.45
921.1259	1879.3215	1081.35	194.1
921.2653	1880.9637	1082.45	193.05
921.4046	1882.6051	1078.8	188.9
921.5439	1884.2458	1086.45	197
921.6832	1885.8858	1083.75	195.7
921.8225	1887.525	1084.1	198.35
921.9617	1889.1634	1078.35	192.75
922.101	1890.8011	1079	191.15
922.2402	1892.4381	1082.35	196.85
922.3794	1894.0743	1079.55	194.3
922.5185	1895.7098	1075.25	188.75
922.6577	1897.3446	1076.35	187.35
922.7968	1898.9786	1085.25	192.8
922.9359	1900.6118	1077.8	188.3
923.075	1902.2443	1079.1	189
923.214	1903.8761	1078.7	191.85
923.3531	1905.5071	1075.9	188.8
923.4921	1907.1374	1071.5	182.1
923.6311	1908.7669	1070.75	184.55
923.77	1910.3957	1074.6	188.75
923.909	1912.0237	1070.3	182.6
924.0479	1913.651	1069.9	183.3
924.1868	1915.2776	1068.9	181.55
924.3257	1916.9034	1071.1	187.1
924.4646	1918.5285	1066.7	181.5
924.6034	1920.1528	1068.7	180.3
924.7422	1921.7764	1065.9	179.05
924.881	1923.3992	1068.6	181.6
925.0198	1925.0213	1067.8	181.55
925.1586	1926.6427	1065.75	180
925.2973	1928.2633	1277.35	177.25
925.436	1929.8832	1071.55	180.55
925.5747	1931.5023	1064.3	176.9
925.7134	1933.1207	1067.4	179.5
925.852	1934.7383	1065.05	177.25
925.9906	1936.3552	1057.9	171.35
926.1292	1937.9714	1057.6	171.4
926.2678	1939.5868	1061.55	171.85
926.4064	1941.2015	1056.95	169.25
926.5449	1942.8154	1070.05	183.65
926.6834	1944.4286	1056.75	168.9
926.8219	1946.041	1090.25	179.8
926.9604	1947.6528	1062.45	170.8
927.0988	1949.2637	1060.35	175.15
927.2372	1950.8739	1057.15	169.9
927.3756	1952.4834	1058.75	171.5
927.514	1954.0921	1060.35	173.9
927.6523	1955.7001	1064.2	174.4
927.7907	1957.3074	1052.6	167.75
927.929	1958.9139	1053.05	170.65
928.0673	1960.5197	1054.85	167.5
928.2055	1962.1247	1051.4	168.2
928.3438	1963.729	1051.4	167.7
928.482	1965.3325	1071.8	166.5
928.6202	1966.9353	1051.3	165.5
928.7584	1968.5374	1054.55	168.85
928.8965	1970.1387	1055.15	169.9
929.0346	1971.7393	1047.6	161.15
929.1727	1973.3392	1048.7	164.8
929.3108	1974.9383	1049.05	167.2
929.4489	1976.5366	1041.75	156.95
929.5869	1978.1342	1043.8	160.65
929.7249	1979.7311	1048	162.6
929.8629	1981.3273	1049.6	166.05
930.0009	1982.9227	1044.95	160.35
930.1388	1984.5173	1041.6	159.3
930.2767	1986.1112	1045.25	162.05
930.4146	1987.7044	1044.7	163.95
930.5525	1989.2968	1040.9	153.3
930.6904	1990.8885	1046.75	160.35
930.8282	1992.4795	1039.2	155.35
930.966	1994.0697	1039.6	157.4
931.1038	1995.6592	1037.7	154.05
931.2415	1997.2479	1038.55	156.75
931.3793	1998.8359	1041.05	159.4
931.517	2000.4232	1038.2	157.15
931.6547	2002.0097	1034.55	156.3
931.7923	2003.5955	1033.35	153.95
931.93	2005.1805	1038.25	155.9
932.0676	2006.7648	1032.2	151.65
932.2052	2008.3484	1037.7	155.25
932.3427	2009.9312	1036.55	153.95
932.4803	2011.5133	1032.1	155.05
932.6178	2013.0946	1031.35	150.4
932.7553	2014.6752	1037.2	157.05
932.8928	2016.2551	1036.1	153.1
933.0302	2017.8342	1034.85	155.05
933.1676	2019.4126	1034.75	156.25
933.305	2020.9902	1034.05	154.2
933.4424	2022.5672	1035.75	154.45
933.5798	2024.1433	1036.4	150.3
933.7171	2025.7188	1030.75	155.05
933.8544	2027.2935	1029.9	150.5
933.9917	2028.8674	1032.5	154.7
934.129	2030.4406	1025.25	146.3
934.2662	2032.0131	1024.1	148.6
934.4034	2033.5849	1031.75	148.95
934.5406	2035.1559	1032.6	155.25
934.6778	2036.7261	1030.9	149.75
934.8149	2038.2957	1033.1	153.05
934.952	2039.8645	1032.1	150.05
935.0891	2041.4325	1033	147.65
935.2262	2042.9998	1029.25	148.85
935.3632	2044.5664	1026.2	146.25
935.5002	2046.1323	1027.15	149.1
935.6372	2047.6974	1027.2	148.15
935.7742	2049.2617	1024.35	145.3
935.9111	2050.8254	1036.15	151.6
936.048	2052.3883	1027.9	146.15
936.1849	2053.9504	1024.6	145.6
936.3218	2055.5118	1029	145.2
936.4586	2057.0725	1033.7	149.2
936.5955	2058.6325	1031.15	149.75
936.7323	2060.1917	1024.05	144
936.869	2061.7502	1025.15	141.55
937.0058	2063.3079	1023.95	145.35
937.1425	2064.8649	1024.4	142.4
937.2792	2066.4212	1025.55	146.5
937.4159	2067.9767	1026.35	146.85
937.5525	2069.5315	1021.65	140.4
937.6891	2071.0856	1023.2	141.8
937.8257	2072.6389	1025.4	143.8
937.9623	2074.1915	1020.3	141.85
938.0989	2075.7433	1023	139.95
938.2354	2077.2945	1024.4	143.7
938.3719	2078.8448	1027.65	146.65
938.5084	2080.3945	1023.35	142.15
938.6448	2081.9434	1025.55	144.75
938.7812	2083.4916	1022.05	139.1
938.9176	2085.039	1022.45	138.05
939.054	2086.5857	1024.25	138.7
939.1903	2088.1317	1028.2	143.7
939.3267	2089.677	1026.65	142.75
939.463	2091.2215	1025.65	140.95
939.5992	2092.7652	1023.25	138.6
939.7355	2094.3083	1023.8	139.3
939.8717	2095.8506	1022.05	138.15
940.0079	2097.3921	1022.85	143.55
940.1441	2098.933	1025.55	143.1
940.2802	2100.4731	1016.55	136.8
940.4163	2102.0124	1038.75	139.65
940.5524	2103.5511	1022	138.2
940.6885	2105.089	1021.1	137.7
940.8245	2106.6261	1019.75	139.35
940.9606	2108.1626	1021.35	139.9
941.0965	2109.6983	1051.4	142
941.2325	2111.2332	1023.75	141.45
941.3684	2112.7675	1023.15	141.15
941.5044	2114.301	1027.05	141.85
941.6403	2115.8337	1018.65	134.1
941.7761	2117.3657	1023.4	142.4
941.912	2118.897	1020.8	137.35
942.0478	2120.4276	1028.45	140.25
942.1835	2121.9575	1020.9	138.05
942.3193	2123.4866	1035.6	138.45
942.455	2125.0149	1021	136.35
942.5907	2126.5426	1018.9	137.8
942.7264	2128.0695	1021.2	139.3
942.8621	2129.5956	1011.85	134.2
942.9977	2131.1211	1019	135.35
943.1333	2132.6458	1013.8	134.1
943.2689	2134.1698	1018.6	135.65
943.4044	2135.693	1017.65	133.2
943.54	2137.2155	1019.25	135.3
943.6755	2138.7373	1019.2	136.95
943.8109	2140.2584	1014.5	134.8
943.9464	2141.7787	1021.05	134.4
944.0818	2143.2983	1011.75	134.2
944.2172	2144.8171	1010.8	133.7
944.3526	2146.3353	1014.25	134.05
944.4879	2147.8527	1013.05	134
944.6232	2149.3693	1017.65	134.95
944.7585	2150.8853	1017.45	135.7
944.8938	2152.4005	1012.3	133.15
945.029	2153.9149	1015.4	131.55
945.1642	2155.4287	1011.7	130.5
945.2994	2156.9417	1013.05	129.25
945.4346	2158.454	1017.8	135
945.5697	2159.9655	1008.05	129
945.7048	2161.4764	1014.55	133.45
945.8399	2162.9865	1009.95	128.05
945.9749	2164.4958	1016.4	136.3
946.1099	2166.0045	1013.5	129.15
946.2449	2167.5124	1013.65	135.35
946.3799	2169.0195	1010.15	129.05
946.5148	2170.526	1015.15	132.45
946.6498	2172.0317	1008.2	127
946.7846	2173.5367	1008.85	127.45
946.9195	2175.0409	1008.05	129.1
947.0543	2176.5445	1009.1	127.35
947.1891	2178.0473	1010.1	126.2
947.3239	2179.5494	1013.05	126.05
947.4587	2181.0507	1009.55	128.4
947.5934	2182.5513	1011.65	131.65
947.7281	2184.0512	1009.85	128.75
947.8628	2185.5504	1007.4	125.3
947.9974	2187.0488	1003.3	123.8
948.132	2188.5465	1005.95	126.55
948.2666	2190.0435	1008.15	128.05
948.4012	2191.5397	1011.2	128.6
948.5357	2193.0353	1007.45	124.75
948.6702	2194.5301	1006.35	122.65
948.8047	2196.0241	1007.75	121.95
948.9392	2197.5175	1010.5	126.65
949.0736	2199.0101	1012.5	127.2
949.208	2200.502	1003.4	124.1
949.3424	2201.9931	1005.7	124.7
949.4767	2203.4835	1003.45	121.9
949.611	2204.9733	1021.1	125
949.7453	2206.4622	1000.6	118.9
949.8796	2207.9505	1007.25	124.4
950.0138	2209.438	999.35	122.75
950.148	2210.9248	1000.1	118.05
950.2822	2212.4109	1002.3	121.55
950.4164	2213.8962	1007.8	121.65
950.5505	2215.3809	1003.2	117.7
950.6846	2216.8648	1004	120.2
950.8186	2218.3479	1012.3	126.45
950.9527	2219.8304	1007.15	117.95
951.0867	2221.3121	1004.65	120.35
951.2207	2222.7931	1002.5	121.6
951.3546	2224.2733	998	116.45
951.4886	2225.7529	1000.15	118.4
951.6225	2227.2317	1005	120.65
951.7563	2228.7098	992.85	112.35
951.8902	2230.1872	995.6	114.95
952.024	2231.6638	997.25	116.8
952.1578	2233.1397	1004.35	119.15
952.2916	2234.6149	996.55	118.1
952.4253	2236.0894	997.2	114.85
952.559	2237.5632	1007.25	117.05
952.6927	2239.0362	997.15	116.55
952.8263	2240.5085	992.9	112.2
952.9599	2241.9801	991.9	110.3
953.0935	2243.4509	998.05	115.6
953.2271	2244.921	992.6	110.1
953.3606	2246.3904	999.8	114.8
953.4941	2247.8591	991.15	108.45
953.6276	2249.3271	993.7	113.6
953.7611	2250.7943	992.6	109.25
953.8945	2252.2608	992.7	112.05
954.0279	2253.7266	994.45	114.1
954.1612	2255.1917	994.6	112.5
954.2946	2256.656	990.8	109.75
954.4279	2258.1197	989.3	110.5
954.5612	2259.5826	990.5	107.25
954.6944	2261.0447	990.7	108.5
954.8276	2262.5062	992.25	109.05
954.9608	2263.9669	992.75	110.55
955.094	2265.4269	992.3	110
955.2271	2266.8862	992.3	110.85
955.3602	2268.3448	991	110.95
955.4933	2269.8026	984.85	103.25
955.6264	2271.2598	989.7	110
955.7594	2272.7162	988.25	107.8
955.8924	2274.1719	992.1	109
956.0253	2275.6268	989.4	108.35
956.1583	2277.0811	987.9	106.35
956.2912	2278.5346	985.15	105.2
956.4241	2279.9874	984.75	103.5
956.5569	2281.4395	986.8	107
956.6897	2282.8908	991.15	105.65
956.8225	2284.3414	987.1	104.5
956.9553	2285.7914	985	103.9
957.088	2287.2406	993	109.75
957.2207	2288.689	990.05	107.2
957.3534	2290.1368	987.5	105.25
957.486	2291.5838	991.1	105.4
957.6186	2293.0302	988.45	103
957.7512	2294.4758	989.85	106.8
957.8838	2295.9206	986	101.65
958.0163	2297.3648	991.2	111.35
958.1488	2298.8082	986.5	103.3
958.2813	2300.251	989	107.25
958.4137	2301.693	989.65	104.3
958.5461	2303.1343	988.3	104.7
958.6785	2304.5748	985.65	106.55
958.8108	2306.0147	980.2	99.95
958.9432	2307.4538	985.95	101.7
959.0754	2308.8922	981.95	104.4
959.2077	2310.3299	979.15	96.75
959.3399	2311.7669	981.7	102.45
959.4721	2313.2031	982.45	102.5
959.6043	2314.6387	984.05	101.55
959.7365	2316.0735	984.25	102.85
959.8686	2317.5076	986.35	104.45
960.0006	2318.941	983.95	102.8
960.1327	2320.3737	983.5	101.2
960.2647	2321.8056	988.9	102.9
960.3967	2323.2369	982.75	99.4
960.5287	2324.6674	988.25	102.6
960.6606	2326.0972	991.25	108.2
960.7925	2327.5263	990	109.5
960.9244	2328.9547	993.1	109.55
961.0562	2330.3823	991.8	109.2
961.1881	2331.8092	988.85	100.9
961.3198	2333.2355	983.6	100.5
961.4516	2334.661	984	102.3
961.5833	2336.0858	979.45	94.7
961.715	2337.5098	974.9	95.4
961.8467	2338.9332	977.75	92.1
961.9783	2340.3558	981.6	96.3
962.1099	2341.7778	977.5	97.1
962.2415	2343.199	978.5	95.4
962.373	2344.6195	978.5	99.1
962.5045	2346.0393	973.45	93.1
962.636	2347.4583	977.85	92.15
962.7675	2348.8767	978.25	96.95
962.8989	2350.2943	979.5	94.1
963.0303	2351.7113	980.9	96
963.1617	2353.1275	976.4	92.35
963.293	2354.543	1000.45	91.4
963.4243	2355.9578	978.55	96.7
963.5556	2357.3718	974.45	90.6
963.6868	2358.7852	976.9	91.85
963.818	2360.1978	977.05	94.25
963.9492	2361.6098	973.75	92.25
964.0803	2363.021	978.9	93.8
964.2114	2364.4315	975.4	92.1
964.3425	2365.8413	980.9	91.7
964.4736	2367.2504	972.05	90.7
964.6046	2368.6587	971.9	90.35
964.7356	2370.0664	971.8	89.55
964.8666	2371.4733	976.3	92.6
964.9975	2372.8795	975.9	94.45
965.1284	2374.285	972.7	88.6
965.2593	2375.6899	975.55	94.15
965.3901	2377.0939	974.8	91.8
965.5209	2378.4973	974.45	90.35
965.6517	2379.9	977.55	93.75
965.7825	2381.3019	975.15	92.25
965.9132	2382.7032	974.85	91.1
966.0439	2384.1037	969	88.85
966.1745	2385.5035	969.05	86.7
966.3051	2386.9027	970.6	90.3
966.4357	2388.3011	974.7	91.4
966.5663	2389.6987	970.75	89.1
966.6968	2391.0957	970.15	87.05
966.8273	2392.492	969.8	87.55
966.9578	2393.8876	968.35	83.75
967.0882	2395.2824	970.3	87.85
967.2186	2396.6765	967.25	82.9
967.349	2398.07	969.7	87.1
967.4793	2399.4627	968.55	83.25
967.6097	2400.8547	971.3	84.85
967.7399	2402.246	975.25	86.35
967.8702	2403.6366	967.15	81.85
968.0004	2405.0265	967.3	85.15
968.1306	2406.4156	971.6	84.9
968.2607	2407.8041	969.95	82.95
968.3909	2409.1918	971.45	84
968.521	2410.5789	971.05	86.25
968.651	2411.9652	970.3	83.05
968.781	2413.3508	969.6	84.25
968.911	2414.7358	968.9	81.3
969.041	2416.12	966.75	84.15
969.1709	2417.5035	966.9	84.3
969.3008	2418.8863	962.6	77.25
969.4307	2420.2684	968.6	82.35
969.5606	2421.6497	966.85	80.25
969.6904	2423.0304	965.65	81.8
969.8201	2424.4104	969.4	84.15
969.9499	2425.7896	967.65	80.5
970.0796	2427.1682	965.85	82.3
970.2093	2428.546	964.3	80.55
970.3389	2429.9232	966.1	80.45
970.4685	2431.2996	960.3	75.85
970.5981	2432.6753	962.75	78.75
970.7277	2434.0503	966.15	81.6
970.8572	2435.4246	962.9	78.35
970.9867	2436.7982	965	79.15
971.1161	2438.1711	964.25	80.25
971.2456	2439.5433	964.3	81.95
971.375	2440.9148	965.35	80
971.5043	2442.2856	962.35	80.05
971.6336	2443.6557	964.8	78.5
971.7629	2445.025	958.05	74.1
971.8922	2446.3937	959	76.85
972.0214	2447.7617	963.4	78.75
972.1506	2449.1289	961.25	77.85
972.2798	2450.4955	964.8	76.55
972.4089	2451.8613	960.15	77.15
972.538	2453.2265	960.65	77.85
972.6671	2454.5909	960.3	75.1
972.7961	2455.9546	960.8	77.55
972.9251	2457.3177	963.45	80.7
973.0541	2458.68	962.4	78.3
973.1831	2460.0416	960.2	76.4
973.312	2461.4025	962.05	76.2
973.4408	2462.7627	967.9	73.05
973.5697	2464.1222	955.8	75.2
973.6985	2465.4811	956.45	72.15
973.8273	2466.8392	959.3	76.45
973.956	2468.1966	961.25	75.5
974.0847	2469.5533	962.15	75.15
974.2134	2470.9093	956.7	75.85
974.3421	2472.2645	959.1	77.3
974.4707	2473.6191	958.1	74.3
974.5993	2474.973	961.6	79.4
974.7278	2476.3262	959.75	74.75
974.8563	2477.6787	956.55	75.7
974.9848	2479.0305	958.6	75.1
975.1132	2480.3816	960.65	75.1
975.2417	2481.7319	961.4	78.25
975.37	2483.0816	957.15	72.4
975.4984	2484.4306	955.9	73.05
975.6267	2485.7789	955.3	74.85
975.755	2487.1264	956.9	73.55
975.8833	2488.4733	954.95	74.3
976.0115	2489.8195	965.15	76.8
976.1397	2491.165	959.4	74.65
976.2678	2492.5097	957.5	72.9
976.3959	2493.8538	957.25	76.45
976.524	2495.1972	957.7	73.45
976.6521	2496.5398	953.9	72
976.7801	2497.8818	956.3	70.2
976.9081	2499.2231	957	74.9
977.036	2500.5637	956.1	70.95
977.164	2501.9035	953.5	68
977.2918	2503.2427	960.75	72.85
977.4197	2504.5812	955.1	74.55
977.5475	2505.919	958.2	73.8
977.6753	2507.256	956.6	73.6
977.8031	2508.5924	953.85	70.95
977.9308	2509.9281	958	70.15
978.0585	2511.2631	952.85	70.35
978.1861	2512.5974	954.95	73.75
978.3137	2513.9309	951.5	68.05
978.4413	2515.2638	979.6	70.65
978.5689	2516.596	954.35	72.15
978.6964	2517.9275	954.7	69.95
978.8239	2519.2583	949.1	64.9
978.9513	2520.5884	951.8	69.15
979.0788	2521.9178	951.65	67.3
979.2062	2523.2465	947.1	65.15
979.3335	2524.5745	947.6	64.9
979.4608	2525.9018	948.15	65.35
979.5881	2527.2284	950.45	69
979.7154	2528.5543	948.2	66.9
979.8426	2529.8796	948.25	62.5
979.9698	2531.2041	950.55	70.6
980.0969	2532.5279	949.05	67.25
980.224	2533.851	949.15	63.95
980.3511	2535.1735	948	66.15
980.4781	2536.4952	948.9	64.6
980.6052	2537.8163	949.9	65.4
980.7321	2539.1366	946.95	63.2
980.8591	2540.4562	948.15	64.15
980.986	2541.7752	946	63.35
981.1129	2543.0935	947.65	65.85
981.2397	2544.411	950.3	66.1
981.3665	2545.7279	947.15	66.35
981.4933	2547.0441	947.6	65.05
981.62	2548.3596	950.2	63.2
981.7467	2549.6744	948	63.95
981.8734	2550.9885	954.65	63.35
982.0001	2552.3019	945.95	64.6
982.1267	2553.6146	946.55	63.05
982.2532	2554.9266	946.8	64.05
982.3798	2556.2379	948.05	64.3
982.5063	2557.5485	947.6	65.9
982.6327	2558.8585	952.05	63.7
982.7592	2560.1677	950.95	63.7
982.8856	2561.4762	947.85	64.2
983.0119	2562.7841	949.2	64.25
983.1383	2564.0913	943.85	63.05
983.2646	2565.3977	945.6	62.3
983.3908	2566.7035	945.45	61.3
983.517	2568.0086	948.85	64
983.6432	2569.313	948.5	64.55
983.7694	2570.6167	949.85	62.75
983.8955	2571.9197	946.45	62.65
984.0216	2573.222	949.2	61.25
984.1476	2574.5236	947.9	63.55
984.2737	2575.8246	946.5	61.85
984.3996	2577.1248	950.25	64.05
984.5256	2578.4244	942.3	60.7
984.6515	2579.7232	944	62.85
984.7774	2581.0214	969.85	63.65
984.9032	2582.3189	942.05	60.7
985.029	2583.6157	948.45	60.95
985.1548	2584.9118	944.55	62.9
985.2806	2586.2072	941.45	62.35
985.4063	2587.5019	945.95	62.75
985.5319	2588.7959	945.9	64.15
985.6576	2590.0893	947.3	62.85
985.7832	2591.3819	948.2	66.5
985.9087	2592.6739	946.3	64.3
986.0343	2593.9652	949.45	64.85
986.1597	2595.2557	942.95	61
986.2852	2596.5456	946.75	62.65
986.4106	2597.8348	945.85	65.15
986.536	2599.1234	947.15	64.7
986.6614	2600.4112	943.85	63.6
986.7867	2601.6983	952.85	67.7
986.912	2602.9848	942.2	57.6
987.0372	2604.2705	951.8	62.6
987.1624	2605.5556	944.4	62.85
987.2876	2606.84	942.55	59.85
987.4128	2608.1237	947.45	64.2
987.5379	2609.4067	944	62.85
987.6629	2610.689	950.7	57.95
987.788	2611.9707	946.7	61.85
987.913	2613.2516	945.9	61.2
988.0379	2614.5319	942.9	59.4
988.1629	2615.8115	943.4	59.75
988.2878	2617.0903	942.5	58.25
988.4126	2618.3685	942.35	57.9
988.5375	2619.6461	942.25	59.25
988.6622	2620.9229	939.2	57.65
988.787	2622.199	945.15	62.8
988.9117	2623.4745	944.5	59.5
989.0364	2624.7493	939.3	59.95
989.161	2626.0234	939.7	58.1
989.2857	2627.2968	939.15	56.75
989.4102	2628.5695	940.6	57.5
989.5348	2629.8415	936.3	55.15
989.6593	2631.1128	938.55	53.45
989.7837	2632.3835	939.25	59.1
989.9082	2633.6535	937.1	54.6
990.0326	2634.9228	937	54.65
990.1569	2636.1914	936.65	54.2
990.2812	2637.4593	941.15	55.55
990.4055	2638.7265	941.45	57.8
990.5298	2639.9931	940.05	56.2
990.654	2641.259	936.4	52.25
990.7782	2642.5242	937.85	55.75
990.9023	2643.7887	934.75	51.35
991.0264	2645.0525	939	55.9
991.1505	2646.3156	938.8	54.75
991.2745	2647.5781	938.3	58
991.3985	2648.8398	937.95	55.7
991.5225	2650.1009	975.8	55.5
991.6464	2651.3613	938.85	55.3
991.7703	2652.6211	936.55	55.15
991.8942	2653.8801	934.2	53.2
992.018	2655.1385	938.9	53.85
992.1418	2656.3961	935.65	54.15
992.2655	2657.6531	933.1	49.25
992.3892	2658.9094	933.1	49
992.5129	2660.1651	934.75	52.4
992.6366	2661.42	934.1	50.3
992.7602	2662.6743	937.65	55.75
992.8837	2663.9279	936.5	55.4
993.0073	2665.1808	935.55	52.25
993.1307	2666.433	937.25	54.55
993.2542	2667.6846	937.25	56.3
993.3776	2668.9354	939	53
993.501	2670.1856	936.65	52.4
993.6244	2671.4351	933.35	50.75
993.7477	2672.6839	937	52.65
993.8709	2673.9321	936	57.25
993.9942	2675.1795	937.85	55
994.1174	2676.4263	936.55	55.25
994.2405	2677.6724	934.7	53.95
994.3637	2678.9179	935.65	54.85
994.4868	2680.1626	934.3	53.45
994.6098	2681.4067	938.2	55.65
994.7328	2682.6501	939.15	55.15
994.8558	2683.8928	936.65	55.2
994.9788	2685.1348	935.4	57
995.1017	2686.3761	932.75	50.9
995.2245	2687.6168	931.4	50.75
995.3474	2688.8568	935.05	53.4
995.4702	2690.0961	931.15	50.4
995.5929	2691.3348	929.65	45.55
995.7156	2692.5727	934.8	52.9
995.8383	2693.81	930.4	48.9
995.961	2695.0466	930.9	52.05
996.0836	2696.2826	930.8	46.65
996.2062	2697.5178	937.25	52.8
996.3287	2698.7524	928.95	47.8
996.4512	2699.9863	933.5	50.6
996.5737	2701.2195	931.9	52.25
996.6961	2702.452	933.35	48.9
996.8185	2703.6839	934	53.45
996.9408	2704.9151	931.55	49.7
997.0631	2706.1456	933.35	49.35
997.1854	2707.3755	934.05	54.1
997.3077	2708.6046	935.65	51.05
997.4299	2709.8331	936.65	55.2
997.552	2711.0609	932.9	51.55
997.6742	2712.2881	935.65	55.35
997.7963	2713.5145	937.85	55.6
997.9183	2714.7403	937.55	58.15
998.0403	2715.9654	936.95	53.5
998.1623	2717.1899	951	55.05
998.2842	2718.4136	935.55	55.95
998.4062	2719.6367	939.2	58.75
998.528	2720.8591	945.75	58.75
998.6498	2722.0809	941.8	59.9
998.7716	2723.3019	945.55	60.8
998.8934	2724.5223	943.35	59.55
999.0151	2725.7421	943.5	60.25
999.1368	2726.9611	945.6	63.3
999.2584	2728.1795	942.35	57.5
999.38	2729.3972	937.35	54.9
999.5016	2730.6142	942.4	52.35
999.6231	2731.8306	938.85	58
999.7446	2733.0462	937.05	53.1
999.8661	2734.2612	937.2	49.5
999.9875	2735.4756	936.2	53.9
1000.1089	2736.6892	934.4	53.8
1000.2302	2737.9022	929.3	50
1000.3515	2739.1145	932.2	50.2
1000.4728	2740.3262	938	47.25
1000.594	2741.5372	930.7	52.3
1000.7152	2742.7475	926.5	47.1
1000.8363	2743.9571	930.95	49.8
1000.9575	2745.1661	934.55	49.2
1001.0785	2746.3744	929.85	48.2
1001.1996	2747.582	928	49.05
1001.3206	2748.7889	925.65	43.25
1001.4415	2749.9952	925.05	44.5
1001.5625	2751.2008	927.2	46.35
1001.6833	2752.4057	929.75	46.75
1001.8042	2753.61	925.8	44.5
1001.925	2754.8136	924.75	42.2
1002.0458	2756.0165	923	42.45
1002.1665	2757.2188	922.95	42.05
1002.2872	2758.4204	922.4	42.3
1002.4078	2759.6213	925.6	42.15
1002.5285	2760.8215	930.4	45.9
1002.649	2762.0211	924.85	43.5
1002.7696	2763.22	927.1	44.25
1002.8901	2764.4182	925.25	46.25
1003.0106	2765.6158	927.1	44.85
1003.131	2766.8127	923.45	43.2
1003.2514	2768.009	923.55	42.85
1003.3717	2769.2045	923.4	41.25
1003.492	2770.3994	923.65	41.1
1003.6123	2771.5936	921.45	40.05
1003.7325	2772.7872	919.95	40.95
1003.8527	2773.9801	924.45	43.9
1003.9729	2775.1723	938	41.2
1004.093	2776.3639	918.55	38
1004.2131	2777.5548	922.4	40.65
1004.3331	2778.745	922.7	40.5
1004.4531	2779.9346	917.6	36.4
1004.5731	2781.1235	921.35	39.9
1004.693	2782.3117	918.65	38.35
1004.8129	2783.4992	919.35	37.3
1004.9328	2784.6861	922.2	42.75
1005.0526	2785.8723	919.15	37.75
1005.1723	2787.0579	921.4	40.55
1005.2921	2788.2428	920.5	40.6
1005.4118	2789.427	916.8	37.2
1005.5314	2790.6106	919.65	38.35
1005.651	2791.7935	921.8	41.95
1005.7706	2792.9757	922.15	42.7
1005.8902	2794.1573	925.7	42.95
1006.0097	2795.3382	921.3	42.8
1006.1291	2796.5184	918.55	39
1006.2485	2797.698	923.05	40.75
1006.3679	2798.8769	920.6	40
1006.4873	2800.0551	923.2	42.95
1006.6066	2801.2327	924.2	42.2
1006.7258	2802.4096	920.1	42.9
1006.8451	2803.5859	924.15	45.3
1006.9642	2804.7615	926.2	45.1
1007.0834	2805.9364	924.35	44.05
1007.2025	2807.1106	923.4	44.05
1007.3216	2808.2842	926.4	45.2
1007.4406	2809.4572	926.6	48.95
1007.5596	2810.6294	927.7	46.1
1007.6785	2811.801	926.2	47.15
1007.7975	2812.972	930.85	50.8
1007.9163	2814.1423	931.3	50.15
1008.0352	2815.3119	933.3	53.65
1008.154	2816.4808	934.3	54.65
1008.2727	2817.6491	938.25	56.65
1008.3914	2818.8167	940.75	60.25
1008.5101	2819.9837	948.1	62.7
1008.6288	2821.15	949.8	70.55
1008.7474	2822.3157	956.05	76.4
1008.8659	2823.4807	961.85	81.35
1008.9844	2824.645	971.5	89.85
1009.1029	2825.8086	974.55	95.6
1009.2214	2826.9716	982.65	103.9
1009.3398	2828.134	991.35	110.95
1009.4581	2829.2957	997.1	118.6
1009.5764	2830.4567	1002.65	122.5
1009.6947	2831.617	1006.95	126.35
1009.813	2832.7767	1011.45	132.1
1009.9312	2833.9358	1009.85	131.3
1010.0493	2835.0941	1010.45	129
1010.1675	2836.2519	1003.15	125
1010.2855	2837.4089	1005.35	122.75
1010.4036	2838.5653	998.9	120.6
1010.5216	2839.7211	994.8	117.5
1010.6396	2840.8761	993.55	112.65
1010.7575	2842.0306	993.75	114.15
1010.8754	2843.1843	990.65	111.15
1010.9932	2844.3374	990.3	110.2
1011.111	2845.4899	995.5	115.4
1011.2288	2846.6417	996.55	118.15
1011.3465	2847.7928	998.45	120.35
1011.4642	2848.9433	1000.65	120.55
1011.5818	2850.0931	1000.2	120.75
1011.6995	2851.2422	1002.65	123.8
1011.817	2852.3907	1001.45	120.5
1011.9345	2853.5385	1004	122.9
1012.052	2854.6857	1033	125.35
1012.1695	2855.8323	1009	128.6
1012.2869	2856.9781	1009.45	130.1
1012.4042	2858.1233	1007.3	128.1
1012.5216	2859.2679	1014.9	135.3
1012.6389	2860.4118	1017.6	138.3
1012.7561	2861.555	1025.8	141.1
1012.8733	2862.6976	1024.7	142.55
1012.9905	2863.8395	1025.45	146.8
1013.1076	2864.9808	1028.05	149.8
1013.2247	2866.1214	1027.6	149.55
1013.3417	2867.2614	1032.1	150.85
1013.4587	2868.4007	1035.75	155.2
1013.5757	2869.5393	1033.55	150.5
1013.6926	2870.6773	1035.35	153.55
1013.8095	2871.8146	1042.4	159.75
1013.9263	2872.9513	1036.2	154.8
1014.0431	2874.0874	1038.95	158.95
1014.1599	2875.2227	1047.8	166.95
1014.2766	2876.3574	1045	165.45
1014.3933	2877.4915	1045.65	166.9
1014.51	2878.6249	1049.15	170.3
1014.6266	2879.7577	1053.95	173.45
1014.7431	2880.8898	1059.8	170.1
1014.8596	2882.0212	1053.05	175.9
1014.9761	2883.152	1056.2	177
1015.0925	2884.2821	1059.2	181.05
1015.2089	2885.4116	1062.55	184
1015.3253	2886.5405	1063.75	185.7
1015.4416	2887.6686	1073.6	190.95
1015.5579	2888.7962	1059.6	178.65
1015.6741	2889.923	1065.65	187.45
1015.7903	2891.0493	1066.6	187.15
1015.9065	2892.1748	1060.1	180.8
1016.0226	2893.2997	1065.65	185
1016.1387	2894.424	1061.6	182.45
1016.2547	2895.5476	1069.05	188.65
1016.3707	2896.6706	1065.3	185.5
1016.4866	2897.7929	1065.25	185.1
1016.6025	2898.9145	1064.65	185.05
1016.7184	2900.0355	1067.6	187.35
1016.8342	2901.1559	1063	182.05
1016.95	2902.2756	1066.15	181.3
1017.0658	2903.3946	1060.15	182.9
1017.1815	2904.513	1063.7	182.3
1017.2971	2905.6308	1060.55	180.8
1017.4127	2906.7479	1062.35	182.7
1017.5283	2907.8643	1062.75	184.2
1017.6439	2908.9801	1057.6	177.3
1017.7594	2910.0953	1059.25	180.85
1017.8748	2911.2098	1060	177.45
1017.9902	2912.3236	1066.9	180.15
1018.1056	2913.4368	1059.5	177.6
1018.2209	2914.5494	1057.85	177.85
1018.3362	2915.6613	1061.55	177.8
1018.4515	2916.7725	1054.75	171.9
1018.5667	2917.8831	1055.75	178.55
1018.6819	2918.9931	1049.9	169
1018.797	2920.1024	1049.4	168
1018.9121	2921.211	1041.05	163.4
1019.0271	2922.319	1040.4	161.05
1019.1421	2923.4264	1040.5	161.65
1019.2571	2924.5331	1042.7	165.85
1019.372	2925.6391	1038.3	160.75
1019.4869	2926.7445	1036.25	160.55
1019.6017	2927.8493	1038.2	159.55
1019.7165	2928.9534	1041.2	161.1
1019.8313	2930.0569	1041.55	158.55
1019.946	2931.1597	1047.5	166.85
1020.0606	2932.2619	1038.8	159.8
1020.1753	2933.3634	1040.7	162.05
1020.2899	2934.4643	1051.5	164.9
1020.4044	2935.5645	1056.55	170.95
1020.5189	2936.6641	1054.05	170.25
1020.6334	2937.763	1045.75	168.9
1020.7478	2938.8613	1047.95	169.25
1020.8622	2939.959	1056.05	172.15
1020.9765	2941.056	1043.5	167.55
1021.0908	2942.1523	1038.75	158.3
1021.2051	2943.248	1036.4	156.9
1021.3193	2944.3431	1021.85	144.25
1021.4334	2945.4375	1016.15	135.65
1021.5476	2946.5313	1005.05	127.6
1021.6617	2947.6244	1000.6	120.85
1021.7757	2948.7169	999.75	121.15
1021.8897	2949.8087	985.2	107.4
1022.0037	2950.8999	983.6	105.25
1022.1176	2951.9904	973.2	95.35
1022.2315	2953.0803	977.55	97.8
1022.3453	2954.1696	969.4	90.8
1022.4591	2955.2582	965.85	86.4
1022.5728	2956.3462	964.65	86.6
1022.6865	2957.4335	961.85	81.25
1022.8002	2958.5202	962.65	81.55
1022.9138	2959.6062	961	83.2
1023.0274	2960.6916	964.7	87.5
1023.141	2961.7764	966.75	87
1023.2545	2962.8605	963.6	84.85
1023.3679	2963.9439	959.9	81.7
1023.4813	2965.0267	962.65	81.25
1023.5947	2966.1089	983	82.15
1023.708	2967.1905	958.15	79.25
1023.8213	2968.2714	957.1	78.75
1023.9346	2969.3516	958.2	80.5
1024.0478	2970.4312	964.45	77.25
1024.1609	2971.5102	959.3	81.4
1024.274	2972.5885	959.85	81.05
1024.3871	2973.6662	960.95	78.65
1024.5002	2974.7432	954.35	77.9
1024.6132	2975.8196	956.7	77.85
1024.7261	2976.8954	957.1	80.6
1024.839	2977.9705	960.5	81.2
1024.9519	2979.045	955.95	78.5
1025.0647	2980.1188	957	78.2
1025.1775	2981.192	954.3	77.6
1025.2902	2982.2645	953.1	72.35
1025.4029	2983.3364	953.4	75.15
1025.5156	2984.4077	953.15	72.9
1025.6282	2985.4783	955.85	72
1025.7407	2986.5483	948.45	70.95
1025.8532	2987.6177	944.45	67.35
1025.9657	2988.6864	943.85	63.15
1026.0782	2989.7545	943.45	63.3
1026.1906	2990.8219	940.4	64.95
1026.3029	2991.8887	937	58.35
1026.4152	2992.9548	935.65	57.45
1026.5275	2994.0204	934.6	57.1
1026.6397	2995.0852	930	53.35
1026.7519	2996.1495	927.15	48.75
1026.864	2997.2131	924.8	46.9
1026.9761	2998.276	923.65	44.95
1027.0882	2999.3383	920.05	41.85
1027.2002	3000.4	918.4	41
1027.3122	3001.4611	916.2	38.25
1027.4241	3002.5215	917.85	39.5
1027.536	3003.5812	916.3	38.75
1027.6478	3004.6404	910.3	31.8
1027.7596	3005.6989	914.35	33.85
1027.8714	3006.7567	908.25	30.2
1027.9831	3007.8139	939.8	34.1
1028.0947	3008.8705	909.85	30.65
1028.2064	3009.9264	909.15	28.2
1028.3179	3010.9818	908.95	31.7
1028.4295	3012.0364	906.55	27.75
1028.541	3013.0905	907.75	29.2
1028.6524	3014.1439	909.45	29.3
1028.7638	3015.1966	904.9	29
1028.8752	3016.2487	908.05	29.6
1028.9865	3017.3002	912.7	27.75
1029.0978	3018.3511	901.8	25.6
1029.209	3019.4013	902.4	24.2
1029.3202	3020.4509	903.5	28.1
1029.4314	3021.4998	906.4	27
1029.5425	3022.5481	903.85	28.6
1029.6535	3023.5958	904.25	26.7
1029.7645	3024.6428	906.75	25.65
1029.8755	3025.6892	902.1	25.7
1029.9864	3026.735	905.45	26
1030.0973	3027.7802	903.55	23.9
1030.2082	3028.8247	904.4	26.6
1030.319	3029.8685	903.9	27.25
1030.4297	3030.9118	905.6	28.5
1030.5404	3031.9544	905.4	28.2
1030.6511	3032.9963	901.2	24.4
1030.7617	3034.0376	901.55	24.7
1030.8723	3035.0783	905.45	24.55
1030.9829	3036.1184	903.1	25.3
1031.0934	3037.1578	903.7	24.95
1031.2038	3038.1966	902.75	21.8
1031.3142	3039.2348	902.4	26.1
1031.4246	3040.2723	912.6	26.85
1031.5349	3041.3092	903.55	28.2
1031.6452	3042.3455	902.75	23.15
1031.7554	3043.3811	903.6	25.15
1031.8656	3044.4161	903.4	26.05
1031.9758	3045.4505	903.3	25.55
1032.0859	3046.4842	903.95	24.9
1032.1959	3047.5173	901.95	25.45
1032.3059	3048.5498	903.3	25.9
1032.4159	3049.5816	901.15	23.3
1032.5258	3050.6128	904	26.4
1032.6357	3051.6434	906.3	27.5
1032.7455	3052.6734	905.95	27.8
1032.8553	3053.7027	904.8	27
1032.9651	3054.7314	903.65	25.2
1033.0748	3055.7594	903.35	26.95
1033.1845	3056.7868	903.85	25.85
1033.2941	3057.8136	904.45	28.2
1033.4037	3058.8398	902.9	26.25
1033.5132	3059.8653	902.3	22.65
1033.6227	3060.8902	906.1	27.1
1033.7321	3061.9145	903.75	25.95
1033.8415	3062.9381	903.75	26.3
1033.9509	3063.9612	920.9	27.35
1034.0602	3064.9835	906.35	27.6
1034.1694	3066.0053	908.75	25.9
1034.2787	3067.0264	905.9	29.9
1034.3878	3068.0469	907.25	28.55
1034.497	3069.0668	910.35	29.7
1034.6061	3070.086	902.95	26.9
1034.7151	3071.1046	904.85	26.95
1034.8241	3072.1226	903.85	25.3
1034.9331	3073.1399	902.75	26.8
1035.042	3074.1567	902.5	23.8
1035.1508	3075.1727	906.15	27.9
1035.2597	3076.1882	902.3	23.55
1035.3684	3077.203	903.4	25.8
1035.4772	3078.2173	900.55	22.15
1035.5859	3079.2308	902.3	21.15
1035.6945	3080.2438	903	24.05
1035.8031	3081.2561	898.8	20.5
1035.9117	3082.2678	899.25	24.5
1036.0202	3083.2789	899.9	21.4
1036.1286	3084.2893	899.05	19.4
1036.2371	3085.2991	896.55	17.45
1036.3454	3086.3083	901.1	17.9
1036.4538	3087.3169	897.1	17.85
1036.562	3088.3248	897.3	17.6
1036.6703	3089.3321	898.85	20.85
1036.7785	3090.3388	897.15	21
1036.8866	3091.3449	895.3	18.6
1036.9948	3092.3503	899.45	18.45
1037.1028	3093.3551	893.5	16.45
1037.2108	3094.3593	896.65	20.65
1037.3188	3095.3629	894.9	16.8
1037.4267	3096.3658	897.6	18.2
1037.5346	3097.3681	895.15	16.05
1037.6425	3098.3698	897.55	17.55
1037.7503	3099.3708	895.8	18.4
1037.858	3100.3713	893.5	15.9
1037.9657	3101.3711	895.7	18.35
1038.0734	3102.3702	1028.1	18.2
1038.181	3103.3688	896.35	18.35
1038.2886	3104.3667	892.3	16.25
1038.3961	3105.364	891.5	13.2
1038.5036	3106.3607	894.5	15.75
1038.611	3107.3568	894.5	16.7
1038.7184	3108.3522	892.75	17.15
1038.8257	3109.347	893.45	13.05
1038.933	3110.3412	896.3	15.5
1039.0403	3111.3348	892.65	15.35
1039.1475	3112.3277	890.2	12.95
1039.2547	3113.32	890.75	14.9
1039.3618	3114.3117	891.65	13.3
1039.4689	3115.3028	891.9	12.35
1039.5759	3116.2932	893.05	13
1039.6829	3117.2831	900.2	17.05
1039.7898	3118.2723	890.55	13.25
1039.8967	3119.2608	891.35	14.1
1040.0035	3120.2488	891.7	14.8
1040.1103	3121.2361	888.5	13.5
1040.2171	3122.2229	891.15	13.55
1040.3238	3123.209	894	14.85
1040.4305	3124.1944	889.6	12.3
1040.5371	3125.1793	892.05	13.5
1040.6437	3126.1635	891.1	16.6
1040.7502	3127.1471	888.05	9.9
1040.8567	3128.1301	888.75	12.6
1040.9631	3129.1125	888.6	12.35
1041.0695	3130.0942	890.65	12.2
1041.1759	3131.0753	896.1	10.75
1041.2822	3132.0558	894.4	15.1
1041.3884	3133.0357	891	12.95
1041.4946	3134.015	890.9	13.7
1041.6008	3134.9936	893.05	12.45
1041.7069	3135.9716	906.95	9.6
1041.813	3136.949	887.55	12.15
1041.919	3137.9258	907.55	12.15
1042.025	3138.902	892.8	11.85
1042.1309	3139.8775	886.45	7.4
1042.2368	3140.8524	886.3	7.15
1042.3427	3141.8267	889.3	10.75
1042.4485	3142.8004	891.25	13.05
1042.5542	3143.7735	890.9	7.85
1042.6599	3144.7459	891.3	10.05
1042.7656	3145.7178	887.95	9.05
1042.8712	3146.689	886.85	11.15
1042.9768	3147.6596	889.45	8.8
1043.0823	3148.6295	887.9	8.75
1043.1878	3149.5989	887.15	10.2
1043.2932	3150.5676	886.15	11.45
1043.3986	3151.5357	885.95	9.75
1043.5039	3152.5032	886.45	10.25
1043.6092	3153.4701	886.25	8.85
1043.7145	3154.4364	890.95	9.9
1043.8197	3155.402	887.5	11.55
1043.9248	3156.367	888.25	9.45
1044.03	3157.3315	930.75	9.35
1044.135	3158.2952	885.5	8.35
1044.24	3159.2584	884.85	7.1
1044.345	3160.221	885.55	9.35
1044.4499	3161.1829	887.45	8.5
1044.5548	3162.1442	886.35	7.75
1044.6596	3163.105	887.15	8.5
1044.7644	3164.065	885.85	10.05
1044.8692	3165.0245	888.15	7.3
1044.9739	3165.9834	884.9	9.85
1045.0785	3166.9416	888.2	12.15
1045.1831	3167.8993	887	8.05
1045.2877	3168.8563	885.9	7.95
1045.3922	3169.8127	887.55	9.55
1045.4966	3170.7684	883.25	5.2
1045.6011	3171.7236	885.55	6.6
1045.7054	3172.6782	888	9.2
1045.8098	3173.6321	887.3	9.5
1045.914	3174.5854	891.55	8.6
1046.0183	3175.5381	887.05	9.9
1046.1224	3176.4902	884.85	7.85
1046.2266	3177.4417	886.75	8.6
1046.3307	3178.3926	885.85	9.25
1046.4347	3179.3428	885.8	8.55
1046.5387	3180.2924	883.95	8.55
1046.6427	3181.2415	883.4	6.45
1046.7466	3182.1899	884.25	5.6
1046.8504	3183.1377	885.6	9.05
1046.9542	3184.0848	888.55	7.25
1047.058	3185.0314	883.9	7.85
1047.1617	3185.9773	886.2	8.1
1047.2654	3186.9227	883.5	5.35
1047.369	3187.8674	884.45	7.15
1047.4726	3188.8115	889.25	9.3
1047.5761	3189.755	884.75	8.95
1047.6796	3190.6979	883.95	7.35
1047.783	3191.6402	882.55	6.75
1047.8864	3192.5818	885.6	10.5
1047.9898	3193.5229	908.7	6.45
1048.0931	3194.4633	886.7	11.25
1048.1963	3195.4031	885.3	7.15
1048.2995	3196.3423	883	4.95
1048.4027	3197.2809	885.5	9.3
1048.5058	3198.2189	884.65	5.7
1048.6089	3199.1563	891.65	9.1
1048.7119	3200.0931	882.45	7.05
1048.8148	3201.0292	881.65	6.7
1048.9178	3201.9648	884.8	9
1049.0206	3202.8997	885.5	4.7
1049.1235	3203.834	881.45	4.55
1049.2262	3204.7677	882.45	5.1
1049.329	3205.7008	885.4	5.65
1049.4317	3206.6333	881.2	5.95
1049.5343	3207.5652	886.3	6.1
1049.6369	3208.4964	883.55	7.1
1049.7394	3209.4271	884.3	8.3
1049.8419	3210.3571	883.55	6
1049.9444	3211.2865	885.65	8.85
1050.0468	3212.2154	883.65	5.55
1050.1491	3213.1436	888.05	9.2
1050.2514	3214.0712	889.05	6.65
1050.3537	3214.9982	882.7	5.65
1050.4559	3215.9246	884.4	6.4
1050.5581	3216.8503	882.65	8.4
1050.6602	3217.7755	884.25	6.65
1050.7623	3218.7001	882.35	5.6
1050.8643	3219.624	885.05	8.6
1050.9663	3220.5473	883.4	5.5
1051.0682	3221.4701	886	9.75
1051.1701	3222.3922	884.35	3.8
1051.2719	3223.3137	883.95	9.35
1051.3737	3224.2346	882.45	5.05
1051.4754	3225.1549	881.1	3.85
1051.5771	3226.0746	882.55	8.1
1051.6788	3226.9937	882.6	4.2
1051.7804	3227.9121	881.9	5.7
1051.8819	3228.83	882.85	5.4
1051.9834	3229.7473	881.4	4.3
1052.0849	3230.6639	883.4	6.85
1052.1863	3231.5799	883.3	5.3
1052.2876	3232.4954	884.7	5.65
1052.3889	3233.4102	882.05	4.9
1052.4902	3234.3244	882.6	4.2
1052.5914	3235.238	883.05	7.2
1052.6926	3236.151	906.7	5.55
1052.7937	3237.0634	880.05	4.75
1052.8948	3237.9752	883.45	5.95
1052.9958	3238.8864	882.8	5.85
1053.0968	3239.797	883.25	6.25
1053.1977	3240.7069	883.4	6.7
1053.2986	3241.6163	887.55	7.85
1053.3994	3242.5251	880.15	4.8
1053.5002	3243.4332	882.9	8.6
1053.6009	3244.3408	881.3	3.35
1053.7016	3245.2477	881.35	4.4
1053.8022	3246.154	881.75	2.9
1053.9028	3247.0598	880.6	1.95
1054.0034	3247.9649	881.2	1.2
1054.1039	3248.8694	880.6	4.7
1054.2043	3249.7733	883.6	6.9
1054.3047	3250.6766	881.25	5
1054.4051	3251.5793	881.75	6.15
1054.5054	3252.4814	880.1	2.25
1054.6056	3253.3829	882.95	6.95
1054.7058	3254.2838	882	5.9
1054.806	3255.1841	881.45	6.7
1054.9061	3256.0838	881.35	2.8
1055.0061	3256.9829	881.3	4.8
1055.1062	3257.8814	883.75	4.5
1055.2061	3258.7792	884.35	5.65
1055.306	3259.6765	883.8	6.25
1055.4059	3260.5731	880.9	4.1
1055.5057	3261.4692	883.05	6.7
1055.6055	3262.3647	883.55	4.55
1055.7052	3263.2595	880.95	5.2
1055.8049	3264.1538	879.55	3.15
1055.9045	3265.0474	881.1	3.55
1056.0041	3265.9404	880.35	3.8
1056.1036	3266.8329	878.7	2.9
1056.2031	3267.7247	890.1	3.35
1056.3025	3268.616	878.45	4.35
1056.4019	3269.5066	883	5.1
1056.5013	3270.3966	880.65	3.2
1056.6005	3271.286	879.15	3.15
