Software Version:	3.9.2.0
Unit SN:	10000200
Spectrometer SN:	6960
Date:	3/8/2024 11:53:14 AM
Data Line Index:	25
Spectral Points:	2048
Integration time (ms):	125
Averages:	20
Delay (ms):	30000
Sequence Number:	1
Processing:	dark subtract
Laser Power (mW):	305
Laser Current (mA):	822
Laser Diode Temp (C):	25
Laser Case Temp (C):	25.4
System Temp (C):	25.3
Spectrometer Temp (C):	23.2
CCD Temp (C):	0.009
Secondary Temp (C):	20.007
Heatsink Temp (C):	20.023
CCDPCB Temp (C):	35.24
SecondaryPCB Temp (C):	27.948

Wavelength	RamanShift	Raw Counts	Dark Subtracted
787.061	30.1047	415.15	5.8
787.2016	32.3739	411.95	4.9
787.3422	34.6426	413.25	6.3
787.4828	36.9109	414.3	4.15
787.6235	39.1787	419.65	4.65
787.7642	41.4461	421.05	2.05
787.9049	43.7131	427.85	6.3
788.0456	45.9796	432	6.8
788.1863	48.2456	437	10.9
788.3271	50.5112	441.5	7.55
788.4679	52.7764	445.55	10.95
788.6087	55.0411	451.45	11.4
788.7496	57.3054	457.75	12.55
788.8904	59.5692	458.5	12.95
789.0313	61.8326	462.05	14.75
789.1722	64.0955	465.25	12.35
789.3132	66.3579	474.5	19.1
789.4541	68.6199	481	19.55
789.5951	70.8815	491.25	26.25
789.7361	73.1426	508.55	38.9
789.8771	75.4032	541.4	68.2
790.0181	77.6634	614.45	137.2
790.1592	79.9231	781	298.9
790.3003	82.1824	1128.3	637.65
790.4414	84.4412	1681.4	1172.85
790.5825	86.6995	2395.9	1868.05
790.7237	88.9574	3051	2505.3
790.8648	91.2148	3521.15	2964.45
791.006	93.4717	3709.65	3142.25
791.1472	95.7282	3716.75	3145.65
791.2885	97.9842	3698.25	3125.45
791.4297	100.2398	3644.4	3068.5
791.571	102.4949	3604.9	3027.25
791.7123	104.7495	3571.15	2988.3
791.8536	107.0036	3511.15	2929.15
791.9949	109.2573	3434.9	2852.2
792.1363	111.5105	3340.55	2756.1
792.2777	113.7632	3233.65	2644.55
792.4191	116.0154	3133.8	2535.1
792.5605	118.2672	3029	2439
792.7019	120.5185	2924.85	2330.95
792.8434	122.7693	2842.3	2246.9
792.9849	125.0197	2762.25	2163.55
793.1264	127.2696	2682.1	2079.45
793.2679	129.519	2651.3	2043.3
793.4094	131.7679	2617.35	2001.7
793.551	134.0163	2615.45	2002.9
793.6926	136.2642	2594.15	1977.45
793.8342	138.5117	2580.95	1953.95
793.9758	140.7587	2540.35	1919.3
794.1175	143.0052	2491.2	1865.9
794.2591	145.2512	2442.85	1818.15
794.4008	147.4967	2393.3	1770.1
794.5425	149.7417	2359.4	1730.45
794.6842	151.9863	2332.1	1701.1
794.826	154.2304	2330.25	1691.85
794.9677	156.4739	2329.15	1686.2
795.1095	158.717	2340.3	1697.25
795.2513	160.9596	2361.5	1717.25
795.3931	163.2017	2380.15	1734.7
795.535	165.4433	2386.05	1731.3
795.6768	167.6844	2368.15	1714.9
795.8187	169.925	2340.15	1689.25
795.9606	172.1651	2286.85	1630.25
796.1025	174.4047	2255.25	1595.85
796.2445	176.6439	2206.65	1542.4
796.3864	178.8825	2182	1515.35
796.5284	181.1206	2177.6	1510
796.6704	183.3582	2168.6	1493.45
796.8124	185.5954	2156	1479.55
796.9544	187.832	2157.8	1481
797.0965	190.0681	2167.25	1486.1
797.2386	192.3037	2164.1	1476.1
797.3806	194.5388	2165.9	1472.05
797.5228	196.7734	2172.55	1482.2
797.6649	199.0075	2186	1492.1
797.807	201.2411	2207.65	1512.75
797.9492	203.4742	2228.15	1531.35
798.0914	205.7068	2263.15	1563.7
798.2336	207.9389	2272.8	1574.3
798.3758	210.1704	2286.3	1598.15
798.518	212.4015	2286.35	1603.2
798.6603	214.632	2283.4	1603.7
798.8025	216.862	2292.5	1615.2
798.9448	219.0915	2298.85	1624.05
799.0871	221.3205	2311.35	1630.1
799.2294	223.549	2308.9	1629
799.3718	225.777	2315.15	1635.55
799.5141	228.0044	2301.2	1613.45
799.6565	230.2314	2306.8	1617.35
799.7989	232.4578	2287.2	1593.65
799.9413	234.6837	2272.85	1573.6
800.0837	236.909	2275.85	1572.05
800.2262	239.1339	2290.7	1562.05
800.3687	241.3582	2273.15	1560.7
800.5111	243.582	2299.55	1557.55
800.6536	245.8053	2296.6	1567.4
800.7961	248.0281	2284.4	1562.5
800.9387	250.2503	2301.7	1577.1
801.0812	252.472	2306	1577.45
801.2238	254.6932	2306.1	1578.7
801.3664	256.9139	2320.9	1593.3
801.509	259.134	2347.15	1611.9
801.6516	261.3536	2353	1623.25
801.7942	263.5727	2389.15	1657.15
801.9369	265.7912	2442.35	1708.55
802.0795	268.0092	2512.35	1777.6
802.2222	270.2267	2562.25	1828.85
802.3649	272.4436	2609.95	1876.1
802.5076	274.6601	2645	1900.05
802.6504	276.8759	2669.5	1928.8
802.7931	279.0913	2681.1	1936.85
802.9359	281.3061	2696.65	1954.1
803.0787	283.5204	2702.4	1955.5
803.2215	285.7341	2732.1	1982.65
803.3643	287.9473	2756.05	2006.55
803.5071	290.16	2744.85	1993.45
803.6499	292.3721	2719.6	1976.05
803.7928	294.5837	2687.15	1940.15
803.9357	296.7947	2664.1	1916.15
804.0786	299.0052	2640.9	1893.2
804.2215	301.2152	2640.35	1889.25
804.3644	303.4246	2628.9	1880
804.5074	305.6334	2595.05	1849.55
804.6503	307.8418	2580.15	1826.1
804.7933	310.0495	2548.7	1795.3
804.9363	312.2568	2522.7	1767.9
805.0793	314.4635	2477.15	1723.05
805.2223	316.6696	2420.85	1656.85
805.3653	318.8752	2389.65	1623.25
805.5084	321.0802	2363.15	1603.5
805.6514	323.2847	2357.65	1593.45
805.7945	325.4887	2356.8	1594
805.9376	327.692	2369.55	1605.7
806.0807	329.8949	2419.9	1653.9
806.2238	332.0972	2454.05	1685.6
806.367	334.2989	2476.85	1704.65
806.5101	336.5001	2467.65	1699.35
806.6533	338.7007	2434.85	1662.35
806.7965	340.9008	2388.35	1614.9
806.9397	343.1003	2336.1	1562.65
807.0829	345.2992	2301.2	1524.75
807.2261	347.4976	2255.1	1476.2
807.3693	349.6955	2238.2	1456.95
807.5126	351.8927	2214.9	1431.6
807.6559	354.0895	2199.55	1405.5
807.7991	356.2856	2191.35	1404.7
807.9424	358.4812	2181.2	1397.25
808.0857	360.6763	2184.8	1396.7
808.2291	362.8707	2172.75	1380.85
808.3724	365.0646	2182.5	1390.65
808.5158	367.258	2191.9	1399.7
808.6591	369.4508	2214.8	1420.15
808.8025	371.643	2222.15	1427.1
808.9459	373.8346	2269.05	1472.1
809.0893	376.0257	2295.35	1497.25
809.2327	378.2162	2326.35	1526.9
809.3762	380.4062	2312.2	1516.75
809.5196	382.5956	2300.85	1503.6
809.6631	384.7844	2256.5	1463.7
809.8066	386.9726	2215.05	1424.95
809.9501	389.1603	2193.25	1402.3
810.0936	391.3474	2204.7	1380.15
810.2371	393.5339	2186.2	1393.25
810.3806	395.7199	2189.85	1396.85
810.5241	397.9052	2204.6	1414.1
810.6677	400.09	2251.85	1458.65
810.8113	402.2743	2304.3	1511.05
810.9548	404.4579	2343.5	1548.15
811.0984	406.641	2387.55	1587.25
811.2421	408.8235	2437.15	1635.45
811.3857	411.0054	2470.3	1668.15
811.5293	413.1868	2533.05	1726.1
811.673	415.3675	2584.05	1778.05
811.8166	417.5477	2574.4	1767.2
811.9603	419.7273	2521.05	1711.9
812.104	421.9064	2430.35	1616.2
812.2477	424.0848	2374.85	1561.9
812.3914	426.2627	2321.7	1512.8
812.5351	428.4399	2259.65	1447.65
812.6788	430.6166	2216.8	1398.5
812.8226	432.7928	2165.3	1346.5
812.9663	434.9683	2125.7	1310.2
813.1101	437.1432	2107	1292
813.2539	439.3176	2091.8	1277.9
813.3977	441.4914	2059.95	1248.2
813.5415	443.6645	2065.65	1251.2
813.6853	445.8371	2067.35	1251.9
813.8291	448.0091	2069.8	1250.65
813.973	450.1806	2062.85	1245.85
814.1168	452.3514	2057	1238.1
814.2607	454.5216	2065.95	1237
814.4046	456.6913	2061.65	1241.25
814.5485	458.8603	2071.95	1251
814.6924	461.0288	2067.95	1249.75
814.8363	463.1967	2062.65	1245.6
814.9802	465.3639	2068.5	1247.95
815.1241	467.5306	2055.95	1236.75
815.2681	469.6967	2052.3	1232.85
815.412	471.8622	2049.45	1231.55
815.556	474.0271	2051.1	1227.1
815.7	476.1914	2045.2	1222
815.844	478.3551	2042.95	1219.95
815.988	480.5182	2045.1	1223.2
816.132	482.6807	2045.4	1226.55
816.276	484.8426	2060.5	1243.1
816.4201	487.0039	2102.6	1283
816.5641	489.1647	2155.2	1328.15
816.7082	491.3248	2197.9	1372.15
816.8522	493.4843	2211.15	1385.1
816.9963	495.6432	2205.2	1380.75
817.1404	497.8015	2182.3	1351.9
817.2845	499.9592	2144.25	1312.9
817.4286	502.1163	2093.85	1258.6
817.5727	504.2728	2048.35	1217.35
817.7168	506.4287	2025.95	1200.7
817.861	508.5839	1990.85	1167.15
818.0051	510.7386	1994.1	1162.35
818.1493	512.8927	2012.45	1172.35
818.2935	515.0461	2010.6	1176.45
818.4377	517.199	2035.2	1202
818.5818	519.3512	2081.35	1246.95
818.726	521.5029	2150.2	1311.15
818.8703	523.6539	2179.8	1345.75
819.0145	525.8043	2198.5	1361.45
819.1587	527.9541	2135.95	1296.15
819.303	530.1033	2080.6	1243.05
819.4472	532.2519	2041.6	1205.4
819.5915	534.3999	2020.15	1183.4
819.7357	536.5472	2008.5	1172.2
819.88	538.694	2007.85	1174.15
820.0243	540.8401	2026.65	1187.8
820.1686	542.9856	2049.25	1208.95
820.3129	545.1305	2059.8	1214.7
820.4572	547.2748	2071.35	1229.4
820.6016	549.4185	2080.8	1233.25
820.7459	551.5615	2088.35	1242.7
820.8902	553.704	2108	1262.6
821.0346	555.8458	2105.05	1260.65
821.1789	557.987	2142.75	1301.25
821.3233	560.1276	2159.95	1314.8
821.4677	562.2675	2209.45	1364.4
821.6121	564.4069	2268.2	1424.15
821.7565	566.5456	2313.45	1470
821.9009	568.6837	2304.45	1461.65
822.0453	570.8212	2221.9	1377.3
822.1897	572.958	2152.9	1305.5
822.3342	575.0942	2109.35	1264.25
822.4786	577.2299	2076.25	1231.95
822.6231	579.3648	2038.25	1197.55
822.7675	581.4992	2033.05	1196.15
822.912	583.6329	2034.65	1197
823.0565	585.766	2069.3	1231.65
823.201	587.8985	2101.6	1260.85
823.3454	590.0304	2165.85	1307.35
823.4899	592.1616	2182.8	1328.95
823.6345	594.2922	2168.55	1318.4
823.779	596.4222	2136.3	1282.95
823.9235	598.5515	2079.55	1226.45
824.068	600.6802	2030.3	1177.75
824.2126	602.8083	1994.85	1141.95
824.3571	604.9358	1974.2	1120.7
824.5017	607.0626	1972.85	1122.5
824.6462	609.1888	1993.35	1137.5
824.7908	611.3144	2020.4	1164.45
824.9354	613.4393	2051.95	1198.4
825.08	615.5636	2113.85	1256.8
825.2246	617.6873	2153.5	1299.7
825.3692	619.8103	2171.95	1313.15
825.5138	621.9327	2175.7	1316.45
825.6584	624.0544	2134.85	1279.8
825.803	626.1756	2077.45	1220.15
825.9477	628.2961	2045.45	1189.75
826.0923	630.4159	2012.55	1153.4
826.237	632.5351	2010.95	1155.1
826.3816	634.6537	2003.95	1143.35
826.5263	636.7716	2001.15	1140.35
826.6709	638.8889	1985.95	1122.45
826.8156	641.0056	2005.15	1141.3
826.9603	643.1216	1990.05	1127.85
827.105	645.237	2000.6	1138.65
827.2497	647.3518	1981.7	1122.6
827.3944	649.4659	1947.9	1090.15
827.5391	651.5793	1934.45	1076.6
827.6838	653.6922	1929.2	1072.75
827.8285	655.8043	1922.5	1062.3
827.9733	657.9159	1908.5	1048.45
828.118	660.0268	1897.95	1035.3
828.2627	662.137	1895.6	1032.95
828.4075	664.2466	1908.4	1040.8
828.5522	666.3556	1905.75	1042.35
828.697	668.4639	1903	1035.75
828.8418	670.5716	1892.85	1031.35
828.9865	672.6786	1891.3	1029.55
829.1313	674.785	1890.9	1023.85
829.2761	676.8907	1869.95	1005.35
829.4209	678.9958	1874.05	1010.3
829.5657	681.1002	1867.2	999.35
829.7105	683.204	1876.1	1005.15
829.8553	685.3072	1880.05	1012.55
830.0001	687.4097	1866.75	1000.45
830.1449	689.5115	1868	995.9
830.2898	691.6127	1864.35	999.8
830.4346	693.7132	1863.7	999.55
830.5794	695.8131	1876.8	989
830.7243	697.9123	1878.15	1009.6
830.8691	700.0109	1880.3	1006.85
831.014	702.1089	1889.05	1020.2
831.1588	704.2061	1898.7	1029.65
831.3037	706.3028	1927.45	1056.75
831.4486	708.3987	1949.55	1081.45
831.5935	710.4941	1958.9	1087.7
831.7383	712.5887	1960.45	1090.6
831.8832	714.6827	1959.2	1084.95
832.0281	716.7761	1948.55	1080.7
832.173	718.8688	1951.7	1082
832.3179	720.9608	1951.55	1073.45
832.4628	723.0522	1972.5	1094.95
832.6077	725.1429	1990.3	1116.6
832.7527	727.233	2028.55	1155
832.8976	729.3224	2096.05	1219.2
833.0425	731.4112	2137.8	1263.55
833.1874	733.4993	2138	1262.3
833.3324	735.5867	2094	1219.45
833.4773	737.6735	2026.6	1147.05
833.6222	739.7596	1966.35	1091.05
833.7672	741.845	1945	1069
833.9122	743.9298	1948.65	1072.7
834.0571	746.014	1956.2	1083.75
834.2021	748.0974	1953.65	1074.45
834.347	750.1802	1955.7	1077.45
834.492	752.2624	1946.4	1068.15
834.637	754.3439	1938.55	1059.7
834.782	756.4247	1943.15	1056.85
834.9269	758.5048	1942.1	1063.95
835.0719	760.5843	1966.95	1090.3
835.2169	762.6631	1987.8	1110.15
835.3619	764.7413	2042.4	1161.4
835.5069	766.8188	2129.9	1252.05
835.6519	768.8956	2196.2	1313
835.7969	770.9718	2254.65	1378.6
835.9419	773.0473	2251	1372.7
836.0869	775.1221	2222.35	1344.05
836.232	777.1962	2215.05	1336.1
836.377	779.2697	2277.3	1395.95
836.522	781.3426	2370.7	1474.3
836.667	783.4147	2408.55	1528.7
836.8121	785.4862	2399.7	1520.1
836.9571	787.557	2307.05	1424.8
837.1021	789.6271	2181.25	1300.5
837.2472	791.6966	2071.3	1190.2
837.3922	793.7654	1981.35	1101.15
837.5373	795.8335	1928.55	1048.75
837.6823	797.901	1902.15	1021.9
837.8274	799.9678	1889.75	1005.55
837.9724	802.0339	1886.45	1005.05
838.1175	804.0993	1902.85	1011.8
838.2626	806.1641	1883.8	997.2
838.4076	808.2282	1861.95	981.4
838.5527	810.2916	1856.35	970.15
838.6978	812.3544	1829.4	950
838.8428	814.4164	1823.6	942.35
838.9879	816.4778	1837.5	950.8
839.133	818.5385	1849.85	964.5
839.2781	820.5986	1882.75	997.1
839.4232	822.658	1943.75	1059.05
839.5682	824.7166	1990.7	1105.55
839.7133	826.7747	2084.65	1202.1
839.8584	828.832	2161.25	1276.6
840.0035	830.8886	2217.2	1330.25
840.1486	832.9446	2232.35	1344
840.2937	834.9999	2191	1306.05
840.4388	837.0545	2129	1237.8
840.5839	839.1085	2043.3	1158
840.729	841.1618	1977.4	1086.15
840.8741	843.2143	1929.7	1042.9
841.0192	845.2662	1899.8	1014.4
841.1643	847.3175	1886.7	999.35
841.3095	849.368	1872.75	984.5
841.4546	851.4179	1863.95	977.2
841.5997	853.467	1859.15	972.2
841.7448	855.5155	1880.4	989.85
841.8899	857.5633	1876.05	988.7
842.0351	859.6105	1863.15	977.6
842.1802	861.6569	1854.55	966.05
842.3253	863.7027	1841.05	950.05
842.4704	865.7478	1831.65	944.1
842.6156	867.7922	1819.3	930.35
842.7607	869.8359	1812.45	921.8
842.9058	871.8789	1816.05	926.7
843.0509	873.9212	1846.85	927.75
843.1961	875.9629	1823.15	934.15
843.3412	878.0039	1836.05	944.5
843.4863	880.0441	1848.9	959.7
843.6315	882.0837	1862.85	973.7
843.7766	884.1226	1883.7	992.85
843.9218	886.1609	1925.6	1036
844.0669	888.1984	1973.3	1082.45
844.212	890.2352	2012.9	1123.15
844.3572	892.2714	2019.25	1125.45
844.5023	894.3069	1986.65	1095.35
844.6475	896.3416	1942	1049
844.7926	898.3757	1905.2	1012.55
844.9377	900.4091	1880.55	989.35
845.0829	902.4418	1890.2	994.35
845.228	904.4739	1909.15	1013.35
845.3732	906.5052	1917	1023.05
845.5183	908.5358	1907.65	1014.25
845.6635	910.5658	1890.5	995.85
845.8086	912.595	1843.7	950.65
845.9538	914.6236	1808.95	917.5
846.0989	916.6515	1788.1	895.55
846.2441	918.6786	1772.7	877.45
846.3892	920.7051	1766.9	870.55
846.5344	922.7309	1769.25	875.95
846.6795	924.756	1766.2	873.55
846.8246	926.7804	1780.2	888.05
846.9698	928.8041	1798.6	906.05
847.1149	930.8272	1799.15	906.15
847.2601	932.8495	1810.7	915.9
847.4052	934.8711	1822.3	930
847.5504	936.892	1837.4	943.1
847.6955	938.9123	1844.35	948
847.8407	940.9318	1859.9	966.95
847.9858	942.9506	1872.4	976.5
848.131	944.9688	1865.2	969.45
848.2761	946.9862	1838.1	942.3
848.4213	949.003	1807.6	913.1
848.5664	951.019	1789.05	893.7
848.7115	953.0344	1777.6	881.95
848.8567	955.0491	1758.4	862.75
849.0018	957.063	1755.6	863.95
849.147	959.0763	1761.05	866.9
849.2921	961.0888	1760	862.65
849.4373	963.1007	1754.15	860.3
849.5824	965.1119	1744.65	854.85
849.7275	967.1223	1728.65	842.85
849.8727	969.1321	1733.65	844.3
850.0178	971.1412	1726.1	834.6
850.1629	973.1495	1719.55	826.4
850.3081	975.1572	1749.05	820.25
850.4532	977.1641	1736.3	841.85
850.5983	979.1704	1731.25	837.25
850.7435	981.1759	1730.55	834.05
850.8886	983.1808	1728.4	830.05
851.0337	985.1849	1714.25	808.8
851.1788	987.1884	1717.45	820.45
851.324	989.1911	1718.9	820.95
851.4691	991.1932	1725.55	828.3
851.6142	993.1945	1725.75	831.9
851.7593	995.1951	1717.95	823.2
851.9045	997.1951	1719.3	819.5
852.0496	999.1943	1726.95	831.15
852.1947	1001.1928	1719.5	823.95
852.3398	1003.1906	1731.45	833.05
852.4849	1005.1877	1759.35	859.95
852.63	1007.1841	1777.8	883
852.7751	1009.1798	1780.75	882.2
852.9202	1011.1748	1774.75	880.4
853.0653	1013.1691	1747.05	851.3
853.2104	1015.1627	1721.85	827
853.3555	1017.1556	1697.45	800.6
853.5006	1019.1477	1679.85	783.2
853.6457	1021.1392	1662.7	769.35
853.7908	1023.1299	1653.35	764.15
853.9359	1025.12	1659.15	768.3
854.081	1027.1093	1665.2	779.7
854.2261	1029.0979	1673.25	789.4
854.3712	1031.0859	1696.6	811.6
854.5163	1033.0731	1712.5	820.8
854.6613	1035.0596	1703.35	812.95
854.8064	1037.0454	1701.65	807.8
854.9515	1039.0304	1698.65	802.9
855.0965	1041.0148	1675.8	781.25
855.2416	1042.9985	1648.7	753.7
855.3867	1044.9814	1644.25	749.8
855.5317	1046.9636	1639.65	742.65
855.6768	1048.9452	1646.25	751.25
855.8219	1050.926	1663.75	767.35
855.9669	1052.9061	1664.2	769.95
856.112	1054.8855	1681.3	787.45
856.257	1056.8642	1684.6	791.55
856.4021	1058.8421	1682.7	781.15
856.5471	1060.8194	1670.65	775.25
856.6921	1062.7959	1673.3	777.05
856.8372	1064.7717	1676.8	777.8
856.9822	1066.7469	1675.6	778.8
857.1272	1068.7213	1682.35	783.2
857.2723	1070.695	1692.3	795.1
857.4173	1072.6679	1710.8	813.35
857.5623	1074.6402	1732.8	835.65
857.7073	1076.6117	1738.4	835.65
857.8523	1078.5826	1710.6	814.5
857.9973	1080.5527	1674.5	773.5
858.1423	1082.5221	1645.55	748.3
858.2873	1084.4908	1629.3	734.3
858.4323	1086.4587	1613.9	714.2
858.5773	1088.426	1611.5	712.55
858.7223	1090.3925	1615.75	714.5
858.8673	1092.3584	1622.95	726.3
859.0123	1094.3235	1615.55	718.7
859.1573	1096.2879	1637.35	738.85
859.3022	1098.2515	1662.35	766.2
859.4472	1100.2145	1690.85	796.25
859.5922	1102.1767	1729.9	828.4
859.7371	1104.1382	1757.9	862.2
859.8821	1106.099	1814.15	914.45
860.027	1108.0591	1858.1	962.65
860.172	1110.0185	1889.55	990
860.3169	1111.9771	1936.25	1039.85
860.4619	1113.9351	1973.95	1078
860.6068	1115.8923	2027.25	1129.3
860.7517	1117.8488	2047.35	1149.65
860.8967	1119.8045	1989.3	1092.7
861.0416	1121.7596	1901.25	1005.15
861.1865	1123.7139	1815.8	921.1
861.3314	1125.6675	1764.75	866.7
861.4763	1127.6204	1772.7	876.05
861.6212	1129.5726	1782.45	883
861.7661	1131.524	1775	876.95
861.911	1133.4748	1746.55	847.5
862.0559	1135.4248	1693.75	794.7
862.2008	1137.3741	1639.85	743.75
862.3457	1139.3226	1634.65	734.95
862.4905	1141.2705	1622	722.95
862.6354	1143.2176	1640.35	737.35
862.7803	1145.164	1643.8	743.85
862.9251	1147.1097	1640.95	742.7
863.07	1149.0546	1611.85	711.7
863.2148	1150.9989	1591.45	692.45
863.3597	1152.9424	1576.5	679.2
863.5045	1154.8852	1566.3	668.5
863.6493	1156.8272	1556.2	660
863.7942	1158.7686	1571.3	665.35
863.939	1160.7092	1560	659.3
864.0838	1162.6491	1569.15	669.7
864.2286	1164.5883	1580.15	680.3
864.3734	1166.5267	1597.75	698.3
864.5182	1168.4644	1613.75	717.6
864.663	1170.4014	1640.5	737.65
864.8078	1172.3377	1690.35	795.05
864.9526	1174.2732	1731.05	830.45
865.0974	1176.2081	1815.65	917.2
865.2421	1178.1421	1940.7	1037.55
865.3869	1180.0755	2031.35	1130.85
865.5317	1182.0082	2080.9	1183.75
865.6764	1183.9401	2059.3	1161.65
865.8212	1185.8713	1962.95	1067.3
865.9659	1187.8017	1839.2	948.7
866.1106	1189.7315	1748.15	855.85
866.2554	1191.6605	1701.35	784.2
866.4001	1193.5888	1642.4	750.25
866.5448	1195.5163	1614.25	718.85
866.6895	1197.4432	1600.7	705.25
866.8342	1199.3693	1584.7	685.05
866.9789	1201.2947	1581.15	681.3
867.1236	1203.2193	1569.55	673.55
867.2683	1205.1432	1566.5	669.1
867.413	1207.0664	1562.55	665
867.5576	1208.9889	1563.85	660.3
867.7023	1210.9106	1571.3	674.5
867.847	1212.8316	1564.5	667.55
867.9916	1214.7519	1587.25	678.6
868.1363	1216.6715	1595	697.5
868.2809	1218.5903	1603.1	706.4
868.4255	1220.5084	1608.7	707.9
868.5701	1222.4257	1634.45	737.8
868.7148	1224.3424	1643.05	747.45
868.8594	1226.2583	1666.9	768.55
869.004	1228.1735	1684.15	787.05
869.1486	1230.0879	1726	827.95
869.2932	1232.0016	1762.5	863.6
869.4377	1233.9146	1802.7	902.15
869.5823	1235.8269	1825.8	928.25
869.7269	1237.7384	1827.85	928.15
869.8715	1239.6492	1826.7	928.6
870.016	1241.5592	1849.3	951.05
870.1606	1243.4686	1889.75	990.8
870.3051	1245.3772	1958.6	1061.95
870.4496	1247.285	2044.3	1142.55
870.5941	1249.1922	2111.1	1213.2
870.7387	1251.0986	2183.7	1284.4
870.8832	1253.0042	2245.65	1345.1
871.0277	1254.9092	2319.9	1421
871.1722	1256.8134	2392.95	1495.5
871.3167	1258.7169	2463.1	1565.45
871.4611	1260.6196	2476.6	1578.2
871.6056	1262.5216	2477.15	1578.5
871.7501	1264.4229	2444.05	1548.15
871.8945	1266.3234	2421.45	1525.55
872.039	1268.2232	2371.95	1472.7
872.1834	1270.1223	2334.7	1436
872.3278	1272.0207	2308.55	1408.3
872.4723	1273.9183	2297.45	1393.75
872.6167	1275.8151	2304.05	1406.4
872.7611	1277.7113	2349.9	1450.45
872.9055	1279.6067	2433.9	1539.15
873.0499	1281.5014	2567.8	1667.15
873.1943	1283.3953	2722.75	1824.75
873.3386	1285.2885	2872.7	1975.7
873.483	1287.181	2970.5	2072.85
873.6274	1289.0727	3006.6	2109.2
873.7717	1290.9637	2963.2	2064.1
873.9161	1292.854	2901.95	2002.55
874.0604	1294.7435	2809.4	1909.9
874.2047	1296.6323	2714.65	1817
874.349	1298.5204	2634.6	1731.9
874.4933	1300.4077	2566.75	1664.95
874.6376	1302.2943	2521.65	1620.1
874.7819	1304.1802	2504.1	1606.8
874.9262	1306.0653	2471.95	1572.6
875.0705	1307.9497	2426.55	1529.45
875.2147	1309.8333	2393.45	1496.5
875.359	1311.7162	2358.25	1459.7
875.5032	1313.5984	2319	1418.25
875.6475	1315.4798	2318	1407.85
875.7917	1317.3605	2305.75	1405.7
875.9359	1319.2405	2283.55	1381
876.0801	1321.1197	2257.75	1355
876.2243	1322.9982	2196.05	1294.5
876.3685	1324.876	2112.6	1214.8
876.5127	1326.753	2039	1140.95
876.6569	1328.6293	1973.65	1073.35
876.801	1330.5048	1889.2	986.25
876.9452	1332.3796	1835.65	934.45
877.0893	1334.2537	1818.7	895.7
877.2335	1336.127	1760.5	861.2
877.3776	1337.9996	1732.2	833.8
877.5217	1339.8714	1713.75	815.3
877.6658	1341.7426	1736.7	793.55
877.8099	1343.6129	1683.95	782.65
877.954	1345.4826	1674.4	775.5
878.0981	1347.3515	1666.95	765.3
878.2422	1349.2196	1653.05	751.35
878.3862	1351.087	1647.1	745.4
878.5303	1352.9537	1639.65	742
878.6743	1354.8197	1643.9	744.9
878.8184	1356.6849	1649.8	750.4
878.9624	1358.5493	1658.85	760
879.1064	1360.4131	1694.7	794.85
879.2504	1362.276	1727.7	830.2
879.3944	1364.1383	1752.6	852.6
879.5384	1365.9998	1763.55	857.05
879.6823	1367.8606	1751.9	851.15
879.8263	1369.7206	1749.1	849.5
879.9702	1371.5799	1746	844.75
880.1142	1373.4384	1734.35	836.45
880.2581	1375.2962	1703.25	802.55
880.402	1377.1533	1660.5	760.3
880.5459	1379.0096	1621.6	721.65
880.6898	1380.8652	1582.85	684.25
880.8337	1382.7201	1552.85	655.1
880.9776	1384.5742	1536.9	640.2
881.1215	1386.4275	1514.8	613.5
881.2653	1388.2802	1501.85	605.95
881.4092	1390.132	1493.3	590.95
881.553	1391.9832	1482.55	581.45
881.6968	1393.8336	1472.15	570.6
881.8406	1395.6832	1475.6	574
881.9844	1397.5322	1462.55	562.25
882.1282	1399.3803	1461.5	558.25
882.272	1401.2278	1447.55	547.75
882.4158	1403.0745	1436.25	539.6
882.5595	1404.9204	1423.3	525
882.7033	1406.7656	1425.2	526.3
882.847	1408.6101	1424.7	525.4
882.9908	1410.4538	1420.3	521.75
883.1345	1412.2968	1423.8	523.45
883.2782	1414.139	1429.1	529.65
883.4219	1415.9805	1430.3	532.15
883.5656	1417.8213	1443.1	537
883.7092	1419.6613	1457.6	558.85
883.8529	1421.5006	1483.45	584.6
883.9965	1423.3391	1517	617.65
884.1402	1425.1769	1568.65	669.95
884.2838	1427.0139	1624.55	726.25
884.4274	1428.8502	1700.85	801.5
884.571	1430.6858	1770.2	870.3
884.7146	1432.5206	1786.9	887.15
884.8582	1434.3547	1778.5	877.55
885.0018	1436.188	1760.6	861.15
885.1453	1438.0206	1737.75	837.55
885.2889	1439.8524	1737.75	838.7
885.4324	1441.6835	1742.25	843.45
885.5759	1443.5139	1735.55	833
885.7194	1445.3435	1740.85	842.9
885.8629	1447.1724	1750.15	854
886.0064	1449.0005	1731.85	834.55
886.1499	1450.8279	1735.15	834.55
886.2933	1452.6545	1724.95	827.5
886.4368	1454.4804	1720.8	824.8
886.5802	1456.3056	1732.4	828.15
886.7237	1458.13	1698.8	803.75
886.8671	1459.9536	1681.15	781.6
887.0105	1461.7766	1645.2	747.4
887.1539	1463.5987	1612.05	715.1
887.2972	1465.4202	1573.85	672.65
887.4406	1467.2409	1541.6	643.6
887.584	1469.0608	1515.65	616.75
887.7273	1470.88	1490.9	595.6
887.8706	1472.6984	1471.25	572.4
888.0139	1474.5161	1452.15	551.5
888.1572	1476.3331	1431.3	534.8
888.3005	1478.1493	1427.15	527.6
888.4438	1479.9648	1421.5	526.05
888.5871	1481.7795	1419.05	521.05
888.7303	1483.5935	1420.2	523.35
888.8736	1485.4067	1419	522.25
889.0168	1487.2192	1418.3	520.85
889.16	1489.031	1420.6	521.95
889.3032	1490.842	1420.2	521.8
889.4464	1492.6522	1412.25	515.55
889.5896	1494.4618	1406.6	507.45
889.7327	1496.2705	1408.1	509.7
889.8759	1498.0785	1400.95	501.6
890.019	1499.8858	1398.45	499.25
890.1622	1501.6924	1391.1	493.5
890.3053	1503.4981	1383.45	488.25
890.4484	1505.3032	1380.3	480.85
890.5914	1507.1075	1368.85	471.4
890.7345	1508.911	1363.6	466.1
890.8776	1510.7138	1367.2	468.95
891.0206	1512.5159	1357.3	459.15
891.1637	1514.3172	1348.85	450.75
891.3067	1516.1178	1341.9	445.85
891.4497	1517.9176	1344.25	443.7
891.5927	1519.7166	1336	440.85
891.7357	1521.515	1335	431.35
891.8786	1523.3126	1322.3	426.15
892.0216	1525.1094	1322.65	423.4
892.1645	1526.9055	1314.15	417.15
892.3074	1528.7008	1310.55	412.1
892.4503	1530.4954	1314.7	412.3
892.5932	1532.2893	1314	417.45
892.7361	1534.0824	1312.55	413.85
892.879	1535.8747	1303	407.25
893.0218	1537.6663	1301.65	407.15
893.1647	1539.4572	1305.85	406.35
893.3075	1541.2473	1305.8	408.8
893.4503	1543.0367	1305.4	408.65
893.5931	1544.8253	1310.6	411.35
893.7359	1546.6132	1313.3	414.7
893.8787	1548.4003	1328.05	421
894.0214	1550.1867	1331.35	426.1
894.1642	1551.9723	1330.8	430.65
894.3069	1553.7572	1355.15	457.95
894.4496	1555.5414	1362.5	468.4
894.5923	1557.3247	1388.95	494.3
894.735	1559.1074	1409.7	518.35
894.8777	1560.8893	1453.15	560.5
895.0204	1562.6705	1479.4	585.5
895.163	1564.4509	1492.25	599.3
895.3056	1566.2305	1504.4	614.25
895.4482	1568.0094	1507.8	615
895.5908	1569.7876	1510.1	616.95
895.7334	1571.565	1498.65	603.65
895.876	1573.3417	1506.8	615
896.0186	1575.1176	1497.5	605.4
896.1611	1576.8928	1516.2	625.45
896.3036	1578.6672	1531.05	641.3
896.4461	1580.4409	1556.15	667.45
896.5886	1582.2138	1592.05	699.7
896.7311	1583.986	1606.4	711.75
896.8736	1585.7575	1636.1	746
897.0161	1587.5282	1667.8	777.45
897.1585	1589.2981	1693.95	804.1
897.3009	1591.0673	1703.75	815.55
897.4433	1592.8358	1720.75	831.75
897.5857	1594.6035	1719.05	825
897.7281	1596.3704	1707.5	814.55
897.8705	1598.1366	1705.2	814.15
898.0128	1599.9021	1678.85	788.55
898.1551	1601.6668	1662.25	769.3
898.2975	1603.4308	1650.8	758.2
898.4398	1605.194	1656.7	760
898.5821	1606.9564	1688.75	799.2
898.7243	1608.7182	1739.7	851.5
898.8666	1610.4791	1802.35	916.7
899.0088	1612.2394	1886.8	1004.15
899.1511	1613.9988	1978.25	1094.4
899.2933	1615.7576	2022.2	1135.05
899.4355	1617.5156	2034.05	1140.05
899.5776	1619.2728	2001.5	1107.05
899.7198	1621.0293	1925.2	1034.65
899.862	1622.785	1826.1	933.25
900.0041	1624.54	1712.9	823.2
900.1462	1626.2942	1630.55	742
900.2883	1628.0477	1549.2	658
900.4304	1629.8005	1485.35	590.15
900.5725	1631.5525	1426.75	538.4
900.7145	1633.3037	1386.65	497.45
900.8566	1635.0542	1355.5	469.5
900.9986	1636.804	1327.15	437.5
901.1406	1638.553	1376.8	415.8
901.2826	1640.3013	1296.75	409.3
901.4245	1642.0488	1268.6	376.3
901.5665	1643.7955	1256.75	370.05
901.7085	1645.5416	1245.35	356.25
901.8504	1647.2868	1242.35	353.9
901.9923	1649.0313	1233.1	343.15
902.1342	1650.7751	1232.5	341.1
902.2761	1652.5181	1230.4	342.75
902.4179	1654.2604	1228.95	340.6
902.5598	1656.0019	1228.65	340.4
902.7016	1657.7427	1249.6	360.1
902.8434	1659.4828	1265.8	375.9
902.9852	1661.222	1288.05	397.75
903.127	1662.9606	1318.15	426.5
903.2687	1664.6984	1337.8	446.35
903.4105	1666.4354	1337.75	445.35
903.5522	1668.1717	1313.1	419.3
903.6939	1669.9072	1274.8	383.1
903.8356	1671.642	1244.95	350.3
903.9773	1673.3761	1209.65	319.25
904.119	1675.1094	1190.65	300
904.2606	1676.8419	1173.65	283.35
904.4022	1678.5737	1158.2	266.8
904.5439	1680.3048	1156.7	265.35
904.6855	1682.0351	1149	259.75
904.827	1683.7646	1146.95	253
904.9686	1685.4934	1139.6	249.4
905.1101	1687.2215	1140.45	251.95
905.2517	1688.9488	1129.7	239.45
905.3932	1690.6754	1126.55	236.6
905.5347	1692.4012	1125.15	236.45
905.6761	1694.1263	1122.1	234.2
905.8176	1695.8506	1121.85	230.5
905.9591	1697.5742	1118.75	230
906.1005	1699.297	1114.85	226.6
906.2419	1701.0191	1111.85	224.35
906.3833	1702.7404	1110.55	223.85
906.5246	1704.461	1110.5	221.1
906.666	1706.1808	1107.6	217.95
906.8073	1707.8999	1103.35	214.25
906.9487	1709.6182	1104.6	218
907.09	1711.3358	1100.15	212.5
907.2313	1713.0527	1096.5	211.95
907.3725	1714.7688	1100.35	208.6
907.5138	1716.4841	1104.1	213.8
907.655	1718.1987	1104.75	211.3
907.7962	1719.9126	1095.5	208.6
907.9374	1721.6257	1093.2	203.55
908.0786	1723.338	1094.4	208.9
908.2198	1725.0496	1096.05	208.45
908.3609	1726.7605	1093.9	208.35
908.502	1728.4706	1094.1	205.6
908.6431	1730.18	1089.15	201.05
908.7842	1731.8886	1082.65	198.2
908.9253	1733.5964	1103.65	193.2
909.0664	1735.3036	1083.75	193.1
909.2074	1737.0099	1088.55	201.35
909.3484	1738.7156	1083.15	196.85
909.4894	1740.4204	1084.85	196.25
909.6304	1742.1246	1087.45	198.45
909.7714	1743.8279	1084.3	199.25
909.9123	1745.5306	1083.55	195.4
910.0532	1747.2325	1080.95	195.2
910.1941	1748.9336	1080.75	196.4
910.335	1750.634	1083.8	193.8
910.4759	1752.3336	1078.3	191.05
910.6168	1754.0325	1077.25	193.05
910.7576	1755.7307	1081	198
910.8984	1757.4281	1082.55	195
911.0392	1759.1247	1088.1	189.95
911.18	1760.8206	1087.7	192.45
911.3208	1762.5158	1082.8	190
911.4615	1764.2102	1076.45	187.85
911.6022	1765.9039	1077.4	190.05
911.7429	1767.5968	1074.3	188.05
911.8836	1769.289	1071.45	184.3
912.0243	1770.9804	1079.45	189.35
912.1649	1772.6711	1078.55	186.3
912.3056	1774.361	1078.2	188.3
912.4462	1776.0502	1079.3	189.9
912.5868	1777.7386	1080.05	188.6
912.7274	1779.4263	1073	185.15
912.8679	1781.1132	1069.15	183.2
913.0084	1782.7994	1069.6	182.25
913.149	1784.4849	1068.05	181
913.2895	1786.1696	1087.2	183
913.4299	1787.8535	1066.3	180.15
913.5704	1789.5367	1066.2	181
913.7108	1791.2192	1069	183.65
913.8513	1792.9009	1091.9	177.85
913.9917	1794.5818	1070.25	181.65
914.132	1796.2621	1068.05	182.7
914.2724	1797.9415	1063.5	175.7
914.4128	1799.6202	1063.4	172.1
914.5531	1801.2982	1066.2	177.4
914.6934	1802.9755	1064.55	173.8
914.8337	1804.6519	1067.45	179.75
914.9739	1806.3277	1061.9	175.5
915.1142	1808.0027	1061.9	178.85
915.2544	1809.6769	1060.3	175.6
915.3946	1811.3504	1059.4	173.15
915.5348	1813.0231	1058.4	172.35
915.675	1814.6951	1056.95	171.2
915.8151	1816.3664	1059.8	169.85
915.9553	1818.0369	1058.5	170.55
916.0954	1819.7067	1054.95	169.85
916.2355	1821.3757	1058.65	170.05
916.3755	1823.044	1060.25	172.3
916.5156	1824.7115	1058.25	171.55
916.6556	1826.3783	1055.95	169.15
916.7956	1828.0443	1052.35	166.8
916.9356	1829.7096	1056.75	168.45
917.0756	1831.3741	1056.7	166.05
917.2155	1833.0379	1052.75	165.35
917.3555	1834.701	1053.4	167
917.4954	1836.3633	1051	164.5
917.6353	1838.0248	1053	166.2
917.7751	1839.6856	1054.85	166.8
917.915	1841.3457	1054.6	169.15
918.0548	1843.005	1050.1	162.9
918.1946	1844.6636	1055.65	170.1
918.3344	1846.3214	1046.3	157.4
918.4742	1847.9785	1053.55	170.2
918.6139	1849.6349	1052.95	162.55
918.7537	1851.2904	1059.2	160.15
918.8934	1852.9453	1057.65	169.4
919.0331	1854.5994	1050.15	160.7
919.1727	1856.2528	1053.25	160.65
919.3124	1857.9054	1052.05	162.45
919.452	1859.5572	1049.35	163.55
919.5916	1861.2083	1049.05	162.95
919.7312	1862.8587	1051	162.65
919.8708	1864.5084	1046.65	157
920.0103	1866.1572	1047.6	159.2
920.1498	1867.8054	1045.15	155.25
920.2893	1869.4528	1049.35	160
920.4288	1871.0994	1046.2	156.8
920.5683	1872.7453	1048.75	161.15
920.7077	1874.3905	1054.7	160.65
920.8471	1876.0349	1044.25	155.15
920.9865	1877.6786	1049.55	162.1
921.1259	1879.3215	1047.2	159.1
921.2653	1880.9637	1042.85	155.95
921.4046	1882.6051	1043.95	158.25
921.5439	1884.2458	1041.9	152.85
921.6832	1885.8858	1039.6	150.75
921.8225	1887.525	1042.8	153.05
921.9617	1889.1634	1043.9	155.8
922.101	1890.8011	1040.95	150.5
922.2402	1892.4381	1040.65	150.95
922.3794	1894.0743	1038.3	151.55
922.5185	1895.7098	1037.1	149.85
922.6577	1897.3446	1039.15	149.8
922.7968	1898.9786	1046.3	153.45
922.9359	1900.6118	1037.5	152.25
923.075	1902.2443	1038.15	152.1
923.214	1903.8761	1035.95	149.6
923.3531	1905.5071	1035.25	145.15
923.4921	1907.1374	1036.55	147.7
923.6311	1908.7669	1035.15	148.5
923.77	1910.3957	1030.35	144.9
923.909	1912.0237	1031.4	145.4
924.0479	1913.651	1035.4	147.65
924.1868	1915.2776	1028.7	141
924.3257	1916.9034	1031.4	147.75
924.4646	1918.5285	1028.4	143.2
924.6034	1920.1528	1032.45	146.25
924.7422	1921.7764	1034.55	147.35
924.881	1923.3992	1027.9	140.4
925.0198	1925.0213	1030.75	143.1
925.1586	1926.6427	1032.6	147.95
925.2973	1928.2633	1240.25	140.35
925.436	1929.8832	1029.7	136.45
925.5747	1931.5023	1029.9	142.1
925.7134	1933.1207	1028.9	142.55
925.852	1934.7383	1027.4	140.25
925.9906	1936.3552	1028.5	142.6
926.1292	1937.9714	1029.25	141.9
926.2678	1939.5868	1030.45	141.85
926.4064	1941.2015	1029.15	140.45
926.5449	1942.8154	1029.65	144.35
926.6834	1944.4286	1025.3	135.95
926.8219	1946.041	1045.2	130.25
926.9604	1947.6528	1028.85	137.25
927.0988	1949.2637	1026.9	139.25
927.2372	1950.8739	1022.15	136.3
927.3756	1952.4834	1017.4	129.75
927.514	1954.0921	1023.55	135.05
927.6523	1955.7001	1024.05	132.05
927.7907	1957.3074	1017.35	129.95
927.929	1958.9139	1015.7	132.35
928.0673	1960.5197	1022.7	136.95
928.2055	1962.1247	1018.65	131.95
928.3438	1963.729	1016.6	133.8
928.482	1965.3325	1023.95	135.8
928.6202	1966.9353	1016.5	134
928.7584	1968.5374	1018.55	132.95
928.8965	1970.1387	1017.4	130.85
929.0346	1971.7393	1016.45	130.3
929.1727	1973.3392	1017.1	133.85
929.3108	1974.9383	1014.05	128.7
929.4489	1976.5366	1015.15	130.15
929.5869	1978.1342	1011.15	128.3
929.7249	1979.7311	1017.3	132.75
929.8629	1981.3273	1011.9	128.15
930.0009	1982.9227	1016.65	131.05
930.1388	1984.5173	1011.1	129.1
930.2767	1986.1112	1018.05	134.7
930.4146	1987.7044	1009.15	128.05
930.5525	1989.2968	1010.6	126.2
930.6904	1990.8885	1013.65	129.75
930.8282	1992.4795	1012.55	130.5
930.966	1994.0697	1005.5	121.95
931.1038	1995.6592	1011.9	129
931.2415	1997.2479	1010.9	128.75
931.3793	1998.8359	1009.05	126.5
931.517	2000.4232	1005.85	126.35
931.6547	2002.0097	1005	126.35
931.7923	2003.5955	1006.2	125.85
931.93	2005.1805	1013.1	132.2
932.0676	2006.7648	1005.5	126.8
932.2052	2008.3484	1007.4	127.9
932.3427	2009.9312	1004.9	122.2
932.4803	2011.5133	1008.25	129.25
932.6178	2013.0946	1002.35	124
932.7553	2014.6752	1004.5	125.85
932.8928	2016.2551	1007.05	124.55
933.0302	2017.8342	1005.05	122.85
933.1676	2019.4126	1006.65	126.85
933.305	2020.9902	1004.15	125.1
933.4424	2022.5672	1001.35	121.05
933.5798	2024.1433	1008.15	124.7
933.7171	2025.7188	1001.55	124.2
933.8544	2027.2935	1004.45	126.6
933.9917	2028.8674	999.95	119.7
934.129	2030.4406	999.95	121.8
934.2662	2032.0131	1001.55	125.7
934.4034	2033.5849	1003.25	119.4
934.5406	2035.1559	999.05	122.1
934.6778	2036.7261	1003	121.9
934.8149	2038.2957	1004.8	124.95
934.952	2039.8645	1003.05	120.55
935.0891	2041.4325	1009	127.5
935.2262	2042.9998	1000.5	119.95
935.3632	2044.5664	1002.55	121.8
935.5002	2046.1323	998.4	120.4
935.6372	2047.6974	1000.1	122.45
935.7742	2049.2617	999.35	121.7
935.9111	2050.8254	1003.2	119.05
936.048	2052.3883	1007.35	126.6
936.1849	2053.9504	1006.4	125.7
936.3218	2055.5118	999.55	119
936.4586	2057.0725	1003.85	122.35
936.5955	2058.6325	998.6	120.5
936.7323	2060.1917	994.1	115.75
936.869	2061.7502	1000.15	117.65
937.0058	2063.3079	996.4	117.75
937.1425	2064.8649	1000.9	118.5
937.2792	2066.4212	999.8	117.7
937.4159	2067.9767	1000.25	121.4
937.5525	2069.5315	1001.4	123.35
937.6891	2071.0856	998.65	122
937.8257	2072.6389	997.65	117.15
937.9623	2074.1915	996.45	121.45
938.0989	2075.7433	996.8	115.7
938.2354	2077.2945	990.45	112.95
938.3719	2078.8448	1000.1	118.35
938.5084	2080.3945	1002.65	121.5
938.6448	2081.9434	996.8	114.9
938.7812	2083.4916	1003.4	122.1
938.9176	2085.039	1000.4	117.15
939.054	2086.5857	1005.3	120.55
939.1903	2088.1317	998.75	114.75
939.3267	2089.677	1002.35	116.8
939.463	2091.2215	1000.65	116.2
939.5992	2092.7652	1003.4	118.55
939.7355	2094.3083	999	113.7
939.8717	2095.8506	999.15	115.3
940.0079	2097.3921	995.65	114.85
940.1441	2098.933	1000.8	119.2
940.2802	2100.4731	995.85	113.05
940.4163	2102.0124	1013.45	114.3
940.5524	2103.5511	997.6	114.8
940.6885	2105.089	997.85	115.15
940.8245	2106.6261	999.25	118.3
940.9606	2108.1626	1002.6	121.05
941.0965	2109.6983	1029.7	121.2
941.2325	2111.2332	997	116.25
941.3684	2112.7675	1000.75	116.85
941.5044	2114.301	995.75	110.8
941.6403	2115.8337	997.6	116.3
941.7761	2117.3657	1000.85	120.3
941.912	2118.897	997.95	116.35
942.0478	2120.4276	1005.4	117.5
942.1835	2121.9575	999.45	116.3
942.3193	2123.4866	1001.5	117.9
942.455	2125.0149	1001.7	116.55
942.5907	2126.5426	997.9	116.8
942.7264	2128.0695	997.15	113.3
942.8621	2129.5956	991.6	114.2
942.9977	2131.1211	997.9	111.9
943.1333	2132.6458	995.55	115.1
943.2689	2134.1698	997.65	115.3
943.4044	2135.693	998.5	115.25
943.54	2137.2155	997.35	113.25
943.6755	2138.7373	995.8	112.95
943.8109	2140.2584	992.45	113.45
943.9464	2141.7787	996.1	109.85
944.0818	2143.2983	991.15	113.65
944.2172	2144.8171	988.8	113.1
944.3526	2146.3353	991.7	108.95
944.4879	2147.8527	990.7	112.25
944.6232	2149.3693	996.6	115.1
944.7585	2150.8853	994.05	111.15
944.8938	2152.4005	993.05	109.75
945.029	2153.9149	991.65	109.25
945.1642	2155.4287	991.85	109.85
945.2994	2156.9417	988.85	104.8
945.4346	2158.454	996.25	114.35
945.5697	2159.9655	990.8	111.35
945.7048	2161.4764	992.75	113.15
945.8399	2162.9865	990.85	110.2
945.9749	2164.4958	994.9	113.75
946.1099	2166.0045	992.65	110.8
946.2449	2167.5124	990.75	111.75
946.3799	2169.0195	987.95	106.25
946.5148	2170.526	986.65	104.3
946.6498	2172.0317	990.5	107.95
946.7846	2173.5367	992.1	111.35
946.9195	2175.0409	989.1	108.7
947.0543	2176.5445	986.95	106.95
947.1891	2178.0473	992.7	110.45
947.3239	2179.5494	996.1	112.55
947.4587	2181.0507	991.6	109.1
947.5934	2182.5513	989.35	109.45
947.7281	2184.0512	988.5	104.45
947.8628	2185.5504	991.7	113
947.9974	2187.0488	989.15	109.05
948.132	2188.5465	984.3	103.25
948.2666	2190.0435	985.4	106.2
948.4012	2191.5397	990.05	110.25
948.5357	2193.0353	990.75	108.95
948.6702	2194.5301	990.05	105.95
948.8047	2196.0241	990.6	108.5
948.9392	2197.5175	992.8	109.55
949.0736	2199.0101	996.05	108.95
949.208	2200.502	983.4	102.9
949.3424	2201.9931	985.05	105.7
949.4767	2203.4835	986.5	103
949.611	2204.9733	1005.3	111.05
949.7453	2206.4622	982.5	104.75
949.8796	2207.9505	984.35	102.4
950.0138	2209.438	984	106.95
950.148	2210.9248	986.1	103.4
950.2822	2212.4109	990.4	112.55
950.4164	2213.8962	984.75	99.15
950.5505	2215.3809	988.45	104.9
950.6846	2216.8648	987.7	103.65
950.8186	2218.3479	994.4	106.55
950.9527	2219.8304	989.4	102.55
951.0867	2221.3121	990.55	105.2
951.2207	2222.7931	988.5	105.15
951.3546	2224.2733	983.85	103.95
951.4886	2225.7529	986.5	104.75
951.6225	2227.2317	983.1	100.15
951.7563	2228.7098	981.85	104.35
951.8902	2230.1872	982.55	103.35
952.024	2231.6638	984.65	104.95
952.1578	2233.1397	985.7	101.05
952.2916	2234.6149	979.55	101.4
952.4253	2236.0894	980.6	98.6
952.559	2237.5632	989.1	96.7
952.6927	2239.0362	978.35	96.9
952.8263	2240.5085	981.65	102.35
952.9599	2241.9801	984.25	102.15
953.0935	2243.4509	979.4	97.35
953.2271	2244.921	980.6	96.75
953.3606	2246.3904	982.85	99.2
953.4941	2247.8591	980.45	99.35
953.6276	2249.3271	980.35	97.9
953.7611	2250.7943	980.2	96.3
953.8945	2252.2608	978.25	96.15
954.0279	2253.7266	980.3	99.1
954.1612	2255.1917	977.05	96.75
954.2946	2256.656	976.7	96.1
954.4279	2258.1197	971.35	92.3
954.5612	2259.5826	976.6	92.9
954.6944	2261.0447	975.85	96.35
954.8276	2262.5062	980.95	97.3
954.9608	2263.9669	979.65	96.75
955.094	2265.4269	975.65	95.05
955.2271	2266.8862	976.35	96.35
955.3602	2268.3448	977.9	97.95
955.4933	2269.8026	973.55	92.65
955.6264	2271.2598	972	91.75
955.7594	2272.7162	975.55	96.15
955.8924	2274.1719	974.75	92.25
956.0253	2275.6268	972.15	90.6
956.1583	2277.0811	979.1	98.15
956.2912	2278.5346	973	92.65
956.4241	2279.9874	976.2	94.9
956.5569	2281.4395	974.95	95.6
956.6897	2282.8908	980	95.55
956.8225	2284.3414	975.55	91.45
956.9553	2285.7914	974.65	95.3
957.088	2287.2406	975.8	93
957.2207	2288.689	973.1	89.2
957.3534	2290.1368	974.1	89.35
957.486	2291.5838	980.6	97.4
957.6186	2293.0302	977.95	91.75
957.7512	2294.4758	972.95	93.25
957.8838	2295.9206	973.5	89.65
958.0163	2297.3648	971.6	92.3
958.1488	2298.8082	972.7	90.3
958.2813	2300.251	970.05	86.95
958.4137	2301.693	973.8	89.85
958.5461	2303.1343	973.45	91.4
958.6785	2304.5748	970.85	88.45
958.8108	2306.0147	971.1	91.45
958.9432	2307.4538	971.45	88.9
959.0754	2308.8922	969	93.1
959.2077	2310.3299	969.3	88.45
959.3399	2311.7669	967.75	89
959.4721	2313.2031	971.05	89.7
959.6043	2314.6387	974.05	90.85
959.7365	2316.0735	968.85	88.15
959.8686	2317.5076	966.75	83.15
960.0006	2318.941	968.95	85.55
960.1327	2320.3737	973.45	91.55
960.2647	2321.8056	974.65	91.8
960.3967	2323.2369	972.25	89.6
960.5287	2324.6674	975.55	93.2
960.6606	2326.0972	978.2	95.35
960.7925	2327.5263	975.9	94.7
960.9244	2328.9547	980.35	100.55
961.0562	2330.3823	976.1	92.4
961.1881	2331.8092	974.95	89.4
961.3198	2333.2355	973	90.85
961.4516	2334.661	967.85	85.25
961.5833	2336.0858	971.25	86.6
961.715	2337.5098	968.55	85
961.8467	2338.9332	967.5	82.25
961.9783	2340.3558	969.05	83.6
962.1099	2341.7778	967.25	83.6
962.2415	2343.199	966.75	81.7
962.373	2344.6195	962.75	81.5
962.5045	2346.0393	963.1	80.55
962.636	2347.4583	965.6	82.35
962.7675	2348.8767	966.65	85.05
962.8989	2350.2943	969.15	84.7
963.0303	2351.7113	968.9	85.7
963.1617	2353.1275	968.3	84.95
963.293	2354.543	991.45	84.4
963.4243	2355.9578	965.4	81.9
963.5556	2357.3718	962.5	79.45
963.6868	2358.7852	967.3	82.25
963.818	2360.1978	963.1	81.15
963.9492	2361.6098	965.45	84.75
964.0803	2363.021	971.35	84.65
964.2114	2364.4315	966.3	82.6
964.3425	2365.8413	974.55	90.2
964.4736	2367.2504	960.35	79.05
964.6046	2368.6587	960.2	79.35
964.7356	2370.0664	961.75	80.55
964.8666	2371.4733	962.4	79.95
964.9975	2372.8795	966.3	82.3
965.1284	2374.285	961.85	77.9
965.2593	2375.6899	961.55	78.1
965.3901	2377.0939	963.55	79.25
965.5209	2378.4973	960	78.05
965.6517	2379.9	963.3	80.75
965.7825	2381.3019	959.6	76.6
965.9132	2382.7032	959.4	77.35
966.0439	2384.1037	962.35	80.6
966.1745	2385.5035	957.85	74.55
966.3051	2386.9027	958.05	77.85
966.4357	2388.3011	962.6	77.75
966.5663	2389.6987	960.4	78.45
966.6968	2391.0957	964.65	82.55
966.8273	2392.492	959.45	77.7
966.9578	2393.8876	959.5	76.85
967.0882	2395.2824	957.6	73.55
967.2186	2396.6765	961.6	76.2
967.349	2398.07	960.3	75.75
967.4793	2399.4627	959.4	73.95
967.6097	2400.8547	959.35	73.6
967.7399	2402.246	963.8	73.75
967.8702	2403.6366	957.2	72.5
968.0004	2405.0265	959.35	76.15
968.1306	2406.4156	963.9	75.9
968.2607	2407.8041	963	74.45
968.3909	2409.1918	958.95	71.8
968.521	2410.5789	963	78.9
968.651	2411.9652	959.35	72.75
968.781	2413.3508	956.2	72.3
968.911	2414.7358	959.35	75.1
969.041	2416.12	954.75	68.6
969.1709	2417.5035	955.4	70.85
969.3008	2418.8863	957.85	73.45
969.4307	2420.2684	956.5	73.1
969.5606	2421.6497	957.5	73.65
969.6904	2423.0304	954.9	71.1
969.8201	2424.4104	955.15	70.55
969.9499	2425.7896	962.25	72.25
970.0796	2427.1682	957	73.2
970.2093	2428.546	956	69.85
970.3389	2429.9232	962.1	77.15
970.4685	2431.2996	954.5	71.9
970.5981	2432.6753	954.85	70.2
970.7277	2434.0503	953.3	69.55
970.8572	2435.4246	956.25	71.6
970.9867	2436.7982	960.1	75.7
971.1161	2438.1711	953.7	69.9
971.2456	2439.5433	957.35	71.9
971.375	2440.9148	953.65	70.4
971.5043	2442.2856	951.25	68.7
971.6336	2443.6557	955.35	69.15
971.7629	2445.025	954.85	71.5
971.8922	2446.3937	953.65	67.6
972.0214	2447.7617	951.7	68.5
972.1506	2449.1289	952.2	69.15
972.2798	2450.4955	954.95	70.7
972.4089	2451.8613	946.75	64.75
972.538	2453.2265	948.35	64.55
972.6671	2454.5909	952.25	68.45
972.7961	2455.9546	952.6	70.55
972.9251	2457.3177	946.95	65.15
973.0541	2458.68	951.7	67.55
973.1831	2460.0416	952.15	69
973.312	2461.4025	948.3	65
973.4408	2462.7627	962.7	68.65
973.5697	2464.1222	946.95	65
973.6985	2465.4811	951.05	66.8
973.8273	2466.8392	952.55	69.95
973.956	2468.1966	953.1	66.55
974.0847	2469.5533	954.8	68.45
974.2134	2470.9093	947.95	64.1
974.3421	2472.2645	946	62.6
974.4707	2473.6191	947.85	65.55
974.5993	2474.973	949.25	66.7
974.7278	2476.3262	952.55	69.05
974.8563	2477.6787	946.75	65.1
974.9848	2479.0305	945.7	61.5
975.1132	2480.3816	950.8	65.85
975.2417	2481.7319	948.15	66
975.37	2483.0816	950.15	64.8
975.4984	2484.4306	950.55	68.6
975.6267	2485.7789	948.45	67.1
975.755	2487.1264	946	59.8
975.8833	2488.4733	946.65	66.3
976.0115	2489.8195	953	61.85
976.1397	2491.165	949.8	65.35
976.2678	2492.5097	948.4	63.7
976.3959	2493.8538	943.3	62.9
976.524	2495.1972	946	62.9
976.6521	2496.5398	945.95	61.25
976.7801	2497.8818	949.4	64.2
976.9081	2499.2231	946.35	61.1
977.036	2500.5637	950.5	66.1
977.164	2501.9035	945.95	61.9
977.2918	2503.2427	949	59.2
977.4197	2504.5812	948.4	64.8
977.5475	2505.919	950.6	65.9
977.6753	2507.256	943.05	60.15
977.8031	2508.5924	948.5	65.55
977.9308	2509.9281	951	61.3
978.0585	2511.2631	943.4	60.05
978.1861	2512.5974	943.1	60.2
978.3137	2513.9309	942.55	61.15
978.4413	2515.2638	968.35	55.9
978.5689	2516.596	941.25	58.3
978.6964	2517.9275	946.85	61.8
978.8239	2519.2583	941.7	57.8
978.9513	2520.5884	944.05	61.8
979.0788	2521.9178	943.7	59.55
979.2062	2523.2465	942.75	61.5
979.3335	2524.5745	939.35	58.7
979.4608	2525.9018	942.15	59.4
979.5881	2527.2284	938.45	56.05
979.7154	2528.5543	940.05	59.8
979.8426	2529.8796	942.1	59.45
979.9698	2531.2041	941.6	58.75
980.0969	2532.5279	938.65	59.8
980.224	2533.851	942.85	60.55
980.3511	2535.1735	941.65	59.95
980.4781	2536.4952	937.7	55.65
980.6052	2537.8163	942.25	57.25
980.7321	2539.1366	940.7	59.95
980.8591	2540.4562	942.25	56.45
980.986	2541.7752	940.7	58.7
981.1129	2543.0935	942.35	60
981.2397	2544.411	937.45	52.3
981.3665	2545.7279	940.5	58.7
981.4933	2547.0441	939.15	56.6
981.62	2548.3596	940.25	54.1
981.7467	2549.6744	943.7	61.1
981.8734	2550.9885	949.9	59.2
982.0001	2552.3019	938.55	57.65
982.1267	2553.6146	940.4	55.9
982.2532	2554.9266	938.85	55.3
982.3798	2556.2379	940.4	57.35
982.5063	2557.5485	933.6	53.8
982.6327	2558.8585	947.6	58
982.7592	2560.1677	944.6	57.95
982.8856	2561.4762	939.7	56.35
983.0119	2562.7841	942.95	57.25
983.1383	2564.0913	937.25	56.05
983.2646	2565.3977	938.5	55
983.3908	2566.7035	940.5	58.4
983.517	2568.0086	941.3	55
983.6432	2569.313	940.8	58.35
983.7694	2570.6167	941.65	55.65
983.8955	2571.9197	938	55.4
984.0216	2573.222	941.75	54.3
984.1476	2574.5236	940.75	59.05
984.2737	2575.8246	939.6	54.25
984.3996	2577.1248	940.75	56.05
984.5256	2578.4244	937.2	53.65
984.6515	2579.7232	936.75	52.7
984.7774	2581.0214	962.05	52.15
984.9032	2582.3189	936.05	54.35
985.029	2583.6157	941.55	54.3
985.1548	2584.9118	937.95	54.6
985.2806	2586.2072	937.05	54.75
985.4063	2587.5019	932.55	50
985.5319	2588.7959	938.3	54.25
985.6576	2590.0893	938.25	53.45
985.7832	2591.3819	936.8	54.75
985.9087	2592.6739	935.65	53.65
986.0343	2593.9652	939.45	53.8
986.1597	2595.2557	937.45	55
986.2852	2596.5456	940.1	53.55
986.4106	2597.8348	936.75	54.35
986.536	2599.1234	937.8	57
986.6614	2600.4112	935.95	53.95
986.7867	2601.6983	939.8	55.7
986.912	2602.9848	938.25	54.1
987.0372	2604.2705	945.4	55.35
987.1624	2605.5556	938.05	54
987.2876	2606.84	936.4	54.05
987.4128	2608.1237	936.6	53.35
987.5379	2609.4067	935.75	53.4
987.6629	2610.689	943.7	51.6
987.788	2611.9707	941	55.9
987.913	2613.2516	935.2	47.7
988.0379	2614.5319	936.3	56
988.1629	2615.8115	933.25	48.35
988.2878	2617.0903	933.7	49.35
988.4126	2618.3685	935.15	51.9
988.5375	2619.6461	932.25	47.8
988.6622	2620.9229	931.85	49.1
988.787	2622.199	931.25	48.85
988.9117	2623.4745	933.2	50.15
989.0364	2624.7493	933.85	52.15
989.161	2626.0234	931.75	51.6
989.2857	2627.2968	933.2	50.9
989.4102	2628.5695	933.05	49.3
989.5348	2629.8415	932	50.15
989.6593	2631.1128	933.4	48.05
989.7837	2632.3835	932.65	52.65
989.9082	2633.6535	929.75	45.3
990.0326	2634.9228	928.85	47.4
990.1569	2636.1914	931.1	49.2
990.2812	2637.4593	935.1	48.05
990.4055	2638.7265	929.35	45
990.5298	2639.9931	930.5	49.1
990.654	2641.259	933.05	51.25
990.7782	2642.5242	928.95	46.7
990.9023	2643.7887	929.1	46.65
991.0264	2645.0525	927.95	47.35
991.1505	2646.3156	931.95	48.75
991.2745	2647.5781	928.5	47.5
991.3985	2648.8398	927.6	46.8
991.5225	2650.1009	937.6	49.05
991.6464	2651.3613	926.8	46.05
991.7703	2652.6211	929.45	49.1
991.8942	2653.8801	926.05	44.75
992.018	2655.1385	930.7	47.75
992.1418	2656.3961	926.25	46.05
992.2655	2657.6531	925.95	45.65
992.3892	2658.9094	928.05	43.65
992.5129	2660.1651	926.8	46
992.6366	2661.42	928.05	45.85
992.7602	2662.6743	928.6	46.6
992.8837	2663.9279	927.15	47.4
993.0073	2665.1808	926.3	44.7
993.1307	2666.433	927.4	43.3
993.2542	2667.6846	928.9	46.05
993.3776	2668.9354	931.55	46.75
993.501	2670.1856	928.75	46.5
993.6244	2671.4351	927.8	44.9
993.7477	2672.6839	930.3	48.55
993.8709	2673.9321	928.6	48.3
993.9942	2675.1795	927.65	44.6
994.1174	2676.4263	929.2	49.45
994.2405	2677.6724	930.3	48.2
994.3637	2678.9179	927.3	43.45
994.4868	2680.1626	928.75	48.95
994.6098	2681.4067	928.55	46.55
994.7328	2682.6501	929.9	50.5
994.8558	2683.8928	928.9	48.1
994.9788	2685.1348	924.8	44.6
995.1017	2686.3761	924.4	43
995.2245	2687.6168	926.6	45.05
995.3474	2688.8568	926.85	46.9
995.4702	2690.0961	926.9	48.25
995.5929	2691.3348	924.6	42.1
995.7156	2692.5727	924.4	44.5
995.8383	2693.81	923.85	42.4
995.961	2695.0466	922.9	43.35
996.0836	2696.2826	925.75	43.15
996.2062	2697.5178	929.9	44.2
996.3287	2698.7524	924.7	44.45
996.4512	2699.9863	926.05	44.55
996.5737	2701.2195	921.6	41.3
996.6961	2702.452	927.25	43.15
996.8185	2703.6839	928.65	47.4
996.9408	2704.9151	923.75	44.05
997.0631	2706.1456	927.6	47.2
997.1854	2707.3755	929.5	46.7
997.3077	2708.6046	925.15	41.8
997.4299	2709.8331	924.25	43.65
997.552	2711.0609	927.3	47.5
997.6742	2712.2881	924.1	41.6
997.7963	2713.5145	929.35	45.3
997.9183	2714.7403	927.55	48.15
998.0403	2715.9654	926.3	44.9
998.1623	2717.1899	943.9	48.85
998.2842	2718.4136	932.75	51.85
998.4062	2719.6367	931.65	50.95
998.528	2720.8591	936.1	47.65
998.6498	2722.0809	934.3	54.6
998.7716	2723.3019	937.6	52.4
998.8934	2724.5223	933.55	51.1
999.0151	2725.7421	935.35	55.65
999.1368	2726.9611	934.45	53.2
999.2584	2728.1795	935.5	52.1
999.38	2729.3972	929.45	49.8
999.5016	2730.6142	936.4	48.35
999.6231	2731.8306	929.85	47.25
999.7446	2733.0462	932.05	48.7
999.8661	2734.2612	934.85	49
999.9875	2735.4756	925.45	41.45
1000.1089	2736.6892	926.3	46.55
1000.2302	2737.9022	925.55	46.5
1000.3515	2739.1145	925.2	42.6
1000.4728	2740.3262	929.45	41.05
1000.594	2741.5372	924.05	44.9
1000.7152	2742.7475	923.7	42.85
1000.8363	2743.9571	925.1	41.85
1000.9575	2745.1661	926.2	42.45
1001.0785	2746.3744	922.25	41.5
1001.1996	2747.582	918.35	37.85
1001.3206	2748.7889	920.25	38.75
1001.4415	2749.9952	920.7	40.35
1001.5625	2751.2008	919.35	37.35
1001.6833	2752.4057	922.3	40.9
1001.8042	2753.61	920.3	39.15
1001.925	2754.8136	920.65	39.95
1002.0458	2756.0165	917.5	36.35
1002.1665	2757.2188	917.05	37.1
1002.2872	2758.4204	920	38.35
1002.4078	2759.6213	920.65	38.35
1002.5285	2760.8215	921.5	35.2
1002.649	2762.0211	919.2	38.25
1002.7696	2763.22	919.05	35.8
1002.8901	2764.4182	917.6	35.8
1003.0106	2765.6158	917.85	38.25
1003.131	2766.8127	917.5	36.7
1003.2514	2768.009	917	37.3
1003.3717	2769.2045	919.35	39.6
1003.492	2770.3994	917.15	35.5
1003.6123	2771.5936	917.55	36.75
1003.7325	2772.7872	914.25	36.75
1003.8527	2773.9801	916.65	35.45
1003.9729	2775.1723	931.65	35.4
1004.093	2776.3639	913.55	34.35
1004.2131	2777.5548	915.5	34.65
1004.3331	2778.745	917.55	35.85
1004.4531	2779.9346	914.7	33.25
1004.5731	2781.1235	913.1	31.6
1004.693	2782.3117	915.3	36.8
1004.8129	2783.4992	912.65	33.5
1004.9328	2784.6861	913.4	35.9
1005.0526	2785.8723	918.5	38.55
1005.1723	2787.0579	913.75	33.8
1005.2921	2788.2428	913.45	33.9
1005.4118	2789.427	913.8	35
1005.5314	2790.6106	914.95	33.6
1005.651	2791.7935	917.5	37.4
1005.7706	2792.9757	913.4	33.55
1005.8902	2794.1573	921	37.95
1006.0097	2795.3382	918.5	40.3
1006.1291	2796.5184	912.6	33.65
1006.2485	2797.698	916.35	33.6
1006.3679	2798.8769	913.6	34.1
1006.4873	2800.0551	915.75	36.65
1006.6066	2801.2327	917.95	36.7
1006.7258	2802.4096	916.25	37.45
1006.8451	2803.5859	917.05	37.05
1006.9642	2804.7615	919.35	37.95
1007.0834	2805.9364	917.25	38.95
1007.2025	2807.1106	920.95	41.9
1007.3216	2808.2842	917.75	38.05
1007.4406	2809.4572	918.35	40.1
1007.5596	2810.6294	921.3	40.95
1007.6785	2811.801	920.65	41.95
1007.7975	2812.972	923.25	44.45
1007.9163	2814.1423	925.3	45.5
1008.0352	2815.3119	927.4	47.75
1008.154	2816.4808	929.2	50.15
1008.2727	2817.6491	935.25	54.9
1008.3914	2818.8167	933.95	55.3
1008.5101	2819.9837	942.05	59.6
1008.6288	2821.15	942.3	64.05
1008.7474	2822.3157	944.25	65.2
1008.8659	2823.4807	953.8	73.95
1008.9844	2824.645	961.2	81.35
1009.1029	2825.8086	967.35	89.1
1009.2214	2826.9716	967.9	88.7
1009.3398	2828.134	978.75	99.9
1009.4581	2829.2957	986.4	107.05
1009.5764	2830.4567	987.45	109.7
1009.6947	2831.617	992.95	113.95
1009.813	2832.7767	992.1	111.5
1009.9312	2833.9358	994.4	117.65
1010.0493	2835.0941	994.7	116.55
1010.1675	2836.2519	993.1	114.25
1010.2855	2837.4089	990.75	109.2
1010.4036	2838.5653	982.75	105.2
1010.5216	2839.7211	982.2	104.85
1010.6396	2840.8761	980.85	101.15
1010.7575	2842.0306	977.4	98.15
1010.8754	2843.1843	977.65	99.2
1010.9932	2844.3374	978.25	100.95
1011.111	2845.4899	977	95.2
1011.2288	2846.6417	983.55	105.05
1011.3465	2847.7928	982.75	104.7
1011.4642	2848.9433	984.45	105
1011.5818	2850.0931	982	104.15
1011.6995	2851.2422	988.05	108
1011.817	2852.3907	991.2	110.85
1011.9345	2853.5385	987.55	107.75
1012.052	2854.6857	1019.65	115.75
1012.1695	2855.8323	991.65	113.75
1012.2869	2856.9781	992.5	112.5
1012.4042	2858.1233	996.55	116.95
1012.5216	2859.2679	1001.2	123.55
1012.6389	2860.4118	998.95	121.45
1012.7561	2861.555	1009.5	127.3
1012.8733	2862.6976	1010.65	129.35
1012.9905	2863.8395	1006.9	129.45
1013.1076	2864.9808	1008.55	130
1013.2247	2866.1214	1007	128.8
1013.3417	2867.2614	1012	131.65
1013.4587	2868.4007	1014.05	135.15
1013.5757	2869.5393	1020.15	136.6
1013.6926	2870.6773	1020.8	139.3
1013.8095	2871.8146	1024.6	141.3
1013.9263	2872.9513	1024.2	143.45
1014.0431	2874.0874	1019.9	141.6
1014.1599	2875.2227	1022.35	141.25
1014.2766	2876.3574	1021.15	141.8
1014.3933	2877.4915	1018.15	138.2
1014.51	2878.6249	1025.7	148.35
1014.6266	2879.7577	1030.7	149.75
1014.7431	2880.8898	1042.3	155.8
1014.8596	2882.0212	1029.65	152.7
1014.9761	2883.152	1030.2	151.2
1015.0925	2884.2821	1033.3	155.9
1015.2089	2885.4116	1037.8	160.05
1015.3253	2886.5405	1038.4	160.4
1015.4416	2887.6686	1040.55	159.55
1015.5579	2888.7962	1036.6	160
1015.6741	2889.923	1037.5	160.9
1015.7903	2891.0493	1036.55	158.75
1015.9065	2892.1748	1034.85	155.05
1016.0226	2893.2997	1039.15	160.85
1016.1387	2894.424	1035.9	157.35
1016.2547	2895.5476	1041.7	163.55
1016.3707	2896.6706	1035.9	157.9
1016.4866	2897.7929	1040.05	160.05
1016.6025	2898.9145	1038.9	158.9
1016.7184	2900.0355	1041.75	162.15
1016.8342	2901.1559	1038.1	159.85
1016.95	2902.2756	1042.5	160.75
1017.0658	2903.3946	1034.85	157.35
1017.1815	2904.513	1044.45	164.7
1017.2971	2905.6308	1036.5	157.6
1017.4127	2906.7479	1036.8	159.25
1017.5283	2907.8643	1040.6	161.25
1017.6439	2908.9801	1034.5	153
1017.7594	2910.0953	1037.35	160.9
1017.8748	2911.2098	1041	157.6
1017.9902	2912.3236	1043.45	156.7
1018.1056	2913.4368	1037.05	155.75
1018.2209	2914.5494	1033.35	153.35
1018.3362	2915.6613	1040.45	157.15
1018.4515	2916.7725	1038.5	158.05
1018.5667	2917.8831	1031.3	152.55
1018.6819	2918.9931	1034.55	153.8
1018.797	2920.1024	1027.25	150.1
1018.9121	2921.211	1023.1	144.45
1019.0271	2922.319	1024	144.85
1019.1421	2923.4264	1018	139.05
1019.2571	2924.5331	1016.4	140.4
1019.372	2925.6391	1017.35	140.85
1019.4869	2926.7445	1018.3	139.2
1019.6017	2927.8493	1018.1	140.65
1019.7165	2928.9534	1018.15	140.85
1019.8313	2930.0569	1023.75	142.85
1019.946	2931.1597	1026.5	148.35
1020.0606	2932.2619	1024.4	145.55
1020.1753	2933.3634	1022.7	145.6
1020.2899	2934.4643	1030.95	145.7
1020.4044	2935.5645	1035.4	151.65
1020.5189	2936.6641	1030.6	148.75
1020.6334	2937.763	1031.1	153.1
1020.7478	2938.8613	1027	149.2
1020.8622	2939.959	1028.45	143.25
1020.9765	2941.056	1017.9	141.6
1021.0908	2942.1523	1016.45	137.6
1021.2051	2943.248	1010.8	133
1021.3193	2944.3431	1002.2	124.15
1021.4334	2945.4375	994.25	113.65
1021.5476	2946.5313	988.2	112.1
1021.6617	2947.6244	984	107.3
1021.7757	2948.7169	977.6	99.75
1021.8897	2949.8087	973.6	95.9
1022.0037	2950.8999	966.6	89.85
1022.1176	2951.9904	964.8	86
1022.2315	2953.0803	960.9	83.9
1022.3453	2954.1696	954.75	75.65
1022.4591	2955.2582	956.5	80.65
1022.5728	2956.3462	953.85	75.65
1022.6865	2957.4335	952.95	73.35
1022.8002	2958.5202	955.15	74.8
1022.9138	2959.6062	952.45	73.75
1023.0274	2960.6916	950.65	72.7
1023.141	2961.7764	951.4	71.7
1023.2545	2962.8605	953.65	74.55
1023.3679	2963.9439	951.3	74.5
1023.4813	2965.0267	949.65	70.8
1023.5947	2966.1089	972.4	73.9
1023.708	2967.1905	947.9	69.6
1023.8213	2968.2714	945.45	68
1023.9346	2969.3516	950.45	72
1024.0478	2970.4312	952.6	67.7
1024.1609	2971.5102	947.05	70.75
1024.274	2972.5885	947.15	69.05
1024.3871	2973.6662	953.5	71.2
1024.5002	2974.7432	946.45	69.9
1024.6132	2975.8196	947.4	70.9
1024.7261	2976.8954	947.45	70.55
1024.839	2977.9705	946.05	68.75
1024.9519	2979.045	947	68.95
1025.0647	2980.1188	947.1	70.3
1025.1775	2981.192	944.85	67.5
1025.2902	2982.2645	951.05	72.6
1025.4029	2983.3364	942.55	65.7
1025.5156	2984.4077	942.95	65.5
1025.6282	2985.4783	946.2	61.05
1025.7407	2986.5483	938.25	60.55
1025.8532	2987.6177	934.8	57.65
1025.9657	2988.6864	935.9	56.95
1026.0782	2989.7545	934.2	55.75
1026.1906	2990.8219	929.75	52.9
1026.3029	2991.8887	930.2	51.9
1026.4152	2992.9548	926.85	48.3
1026.5275	2994.0204	919.65	42.1
1026.6397	2995.0852	918.05	41.45
1026.7519	2996.1495	921.3	44.15
1026.864	2997.2131	916.7	39.9
1026.9761	2998.276	914.3	36.6
1027.0882	2999.3383	914.5	34.6
1027.2002	3000.4	912.5	33.85
1027.3122	3001.4611	906.75	29.2
1027.4241	3002.5215	909.5	33.9
1027.536	3003.5812	907.1	29.6
1027.6478	3004.6404	908.05	30.6
1027.7596	3005.6989	907.5	27.25
1027.8714	3006.7567	905.25	27.8
1027.9831	3007.8139	937.7	28.25
1028.0947	3008.8705	905.6	29.45
1028.2064	3009.9264	906.25	24.05
1028.3179	3010.9818	902.45	26.35
1028.4295	3012.0364	903.5	27.9
1028.541	3013.0905	902.3	25.45
1028.6524	3014.1439	900.5	25.8
1028.7638	3015.1966	901.65	24.9
1028.8752	3016.2487	901.15	24.5
1028.9865	3017.3002	910.15	27.1
1029.0978	3018.3511	898.85	23.75
1029.209	3019.4013	900	23.4
1029.3202	3020.4509	900.55	23.3
1029.4314	3021.4998	898.6	22.55
1029.5425	3022.5481	899.55	22.45
1029.6535	3023.5958	900.1	22.55
1029.7645	3024.6428	899.45	17.55
1029.8755	3025.6892	900	21.7
1029.9864	3026.735	899.5	22.65
1030.0973	3027.7802	900.2	23.65
1030.2082	3028.8247	899.6	21.35
1030.319	3029.8685	899.05	22.1
1030.4297	3030.9118	900.95	21.45
1030.5404	3031.9544	898.85	23.15
1030.6511	3032.9963	899.2	20.65
1030.7617	3034.0376	897.75	21.95
1030.8723	3035.0783	902.35	23.55
1030.9829	3036.1184	900	21
1031.0934	3037.1578	898.4	21.4
1031.2038	3038.1966	900	22.4
1031.3142	3039.2348	899.1	21.55
1031.4246	3040.2723	907.2	21.5
1031.5349	3041.3092	897.8	23.8
1031.6452	3042.3455	899.8	24.25
1031.7554	3043.3811	900.1	21
1031.8656	3044.4161	899.45	19.1
1031.9758	3045.4505	898.65	23.15
1032.0859	3046.4842	899.4	20.4
1032.1959	3047.5173	897.3	22.95
1032.3059	3048.5498	898.45	21.75
1032.4159	3049.5816	900.05	21.9
1032.5258	3050.6128	899.25	21.15
1032.6357	3051.6434	903.75	25.8
1032.7455	3052.6734	901.6	22.35
1032.8553	3053.7027	900.85	23.1
1032.9651	3054.7314	899.5	22.6
1033.0748	3055.7594	898.05	22.05
1033.1845	3056.7868	900.55	20.95
1033.2941	3057.8136	901.45	26.35
1033.4037	3058.8398	895.7	19.7
1033.5132	3059.8653	898.5	22.3
1033.6227	3060.8902	900.7	25.35
1033.7321	3061.9145	899.75	21.85
1033.8415	3062.9381	899.65	22.4
1033.9509	3063.9612	916.4	25.35
1034.0602	3064.9835	902.7	25.85
1034.1694	3066.0053	900.75	20.4
1034.2787	3067.0264	900.5	24.5
1034.3878	3068.0469	902.5	24.15
1034.497	3069.0668	903.95	26.45
1034.6061	3070.086	897.95	22.35
1034.7151	3071.1046	900.2	23.9
1034.8241	3072.1226	901.55	23.15
1034.9331	3073.1399	901.9	26.65
1035.042	3074.1567	898.7	21.05
1035.1508	3075.1727	902.65	23.2
1035.2597	3076.1882	898.25	21.6
1035.3684	3077.203	895.1	16.85
1035.4772	3078.2173	897.35	17.4
1035.5859	3079.2308	900.55	20.3
1035.6945	3080.2438	899.95	21.3
1035.8031	3081.2561	895	19.35
1035.9117	3082.2678	896.65	20.3
1036.0202	3083.2789	895.35	17.25
1036.1286	3084.2893	895.85	16.95
1036.2371	3085.2991	893.5	14.1
1036.3454	3086.3083	898.2	18.05
1036.4538	3087.3169	898.05	20.75
1036.562	3088.3248	896.35	17.9
1036.6703	3089.3321	893.3	15.3
1036.7785	3090.3388	894.1	20.55
1036.8866	3091.3449	892.55	15.7
1036.9948	3092.3503	894.85	16.5
1037.1028	3093.3551	893	16.25
1037.2108	3094.3593	894.85	19.2
1037.3188	3095.3629	893.75	17.05
1037.4267	3096.3658	892.9	14.25
1037.5346	3097.3681	890.25	13.8
1037.6425	3098.3698	893.6	15.75
1037.7503	3099.3708	892.5	15.25
1037.858	3100.3713	895.05	19.1
1037.9657	3101.3711	890.7	12.5
1038.0734	3102.3702	1027.15	9.35
1038.181	3103.3688	891.1	13.4
1038.2886	3104.3667	891.4	14.45
1038.3961	3105.364	890.6	15
1038.5036	3106.3607	893	14.25
1038.611	3107.3568	892	14.55
1038.7184	3108.3522	889.5	14.7
1038.8257	3109.347	894.15	17
1038.933	3110.3412	892.35	11.1
1039.0403	3111.3348	889.2	13.4
1039.1475	3112.3277	888.95	11.55
1039.2547	3113.32	888.6	11.25
1039.3618	3114.3117	889.25	12.3
1039.4689	3115.3028	889.3	12
1039.5759	3116.2932	890.85	12.55
1039.6829	3117.2831	893.55	10.45
1039.7898	3118.2723	888.65	13.6
1039.8967	3119.2608	890.5	15.6
1040.0035	3120.2488	888.6	12.5
1040.1103	3121.2361	890.05	12.95
1040.2171	3122.2229	888.2	10.5
1040.3238	3123.209	888.85	12.8
1040.4305	3124.1944	889.15	13.55
1040.5371	3125.1793	889.05	11.25
1040.6437	3126.1635	887.35	11.2
1040.7502	3127.1471	888.1	12.5
1040.8567	3128.1301	887.9	12.9
1040.9631	3129.1125	886.05	9.95
1041.0695	3130.0942	887.5	10.7
1041.1759	3131.0753	895.2	9.55
1041.2822	3132.0558	889.6	10.95
1041.3884	3133.0357	887.35	9.9
1041.4946	3134.015	887.4	9.2
1041.6008	3134.9936	888.5	11.7
1041.7069	3135.9716	905.05	7.85
1041.813	3136.949	886.85	11.4
1041.919	3137.9258	905.25	10.05
1042.025	3138.902	891.65	11.1
1042.1309	3139.8775	886	10.2
1042.2368	3140.8524	887.25	10.5
1042.3427	3141.8267	889.4	11.1
1042.4485	3142.8004	885.4	9.8
1042.5542	3143.7735	892.25	9.65
1042.6599	3144.7459	887.6	10.15
1042.7656	3145.7178	889.95	11.7
1042.8712	3146.689	883.7	8.65
1042.9768	3147.6596	885.4	7.4
1043.0823	3148.6295	886.85	9.65
1043.1878	3149.5989	885.45	10.65
1043.2932	3150.5676	884.75	9.85
1043.3986	3151.5357	881.5	7.5
1043.5039	3152.5032	883.15	7.3
1043.6092	3153.4701	885.3	8.8
1043.7145	3154.4364	887.55	7.9
1043.8197	3155.402	884.95	9.7
1043.9248	3156.367	887.4	7
1044.03	3157.3315	929.95	10.35
1044.135	3158.2952	884.95	9.1
1044.24	3159.2584	885.65	9.65
1044.345	3160.221	884.7	9.05
1044.4499	3161.1829	885.3	10.05
1044.5548	3162.1442	882.85	6.15
1044.6596	3163.105	885	7.85
1044.7644	3164.065	883.95	6.4
1044.8692	3165.0245	888.75	8.3
1044.9739	3165.9834	882.8	6.35
1045.0785	3166.9416	883.65	7.75
1045.1831	3167.8993	884.45	8.75
1045.2877	3168.8563	884.85	7.6
1045.3922	3169.8127	881.45	5.5
1045.4966	3170.7684	884.65	7.45
1045.6011	3171.7236	884.6	7.8
1045.7054	3172.6782	886.9	9.55
1045.8098	3173.6321	884.35	7
1045.914	3174.5854	889.05	8.9
1046.0183	3175.5381	883.25	6.7
1046.1224	3176.4902	883.6	7.4
1046.2266	3177.4417	884.55	7.45
1046.3307	3178.3926	883.4	10.35
1046.4347	3179.3428	882.5	7.85
1046.5387	3180.2924	883.6	9.7
1046.6427	3181.2415	883.1	5.6
1046.7466	3182.1899	884.65	6.8
1046.8504	3183.1377	882.45	5.75
1046.9542	3184.0848	888.3	8.75
1047.058	3185.0314	883.1	7.4
1047.1617	3185.9773	884.25	6.2
1047.2654	3186.9227	883.9	5.6
1047.369	3187.8674	884.7	11.25
1047.4726	3188.8115	887.8	6.45
1047.5761	3189.755	882.9	6.9
1047.6796	3190.6979	883.25	6.05
1047.783	3191.6402	882.95	6.9
1047.8864	3192.5818	884.65	9.35
1047.9898	3193.5229	889.45	7.3
1048.0931	3194.4633	883.25	6.55
1048.1963	3195.4031	883.75	6.9
1048.2995	3196.3423	882.85	6.55
1048.4027	3197.2809	884.2	7.45
1048.5058	3198.2189	883.2	6.3
1048.6089	3199.1563	889.55	6.25
1048.7119	3200.0931	881.6	8.4
1048.8148	3201.0292	882.35	6.5
1048.9178	3201.9648	880.25	5.7
1049.0206	3202.8997	886.05	6.85
1049.1235	3203.834	883.05	6.05
1049.2262	3204.7677	880.2	3.7
1049.329	3205.7008	882.55	4.9
1049.4317	3206.6333	881.3	7.15
1049.5343	3207.5652	885.4	4.9
1049.6369	3208.4964	882.7	4.95
1049.7394	3209.4271	881.35	3.15
1049.8419	3210.3571	882.25	6
1049.9444	3211.2865	882.75	5.25
1050.0468	3212.2154	883.3	7.25
1050.1491	3213.1436	884.3	5.35
1050.2514	3214.0712	889.1	7.85
1050.3537	3214.9982	882.4	5.45
1050.4559	3215.9246	882.9	7.1
1050.5581	3216.8503	881.95	6.75
1050.6602	3217.7755	881.8	5.1
1050.7623	3218.7001	881.75	5.3
1050.8643	3219.624	883.15	7.15
1050.9663	3220.5473	884	7
1051.0682	3221.4701	883.3	6.2
1051.1701	3222.3922	882.8	3.7
1051.2719	3223.3137	881.2	6.1
1051.3737	3224.2346	881.9	6.2
1051.4754	3225.1549	880.6	5.85
1051.5771	3226.0746	880.5	5.85
1051.6788	3226.9937	881.55	4.15
1051.7804	3227.9121	880.7	7.35
1051.8819	3228.83	879.8	4.8
1051.9834	3229.7473	882.3	6.2
1052.0849	3230.6639	881.55	5.5
1052.1863	3231.5799	881.4	3.05
1052.2876	3232.4954	882.4	6.95
1052.3889	3233.4102	878.95	2.6
1052.4902	3234.3244	880.35	6.9
1052.5914	3235.238	882.35	7.9
1052.6926	3236.151	903.25	2.8
1052.7937	3237.0634	881.8	6.8
1052.8948	3237.9752	879.3	1.8
1052.9958	3238.8864	881.05	5.5
1053.0968	3239.797	880.7	5.35
1053.1977	3240.7069	882.4	6
1053.2986	3241.6163	881.4	5.45
1053.3994	3242.5251	879.55	3.05
1053.5002	3243.4332	880.1	6.65
1053.6009	3244.3408	880.1	5.2
1053.7016	3245.2477	881	4.9
1053.8022	3246.154	881	5.45
1053.9028	3247.0598	878.6	2.35
1054.0034	3247.9649	883.05	7.8
1054.1039	3248.8694	880.55	4.6
1054.2043	3249.7733	878.9	3.6
1054.3047	3250.6766	879.8	5.2
1054.4051	3251.5793	882.15	5
1054.5054	3252.4814	878.5	4.6
1054.6056	3253.3829	879.8	5.8
1054.7058	3254.2838	882.15	6.05
1054.806	3255.1841	881.2	7.1
1054.9061	3256.0838	879.4	4.45
1055.0061	3256.9829	879.45	4.3
1055.1062	3257.8814	881.35	2.75
1055.2061	3258.7792	880.9	1.45
1055.306	3259.6765	881.05	3.75
1055.4059	3260.5731	878.95	4.7
1055.5057	3261.4692	881.6	5.4
1055.6055	3262.3647	880.6	3.75
1055.7052	3263.2595	879.4	2.55
1055.8049	3264.1538	882.15	7.3
1055.9045	3265.0474	879.1	2.3
1056.0041	3265.9404	878.65	4.25
1056.1036	3266.8329	877.85	4.85
1056.2031	3267.7247	891.1	7.25
1056.3025	3268.616	879	5.5
1056.4019	3269.5066	879.05	3.15
1056.5013	3270.3966	879.85	1.35
1056.6005	3271.286	878	2.85
