Software Version:	3.9.2.0
Unit SN:	10000200
Spectrometer SN:	6960
Date:	3/8/2024 1:44:38 PM
Data Line Index:	25
Spectral Points:	2048
Integration time (ms):	125
Averages:	20
Delay (ms):	30000
Sequence Number:	1
Processing:	dark subtract
Laser Power (mW):	300
Laser Current (mA):	823
Laser Diode Temp (C):	25
Laser Case Temp (C):	26.3
System Temp (C):	26.3
Spectrometer Temp (C):	24
CCD Temp (C):	0.012
Secondary Temp (C):	20.004
Heatsink Temp (C):	21.326
CCDPCB Temp (C):	36.296
SecondaryPCB Temp (C):	30.404

Wavelength	RamanShift	Raw Counts	Dark Subtracted
787.061	30.1047	464.05	57.75
787.2016	32.3739	467.05	60
787.3422	34.6426	472.65	65.3
787.4828	36.9109	480.55	72.25
787.6235	39.1787	488.65	77.05
787.7642	41.4461	500.15	82.8
787.9049	43.7131	508.55	87.25
788.0456	45.9796	517.4	93.75
788.1863	48.2456	521.85	95.65
788.3271	50.5112	539.2	108.75
788.4679	52.7764	545.8	112.05
788.6087	55.0411	560.2	121.5
788.7496	57.3054	571.2	124.75
788.8904	59.5692	580.2	135.05
789.0313	61.8326	591.5	141.05
789.1722	64.0955	605.4	153.8
789.3132	66.3579	624.05	166.25
789.4541	68.6199	646.2	184.65
789.5951	70.8815	685.25	218.65
789.7361	73.1426	766.8	296.4
789.8771	75.4032	983.85	509.65
790.0181	77.6634	1510.95	1032.05
790.1592	79.9231	2773.05	2285.75
790.3003	82.1824	5506.6	5002
790.4414	84.4412	10445.5	9911.65
790.5825	86.6995	17283.65	16708.05
790.7237	88.9574	23975.9	23365.4
790.8648	91.2148	28598.35	27968.2
791.006	93.4717	30790	30148.6
791.1472	95.7282	31288.8	30639
791.2885	97.9842	31284.5	30629.6
791.4297	100.2398	30764.9	30105.25
791.571	102.4949	30152.75	29488.05
791.7123	104.7495	29432.45	28768.95
791.8536	107.0036	28656.85	27993.9
791.9949	109.2573	27910.3	27247.7
792.1363	111.5105	27193.5	26523.85
792.2777	113.7632	26495.45	25821.2
792.4191	116.0154	25960.05	25276.6
792.5605	118.2672	25583.1	24909.35
792.7019	120.5185	25117.2	24440.55
792.8434	122.7693	24806.45	24125.45
792.9849	125.0197	24515.9	23834.45
793.1264	127.2696	24251.9	23564.75
793.2679	129.519	24107.5	23416.6
793.4094	131.7679	23931.4	23240.3
793.551	134.0163	23782.8	23086.25
793.6926	136.2642	23603.85	22902.45
793.8342	138.5117	23400.55	22700
793.9758	140.7587	23189.4	22487.8
794.1175	143.0052	22989.7	22282.15
794.2591	145.2512	22759	22054.2
794.4008	147.4967	22523	21813.25
794.5425	149.7417	22373.85	21664.65
794.6842	151.9863	22251.5	21536.7
794.826	154.2304	22218.95	21497.9
794.9677	156.4739	22081.65	21357.4
795.1095	158.717	22028.5	21301.65
795.2513	160.9596	21884.8	21156.15
795.3931	163.2017	21676.35	20944.25
795.535	165.4433	21393.7	20662.55
795.6768	167.6844	21070.6	20337.25
795.8187	169.925	20771.55	20033.45
795.9606	172.1651	20420.25	19685.45
796.1025	174.4047	20184.65	19445.2
796.2445	176.6439	19969.35	19224.8
796.3864	178.8825	19687.5	18937.5
796.5284	181.1206	19563.05	18812.65
796.6704	183.3582	19445.95	18683.65
796.8124	185.5954	19344.1	18586.85
796.9544	187.832	19220.7	18456.8
797.0965	190.0681	19267.3	18504.65
797.2386	192.3037	19262.3	18495.55
797.3806	194.5388	19293.2	18519.55
797.5228	196.7734	19354.15	18581.55
797.6649	199.0075	19442.8	18668.1
797.807	201.2411	19612.95	18836.8
797.9492	203.4742	19712.9	18931.3
798.0914	205.7068	19871.8	19090.9
798.2336	207.9389	19959.5	19178.45
798.3758	210.1704	20176.7	19405.2
798.518	212.4015	20292.9	19532.3
798.6603	214.632	20470.35	19714.05
798.8025	216.862	20689.8	19928.75
798.9448	219.0915	20828.85	20071.8
799.0871	221.3205	21061.45	20296.2
799.2294	223.549	21362.75	20603.9
799.3718	225.777	21649.95	20891.75
799.5141	228.0044	21961.1	21192.75
799.6565	230.2314	22401.35	21632.05
799.7989	232.4578	22835.8	22062.75
799.9413	234.6837	23191.5	22411.6
800.0837	236.909	23419.15	22636.9
800.2262	239.1339	23416	22607.95
800.3687	241.3582	23214.2	22418.85
800.5111	243.582	22956.65	22131.8
800.6536	245.8053	22674.1	21866.45
800.7961	248.0281	22381.7	21579.05
800.9387	250.2503	22171	21361.65
801.0812	252.472	22080.95	21268.1
801.2238	254.6932	22051.2	21242.85
801.3664	256.9139	21991.15	21182.4
801.509	259.134	22029.85	21217.1
801.6516	261.3536	22059.25	21248.1
801.7942	263.5727	22163.3	21347.6
801.9369	265.7912	22161.55	21346.1
802.0795	268.0092	22220.2	21410.1
802.2222	270.2267	22200.15	21382.55
802.3649	272.4436	22226.55	21412
802.5076	274.6601	22202.5	21377.6
802.6504	276.8759	22118.55	21300.55
802.7931	279.0913	22080.65	21260.25
802.9359	281.3061	22051.55	21227.4
803.0787	283.5204	22114.25	21285.95
803.2215	285.7341	22200.3	21370.05
803.3643	287.9473	22377.05	21535.45
803.5071	290.16	22572.05	21743.65
803.6499	292.3721	22884.4	22060.1
803.7928	294.5837	23292.4	22463.05
803.9357	296.7947	23674	22846.2
804.0786	299.0052	23872.25	23042.3
804.2215	301.2152	23749.1	22915.6
804.3644	303.4246	23438.1	22609.1
804.5074	305.6334	22933.5	22110.3
804.6503	307.8418	22402	21574.75
804.7933	310.0495	22054.9	21224.7
804.9363	312.2568	21757.75	20920.6
805.0793	314.4635	21529.4	20689.55
805.2223	316.6696	21418.05	20582.45
805.3653	318.8752	21380.9	20531.1
805.5084	321.0802	21442.35	20603.6
805.6514	323.2847	21543.3	20701.9
805.7945	325.4887	21588.45	20747.5
805.9376	327.692	21540.05	20696.5
806.0807	329.8949	21471.75	20623.9
806.2238	332.0972	21216.1	20367.75
806.367	334.2989	20994.95	20146.25
806.5101	336.5001	20694.05	19846.55
806.6533	338.7007	20533.55	19682.85
806.7965	340.9008	20453.75	19603.65
806.9397	343.1003	20330.3	19477.05
807.0829	345.2992	20288.95	19436.55
807.2261	347.4976	20272.6	19419.7
807.3693	349.6955	20351.5	19492.3
807.5126	351.8927	20376.15	19517.45
807.6559	354.0895	20371.7	19498.3
807.7991	356.2856	20449.75	19587.45
807.9424	358.4812	20403.55	19543.95
808.0857	360.6763	20476.1	19607.9
808.2291	362.8707	20488.6	19622.55
808.3724	365.0646	20512.6	19644.05
808.5158	367.258	20539	19669.25
808.6591	369.4508	20605.7	19733.1
808.8025	371.643	20696.2	19819.1
808.9459	373.8346	20670.65	19798.95
809.0893	376.0257	20670.5	19794.85
809.2327	378.2162	20579.2	19709.1
809.3762	380.4062	20532.15	19662.9
809.5196	382.5956	20408.9	19538.25
809.6631	384.7844	20324.4	19460.8
809.8066	386.9726	20236.85	19367.4
809.9501	389.1603	20177.2	19311.7
810.0936	391.3474	20178.75	19270.2
810.2371	393.5339	20172.4	19301.2
810.3806	395.7199	20106.75	19238.35
810.5241	397.9052	20156.75	19291.6
810.6677	400.09	20193.05	19323.75
810.8113	402.2743	20255.2	19387.35
810.9548	404.4579	20374.65	19503.55
811.0984	406.641	20541.05	19671.35
811.2421	408.8235	20776	19908.6
811.3857	411.0054	21069.75	20194.4
811.5293	413.1868	21526	20647.75
811.673	415.3675	21811.75	20932.1
811.8166	417.5477	22022.15	21140.9
811.9603	419.7273	22060.1	21175.4
812.104	421.9064	21972.1	21083.75
812.2477	424.0848	21849.65	20965.8
812.3914	426.2627	21642.2	20758.8
812.5351	428.4399	21367.35	20483.85
812.6788	430.6166	21031.25	20145.7
812.8226	432.7928	20684.95	19797
812.9663	434.9683	20361.4	19480
813.1101	437.1432	20165.2	19283.15
813.2539	439.3176	19994.25	19118.85
813.3977	441.4914	19880.9	19005.2
813.5415	443.6645	19868.95	18990.65
813.6853	445.8371	19802.85	18916.35
813.8291	448.0091	19757.1	18872.55
813.973	450.1806	19737.95	18858.6
814.1168	452.3514	19690.6	18811.35
814.2607	454.5216	19715.65	18824.3
814.4046	456.6913	19647.45	18763.15
814.5485	458.8603	19692.85	18812.1
814.6924	461.0288	19787.3	18911.1
814.8363	463.1967	19810.35	18934.5
814.9802	465.3639	19923.8	19044.2
815.1241	467.5306	20045.95	19163.4
815.2681	469.6967	20179.75	19299.3
815.412	471.8622	20275.35	19403.4
815.556	474.0271	20449.95	19568.15
815.7	476.1914	20511.9	19628.95
815.844	478.3551	20500.05	19613.55
815.988	480.5182	20536.65	19654.8
816.132	482.6807	20550.3	19674.2
816.276	484.8426	20693.85	19826.85
816.4201	487.0039	20991	20111.95
816.5641	489.1647	21388.35	20510.35
816.7082	491.3248	21803.95	20919.05
816.8522	493.4843	21990.15	21109.25
816.9963	495.6432	22010	21129.2
817.1404	497.8015	21939.3	21047.2
817.2845	499.9592	21965.55	21065.45
817.4286	502.1163	21910.3	21012
817.5727	504.2728	21639.05	20752
817.7168	506.4287	21372.8	20495.85
817.861	508.5839	20993.3	20112.15
818.0051	510.7386	20679.7	19795.4
818.1493	512.8927	20543.5	19647.4
818.2935	515.0461	20460.85	19567.3
818.4377	517.199	20452.7	19555.4
818.5818	519.3512	20430.9	19533.9
818.726	521.5029	20503.6	19605.3
818.8703	523.6539	20617.8	19722.5
819.0145	525.8043	20715.9	19817.75
819.1587	527.9541	20760.45	19862.3
819.303	530.1033	20684.75	19790.65
819.4472	532.2519	20741.4	19846.65
819.5915	534.3999	20852.95	19952.8
819.7357	536.5472	21114.9	20216.15
819.88	538.694	21565.6	20670.3
820.0243	540.8401	22118.7	21223.1
820.1686	542.9856	22573.85	21671.7
820.3129	545.1305	22761.8	21851.75
820.4572	547.2748	22636.35	21720.55
820.6016	549.4185	22338.1	21421.3
820.7459	551.5615	22004.4	21089.5
820.8902	553.704	21921.1	21008.05
821.0346	555.8458	21843.6	20939.05
821.1789	557.987	21885.95	20982.45
821.3233	560.1276	21949.05	21038.8
821.4677	562.2675	21984.85	21079.45
821.6121	564.4069	22121.65	21213.85
821.7565	566.5456	22162.7	21259.4
821.9009	568.6837	22086.15	21184.9
822.0453	570.8212	21808.55	20907.2
822.1897	572.958	21452.9	20549.4
822.3342	575.0942	21143.05	20241.25
822.4786	577.2299	20945.35	20049.5
822.6231	579.3648	20909.35	20023.9
822.7675	581.4992	20933	20057.65
822.912	583.6329	21115.1	20237.55
823.0565	585.766	21338.4	20453.1
823.201	587.8985	21467.85	20580.35
823.3454	590.0304	21518.75	20597.75
823.4899	592.1616	21439.1	20535.35
823.6345	594.2922	21350.5	20436.6
823.779	596.4222	21214.15	20302.75
823.9235	598.5515	21056.25	20139.55
824.068	600.6802	20910.15	19996.3
824.2126	602.8083	20723.25	19812.85
824.3571	604.9358	20722.1	19812.95
824.5017	607.0626	20638.3	19723.5
824.6462	609.1888	20669.8	19749
824.7908	611.3144	20640.85	19721.6
824.9354	613.4393	20542.85	19622.95
825.08	615.5636	20467.05	19551.3
825.2246	617.6873	20392.3	19476.2
825.3692	619.8103	20376.7	19458.45
825.5138	621.9327	20269.3	19355
825.6584	624.0544	20243.2	19331.3
825.803	626.1756	20221.7	19312.1
825.9477	628.2961	20182.75	19266.3
826.0923	630.4159	20095.4	19176.5
826.237	632.5351	20075.95	19154.3
826.3816	634.6537	20054.15	19137.5
826.5263	636.7716	20059.6	19134.2
826.6709	638.8889	20092.4	19166.9
826.8156	641.0056	20135.1	19210.2
826.9603	643.1216	20114.2	19189.2
827.105	645.237	20150.4	19232.9
827.2497	647.3518	20125.2	19209.8
827.3944	649.4659	20186.6	19276.1
827.5391	651.5793	20174.2	19266.05
827.6838	653.6922	20162.75	19253.95
827.8285	655.8043	20203.65	19285.7
827.9733	657.9159	20178.35	19261.75
828.118	660.0268	20076.25	19158.9
828.2627	662.137	20064.75	19152.2
828.4075	664.2466	20035.95	19109.65
828.5522	666.3556	20081.15	19157.2
828.697	668.4639	20043.25	19121.65
828.8418	670.5716	20115.05	19202.85
828.9865	672.6786	20174.2	19254.1
829.1313	674.785	20195.5	19268.05
829.2761	676.8907	20252.65	19333.4
829.4209	678.9958	20373.7	19457.55
829.5657	681.1002	20302.65	19381.8
829.7105	683.204	20327.2	19399.3
829.8553	685.3072	20287.1	19358.6
830.0001	687.4097	20236.4	19311.45
830.1449	689.5115	20223	19295.3
830.2898	691.6127	20220.25	19299.1
830.4346	693.7132	20149.75	19230.1
830.5794	695.8131	20145.35	19215.25
830.7243	697.9123	20155.05	19224.65
830.8691	700.0109	20137.7	19207.15
831.014	702.1089	20130.9	19199.8
831.1588	704.2061	20149.35	19223.5
831.3037	706.3028	20166.45	19236.2
831.4486	708.3987	20268.45	19335.25
831.5935	710.4941	20325.9	19401.65
831.7383	712.5887	20499.75	19572
831.8832	714.6827	20740.5	19810.45
832.0281	716.7761	21073.35	20148.45
832.173	718.8688	21476.55	20552.95
832.3179	720.9608	21684.35	20749.1
832.4628	723.0522	21754.55	20816.25
832.6077	725.1429	21554.3	20624.3
832.7527	727.233	21382.15	20455.9
832.8976	729.3224	21171.2	20241.55
833.0425	731.4112	20919.05	19987.15
833.1874	733.4993	20745.7	19812.6
833.3324	735.5867	20609.9	19680.1
833.4773	737.6735	20470.5	19539.1
833.6222	739.7596	20404.3	19471.9
833.7672	741.845	20368.9	19438.4
833.9122	743.9298	20319.6	19391.8
834.0571	746.014	20324.35	19391.45
834.2021	748.0974	20373	19437.55
834.347	750.1802	20387.9	19449.2
834.492	752.2624	20399.25	19461.1
834.637	754.3439	20391.45	19454.25
834.782	756.4247	20513.8	19569.9
834.9269	758.5048	20629.65	19695.2
835.0719	760.5843	20844.85	19908.3
835.2169	762.6631	21154.35	20214.95
835.3619	764.7413	21619.65	20686.3
835.5069	766.8188	22196.2	21255
835.6519	768.8956	22678.2	21739.75
835.7969	770.9718	22991.4	22056.05
835.9419	773.0473	22842.85	21908.25
836.0869	775.1221	22567.9	21634.15
836.232	777.1962	22167.2	21229.55
836.377	779.2697	21982.2	21044.3
836.522	781.3426	22048.9	21096.35
836.667	783.4147	22270.4	21331.25
836.8121	785.4862	22623	21685.1
836.9571	787.557	22608.45	21665.05
837.1021	789.6271	22236.65	21294.35
837.2472	791.6966	21715.55	20775.3
837.3922	793.7654	21188.45	20248.3
837.5373	795.8335	20873.45	19936.65
837.6823	797.901	20688.3	19751
837.8274	799.9678	20605.75	19662
837.9724	802.0339	20604.8	19663.35
838.1175	804.0993	20688.1	19736.85
838.2626	806.1641	20684.55	19742.35
838.4076	808.2282	20591.1	19650.5
838.5527	810.2916	20521.3	19576.55
838.6978	812.3544	20435.9	19500.5
838.8428	814.4164	20361.8	19423.5
838.9879	816.4778	20453.3	19510.65
839.133	818.5385	20397.55	19453.2
839.2781	820.5986	20506.85	19560.45
839.4232	822.658	20641.45	19696.7
839.5682	824.7166	20774.05	19831.05
839.7133	826.7747	21092.6	20150.95
839.8584	828.832	21297.95	20353.9
840.0035	830.8886	21440.9	20495.4
840.1486	832.9446	21578.9	20636.45
840.2937	834.9999	21577.9	20638.05
840.4388	837.0545	21608.45	20660.95
840.5839	839.1085	21579.65	20636.85
840.729	841.1618	21509.3	20559.05
840.8741	843.2143	21454	20510.7
841.0192	845.2662	21320.3	20377.1
841.1643	847.3175	21296.3	20353.05
841.3095	849.368	21157.05	20210.5
841.4546	851.4179	21101.3	20155.4
841.5997	853.467	20936.6	19991
841.7448	855.5155	20876	19936.2
841.8899	857.5633	20768.5	19825
842.0351	859.6105	20690.85	19746.65
842.1802	861.6569	20625.75	19678.5
842.3253	863.7027	20600.85	19651
842.4704	865.7478	20576.7	19632.8
842.6156	867.7922	20617.85	19672.9
842.7607	869.8359	20650	19705
842.9058	871.8789	20784.05	19838.3
843.0509	873.9212	20940.85	19962.6
843.1961	875.9629	21048.1	20103.1
843.3412	878.0039	21259.2	20312.55
843.4863	880.0441	21364.7	20418.25
843.6315	882.0837	21387.25	20446.25
843.7766	884.1226	21308	20361.5
843.9218	886.1609	21252.9	20308.65
844.0669	888.1984	21217.75	20272.15
844.212	890.2352	21218.15	20272.9
844.3572	892.2714	21224.1	20268.25
844.5023	894.3069	21199.3	20253.45
844.6475	896.3416	21131	20181.75
844.7926	898.3757	21112.6	20165.85
844.9377	900.4091	21134.7	20182.6
845.0829	902.4418	21129	20175.7
845.228	904.4739	21127	20173.85
845.3732	906.5052	21159.65	20209.9
845.5183	908.5358	21047.9	20097.55
845.6635	910.5658	20916.9	19964
845.8086	912.595	20723.15	19770.1
845.9538	914.6236	20582.5	19635.45
846.0989	916.6515	20547.1	19598.7
846.2441	918.6786	20540.15	19589.75
846.3892	920.7051	20624.25	19671.95
846.5344	922.7309	20767.55	19817.25
846.6795	924.756	20801.35	19855
846.8246	926.7804	20917.2	19969.2
846.9698	928.8041	20847.25	19897.8
847.1149	930.8272	20874.45	19928.05
847.2601	932.8495	20788.8	19838.65
847.4052	934.8711	20750.9	19799.25
847.5504	936.892	20586.8	19635.55
847.6955	938.9123	20460.5	19508.3
847.8407	940.9318	20353.7	19402.9
847.9858	942.9506	20269.85	19322.35
848.131	944.9688	20184.15	19236.35
848.2761	946.9862	20139.1	19189.75
848.4213	949.003	20041.9	19094
848.5664	951.019	20050.1	19097.4
848.7115	953.0344	20044.2	19090.95
848.8567	955.0491	20075.3	19125.25
849.0018	957.063	20172	19224
849.147	959.0763	20313.2	19360.65
849.2921	961.0888	20342.65	19391.5
849.4373	963.1007	20414.25	19468
849.5824	965.1119	20479.05	19538.15
849.7275	967.1223	20492	19556
849.8727	969.1321	20517.8	19582.95
850.0178	971.1412	20544.95	19601.95
850.1629	973.1495	20552.3	19605.25
850.3081	975.1572	20649.25	19649.95
850.4532	977.1641	20651.7	19701.65
850.5983	979.1704	20641.75	19693.75
850.7435	981.1759	20633.4	19678.05
850.8886	983.1808	20665.65	19709.25
851.0337	985.1849	20755.8	19796.4
851.1788	987.1884	20886.15	19933.4
851.324	989.1911	21059.75	20108.45
851.4691	991.1932	21148.65	20201.1
851.6142	993.1945	21222.6	20278.4
851.7593	995.1951	21143.6	20193.65
851.9045	997.1951	21130.4	20171.95
852.0496	999.1943	21071.1	20124.2
852.1947	1001.1928	21000.8	20048.8
852.3398	1003.1906	21009.45	20056.95
852.4849	1005.1877	21055.45	20106.9
852.63	1007.1841	21037.4	20090.85
852.7751	1009.1798	20983.95	20037.25
852.9202	1011.1748	20791.15	19840.45
853.0653	1013.1691	20606.05	19657.85
853.2104	1015.1627	20405.95	19454.8
853.3555	1017.1556	20129.45	19180.9
853.5006	1019.1477	20070.1	19127.9
853.6457	1021.1392	19949.5	19006.1
853.7908	1023.1299	19944.95	19007.25
853.9359	1025.12	19935.3	18998.75
854.081	1027.1093	19943.15	19020.95
854.2261	1029.0979	20064.65	19145.5
854.3712	1031.0859	20102.95	19178.65
854.5163	1033.0731	20088.85	19151.2
854.6613	1035.0596	20041.95	19103.55
854.8064	1037.0454	19862.05	18920.85
854.9515	1039.0304	19757.85	18811.95
855.0965	1041.0148	19648.7	18702.15
855.2416	1042.9985	19517.1	18568.7
855.3867	1044.9814	19522.85	18575.25
855.5317	1046.9636	19421.45	18473.5
855.6768	1048.9452	19417.1	18471.9
855.8219	1050.926	19440.55	18494.1
855.9669	1052.9061	19441.4	18496.75
856.112	1054.8855	19428	18481.3
856.257	1056.8642	19481.7	18533.75
856.4021	1058.8421	19554.4	18602.2
856.5471	1060.8194	19603.1	18654.65
856.6921	1062.7959	19596.4	18649.3
856.8372	1064.7717	19614.3	18665.4
856.9822	1066.7469	19636.1	18688.95
857.1272	1068.7213	19667.35	18716.35
857.2723	1070.695	19665.05	18718.75
857.4173	1072.6679	19591.7	18642.15
857.5623	1074.6402	19534.15	18586.6
857.7073	1076.6117	19566.9	18616.5
857.8523	1078.5826	19559.9	18610
857.9973	1080.5527	19532.8	18581.75
858.1423	1082.5221	19606.7	18659.6
858.2873	1084.4908	19747.3	18801.2
858.4323	1086.4587	19919.15	18971.55
858.5773	1088.426	20033.85	19083.15
858.7223	1090.3925	20003.55	19046.9
858.8673	1092.3584	20013.1	19069.2
859.0123	1094.3235	19852.75	18906.2
859.1573	1096.2879	19816.15	18872.35
859.3022	1098.2515	19810.6	18864.4
859.4472	1100.2145	19901.15	18957.15
859.5922	1102.1767	19966.1	19016.6
859.7371	1104.1382	20135.65	19187.7
859.8821	1106.099	20343.95	19395.35
860.027	1108.0591	20532.15	19589.25
860.172	1110.0185	20673.3	19723.95
860.3169	1111.9771	20700.45	19756.65
860.4619	1113.9351	20505.2	19561.2
860.6068	1115.8923	20217.4	19270.95
860.7517	1117.8488	19944.6	18994.2
860.8967	1119.8045	19667.95	18721.05
861.0416	1121.7596	19569.6	18622.75
861.1865	1123.7139	19451.8	18508.55
861.3314	1125.6675	19490.75	18543.6
861.4763	1127.6204	19582.7	18640.4
861.6212	1129.5726	19504.25	18558.3
861.7661	1131.524	19514.3	18569.95
861.911	1133.4748	19460.55	18515.3
862.0559	1135.4248	19445.6	18501.65
862.2008	1137.3741	19413.05	18466.3
862.3457	1139.3226	19325.3	18376.7
862.4905	1141.2705	19353.35	18407.65
862.6354	1143.2176	19232.6	18279.85
862.7803	1145.164	19235.45	18289.5
862.9251	1147.1097	19229.5	18284.05
863.07	1149.0546	19208.3	18259.6
863.2148	1150.9989	19129.4	18183.2
863.3597	1152.9424	18997.45	18049.8
863.5045	1154.8852	18836.8	17888.95
863.6493	1156.8272	18753.35	17801.7
863.7942	1158.7686	18720.65	17768.15
863.939	1160.7092	18667.7	17723.1
864.0838	1162.6491	18680.65	17735.95
864.2286	1164.5883	18754.05	17807.2
864.3734	1166.5267	18841.55	17894.4
864.5182	1168.4644	18979	18033.2
864.663	1170.4014	19137.3	18190.55
864.8078	1172.3377	19390.2	18449.65
864.9526	1174.2732	19608.6	18664.45
865.0974	1176.2081	19910.25	18967.95
865.2421	1178.1421	20127.4	19181.2
865.3869	1180.0755	20417.55	19471.25
865.5317	1182.0082	20523.05	19579.65
865.6764	1183.9401	20535.9	19588.8
865.8212	1185.8713	20379.95	19445.2
865.9659	1187.8017	20165.8	19235.5
866.1106	1189.7315	19924.8	19002.6
866.2554	1191.6605	19574.15	18652
866.4001	1193.5888	19342.2	18415
866.5448	1195.5163	19252	18318
866.6895	1197.4432	19130.9	18188.8
866.8342	1199.3693	19091.5	18149.65
866.9789	1201.2947	19032.1	18086.7
867.1236	1203.2193	18973.9	18032.25
867.2683	1205.1432	19027.8	18087.85
867.413	1207.0664	19024.8	18082.25
867.5576	1208.9889	19039.1	18096.95
867.7023	1210.9106	19043.55	18101.85
867.847	1212.8316	19084.95	18144.35
867.9916	1214.7519	19151.15	18201.3
868.1363	1216.6715	19162.5	18218.3
868.2809	1218.5903	19158.85	18216.65
868.4255	1220.5084	19112.5	18171.25
868.5701	1222.4257	19141.05	18202.3
868.7148	1224.3424	19069.65	18134.3
868.8594	1226.2583	19104.15	18162.7
869.004	1228.1735	19192.7	18253
869.1486	1230.0879	19262.5	18319.7
869.2932	1232.0016	19386.2	18445.4
869.4377	1233.9146	19419.75	18478.15
869.5823	1235.8269	19328.95	18388.25
869.7269	1237.7384	19212.85	18274.15
869.8715	1239.6492	18998.9	18059.25
870.016	1241.5592	18917.9	17977.3
870.1606	1243.4686	18829.1	17891.65
870.3051	1245.3772	18809.15	17868.5
870.4496	1247.285	18816.55	17875.1
870.5941	1249.1922	18791	17851.85
870.7387	1251.0986	18810.9	17874.25
870.8832	1253.0042	18785.05	17846.95
871.0277	1254.9092	18835.85	17895.6
871.1722	1256.8134	18867.1	17930.95
871.3167	1258.7169	19015.8	18079.8
871.4611	1260.6196	19196.7	18260.6
871.6056	1262.5216	19403.85	18463.35
871.7501	1264.4229	19549.1	18613.2
871.8945	1266.3234	19669.85	18735.55
872.039	1268.2232	19736	18795.45
872.1834	1270.1223	19747.45	18809.1
872.3278	1272.0207	19766.4	18827
872.4723	1273.9183	19723.95	18780.05
872.6167	1275.8151	19684.55	18744.8
872.7611	1277.7113	19559	18620.8
872.9055	1279.6067	19440.55	18502.75
873.0499	1281.5014	19401.2	18464.25
873.1943	1283.3953	19355.15	18415.1
873.3386	1285.2885	19456.75	18519.1
873.483	1287.181	19523.85	18585.85
873.6274	1289.0727	19660.15	18726.8
873.7717	1290.9637	19744.7	18808.5
873.9161	1292.854	19905.9	18967.15
874.0604	1294.7435	19976.45	19039.25
874.2047	1296.6323	20122.95	19188.7
874.349	1298.5204	20278	19339.9
874.4933	1300.4077	20467	19530.6
874.6376	1302.2943	20574.2	19634.7
874.7819	1304.1802	20591.55	19655.25
874.9262	1306.0653	20377.4	19438.65
875.0705	1307.9497	20175.65	19235.2
875.2147	1309.8333	19989.8	19052.9
875.359	1311.7162	19868.95	18932.65
875.5032	1313.5984	19865.85	18923.85
875.6475	1315.4798	19887.2	18949.25
875.7917	1317.3605	19885	18944
875.9359	1319.2405	19930.4	18990.25
876.0801	1321.1197	19864.6	18924.45
876.2243	1322.9982	19720.05	18779.75
876.3685	1324.876	19665.5	18729.8
876.5127	1326.753	19509.7	18572.2
876.6569	1328.6293	19504.05	18560.35
876.801	1330.5048	19480.25	18538.9
876.9452	1332.3796	19377.25	18440.2
877.0893	1334.2537	19347.95	18386.8
877.2335	1336.127	19281.5	18346.5
877.3776	1337.9996	19226.9	18291.05
877.5217	1339.8714	19229.45	18290.85
877.6658	1341.7426	19198.7	18218.7
877.8099	1343.6129	19151.45	18213.55
877.954	1345.4826	19134	18195.05
878.0981	1347.3515	19081	18139.2
878.2422	1349.2196	19004.9	18062.95
878.3862	1351.087	19030.1	18089.95
878.5303	1352.9537	19052.05	18112.65
878.6743	1354.8197	19199.1	18257.9
878.8184	1356.6849	19368.55	18428.55
878.9624	1358.5493	19431.85	18496.1
879.1064	1360.4131	19460.05	18523
879.2504	1362.276	19384.8	18447.9
879.3944	1364.1383	19296.4	18362.85
879.5384	1365.9998	19049.95	18104.1
879.6823	1367.8606	18719.05	17776.35
879.8263	1369.7206	18427	17488.6
879.9702	1371.5799	18172.75	17233.2
880.1142	1373.4384	17933.65	16996.35
880.2581	1375.2962	17798.15	16857.25
880.402	1377.1533	17548.05	16611.5
880.5459	1379.0096	17189.35	16253.65
880.6898	1380.8652	16881.5	15951.75
880.8337	1382.7201	16628.7	15693.65
880.9776	1384.5742	16383.65	15447.4
881.1215	1386.4275	16171.25	15233
881.2653	1388.2802	16039.35	15103.5
881.4092	1390.132	15885.8	14949.7
881.553	1391.9832	15846.65	14906.1
881.6968	1393.8336	15715.8	14780.35
881.8406	1395.6832	15688.9	14749.7
881.9844	1397.5322	15599.9	14663.85
882.1282	1399.3803	15583.3	14645.45
882.272	1401.2278	15528.75	14594.8
882.4158	1403.0745	15503.45	14567.6
882.5595	1404.9204	15454.25	14521.5
882.7033	1406.7656	15429.15	14494.7
882.847	1408.6101	15438.2	14500.15
882.9908	1410.4538	15451.5	14512.55
883.1345	1412.2968	15499.8	14561.4
883.2782	1414.139	15491.3	14557.4
883.4219	1415.9805	15556.6	14619.65
883.5656	1417.8213	15610.65	14669.1
883.7092	1419.6613	15696	14761.85
883.8529	1421.5006	15879.25	14948.15
883.9965	1423.3391	16109.15	15172.1
884.1402	1425.1769	16374.95	15439.25
884.2838	1427.0139	16842.05	15906
884.4274	1428.8502	17384.65	16450.4
884.571	1430.6858	17921.55	16989.2
884.7146	1432.5206	18274.25	17336.85
884.8582	1434.3547	18521.75	17586.3
885.0018	1436.188	18496.75	17567.55
885.1453	1438.0206	18455.3	17518.95
885.2889	1439.8524	18244.95	17309.15
885.4324	1441.6835	18161.95	17225.45
885.5759	1443.5139	18067.25	17129.95
885.7194	1445.3435	17958.85	17028.75
885.8629	1447.1724	17913.5	16981.35
886.0064	1449.0005	17818.75	16889.45
886.1499	1450.8279	17689.45	16756.45
886.2933	1452.6545	17684.5	16753.05
886.4368	1454.4804	17723.8	16794.5
886.5802	1456.3056	17690.4	16752.15
886.7237	1458.13	17589.15	16659.95
886.8671	1459.9536	17386.3	16451.4
887.0105	1461.7766	17047.85	16115
887.1539	1463.5987	16632.7	15701.05
887.2972	1465.4202	16284.15	15351.65
887.4406	1467.2409	15868.2	14934.25
887.584	1469.0608	15623.75	14692.9
887.7273	1470.88	15383.8	14449.8
887.8706	1472.6984	15123.55	14192.75
888.0139	1474.5161	14875.9	13941.3
888.1572	1476.3331	14735.3	13807.7
888.3005	1478.1493	14587.25	13657.5
888.4438	1479.9648	14510.5	13576.5
888.5871	1481.7795	14388.15	13457.5
888.7303	1483.5935	14337.3	13404.35
888.8736	1485.4067	14241.2	13309.8
889.0168	1487.2192	14200	13268.3
889.16	1489.031	14141.6	13204.9
889.3032	1490.842	14103.95	13170.75
889.4464	1492.6522	14062.45	13131.1
889.5896	1494.4618	14017.4	13083.05
889.7327	1496.2705	13947.9	13016.35
889.8759	1498.0785	13907.9	12975.9
890.019	1499.8858	13878.45	12945.25
890.1622	1501.6924	13845.65	12917.2
890.3053	1503.4981	13797.75	12867.1
890.4484	1505.3032	13777.45	12846.25
890.5914	1507.1075	13704.5	12771.5
890.7345	1508.911	13659.1	12728.05
890.8776	1510.7138	13618.7	12686.3
891.0206	1512.5159	13547.55	12617.45
891.1637	1514.3172	13490.85	12561.85
891.3067	1516.1178	13424.05	12496.15
891.4497	1517.9176	13384	12446.85
891.5927	1519.7166	13357.3	12428.35
891.7357	1521.515	13295.65	12359.7
891.8786	1523.3126	13245.5	12315.3
892.0216	1525.1094	13201.85	12270.95
892.1645	1526.9055	13179	12253.65
892.3074	1528.7008	13143.85	12214.65
892.4503	1530.4954	13054.4	12126.1
892.5932	1532.2893	13036.8	12111.5
892.7361	1534.0824	12958.6	12034.15
892.879	1535.8747	12965.7	12043.65
893.0218	1537.6663	12952.2	12029.5
893.1647	1539.4572	12909.9	11985.8
893.3075	1541.2473	12894.8	11970.8
893.4503	1543.0367	12859.2	11935.45
893.5931	1544.8253	12827.5	11898.35
893.7359	1546.6132	12845.05	11919.4
893.8787	1548.4003	12785.75	11850
894.0214	1550.1867	12816.8	11887.1
894.1642	1551.9723	12808.8	11881.6
894.3069	1553.7572	12856.6	11933.45
894.4496	1555.5414	12882.05	11962.05
894.5923	1557.3247	12935.65	12016.55
894.735	1559.1074	12998.2	12080.35
894.8777	1560.8893	13080.2	12160.35
895.0204	1562.6705	13111.75	12192.65
895.163	1564.4509	13184.3	12267.45
895.3056	1566.2305	13196.75	12284.8
895.4482	1568.0094	13267.75	12353.55
895.5908	1569.7876	13311.95	12397.3
895.7334	1571.565	13315.85	12397.95
895.876	1573.3417	13310.3	12392.75
896.0186	1575.1176	13255.3	12341.65
896.1611	1576.8928	13214.5	12302.8
896.3036	1578.6672	13129.6	12221.85
896.4461	1580.4409	13034.75	12128.15
896.5886	1582.2138	12919.95	12006.45
896.7311	1583.986	12823	11907.7
896.8736	1585.7575	12757.65	11843.5
897.0161	1587.5282	12683.15	11772.75
897.1585	1589.2981	12695.25	11787
897.3009	1591.0673	12647.85	11740.05
897.4433	1592.8358	12624.3	11717.75
897.5857	1594.6035	12629.15	11714.95
897.7281	1596.3704	12623.7	11709.65
897.8705	1598.1366	12648.4	11734.65
898.0128	1599.9021	12699.15	11789.05
898.1551	1601.6668	12753.9	11844
898.2975	1603.4308	12819.3	11906.3
898.4398	1605.194	12902.1	11988.8
898.5821	1606.9564	13007.8	12104.15
898.7243	1608.7182	13151.5	12247.85
898.8666	1610.4791	13276.6	12381.05
899.0088	1612.2394	13491	12593.45
899.1511	1613.9988	13646.05	12745.9
899.2933	1615.7576	13853.05	12950.2
899.4355	1617.5156	14067.75	13150.85
899.5776	1619.2728	14219	13305.65
899.7198	1621.0293	14304.85	13392.7
899.862	1622.785	14266.65	13354.35
900.0041	1624.54	14120.05	13212.95
900.1462	1626.2942	13988.7	13086.05
900.2883	1628.0477	13665.95	12759.9
900.4304	1629.8005	13460	12551.95
900.5725	1631.5525	13222.2	12318.05
900.7145	1633.3037	13039.45	12134.05
900.8566	1635.0542	12902.85	11998.7
900.9986	1636.804	12762.5	11858.8
901.1406	1638.553	12759.45	11786.7
901.2826	1640.3013	12665.7	11759.15
901.4245	1642.0488	12582.35	11673.3
901.5665	1643.7955	12618.15	11718.45
901.7085	1645.5416	12624.85	11721.7
901.8504	1647.2868	12745.45	11842.55
901.9923	1649.0313	12820.95	11915.65
902.1342	1650.7751	12936.9	12032.45
902.2761	1652.5181	13087.55	12185
902.4179	1654.2604	13257.15	12353.5
902.5598	1656.0019	13506.85	12605.1
902.7016	1657.7427	13793.15	12889.4
902.8434	1659.4828	14090.55	13185.5
902.9852	1661.222	14215.25	13308.25
903.127	1662.9606	14218.05	13312.7
903.2687	1664.6984	13991.05	13084.85
903.4105	1666.4354	13580.95	12672.85
903.5522	1668.1717	13070.7	12162.8
903.6939	1669.9072	12538.45	11630.85
903.8356	1671.642	12104.15	11192.4
903.9773	1673.3761	11760.6	10853
904.119	1675.1094	11473.4	10568.8
904.2606	1676.8419	11231.2	10327.55
904.4022	1678.5737	11001.6	10095.85
904.5439	1680.3048	10874.8	9966.7
904.6855	1682.0351	10743.55	9838.25
904.827	1683.7646	10639.65	9730.6
904.9686	1685.4934	10556.5	9650.6
905.1101	1687.2215	10472.05	9566.95
905.2517	1688.9488	10386.4	9484.5
905.3932	1690.6754	10311.65	9409.85
905.5347	1692.4012	10282.85	9381.75
905.6761	1694.1263	10228.25	9324.55
905.8176	1695.8506	10194.45	9289.9
905.9591	1697.5742	10123.15	9220.6
906.1005	1699.297	10067.95	9168.45
906.2419	1701.0191	10013.25	9117.35
906.3833	1702.7404	9975.5	9076.5
906.5246	1704.461	9908.45	9007.15
906.666	1706.1808	9887.8	8987.55
906.8073	1707.8999	9829.65	8929.75
906.9487	1709.6182	9781	8883.3
907.09	1711.3358	9730	8832.05
907.2313	1713.0527	9696.15	8804.15
907.3725	1714.7688	9696.25	8794.8
907.5138	1716.4841	9637.25	8737.25
907.655	1718.1987	9627.65	8722.45
907.7962	1719.9126	9589.45	8691.45
907.9374	1721.6257	9557.25	8661.4
908.0786	1723.338	9510.8	8616.3
908.2198	1725.0496	9452.7	8556.3
908.3609	1726.7605	9444.05	8543.7
908.502	1728.4706	9419.35	8522.25
908.6431	1730.18	9342.65	8445.6
908.7842	1731.8886	9310.7	8418
908.9253	1733.5964	9330.55	8414.7
909.0664	1735.3036	9300.65	8401
909.2074	1737.0099	9275.3	8377.65
909.3484	1738.7156	9247.2	8352.75
909.4894	1740.4204	9184.7	8287.2
909.6304	1742.1246	9184.05	8286.65
909.7714	1743.8279	9115.4	8218
909.9123	1745.5306	9120.65	8225.6
910.0532	1747.2325	9091.9	8197.15
910.1941	1748.9336	9045.3	8149.3
910.335	1750.634	8984.1	8086.15
910.4759	1752.3336	8988.05	8091.6
910.6168	1754.0325	8948.15	8056.65
910.7576	1755.7307	8929.3	8033.5
910.8984	1757.4281	8943.85	8049.7
911.0392	1759.1247	8917.45	8011.2
911.18	1760.8206	8900.8	7998.1
911.3208	1762.5158	8880.5	7979.2
911.4615	1764.2102	8834.3	7938.5
911.6022	1765.9039	8799	7904.8
911.7429	1767.5968	8776.5	7885.1
911.8836	1769.289	8756.7	7864.5
912.0243	1770.9804	8736.35	7837.8
912.1649	1772.6711	8712.85	7812.95
912.3056	1774.361	8701.2	7801.1
912.4462	1776.0502	8687.9	7789.3
912.5868	1777.7386	8657.1	7756
912.7274	1779.4263	8643.05	7747.15
912.8679	1781.1132	8622.75	7728.95
913.0084	1782.7994	8570.4	7679.25
913.149	1784.4849	8581	7690.1
913.2895	1786.1696	8539.85	7639.8
913.4299	1787.8535	8524.8	7633.25
913.5704	1789.5367	8499.85	7610.95
913.7108	1791.2192	8511.95	7620.3
913.8513	1792.9009	8479.9	7561.1
913.9917	1794.5818	8456.75	7559.95
914.132	1796.2621	8437.15	7542
914.2724	1797.9415	8421.05	7527.45
914.4128	1799.6202	8390.65	7493.9
914.5531	1801.2982	8373.2	7477.5
914.6934	1802.9755	8348.25	7451.45
914.8337	1804.6519	8356.35	7461
914.9739	1806.3277	8293.65	7399.95
915.1142	1808.0027	8246	7358.6
915.2544	1809.6769	8250.9	7361.95
915.3946	1811.3504	8245.95	7353.7
915.5348	1813.0231	8220.95	7331.3
915.675	1814.6951	8184.45	7292.75
915.8151	1816.3664	8192.7	7295.9
915.9553	1818.0369	8176.15	7282.25
916.0954	1819.7067	8143.9	7247.95
916.2355	1821.3757	8131.1	7234.35
916.3755	1823.044	8110.25	7214.05
916.5156	1824.7115	8106.1	7208.45
916.6556	1826.3783	8072.2	7177.3
916.7956	1828.0443	8047.9	7153.5
916.9356	1829.7096	8039.05	7143.55
917.0756	1831.3741	8017.95	7118.8
917.2155	1833.0379	7993.05	7102.15
917.3555	1834.701	7964.9	7073.2
917.4954	1836.3633	7976	7084.1
917.6353	1838.0248	7928.8	7037.35
917.7751	1839.6856	7928.95	7036.45
917.915	1841.3457	7905.55	7012.5
918.0548	1843.005	7899.25	7003.1
918.1946	1844.6636	7870.6	6977.95
918.3344	1846.3214	7840.1	6946.15
918.4742	1847.9785	7864.05	6972.75
918.6139	1849.6349	7831.45	6934.45
918.7537	1851.2904	7834.9	6929
918.8934	1852.9453	7809.65	6914.2
919.0331	1854.5994	7762.1	6863.95
919.1727	1856.2528	7780.65	6881
919.3124	1857.9054	7760.4	6864.95
919.452	1859.5572	7749.45	6857.45
919.5916	1861.2083	7735.8	6841.85
919.7312	1862.8587	7715.5	6821.45
919.8708	1864.5084	7693.8	6795.55
920.0103	1866.1572	7685.4	6790.1
920.1498	1867.8054	7638.05	6742.9
920.2893	1869.4528	7638.2	6741.5
920.4288	1871.0994	7613.4	6719.05
920.5683	1872.7453	7602.15	6706.7
920.7077	1874.3905	7590.8	6679.3
920.8471	1876.0349	7570.5	6673.1
920.9865	1877.6786	7538.7	6642.45
921.1259	1879.3215	7546.3	6654.4
921.2653	1880.9637	7500.65	6606.1
921.4046	1882.6051	7487.4	6594.8
921.5439	1884.2458	7470.2	6574.85
921.6832	1885.8858	7462	6568.55
921.8225	1887.525	7445.95	6552.5
921.9617	1889.1634	7414.8	6521.3
922.101	1890.8011	7400.9	6506.6
922.2402	1892.4381	7381.85	6486.55
922.3794	1894.0743	7377.55	6482.6
922.5185	1895.7098	7347.05	6451.2
922.6577	1897.3446	7330.65	6437.1
922.7968	1898.9786	7306.9	6408.85
922.9359	1900.6118	7297.65	6405
923.075	1902.2443	7248.25	6356.15
923.214	1903.8761	7235.9	6343.75
923.3531	1905.5071	7213.95	6320.5
923.4921	1907.1374	7211.1	6318.65
923.6311	1908.7669	7192.25	6300.55
923.77	1910.3957	7181.15	6291.2
923.909	1912.0237	7144.35	6253.65
924.0479	1913.651	7120.5	6226.05
924.1868	1915.2776	7107.95	6216.8
924.3257	1916.9034	7098.2	6207
924.4646	1918.5285	7045.35	6154.7
924.6034	1920.1528	6992.6	6101.4
924.7422	1921.7764	7006.95	6113.35
924.881	1923.3992	6973.75	6080.45
925.0198	1925.0213	6951.8	6059.1
925.1586	1926.6427	6937.5	6046.25
925.2973	1928.2633	6984.35	6004.15
925.436	1929.8832	6909.85	6014.85
925.5747	1931.5023	6865.05	5973
925.7134	1933.1207	6843.9	5948.45
925.852	1934.7383	6824.8	5934.25
925.9906	1936.3552	6799.15	5908.7
926.1292	1937.9714	6788.15	5897.1
926.2678	1939.5868	6758.8	5864.05
926.4064	1941.2015	6719.5	5826.1
926.5449	1942.8154	6705.75	5812.55
926.6834	1944.4286	6691.5	5796.35
926.8219	1946.041	6675.3	5759.9
926.9604	1947.6528	6634.15	5739.1
927.0988	1949.2637	6624.05	5733.35
927.2372	1950.8739	6585.35	5692.4
927.3756	1952.4834	6593.75	5700.8
927.514	1954.0921	6575.5	5683.85
927.6523	1955.7001	6547.1	5654.35
927.7907	1957.3074	6520.4	5631.15
927.929	1958.9139	6501.8	5616.8
928.0673	1960.5197	6470.25	5578.15
928.2055	1962.1247	6458.5	5569.65
928.3438	1963.729	6431.25	5542.4
928.482	1965.3325	6404.6	5512.85
928.6202	1966.9353	6388.6	5502.65
928.7584	1968.5374	6367.45	5481.55
928.8965	1970.1387	6361.6	5473.1
929.0346	1971.7393	6332.25	5444.7
929.1727	1973.3392	6310.8	5421.9
929.3108	1974.9383	6274.35	5388.05
929.4489	1976.5366	6236.5	5348.15
929.5869	1978.1342	6245.85	5358.75
929.7249	1979.7311	6248.3	5363.5
929.8629	1981.3273	6218.95	5333.7
930.0009	1982.9227	6204.95	5316.5
930.1388	1984.5173	6194.7	5307.35
930.2767	1986.1112	6164.95	5279.3
930.4146	1987.7044	6146.9	5260.4
930.5525	1989.2968	6126.9	5239.35
930.6904	1990.8885	6120.65	5232.85
930.8282	1992.4795	6094.8	5212.65
930.966	1994.0697	6080.8	5199.25
931.1038	1995.6592	6063.8	5179.4
931.2415	1997.2479	6049.7	5163.85
931.3793	1998.8359	6030.1	5145.55
931.517	2000.4232	5985.25	5106.75
931.6547	2002.0097	5994.75	5115.75
931.7923	2003.5955	5959.15	5077.15
931.93	2005.1805	5960.3	5074.9
932.0676	2006.7648	5940.45	5059.2
932.2052	2008.3484	5931.8	5049.8
932.3427	2009.9312	5914.25	5032.25
932.4803	2011.5133	5893.4	5014.7
932.6178	2013.0946	5897.35	5017.85
932.7553	2014.6752	5866.3	4985.5
932.8928	2016.2551	5844.8	4962.25
933.0302	2017.8342	5823.6	4940.8
933.1676	2019.4126	5804.1	4923.5
933.305	2020.9902	5781.05	4899.55
933.4424	2022.5672	5798.8	4917.8
933.5798	2024.1433	5756.05	4870.4
933.7171	2025.7188	5729.35	4851.85
933.8544	2027.2935	5731.45	4852.55
933.9917	2028.8674	5710.8	4831.75
934.129	2030.4406	5683.35	4805.1
934.2662	2032.0131	5679.2	4800.35
934.4034	2033.5849	5641.85	4761.6
934.5406	2035.1559	5657.45	4782.1
934.6778	2036.7261	5648	4766.9
934.8149	2038.2957	5642.25	4760.25
934.952	2039.8645	5614.65	4730.5
935.0891	2041.4325	5615.7	4728.2
935.2262	2042.9998	5586.2	4705.95
935.3632	2044.5664	5573.45	4689.65
935.5002	2046.1323	5550.15	4668.35
935.6372	2047.6974	5537.75	4657.2
935.7742	2049.2617	5543.05	4664.8
935.9111	2050.8254	5528.9	4625.45
936.048	2052.3883	5527.95	4644.15
936.1849	2053.9504	5521.9	4639.9
936.3218	2055.5118	5508.3	4624.25
936.4586	2057.0725	5463.15	4578.55
936.5955	2058.6325	5449.8	4569
936.7323	2060.1917	5444.05	4563.65
936.869	2061.7502	5438.4	4557.35
937.0058	2063.3079	5410.35	4532.6
937.1425	2064.8649	5393.95	4512.05
937.2792	2066.4212	5385.6	4504.85
937.4159	2067.9767	5386.45	4504.75
937.5525	2069.5315	5357.1	4474.05
937.6891	2071.0856	5342.6	4461.3
937.8257	2072.6389	5302.45	4422.25
937.9623	2074.1915	5289.15	4409.55
938.0989	2075.7433	5263.6	4381.75
938.2354	2077.2945	5255.95	4373.6
938.3719	2078.8448	5247.2	4365.2
938.5084	2080.3945	5216.95	4332.15
938.6448	2081.9434	5220.75	4337.95
938.7812	2083.4916	5210.55	4324.1
938.9176	2085.039	5177.85	4289.05
939.054	2086.5857	5181.2	4289.5
939.1903	2088.1317	5192.2	4303.5
939.3267	2089.677	5171.95	4279.5
939.463	2091.2215	5161.6	4272
939.5992	2092.7652	5128.65	4235.45
939.7355	2094.3083	5131.7	4241.8
939.8717	2095.8506	5113	4227.9
940.0079	2097.3921	5108.65	4223.05
940.1441	2098.933	5089.7	4203.9
940.2802	2100.4731	5088.95	4202.3
940.4163	2102.0124	5082.6	4190.85
940.5524	2103.5511	5062.4	4174.2
940.6885	2105.089	5055.4	4166.05
940.8245	2106.6261	5032.2	4144.45
940.9606	2108.1626	5036.55	4149.1
941.0965	2109.6983	5050.25	4137.15
941.2325	2111.2332	5020.55	4133.55
941.3684	2112.7675	4984.35	4094.25
941.5044	2114.301	4973.15	4084.55
941.6403	2115.8337	4966.15	4076.75
941.7761	2117.3657	4966.25	4079.65
941.912	2118.897	4951.65	4064.35
942.0478	2120.4276	4933.95	4042.1
942.1835	2121.9575	4905.75	4018.6
942.3193	2123.4866	4930.8	4029.9
942.455	2125.0149	4904.5	4014.75
942.5907	2126.5426	4890.05	4008.15
942.7264	2128.0695	4850.1	3963.5
942.8621	2129.5956	4832.75	3952.45
942.9977	2131.1211	4837	3949.6
943.1333	2132.6458	4830	3945
943.2689	2134.1698	4845.9	3956.7
943.4044	2135.693	4822.4	3931.85
943.54	2137.2155	4799.35	3911
943.6755	2138.7373	4797.25	3913.1
943.8109	2140.2584	4772.45	3890
943.9464	2141.7787	4774.85	3888
944.0818	2143.2983	4742.1	3863.9
944.2172	2144.8171	4712.7	3832.5
944.3526	2146.3353	4715	3832.3
944.4879	2147.8527	4697.3	3816.5
944.6232	2149.3693	4691.8	3805.05
944.7585	2150.8853	4688.55	3799.6
944.8938	2152.4005	4665.05	3777.15
945.029	2153.9149	4659.15	3769.05
945.1642	2155.4287	4647.9	3758.85
945.2994	2156.9417	4634.25	3748.45
945.4346	2158.454	4624.65	3738.7
945.5697	2159.9655	4613.65	3730.85
945.7048	2161.4764	4616.85	3732.3
945.8399	2162.9865	4600.75	3716.8
945.9749	2164.4958	4588.2	3702.55
946.1099	2166.0045	4564.65	3678.6
946.2449	2167.5124	4561.2	3678.65
946.3799	2169.0195	4559.35	3673.85
946.5148	2170.526	4558.85	3669.55
946.6498	2172.0317	4542.9	3655.35
946.7846	2173.5367	4539.2	3652.3
946.9195	2175.0409	4516.25	3630.6
947.0543	2176.5445	4519.5	3631.8
947.1891	2178.0473	4515.95	3626.95
947.3239	2179.5494	4486.2	3594.05
947.4587	2181.0507	4465.65	3578.95
947.5934	2182.5513	4452.75	3567
947.7281	2184.0512	4461.35	3576.2
947.8628	2185.5504	4445.6	3559.15
947.9974	2187.0488	4411.75	3528.5
948.132	2188.5465	4415.3	3530.45
948.2666	2190.0435	4392.55	3507.75
948.4012	2191.5397	4371.65	3486.2
948.5357	2193.0353	4367.15	3478.9
948.6702	2194.5301	4353.65	3462.25
948.8047	2196.0241	4342.65	3447.05
948.9392	2197.5175	4334.7	3442.4
949.0736	2199.0101	4339.7	3447.7
949.208	2200.502	4319.55	3432.8
949.3424	2201.9931	4280.8	3397.8
949.4767	2203.4835	4284.25	3400.95
949.611	2204.9733	4285.35	3395.3
949.7453	2206.4622	4256.15	3372.5
949.8796	2207.9505	4247.85	3362.9
950.0138	2209.438	4221.9	3341.45
950.148	2210.9248	4214.05	3331.05
950.2822	2212.4109	4221.5	3335.25
950.4164	2213.8962	4202.4	3313.95
950.5505	2215.3809	4186.05	3291.55
950.6846	2216.8648	4177.15	3285.4
950.8186	2218.3479	4172.4	3275.7
950.9527	2219.8304	4163.75	3265.3
951.0867	2221.3121	4162	3266.1
951.2207	2222.7931	4136.1	3245.45
951.3546	2224.2733	4119.05	3231.15
951.4886	2225.7529	4110.1	3221.3
951.6225	2227.2317	4107.6	3218.85
951.7563	2228.7098	4096.85	3214.3
951.8902	2230.1872	4062.7	3179.4
952.024	2231.6638	4070.4	3187.65
952.1578	2233.1397	4047.9	3161.95
952.2916	2234.6149	4050.1	3164.25
952.4253	2236.0894	4020.2	3135.4
952.559	2237.5632	4030.9	3137.05
952.6927	2239.0362	4014.55	3127.25
952.8263	2240.5085	4001.85	3114.45
952.9599	2241.9801	4002.15	3114.55
953.0935	2243.4509	3990.9	3102.4
953.2271	2244.921	3969	3079.65
953.3606	2246.3904	3951.95	3058.95
953.4941	2247.8591	3955.8	3067.25
953.6276	2249.3271	3949.45	3060.45
953.7611	2250.7943	3927.8	3039.05
953.8945	2252.2608	3917.95	3030
954.0279	2253.7266	3903.15	3013.95
954.1612	2255.1917	3885	2999.5
954.2946	2256.656	3872.25	2986.7
954.4279	2258.1197	3872.05	2988.05
954.5612	2259.5826	3856.85	2969.55
954.6944	2261.0447	3856.45	2969.05
954.8276	2262.5062	3843.65	2954.25
954.9608	2263.9669	3836.25	2943.8
955.094	2265.4269	3826.5	2941.4
955.2271	2266.8862	3834.25	2948.1
955.3602	2268.3448	3824.65	2939.9
955.4933	2269.8026	3812.85	2927.9
955.6264	2271.2598	3783	2897.8
955.7594	2272.7162	3776.45	2889.9
955.8924	2274.1719	3791.2	2901.65
956.0253	2275.6268	3780.05	2887.6
956.1583	2277.0811	3772.75	2882.05
956.2912	2278.5346	3767.7	2881.8
956.4241	2279.9874	3755	2870.1
956.5569	2281.4395	3746.9	2861.95
956.6897	2282.8908	3742.3	2852.15
956.8225	2284.3414	3729.8	2840.1
956.9553	2285.7914	3726.25	2840.3
957.088	2287.2406	3710.7	2820.6
957.2207	2288.689	3697.4	2807.35
957.3534	2290.1368	3706.6	2812.85
957.486	2291.5838	3684.8	2790.35
957.6186	2293.0302	3683.5	2788.15
957.7512	2294.4758	3655.05	2765.45
957.8838	2295.9206	3667.35	2774.65
958.0163	2297.3648	3651.8	2764.65
958.1488	2298.8082	3640.45	2752.2
958.2813	2300.251	3618.5	2729.55
958.4137	2301.693	3627.4	2735.75
958.5461	2303.1343	3617.5	2723.95
958.6785	2304.5748	3598.9	2710.95
958.8108	2306.0147	3587.95	2703.15
958.9432	2307.4538	3583.4	2696.25
959.0754	2308.8922	3582.35	2700.65
959.2077	2310.3299	3584.25	2699.75
959.3399	2311.7669	3564.55	2678.2
959.4721	2313.2031	3549.8	2662.5
959.6043	2314.6387	3555	2667.85
959.7365	2316.0735	3543.6	2652.7
959.8686	2317.5076	3525.55	2636.1
960.0006	2318.941	3515.4	2625.95
960.1327	2320.3737	3509.35	2617.6
960.2647	2321.8056	3501.3	2610.75
960.3967	2323.2369	3507.7	2618.5
960.5287	2324.6674	3491.7	2600.5
960.6606	2326.0972	3472.15	2583.05
960.7925	2327.5263	3458.9	2570.25
960.9244	2328.9547	3454.75	2565.35
961.0562	2330.3823	3449.3	2558.4
961.1881	2331.8092	3441.55	2547.2
961.3198	2333.2355	3430.3	2540.05
961.4516	2334.661	3436.2	2544.55
961.5833	2336.0858	3419.6	2528
961.715	2337.5098	3436.95	2548.6
961.8467	2338.9332	3407.25	2520.2
961.9783	2340.3558	3400.65	2508.1
962.1099	2341.7778	3392.1	2504.3
962.2415	2343.199	3374.85	2487.8
962.373	2344.6195	3369.95	2483.25
962.5045	2346.0393	3361.4	2476.25
962.636	2347.4583	3378.75	2493.15
962.7675	2348.8767	3363.6	2474.75
962.8989	2350.2943	3343.25	2450.65
963.0303	2351.7113	3364.95	2473.45
963.1617	2353.1275	3341	2448.95
963.293	2354.543	3357.1	2460.7
963.4243	2355.9578	3337.95	2448.6
963.5556	2357.3718	3286.2	2402.5
963.6868	2358.7852	3284.85	2398
963.818	2360.1978	3288.15	2403.45
963.9492	2361.6098	3291.8	2407.25
964.0803	2363.021	3279.5	2390.45
964.2114	2364.4315	3272.35	2385.4
964.3425	2365.8413	3261.6	2372.25
964.4736	2367.2504	3262.6	2380.1
964.6046	2368.6587	3236.4	2352.2
964.7356	2370.0664	3237.55	2355.4
964.8666	2371.4733	3219.1	2332.35
964.9975	2372.8795	3227.95	2342.65
965.1284	2374.285	3210.8	2324.8
965.2593	2375.6899	3182.7	2297.8
965.3901	2377.0939	3180.2	2296.65
965.5209	2378.4973	3177.5	2293.7
965.6517	2379.9	3163.05	2276.3
965.7825	2381.3019	3159.4	2273.75
965.9132	2382.7032	3158.05	2272.85
966.0439	2384.1037	3138.9	2257.7
966.1745	2385.5035	3147.85	2266.25
966.3051	2386.9027	3133.25	2252.55
966.4357	2388.3011	3125.2	2241.5
966.5663	2389.6987	3118.45	2234.35
966.6968	2391.0957	3111	2227.5
966.8273	2392.492	3088.85	2205.05
966.9578	2393.8876	3081.75	2196.85
967.0882	2395.2824	3078.95	2194.65
967.2186	2396.6765	3063.3	2179
967.349	2398.07	3064.9	2179.55
967.4793	2399.4627	3048.05	2163.55
967.6097	2400.8547	3044.05	2158.3
967.7399	2402.246	3040.9	2149.8
967.8702	2403.6366	3025.8	2139.05
968.0004	2405.0265	3022.8	2140.3
968.1306	2406.4156	3015.35	2127.7
968.2607	2407.8041	2995.6	2108.2
968.3909	2409.1918	2984.55	2097.9
968.521	2410.5789	2985.5	2102.25
968.651	2411.9652	2986.7	2100.75
968.781	2413.3508	2972.65	2089.65
968.911	2414.7358	2975.35	2088.35
969.041	2416.12	2950.65	2065.95
969.1709	2417.5035	2958.55	2074.5
969.3008	2418.8863	2940.2	2053.1
969.4307	2420.2684	2940.6	2057.25
969.5606	2421.6497	2923.65	2038.4
969.6904	2423.0304	2921.6	2037.6
969.8201	2424.4104	2906.25	2020.4
969.9499	2425.7896	2908.9	2023.3
970.0796	2427.1682	2899.3	2016.95
970.2093	2428.546	2914.3	2028.6
970.3389	2429.9232	2889.4	2004.6
970.4685	2431.2996	2891.45	2007.7
970.5981	2432.6753	2885.95	2000.9
970.7277	2434.0503	2873.35	1987.4
970.8572	2435.4246	2872.7	1987.2
970.9867	2436.7982	2865.1	1975.5
971.1161	2438.1711	2856.15	1972.05
971.2456	2439.5433	2842.9	1956.6
971.375	2440.9148	2835.35	1946
971.5043	2442.2856	2827.45	1943.8
971.6336	2443.6557	2829.85	1943.2
971.7629	2445.025	2807.7	1923.95
971.8922	2446.3937	2818.8	1932.5
972.0214	2447.7617	2798.05	1911.35
972.1506	2449.1289	2802.25	1918.45
972.2798	2450.4955	2800.6	1909.55
972.4089	2451.8613	2777.2	1892.75
972.538	2453.2265	2775.25	1890
972.6671	2454.5909	2766.85	1882
972.7961	2455.9546	2758.95	1873.05
972.9251	2457.3177	2755.95	1871.1
973.0541	2458.68	2758.75	1874.55
973.1831	2460.0416	2749	1863.2
973.312	2461.4025	2767.4	1879.5
973.4408	2462.7627	2762	1865.55
973.5697	2464.1222	2745.4	1862.7
973.6985	2465.4811	2737.2	1852.5
973.8273	2466.8392	2727.05	1842
973.956	2468.1966	2724.25	1838.15
974.0847	2469.5533	2731.1	1844.75
974.2134	2470.9093	2718.1	1831.7
974.3421	2472.2645	2715.85	1831.35
974.4707	2473.6191	2704.05	1820.95
974.5993	2474.973	2699.85	1814.8
974.7278	2476.3262	2700.5	1812.9
974.8563	2477.6787	2690.75	1805
974.9848	2479.0305	2668	1782.45
975.1132	2480.3816	2663.65	1777.05
975.2417	2481.7319	2659.5	1774.3
975.37	2483.0816	2663.5	1778.55
975.4984	2484.4306	2661.15	1776.2
975.6267	2485.7789	2646.3	1764.35
975.755	2487.1264	2638.95	1753.55
975.8833	2488.4733	2619.3	1736.05
976.0115	2489.8195	2621.05	1729.2
976.1397	2491.165	2613.45	1727.15
976.2678	2492.5097	2600.35	1714.65
976.3959	2493.8538	2599.05	1715
976.524	2495.1972	2595.1	1708.1
976.6521	2496.5398	2583.1	1695.3
976.7801	2497.8818	2591.9	1704.15
976.9081	2499.2231	2580.6	1693.5
977.036	2500.5637	2575.85	1688.9
977.164	2501.9035	2560.5	1673.15
977.2918	2503.2427	2568.95	1678.6
977.4197	2504.5812	2551.6	1663.65
977.5475	2505.919	2551.15	1663
977.6753	2507.256	2555.7	1668.3
977.8031	2508.5924	2532.6	1646.9
977.9308	2509.9281	2535.15	1643.35
978.0585	2511.2631	2530.75	1646.7
978.1861	2512.5974	2513.05	1628.7
978.3137	2513.9309	2521.85	1639.1
978.4413	2515.2638	2546.15	1629
978.5689	2516.596	2509.15	1622.8
978.6964	2517.9275	2497.55	1611.15
978.8239	2519.2583	2489.35	1603.05
978.9513	2520.5884	2495.85	1610.35
979.0788	2521.9178	2483.95	1597.95
979.2062	2523.2465	2475.7	1592.1
979.3335	2524.5745	2470.05	1586.25
979.4608	2525.9018	2472.75	1587.2
979.5881	2527.2284	2464.1	1581.05
979.7154	2528.5543	2448.5	1563.2
979.8426	2529.8796	2457.05	1571.75
979.9698	2531.2041	2455.25	1569.1
980.0969	2532.5279	2442.05	1555.5
980.224	2533.851	2440	1555.85
980.3511	2535.1735	2437.45	1548.8
980.4781	2536.4952	2436.7	1550.65
980.6052	2537.8163	2437	1550.8
980.7321	2539.1366	2416.2	1528.35
980.8591	2540.4562	2425.1	1537.95
980.986	2541.7752	2422.35	1537.6
981.1129	2543.0935	2410.9	1522.9
981.2397	2544.411	2416.65	1529.2
981.3665	2545.7279	2407.25	1521.45
981.4933	2547.0441	2402.8	1515.45
981.62	2548.3596	2396.85	1509
981.7467	2549.6744	2385.85	1499.8
981.8734	2550.9885	2388.5	1500.4
982.0001	2552.3019	2384	1499
982.1267	2553.6146	2390.05	1502.45
982.2532	2554.9266	2363.6	1477.55
982.3798	2556.2379	2371.65	1483.75
982.5063	2557.5485	2360.6	1477.95
982.6327	2558.8585	2370.5	1479.3
982.7592	2560.1677	2361.2	1471.4
982.8856	2561.4762	2362	1476.8
983.0119	2562.7841	2359.85	1470.95
983.1383	2564.0913	2353.35	1468.7
983.2646	2565.3977	2346.05	1460.25
983.3908	2566.7035	2343.2	1456.25
983.517	2568.0086	2345.9	1454.85
983.6432	2569.313	2338.05	1449.55
983.7694	2570.6167	2339.85	1448.65
983.8955	2571.9197	2328.6	1442.95
984.0216	2573.222	2324.1	1435
984.1476	2574.5236	2316.6	1431.8
984.2737	2575.8246	2324.85	1432.8
984.3996	2577.1248	2316.9	1430
984.5256	2578.4244	2314.8	1427.7
984.6515	2579.7232	2319.6	1435.45
984.7774	2581.0214	2333.65	1420.35
984.9032	2582.3189	2318.95	1436.15
985.029	2583.6157	2306.35	1415.4
985.1548	2584.9118	2298.5	1411.75
985.2806	2586.2072	2313.65	1426.6
985.4063	2587.5019	2287.8	1401.35
985.5319	2588.7959	2290.1	1403.2
985.6576	2590.0893	2304	1416.75
985.7832	2591.3819	2292.9	1407.65
985.9087	2592.6739	2282.75	1397.4
986.0343	2593.9652	2285.15	1396.5
986.1597	2595.2557	2279.75	1392.35
986.2852	2596.5456	2280.1	1391.8
986.4106	2597.8348	2278.1	1392.8
986.536	2599.1234	2266	1377.05
986.6614	2600.4112	2267.05	1381.85
986.7867	2601.6983	2261	1369.75
986.912	2602.9848	2259.05	1372.85
987.0372	2604.2705	2260.75	1367.6
987.1624	2605.5556	2261.15	1374.7
987.2876	2606.84	2246.75	1361.65
987.4128	2608.1237	2245.75	1360.05
987.5379	2609.4067	2232.9	1346.6
987.6629	2610.689	2243.1	1347.3
987.788	2611.9707	2238.65	1349.9
987.913	2613.2516	2227.4	1335.3
988.0379	2614.5319	2206.25	1319.4
988.1629	2615.8115	2218.4	1332.9
988.2878	2617.0903	2207.05	1319.85
988.4126	2618.3685	2199.45	1314.1
988.5375	2619.6461	2195	1309.85
988.6622	2620.9229	2191.95	1305.85
988.787	2622.199	2201.9	1313.9
988.9117	2623.4745	2185.55	1298.45
989.0364	2624.7493	2183.7	1300.45
989.161	2626.0234	2167.15	1280.75
989.2857	2627.2968	2180.7	1294.1
989.4102	2628.5695	2179.4	1290.6
989.5348	2629.8415	2156.6	1270.05
989.6593	2631.1128	2151.25	1265.35
989.7837	2632.3835	2168.4	1280.7
989.9082	2633.6535	2155.5	1272.05
990.0326	2634.9228	2139.4	1254.3
990.1569	2636.1914	2150.25	1263.85
990.2812	2637.4593	2150.25	1264
990.4055	2638.7265	2143.9	1257.8
990.5298	2639.9931	2133.2	1247.5
990.654	2641.259	2137.2	1250.4
990.7782	2642.5242	2132.7	1247.2
990.9023	2643.7887	2126.9	1241.05
991.0264	2645.0525	2119.55	1233.15
991.1505	2646.3156	2110.4	1225.25
991.2745	2647.5781	2110.2	1224.9
991.3985	2648.8398	2101.65	1216.45
991.5225	2650.1009	2105.4	1210.8
991.6464	2651.3613	2109.45	1224.6
991.7703	2652.6211	2098.25	1213.5
991.8942	2653.8801	2091	1207.05
992.018	2655.1385	2088.75	1199.9
992.1418	2656.3961	2089.5	1206
992.2655	2657.6531	2086.55	1203.75
992.3892	2658.9094	2087.95	1201.75
992.5129	2660.1651	2087.4	1201.7
992.6366	2661.42	2087.6	1201.35
992.7602	2662.6743	2082.4	1197.3
992.8837	2663.9279	2082.1	1196.7
993.0073	2665.1808	2086.25	1199.25
993.1307	2666.433	2074.1	1186.8
993.2542	2667.6846	2072.75	1188.65
993.3776	2668.9354	2077.75	1188.45
993.501	2670.1856	2071.2	1184.3
993.6244	2671.4351	2087.5	1203.8
993.7477	2672.6839	2073.65	1188.85
993.8709	2673.9321	2070.85	1187.15
993.9942	2675.1795	2079.3	1194.05
994.1174	2676.4263	2071.1	1186.25
994.2405	2677.6724	2074.35	1189.4
994.3637	2678.9179	2068.4	1182.85
994.4868	2680.1626	2070.05	1185.85
994.6098	2681.4067	2075.35	1190.95
994.7328	2682.6501	2062.9	1179.85
994.8558	2683.8928	2056	1170.55
994.9788	2685.1348	2048.15	1165.15
995.1017	2686.3761	2042.6	1158.75
995.2245	2687.6168	2033.6	1149.45
995.3474	2688.8568	2029.55	1145.05
995.4702	2690.0961	2030.45	1145.6
995.5929	2691.3348	2021.25	1135.8
995.7156	2692.5727	2028.1	1142.1
995.8383	2693.81	2012.9	1125.5
995.961	2695.0466	2001.35	1119.3
996.0836	2696.2826	2007.15	1118.85
996.2062	2697.5178	2013.3	1110.3
996.3287	2698.7524	2001.6	1114.85
996.4512	2699.9863	2001.1	1113.35
996.5737	2701.2195	2004.3	1119.6
996.6961	2702.452	2000.1	1113.2
996.8185	2703.6839	1998.85	1113.7
996.9408	2704.9151	2010.75	1126.9
997.0631	2706.1456	2004.85	1121.15
997.1854	2707.3755	2016.6	1133
997.3077	2708.6046	2018.2	1130.4
997.4299	2709.8331	2026.55	1142.3
997.552	2711.0609	2027.45	1143.95
997.6742	2712.2881	2035.75	1152.25
997.7963	2713.5145	2037.2	1149.55
997.9183	2714.7403	2035.75	1152.35
998.0403	2715.9654	2049.05	1163.9
998.1623	2717.1899	2074.6	1177.25
998.2842	2718.4136	2069.9	1186.05
998.4062	2719.6367	2068.9	1185.9
998.528	2720.8591	2082.7	1191.15
998.6498	2722.0809	2097.1	1212.2
998.7716	2723.3019	2097.45	1211.1
998.8934	2724.5223	2108.05	1221.9
999.0151	2725.7421	2116.4	1232.05
999.1368	2726.9611	2109.85	1222.35
999.2584	2728.1795	2108.4	1220.65
999.38	2729.3972	2090.6	1206.15
999.5016	2730.6142	2093.25	1196.95
999.6231	2731.8306	2072	1187.85
999.7446	2733.0462	2047.4	1160.1
999.8661	2734.2612	2038.65	1148.7
999.9875	2735.4756	2014.8	1126.95
1000.1089	2736.6892	1988.85	1104.65
1000.2302	2737.9022	1970.15	1086.5
1000.3515	2739.1145	1957.4	1074.55
1000.4728	2740.3262	1951.25	1060.4
1000.594	2741.5372	1934.3	1053.2
1000.7152	2742.7475	1914.8	1029.6
1000.8363	2743.9571	1911.3	1026.1
1000.9575	2745.1661	1904.95	1017.55
1001.0785	2746.3744	1889.45	1004.4
1001.1996	2747.582	1881.35	997
1001.3206	2748.7889	1857.05	969.85
1001.4415	2749.9952	1843.2	958.55
1001.5625	2751.2008	1850.4	967.05
1001.6833	2752.4057	1853.25	967.5
1001.8042	2753.61	1834.45	952.4
1001.925	2754.8136	1830.45	946.55
1002.0458	2756.0165	1835.1	952
1002.1665	2757.2188	1826.35	944.75
1002.2872	2758.4204	1831.35	950.25
1002.4078	2759.6213	1832.35	947
1002.5285	2760.8215	1840.05	954
1002.649	2762.0211	1821	936.05
1002.7696	2763.22	1819.75	932
1002.8901	2764.4182	1808.9	921
1003.0106	2765.6158	1815.9	931.95
1003.131	2766.8127	1799.15	913.8
1003.2514	2768.009	1800.6	917.8
1003.3717	2769.2045	1803.2	919.45
1003.492	2770.3994	1789.35	904.35
1003.6123	2771.5936	1783.25	899.25
1003.7325	2772.7872	1779.8	897.75
1003.8527	2773.9801	1771.85	886.9
1003.9729	2775.1723	1800.2	900.35
1004.093	2776.3639	1776.5	893.45
1004.2131	2777.5548	1773.4	888.4
1004.3331	2778.745	1765.4	883.35
1004.4531	2779.9346	1772.2	889.5
1004.5731	2781.1235	1769.15	883.85
1004.693	2782.3117	1766.35	886.6
1004.8129	2783.4992	1771.6	890.6
1004.9328	2784.6861	1777.6	893.35
1005.0526	2785.8723	1779.3	895.2
1005.1723	2787.0579	1782.7	902.15
1005.2921	2788.2428	1786.2	904.2
1005.4118	2789.427	1796.15	914.25
1005.5314	2790.6106	1802.6	918.3
1005.651	2791.7935	1810.85	925.85
1005.7706	2792.9757	1812.75	930.75
1005.8902	2794.1573	1829	942.35
1006.0097	2795.3382	1826.6	945.3
1006.1291	2796.5184	1840.8	960.05
1006.2485	2797.698	1860.6	976.8
1006.3679	2798.8769	1869.6	987.95
1006.4873	2800.0551	1879.5	998.55
1006.6066	2801.2327	1893.65	1009.4
1006.7258	2802.4096	1914.9	1032.75
1006.8451	2803.5859	1916.2	1033.7
1006.9642	2804.7615	1951	1069.1
1007.0834	2805.9364	1964.8	1082.65
1007.2025	2807.1106	1989.1	1107.3
1007.3216	2808.2842	2013	1130.05
1007.4406	2809.4572	2048.35	1164.3
1007.5596	2810.6294	2081.8	1196.65
1007.6785	2811.801	2120.2	1238.7
1007.7975	2812.972	2153.6	1273.4
1007.9163	2814.1423	2200.15	1318.7
1008.0352	2815.3119	2223.95	1340.65
1008.154	2816.4808	2279.6	1398.5
1008.2727	2817.6491	2329.35	1446.1
1008.3914	2818.8167	2377.55	1497.1
1008.5101	2819.9837	2431.8	1543.5
1008.6288	2821.15	2469.8	1588.2
1008.7474	2822.3157	2517.15	1635.3
1008.8659	2823.4807	2563.15	1680.9
1008.9844	2824.645	2602.75	1720.4
1009.1029	2825.8086	2649.45	1768.4
1009.2214	2826.9716	2696.35	1814.9
1009.3398	2828.134	2744.25	1864.15
1009.4581	2829.2957	2782.2	1897.7
1009.5764	2830.4567	2809	1927.8
1009.6947	2831.617	2822.25	1937.6
1009.813	2832.7767	2824.15	1944.45
1009.9312	2833.9358	2841.15	1958.3
1010.0493	2835.0941	2826.45	1942.85
1010.1675	2836.2519	2831.15	1951.5
1010.2855	2837.4089	2814.4	1932.3
1010.4036	2838.5653	2789.85	1909.35
1010.5216	2839.7211	2799.45	1918.05
1010.6396	2840.8761	2806.35	1923.65
1010.7575	2842.0306	2825.2	1943.95
1010.8754	2843.1843	2855.2	1974
1010.9932	2844.3374	2885.05	2004.8
1011.111	2845.4899	2938.45	2055.7
1011.2288	2846.6417	3016.75	2136.5
1011.3465	2847.7928	3081.6	2200.7
1011.4642	2848.9433	3146.8	2267
1011.5818	2850.0931	3234.2	2354.55
1011.6995	2851.2422	3297.25	2415.15
1011.817	2852.3907	3367	2483.5
1011.9345	2853.5385	3424.95	2542.55
1012.052	2854.6857	3492.4	2585.05
1012.1695	2855.8323	3546.6	2665.65
1012.2869	2856.9781	3569.95	2689.75
1012.4042	2858.1233	3621.35	2740.1
1012.5216	2859.2679	3663.45	2784.5
1012.6389	2860.4118	3724	2845.6
1012.7561	2861.555	3751.1	2864.8
1012.8733	2862.6976	3779	2896.65
1012.9905	2863.8395	3823.55	2943.15
1013.1076	2864.9808	3846.9	2964.2
1013.2247	2866.1214	3849.15	2970.35
1013.3417	2867.2614	3881.05	2998
1013.4587	2868.4007	3889.5	3009.75
1013.5757	2869.5393	3881.65	2998.1
1013.6926	2870.6773	3903.4	3018.5
1013.8095	2871.8146	3918.75	3034.2
1013.9263	2872.9513	3916.3	3031
1014.0431	2874.0874	3908.6	3026.65
1014.1599	2875.2227	3898.1	3016.95
1014.2766	2876.3574	3886.75	3005.05
1014.3933	2877.4915	3859.6	2978.1
1014.51	2878.6249	3824.75	2944.85
1014.6266	2879.7577	3801.8	2918.7
1014.7431	2880.8898	3797.8	2906.9
1014.8596	2882.0212	3770.8	2889.8
1014.9761	2883.152	3766	2886.15
1015.0925	2884.2821	3740.35	2861.75
1015.2089	2885.4116	3737.05	2858.05
1015.3253	2886.5405	3736.7	2856.25
1015.4416	2887.6686	3743.3	2859.05
1015.5579	2888.7962	3750.1	2869.4
1015.6741	2889.923	3737.55	2856.1
1015.7903	2891.0493	3766	2886.15
1015.9065	2892.1748	3768.05	2888.15
1016.0226	2893.2997	3777.9	2897.85
1016.1387	2894.424	3781.75	2902.95
1016.2547	2895.5476	3800.75	2919.7
1016.3707	2896.6706	3814.55	2936
1016.4866	2897.7929	3852.95	2971.15
1016.6025	2898.9145	3883.1	3001.85
1016.7184	2900.0355	3911.05	3030.55
1016.8342	2901.1559	3943.5	3063.25
1016.95	2902.2756	3975.95	3094.6
1017.0658	2903.3946	4001.9	3123.4
1017.1815	2904.513	4041.3	3159.6
1017.2971	2905.6308	4046.45	3168.55
1017.4127	2906.7479	4070.4	3190.35
1017.5283	2907.8643	4101.1	3220.3
1017.6439	2908.9801	4112.75	3232.05
1017.7594	2910.0953	4123.8	3244.6
1017.8748	2911.2098	4148.5	3266.5
1017.9902	2912.3236	4128.8	3239.3
1018.1056	2913.4368	4101.45	3220.35
1018.2209	2914.5494	4082.5	3202.4
1018.3362	2915.6613	4058.5	3173.1
1018.4515	2916.7725	4031.25	3147.75
1018.5667	2917.8831	3997.75	3117.55
1018.6819	2918.9931	3978.35	3095.35
1018.797	2920.1024	3922.25	3040.1
1018.9121	2921.211	3912.5	3032.15
1019.0271	2922.319	3898.65	3018.95
1019.1421	2923.4264	3863.05	2981.6
1019.2571	2924.5331	3863.45	2984.95
1019.372	2925.6391	3851.35	2970.4
1019.4869	2926.7445	3840.8	2962.7
1019.6017	2927.8493	3839.85	2958.8
1019.7165	2928.9534	3847.1	2964.45
1019.8313	2930.0569	3841.6	2959
1019.946	2931.1597	3823.6	2944.35
1020.0606	2932.2619	3803.75	2923.7
1020.1753	2933.3634	3800.15	2921.3
1020.2899	2934.4643	3799.45	2913.1
1020.4044	2935.5645	3789.25	2904
1020.5189	2936.6641	3745.15	2859.5
1020.6334	2937.763	3712.45	2834.3
1020.7478	2938.8613	3657.65	2778.25
1020.8622	2939.959	3624.45	2740.1
1020.9765	2941.056	3535.2	2655
1021.0908	2942.1523	3447.75	2566.65
1021.2051	2943.248	3367.95	2488.05
1021.3193	2944.3431	3280.6	2401.2
1021.4334	2945.4375	3175.85	2297.45
1021.5476	2946.5313	3074.75	2197.45
1021.6617	2947.6244	2965.45	2084.3
1021.7757	2948.7169	2882.95	2005.65
1021.8897	2949.8087	2780	1901.45
1022.0037	2950.8999	2692.8	1812.4
1022.1176	2951.9904	2607.6	1729.9
1022.2315	2953.0803	2539.45	1659.1
1022.3453	2954.1696	2480.9	1603.1
1022.4591	2955.2582	2421.9	1543.75
1022.5728	2956.3462	2376.1	1494.9
1022.6865	2957.4335	2337.35	1457.9
1022.8002	2958.5202	2303.2	1419.1
1022.9138	2959.6062	2275.15	1396.45
1023.0274	2960.6916	2255.3	1375.25
1023.141	2961.7764	2229.2	1349.3
1023.2545	2962.8605	2214.75	1336.2
1023.3679	2963.9439	2206.95	1328.55
1023.4813	2965.0267	2195.05	1314.05
1023.5947	2966.1089	2203.85	1302.55
1023.708	2967.1905	2158.3	1281.15
1023.8213	2968.2714	2161.8	1282.75
1023.9346	2969.3516	2153.35	1274.1
1024.0478	2970.4312	2176.6	1288.4
1024.1609	2971.5102	2168.75	1289.8
1024.274	2972.5885	2163.95	1287.1
1024.3871	2973.6662	2162.85	1279.15
1024.5002	2974.7432	2163.8	1286.9
1024.6132	2975.8196	2159.2	1280.95
1024.7261	2976.8954	2147.1	1268.3
1024.839	2977.9705	2125.05	1244
1024.9519	2979.045	2127.8	1247.45
1025.0647	2980.1188	2105	1225.85
1025.1775	2981.192	2082.7	1204.6
1025.2902	2982.2645	2068.95	1187.95
1025.4029	2983.3364	2034.9	1156.2
1025.5156	2984.4077	2011.95	1133.6
1025.6282	2985.4783	1973.15	1089.25
1025.7407	2986.5483	1955.8	1077.85
1025.8532	2987.6177	1919.3	1041.5
1025.9657	2988.6864	1886	1006.5
1026.0782	2989.7545	1851.65	971
1026.1906	2990.8219	1803.8	924.85
1026.3029	2991.8887	1795	913.4
1026.4152	2992.9548	1752.8	873.85
1026.5275	2994.0204	1717.5	840.3
1026.6397	2995.0852	1697.35	819.95
1026.7519	2996.1495	1663.4	784.9
1026.864	2997.2131	1645.35	768
1026.9761	2998.276	1617.95	740
1027.0882	2999.3383	1606.2	727.05
1027.2002	3000.4	1579.9	699.75
1027.3122	3001.4611	1568	690.2
1027.4241	3002.5215	1542.3	664.25
1027.536	3003.5812	1530.25	651.6
1027.6478	3004.6404	1521.4	643.3
1027.7596	3005.6989	1513.95	636.05
1027.8714	3006.7567	1491.55	614.55
1027.9831	3007.8139	1517.55	607.2
1028.0947	3008.8705	1483.5	604.2
1028.2064	3009.9264	1477.3	594.35
1028.3179	3010.9818	1468.35	590
1028.4295	3012.0364	1463.7	583.8
1028.541	3013.0905	1460.2	579.45
1028.6524	3014.1439	1450.05	570.15
1028.7638	3015.1966	1458.5	580.75
1028.8752	3016.2487	1449.05	571
1028.9865	3017.3002	1449.3	567.6
1029.0978	3018.3511	1450.65	574.45
1029.209	3019.4013	1442.9	564.25
1029.3202	3020.4509	1444.05	566.3
1029.4314	3021.4998	1444.35	566.3
1029.5425	3022.5481	1441.9	565.75
1029.6535	3023.5958	1440.45	560.5
1029.7645	3024.6428	1434.1	554.5
1029.8755	3025.6892	1437.15	560.1
1029.9864	3026.735	1441.35	563.15
1030.0973	3027.7802	1443.9	564.35
1030.2082	3028.8247	1440.45	563.05
1030.319	3029.8685	1448.85	568.55
1030.4297	3030.9118	1446.6	567.4
1030.5404	3031.9544	1446.3	566.6
1030.6511	3032.9963	1447.5	568.1
1030.7617	3034.0376	1456.9	580.3
1030.8723	3035.0783	1465.8	583.95
1030.9829	3036.1184	1458.1	579.15
1031.0934	3037.1578	1460.1	582.45
1031.2038	3038.1966	1462.7	585.6
1031.3142	3039.2348	1461.35	586.05
1031.4246	3040.2723	1477.1	590.55
1031.5349	3041.3092	1460.9	584.25
1031.6452	3042.3455	1456.4	576.35
1031.7554	3043.3811	1459.3	581.65
1031.8656	3044.4161	1459.35	581.95
1031.9758	3045.4505	1450.7	572.5
1032.0859	3046.4842	1441.95	563.7
1032.1959	3047.5173	1433.55	557.8
1032.3059	3048.5498	1437	560.6
1032.4159	3049.5816	1425.1	548.3
1032.5258	3050.6128	1425.7	546.5
1032.6357	3051.6434	1414.1	536.05
1032.7455	3052.6734	1409.3	530.3
1032.8553	3053.7027	1406.8	529.9
1032.9651	3054.7314	1396.55	518.8
1033.0748	3055.7594	1384.9	507
1033.1845	3056.7868	1391.65	513.8
1033.2941	3057.8136	1381.85	504.9
1033.4037	3058.8398	1381.55	501.65
1033.5132	3059.8653	1369.75	492.3
1033.6227	3060.8902	1368.55	489.75
1033.7321	3061.9145	1366.7	490.75
1033.8415	3062.9381	1360.75	481.95
1033.9509	3063.9612	1367.9	474.4
1034.0602	3064.9835	1347.5	471.65
1034.1694	3066.0053	1347.15	466.8
1034.2787	3067.0264	1339.1	461.95
1034.3878	3068.0469	1320.75	442.05
1034.497	3069.0668	1324.85	446.75
1034.6061	3070.086	1311.6	434.65
1034.7151	3071.1046	1308.5	429.2
1034.8241	3072.1226	1298.95	418.65
1034.9331	3073.1399	1289.7	413.2
1035.042	3074.1567	1277.75	401.05
1035.1508	3075.1727	1276.95	399.15
1035.2597	3076.1882	1260.55	383.15
1035.3684	3077.203	1253.3	376.4
1035.4772	3078.2173	1246.55	367.25
1035.5859	3079.2308	1238.15	358.7
1035.6945	3080.2438	1230.25	351.45
1035.8031	3081.2561	1221.2	344.55
1035.9117	3082.2678	1218.3	340.25
1036.0202	3083.2789	1208.6	331
1036.1286	3084.2893	1206.35	329.1
1036.2371	3085.2991	1201.55	322.25
1036.3454	3086.3083	1196.05	314.05
1036.4538	3087.3169	1188.15	307.4
1036.562	3088.3248	1182.2	305.25
1036.6703	3089.3321	1179.3	303.15
1036.7785	3090.3388	1172.7	295.5
1036.8866	3091.3449	1165.35	287.65
1036.9948	3092.3503	1167.35	287.1
1037.1028	3093.3551	1155	281.3
1037.2108	3094.3593	1156.3	279.4
1037.3188	3095.3629	1149.1	273.45
1037.4267	3096.3658	1149.15	271.25
1037.5346	3097.3681	1151.7	273.2
1037.6425	3098.3698	1148.2	271.35
1037.7503	3099.3708	1144.45	262.6
1037.858	3100.3713	1139.45	264.25
1037.9657	3101.3711	1132.25	252.9
1038.0734	3102.3702	1271.2	255.2
1038.181	3103.3688	1132.85	254.15
1038.2886	3104.3667	1126.65	251.85
1038.3961	3105.364	1125.95	247.65
1038.5036	3106.3607	1126.5	247.65
1038.611	3107.3568	1125.15	246.7
1038.7184	3108.3522	1117.4	242.65
1038.8257	3109.347	1114.35	235.3
1038.933	3110.3412	1115.15	232.25
1039.0403	3111.3348	1110.1	233.3
1039.1475	3112.3277	1110.45	234.4
1039.2547	3113.32	1105.2	230.45
1039.3618	3114.3117	1106.3	227.85
1039.4689	3115.3028	1103.95	227.1
1039.5759	3116.2932	1103.75	223.45
1039.6829	3117.2831	1109.6	225.15
1039.7898	3118.2723	1101	223.3
1039.8967	3119.2608	1093.35	215.1
1040.0035	3120.2488	1091.2	213.7
1040.1103	3121.2361	1096.7	217.7
1040.2171	3122.2229	1089.95	214.35
1040.3238	3123.209	1084.5	207.2
1040.4305	3124.1944	1086.05	209.1
1040.5371	3125.1793	1088.05	208.05
1040.6437	3126.1635	1080.7	205.8
1040.7502	3127.1471	1084.75	207.6
1040.8567	3128.1301	1078.55	202.65
1040.9631	3129.1125	1075.45	197.7
1041.0695	3130.0942	1082.65	206.6
1041.1759	3131.0753	1085.7	202.15
1041.2822	3132.0558	1076.9	198.65
1041.3884	3133.0357	1075	197.85
1041.4946	3134.015	1069.35	191.75
1041.6008	3134.9936	1074.3	194.2
1041.7069	3135.9716	1090.5	195.25
1041.813	3136.949	1069.1	192.75
1041.919	3137.9258	1085.55	190.05
1042.025	3138.902	1071.1	189.3
1042.1309	3139.8775	1061.15	185
1042.2368	3140.8524	1065.95	189.45
1042.3427	3141.8267	1063.65	184.25
1042.4485	3142.8004	1060.5	181.3
1042.5542	3143.7735	1066.1	183.3
1042.6599	3144.7459	1060.95	184.25
1042.7656	3145.7178	1061.6	186.15
1042.8712	3146.689	1056.45	183
1042.9768	3147.6596	1056.35	178.05
1043.0823	3148.6295	1051.3	175.75
1043.1878	3149.5989	1048.95	172.75
1043.2932	3150.5676	1050.3	174.6
1043.3986	3151.5357	1049.75	172
1043.5039	3152.5032	1048.65	171.1
1043.6092	3153.4701	1048.1	171.6
1043.7145	3154.4364	1049.35	168.6
1043.8197	3155.402	1039.15	164.7
1043.9248	3156.367	1046.4	168.7
1044.03	3157.3315	1077.75	164.15
1044.135	3158.2952	1041.3	164
1044.24	3159.2584	1040.55	164.55
1044.345	3160.221	1043.95	164.1
1044.4499	3161.1829	1037.2	161.8
1044.5548	3162.1442	1037.2	159.8
1044.6596	3163.105	1035.9	159.55
1044.7644	3164.065	1031.2	154.8
1044.8692	3165.0245	1033.7	154.35
1044.9739	3165.9834	1031.05	156.45
1045.0785	3166.9416	1027.45	149.5
1045.1831	3167.8993	1028.15	150.45
1045.2877	3168.8563	1027.05	149.2
1045.3922	3169.8127	1029.1	153.65
1045.4966	3170.7684	1025.9	151.25
1045.6011	3171.7236	1025.4	146.75
1045.7054	3172.6782	1026.1	150.65
1045.8098	3173.6321	1021.5	143.35
1045.914	3174.5854	1026.4	144.1
1046.0183	3175.5381	1020.6	143
1046.1224	3176.4902	1024.05	145.95
1046.2266	3177.4417	1023.4	146.95
1046.3307	3178.3926	1016.2	140.45
1046.4347	3179.3428	1015.05	138.85
1046.5387	3180.2924	1015.1	139.65
1046.6427	3181.2415	1020.05	143.4
1046.7466	3182.1899	1016.7	141.1
1046.8504	3183.1377	1012.3	138.15
1046.9542	3184.0848	1018.6	140.85
1047.058	3185.0314	1014.1	138.35
1047.1617	3185.9773	1018.2	139.05
1047.2654	3186.9227	1013.85	136.85
1047.369	3187.8674	1010.7	134.4
1047.4726	3188.8115	1013.85	135.15
1047.5761	3189.755	1011.65	135.5
1047.6796	3190.6979	1006.45	131.45
1047.783	3191.6402	1008.7	134.3
1047.8864	3192.5818	1009.55	134.35
1047.9898	3193.5229	1013.8	131.1
1048.0931	3194.4633	1008.3	133.3
1048.1963	3195.4031	1005.65	127.85
1048.2995	3196.3423	1005.65	129.55
1048.4027	3197.2809	1001.55	125.3
1048.5058	3198.2189	1007.5	129.8
1048.6089	3199.1563	1008.95	126.7
1048.7119	3200.0931	1001.2	126.4
1048.8148	3201.0292	999.75	125.45
1048.9178	3201.9648	1002.2	123.85
1049.0206	3202.8997	1003.35	125.7
1049.1235	3203.834	999.8	125.1
1049.2262	3204.7677	998.95	122.95
1049.329	3205.7008	997	119.8
1049.4317	3206.6333	996.25	122
1049.5343	3207.5652	995.7	116.55
1049.6369	3208.4964	996.6	118.9
1049.7394	3209.4271	989.45	113.6
1049.8419	3210.3571	993.1	119.45
1049.9444	3211.2865	991.55	112.8
1050.0468	3212.2154	996.9	121.05
1050.1491	3213.1436	996.9	118.9
1050.2514	3214.0712	996.35	117.2
1050.3537	3214.9982	989.9	115.05
1050.4559	3215.9246	990.75	113.95
1050.5581	3216.8503	991.1	116.75
1050.6602	3217.7755	987.1	112.75
1050.7623	3218.7001	989.3	114.6
1050.8643	3219.624	990.2	113.5
1050.9663	3220.5473	983.3	108.6
1051.0682	3221.4701	991.9	114.1
1051.1701	3222.3922	984.45	107.35
1051.2719	3223.3137	988.1	112.5
1051.3737	3224.2346	982.4	106.4
1051.4754	3225.1549	979.25	105.1
1051.5771	3226.0746	986.5	113.35
1051.6788	3226.9937	984.85	110.75
1051.7804	3227.9121	978.5	102.05
1051.8819	3228.83	983.1	109
1051.9834	3229.7473	982.95	106.35
1052.0849	3230.6639	976.95	99.85
1052.1863	3231.5799	981.65	105.05
1052.2876	3232.4954	981.5	104.7
1052.3889	3233.4102	980.05	104.55
1052.4902	3234.3244	977.25	102.15
1052.5914	3235.238	978.65	103.65
1052.6926	3236.151	999.5	102.4
1052.7937	3237.0634	970.8	96.95
1052.8948	3237.9752	974.25	98.95
1052.9958	3238.8864	972.5	93.95
1053.0968	3239.797	974.8	99.35
1053.1977	3240.7069	974.6	99
1053.2986	3241.6163	970.9	92.5
1053.3994	3242.5251	970.75	96.7
1053.5002	3243.4332	969.65	95.45
1053.6009	3244.3408	973.55	96.75
1053.7016	3245.2477	968.7	93.7
1053.8022	3246.154	970.3	93.3
1053.9028	3247.0598	969.65	93.35
1054.0034	3247.9649	969.15	93.55
1054.1039	3248.8694	968.6	94.5
1054.2043	3249.7733	969.75	95.6
1054.3047	3250.6766	965.05	88.75
1054.4051	3251.5793	966.5	89.4
1054.5054	3252.4814	965.65	88.05
1054.6056	3253.3829	963.7	90.05
1054.7058	3254.2838	964.95	90.05
1054.806	3255.1841	959.4	85.25
1054.9061	3256.0838	960.4	85
1055.0061	3256.9829	958.85	84.95
1055.1062	3257.8814	957.6	80.55
1055.2061	3258.7792	961.85	83.5
1055.306	3259.6765	958.75	82.55
1055.4059	3260.5731	953.45	76.85
1055.5057	3261.4692	955.6	79.55
1055.6055	3262.3647	955.55	79.35
1055.7052	3263.2595	955.6	81.6
1055.8049	3264.1538	955.5	81.45
1055.9045	3265.0474	952.15	76.55
1056.0041	3265.9404	951	75
1056.1036	3266.8329	947.05	72.5
1056.2031	3267.7247	956.45	70.75
1056.3025	3268.616	944.55	71.55
1056.4019	3269.5066	942.95	65.7
1056.5013	3270.3966	943	66.6
1056.6005	3271.286	936.65	63.6
