Software Version:	3.9.2.0
Unit SN:	10000200
Spectrometer SN:	6960
Date:	3/8/2024 12:52:37 PM
Data Line Index:	25
Spectral Points:	2048
Integration time (ms):	125
Averages:	20
Delay (ms):	30000
Sequence Number:	1
Processing:	dark subtract
Laser Power (mW):	300
Laser Current (mA):	823
Laser Diode Temp (C):	25
Laser Case Temp (C):	26.1
System Temp (C):	26.1
Spectrometer Temp (C):	23.9
CCD Temp (C):	0.005
Secondary Temp (C):	20
Heatsink Temp (C):	20.369
CCDPCB Temp (C):	36.262
SecondaryPCB Temp (C):	31.827

Wavelength	RamanShift	Raw Counts	Dark Subtracted
787.061	30.1047	452.95	43.55
787.2016	32.3739	454.3	48.55
787.3422	34.6426	456.3	49.75
787.4828	36.9109	465.9	55.5
787.6235	39.1787	472.5	58.75
787.7642	41.4461	483.55	64.4
787.9049	43.7131	488.95	67.85
788.0456	45.9796	498.25	74.85
788.1863	48.2456	506.5	77.6
788.3271	50.5112	513.15	80.05
788.4679	52.7764	525.6	90.7
788.6087	55.0411	535.85	96.05
788.7496	57.3054	548	101.5
788.8904	59.5692	554.25	107.15
789.0313	61.8326	563.8	115.35
789.1722	64.0955	579	126.55
789.3132	66.3579	593.45	135.75
789.4541	68.6199	610.4	146.85
789.5951	70.8815	647.45	180.45
789.7361	73.1426	729.1	257.1
789.8771	75.4032	928.95	452.95
790.0181	77.6634	1441.5	962.6
790.1592	79.9231	2633.65	2144.8
790.3003	82.1824	5204.1	4696.2
790.4414	84.4412	9777.7	9233.5
790.5825	86.6995	16082.9	15498.85
790.7237	88.9574	22124.05	21498.5
790.8648	91.2148	26230.4	25579.6
791.006	93.4717	28059	27394.05
791.1472	95.7282	28289.6	27615.2
791.2885	97.9842	27933.1	27255.45
791.4297	100.2398	27190	26512.35
791.571	102.4949	26380.25	25698.3
791.7123	104.7495	25465.5	24778.9
791.8536	107.0036	24466.45	23778.7
791.9949	109.2573	23656.95	22970.7
792.1363	111.5105	22914.45	22223.05
792.2777	113.7632	22173.9	21487.3
792.4191	116.0154	21597.4	20891
792.5605	118.2672	21180.95	20482.55
792.7019	120.5185	20755.65	20053.3
792.8434	122.7693	20425.75	19720.65
792.9849	125.0197	20127.4	19424.3
793.1264	127.2696	19831.1	19123.5
793.2679	129.519	19604.2	18893.3
793.4094	131.7679	19328.9	18612.3
793.551	134.0163	19067.6	18348.4
793.6926	136.2642	18742.65	18020.05
793.8342	138.5117	18406.45	17670.95
793.9758	140.7587	18063.2	17337.7
794.1175	143.0052	17725.05	16996.6
794.2591	145.2512	17386.05	16657.7
794.4008	147.4967	17082.8	16356.35
794.5425	149.7417	16860.75	16125.8
794.6842	151.9863	16658.9	15925
794.826	154.2304	16573.45	15831.8
794.9677	156.4739	16396.2	15650.15
795.1095	158.717	16286.5	15542.15
795.2513	160.9596	16093.9	15344
795.3931	163.2017	15853.2	15094.8
795.535	165.4433	15520.3	14763.75
795.6768	167.6844	15204.3	14443.7
795.8187	169.925	14898.2	14141.05
795.9606	172.1651	14516.35	13755.3
796.1025	174.4047	14266.45	13506.8
796.2445	176.6439	14007.4	13245.3
796.3864	178.8825	13805.95	13032.8
796.5284	181.1206	13632.8	12859.85
796.6704	183.3582	13475	12696.5
796.8124	185.5954	13385.55	12603.3
796.9544	187.832	13304.15	12523.8
797.0965	190.0681	13267.35	12482.3
797.2386	192.3037	13261.6	12469.15
797.3806	194.5388	13247.35	12449.2
797.5228	196.7734	13284.1	12486.4
797.6649	199.0075	13362.5	12565.75
797.807	201.2411	13486.2	12687.6
797.9492	203.4742	13554.3	12755.25
798.0914	205.7068	13697.7	12894.95
798.2336	207.9389	13861.5	13055.65
798.3758	210.1704	13993.95	13197.45
798.518	212.4015	14072.55	13282.55
798.6603	214.632	14241.55	13461.05
798.8025	216.862	14373.75	13587.45
798.9448	219.0915	14495.15	13715.1
799.0871	221.3205	14620.05	13832.15
799.2294	223.549	14729.25	13945.4
799.3718	225.777	14874.6	14093.45
799.5141	228.0044	14993.45	14204.25
799.6565	230.2314	15236.7	14449.8
799.7989	232.4578	15413.35	14619.2
799.9413	234.6837	15583.8	14789.65
800.0837	236.909	15667.05	14867.2
800.2262	239.1339	15673.7	14844.9
800.3687	241.3582	15558.3	14738.05
800.5111	243.582	15424.3	14584.1
800.6536	245.8053	15287.35	14457.1
800.7961	248.0281	15171.55	14344.8
800.9387	250.2503	15142	14307.1
801.0812	252.472	15164.2	14330.2
801.2238	254.6932	15254.3	14425.95
801.3664	256.9139	15326.35	14498.25
801.509	259.134	15477.5	14640.65
801.6516	261.3536	15668.45	14837.3
801.7942	263.5727	15952.2	15118.25
801.9369	265.7912	16164.05	15333.35
802.0795	268.0092	16426.1	15588.25
802.2222	270.2267	16543.8	15709.8
802.3649	272.4436	16672.9	15835.95
802.5076	274.6601	16660.7	15816.15
802.6504	276.8759	16555	15712.75
802.7931	279.0913	16499.25	15654.9
802.9359	281.3061	16339.4	15495.05
803.0787	283.5204	16327.4	15477.25
803.2215	285.7341	16297.9	15447.8
803.3643	287.9473	16361.35	15498.85
803.5071	290.16	16441.65	15587.85
803.6499	292.3721	16589.35	15743.65
803.7928	294.5837	16839.2	15989.25
803.9357	296.7947	17060.25	16216.65
804.0786	299.0052	17263.9	16416.15
804.2215	301.2152	17166.75	16320.9
804.3644	303.4246	16996.95	16150.45
804.5074	305.6334	16572.7	15729.15
804.6503	307.8418	16179.3	15327.25
804.7933	310.0495	15759.65	14905.3
804.9363	312.2568	15332.85	14476.3
805.0793	314.4635	14986.6	14129.75
805.2223	316.6696	14738.8	13879.3
805.3653	318.8752	14552.4	13682.65
805.5084	321.0802	14489.6	13629.3
805.6514	323.2847	14509.4	13647.5
805.7945	325.4887	14533.25	13671.8
805.9376	327.692	14482.6	13614.55
806.0807	329.8949	14418.55	13554.7
806.2238	332.0972	14247.1	13383.85
806.367	334.2989	14015.45	13147.25
806.5101	336.5001	13776.55	12904.2
806.6533	338.7007	13551.1	12680.25
806.7965	340.9008	13396.25	12528.7
806.9397	343.1003	13250.35	12380.8
807.0829	345.2992	13143	12268.4
807.2261	347.4976	13059.4	12181.55
807.3693	349.6955	13018.2	12137.1
807.5126	351.8927	13033.1	12152
807.6559	354.0895	12937.75	12048.05
807.7991	356.2856	12917.1	12031
807.9424	358.4812	12876.1	11992.85
808.0857	360.6763	12904.05	12015.6
808.2291	362.8707	12883.05	11997.5
808.3724	365.0646	12933.65	12051.35
808.5158	367.258	12979.1	12094.4
808.6591	369.4508	13036.85	12147.6
808.8025	371.643	13159.5	12268.75
808.9459	373.8346	13219.45	12325.4
809.0893	376.0257	13256.8	12360.7
809.2327	378.2162	13249.5	12359.65
809.3762	380.4062	13240.35	12348.4
809.5196	382.5956	13127.15	12239.45
809.6631	384.7844	13030.85	12148.8
809.8066	386.9726	12891.5	12010.1
809.9501	389.1603	12821.7	11936.25
810.0936	391.3474	12778.75	11865.25
810.2371	393.5339	12754.65	11867.55
810.3806	395.7199	12676.85	11787.9
810.5241	397.9052	12727	11839.55
810.6677	400.09	12810.75	11926.35
810.8113	402.2743	12939.65	12052.7
810.9548	404.4579	13092.8	12203
811.0984	406.641	13288.25	12399.35
811.2421	408.8235	13477.55	12588.75
811.3857	411.0054	13654.95	12765.8
811.5293	413.1868	13889.85	12988.8
811.673	415.3675	14013.45	13116.3
811.8166	417.5477	14031.05	13132.35
811.9603	419.7273	13992.7	13093.05
812.104	421.9064	13936.15	13034.4
812.2477	424.0848	13853.15	12954.3
812.3914	426.2627	13700.1	12799.5
812.5351	428.4399	13458.3	12558.6
812.6788	430.6166	13154.05	12246.55
812.8226	432.7928	12803.05	11895.55
812.9663	434.9683	12507.65	11607.25
813.1101	437.1432	12274.2	11372.15
813.2539	439.3176	12086.7	11191.25
813.3977	441.4914	11969.4	11079.1
813.5415	443.6645	11940.8	11046.1
813.6853	445.8371	11899.1	10994.75
813.8291	448.0091	11840.9	10938.3
813.973	450.1806	11801.75	10900.95
814.1168	452.3514	11803.5	10905.5
814.2607	454.5216	11846.65	10937.95
814.4046	456.6913	11816.75	10912.9
814.5485	458.8603	11856.65	10954.55
814.6924	461.0288	11916.05	11019.9
814.8363	463.1967	11900.1	11009.45
814.9802	465.3639	11931.15	11031.5
815.1241	467.5306	11958.15	11059.5
815.2681	469.6967	12001.65	11104.75
815.412	471.8622	12040.55	11148.25
815.556	474.0271	12097.3	11203.75
815.7	476.1914	12142.6	11238.85
815.844	478.3551	12126.95	11225.45
815.988	480.5182	12200.55	11303.9
816.132	482.6807	12279.85	11390
816.276	484.8426	12432.8	11550.95
816.4201	487.0039	12756.15	11865.05
816.5641	489.1647	13151.9	12252.3
816.7082	491.3248	13490.8	12585.65
816.8522	493.4843	13654.85	12755.15
816.9963	495.6432	13580.75	12683.85
817.1404	497.8015	13475.95	12569.05
817.2845	499.9592	13364.35	12450.1
817.4286	502.1163	13204.2	12289.45
817.5727	504.2728	12894.05	11988.4
817.7168	506.4287	12628.7	11736.8
817.861	508.5839	12297.75	11403.55
818.0051	510.7386	12081.65	11180.05
818.1493	512.8927	11944.55	11030.6
818.2935	515.0461	11892.4	10983.95
818.4377	517.199	11974.9	11060.1
818.5818	519.3512	12099.75	11185.85
818.726	521.5029	12341.6	11424.95
818.8703	523.6539	12543.2	11633.25
819.0145	525.8043	12654.3	11741.55
819.1587	527.9541	12611.15	11697.15
819.303	530.1033	12461.05	11548.15
819.4472	532.2519	12327.9	11414.05
819.5915	534.3999	12309.7	11398.45
819.7357	536.5472	12389.4	11477.4
819.88	538.694	12663.65	11755.75
820.0243	540.8401	12988.5	12075.5
820.1686	542.9856	13246.7	12322.3
820.3129	545.1305	13320.9	12391.35
820.4572	547.2748	13238.45	12307.2
820.6016	549.4185	12981.75	12049.1
820.7459	551.5615	12827.35	11894
820.8902	553.704	12810.45	11882.5
821.0346	555.8458	12835.8	11913.85
821.1789	557.987	13015.1	12099.55
821.3233	560.1276	13194.05	12270.85
821.4677	562.2675	13536.1	12614.8
821.6121	564.4069	13943.7	13018.05
821.7565	566.5456	14342.45	13417.5
821.9009	568.6837	14445.65	13529.05
822.0453	570.8212	14071.25	13153.9
822.1897	572.958	13474.45	12558.25
822.3342	575.0942	12881.3	11961.05
822.4786	577.2299	12485.65	11571.95
822.6231	579.3648	12303.9	11405
822.7675	581.4992	12249.8	11358.35
822.912	583.6329	12360.7	11472.55
823.0565	585.766	12541.7	11645.15
823.201	587.8985	12691.05	11784.25
823.3454	590.0304	12717.85	11781
823.4899	592.1616	12674.25	11753.9
823.6345	594.2922	12564.3	11635.35
823.779	596.4222	12398.45	11470.1
823.9235	598.5515	12194.55	11266.35
824.068	600.6802	12023	11093.1
824.2126	602.8083	11860.65	10937.65
824.3571	604.9358	11827.65	10907.05
824.5017	607.0626	11855.7	10924.8
824.6462	609.1888	11921.7	10987.15
824.7908	611.3144	12036.1	11099.7
824.9354	613.4393	12110.05	11176
825.08	615.5636	12192.85	11257
825.2246	617.6873	12194.5	11264.8
825.3692	619.8103	12106.35	11169
825.5138	621.9327	11930	11000
825.6584	624.0544	11779.55	10853.1
825.803	626.1756	11618.45	10689.9
825.9477	628.2961	11490.25	10561.15
826.0923	630.4159	11413.55	10481.45
826.237	632.5351	11378.05	10442.9
826.3816	634.6537	11349.05	10417.8
826.5263	636.7716	11341.45	10402.15
826.6709	638.8889	11360.25	10422.45
826.8156	641.0056	11381.85	10443.3
826.9603	643.1216	11355.35	10420
827.105	645.237	11324.85	10386.8
827.2497	647.3518	11277.75	10347
827.3944	649.4659	11212.15	10286.75
827.5391	651.5793	11148.6	10224.65
827.6838	653.6922	11170.65	10238.95
827.8285	655.8043	11145.4	10216.45
827.9733	657.9159	11129.3	10194.95
828.118	660.0268	11102.2	10172.7
828.2627	662.137	11096.6	10165.9
828.4075	664.2466	11109.7	10168.3
828.5522	666.3556	11078.5	10138.7
828.697	668.4639	11023.5	10090.2
828.8418	670.5716	11032.8	10104.25
828.9865	672.6786	11004.35	10070.1
829.1313	674.785	10985.7	10047.75
829.2761	676.8907	10974.05	10036.65
829.4209	678.9958	10971.15	10042.4
829.5657	681.1002	10963.65	10026.95
829.7105	683.204	10948.4	10006.1
829.8553	685.3072	10956.25	10017.15
830.0001	687.4097	10920.8	9983.35
830.1449	689.5115	10923.15	9983.35
830.2898	691.6127	10916.75	9978.8
830.4346	693.7132	10865	9931.65
830.5794	695.8131	10882.1	9934.3
830.7243	697.9123	10878.35	9934.1
830.8691	700.0109	10892.9	9945.1
831.014	702.1089	10936.55	9992.7
831.1588	704.2061	10967.3	10023.8
831.3037	706.3028	11027.2	10083.35
831.4486	708.3987	11089.4	10146.05
831.5935	710.4941	11111.25	10170.2
831.7383	712.5887	11171.05	10228.2
831.8832	714.6827	11288.5	10348.1
832.0281	716.7761	11459.5	10521.45
832.173	718.8688	11677.15	10735.9
832.3179	720.9608	11833.4	10885.35
832.4628	723.0522	11948	10995.1
832.6077	725.1429	11978.45	11035.1
832.7527	727.233	11999.25	11052.25
832.8976	729.3224	12001.8	11056.7
833.0425	731.4112	11884.1	10943.6
833.1874	733.4993	11732.15	10785.5
833.3324	735.5867	11526.3	10581.25
833.4773	737.6735	11327.05	10387.1
833.6222	739.7596	11167.8	10224.75
833.7672	741.845	11024	10082.8
833.9122	743.9298	10953.55	10005.95
834.0571	746.014	10917.05	9974.15
834.2021	748.0974	10892.65	9939.9
834.347	750.1802	10891.55	9941.15
834.492	752.2624	10902.9	9953.55
834.637	754.3439	10989.3	10035.95
834.782	756.4247	11088.5	10135
834.9269	758.5048	11267.5	10322.05
835.0719	760.5843	11539.6	10593.15
835.2169	762.6631	11944.75	10992.2
835.3619	764.7413	12506.4	11560.45
835.5069	766.8188	13164.3	12215.1
835.6519	768.8956	13747.15	12795.3
835.7969	770.9718	14091.7	13141.4
835.9419	773.0473	14046.05	13094.6
836.0869	775.1221	13797.2	12847.15
836.232	777.1962	13487	12537.05
836.377	779.2697	13394.3	12439.95
836.522	781.3426	13450.3	12487.85
836.667	783.4147	13571.3	12619.75
836.8121	785.4862	13663.95	12713.45
836.9571	787.557	13496.5	12541.15
837.1021	789.6271	13072.4	12116.6
837.2472	791.6966	12480.05	11529
837.3922	793.7654	11879.7	10928.65
837.5373	795.8335	11472.95	10523.4
837.6823	797.901	11203.35	10252.5
837.8274	799.9678	11034.55	10076.5
837.9724	802.0339	10966.4	10013.15
838.1175	804.0993	10926.6	9964.55
838.2626	806.1641	10869.05	9916.95
838.4076	808.2282	10819.5	9865.55
838.5527	810.2916	10705.45	9749.15
838.6978	812.3544	10647.5	9700.4
838.8428	814.4164	10587.75	9638.7
838.9879	816.4778	10627.75	9670.05
839.133	818.5385	10651.75	9694.7
839.2781	820.5986	10804.15	9846.95
839.4232	822.658	11020.25	10061.95
839.5682	824.7166	11299.3	10344.85
839.7133	826.7747	11788.5	10829.05
839.8584	828.832	12242.1	11284.15
840.0035	830.8886	12619.3	11662.1
840.1486	832.9446	12785.6	11828.2
840.2937	834.9999	12671.55	11716.45
840.4388	837.0545	12457	11498.15
840.5839	839.1085	12151.85	11193
840.729	841.1618	11874	10911.8
840.8741	843.2143	11652.65	10697.2
841.0192	845.2662	11463.95	10508.35
841.1643	847.3175	11372.55	10413.2
841.3095	849.368	11245.15	10287.35
841.4546	851.4179	11138.35	10183.05
841.5997	853.467	11038.55	10081.9
841.7448	855.5155	10957.45	9999.15
841.8899	857.5633	10868.4	9911.15
842.0351	859.6105	10751.8	9793.3
842.1802	861.6569	10679.15	9719.15
842.3253	863.7027	10645	9684.35
842.4704	865.7478	10592.95	9633.1
842.6156	867.7922	10570	9612.7
842.7607	869.8359	10564.25	9604.3
842.9058	871.8789	10632.35	9669.15
843.0509	873.9212	10706.95	9715.85
843.1961	875.9629	10779	9818.85
843.3412	878.0039	10924.5	9966.15
843.4863	880.0441	11005.05	10050.15
843.6315	882.0837	11067.9	10114.05
843.7766	884.1226	11074.05	10118.2
843.9218	886.1609	11077.15	10120.65
844.0669	888.1984	11174.7	10217.7
844.212	890.2352	11253.9	10294.55
844.3572	892.2714	11294.2	10330.25
844.5023	894.3069	11245.95	10290.15
844.6475	896.3416	11110.75	10150.3
844.7926	898.3757	10972.85	10014.4
844.9377	900.4091	10881.95	9918.15
845.0829	902.4418	10886.7	9918.9
845.228	904.4739	10922.2	9954.2
845.3732	906.5052	10956.5	9995.5
845.5183	908.5358	10934.75	9970.3
845.6635	910.5658	10783.1	9816.25
845.8086	912.595	10574.6	9612.25
845.9538	914.6236	10371.1	9410.1
846.0989	916.6515	10240.85	9279.45
846.2441	918.6786	10177.65	9212.45
846.3892	920.7051	10178.3	9215.75
846.5344	922.7309	10239	9275.45
846.6795	924.756	10255.3	9292.3
846.8246	926.7804	10327.25	9366.8
846.9698	928.8041	10353.15	9391.7
847.1149	930.8272	10396.05	9433.55
847.2601	932.8495	10372.3	9407.7
847.4052	934.8711	10370.8	9405.7
847.5504	936.892	10292.05	9329.05
847.6955	938.9123	10269.75	9306.9
847.8407	940.9318	10242.25	9282.55
847.9858	942.9506	10231.55	9268.05
848.131	944.9688	10167.25	9206.9
848.2761	946.9862	10098.7	9137.5
848.4213	949.003	9963.55	8999.5
848.5664	951.019	9884.55	8923.7
848.7115	953.0344	9865.3	8902
848.8567	955.0491	9847	8884.15
849.0018	957.063	9856.6	8889.45
849.147	959.0763	9961.75	9003.15
849.2921	961.0888	9982.2	9019.75
849.4373	963.1007	10027.95	9067.85
849.5824	965.1119	10059.75	9112.15
849.7275	967.1223	10062	9118.1
849.8727	969.1321	10032.9	9089.3
850.0178	971.1412	10034.85	9081.8
850.1629	973.1495	10046.65	9087.1
850.3081	975.1572	10094.5	9091.65
850.4532	977.1641	10095	9131.75
850.5983	979.1704	10056.6	9088.95
850.7435	981.1759	10076.95	9108.45
850.8886	983.1808	10073.75	9107.8
851.0337	985.1849	10096.85	9124.65
851.1788	987.1884	10178.7	9218.45
851.324	989.1911	10271.9	9311.6
851.4691	991.1932	10377.8	9419.15
851.6142	993.1945	10403.25	9444.4
851.7593	995.1951	10350.95	9394.25
851.9045	997.1951	10324.25	9357.4
852.0496	999.1943	10260	9299.4
852.1947	1001.1928	10289.1	9327.45
852.3398	1003.1906	10309.4	9347.1
852.4849	1005.1877	10397.35	9436.95
852.63	1007.1841	10476.35	9515.6
852.7751	1009.1798	10515.6	9560.35
852.9202	1011.1748	10415.2	9454.95
853.0653	1013.1691	10250.15	9287.7
853.2104	1015.1627	10034.4	9070
853.3555	1017.1556	9866.6	8909.15
853.5006	1019.1477	9727.15	8770.9
853.6457	1021.1392	9629.45	8680.6
853.7908	1023.1299	9596.2	8648.85
853.9359	1025.12	9584.55	8643.55
854.081	1027.1093	9642.25	8711.75
854.2261	1029.0979	9761.45	8834.75
854.3712	1031.0859	9840.1	8905.35
854.5163	1033.0731	9885.9	8941.15
854.6613	1035.0596	9824.7	8874.5
854.8064	1037.0454	9733.2	8780.85
854.9515	1039.0304	9640.75	8686.05
855.0965	1041.0148	9501.9	8541.8
855.2416	1042.9985	9445.05	8486.3
855.3867	1044.9814	9377.5	8422.95
855.5317	1046.9636	9333.7	8374.4
855.6768	1048.9452	9326.35	8371
855.8219	1050.926	9360.45	8401.75
855.9669	1052.9061	9375.4	8419.15
856.112	1054.8855	9396.2	8438.75
856.257	1056.8642	9408.5	8452.2
856.4021	1058.8421	9492.1	8529.4
856.5471	1060.8194	9505.3	8544.3
856.6921	1062.7959	9573.35	8618.7
856.8372	1064.7717	9648.15	8688.05
856.9822	1066.7469	9696.9	8743.65
857.1272	1068.7213	9748.65	8786.65
857.2723	1070.695	9836.65	8877.2
857.4173	1072.6679	9833.4	8874.1
857.5623	1074.6402	9849.7	8889.2
857.7073	1076.6117	9825.8	8856.85
857.8523	1078.5826	9745.45	8788.8
857.9973	1080.5527	9627.5	8668.45
858.1423	1082.5221	9554.45	8597.9
858.2873	1084.4908	9568.35	8614
858.4323	1086.4587	9626.1	8663.35
858.5773	1088.426	9646.65	8685.2
858.7223	1090.3925	9658.05	8695.8
858.8673	1092.3584	9695.55	8734.15
859.0123	1094.3235	9687.8	8731.3
859.1573	1096.2879	9738.45	8781.6
859.3022	1098.2515	9849.4	8889.25
859.4472	1100.2145	10015.3	9060.45
859.5922	1102.1767	10177.4	9221.35
859.7371	1104.1382	10369	9414.9
859.8821	1106.099	10647.85	9690.75
860.027	1108.0591	10842.45	9885.05
860.172	1110.0185	11018	10059
860.3169	1111.9771	11092.25	10133.75
860.4619	1113.9351	10993.15	10038.55
860.6068	1115.8923	10832.05	9874.05
860.7517	1117.8488	10658.2	9702.9
860.8967	1119.8045	10456.3	9500.85
861.0416	1121.7596	10349.2	9394.05
861.1865	1123.7139	10212.85	9260.3
861.3314	1125.6675	10178.35	9218.95
861.4763	1127.6204	10210.15	9253.15
861.6212	1129.5726	10167.55	9205.4
861.7661	1131.524	10106.3	9148.15
861.911	1133.4748	9961.35	9002.25
862.0559	1135.4248	9806.15	8848.85
862.2008	1137.3741	9688.3	8731.35
862.3457	1139.3226	9583.1	8626.25
862.4905	1141.2705	9517.7	8560.5
862.6354	1143.2176	9449.55	8487.3
862.7803	1145.164	9412.45	8454.55
862.9251	1147.1097	9353.95	8398.4
863.07	1149.0546	9260.1	8303.8
863.2148	1150.9989	9160.3	8202.35
863.3597	1152.9424	9081	8126.05
863.5045	1154.8852	8984	8026.75
863.6493	1156.8272	8934.8	7976.95
863.7942	1158.7686	8933.55	7969
863.939	1160.7092	8930.85	7973
864.0838	1162.6491	8973.05	8013.05
864.2286	1164.5883	9054.2	8099.75
864.3734	1166.5267	9150.9	8192.4
864.5182	1168.4644	9331.65	8378.8
864.663	1170.4014	9513.45	8558.45
864.8078	1172.3377	9777.15	8826.65
864.9526	1174.2732	10053.5	9101.25
865.0974	1176.2081	10460.35	9505.75
865.2421	1178.1421	10958.35	9999.05
865.3869	1180.0755	11432.1	10478.05
865.5317	1182.0082	11758.25	10804.2
865.6764	1183.9401	11919.55	10969.65
865.8212	1185.8713	11806.85	10859.85
865.9659	1187.8017	11486.3	10543.95
866.1106	1189.7315	11116.05	10186.25
866.2554	1191.6605	10741.9	9812.95
866.4001	1193.5888	10465.5	9527.05
866.5448	1195.5163	10317.85	9372.35
866.6895	1197.4432	10218.45	9268.95
866.8342	1199.3693	10162.8	9210.9
866.9789	1201.2947	10153.3	9196
867.1236	1203.2193	10125.4	9169.65
867.2683	1205.1432	10127.65	9174.2
867.413	1207.0664	10089.9	9137.45
867.5576	1208.9889	10065.65	9111.05
867.7023	1210.9106	10077.7	9126.35
867.847	1212.8316	10071.85	9121.65
867.9916	1214.7519	10105.3	9146.15
868.1363	1216.6715	10125	9175.05
868.2809	1218.5903	10213.35	9265.3
868.4255	1220.5084	10274.45	9322.2
868.5701	1222.4257	10340	9393.05
868.7148	1224.3424	10388.2	9439.1
868.8594	1226.2583	10495.7	9543.05
869.004	1228.1735	10629.15	9680.15
869.1486	1230.0879	10767.1	9815.8
869.2932	1232.0016	10944.6	9995.9
869.4377	1233.9146	11047.5	10094.6
869.5823	1235.8269	11063.65	10112.7
869.7269	1237.7384	11013.9	10061.9
869.8715	1239.6492	10895.45	9944.5
870.016	1241.5592	10843.8	9891
870.1606	1243.4686	10879.1	9928
870.3051	1245.3772	11045.2	10093.35
870.4496	1247.285	11186	10237.15
870.5941	1249.1922	11375.95	10425.35
870.7387	1251.0986	11514.75	10564.1
870.8832	1253.0042	11553.4	10605.7
871.0277	1254.9092	11651.2	10702.35
871.1722	1256.8134	11740.25	10793.1
871.3167	1258.7169	11894.45	10944.9
871.4611	1260.6196	12073.05	11128.35
871.6056	1262.5216	12294.15	11344.35
871.7501	1264.4229	12495.6	11547.5
871.8945	1266.3234	12675.7	11727
872.039	1268.2232	12821.75	11873.2
872.1834	1270.1223	12870.4	11923.1
872.3278	1272.0207	12914.05	11962.55
872.4723	1273.9183	12890.2	11930.75
872.6167	1275.8151	12812.1	11864.95
872.7611	1277.7113	12826.95	11878.75
872.9055	1279.6067	12859.9	11913.45
873.0499	1281.5014	13052.05	12104.85
873.1943	1283.3953	13382.95	12433
873.3386	1285.2885	13838.85	12890.45
873.483	1287.181	14267.7	13318.6
873.6274	1289.0727	14713.95	13773.9
873.7717	1290.9637	14996.85	14051.5
873.9161	1292.854	15217.2	14269.05
874.0604	1294.7435	15232.9	14284.4
874.2047	1296.6323	15177.15	14226.95
874.349	1298.5204	15053.8	14101.8
874.4933	1300.4077	14925.65	13977.95
874.6376	1302.2943	14697.9	13750.35
874.7819	1304.1802	14458.05	13511.7
874.9262	1306.0653	14051.45	13101.6
875.0705	1307.9497	13624.05	12678.25
875.2147	1309.8333	13214.45	12269.6
875.359	1311.7162	12939.85	11991.65
875.5032	1313.5984	12782.75	11828.3
875.6475	1315.4798	12649.6	11688.85
875.7917	1317.3605	12573.2	11607.05
875.9359	1319.2405	12469.85	11520.65
876.0801	1321.1197	12209.7	11258.7
876.2243	1322.9982	11942.45	10994.1
876.3685	1324.876	11694.25	10747.85
876.5127	1326.753	11453.85	10507.2
876.6569	1328.6293	11233.3	10281.45
876.801	1330.5048	11104.25	10154.35
876.9452	1332.3796	10956.35	10005.85
877.0893	1334.2537	10867.7	9896.95
877.2335	1336.127	10779.65	9829.25
877.3776	1337.9996	10758.2	9811.05
877.5217	1339.8714	10755.1	9806.6
877.6658	1341.7426	10776.75	9784.4
877.8099	1343.6129	10763.15	9812.85
877.954	1345.4826	10762	9814.8
878.0981	1347.3515	10773.75	9821.4
878.2422	1349.2196	10761.45	9811
878.3862	1351.087	10768.95	9821.05
878.5303	1352.9537	10845.2	9894.2
878.6743	1354.8197	10934.3	9987.95
878.8184	1356.6849	11124.7	10175.7
878.9624	1358.5493	11244.75	10298.2
879.1064	1360.4131	11408.2	10463.05
879.2504	1362.276	11507.05	10561.95
879.3944	1364.1383	11524.35	10577.3
879.5384	1365.9998	11334.95	10383.35
879.6823	1367.8606	10999.7	10051.05
879.8263	1369.7206	10643.65	9694.7
879.9702	1371.5799	10325.95	9378.9
880.1142	1373.4384	10077.95	9130.95
880.2581	1375.2962	9841.75	8894.7
880.402	1377.1533	9500.3	8554.45
880.5459	1379.0096	9156.2	8213.6
880.6898	1380.8652	8825.55	7884.1
880.8337	1382.7201	8545.1	7603.75
880.9776	1384.5742	8299.65	7353.4
881.1215	1386.4275	8113.8	7167.55
881.2653	1388.2802	7976.45	7031.5
881.4092	1390.132	7838.05	6891.1
881.553	1391.9832	7797.8	6850.7
881.6968	1393.8336	7696.95	6748.4
881.8406	1395.6832	7648.45	6700.8
881.9844	1397.5322	7601.9	6656.35
882.1282	1399.3803	7560	6609.2
882.272	1401.2278	7537.1	6595.5
882.4158	1403.0745	7534.5	6593.5
882.5595	1404.9204	7513.7	6573.15
882.7033	1406.7656	7535.65	6593.25
882.847	1408.6101	7566.4	6618.65
882.9908	1410.4538	7581.7	6638.15
883.1345	1412.2968	7634.55	6685.5
883.2782	1414.139	7686.75	6741.9
883.4219	1415.9805	7783.9	6838.7
883.5656	1417.8213	7832.25	6877.2
883.7092	1419.6613	7922.25	6981.45
883.8529	1421.5006	8073.3	7128.5
883.9965	1423.3391	8291.8	7351.65
884.1402	1425.1769	8570.15	7624.85
884.2838	1427.0139	9008.2	8062.65
884.4274	1428.8502	9549.35	8603.3
884.571	1430.6858	10085.2	9143.25
884.7146	1432.5206	10483.85	9541.95
884.8582	1434.3547	10693.8	9749.95
885.0018	1436.188	10724.7	9780.85
885.1453	1438.0206	10631.65	9688.2
885.2889	1439.8524	10492.4	9544.95
885.4324	1441.6835	10376.75	9435.7
885.5759	1443.5139	10301.45	9356.6
885.7194	1445.3435	10220.5	9277.85
885.8629	1447.1724	10185	9246.05
886.0064	1449.0005	10155.15	9215.4
886.1499	1450.8279	10065	9124.45
886.2933	1452.6545	10057.7	9119.7
886.4368	1454.4804	10055.25	9115.95
886.5802	1456.3056	10081.75	9137.35
886.7237	1458.13	9999.3	9063.75
886.8671	1459.9536	9842.15	8902.1
887.0105	1461.7766	9566.7	8624.25
887.1539	1463.5987	9225.3	8283.05
887.2972	1465.4202	8900.2	7961.1
887.4406	1467.2409	8540.85	7600.8
887.584	1469.0608	8293.5	7353.85
887.7273	1470.88	7989.65	7050.45
887.8706	1472.6984	7789.05	6848.75
888.0139	1474.5161	7584.05	6641.6
888.1572	1476.3331	7456.2	6517.2
888.3005	1478.1493	7313.65	6368.6
888.4438	1479.9648	7209.55	6268.45
888.5871	1481.7795	7157.85	6218.4
888.7303	1483.5935	7076.25	6136.2
888.8736	1485.4067	7040.9	6098.15
889.0168	1487.2192	6977.1	6032.1
889.16	1489.031	6944	6002.4
889.3032	1490.842	6919.5	5981.4
889.4464	1492.6522	6869.35	5928.35
889.5896	1494.4618	6826.5	5885.65
889.7327	1496.2705	6812.75	5872.75
889.8759	1498.0785	6764.65	5825.35
890.019	1499.8858	6735.45	5795.95
890.1622	1501.6924	6689.3	5750.75
890.3053	1503.4981	6643.45	5707.6
890.4484	1505.3032	6607.3	5668.25
890.5914	1507.1075	6570.05	5629.55
890.7345	1508.911	6528.25	5589.15
890.8776	1510.7138	6485.1	5543.45
891.0206	1512.5159	6451.65	5513.5
891.1637	1514.3172	6409.5	5474
891.3067	1516.1178	6364.9	5431.3
891.4497	1517.9176	6346.9	5406.6
891.5927	1519.7166	6307.45	5372.65
891.7357	1521.515	6277.4	5333.7
891.8786	1523.3126	6238.95	5302.95
892.0216	1525.1094	6208.2	5270.35
892.1645	1526.9055	6190.75	5256.75
892.3074	1528.7008	6155.15	5217.1
892.4503	1530.4954	6132.9	5200.25
892.5932	1532.2893	6115.45	5181.55
892.7361	1534.0824	6083.65	5148.4
892.879	1535.8747	6105.95	5175.25
893.0218	1537.6663	6091.35	5159.25
893.1647	1539.4572	6074.55	5140.75
893.3075	1541.2473	6101.8	5167.55
893.4503	1543.0367	6102.7	5170.25
893.5931	1544.8253	6091.85	5154
893.7359	1546.6132	6127.05	5190.75
893.8787	1548.4003	6144.8	5201.7
894.0214	1550.1867	6212.3	5273.35
894.1642	1551.9723	6266.6	5333.6
894.3069	1553.7572	6346.95	5415.9
894.4496	1555.5414	6443.65	5513.55
894.5923	1557.3247	6592.5	5667
894.735	1559.1074	6758.2	5834.05
894.8777	1560.8893	6926	5998.5
895.0204	1562.6705	7041.85	6115.4
895.163	1564.4509	7157.25	6233.6
895.3056	1566.2305	7236.85	6315.25
895.4482	1568.0094	7301.2	6382.35
895.5908	1569.7876	7265.45	6340.7
895.7334	1571.565	7278.2	6351.1
895.876	1573.3417	7256.2	6329.6
896.0186	1575.1176	7234.25	6310.05
896.1611	1576.8928	7238.65	6319.95
896.3036	1578.6672	7215.15	6299.9
896.4461	1580.4409	7213.95	6299.8
896.5886	1582.2138	7245.1	6324.4
896.7311	1583.986	7276.15	6355.85
896.8736	1585.7575	7331.15	6410.05
897.0161	1587.5282	7371.3	6452.75
897.1585	1589.2981	7488.3	6576.45
897.3009	1591.0673	7561.1	6647.3
897.4433	1592.8358	7645.75	6730.75
897.5857	1594.6035	7767.75	6848.1
897.7281	1596.3704	7852.65	6929.95
897.8705	1598.1366	7951.75	7033.85
898.0128	1599.9021	8019.3	7103.3
898.1551	1601.6668	8112.8	7193.75
898.2975	1603.4308	8263.95	7342.2
898.4398	1605.194	8438.95	7515.9
898.5821	1606.9564	8662.3	7750.9
898.7243	1608.7182	8886.35	7975.95
898.8666	1610.4791	9159.55	8256.5
899.0088	1612.2394	9449.2	8547.6
899.1511	1613.9988	9745.45	8841.3
899.2933	1615.7576	10034.7	9124.7
899.4355	1617.5156	10243.1	9319.75
899.5776	1619.2728	10317.85	9397.9
899.7198	1621.0293	10273.95	9355.75
899.862	1622.785	10095.45	9179.15
900.0041	1624.54	9785.45	8871.85
900.1462	1626.2942	9430.4	8520.95
900.2883	1628.0477	9050.85	8139.9
900.4304	1629.8005	8719.65	7805.05
900.5725	1631.5525	8413.8	7505.15
900.7145	1633.3037	8127.8	7218.05
900.8566	1635.0542	7919.2	7012.35
900.9986	1636.804	7746.55	6834.65
901.1406	1638.553	7712.7	6712.55
901.2826	1640.3013	7595.15	6682.85
901.4245	1642.0488	7525.15	6614.25
901.5665	1643.7955	7572.05	6664.85
901.7085	1645.5416	7638.1	6728
901.8504	1647.2868	7754.5	6845.25
901.9923	1649.0313	7829.45	6917.6
902.1342	1650.7751	7975.55	7060.2
902.2761	1652.5181	8142.6	7232.85
902.4179	1654.2604	8279.15	7374.1
902.5598	1656.0019	8526.4	7618.9
902.7016	1657.7427	8797.3	7889.15
902.8434	1659.4828	9081.4	8169.5
902.9852	1661.222	9236.9	8322.3
903.127	1662.9606	9181.9	8273
903.2687	1664.6984	8936.95	8022.5
903.4105	1666.4354	8534.2	7619.1
903.5522	1668.1717	7990.3	7073.95
903.6939	1669.9072	7423.85	6508.5
903.8356	1671.642	6948.3	6030.65
903.9773	1673.3761	6591.75	5678.65
904.119	1675.1094	6247.25	5334.65
904.2606	1676.8419	5995.65	5083.9
904.4022	1678.5737	5793.65	4882.8
904.5439	1680.3048	5618.05	4706
904.6855	1682.0351	5492	4577.55
904.827	1683.7646	5383.95	4468.25
904.9686	1685.4934	5291.25	4379.6
905.1101	1687.2215	5233.4	4321.65
905.2517	1688.9488	5147.35	4239.6
905.3932	1690.6754	5081.45	4172.3
905.5347	1692.4012	5037.4	4127.95
905.6761	1694.1263	4986.05	4074.25
905.8176	1695.8506	4943.85	4034.75
905.9591	1697.5742	4919.1	4011.1
906.1005	1699.297	4856.7	3953.75
906.2419	1701.0191	4807.05	3903.2
906.3833	1702.7404	4785.95	3879.35
906.5246	1704.461	4742	3831.5
906.666	1706.1808	4732.95	3825
906.8073	1707.8999	4688.4	3783.25
906.9487	1709.6182	4673.5	3772.25
907.09	1711.3358	4651.5	3750.55
907.2313	1713.0527	4610.05	3711.65
907.3725	1714.7688	4591.1	3682.6
907.5138	1716.4841	4578.95	3669.9
907.655	1718.1987	4560.5	3651.35
907.7962	1719.9126	4544.55	3644.4
907.9374	1721.6257	4517.8	3614.25
908.0786	1723.338	4503.85	3605.4
908.2198	1725.0496	4494.85	3593.8
908.3609	1726.7605	4476.25	3569.35
908.502	1728.4706	4451.35	3548.55
908.6431	1730.18	4426.55	3522.5
908.7842	1731.8886	4431.85	3531.1
908.9253	1733.5964	4434.1	3509.3
909.0664	1735.3036	4396.1	3492.8
909.2074	1737.0099	4390.3	3490.2
909.3484	1738.7156	4350.55	3450.7
909.4894	1740.4204	4318.7	3415.75
909.6304	1742.1246	4302.45	3400.8
909.7714	1743.8279	4287.65	3385.45
909.9123	1745.5306	4279.25	3377.95
910.0532	1747.2325	4243	3343.95
910.1941	1748.9336	4238.05	3336.9
910.335	1750.634	4209.2	3305.15
910.4759	1752.3336	4202	3299.9
910.6168	1754.0325	4181.95	3285.15
910.7576	1755.7307	4179.85	3280.7
910.8984	1757.4281	4174.6	3273.45
911.0392	1759.1247	4181.55	3269.8
911.18	1760.8206	4166.8	3255
911.3208	1762.5158	4167.65	3260.4
911.4615	1764.2102	4131.45	3228.7
911.6022	1765.9039	4106.3	3206.6
911.7429	1767.5968	4096.2	3199.15
911.8836	1769.289	4106.15	3207.3
912.0243	1770.9804	4080.7	3178.7
912.1649	1772.6711	4078	3170.05
912.3056	1774.361	4072.8	3165.75
912.4462	1776.0502	4075.15	3169.85
912.5868	1777.7386	4057.65	3154.85
912.7274	1779.4263	4041.7	3138.25
912.8679	1781.1132	4034.3	3135.8
913.0084	1782.7994	4018.35	3117.5
913.149	1784.4849	4002.7	3105.6
913.2895	1786.1696	4010.95	3094.4
913.4299	1787.8535	4007.15	3111.9
913.5704	1789.5367	3987.15	3091.55
913.7108	1791.2192	3989.65	3092.4
913.8513	1792.9009	3986.75	3060.65
913.9917	1794.5818	3966.25	3065.3
914.132	1796.2621	3943.95	3042.85
914.2724	1797.9415	3940.2	3039.05
914.4128	1799.6202	3924.55	3022.3
914.5531	1801.2982	3933.9	3033.75
914.6934	1802.9755	3926.45	3024.85
914.8337	1804.6519	3927.45	3025.05
914.9739	1806.3277	3906.95	3007.8
915.1142	1808.0027	3875.6	2980.25
915.2544	1809.6769	3876.1	2983.55
915.3946	1811.3504	3868.45	2973.6
915.5348	1813.0231	3854.65	2958.45
915.675	1814.6951	3852.9	2958.2
915.8151	1816.3664	3863.05	2961.1
915.9553	1818.0369	3855.45	2956.05
916.0954	1819.7067	3848.1	2949.3
916.2355	1821.3757	3828	2926.35
916.3755	1823.044	3842.75	2939.25
916.5156	1824.7115	3826.45	2923.95
916.6556	1826.3783	3816.85	2916.05
916.7956	1828.0443	3803.25	2904.15
916.9356	1829.7096	3809.35	2909.3
917.0756	1831.3741	3795.7	2892.1
917.2155	1833.0379	3788.5	2891.5
917.3555	1834.701	3776.85	2878.6
917.4954	1836.3633	3770.85	2876.8
917.6353	1838.0248	3756.35	2858.95
917.7751	1839.6856	3758.8	2862
917.915	1841.3457	3752.2	2853.6
918.0548	1843.005	3752.3	2850.25
918.1946	1844.6636	3746.45	2848.5
918.3344	1846.3214	3747.65	2847.65
918.4742	1847.9785	3723.85	2826.6
918.6139	1849.6349	3722.3	2821.15
918.7537	1851.2904	3739.95	2827.35
918.8934	1852.9453	3727.15	2824.35
919.0331	1854.5994	3705.1	2803.6
919.1727	1856.2528	3713.2	2808.3
919.3124	1857.9054	3689.9	2791.4
919.452	1859.5572	3690.9	2792.7
919.5916	1861.2083	3687.15	2787.6
919.7312	1862.8587	3679.85	2778.9
919.8708	1864.5084	3679.9	2773.9
920.0103	1866.1572	3663.9	2762.85
920.1498	1867.8054	3662.7	2760.1
920.2893	1869.4528	3645.5	2743.2
920.4288	1871.0994	3644.4	2739.25
920.5683	1872.7453	3636.35	2736.75
920.7077	1874.3905	3637.1	2731.45
920.8471	1876.0349	3629.75	2729.2
920.9865	1877.6786	3608.65	2708.15
921.1259	1879.3215	3612.55	2712.4
921.2653	1880.9637	3610.25	2709.7
921.4046	1882.6051	3598.35	2699.8
921.5439	1884.2458	3597.15	2694.7
921.6832	1885.8858	3576.65	2678
921.8225	1887.525	3577.65	2676.9
921.9617	1889.1634	3566.95	2664.05
922.101	1890.8011	3556.5	2653.15
922.2402	1892.4381	3541.35	2641.45
922.3794	1894.0743	3537.3	2637.15
922.5185	1895.7098	3519.6	2621.9
922.6577	1897.3446	3517.1	2616.65
922.7968	1898.9786	3519.8	2614.55
922.9359	1900.6118	3511.15	2614.6
923.075	1902.2443	3494.6	2597.65
923.214	1903.8761	3500.55	2601.35
923.3531	1905.5071	3485.05	2583.4
923.4921	1907.1374	3489.3	2590.9
923.6311	1908.7669	3463.45	2566
923.77	1910.3957	3473.2	2575.65
923.909	1912.0237	3450.85	2555.1
924.0479	1913.651	3443.95	2544.2
924.1868	1915.2776	3449.05	2552.6
924.3257	1916.9034	3420.05	2524.4
924.4646	1918.5285	3417.05	2521.55
924.6034	1920.1528	3403.25	2502.5
924.7422	1921.7764	3410.45	2513.65
924.881	1923.3992	3401.05	2506.65
925.0198	1925.0213	3372.35	2474.65
925.1586	1926.6427	3382.75	2485.2
925.2973	1928.2633	3447.75	2471.6
925.436	1929.8832	3376.2	2476.25
925.5747	1931.5023	3354.9	2456.65
925.7134	1933.1207	3342.6	2444.85
925.852	1934.7383	3345.2	2446.35
925.9906	1936.3552	3324.8	2427.45
926.1292	1937.9714	3309.3	2413.4
926.2678	1939.5868	3314.4	2412.35
926.4064	1941.2015	3304.2	2406.95
926.5449	1942.8154	3284.2	2384.8
926.6834	1944.4286	3287.85	2388.85
926.8219	1946.041	3287.2	2368.95
926.9604	1947.6528	3271.45	2369.7
927.0988	1949.2637	3259.15	2360.9
927.2372	1950.8739	3244.9	2346.5
927.3756	1952.4834	3243.6	2345.2
927.514	1954.0921	3232.5	2333.85
927.6523	1955.7001	3221.55	2320.4
927.7907	1957.3074	3224.35	2330.75
927.929	1958.9139	3202.85	2309.05
928.0673	1960.5197	3195.05	2299
928.2055	1962.1247	3197.1	2304.1
928.3438	1963.729	3162.25	2269
928.482	1965.3325	3172.3	2274.1
928.6202	1966.9353	3162.8	2271.4
928.7584	1968.5374	3152.35	2258.8
928.8965	1970.1387	3157.65	2262.8
929.0346	1971.7393	3144.15	2249
929.1727	1973.3392	3127.7	2236.6
929.3108	1974.9383	3113.45	2220.4
929.4489	1976.5366	3103.35	2210.9
929.5869	1978.1342	3105.85	2215.65
929.7249	1979.7311	3101.5	2209.7
929.8629	1981.3273	3102.3	2212.75
930.0009	1982.9227	3089.95	2199.55
930.1388	1984.5173	3075.15	2187.55
930.2767	1986.1112	3066.55	2177.15
930.4146	1987.7044	3059.4	2168.35
930.5525	1989.2968	3049.9	2158.8
930.6904	1990.8885	3061.7	2168.05
930.8282	1992.4795	3051.9	2161.95
930.966	1994.0697	3040.85	2151.6
931.1038	1995.6592	3031.1	2139.95
931.2415	1997.2479	3018.55	2126.75
931.3793	1998.8359	3024.2	2137.5
931.517	2000.4232	3012.9	2126.25
931.6547	2002.0097	2997.65	2115.3
931.7923	2003.5955	2995.15	2110.15
931.93	2005.1805	3005.5	2117.1
932.0676	2006.7648	2989.35	2104.3
932.2052	2008.3484	2990.15	2103.2
932.3427	2009.9312	2978.8	2093.35
932.4803	2011.5133	2972.45	2089.4
932.6178	2013.0946	2958.45	2074.3
932.7553	2014.6752	2955.55	2070.05
932.8928	2016.2551	2956.9	2068.75
933.0302	2017.8342	2946.25	2061.2
933.1676	2019.4126	2941.3	2056.3
933.305	2020.9902	2933.55	2049.95
933.4424	2022.5672	2920.4	2035.95
933.5798	2024.1433	2928	2037.85
933.7171	2025.7188	2898.55	2016.9
933.8544	2027.2935	2909.55	2026.95
933.9917	2028.8674	2902.55	2020.5
934.129	2030.4406	2884	2005.9
934.2662	2032.0131	2883.6	2002.5
934.4034	2033.5849	2881.1	1999
934.5406	2035.1559	2888.95	2009.05
934.6778	2036.7261	2874.95	1989.3
934.8149	2038.2957	2874.05	1983.9
934.952	2039.8645	2859.9	1970.35
935.0891	2041.4325	2879.3	1988.9
935.2262	2042.9998	2851.4	1967.25
935.3632	2044.5664	2854.15	1969.9
935.5002	2046.1323	2845.35	1963.9
935.6372	2047.6974	2834.85	1954
935.7742	2049.2617	2836.85	1954.9
935.9111	2050.8254	2850.6	1944.8
936.048	2052.3883	2823.9	1934.85
936.1849	2053.9504	2836.75	1948.7
936.3218	2055.5118	2809.6	1922.05
936.4586	2057.0725	2806.65	1916.35
936.5955	2058.6325	2797.25	1911.1
936.7323	2060.1917	2792.65	1905.9
936.869	2061.7502	2802.15	1915.95
937.0058	2063.3079	2793.55	1910.85
937.1425	2064.8649	2792.85	1907.2
937.2792	2066.4212	2776.65	1892.3
937.4159	2067.9767	2765.3	1878.4
937.5525	2069.5315	2763.6	1876.9
937.6891	2071.0856	2746.75	1863
937.8257	2072.6389	2744.65	1859.2
937.9623	2074.1915	2738.85	1859.35
938.0989	2075.7433	2726.35	1840.75
938.2354	2077.2945	2730.05	1845.5
938.3719	2078.8448	2717.95	1831.35
938.5084	2080.3945	2718.25	1828.45
938.6448	2081.9434	2717.6	1828.95
938.7812	2083.4916	2711.8	1820.75
938.9176	2085.039	2711.6	1815.85
939.054	2086.5857	2703.9	1805.5
939.1903	2088.1317	2701.05	1805.55
939.3267	2089.677	2695.5	1799.85
939.463	2091.2215	2698.35	1802.45
939.5992	2092.7652	2678.65	1782.9
939.7355	2094.3083	2684.75	1790.9
939.8717	2095.8506	2674.15	1782.2
940.0079	2097.3921	2672.7	1785.3
940.1441	2098.933	2658.2	1768.55
940.2802	2100.4731	2662.65	1768.6
940.4163	2102.0124	2672.8	1764.4
940.5524	2103.5511	2663.1	1772.95
940.6885	2105.089	2653.95	1760.1
940.8245	2106.6261	2647.3	1756.95
940.9606	2108.1626	2642.1	1751.4
941.0965	2109.6983	2664.2	1745.3
941.2325	2111.2332	2639.55	1749.1
941.3684	2112.7675	2631	1739.7
941.5044	2114.301	2627.4	1732.65
941.6403	2115.8337	2615.85	1723.25
941.7761	2117.3657	2617.15	1726.25
941.912	2118.897	2610.4	1715.3
942.0478	2120.4276	2615.35	1716.75
942.1835	2121.9575	2596.35	1703.8
942.3193	2123.4866	2606.1	1710.75
942.455	2125.0149	2591.15	1697.85
942.5907	2126.5426	2588.9	1701.4
942.7264	2128.0695	2573.85	1680.95
942.8621	2129.5956	2563.75	1681.1
942.9977	2131.1211	2564.75	1672.75
943.1333	2132.6458	2565.75	1677.45
943.2689	2134.1698	2567.35	1677.25
943.4044	2135.693	2566.55	1669.95
943.54	2137.2155	2553.05	1657.5
943.6755	2138.7373	2539.05	1648.5
943.8109	2140.2584	2547.2	1659.8
943.9464	2141.7787	2532.4	1643
944.0818	2143.2983	2529.3	1646
944.2172	2144.8171	2513.55	1631.95
944.3526	2146.3353	2520.65	1632.05
944.4879	2147.8527	2524.2	1638.25
944.6232	2149.3693	2528.55	1635.2
944.7585	2150.8853	2515.65	1620.3
944.8938	2152.4005	2510.3	1615.3
945.029	2153.9149	2496.6	1602.85
945.1642	2155.4287	2503	1613.15
945.2994	2156.9417	2494.15	1602.9
945.4346	2158.454	2497.7	1606.05
945.5697	2159.9655	2488.65	1600.8
945.7048	2161.4764	2473.05	1584.35
945.8399	2162.9865	2465.8	1575.9
945.9749	2164.4958	2462.95	1574.75
946.1099	2166.0045	2458.75	1567.05
946.2449	2167.5124	2461.7	1572.05
946.3799	2169.0195	2453.3	1560.25
946.5148	2170.526	2459.85	1567.8
946.6498	2172.0317	2460	1569.45
946.7846	2173.5367	2446.45	1555.35
946.9195	2175.0409	2441.05	1550.85
947.0543	2176.5445	2440.95	1549.55
947.1891	2178.0473	2432.7	1539.35
947.3239	2179.5494	2417.95	1521.2
947.4587	2181.0507	2423.3	1532.25
947.5934	2182.5513	2420.2	1529.6
947.7281	2184.0512	2410.05	1519.1
947.8628	2185.5504	2416.7	1527.05
947.9974	2187.0488	2400.65	1511.95
948.132	2188.5465	2390.45	1503.25
948.2666	2190.0435	2389.35	1499.1
948.4012	2191.5397	2395.65	1504.1
948.5357	2193.0353	2397.9	1503.2
948.6702	2194.5301	2381.2	1485.45
948.8047	2196.0241	2382.55	1486.2
948.9392	2197.5175	2384.75	1487.55
949.0736	2199.0101	2382.45	1482.2
949.208	2200.502	2371.2	1480.4
949.3424	2201.9931	2365.95	1477.85
949.4767	2203.4835	2359.6	1471.6
949.611	2204.9733	2358.5	1452.75
949.7453	2206.4622	2344.15	1456.5
949.8796	2207.9505	2340.15	1451.7
950.0138	2209.438	2328.15	1445.05
950.148	2210.9248	2332.8	1447.05
950.2822	2212.4109	2326.75	1435.05
950.4164	2213.8962	2329.2	1433.85
950.5505	2215.3809	2314.35	1414.55
950.6846	2216.8648	2327.35	1428.8
950.8186	2218.3479	2321.75	1419.6
950.9527	2219.8304	2314.7	1413.15
951.0867	2221.3121	2304.05	1406.3
951.2207	2222.7931	2302.65	1405.75
951.3546	2224.2733	2299.65	1405.45
951.4886	2225.7529	2284.95	1393.8
951.6225	2227.2317	2281.8	1389.7
951.7563	2228.7098	2284.55	1398.45
951.8902	2230.1872	2275.55	1387.85
952.024	2231.6638	2262.95	1377
952.1578	2233.1397	2254.1	1363.05
952.2916	2234.6149	2253.5	1364.5
952.4253	2236.0894	2261.45	1371.65
952.559	2237.5632	2264.35	1364
952.6927	2239.0362	2245.3	1354.4
952.8263	2240.5085	2251.6	1362.35
952.9599	2241.9801	2244.45	1352.5
953.0935	2243.4509	2228	1336
953.2271	2244.921	2241.35	1347.45
953.3606	2246.3904	2222.65	1325
953.4941	2247.8591	2219.6	1327.7
953.6276	2249.3271	2219.95	1326.45
953.7611	2250.7943	2212.7	1317.95
953.8945	2252.2608	2207.7	1312.65
954.0279	2253.7266	2194.4	1299.4
954.1612	2255.1917	2203.2	1311.55
954.2946	2256.656	2189.3	1298.4
954.4279	2258.1197	2182.15	1294.05
954.5612	2259.5826	2183.75	1294.4
954.6944	2261.0447	2184.65	1290.45
954.8276	2262.5062	2186.2	1290.2
954.9608	2263.9669	2179.4	1283.3
955.094	2265.4269	2182.5	1291.65
955.2271	2266.8862	2167.05	1276.7
955.3602	2268.3448	2158.5	1269.65
955.4933	2269.8026	2160.6	1270.05
955.6264	2271.2598	2156.2	1267.55
955.7594	2272.7162	2161.3	1273.1
955.8924	2274.1719	2154.25	1260.7
956.0253	2275.6268	2155.95	1261.75
956.1583	2277.0811	2147.65	1252.3
956.2912	2278.5346	2149.3	1259.2
956.4241	2279.9874	2139.4	1250.75
956.5569	2281.4395	2135.9	1245.7
956.6897	2282.8908	2146.75	1250.8
956.8225	2284.3414	2135.3	1244
956.9553	2285.7914	2131.25	1240.3
957.088	2287.2406	2124.6	1230.3
957.2207	2288.689	2126.7	1229.65
957.3534	2290.1368	2128.95	1231.8
957.486	2291.5838	2125.4	1223.75
957.6186	2293.0302	2131.75	1232.65
957.7512	2294.4758	2112.3	1216.65
957.8838	2295.9206	2110.75	1217.5
958.0163	2297.3648	2094.15	1202.7
958.1488	2298.8082	2108.45	1216.4
958.2813	2300.251	2102.6	1209.9
958.4137	2301.693	2092.8	1193.2
958.5461	2303.1343	2096	1202.15
958.6785	2304.5748	2087.9	1195.15
958.8108	2306.0147	2089.4	1197.65
958.9432	2307.4538	2085.05	1196.8
959.0754	2308.8922	2074.65	1189.8
959.2077	2310.3299	2074.7	1186.55
959.3399	2311.7669	2069	1178.2
959.4721	2313.2031	2069.55	1177.2
959.6043	2314.6387	2067.15	1172.9
959.7365	2316.0735	2060.35	1166.65
959.8686	2317.5076	2064.45	1171.8
960.0006	2318.941	2059.15	1164.75
960.1327	2320.3737	2053.25	1155.65
960.2647	2321.8056	2058.25	1161.25
960.3967	2323.2369	2044.7	1149.85
960.5287	2324.6674	2051.8	1156
960.6606	2326.0972	2042.15	1148.7
960.7925	2327.5263	2038.1	1145.75
960.9244	2328.9547	2033.4	1137.5
961.0562	2330.3823	2037.85	1140.7
961.1881	2331.8092	2029.05	1129.1
961.3198	2333.2355	2016.2	1118.7
961.4516	2334.661	2027.25	1131.65
961.5833	2336.0858	2016.95	1120.9
961.715	2337.5098	2029.3	1132
961.8467	2338.9332	2019.1	1124.1
961.9783	2340.3558	2010.75	1112.85
962.1099	2341.7778	2015.7	1123.9
962.2415	2343.199	2007.65	1114.85
962.373	2344.6195	2006.3	1114.2
962.5045	2346.0393	1994.1	1103.1
962.636	2347.4583	1994.7	1103.5
962.7675	2348.8767	1981.25	1085.75
962.8989	2350.2943	1999.15	1102.35
963.0303	2351.7113	1994.85	1096
963.1617	2353.1275	1999.4	1101.2
963.293	2354.543	2002.2	1100.05
963.4243	2355.9578	1998.8	1104.55
963.5556	2357.3718	1981.05	1090
963.6868	2358.7852	1974.05	1079.4
963.818	2360.1978	1969.25	1077.35
963.9492	2361.6098	1964.9	1075.15
964.0803	2363.021	1977.05	1079.75
964.2114	2364.4315	1961.9	1069.15
964.3425	2365.8413	1961.5	1066.55
964.4736	2367.2504	1963.65	1071.9
964.6046	2368.6587	1948.15	1058.05
964.7356	2370.0664	1949.45	1059.35
964.8666	2371.4733	1943	1049.65
964.9975	2372.8795	1950.25	1057.65
965.1284	2374.285	1936.7	1043.5
965.2593	2375.6899	1943.15	1051
965.3901	2377.0939	1934.35	1041.7
965.5209	2378.4973	1918.35	1026.75
965.6517	2379.9	1921.9	1029.6
965.7825	2381.3019	1917.15	1025.8
965.9132	2382.7032	1923.2	1035.6
966.0439	2384.1037	1914	1025.65
966.1745	2385.5035	1911.8	1025.15
966.3051	2386.9027	1903.9	1015.2
966.4357	2388.3011	1908.6	1015.75
966.5663	2389.6987	1902.25	1010.55
966.6968	2391.0957	1895.05	1004.6
966.8273	2392.492	1890.85	1000.5
966.9578	2393.8876	1872	981.6
967.0882	2395.2824	1889.2	998.25
967.2186	2396.6765	1884.15	993.75
967.349	2398.07	1874.6	983.15
967.4793	2399.4627	1875.85	981
967.6097	2400.8547	1876.5	982.65
967.7399	2402.246	1882.3	984.7
967.8702	2403.6366	1865.5	973.85
968.0004	2405.0265	1863.15	974.95
968.1306	2406.4156	1862.15	969.55
968.2607	2407.8041	1858.1	964
968.3909	2409.1918	1862.05	967.6
968.521	2410.5789	1855.2	959.45
968.651	2411.9652	1845.7	950.55
968.781	2413.3508	1849.2	956.6
968.911	2414.7358	1846.85	951
969.041	2416.12	1845.2	954.25
969.1709	2417.5035	1843.35	951.6
969.3008	2418.8863	1835.4	942.1
969.4307	2420.2684	1836.1	944.2
969.5606	2421.6497	1836.35	942.4
969.6904	2423.0304	1832.35	938.8
969.8201	2424.4104	1824.05	931.05
969.9499	2425.7896	1820.4	927.25
970.0796	2427.1682	1809	919.35
970.2093	2428.546	1818.95	927.6
970.3389	2429.9232	1807.6	914.75
970.4685	2431.2996	1807.9	915.9
970.5981	2432.6753	1807.55	915.55
970.7277	2434.0503	1807.25	912.6
970.8572	2435.4246	1804.9	914.45
970.9867	2436.7982	1801.55	904.35
971.1161	2438.1711	1803.65	911.9
971.2456	2439.5433	1800.95	909
971.375	2440.9148	1796.3	897.8
971.5043	2442.2856	1788.3	894.2
971.6336	2443.6557	1777.95	882.9
971.7629	2445.025	1783.7	891.2
971.8922	2446.3937	1777.5	884.25
972.0214	2447.7617	1768.85	873.9
972.1506	2449.1289	1779.3	888.3
972.2798	2450.4955	1778.45	881.7
972.4089	2451.8613	1769.65	878.4
972.538	2453.2265	1764.25	872.6
972.6671	2454.5909	1765.7	872.55
972.7961	2455.9546	1768.8	877.4
972.9251	2457.3177	1750.9	857.15
973.0541	2458.68	1761.55	865.85
973.1831	2460.0416	1757.05	866.65
973.312	2461.4025	1761.6	869.8
973.4408	2462.7627	1760.85	860.6
973.5697	2464.1222	1748.4	860.1
973.6985	2465.4811	1750.7	859.25
973.8273	2466.8392	1750.7	857.05
973.956	2468.1966	1748.4	856.6
974.0847	2469.5533	1749.4	855.7
974.2134	2470.9093	1746.6	854.4
974.3421	2472.2645	1745.1	856.8
974.4707	2473.6191	1734.85	844
974.5993	2474.973	1730.75	840.15
974.7278	2476.3262	1744.35	851.55
974.8563	2477.6787	1727.05	834.1
974.9848	2479.0305	1726.75	835.85
975.1132	2480.3816	1730.6	836.25
975.2417	2481.7319	1728.05	838.6
975.37	2483.0816	1734.6	841.55
975.4984	2484.4306	1720.85	829.2
975.6267	2485.7789	1713.85	823.9
975.755	2487.1264	1716.05	825.55
975.8833	2488.4733	1705.45	814.9
976.0115	2489.8195	1712.55	814.15
976.1397	2491.165	1712.7	818.6
976.2678	2492.5097	1702.6	809.4
976.3959	2493.8538	1698.95	807.4
976.524	2495.1972	1692.75	800.95
976.6521	2496.5398	1696.4	802.35
976.7801	2497.8818	1705.5	813.35
976.9081	2499.2231	1689.7	795.35
977.036	2500.5637	1683.75	787.1
977.164	2501.9035	1681	785.7
977.2918	2503.2427	1684.85	788.1
977.4197	2504.5812	1674.9	781.6
977.5475	2505.919	1680.05	784.45
977.6753	2507.256	1671.8	780.65
977.8031	2508.5924	1672.85	782.15
977.9308	2509.9281	1678.8	780.85
978.0585	2511.2631	1678.35	787.4
978.1861	2512.5974	1669.7	777.85
978.3137	2513.9309	1665.5	774.7
978.4413	2515.2638	1685.4	764.6
978.5689	2516.596	1659.85	767.45
978.6964	2517.9275	1655.85	762.8
978.8239	2519.2583	1661.85	770.35
978.9513	2520.5884	1645.95	753.95
979.0788	2521.9178	1650.2	759
979.2062	2523.2465	1645.25	755.1
979.3335	2524.5745	1648.8	757.05
979.4608	2525.9018	1645.35	753.1
979.5881	2527.2284	1643.75	750.4
979.7154	2528.5543	1642.55	752.55
979.8426	2529.8796	1646.2	754.15
979.9698	2531.2041	1645.3	754.6
980.0969	2532.5279	1639.65	749.3
980.224	2533.851	1636.95	745.85
980.3511	2535.1735	1637.8	746.05
980.4781	2536.4952	1629.35	738.05
980.6052	2537.8163	1634.1	739.65
980.7321	2539.1366	1633.25	738.6
980.8591	2540.4562	1629.05	733.7
980.986	2541.7752	1632.85	738.3
981.1129	2543.0935	1630.95	737.2
981.2397	2544.411	1625.2	732
981.3665	2545.7279	1629.7	737.1
981.4933	2547.0441	1625.55	735
981.62	2548.3596	1628.65	732.2
981.7467	2549.6744	1616.85	724
981.8734	2550.9885	1622.25	726
982.0001	2552.3019	1619.6	728.45
982.1267	2553.6146	1619.15	725.4
982.2532	2554.9266	1624.2	731.05
982.3798	2556.2379	1608.3	717.05
982.5063	2557.5485	1604.75	716.7
982.6327	2558.8585	1622.1	723.4
982.7592	2560.1677	1614.85	717.8
982.8856	2561.4762	1607.25	713.75
983.0119	2562.7841	1602.2	704.4
983.1383	2564.0913	1601.25	711.8
983.2646	2565.3977	1603.9	713.15
983.3908	2566.7035	1600.3	709.15
983.517	2568.0086	1600.3	706.7
983.6432	2569.313	1600.6	709.15
983.7694	2570.6167	1612.2	714.3
983.8955	2571.9197	1602.7	709.8
984.0216	2573.222	1594.45	697.25
984.1476	2574.5236	1592.5	697.25
984.2737	2575.8246	1599.5	704.05
984.3996	2577.1248	1595.75	700.35
984.5256	2578.4244	1592.45	698.8
984.6515	2579.7232	1598.4	707.15
984.7774	2581.0214	1611.05	694
984.9032	2582.3189	1601.9	708.8
985.029	2583.6157	1590.35	695.2
985.1548	2584.9118	1592.55	698.55
985.2806	2586.2072	1594.2	701.45
985.4063	2587.5019	1590.95	698.9
985.5319	2588.7959	1586.9	692.05
985.6576	2590.0893	1593.75	697.7
985.7832	2591.3819	1589.45	696.55
985.9087	2592.6739	1585.9	693.6
986.0343	2593.9652	1587.4	693.75
986.1597	2595.2557	1593.5	701.75
986.2852	2596.5456	1590.9	695.65
986.4106	2597.8348	1580.9	690.05
986.536	2599.1234	1580.8	688.85
986.6614	2600.4112	1586.85	692.2
986.7867	2601.6983	1586.7	689.55
986.912	2602.9848	1578.05	687.55
987.0372	2604.2705	1591.85	691.6
987.1624	2605.5556	1579.9	689.3
987.2876	2606.84	1586.2	695.15
987.4128	2608.1237	1579.4	686.75
987.5379	2609.4067	1569.75	677
987.6629	2610.689	1582.3	683.1
987.788	2611.9707	1575.8	682.55
987.913	2613.2516	1567.15	674.1
988.0379	2614.5319	1561.05	670.7
988.1629	2615.8115	1557.15	664.8
988.2878	2617.0903	1553.3	660.85
988.4126	2618.3685	1556.9	664.7
988.5375	2619.6461	1549.3	659.25
988.6622	2620.9229	1546.7	655.7
988.787	2622.199	1553.95	663.3
988.9117	2623.4745	1550.5	657.9
989.0364	2624.7493	1549.1	658.1
989.161	2626.0234	1545.65	655.55
989.2857	2627.2968	1551.7	661.45
989.4102	2628.5695	1543.95	654.25
989.5348	2629.8415	1534.4	644.2
989.6593	2631.1128	1542.5	652
989.7837	2632.3835	1542.55	654.15
989.9082	2633.6535	1539.45	650.75
990.0326	2634.9228	1531.5	641.7
990.1569	2636.1914	1525.75	637
990.2812	2637.4593	1536.95	644.9
990.4055	2638.7265	1531.1	639.4
990.5298	2639.9931	1526.4	637.65
990.654	2641.259	1531.1	641.15
990.7782	2642.5242	1534.9	643.95
990.9023	2643.7887	1525.35	636.2
991.0264	2645.0525	1525.05	636.45
991.1505	2646.3156	1522.25	629.7
991.2745	2647.5781	1518.1	629.4
991.3985	2648.8398	1512.95	623.5
991.5225	2650.1009	1550.8	625.4
991.6464	2651.3613	1523.5	633.65
991.7703	2652.6211	1521.15	631.1
991.8942	2653.8801	1515.85	627.25
992.018	2655.1385	1507.75	615.25
992.1418	2656.3961	1506.9	619.65
992.2655	2657.6531	1505.1	615.45
992.3892	2658.9094	1508.7	619.05
992.5129	2660.1651	1515.7	625.25
992.6366	2661.42	1512.15	623
992.7602	2662.6743	1513.75	621.7
992.8837	2663.9279	1515.55	624.45
993.0073	2665.1808	1508.1	617.8
993.1307	2666.433	1514.9	623.95
993.2542	2667.6846	1521.35	632.6
993.3776	2668.9354	1518.95	625.1
993.501	2670.1856	1525.1	634.25
993.6244	2671.4351	1521.9	633.05
993.7477	2672.6839	1530.3	639.05
993.8709	2673.9321	1516.4	627.4
993.9942	2675.1795	1525.3	634.9
994.1174	2676.4263	1529.85	640.95
994.2405	2677.6724	1530.35	643.35
994.3637	2678.9179	1533.15	644.4
994.4868	2680.1626	1536.5	646.95
994.6098	2681.4067	1523.2	633
994.7328	2682.6501	1524.8	634.05
994.8558	2683.8928	1517.75	628.6
994.9788	2685.1348	1518.7	630.3
995.1017	2686.3761	1511.65	623.5
995.2245	2687.6168	1505.3	613.35
995.3474	2688.8568	1506.8	619.2
995.4702	2690.0961	1501.6	614.4
995.5929	2691.3348	1511.1	620.05
995.7156	2692.5727	1498.95	607.35
995.8383	2693.81	1497.65	608.9
995.961	2695.0466	1500.35	612.9
996.0836	2696.2826	1500.45	608.4
996.2062	2697.5178	1495.75	600.25
996.3287	2698.7524	1502.3	614.15
996.4512	2699.9863	1493.85	603.05
996.5737	2701.2195	1498.25	610.35
996.6961	2702.452	1503.75	614.25
996.8185	2703.6839	1505.3	614.25
996.9408	2704.9151	1510.9	620.9
997.0631	2706.1456	1512.15	623.7
997.1854	2707.3755	1519.2	628.25
997.3077	2708.6046	1524.55	632.8
997.4299	2709.8331	1536.1	645.4
997.552	2711.0609	1532.95	645.25
997.6742	2712.2881	1544.6	656.8
997.7963	2713.5145	1549.6	658.5
997.9183	2714.7403	1558.3	669.75
998.0403	2715.9654	1560.5	669.45
998.1623	2717.1899	1578.85	673.8
998.2842	2718.4136	1589.1	701.25
998.4062	2719.6367	1597.25	709.4
998.528	2720.8591	1617.25	721.2
998.6498	2722.0809	1617.95	730.05
998.7716	2723.3019	1634.8	742.25
998.8934	2724.5223	1635.2	744.5
999.0151	2725.7421	1634.55	744.55
999.1368	2726.9611	1646.4	755.95
999.2584	2728.1795	1635.9	744.25
999.38	2729.3972	1635.8	747.6
999.5016	2730.6142	1639.15	736.2
999.6231	2731.8306	1608.65	716.95
999.7446	2733.0462	1595.75	705.3
999.8661	2734.2612	1580.75	687.65
999.9875	2735.4756	1557.95	669.25
1000.1089	2736.6892	1546.1	655.25
1000.2302	2737.9022	1538.35	652.25
1000.3515	2739.1145	1516.7	627.45
1000.4728	2740.3262	1517.5	621.2
1000.594	2741.5372	1493.8	604.9
1000.7152	2742.7475	1493.65	605.45
1000.8363	2743.9571	1483.5	593.15
1000.9575	2745.1661	1474.8	581.55
1001.0785	2746.3744	1468.95	579.3
1001.1996	2747.582	1449.4	560
1001.3206	2748.7889	1442.5	551.5
1001.4415	2749.9952	1435.1	547.45
1001.5625	2751.2008	1435.55	547.4
1001.6833	2752.4057	1430.1	537.9
1001.8042	2753.61	1423.05	534.75
1001.925	2754.8136	1430.15	540.3
1002.0458	2756.0165	1419.75	531.05
1002.1665	2757.2188	1414.7	528.75
1002.2872	2758.4204	1419.9	532.85
1002.4078	2759.6213	1417.05	527.15
1002.5285	2760.8215	1433.9	542
1002.649	2762.0211	1417	527.25
1002.7696	2763.22	1419.7	528.15
1002.8901	2764.4182	1411.55	524.4
1003.0106	2765.6158	1408.15	520.3
1003.131	2766.8127	1404.7	517.75
1003.2514	2768.009	1407.3	522.05
1003.3717	2769.2045	1399.1	510.7
1003.492	2770.3994	1394.35	503.5
1003.6123	2771.5936	1397.2	509.9
1003.7325	2772.7872	1385.9	497.75
1003.8527	2773.9801	1389.4	498.6
1003.9729	2775.1723	1404.4	499.4
1004.093	2776.3639	1386.05	500.6
1004.2131	2777.5548	1386.2	497.2
1004.3331	2778.745	1382.6	494.8
1004.4531	2779.9346	1379.15	492.55
1004.5731	2781.1235	1390	502.8
1004.693	2782.3117	1389.95	501.9
1004.8129	2783.4992	1384.1	497.95
1004.9328	2784.6861	1386.1	500.15
1005.0526	2785.8723	1401.1	512.65
1005.1723	2787.0579	1397.25	509.2
1005.2921	2788.2428	1405.65	518.5
1005.4118	2789.427	1406.7	520.2
1005.5314	2790.6106	1415.9	531
1005.651	2791.7935	1429.6	541.95
1005.7706	2792.9757	1430.9	544.95
1005.8902	2794.1573	1441.8	552.6
1006.0097	2795.3382	1444.35	556.9
1006.1291	2796.5184	1449.8	564.25
1006.2485	2797.698	1466.6	578.2
1006.3679	2798.8769	1471.9	585
1006.4873	2800.0551	1489.8	604.35
1006.6066	2801.2327	1502.15	610.65
1006.7258	2802.4096	1513.5	628.65
1006.8451	2803.5859	1529.4	642
1006.9642	2804.7615	1542.95	656.15
1007.0834	2805.9364	1565.5	681.85
1007.2025	2807.1106	1586.5	700.05
1007.3216	2808.2842	1609.15	723.15
1007.4406	2809.4572	1629.15	743.55
1007.5596	2810.6294	1671.95	786.3
1007.6785	2811.801	1694	809.8
1007.7975	2812.972	1736.25	851.75
1007.9163	2814.1423	1772.2	885.4
1008.0352	2815.3119	1816.1	930.55
1008.154	2816.4808	1854.7	966.85
1008.2727	2817.6491	1912.7	1023.7
1008.3914	2818.8167	1950.6	1064.8
1008.5101	2819.9837	2016.1	1125.85
1008.6288	2821.15	2065.15	1178.7
1008.7474	2822.3157	2120.25	1237.1
1008.8659	2823.4807	2174.2	1288.5
1008.9844	2824.645	2231.8	1344.5
1009.1029	2825.8086	2277.8	1393
1009.2214	2826.9716	2339.3	1454.65
1009.3398	2828.134	2385.1	1498.25
1009.4581	2829.2957	2437.3	1550.05
1009.5764	2830.4567	2464.35	1579.25
1009.6947	2831.617	2495.25	1610.9
1009.813	2832.7767	2517.85	1631.6
1009.9312	2833.9358	2507.05	1623.8
1010.0493	2835.0941	2493.65	1605.3
1010.1675	2836.2519	2488.75	1603.65
1010.2855	2837.4089	2467.3	1581.05
1010.4036	2838.5653	2460.5	1575.7
1010.5216	2839.7211	2444.25	1561.85
1010.6396	2840.8761	2445.8	1559.75
1010.7575	2842.0306	2445.1	1560.95
1010.8754	2843.1843	2477.05	1591.2
1010.9932	2844.3374	2501.05	1616.15
1011.111	2845.4899	2552.6	1666.4
1011.2288	2846.6417	2596.85	1713.2
1011.3465	2847.7928	2663.4	1779.05
1011.4642	2848.9433	2715.8	1831.1
1011.5818	2850.0931	2790.1	1905.95
1011.6995	2851.2422	2841.35	1953.5
1011.817	2852.3907	2896.8	2011.3
1011.9345	2853.5385	2963.05	2075.35
1012.052	2854.6857	3026.35	2112.8
1012.1695	2855.8323	3053	2169.3
1012.2869	2856.9781	3107.65	2222.6
1012.4042	2858.1233	3149.45	2262.3
1012.5216	2859.2679	3204.8	2322.3
1012.6389	2860.4118	3257.2	2372.4
1012.7561	2861.555	3311.6	2422.05
1012.8733	2862.6976	3337.75	2449.35
1012.9905	2863.8395	3369	2482.6
1013.1076	2864.9808	3406.8	2520.95
1013.2247	2866.1214	3407.6	2521.95
1013.3417	2867.2614	3432.85	2549.75
1013.4587	2868.4007	3462.5	2574.4
1013.5757	2869.5393	3474.9	2589
1013.6926	2870.6773	3496.55	2607.85
1013.8095	2871.8146	3506.35	2618.1
1013.9263	2872.9513	3503.8	2617
1014.0431	2874.0874	3488.2	2603.1
1014.1599	2875.2227	3497	2611.6
1014.2766	2876.3574	3466.35	2581.2
1014.3933	2877.4915	3433.85	2551.75
1014.51	2878.6249	3413.7	2530.2
1014.6266	2879.7577	3400.35	2513.6
1014.7431	2880.8898	3387.25	2494.2
1014.8596	2882.0212	3355.15	2471.1
1014.9761	2883.152	3355.15	2471.4
1015.0925	2884.2821	3325.8	2443.1
1015.2089	2885.4116	3333.75	2452.15
1015.3253	2886.5405	3326.75	2443.95
1015.4416	2887.6686	3329.55	2438.25
1015.5579	2888.7962	3334.65	2452.7
1015.6741	2889.923	3338.4	2453.4
1015.7903	2891.0493	3342.8	2458.85
1015.9065	2892.1748	3374.3	2490.3
1016.0226	2893.2997	3383.6	2501.2
1016.1387	2894.424	3394.35	2512.35
1016.2547	2895.5476	3400.05	2516.85
1016.3707	2896.6706	3443.05	2558.05
1016.4866	2897.7929	3461.35	2578.05
1016.6025	2898.9145	3489.3	2606
1016.7184	2900.0355	3490.15	2605.4
1016.8342	2901.1559	3534.4	2649.6
1016.95	2902.2756	3547.05	2658.55
1017.0658	2903.3946	3590.25	2704.45
1017.1815	2904.513	3614.9	2727.25
1017.2971	2905.6308	3636.7	2753.45
1017.4127	2906.7479	3657.8	2772.75
1017.5283	2907.8643	3693.7	2810.35
1017.6439	2908.9801	3702.8	2819.6
1017.7594	2910.0953	3713.35	2832.1
1017.8748	2911.2098	3719.8	2833.45
1017.9902	2912.3236	3711.45	2819.05
1018.1056	2913.4368	3696.4	2807.7
1018.2209	2914.5494	3672.1	2787.3
1018.3362	2915.6613	3631.1	2742.8
1018.4515	2916.7725	3616.6	2731.45
1018.5667	2917.8831	3593.7	2710.3
1018.6819	2918.9931	3557.15	2670.45
1018.797	2920.1024	3511.2	2626.4
1018.9121	2921.211	3504.35	2620.75
1019.0271	2922.319	3497.7	2613.5
1019.1421	2923.4264	3488.7	2606.6
1019.2571	2924.5331	3474.3	2592
1019.372	2925.6391	3440.7	2555.3
1019.4869	2926.7445	3462.65	2579.15
1019.6017	2927.8493	3462.9	2577.35
1019.7165	2928.9534	3470.05	2586.9
1019.8313	2930.0569	3463.75	2579.85
1019.946	2931.1597	3459.7	2575
1020.0606	2932.2619	3469.65	2587.05
1020.1753	2933.3634	3468.15	2584.45
1020.2899	2934.4643	3471.15	2583.75
1020.4044	2935.5645	3459.25	2570.25
1020.5189	2936.6641	3453.85	2568.25
1020.6334	2937.763	3411.1	2529.5
1020.7478	2938.8613	3378.35	2493.95
1020.8622	2939.959	3325.25	2437.65
1020.9765	2941.056	3283.1	2402.75
1021.0908	2942.1523	3201.35	2315.65
1021.2051	2943.248	3132.1	2248
1021.3193	2944.3431	3046.35	2165.05
1021.4334	2945.4375	2962.15	2080.4
1021.5476	2946.5313	2859.55	1979.1
1021.6617	2947.6244	2752.5	1869.75
1021.7757	2948.7169	2654.75	1772.15
1021.8897	2949.8087	2570.8	1688.95
1022.0037	2950.8999	2487.55	1606.2
1022.1176	2951.9904	2401.75	1520
1022.2315	2953.0803	2339.75	1455.65
1022.3453	2954.1696	2269.35	1387.15
1022.4591	2955.2582	2216.95	1333.4
1022.5728	2956.3462	2167.8	1284.85
1022.6865	2957.4335	2135.5	1252.8
1022.8002	2958.5202	2112.65	1226.65
1022.9138	2959.6062	2078.05	1196.65
1023.0274	2960.6916	2048.25	1165.15
1023.141	2961.7764	2022.1	1138.9
1023.2545	2962.8605	2010.05	1126.15
1023.3679	2963.9439	1997.8	1116.85
1023.4813	2965.0267	1990.95	1109.2
1023.5947	2966.1089	1996.95	1092.45
1023.708	2967.1905	1979.2	1097.75
1023.8213	2968.2714	1973.45	1094.05
1023.9346	2969.3516	1969.9	1087.6
1024.0478	2970.4312	1984.35	1095.2
1024.1609	2971.5102	1975.7	1093.35
1024.274	2972.5885	1974.65	1090.4
1024.3871	2973.6662	1987.6	1101.5
1024.5002	2974.7432	1980.3	1098.25
1024.6132	2975.8196	1971.1	1090.2
1024.7261	2976.8954	1963.3	1081.7
1024.839	2977.9705	1955.3	1075.65
1024.9519	2979.045	1942.6	1061.85
1025.0647	2980.1188	1934.95	1055.8
1025.1775	2981.192	1915.2	1033.35
1025.2902	2982.2645	1901.45	1018.3
1025.4029	2983.3364	1882.9	1001.9
1025.5156	2984.4077	1843.6	961.85
1025.6282	2985.4783	1830.1	942.75
1025.7407	2986.5483	1797.85	918.5
1025.8532	2987.6177	1762.95	882.6
1025.9657	2988.6864	1735.15	853.85
1026.0782	2989.7545	1701.75	819.25
1026.1906	2990.8219	1673.25	791.35
1026.3029	2991.8887	1646.8	763.95
1026.4152	2992.9548	1606.4	722.45
1026.5275	2994.0204	1573.15	693.25
1026.6397	2995.0852	1548.35	668.45
1026.7519	2996.1495	1522.35	639.95
1026.864	2997.2131	1492.2	611.5
1026.9761	2998.276	1469.15	590.2
1027.0882	2999.3383	1454.65	572.1
1027.2002	3000.4	1432.15	549.2
1027.3122	3001.4611	1419.7	537.9
1027.4241	3002.5215	1395.45	515.25
1027.536	3003.5812	1378.2	497.2
1027.6478	3004.6404	1373.65	491.1
1027.7596	3005.6989	1359.05	473.9
1027.8714	3006.7567	1349.1	468.35
1027.9831	3007.8139	1360.8	447.85
1028.0947	3008.8705	1325.95	444.8
1028.2064	3009.9264	1321	437.8
1028.3179	3010.9818	1313.05	431.65
1028.4295	3012.0364	1306	425.2
1028.541	3013.0905	1295.2	413.6
1028.6524	3014.1439	1296.5	414.15
1028.7638	3015.1966	1294.7	416.5
1028.8752	3016.2487	1288.35	407.35
1028.9865	3017.3002	1287.4	401
1029.0978	3018.3511	1276.15	397.55
1029.209	3019.4013	1274.5	393.3
1029.3202	3020.4509	1279.35	397.85
1029.4314	3021.4998	1272.25	388.7
1029.5425	3022.5481	1270.95	389.85
1029.6535	3023.5958	1265.55	384.7
1029.7645	3024.6428	1268.3	389
1029.8755	3025.6892	1269.25	391.1
1029.9864	3026.735	1269.1	389.35
1030.0973	3027.7802	1266.8	387.05
1030.2082	3028.8247	1266.95	386.45
1030.319	3029.8685	1265.65	384.2
1030.4297	3030.9118	1270.25	388.95
1030.5404	3031.9544	1272.5	392.8
1030.6511	3032.9963	1268.25	388.35
1030.7617	3034.0376	1270.25	391.15
1030.8723	3035.0783	1280.8	396.6
1030.9829	3036.1184	1287.9	407.7
1031.0934	3037.1578	1279.7	400.1
1031.2038	3038.1966	1286.25	403.45
1031.3142	3039.2348	1286.5	408.25
1031.4246	3040.2723	1288.3	397.85
1031.5349	3041.3092	1285.85	406.8
1031.6452	3042.3455	1280.8	401.75
1031.7554	3043.3811	1281.9	399
1031.8656	3044.4161	1281.45	399.6
1031.9758	3045.4505	1278.15	396.7
1032.0859	3046.4842	1274.35	393.6
1032.1959	3047.5173	1273.8	392.75
1032.3059	3048.5498	1275	394.4
1032.4159	3049.5816	1271.2	393.2
1032.5258	3050.6128	1268.2	386.4
1032.6357	3051.6434	1266	385.25
1032.7455	3052.6734	1259.4	376.9
1032.8553	3053.7027	1257.4	377
1032.9651	3054.7314	1256.55	375.85
1033.0748	3055.7594	1256.1	378.1
1033.1845	3056.7868	1251.15	369.75
1033.2941	3057.8136	1247.35	367.45
1033.4037	3058.8398	1243.8	364.85
1033.5132	3059.8653	1233.6	353.8
1033.6227	3060.8902	1236.9	355.95
1033.7321	3061.9145	1234.2	354.65
1033.8415	3062.9381	1232.65	353
1033.9509	3063.9612	1241.3	345.15
1034.0602	3064.9835	1215.55	335.65
1034.1694	3066.0053	1225.25	342.8
1034.2787	3067.0264	1215.7	337.3
1034.3878	3068.0469	1215.45	334.15
1034.497	3069.0668	1206.75	326.4
1034.6061	3070.086	1198.1	320.25
1034.7151	3071.1046	1191.55	311.15
1034.8241	3072.1226	1186	305.25
1034.9331	3073.1399	1181.9	302.4
1035.042	3074.1567	1173.8	291.35
1035.1508	3075.1727	1171.7	291.35
1035.2597	3076.1882	1167.7	287.45
1035.3684	3077.203	1156.55	276.55
1035.4772	3078.2173	1146.9	265.8
1035.5859	3079.2308	1151.55	267.75
1035.6945	3080.2438	1142.3	261.45
1035.8031	3081.2561	1127.7	248.15
1035.9117	3082.2678	1124.95	244.95
1036.0202	3083.2789	1119.95	240.95
1036.1286	3084.2893	1116.35	237.7
1036.2371	3085.2991	1113.15	231.95
1036.3454	3086.3083	1109.2	225.4
1036.4538	3087.3169	1098.55	216.2
1036.562	3088.3248	1099.5	218.6
1036.6703	3089.3321	1093.25	212.3
1036.7785	3090.3388	1091.2	212.5
1036.8866	3091.3449	1084.75	203.25
1036.9948	3092.3503	1088.45	205.05
1037.1028	3093.3551	1079.2	199.45
1037.2108	3094.3593	1069.95	191.1
1037.3188	3095.3629	1072.45	194
1037.4267	3096.3658	1069.75	189.95
1037.5346	3097.3681	1066.75	188.15
1037.6425	3098.3698	1064.55	183.25
1037.7503	3099.3708	1072.75	188.05
1037.858	3100.3713	1063.35	182.45
1037.9657	3101.3711	1057.25	176.15
1038.0734	3102.3702	1169.55	175.75
1038.181	3103.3688	1049.65	168.4
1038.2886	3104.3667	1045.75	168.65
1038.3961	3105.364	1047.25	168.85
1038.5036	3106.3607	1043.15	162.1
1038.611	3107.3568	1045.45	163.45
1038.7184	3108.3522	1040.5	161.4
1038.8257	3109.347	1040.3	161.1
1038.933	3110.3412	1041.3	156.2
1039.0403	3111.3348	1038.85	161.6
1039.1475	3112.3277	1029.85	149.45
1039.2547	3113.32	1031.6	153.15
1039.3618	3114.3117	1028.5	147.6
1039.4689	3115.3028	1026.1	145.8
1039.5759	3116.2932	1027.6	148.35
1039.6829	3117.2831	1025.8	139.55
1039.7898	3118.2723	1026.4	149.3
1039.8967	3119.2608	1024.25	144.5
1040.0035	3120.2488	1021.1	142.5
1040.1103	3121.2361	1015.8	136.25
1040.2171	3122.2229	1018.65	137.55
1040.3238	3123.209	1015.25	136.65
1040.4305	3124.1944	1016.5	139.4
1040.5371	3125.1793	1014.2	133.7
1040.6437	3126.1635	1015	135.75
1040.7502	3127.1471	1013.25	136.05
1040.8567	3128.1301	1009.85	129.05
1040.9631	3129.1125	1010.25	131.95
1041.0695	3130.0942	1003.35	123.6
1041.1759	3131.0753	1016.4	128.5
1041.2822	3132.0558	1009.55	129.1
1041.3884	3133.0357	1006.15	126.05
1041.4946	3134.015	1003.1	122.5
1041.6008	3134.9936	1003.65	123.1
1041.7069	3135.9716	1025.65	123.75
1041.813	3136.949	996.3	115.1
1041.919	3137.9258	1017.5	120.55
1042.025	3138.902	999.6	115
1042.1309	3139.8775	994.4	115.55
1042.2368	3140.8524	994.4	114.95
1042.3427	3141.8267	995.4	113.8
1042.4485	3142.8004	995.6	114.55
1042.5542	3143.7735	1003.5	119.2
1042.6599	3144.7459	992.35	112.25
1042.7656	3145.7178	990.65	112.55
1042.8712	3146.689	986.75	108.6
1042.9768	3147.6596	992.55	109.85
1043.0823	3148.6295	989.8	110.6
1043.1878	3149.5989	987.15	106.6
1043.2932	3150.5676	984.65	104.7
1043.3986	3151.5357	985.6	107.1
1043.5039	3152.5032	981.85	103.3
1043.6092	3153.4701	983.15	104.75
1043.7145	3154.4364	984.1	102.7
1043.8197	3155.402	979.45	103
1043.9248	3156.367	986.2	106.95
1044.03	3157.3315	1013.3	99.7
1044.135	3158.2952	982.45	104.05
1044.24	3159.2584	978.75	100.45
1044.345	3160.221	974.5	95.35
1044.4499	3161.1829	974.75	96.4
1044.5548	3162.1442	976.8	98
1044.6596	3163.105	977.2	98.15
1044.7644	3164.065	972.05	93.3
1044.8692	3165.0245	976.8	94.25
1044.9739	3165.9834	973.4	97.1
1045.0785	3166.9416	972.75	93.2
1045.1831	3167.8993	977.25	97.9
1045.2877	3168.8563	970.7	93.75
1045.3922	3169.8127	971.05	92.9
1045.4966	3170.7684	969.05	91.75
1045.6011	3171.7236	968.4	89.7
1045.7054	3172.6782	970.1	90.4
1045.8098	3173.6321	967	87.55
1045.914	3174.5854	971.25	88.9
1046.0183	3175.5381	968.75	91.2
1046.1224	3176.4902	966.6	87.3
1046.2266	3177.4417	966.7	87.9
1046.3307	3178.3926	967.15	90.05
1046.4347	3179.3428	966.1	88
1046.5387	3180.2924	965.15	87.8
1046.6427	3181.2415	965.45	86.5
1046.7466	3182.1899	967.4	88.3
1046.8504	3183.1377	963.2	85.25
1046.9542	3184.0848	965.45	83.8
1047.058	3185.0314	959.95	82.55
1047.1617	3185.9773	960.9	81.65
1047.2654	3186.9227	960.8	81.4
1047.369	3187.8674	960.25	83.45
1047.4726	3188.8115	962.05	81
1047.5761	3189.755	960.9	82
1047.6796	3190.6979	960.05	82.9
1047.783	3191.6402	955.5	78.75
1047.8864	3192.5818	953.4	75.7
1047.9898	3193.5229	965.75	81.05
1048.0931	3194.4633	957.75	79.95
1048.1963	3195.4031	958.3	79.45
1048.2995	3196.3423	957.75	79.2
1048.4027	3197.2809	955.35	77.7
1048.5058	3198.2189	957.1	76.8
1048.6089	3199.1563	970.6	75.75
1048.7119	3200.0931	951.6	73.95
1048.8148	3201.0292	951.3	73.55
1048.9178	3201.9648	949.85	71.55
1049.0206	3202.8997	952.75	71.85
1049.1235	3203.834	952	73.95
1049.2262	3204.7677	952.7	75.1
1049.329	3205.7008	955.1	75.5
1049.4317	3206.6333	947.9	71.8
1049.5343	3207.5652	949.95	70.55
1049.6369	3208.4964	953	74.1
1049.7394	3209.4271	949.7	71.95
1049.8419	3210.3571	950	72.75
1049.9444	3211.2865	947.85	70.9
1050.0468	3212.2154	951.25	73.2
1050.1491	3213.1436	948.4	68.95
1050.2514	3214.0712	951.85	66.35
1050.3537	3214.9982	947.5	66.8
1050.4559	3215.9246	949.25	71.2
1050.5581	3216.8503	944.15	67.55
1050.6602	3217.7755	945.4	67.35
1050.7623	3218.7001	945.45	67.25
1050.8643	3219.624	947	68.65
1050.9663	3220.5473	942.95	64.1
1051.0682	3221.4701	947.55	66.8
1051.1701	3222.3922	944.55	65.15
1051.2719	3223.3137	944.75	68.5
1051.3737	3224.2346	938.8	59.2
1051.4754	3225.1549	942.9	67.25
1051.5771	3226.0746	943	65.7
1051.6788	3226.9937	942.7	64.35
1051.7804	3227.9121	942.25	67.85
1051.8819	3228.83	939.1	61.45
1051.9834	3229.7473	940.2	63.9
1052.0849	3230.6639	940.15	62.95
1052.1863	3231.5799	940.35	63.55
1052.2876	3232.4954	942.8	64.9
1052.3889	3233.4102	941.15	64.15
1052.4902	3234.3244	939.1	59.95
1052.5914	3235.238	937.25	59.95
1052.6926	3236.151	962.5	60.25
1052.7937	3237.0634	937.75	62.35
1052.8948	3237.9752	937.55	58.85
1052.9958	3238.8864	938.35	61.7
1053.0968	3239.797	935.2	58.7
1053.1977	3240.7069	938.6	60.75
1053.2986	3241.6163	935.55	56.95
1053.3994	3242.5251	933.15	57.1
1053.5002	3243.4332	934.35	59
1053.6009	3244.3408	936.6	58.8
1053.7016	3245.2477	934.55	57.7
1053.8022	3246.154	933.95	55.1
1053.9028	3247.0598	935.65	57.5
1054.0034	3247.9649	934.6	57.55
1054.1039	3248.8694	930.4	53.45
1054.2043	3249.7733	929.15	51.25
1054.3047	3250.6766	930	53.15
1054.4051	3251.5793	931	51.05
1054.5054	3252.4814	929.9	53.75
1054.6056	3253.3829	927.15	51.1
1054.7058	3254.2838	928.6	51.25
1054.806	3255.1841	929.7	53.45
1054.9061	3256.0838	927.7	51.6
1055.0061	3256.9829	923.9	48.5
1055.1062	3257.8814	929.75	51.3
1055.2061	3258.7792	927.7	48.4
1055.306	3259.6765	925.9	47.4
1055.4059	3260.5731	925.65	48.2
1055.5057	3261.4692	922.25	43.7
1055.6055	3262.3647	925.25	46.65
1055.7052	3263.2595	923.6	45.4
1055.8049	3264.1538	921.85	44.6
1055.9045	3265.0474	919.75	42.1
1056.0041	3265.9404	919.3	41.85
1056.1036	3266.8329	919.05	42.9
1056.2031	3267.7247	928.6	43
1056.3025	3268.616	917.55	45.1
1056.4019	3269.5066	913.65	37.6
1056.5013	3270.3966	918.95	41.8
1056.6005	3271.286	910.25	33.85
