Software Version:	3.9.2.0
Unit SN:	10000200
Spectrometer SN:	6960
Date:	3/8/2024 11:54:51 AM
Data Line Index:	25
Spectral Points:	2048
Integration time (ms):	125
Averages:	20
Delay (ms):	30000
Sequence Number:	1
Processing:	dark subtract
Laser Power (mW):	305
Laser Current (mA):	822
Laser Diode Temp (C):	25.1
Laser Case Temp (C):	25.4
System Temp (C):	25.4
Spectrometer Temp (C):	23.3
CCD Temp (C):	0.004
Secondary Temp (C):	20.01
Heatsink Temp (C):	20.112
CCDPCB Temp (C):	34.762
SecondaryPCB Temp (C):	28.281

Wavelength	RamanShift	Raw Counts	Dark Subtracted
787.061	30.1047	413.15	6.35
787.2016	32.3739	412.45	8.1
787.3422	34.6426	411.65	4.85
787.4828	36.9109	415.45	6.65
787.6235	39.1787	418.75	8.2
787.7642	41.4461	424.45	5.95
787.9049	43.7131	429.5	8.15
788.0456	45.9796	431.95	6.55
788.1863	48.2456	436	7.25
788.3271	50.5112	441.1	8.55
788.4679	52.7764	444.35	10.4
788.6087	55.0411	450.95	12.75
788.7496	57.3054	455.45	10.3
788.8904	59.5692	458.55	9.8
789.0313	61.8326	462	13.25
789.1722	64.0955	465.55	14.9
789.3132	66.3579	474.2	15.5
789.4541	68.6199	479.9	19.45
789.5951	70.8815	491.65	24.75
789.7361	73.1426	506.8	37.5
789.8771	75.4032	544.05	71.65
790.0181	77.6634	608.6	132.65
790.1592	79.9231	774.7	293.65
790.3003	82.1824	1121.4	628.3
790.4414	84.4412	1679.95	1172.7
790.5825	86.6995	2382.2	1850.6
790.7237	88.9574	3054.4	2506.15
790.8648	91.2148	3507.1	2944.5
791.006	93.4717	3688.2	3117.5
791.1472	95.7282	3706.15	3134.15
791.2885	97.9842	3693.9	3115.9
791.4297	100.2398	3643.6	3065.9
791.571	102.4949	3591.3	3011.45
791.7123	104.7495	3551.05	2966.7
791.8536	107.0036	3491.85	2909.55
791.9949	109.2573	3415.65	2831.5
792.1363	111.5105	3329.25	2740.85
792.2777	113.7632	3226.15	2635.95
792.4191	116.0154	3133.7	2532.2
792.5605	118.2672	3019.25	2423.75
792.7019	120.5185	2921.25	2322.25
792.8434	122.7693	2830.85	2232.2
792.9849	125.0197	2748.95	2145.2
793.1264	127.2696	2674.55	2071.2
793.2679	129.519	2650.7	2043.75
793.4094	131.7679	2610.95	1996.9
793.551	134.0163	2606.4	1992.4
793.6926	136.2642	2569.6	1951.6
793.8342	138.5117	2570.6	1943.95
793.9758	140.7587	2524.2	1903.95
794.1175	143.0052	2488.95	1861.6
794.2591	145.2512	2453.8	1826.35
794.4008	147.4967	2398.3	1774.1
794.5425	149.7417	2358.15	1731.2
794.6842	151.9863	2332	1695.85
794.826	154.2304	2319.95	1681.25
794.9677	156.4739	2323.7	1680.2
795.1095	158.717	2338.65	1694.75
795.2513	160.9596	2367.65	1718.65
795.3931	163.2017	2378.05	1729.75
795.535	165.4433	2380.65	1729.15
795.6768	167.6844	2369.5	1717.35
795.8187	169.925	2332.25	1673.6
795.9606	172.1651	2287.55	1629.15
796.1025	174.4047	2247.9	1582.95
796.2445	176.6439	2203.9	1542.25
796.3864	178.8825	2185.55	1516.05
796.5284	181.1206	2173.5	1500.2
796.6704	183.3582	2165.35	1490.9
796.8124	185.5954	2160	1483.3
796.9544	187.832	2163.7	1482.55
797.0965	190.0681	2152.9	1469.25
797.2386	192.3037	2171.4	1480.95
797.3806	194.5388	2175.05	1483.75
797.5228	196.7734	2185.5	1489.55
797.6649	199.0075	2194.65	1499.5
797.807	201.2411	2210.7	1512.9
797.9492	203.4742	2229.1	1529.45
798.0914	205.7068	2254.6	1556.3
798.2336	207.9389	2281.55	1575
798.3758	210.1704	2279.9	1579.8
798.518	212.4015	2281.7	1591.1
798.6603	214.632	2274	1587.5
798.8025	216.862	2285.9	1605.6
798.9448	219.0915	2294.3	1613
799.0871	221.3205	2316	1627.5
799.2294	223.549	2316.75	1636.75
799.3718	225.777	2312.15	1630.05
799.5141	228.0044	2303.55	1618.05
799.6565	230.2314	2301.2	1613.4
799.7989	232.4578	2284.45	1587.65
799.9413	234.6837	2279.4	1579
800.0837	236.909	2265.1	1561.2
800.2262	239.1339	2262.3	1535.5
800.3687	241.3582	2265.15	1552.55
800.5111	243.582	2291	1547
800.6536	245.8053	2281.05	1552.75
800.7961	248.0281	2282.55	1559.6
800.9387	250.2503	2301.4	1570.95
801.0812	252.472	2308.7	1577.15
801.2238	254.6932	2320.25	1588.45
801.3664	256.9139	2310.9	1579.35
801.509	259.134	2334.8	1597.55
801.6516	261.3536	2347	1612.25
801.7942	263.5727	2397	1662.45
801.9369	265.7912	2437.5	1700.2
802.0795	268.0092	2493.05	1757.35
802.2222	270.2267	2563.15	1827.9
802.3649	272.4436	2603.2	1862.6
802.5076	274.6601	2632.5	1882.5
802.6504	276.8759	2651.15	1904.55
802.7931	279.0913	2670.6	1925.7
802.9359	281.3061	2682.7	1940.6
803.0787	283.5204	2696.65	1948.9
803.2215	285.7341	2734.5	1979.55
803.3643	287.9473	2756.85	2001.95
803.5071	290.16	2751.45	1996.7
803.6499	292.3721	2705	1954
803.7928	294.5837	2684.9	1938.3
803.9357	296.7947	2659.6	1909.15
804.0786	299.0052	2656	1906.95
804.2215	301.2152	2629.55	1874.5
804.3644	303.4246	2612.35	1859.5
804.5074	305.6334	2600.9	1848.95
804.6503	307.8418	2583.2	1827.55
804.7933	310.0495	2553.35	1796.15
804.9363	312.2568	2512.7	1755.95
805.0793	314.4635	2469.75	1711
805.2223	316.6696	2416.2	1652.1
805.3653	318.8752	2386.45	1615.95
805.5084	321.0802	2354.6	1590.25
805.6514	323.2847	2340	1572.15
805.7945	325.4887	2360.15	1595.95
805.9376	327.692	2378.25	1612.05
806.0807	329.8949	2422.3	1653
806.2238	332.0972	2451.9	1683.6
806.367	334.2989	2474	1703.25
806.5101	336.5001	2459.6	1685.75
806.6533	338.7007	2436	1665.95
806.7965	340.9008	2399.15	1625.65
806.9397	343.1003	2341.15	1562.9
807.0829	345.2992	2291.9	1513.7
807.2261	347.4976	2257.5	1480.4
807.3693	349.6955	2237.95	1453.85
807.5126	351.8927	2215	1431.7
807.6559	354.0895	2208.85	1414.6
807.7991	356.2856	2188.2	1399.9
807.9424	358.4812	2186.35	1404.45
808.0857	360.6763	2173.85	1387.2
808.2291	362.8707	2177.25	1387.85
808.3724	365.0646	2182.7	1390.25
808.5158	367.258	2191.8	1398.65
808.6591	369.4508	2211.45	1413.95
808.8025	371.643	2233.7	1439.35
808.9459	373.8346	2259.55	1460.5
809.0893	376.0257	2297.75	1495.6
809.2327	378.2162	2312.15	1513.95
809.3762	380.4062	2314.85	1513.15
809.5196	382.5956	2297.95	1500.25
809.6631	384.7844	2262.95	1467.5
809.8066	386.9726	2212.65	1419.4
809.9501	389.1603	2179.6	1386.35
810.0936	391.3474	2209.2	1382.3
810.2371	393.5339	2183.7	1385.9
810.3806	395.7199	2192.2	1399.8
810.5241	397.9052	2215.4	1420.7
810.6677	400.09	2263.3	1469.8
810.8113	402.2743	2300.6	1502.45
810.9548	404.4579	2337.55	1539.7
811.0984	406.641	2367.35	1566
811.2421	408.8235	2427.75	1626.75
811.3857	411.0054	2459.4	1658.25
811.5293	413.1868	2521.85	1716.6
811.673	415.3675	2579.4	1770.7
811.8166	417.5477	2568.15	1759.35
811.9603	419.7273	2500.85	1691.3
812.104	421.9064	2431.8	1613.1
812.2477	424.0848	2371.2	1554.85
812.3914	426.2627	2321.25	1507.45
812.5351	428.4399	2258.3	1444.55
812.6788	430.6166	2213.25	1396.35
812.8226	432.7928	2170.35	1349.1
812.9663	434.9683	2131.25	1310.8
813.1101	437.1432	2104.25	1282.6
813.2539	439.3176	2083.15	1267.55
813.3977	441.4914	2072.05	1259.1
813.5415	443.6645	2074.2	1257.95
813.6853	445.8371	2063.7	1247.4
813.8291	448.0091	2068.55	1251.55
813.973	450.1806	2064.95	1246.3
814.1168	452.3514	2064.65	1244.85
814.2607	454.5216	2072.5	1244.1
814.4046	456.6913	2055	1232.3
814.5485	458.8603	2062.95	1242.2
814.6924	461.0288	2065.6	1246.75
814.8363	463.1967	2064.25	1245.5
814.9802	465.3639	2068.1	1245.6
815.1241	467.5306	2058.55	1234.1
815.2681	469.6967	2052.2	1233.5
815.412	471.8622	2042.15	1224
815.556	474.0271	2035.25	1214.15
815.7	476.1914	2035.3	1209.5
815.844	478.3551	2035.7	1210.6
815.988	480.5182	2040.75	1216.95
816.132	482.6807	2043.55	1218.45
816.276	484.8426	2054	1236.6
816.4201	487.0039	2094	1270.65
816.5641	489.1647	2147.1	1320.7
816.7082	491.3248	2193.55	1365.6
816.8522	493.4843	2219.7	1394.55
816.9963	495.6432	2201.55	1375.15
817.1404	497.8015	2175.4	1344.05
817.2845	499.9592	2140.85	1309.45
817.4286	502.1163	2088.75	1257.1
817.5727	504.2728	2045.4	1215.55
817.7168	506.4287	2018.75	1190.7
817.861	508.5839	2003.65	1175.3
818.0051	510.7386	1994.35	1162.65
818.1493	512.8927	2005.4	1168.75
818.2935	515.0461	2020.25	1187.15
818.4377	517.199	2039.45	1203.6
818.5818	519.3512	2073.85	1240.6
818.726	521.5029	2146.8	1306.15
818.8703	523.6539	2179.95	1343.9
819.0145	525.8043	2190.5	1355.3
819.1587	527.9541	2150.65	1306.8
819.303	530.1033	2088.45	1248.2
819.4472	532.2519	2045.15	1206.35
819.5915	534.3999	2023.65	1181.9
819.7357	536.5472	2005.35	1168.65
819.88	538.694	2011	1172.1
820.0243	540.8401	2013	1173.25
820.1686	542.9856	2047.7	1203.3
820.3129	545.1305	2057.85	1209.05
820.4572	547.2748	2071.9	1222.5
820.6016	549.4185	2078	1229.35
820.7459	551.5615	2093.5	1241.45
820.8902	553.704	2104.35	1258.7
821.0346	555.8458	2111.65	1266.9
821.1789	557.987	2137.35	1294.7
821.3233	560.1276	2164.5	1318.5
821.4677	562.2675	2205.15	1361.5
821.6121	564.4069	2275.45	1428.85
821.7565	566.5456	2306.6	1461.25
821.9009	568.6837	2309.8	1462.9
822.0453	570.8212	2226.45	1381.7
822.1897	572.958	2168.35	1319.65
822.3342	575.0942	2110.85	1265.35
822.4786	577.2299	2072.3	1225.2
822.6231	579.3648	2042.15	1200.3
822.7675	581.4992	2027.3	1191.8
822.912	583.6329	2036	1198.25
823.0565	585.766	2064.7	1225.65
823.201	587.8985	2111.4	1269.7
823.3454	590.0304	2160.85	1300.4
823.4899	592.1616	2174.15	1318.55
823.6345	594.2922	2182.15	1329.75
823.779	596.4222	2137.95	1283.85
823.9235	598.5515	2078.7	1224.5
824.068	600.6802	2037.25	1181.95
824.2126	602.8083	1988.2	1134.7
824.3571	604.9358	1970.65	1117.05
824.5017	607.0626	1975.4	1123.05
824.6462	609.1888	1993.55	1136.7
824.7908	611.3144	2020.7	1164.1
824.9354	613.4393	2052.75	1195.75
825.08	615.5636	2106.9	1248.25
825.2246	617.6873	2158.8	1300.65
825.3692	619.8103	2173	1315.9
825.5138	621.9327	2177.4	1316.6
825.6584	624.0544	2131	1278.1
825.803	626.1756	2077.6	1222.25
825.9477	628.2961	2038.6	1179.75
826.0923	630.4159	2019.1	1157.85
826.237	632.5351	2013.3	1151.9
826.3816	634.6537	2001.8	1142.05
826.5263	636.7716	1999.25	1135.5
826.6709	638.8889	1994.15	1130.45
826.8156	641.0056	1991.6	1126.25
826.9603	643.1216	1999.15	1138.75
827.105	645.237	2006.1	1143.25
827.2497	647.3518	1976.75	1115.55
827.3944	649.4659	1955.65	1097.05
827.5391	651.5793	1945.9	1087
827.6838	653.6922	1929.3	1068.1
827.8285	655.8043	1920.75	1059.8
827.9733	657.9159	1903.15	1039.2
828.118	660.0268	1913.95	1054.5
828.2627	662.137	1901.1	1036
828.4075	664.2466	1908.8	1039.8
828.5522	666.3556	1903.3	1036.6
828.697	668.4639	1892.85	1027.6
828.8418	670.5716	1891.15	1030.4
828.9865	672.6786	1871.35	1006.15
829.1313	674.785	1876.7	1008.05
829.2761	676.8907	1862.8	997.9
829.4209	678.9958	1876.55	1014.15
829.5657	681.1002	1873.7	1008.05
829.7105	683.204	1881.35	1006.45
829.8553	685.3072	1873.35	1000.7
830.0001	687.4097	1879.65	1013.3
830.1449	689.5115	1872.6	1002.25
830.2898	691.6127	1873.3	1003.5
830.4346	693.7132	1869.65	1000.5
830.5794	695.8131	1892.5	1006.4
830.7243	697.9123	1875.3	1003.5
830.8691	700.0109	1886.55	1012.3
831.014	702.1089	1895.15	1025.55
831.1588	704.2061	1915.4	1043.95
831.3037	706.3028	1925.8	1049.3
831.4486	708.3987	1946.25	1073.25
831.5935	710.4941	1960.25	1088.45
831.7383	712.5887	1958.9	1089.05
831.8832	714.6827	1968.15	1090.85
832.0281	716.7761	1955.7	1085
832.173	718.8688	1956.2	1085.4
832.3179	720.9608	1957.85	1078.4
832.4628	723.0522	1978.25	1097
832.6077	725.1429	1992.7	1119.8
832.7527	727.233	2035.15	1159.65
832.8976	729.3224	2098.3	1222.2
833.0425	731.4112	2131.15	1254.05
833.1874	733.4993	2140.55	1261.05
833.3324	735.5867	2086.25	1212.3
833.4773	737.6735	2021.15	1144.5
833.6222	739.7596	1962.8	1085
833.7672	741.845	1954.95	1080.55
833.9122	743.9298	1941.45	1064.5
834.0571	746.014	1952.95	1076
834.2021	748.0974	1955.7	1075.7
834.347	750.1802	1964.45	1084.1
834.492	752.2624	1946.5	1065.7
834.637	754.3439	1929.85	1047.1
834.782	756.4247	1942.2	1051.55
834.9269	758.5048	1935.9	1057.8
835.0719	760.5843	1957.3	1074.9
835.2169	762.6631	1990.55	1111.1
835.3619	764.7413	2039.6	1157.7
835.5069	766.8188	2123.4	1242.5
835.6519	768.8956	2203.25	1318.5
835.7969	770.9718	2262.5	1383.8
835.9419	773.0473	2248.25	1367.55
836.0869	775.1221	2215.15	1330.55
836.232	777.1962	2209.65	1328.05
836.377	779.2697	2267.25	1384
836.522	781.3426	2374.55	1473.2
836.667	783.4147	2401.65	1516.6
836.8121	785.4862	2377.95	1497.4
836.9571	787.557	2298.05	1413.65
837.1021	789.6271	2180.5	1294.25
837.2472	791.6966	2062.1	1177.75
837.3922	793.7654	1973.75	1091.45
837.5373	795.8335	1928.9	1045
837.6823	797.901	1899.2	1016.15
837.8274	799.9678	1893.5	1005.55
837.9724	802.0339	1893.5	1008.85
838.1175	804.0993	1896.25	999.65
838.2626	806.1641	1883.4	996.45
838.4076	808.2282	1859.2	976.25
838.5527	810.2916	1854.55	968.85
838.6978	812.3544	1829.3	944.25
838.8428	814.4164	1829.3	949.5
838.9879	816.4778	1840	953.15
839.133	818.5385	1850.85	965.4
839.2781	820.5986	1881.85	993
839.4232	822.658	1936.45	1047.4
839.5682	824.7166	1991.75	1105.15
839.7133	826.7747	2071.55	1184.7
839.8584	828.832	2156.35	1270.3
840.0035	830.8886	2203.3	1312.8
840.1486	832.9446	2224.1	1334.45
840.2937	834.9999	2185.15	1297.2
840.4388	837.0545	2113	1222.5
840.5839	839.1085	2043.8	1155
840.729	841.1618	1973.8	1081.45
840.8741	843.2143	1929.9	1042.4
841.0192	845.2662	1895.85	1007.3
841.1643	847.3175	1884.7	995.75
841.3095	849.368	1864.9	977.45
841.4546	851.4179	1864.65	976.4
841.5997	853.467	1855.95	968.55
841.7448	855.5155	1871.1	982.45
841.8899	857.5633	1870.35	979.4
842.0351	859.6105	1867.7	977.85
842.1802	861.6569	1859.8	967.05
842.3253	863.7027	1846.3	954.7
842.4704	865.7478	1828.85	938.55
842.6156	867.7922	1817.7	927.2
842.7607	869.8359	1818.8	925.95
842.9058	871.8789	1814.2	921.85
843.0509	873.9212	1850.2	924.8
843.1961	875.9629	1823.35	932.75
843.3412	878.0039	1837.35	947.55
843.4863	880.0441	1841.95	954.55
843.6315	882.0837	1869.6	980.6
843.7766	884.1226	1893.55	1001.85
843.9218	886.1609	1918.1	1026.65
844.0669	888.1984	1965.35	1073.8
844.212	890.2352	2017.65	1125.15
844.3572	892.2714	2022.75	1129.5
844.5023	894.3069	1993.2	1101
844.6475	896.3416	1943.15	1049.1
844.7926	898.3757	1907.3	1013.2
844.9377	900.4091	1888.05	994.6
845.0829	902.4418	1895.75	996.7
845.228	904.4739	1903.25	1007.8
845.3732	906.5052	1922.5	1028.95
845.5183	908.5358	1896.25	1002.15
845.6635	910.5658	1882.65	988.8
845.8086	912.595	1855.6	961.45
845.9538	914.6236	1818.95	924.3
846.0989	916.6515	1797.5	903.35
846.2441	918.6786	1769.55	872.2
846.3892	920.7051	1765	867.55
846.5344	922.7309	1761.75	865.6
846.6795	924.756	1764.5	872.1
846.8246	926.7804	1781.9	883.25
846.9698	928.8041	1789.15	891.15
847.1149	930.8272	1803.5	909.25
847.2601	932.8495	1813.05	916.7
847.4052	934.8711	1812.8	916.6
847.5504	936.892	1830.95	935.55
847.6955	938.9123	1840.35	943
847.8407	940.9318	1870.45	976.15
847.9858	942.9506	1870.1	974.8
848.131	944.9688	1876.05	981.25
848.2761	946.9862	1841.4	943.85
848.4213	949.003	1803.45	905.15
848.5664	951.019	1786.9	890.35
848.7115	953.0344	1767.05	872
848.8567	955.0491	1761.75	861.2
849.0018	957.063	1759.85	863.45
849.147	959.0763	1756.25	858.7
849.2921	961.0888	1744.35	848.1
849.4373	963.1007	1748.55	855.25
849.5824	965.1119	1750.05	858.3
849.7275	967.1223	1736.4	846.35
849.8727	969.1321	1729.4	841.25
850.0178	971.1412	1736.7	843.15
850.1629	973.1495	1725.15	829.55
850.3081	975.1572	1763.55	830.95
850.4532	977.1641	1732.65	836.6
850.5983	979.1704	1726.2	828.25
850.7435	981.1759	1732.65	831.85
850.8886	983.1808	1723.4	826
851.0337	985.1849	1719.8	810.25
851.1788	987.1884	1719.85	820.2
851.324	989.1911	1722.75	822.1
851.4691	991.1932	1727.75	830.1
851.6142	993.1945	1726.15	827.75
851.7593	995.1951	1728.75	828
851.9045	997.1951	1724.75	819.75
852.0496	999.1943	1727.65	828.3
852.1947	1001.1928	1719	820.5
852.3398	1003.1906	1730.35	834.65
852.4849	1005.1877	1756.3	857.65
852.63	1007.1841	1767.1	867.4
852.7751	1009.1798	1781.25	885.4
852.9202	1011.1748	1771.55	872.4
853.0653	1013.1691	1756.9	859.3
853.2104	1015.1627	1724.3	825.05
853.3555	1017.1556	1690.3	791.8
853.5006	1019.1477	1680.2	784.6
853.6457	1021.1392	1658.25	762.4
853.7908	1023.1299	1648.35	756.6
853.9359	1025.12	1648.6	758.25
854.081	1027.1093	1653.15	767.1
854.2261	1029.0979	1679.15	793.8
854.3712	1031.0859	1701.7	812.75
854.5163	1033.0731	1714.8	822.35
854.6613	1035.0596	1710.3	816.6
854.8064	1037.0454	1696.5	799.25
854.9515	1039.0304	1683	786.45
855.0965	1041.0148	1670.5	774.4
855.2416	1042.9985	1660.05	760.95
855.3867	1044.9814	1645.9	748.85
855.5317	1046.9636	1646.95	744.95
855.6768	1048.9452	1655	759.85
855.8219	1050.926	1664.45	767.35
855.9669	1052.9061	1672.3	775.85
856.112	1054.8855	1681.7	782.5
856.257	1056.8642	1671.5	773.5
856.4021	1058.8421	1681.4	781.45
856.5471	1060.8194	1675.6	778.1
856.6921	1062.7959	1672.55	774
856.8372	1064.7717	1679.35	778.75
856.9822	1066.7469	1677.25	776.45
857.1272	1068.7213	1684.25	784.1
857.2723	1070.695	1697.8	800.3
857.4173	1072.6679	1720.1	821.95
857.5623	1074.6402	1735.3	838.85
857.7073	1076.6117	1740.05	838
857.8523	1078.5826	1718	819.8
857.9973	1080.5527	1685	782.2
858.1423	1082.5221	1650.9	751.55
858.2873	1084.4908	1625.8	729
858.4323	1086.4587	1623.15	723.7
858.5773	1088.426	1615	715.6
858.7223	1090.3925	1608.45	702.9
858.8673	1092.3584	1622.15	725.15
859.0123	1094.3235	1627.25	729.65
859.1573	1096.2879	1642.1	740.95
859.3022	1098.2515	1667.9	768.5
859.4472	1100.2145	1694.6	798.75
859.5922	1102.1767	1715.9	815.75
859.7371	1104.1382	1763.65	866.65
859.8821	1106.099	1816.5	913.35
860.027	1108.0591	1852.05	950.2
860.172	1110.0185	1890.3	988.25
860.3169	1111.9771	1926.25	1026.1
860.4619	1113.9351	1969.1	1067.85
860.6068	1115.8923	2018.75	1116.7
860.7517	1117.8488	2030.25	1128.4
860.8967	1119.8045	1975.95	1078.1
861.0416	1121.7596	1902.25	1003.3
861.1865	1123.7139	1810.95	915
861.3314	1125.6675	1765.2	866.4
861.4763	1127.6204	1766.25	866.6
861.6212	1129.5726	1784.9	883.9
861.7661	1131.524	1778.55	879.4
861.911	1133.4748	1750.1	849.35
862.0559	1135.4248	1694.65	793.35
862.2008	1137.3741	1644.45	747.1
862.3457	1139.3226	1628.8	727.75
862.4905	1141.2705	1625.5	726.9
862.6354	1143.2176	1629.15	724.2
862.7803	1145.164	1644	741.15
862.9251	1147.1097	1634.3	735.25
863.07	1149.0546	1614.85	715.7
863.2148	1150.9989	1587.7	685.95
863.3597	1152.9424	1572.15	672.2
863.5045	1154.8852	1557.05	657.7
863.6493	1156.8272	1560.9	661.55
863.7942	1158.7686	1563.6	655.35
863.939	1160.7092	1560.7	657.65
864.0838	1162.6491	1573.15	671.65
864.2286	1164.5883	1576.25	678.6
864.3734	1166.5267	1590.3	691.05
864.5182	1168.4644	1619.15	720.3
864.663	1170.4014	1641.65	735.85
864.8078	1172.3377	1679.2	780.85
864.9526	1174.2732	1732.7	834.05
865.0974	1176.2081	1814.9	915.2
865.2421	1178.1421	1939.5	1036.7
865.3869	1180.0755	2031.6	1132.55
865.5317	1182.0082	2084.85	1185.25
865.6764	1183.9401	2043.85	1145.3
865.8212	1185.8713	1944.7	1050.2
865.9659	1187.8017	1833.95	940.25
866.1106	1189.7315	1742.05	850.3
866.2554	1191.6605	1698.5	779.55
866.4001	1193.5888	1642.95	749.85
866.5448	1195.5163	1618.1	722.5
866.6895	1197.4432	1596.2	698.25
866.8342	1199.3693	1592.9	694.15
866.9789	1201.2947	1573.4	670.85
867.1236	1203.2193	1556.2	656.35
867.2683	1205.1432	1565.15	664.55
867.413	1207.0664	1569.4	670.55
867.5576	1208.9889	1562.3	659.2
867.7023	1210.9106	1569.75	669.45
867.847	1212.8316	1560.2	662.3
867.9916	1214.7519	1588.7	678.25
868.1363	1216.6715	1592.85	693.05
868.2809	1218.5903	1597.85	698.4
868.4255	1220.5084	1618.75	719.85
868.5701	1222.4257	1635.45	737.3
868.7148	1224.3424	1634.25	734.35
868.8594	1226.2583	1663.45	760.45
869.004	1228.1735	1684	782.45
869.1486	1230.0879	1719.05	818
869.2932	1232.0016	1764.6	864.2
869.4377	1233.9146	1799.2	898.3
869.5823	1235.8269	1812.55	914.1
869.7269	1237.7384	1828.2	929.05
869.8715	1239.6492	1814.6	914.8
870.016	1241.5592	1840.8	939.5
870.1606	1243.4686	1883.5	982.25
870.3051	1245.3772	1947.35	1048.75
870.4496	1247.285	2029.9	1128.2
870.5941	1249.1922	2105.05	1204.85
870.7387	1251.0986	2176.4	1277.2
870.8832	1253.0042	2241.65	1339.4
871.0277	1254.9092	2305.05	1407.05
871.1722	1256.8134	2371.7	1471.2
871.3167	1258.7169	2433.6	1535.95
871.4611	1260.6196	2458.35	1560.05
871.6056	1262.5216	2447.95	1547.35
871.7501	1264.4229	2439.15	1541
871.8945	1266.3234	2406.75	1505.25
872.039	1268.2232	2371.8	1470.5
872.1834	1270.1223	2333.4	1432
872.3278	1272.0207	2304.95	1404.5
872.4723	1273.9183	2289.4	1383.4
872.6167	1275.8151	2278.15	1374.6
872.7611	1277.7113	2328.95	1427.1
872.9055	1279.6067	2420.15	1522.3
873.0499	1281.5014	2537.55	1636.6
873.1943	1283.3953	2701.4	1798.6
873.3386	1285.2885	2844.4	1944.5
873.483	1287.181	2944.55	2042.35
873.6274	1289.0727	2987.8	2089.7
873.7717	1290.9637	2940.65	2041.05
873.9161	1292.854	2884.05	1984.35
874.0604	1294.7435	2786.4	1885.5
874.2047	1296.6323	2699	1799.1
874.349	1298.5204	2624.8	1721.6
874.4933	1300.4077	2558.1	1656.95
874.6376	1302.2943	2506.7	1608.25
874.7819	1304.1802	2484.35	1584.05
874.9262	1306.0653	2450.6	1551.05
875.0705	1307.9497	2423.45	1523.95
875.2147	1309.8333	2372.95	1472.05
875.359	1311.7162	2329	1428.55
875.5032	1313.5984	2311.25	1409.15
875.6475	1315.4798	2298.65	1387.85
875.7917	1317.3605	2285	1378.6
875.9359	1319.2405	2267	1364.55
876.0801	1321.1197	2244.25	1341.3
876.2243	1322.9982	2181.7	1274.4
876.3685	1324.876	2107.55	1207.25
876.5127	1326.753	2032.2	1131.9
876.6569	1328.6293	1956.95	1054.9
876.801	1330.5048	1881.6	975.05
876.9452	1332.3796	1824.9	923.2
877.0893	1334.2537	1799.75	873.7
877.2335	1336.127	1741.9	842.2
877.3776	1337.9996	1713.05	810.5
877.5217	1339.8714	1711.25	810.35
877.6658	1341.7426	1732.1	788
877.8099	1343.6129	1701.45	800.55
877.954	1345.4826	1673.05	770.05
878.0981	1347.3515	1666.9	764.4
878.2422	1349.2196	1641.75	742.35
878.3862	1351.087	1638.65	737.15
878.5303	1352.9537	1631.35	730.6
878.6743	1354.8197	1640.5	736.8
878.8184	1356.6849	1649.1	745.5
878.9624	1358.5493	1662.7	762.85
879.1064	1360.4131	1690.15	788.35
879.2504	1362.276	1724	822.9
879.3944	1364.1383	1750.9	850.9
879.5384	1365.9998	1771.7	864.9
879.6823	1367.8606	1750.75	848.05
879.8263	1369.7206	1728.45	824.3
879.9702	1371.5799	1742.95	839.55
880.1142	1373.4384	1725.65	824.5
880.2581	1375.2962	1701.4	799.3
880.402	1377.1533	1648.95	748
880.5459	1379.0096	1619.1	719.45
880.6898	1380.8652	1576.3	676.2
880.8337	1382.7201	1554.75	651.35
880.9776	1384.5742	1529.85	629.35
881.1215	1386.4275	1514.95	610.75
881.2653	1388.2802	1504.4	605.4
881.4092	1390.132	1490.95	589.9
881.553	1391.9832	1475.2	572.75
881.6968	1393.8336	1470.65	569.7
881.8406	1395.6832	1466.1	564.4
881.9844	1397.5322	1454.75	550.75
882.1282	1399.3803	1461.35	555.95
882.272	1401.2278	1437.05	536.05
882.4158	1403.0745	1438.65	536.9
882.5595	1404.9204	1430	531.4
882.7033	1406.7656	1424.7	525.45
882.847	1408.6101	1426.5	526.15
882.9908	1410.4538	1422.9	520.4
883.1345	1412.2968	1426.9	524.3
883.2782	1414.139	1418.9	517.45
883.4219	1415.9805	1426.95	525.25
883.5656	1417.8213	1450.9	545.5
883.7092	1419.6613	1456.8	558.5
883.8529	1421.5006	1482.3	581.2
883.9965	1423.3391	1515.65	612.25
884.1402	1425.1769	1560.1	658.1
884.2838	1427.0139	1623.9	722.5
884.4274	1428.8502	1701.75	800.8
884.571	1430.6858	1760.25	861.3
884.7146	1432.5206	1781.85	882.85
884.8582	1434.3547	1783.6	881.45
885.0018	1436.188	1760.25	859.3
885.1453	1438.0206	1734.45	834.85
885.2889	1439.8524	1721.8	821.95
885.4324	1441.6835	1739.35	838.65
885.5759	1443.5139	1740.75	838.5
885.7194	1445.3435	1736.9	836.55
885.8629	1447.1724	1736.8	838.55
886.0064	1449.0005	1730.8	832.85
886.1499	1450.8279	1728.65	829.2
886.2933	1452.6545	1730.25	832.75
886.4368	1454.4804	1717.8	818.7
886.5802	1456.3056	1714.6	809.45
886.7237	1458.13	1696.1	797.1
886.8671	1459.9536	1671.3	770.65
887.0105	1461.7766	1640.25	739.65
887.1539	1463.5987	1605.35	704.9
887.2972	1465.4202	1570.4	672.5
887.4406	1467.2409	1540.5	641.95
887.584	1469.0608	1511.7	613.2
887.7273	1470.88	1484.5	583.6
887.8706	1472.6984	1463.5	565
888.0139	1474.5161	1441.7	537.8
888.1572	1476.3331	1425.75	528.85
888.3005	1478.1493	1425.85	524.85
888.4438	1479.9648	1423.65	525.1
888.5871	1481.7795	1419.9	520.9
888.7303	1483.5935	1416.6	518.4
888.8736	1485.4067	1410.4	509.9
889.0168	1487.2192	1418.5	516.35
889.16	1489.031	1417.65	515.55
889.3032	1490.842	1414.2	514.7
889.4464	1492.6522	1416.55	518.45
889.5896	1494.4618	1412.55	511.9
889.7327	1496.2705	1407.3	507.6
889.8759	1498.0785	1394	493.25
890.019	1499.8858	1397.1	497.6
890.1622	1501.6924	1400.45	502.45
890.3053	1503.4981	1388.95	489.6
890.4484	1505.3032	1381.45	481.2
890.5914	1507.1075	1374.5	474.8
890.7345	1508.911	1366.8	467.4
890.8776	1510.7138	1363.05	461.9
891.0206	1512.5159	1357.2	458.9
891.1637	1514.3172	1349.9	451.25
891.3067	1516.1178	1344	445.7
891.4497	1517.9176	1342.85	443.5
891.5927	1519.7166	1337.5	439.85
891.7357	1521.515	1338.45	432.9
891.8786	1523.3126	1326.65	427.3
892.0216	1525.1094	1322.2	421.2
892.1645	1526.9055	1308.6	411.6
892.3074	1528.7008	1314.9	416.95
892.4503	1530.4954	1315.95	409.85
892.5932	1532.2893	1308.65	413.9
892.7361	1534.0824	1307.45	406.6
892.879	1535.8747	1305.3	410.6
893.0218	1537.6663	1304.25	406.1
893.1647	1539.4572	1306.05	407.7
893.3075	1541.2473	1302.4	405.15
893.4503	1543.0367	1299.9	404.25
893.5931	1544.8253	1308.6	407.6
893.7359	1546.6132	1310.3	411.9
893.8787	1548.4003	1324.35	416.65
894.0214	1550.1867	1336.4	429.85
894.1642	1551.9723	1336	434.75
894.3069	1553.7572	1342.7	446.85
894.4496	1555.5414	1362.15	468.25
894.5923	1557.3247	1394.1	498.65
894.735	1559.1074	1412.15	516.95
894.8777	1560.8893	1445.1	548.6
895.0204	1562.6705	1475.6	579.8
895.163	1564.4509	1499.3	607.2
895.3056	1566.2305	1504.5	611.55
895.4482	1568.0094	1507.15	613.35
895.5908	1569.7876	1495.55	600.3
895.7334	1571.565	1491.3	593.5
895.876	1573.3417	1492.5	599.65
896.0186	1575.1176	1500.9	604.3
896.1611	1576.8928	1514.55	622.85
896.3036	1578.6672	1524.6	633.55
896.4461	1580.4409	1549.3	661.2
896.5886	1582.2138	1581.55	688.35
896.7311	1583.986	1603.6	708.45
896.8736	1585.7575	1642	750.65
897.0161	1587.5282	1661.5	770.85
897.1585	1589.2981	1682.4	791.55
897.3009	1591.0673	1704.65	813.15
897.4433	1592.8358	1699.65	809
897.5857	1594.6035	1714.3	821.35
897.7281	1596.3704	1706.3	813.2
897.8705	1598.1366	1684.85	792.85
898.0128	1599.9021	1672.2	780.7
898.1551	1601.6668	1651.35	758.1
898.2975	1603.4308	1654.25	760.45
898.4398	1605.194	1662.95	764.35
898.5821	1606.9564	1680.1	791.45
898.7243	1608.7182	1730.6	838.15
898.8666	1610.4791	1794.45	907.2
899.0088	1612.2394	1870.65	983.55
899.1511	1613.9988	1951.15	1063.95
899.2933	1615.7576	2001.75	1112.65
899.4355	1617.5156	2024.9	1128.45
899.5776	1619.2728	1980.2	1086.85
899.7198	1621.0293	1901.85	1010.35
899.862	1622.785	1808.8	917.45
900.0041	1624.54	1712.5	821.55
900.1462	1626.2942	1617.2	726.1
900.2883	1628.0477	1534.6	640.25
900.4304	1629.8005	1471.6	578.65
900.5725	1631.5525	1415.65	525.5
900.7145	1633.3037	1374.65	484.7
900.8566	1635.0542	1350.45	460.6
900.9986	1636.804	1318.8	428.45
901.1406	1638.553	1368.45	410.2
901.2826	1640.3013	1283.8	392.55
901.4245	1642.0488	1265.75	373.25
901.5665	1643.7955	1252.55	364.35
901.7085	1645.5416	1241.1	352.45
901.8504	1647.2868	1236.65	347.85
901.9923	1649.0313	1229.85	339.5
902.1342	1650.7751	1231.3	338.05
902.2761	1652.5181	1222.3	334.15
902.4179	1654.2604	1220.25	331.1
902.5598	1656.0019	1228.65	340.45
902.7016	1657.7427	1248.15	357
902.8434	1659.4828	1263.2	370.85
902.9852	1661.222	1290	398
903.127	1662.9606	1315.95	425.4
903.2687	1664.6984	1327.6	436.65
903.4105	1666.4354	1331.85	437.45
903.5522	1668.1717	1304.7	412.6
903.6939	1669.9072	1273.85	380.55
903.8356	1671.642	1242.45	347.75
903.9773	1673.3761	1207.75	316.5
904.119	1675.1094	1184.45	292.5
904.2606	1676.8419	1168.4	277.75
904.4022	1678.5737	1157.2	264.2
904.5439	1680.3048	1154.8	264.25
904.6855	1682.0351	1147.1	255.45
904.827	1683.7646	1148.05	251.55
904.9686	1685.4934	1135.9	244.75
905.1101	1687.2215	1136.1	243.1
905.2517	1688.9488	1130.8	239.95
905.3932	1690.6754	1124	233.55
905.5347	1692.4012	1122.3	233.15
905.6761	1694.1263	1124.3	231.8
905.8176	1695.8506	1119.15	227.45
905.9591	1697.5742	1112	221.1
906.1005	1699.297	1113.45	225.3
906.2419	1701.0191	1110.55	219.95
906.3833	1702.7404	1107.3	220
906.5246	1704.461	1110	217.7
906.666	1706.1808	1110.5	218.8
906.8073	1707.8999	1107.3	217.25
906.9487	1709.6182	1102	213.85
907.09	1711.3358	1095.9	208.35
907.2313	1713.0527	1094.6	208.8
907.3725	1714.7688	1110.6	215.5
907.5138	1716.4841	1097.15	207.9
907.655	1718.1987	1100.65	205.25
907.7962	1719.9126	1091.95	205.75
907.9374	1721.6257	1091	202.9
908.0786	1723.338	1091.05	204.9
908.2198	1725.0496	1094.85	206.1
908.3609	1726.7605	1091.2	200.75
908.502	1728.4706	1091.3	199.85
908.6431	1730.18	1089.4	199.7
908.7842	1731.8886	1087.25	200.4
908.9253	1733.5964	1106.2	198.35
909.0664	1735.3036	1084.85	195.9
909.2074	1737.0099	1081.35	192.75
909.3484	1738.7156	1081.9	194.05
909.4894	1740.4204	1089.15	197.5
909.6304	1742.1246	1086.95	195.9
909.7714	1743.8279	1087.7	201.45
909.9123	1745.5306	1083.85	195.2
910.0532	1747.2325	1082.1	194.3
910.1941	1748.9336	1081.05	192.1
910.335	1750.634	1080.3	187.8
910.4759	1752.3336	1077.95	189.4
910.6168	1754.0325	1079.8	195.85
910.7576	1755.7307	1079.7	193.9
910.8984	1757.4281	1082.3	195.1
911.0392	1759.1247	1093.5	193.6
911.18	1760.8206	1087.35	190.45
911.3208	1762.5158	1087.8	194.45
911.4615	1764.2102	1076.7	186.5
911.6022	1765.9039	1072.55	184.1
911.7429	1767.5968	1073.25	185.85
911.8836	1769.289	1075.85	190.45
912.0243	1770.9804	1081.15	193
912.1649	1772.6711	1078.85	187.55
912.3056	1774.361	1075.45	182.25
912.4462	1776.0502	1075.05	183.65
912.5868	1777.7386	1075.95	182.35
912.7274	1779.4263	1071.95	182.2
912.8679	1781.1132	1069.5	183.15
913.0084	1782.7994	1071.85	183.15
913.149	1784.4849	1066.3	180.1
913.2895	1786.1696	1088.55	180.5
913.4299	1787.8535	1067.15	180
913.5704	1789.5367	1065.1	180.45
913.7108	1791.2192	1068.25	180.95
913.8513	1792.9009	1092.45	178.4
913.9917	1794.5818	1071.8	180.2
914.132	1796.2621	1064.05	175.7
914.2724	1797.9415	1067.55	180.1
914.4128	1799.6202	1065.15	174.8
914.5531	1801.2982	1067.8	177.35
914.6934	1802.9755	1065.55	174.85
914.8337	1804.6519	1062.45	173.35
914.9739	1806.3277	1064.6	177
915.1142	1808.0027	1065.6	180.05
915.2544	1809.6769	1056.85	170.45
915.3946	1811.3504	1054.9	166.35
915.5348	1813.0231	1056.65	170.05
915.675	1814.6951	1057.5	169.5
915.8151	1816.3664	1061.2	169.55
915.9553	1818.0369	1059.35	172.6
916.0954	1819.7067	1058.3	170.4
916.2355	1821.3757	1059.9	169.6
916.3755	1823.044	1059.45	171.25
916.5156	1824.7115	1057.65	168.15
916.6556	1826.3783	1055.25	168.65
916.7956	1828.0443	1050.2	164.8
916.9356	1829.7096	1056.75	165.4
917.0756	1831.3741	1055.55	165.95
917.2155	1833.0379	1055.7	167.25
917.3555	1834.701	1058.95	172.3
917.4954	1836.3633	1049.65	161.65
917.6353	1838.0248	1055.25	166.75
917.7751	1839.6856	1054.8	167.8
917.915	1841.3457	1051.5	162.4
918.0548	1843.005	1053.45	168.25
918.1946	1844.6636	1048.65	161.25
918.3344	1846.3214	1048.45	161.15
918.4742	1847.9785	1049.2	164.15
918.6139	1849.6349	1048.9	159.8
918.7537	1851.2904	1060.45	160.9
918.8934	1852.9453	1054.2	161.15
919.0331	1854.5994	1054.1	163.5
919.1727	1856.2528	1054.15	159.1
919.3124	1857.9054	1045.7	156.6
919.452	1859.5572	1046.05	158.8
919.5916	1861.2083	1048.65	160.3
919.7312	1862.8587	1048.65	161.1
919.8708	1864.5084	1049.8	158.65
920.0103	1866.1572	1045.55	156.4
920.1498	1867.8054	1047.95	157.35
920.2893	1869.4528	1048.45	157.6
920.4288	1871.0994	1046.6	157.9
920.5683	1872.7453	1048.4	154.75
920.7077	1874.3905	1054.65	157.15
920.8471	1876.0349	1044.6	154.6
920.9865	1877.6786	1047.05	157.15
921.1259	1879.3215	1042.85	152.2
921.2653	1880.9637	1045.95	155.9
921.4046	1882.6051	1041.05	151.85
921.5439	1884.2458	1038.55	148.95
921.6832	1885.8858	1040.2	151.3
921.8225	1887.525	1042.45	153
921.9617	1889.1634	1042.95	154.6
922.101	1890.8011	1038.25	146.65
922.2402	1892.4381	1039.4	147.9
922.3794	1894.0743	1041.5	154
922.5185	1895.7098	1035.9	146.3
922.6577	1897.3446	1043.45	153.8
922.7968	1898.9786	1041.6	147.95
922.9359	1900.6118	1039	149.95
923.075	1902.2443	1033.25	143.4
923.214	1903.8761	1034.05	145.3
923.3531	1905.5071	1039.65	148.65
923.4921	1907.1374	1037.85	149
923.6311	1908.7669	1036	149.4
923.77	1910.3957	1038.2	152.95
923.909	1912.0237	1030.7	140.3
924.0479	1913.651	1035.7	148.95
924.1868	1915.2776	1028.75	142.6
924.3257	1916.9034	1029.95	144.25
924.4646	1918.5285	1032.35	145.9
924.6034	1920.1528	1034.75	147.1
924.7422	1921.7764	1032.2	141.75
924.881	1923.3992	1031.55	143
925.0198	1925.0213	1031.25	144.4
925.1586	1926.6427	1024.55	136.4
925.2973	1928.2633	1241	138.95
925.436	1929.8832	1034.5	142.7
925.5747	1931.5023	1027.75	138.65
925.7134	1933.1207	1029.25	141.95
925.852	1934.7383	1030.45	142.2
925.9906	1936.3552	1027.35	138.15
926.1292	1937.9714	1028.25	139.6
926.2678	1939.5868	1030.35	139.75
926.4064	1941.2015	1027	138.75
926.5449	1942.8154	1025.45	135.75
926.6834	1944.4286	1024.65	135.65
926.8219	1946.041	1046	135.25
926.9604	1947.6528	1028.5	136.6
927.0988	1949.2637	1025.25	137.7
927.2372	1950.8739	1021.35	131.85
927.3756	1952.4834	1020.35	133.4
927.514	1954.0921	1022.35	135.8
927.6523	1955.7001	1027.8	136.45
927.7907	1957.3074	1021.55	137
927.929	1958.9139	1021.85	137.05
928.0673	1960.5197	1019.1	132.9
928.2055	1962.1247	1022.5	135.9
928.3438	1963.729	1019.55	133.95
928.482	1965.3325	1023.8	133.1
928.6202	1966.9353	1017.4	131.7
928.7584	1968.5374	1016.45	131.7
928.8965	1970.1387	1016.55	128.75
929.0346	1971.7393	1021.45	137.9
929.1727	1973.3392	1017.05	130.85
929.3108	1974.9383	1018.15	134.95
929.4489	1976.5366	1015.35	130.7
929.5869	1978.1342	1015.15	129.45
929.7249	1979.7311	1012.8	128.5
929.8629	1981.3273	1011.4	127.1
930.0009	1982.9227	1011.15	126.05
930.1388	1984.5173	1011.25	127.55
930.2767	1986.1112	1016.6	134.95
930.4146	1987.7044	1013.45	129
930.5525	1989.2968	1012.5	126.35
930.6904	1990.8885	1016.8	129.85
930.8282	1992.4795	1013.25	129.4
930.966	1994.0697	1007.85	126.4
931.1038	1995.6592	1010.85	125.85
931.2415	1997.2479	1011.85	126.8
931.3793	1998.8359	1008	125.25
931.517	2000.4232	1007.15	127.45
931.6547	2002.0097	1004.65	125.45
931.7923	2003.5955	1006.15	126.35
931.93	2005.1805	1008.7	125.6
932.0676	2006.7648	1004.85	124.6
932.2052	2008.3484	1007.3	123.8
932.3427	2009.9312	1007	125.5
932.4803	2011.5133	1001.9	120.65
932.6178	2013.0946	1004.85	123.6
932.7553	2014.6752	1004.15	124.85
932.8928	2016.2551	1008.05	124.05
933.0302	2017.8342	1005.9	124.3
933.1676	2019.4126	1002.2	120.3
933.305	2020.9902	1000.85	123.1
933.4424	2022.5672	1004.15	123.2
933.5798	2024.1433	1008.95	125.15
933.7171	2025.7188	1001	123.35
933.8544	2027.2935	1006.65	126.95
933.9917	2028.8674	1000.55	121.05
934.129	2030.4406	998.25	121.15
934.2662	2032.0131	1001.4	124.25
934.4034	2033.5849	1002.95	122.7
934.5406	2035.1559	999.85	120.7
934.6778	2036.7261	1005	124.7
934.8149	2038.2957	1002.7	120.1
934.952	2039.8645	1003.5	121.6
935.0891	2041.4325	1007.7	122.3
935.2262	2042.9998	1002.5	121.15
935.3632	2044.5664	1001.9	119.95
935.5002	2046.1323	998.15	116.45
935.6372	2047.6974	998.45	118.9
935.7742	2049.2617	1003.1	123.25
935.9111	2050.8254	1005.65	121.65
936.048	2052.3883	1003.15	121.9
936.1849	2053.9504	1000.35	117.4
936.3218	2055.5118	1004.15	122
936.4586	2057.0725	1003.05	116.5
936.5955	2058.6325	1000.15	120.15
936.7323	2060.1917	997.05	117.25
936.869	2061.7502	995.7	111.7
937.0058	2063.3079	1000.8	121.85
937.1425	2064.8649	1001.15	119
937.2792	2066.4212	1000.75	118.3
937.4159	2067.9767	998.7	116.8
937.5525	2069.5315	1001.9	123
937.6891	2071.0856	1001.25	121.75
937.8257	2072.6389	999.55	119.6
937.9623	2074.1915	993.8	117.1
938.0989	2075.7433	1002.4	121.6
938.2354	2077.2945	997.75	117.35
938.3719	2078.8448	997.8	115.9
938.5084	2080.3945	1001.95	120.9
938.6448	2081.9434	999.9	119.1
938.7812	2083.4916	998.55	114
938.9176	2085.039	1003.85	121.25
939.054	2086.5857	1003.65	118.1
939.1903	2088.1317	1001.65	116
939.3267	2089.677	998.6	113.1
939.463	2091.2215	1001.3	117.65
939.5992	2092.7652	999.75	113.6
939.7355	2094.3083	1003.45	116.65
939.8717	2095.8506	998.5	117.75
940.0079	2097.3921	998.6	116.35
940.1441	2098.933	995.9	113.8
940.2802	2100.4731	1000.1	118.1
940.4163	2102.0124	1017.4	117.7
940.5524	2103.5511	998.5	115.9
940.6885	2105.089	999.75	116.15
940.8245	2106.6261	999	115.7
940.9606	2108.1626	997.85	115.7
941.0965	2109.6983	1026.4	114.1
941.2325	2111.2332	998.5	113.55
941.3684	2112.7675	999.2	114.85
941.5044	2114.301	999.7	117.15
941.6403	2115.8337	996.3	114.05
941.7761	2117.3657	997.6	114.95
941.912	2118.897	996.15	109.7
942.0478	2120.4276	1004.75	115.4
942.1835	2121.9575	1000.3	117.65
942.3193	2123.4866	1000.15	114.75
942.455	2125.0149	1002	118.15
942.5907	2126.5426	994.35	114.1
942.7264	2128.0695	996.8	114.15
942.8621	2129.5956	990.8	114.35
942.9977	2131.1211	997.15	112.05
943.1333	2132.6458	996.95	114.85
943.2689	2134.1698	997.3	115.15
943.4044	2135.693	999.05	113.7
943.54	2137.2155	1003.45	117.95
943.6755	2138.7373	995.25	110.35
943.8109	2140.2584	995.35	115.45
943.9464	2141.7787	996.45	109.6
944.0818	2143.2983	989.05	112.25
944.2172	2144.8171	989.75	111.75
944.3526	2146.3353	991.9	109.85
944.4879	2147.8527	992.8	114.05
944.6232	2149.3693	996	112.1
944.7585	2150.8853	996.45	113.35
944.8938	2152.4005	995.35	111.8
945.029	2153.9149	994.8	110.45
945.1642	2155.4287	992.45	109.65
945.2994	2156.9417	997.25	112.55
945.4346	2158.454	994.4	110.15
945.5697	2159.9655	994.05	115.15
945.7048	2161.4764	993.1	112.35
945.8399	2162.9865	992.8	109.5
945.9749	2164.4958	993.3	111.5
946.1099	2166.0045	994.6	111.05
946.2449	2167.5124	993.45	111.95
946.3799	2169.0195	991.8	110.45
946.5148	2170.526	993.1	111.05
946.6498	2172.0317	994.8	111.65
946.7846	2173.5367	991.9	111.05
946.9195	2175.0409	992.75	112.55
947.0543	2176.5445	993.65	112.4
947.1891	2178.0473	992.2	110
947.3239	2179.5494	993	104.05
947.4587	2181.0507	989.2	107
947.5934	2182.5513	991.55	111.55
947.7281	2184.0512	989.65	107.75
947.8628	2185.5504	987.3	105.7
947.9974	2187.0488	986.25	104.6
948.132	2188.5465	989	108.65
948.2666	2190.0435	986.05	104.3
948.4012	2191.5397	987.15	105.3
948.5357	2193.0353	991.1	110.7
948.6702	2194.5301	991.1	108.4
948.8047	2196.0241	991.6	107.9
948.9392	2197.5175	990.65	104.7
949.0736	2199.0101	992.85	105.45
949.208	2200.502	987.15	104.9
949.3424	2201.9931	987.05	104.45
949.4767	2203.4835	985.65	102.35
949.611	2204.9733	1003.2	105.45
949.7453	2206.4622	986.05	105.8
949.8796	2207.9505	989.35	107.9
950.0138	2209.438	983.4	103.75
950.148	2210.9248	987.65	105.65
950.2822	2212.4109	983.6	102.85
950.4164	2213.8962	988.45	103.45
950.5505	2215.3809	989.7	104.35
950.6846	2216.8648	990	104.2
950.8186	2218.3479	991.75	102.6
950.9527	2219.8304	988.2	101.05
951.0867	2221.3121	984.95	98.3
951.2207	2222.7931	983.4	99.65
951.3546	2224.2733	983.1	99.25
951.4886	2225.7529	982.7	99.55
951.6225	2227.2317	985.2	101.65
951.7563	2228.7098	984	104.15
951.8902	2230.1872	982.95	101.6
952.024	2231.6638	979.8	98.45
952.1578	2233.1397	988.95	102.85
952.2916	2234.6149	982.1	102.9
952.4253	2236.0894	981.45	99.4
952.559	2237.5632	991.1	98.9
952.6927	2239.0362	982.8	99.15
952.8263	2240.5085	980.6	100.05
952.9599	2241.9801	980.2	99.25
953.0935	2243.4509	978.85	95.9
953.2271	2244.921	979.5	94.3
953.3606	2246.3904	984.15	97.7
953.4941	2247.8591	983.65	99.95
953.6276	2249.3271	979.45	96.75
953.7611	2250.7943	981.3	95.7
953.8945	2252.2608	978.95	97.1
954.0279	2253.7266	977.7	94.6
954.1612	2255.1917	978.75	96.05
954.2946	2256.656	977.3	94.45
954.4279	2258.1197	973.55	94.2
954.5612	2259.5826	978.2	95.9
954.6944	2261.0447	978.85	94.9
954.8276	2262.5062	980.8	96.35
954.9608	2263.9669	979.95	95.75
955.094	2265.4269	972	91.05
955.2271	2266.8862	975.4	92.6
955.3602	2268.3448	974.15	90.55
955.4933	2269.8026	972	92.25
955.6264	2271.2598	974.95	93.65
955.7594	2272.7162	974.8	95.5
955.8924	2274.1719	974.75	91.2
956.0253	2275.6268	978.65	96.95
956.1583	2277.0811	975.45	92.25
956.2912	2278.5346	977.95	98.5
956.4241	2279.9874	971.05	91
956.5569	2281.4395	969.3	88.45
956.6897	2282.8908	979.25	91.9
956.8225	2284.3414	974.5	91.8
956.9553	2285.7914	973.9	94.15
957.088	2287.2406	976.05	89.1
957.2207	2288.689	973.25	90.85
957.3534	2290.1368	978.3	94
957.486	2291.5838	979.95	93
957.6186	2293.0302	982.6	96.65
957.7512	2294.4758	972.35	88.55
957.8838	2295.9206	974.8	89.55
958.0163	2297.3648	969.4	88.2
958.1488	2298.8082	971.15	87.2
958.2813	2300.251	975.95	94.05
958.4137	2301.693	972.35	87.6
958.5461	2303.1343	970.5	86.95
958.6785	2304.5748	972.8	90.8
958.8108	2306.0147	972.55	90.2
958.9432	2307.4538	971.95	88.95
959.0754	2308.8922	970.45	89.75
959.2077	2310.3299	972.6	93.15
959.3399	2311.7669	969.4	89.55
959.4721	2313.2031	969.95	87.55
959.6043	2314.6387	972	90.05
959.7365	2316.0735	968.45	86.4
959.8686	2317.5076	970.45	87.45
960.0006	2318.941	970.05	86.25
960.1327	2320.3737	971.6	86.8
960.2647	2321.8056	975.4	90.75
960.3967	2323.2369	972.85	88.8
960.5287	2324.6674	973	88.65
960.6606	2326.0972	977.75	94.2
960.7925	2327.5263	983.7	103.65
960.9244	2328.9547	982.35	98.8
961.0562	2330.3823	977.2	93.95
961.1881	2331.8092	977.55	89.3
961.3198	2333.2355	971.8	87.8
961.4516	2334.661	969.75	85.45
961.5833	2336.0858	971.5	86.6
961.715	2337.5098	967.65	84.2
961.8467	2338.9332	966.05	81.65
961.9783	2340.3558	970.1	85.85
962.1099	2341.7778	968.05	84.85
962.2415	2343.199	967.4	82.1
962.373	2344.6195	966.45	83.45
962.5045	2346.0393	967.75	86
962.636	2347.4583	966.2	84.1
962.7675	2348.8767	968.5	82.35
962.8989	2350.2943	970.55	83.9
963.0303	2351.7113	968.15	83.2
963.1617	2353.1275	962.8	78.55
963.293	2354.543	991.25	85.3
963.4243	2355.9578	971.8	86.2
963.5556	2357.3718	963.95	79.65
963.6868	2358.7852	969.95	84.5
963.818	2360.1978	965.55	81.4
963.9492	2361.6098	961.65	79.75
964.0803	2363.021	966.8	80.7
964.2114	2364.4315	966.2	82.9
964.3425	2365.8413	968.4	79.65
964.4736	2367.2504	964.8	82.8
964.6046	2368.6587	964.9	81.9
964.7356	2370.0664	966.1	82.1
964.8666	2371.4733	965.45	79.85
964.9975	2372.8795	964.8	81.15
965.1284	2374.285	966.2	80.95
965.2593	2375.6899	964.55	81.35
965.3901	2377.0939	965.25	81.05
965.5209	2378.4973	963.05	78.6
965.6517	2379.9	963.2	78.6
965.7825	2381.3019	963.4	79
965.9132	2382.7032	962.55	81.05
966.0439	2384.1037	958.6	76.8
966.1745	2385.5035	961.2	78.75
966.3051	2386.9027	960.15	78.3
966.4357	2388.3011	966.3	79.25
966.5663	2389.6987	961.25	77.95
966.6968	2391.0957	961.45	77.95
966.8273	2392.492	959.4	74.9
966.9578	2393.8876	959.65	75.4
967.0882	2395.2824	960.6	78.05
967.2186	2396.6765	960.1	75.05
967.349	2398.07	958.15	75.15
967.4793	2399.4627	961.8	74.8
967.6097	2400.8547	962.45	77.65
967.7399	2402.246	965.65	76.2
967.8702	2403.6366	959.9	73.75
968.0004	2405.0265	959.2	74.8
968.1306	2406.4156	962.45	74
968.2607	2407.8041	963.1	75.75
968.3909	2409.1918	963.15	76.05
968.521	2410.5789	958.8	71.85
968.651	2411.9652	956.15	67.9
968.781	2413.3508	955.6	70.35
968.911	2414.7358	957.45	70.8
969.041	2416.12	956.2	70.85
969.1709	2417.5035	956.6	73.95
969.3008	2418.8863	960.3	74.55
969.4307	2420.2684	956.45	70.7
969.5606	2421.6497	955.15	68.45
969.6904	2423.0304	952.35	67
969.8201	2424.4104	959.75	73.45
969.9499	2425.7896	962.7	72.7
970.0796	2427.1682	954.35	70.35
970.2093	2428.546	957.1	72.55
970.3389	2429.9232	955.75	68.25
970.4685	2431.2996	956.05	69.75
970.5981	2432.6753	956.65	70.25
970.7277	2434.0503	954.1	68.15
970.8572	2435.4246	953.25	69.85
970.9867	2436.7982	959.1	73.3
971.1161	2438.1711	951.05	66.7
971.2456	2439.5433	956.25	67
971.375	2440.9148	955.1	70.9
971.5043	2442.2856	955.15	70.05
971.6336	2443.6557	958.45	72
971.7629	2445.025	951.65	68.45
971.8922	2446.3937	952.9	67.8
972.0214	2447.7617	956.1	70.1
972.1506	2449.1289	951.25	68.8
972.2798	2450.4955	956.6	68.35
972.4089	2451.8613	950.25	68.15
972.538	2453.2265	950.9	66.35
972.6671	2454.5909	953.15	67.25
972.7961	2455.9546	950.45	67.05
972.9251	2457.3177	951.2	67.4
973.0541	2458.68	951.95	65.05
973.1831	2460.0416	955.35	70.85
973.312	2461.4025	950.55	65.3
973.4408	2462.7627	965.75	69.75
973.5697	2464.1222	948.6	65.85
973.6985	2465.4811	951.45	66.85
973.8273	2466.8392	947.3	65.2
973.956	2468.1966	954.8	69.75
974.0847	2469.5533	950.85	63.9
974.2134	2470.9093	953.85	67.75
974.3421	2472.2645	951.15	67.3
974.4707	2473.6191	950.95	66.25
974.5993	2474.973	952.85	67.85
974.7278	2476.3262	951.1	65.05
974.8563	2477.6787	950.15	67
974.9848	2479.0305	949.2	67.2
975.1132	2480.3816	952.5	67.55
975.2417	2481.7319	950.2	64.8
975.37	2483.0816	948.9	66.5
975.4984	2484.4306	947.95	63.3
975.6267	2485.7789	946	62.95
975.755	2487.1264	948.35	62.05
975.8833	2488.4733	947.3	65.3
976.0115	2489.8195	964.35	62.45
976.1397	2491.165	949.85	61.55
976.2678	2492.5097	947.2	62.15
976.3959	2493.8538	946.95	63.6
976.524	2495.1972	946.95	65
976.6521	2496.5398	948.15	62
976.7801	2497.8818	947.75	61.05
976.9081	2499.2231	946.6	62.55
977.036	2500.5637	949.9	62.6
977.164	2501.9035	949.75	64.9
977.2918	2503.2427	952.25	62.9
977.4197	2504.5812	947.2	64.85
977.5475	2505.919	950.15	63.75
977.6753	2507.256	944.55	63.6
977.8031	2508.5924	946.65	63.6
977.9308	2509.9281	954.05	64.55
978.0585	2511.2631	947.65	65.65
978.1861	2512.5974	941.45	57.6
978.3137	2513.9309	944.7	61.8
978.4413	2515.2638	977.9	67.45
978.5689	2516.596	944.3	61.65
978.6964	2517.9275	943.5	57.2
978.8239	2519.2583	940.35	57.3
978.9513	2520.5884	940.95	56.3
979.0788	2521.9178	942.55	58.1
979.2062	2523.2465	940.4	60.05
979.3335	2524.5745	942.3	57.95
979.4608	2525.9018	943.9	60.85
979.5881	2527.2284	940.85	58.65
979.7154	2528.5543	943.25	61.15
979.8426	2529.8796	940.85	55.15
979.9698	2531.2041	944.25	60.2
980.0969	2532.5279	940.75	58.85
980.224	2533.851	940.9	58.25
980.3511	2535.1735	940.3	57.4
980.4781	2536.4952	944.75	62.05
980.6052	2537.8163	944.2	58.65
980.7321	2539.1366	942.65	59.4
980.8591	2540.4562	943.95	58.4
980.986	2541.7752	943.2	59.4
981.1129	2543.0935	943.65	59.55
981.2397	2544.411	941.7	58.1
981.3665	2545.7279	942.05	60.45
981.4933	2547.0441	942.05	58.8
981.62	2548.3596	944.5	57.75
981.7467	2549.6744	941.3	57.05
981.8734	2550.9885	948.75	54.55
982.0001	2552.3019	941.55	56.15
982.1267	2553.6146	940.45	57.9
982.2532	2554.9266	941.75	59.45
982.3798	2556.2379	939.1	52.95
982.5063	2557.5485	936.35	54.75
982.6327	2558.8585	946.45	52.3
982.7592	2560.1677	942.75	54.75
982.8856	2561.4762	938.95	53.25
983.0119	2562.7841	943.3	56.25
983.1383	2564.0913	935.8	54
983.2646	2565.3977	936.4	52
983.3908	2566.7035	937.55	52.9
983.517	2568.0086	940.7	56.85
983.6432	2569.313	942.65	58.25
983.7694	2570.6167	944.3	58.9
983.8955	2571.9197	937.5	53.45
984.0216	2573.222	944.15	53.9
984.1476	2574.5236	939.1	54.35
984.2737	2575.8246	940.95	53.8
984.3996	2577.1248	940.8	52.8
984.5256	2578.4244	940	54.45
984.6515	2579.7232	938.4	53.85
984.7774	2581.0214	963.85	55.25
984.9032	2582.3189	937.45	53.5
985.029	2583.6157	941.35	53.2
985.1548	2584.9118	938.7	53.4
985.2806	2586.2072	937.05	55.2
985.4063	2587.5019	939.4	55.8
985.5319	2588.7959	938.9	53.8
985.6576	2590.0893	936.35	51.45
985.7832	2591.3819	938.5	56.65
985.9087	2592.6739	933.45	50.8
986.0343	2593.9652	942.1	57.5
986.1597	2595.2557	939.9	55.05
986.2852	2596.5456	938.9	53.15
986.4106	2597.8348	941	55.85
986.536	2599.1234	938.05	56.2
986.6614	2600.4112	938.05	52
986.7867	2601.6983	940.75	55.2
986.912	2602.9848	939.9	56.05
987.0372	2604.2705	941.95	52
987.1624	2605.5556	939.05	53.4
987.2876	2606.84	938	55.45
987.4128	2608.1237	937.1	53.35
987.5379	2609.4067	936	50.7
987.6629	2610.689	943.8	52.55
987.788	2611.9707	939.5	52.05
987.913	2613.2516	939.25	51.7
988.0379	2614.5319	933.85	50.4
988.1629	2615.8115	933.05	49.3
988.2878	2617.0903	936.65	48.6
988.4126	2618.3685	933.35	50.6
988.5375	2619.6461	933.1	49.7
988.6622	2620.9229	933.55	50.9
988.787	2622.199	935.9	53.4
988.9117	2623.4745	935.75	51.2
989.0364	2624.7493	933.05	50.3
989.161	2626.0234	932.45	49.9
989.2857	2627.2968	933.95	48.45
989.4102	2628.5695	933.7	50.2
989.5348	2629.8415	932.5	50.45
989.6593	2631.1128	937.95	54.85
989.7837	2632.3835	932.4	49.55
989.9082	2633.6535	930.5	46
990.0326	2634.9228	932.75	52
990.1569	2636.1914	929.7	48
990.2812	2637.4593	936.6	48
990.4055	2638.7265	933.85	50.45
990.5298	2639.9931	931.65	47.9
990.654	2641.259	931.9	48.25
990.7782	2642.5242	930.2	47.4
990.9023	2643.7887	930.05	47.8
991.0264	2645.0525	930.7	47.15
991.1505	2646.3156	932.5	51.1
991.2745	2647.5781	928.05	48.6
991.3985	2648.8398	930.4	47.2
991.5225	2650.1009	939.35	50.6
991.6464	2651.3613	929.85	49.25
991.7703	2652.6211	931.45	46.75
991.8942	2653.8801	927.15	45.55
992.018	2655.1385	931.95	46.85
992.1418	2656.3961	929.3	47.4
992.2655	2657.6531	927.3	45
992.3892	2658.9094	929	45.8
992.5129	2660.1651	924.85	43.9
992.6366	2661.42	927.3	45.75
992.7602	2662.6743	930.25	45.95
992.8837	2663.9279	927.3	45.05
993.0073	2665.1808	930.3	46.8
993.1307	2666.433	931.85	49.05
993.2542	2667.6846	927.4	44.6
993.3776	2668.9354	933.3	47.3
993.501	2670.1856	927.65	43
993.6244	2671.4351	928.75	45.9
993.7477	2672.6839	931.5	50.3
993.8709	2673.9321	930.3	48.35
993.9942	2675.1795	934.2	51.65
994.1174	2676.4263	930.9	47.3
994.2405	2677.6724	926.45	43.8
994.3637	2678.9179	931.45	49.65
994.4868	2680.1626	928.6	48.8
994.6098	2681.4067	930.15	47.8
994.7328	2682.6501	931.4	50.45
994.8558	2683.8928	927.55	45.05
994.9788	2685.1348	926.7	46.1
995.1017	2686.3761	927.55	46.05
995.2245	2687.6168	926.25	45.1
995.3474	2688.8568	927.7	46.5
995.4702	2690.0961	926.95	43.85
995.5929	2691.3348	923.75	39.4
995.7156	2692.5727	922.25	40.1
995.8383	2693.81	923.95	42.85
995.961	2695.0466	925.35	44.8
996.0836	2696.2826	928.05	44.4
996.2062	2697.5178	928	42.3
996.3287	2698.7524	929	44.5
996.4512	2699.9863	929	47.45
996.5737	2701.2195	924.1	44.4
996.6961	2702.452	926.65	42.6
996.8185	2703.6839	927.05	44.7
996.9408	2704.9151	926.1	46.3
997.0631	2706.1456	927.9	44.2
997.1854	2707.3755	926.9	45.05
997.3077	2708.6046	930.25	46.35
997.4299	2709.8331	927.6	44.7
997.552	2711.0609	931.25	49
997.6742	2712.2881	926.55	44.1
997.7963	2713.5145	932.75	39.45
997.9183	2714.7403	930.35	51.35
998.0403	2715.9654	930.35	46.85
998.1623	2717.1899	943.25	46.65
998.2842	2718.4136	928.85	48.3
998.4062	2719.6367	933.05	50.3
998.528	2720.8591	940.1	51.7
998.6498	2722.0809	934.85	53.65
998.7716	2723.3019	936.25	52.1
998.8934	2724.5223	934.2	50.2
999.0151	2725.7421	935.25	50.7
999.1368	2726.9611	938.5	53.25
999.2584	2728.1795	935.1	48.7
999.38	2729.3972	933.3	51.3
999.5016	2730.6142	936.8	48.25
999.6231	2731.8306	933.2	50.1
999.7446	2733.0462	928.3	46.45
999.8661	2734.2612	931.65	44.3
999.9875	2735.4756	927.8	45.6
1000.1089	2736.6892	925.05	42.35
1000.2302	2737.9022	923.75	44.7
1000.3515	2739.1145	921.95	41.45
1000.4728	2740.3262	933.2	43.8
1000.594	2741.5372	922.65	41.05
1000.7152	2742.7475	924.5	40.65
1000.8363	2743.9571	923.55	38.95
1000.9575	2745.1661	927.05	41.25
1001.0785	2746.3744	920.5	39
1001.1996	2747.582	919.3	38.75
1001.3206	2748.7889	920.2	36
1001.4415	2749.9952	917.75	37.3
1001.5625	2751.2008	918.65	37.9
1001.6833	2752.4057	921.9	37.5
1001.8042	2753.61	917.75	35.75
1001.925	2754.8136	919.9	35.8
1002.0458	2756.0165	918.35	38.1
1002.1665	2757.2188	916.45	34.15
1002.2872	2758.4204	920.05	39.5
1002.4078	2759.6213	920.9	37.3
1002.5285	2760.8215	925.9	40.85
1002.649	2762.0211	918.75	38.1
1002.7696	2763.22	920.7	34.7
1002.8901	2764.4182	918.35	36.7
1003.0106	2765.6158	919.1	39.05
1003.131	2766.8127	915.85	34.6
1003.2514	2768.009	916	36.45
1003.3717	2769.2045	918	35.85
1003.492	2770.3994	919.4	36.45
1003.6123	2771.5936	916.3	35.6
1003.7325	2772.7872	915.05	34.5
1003.8527	2773.9801	918.4	36.05
1003.9729	2775.1723	932.4	34.6
1004.093	2776.3639	914.7	35.8
1004.2131	2777.5548	920.15	36.35
1004.3331	2778.745	916.15	33.2
1004.4531	2779.9346	916.5	35.55
1004.5731	2781.1235	915.3	33.05
1004.693	2782.3117	914.9	34.75
1004.8129	2783.4992	913.55	33.5
1004.9328	2784.6861	914.25	34.05
1005.0526	2785.8723	918.6	37.75
1005.1723	2787.0579	919.5	35.8
1005.2921	2788.2428	917.25	37.95
1005.4118	2789.427	914.95	32.85
1005.5314	2790.6106	914.1	33.9
1005.651	2791.7935	917.15	35.8
1005.7706	2792.9757	915.1	35.8
1005.8902	2794.1573	915.9	34.55
1006.0097	2795.3382	916.55	36.25
1006.1291	2796.5184	914.3	37.15
1006.2485	2797.698	919.1	35.25
1006.3679	2798.8769	913.75	35.1
1006.4873	2800.0551	920.6	41.4
1006.6066	2801.2327	918.25	36.05
1006.7258	2802.4096	916.45	35.95
1006.8451	2803.5859	918.85	36.25
1006.9642	2804.7615	918.1	36.35
1007.0834	2805.9364	914.15	35.45
1007.2025	2807.1106	918.1	38
1007.3216	2808.2842	919.75	38.95
1007.4406	2809.4572	921.35	41.05
1007.5596	2810.6294	923.4	41.8
1007.6785	2811.801	919.25	40.25
1007.7975	2812.972	919.95	40.2
1007.9163	2814.1423	922.25	41.75
1008.0352	2815.3119	926.8	44.2
1008.154	2816.4808	930	51.75
1008.2727	2817.6491	934.25	55.25
1008.3914	2818.8167	932.65	51.6
1008.5101	2819.9837	941.65	55.9
1008.6288	2821.15	948.25	68.25
1008.7474	2822.3157	946.2	66.75
1008.8659	2823.4807	953.25	72.85
1008.9844	2824.645	959.3	76.55
1009.1029	2825.8086	963.5	83.3
1009.2214	2826.9716	970.75	91.45
1009.3398	2828.134	978.8	100
1009.4581	2829.2957	985.15	105.2
1009.5764	2830.4567	984.4	104.65
1009.6947	2831.617	989.85	109.8
1009.813	2832.7767	992.55	112.65
1009.9312	2833.9358	992.8	113.15
1010.0493	2835.0941	993.05	110.05
1010.1675	2836.2519	989.8	110.15
1010.2855	2837.4089	986.85	107.4
1010.4036	2838.5653	984.55	106.5
1010.5216	2839.7211	978.55	100.7
1010.6396	2840.8761	980.2	97.55
1010.7575	2842.0306	979.2	100.4
1010.8754	2843.1843	974.85	92.95
1010.9932	2844.3374	974.8	95.05
1011.111	2845.4899	978.5	97.25
1011.2288	2846.6417	980.6	100.75
1011.3465	2847.7928	978.85	100.75
1011.4642	2848.9433	983.65	105.3
1011.5818	2850.0931	983.2	103.9
1011.6995	2851.2422	986.3	102.8
1011.817	2852.3907	987.3	106.5
1011.9345	2853.5385	989.1	106.85
1012.052	2854.6857	1015.1	108.3
1012.1695	2855.8323	987.25	107.45
1012.2869	2856.9781	992.45	114.6
1012.4042	2858.1233	995.2	115.5
1012.5216	2859.2679	1000.6	121.35
1012.6389	2860.4118	1003.9	124.3
1012.7561	2861.555	1007.95	123.7
1012.8733	2862.6976	1006.4	125.55
1012.9905	2863.8395	1006.8	125.85
1013.1076	2864.9808	1008.35	129.55
1013.2247	2866.1214	1009	129.8
1013.3417	2867.2614	1011.75	130.25
1013.4587	2868.4007	1012.05	130.95
1013.5757	2869.5393	1016.25	132.95
1013.6926	2870.6773	1017.05	135.95
1013.8095	2871.8146	1016.75	132.25
1013.9263	2872.9513	1022.9	141.4
1014.0431	2874.0874	1017.65	137.25
1014.1599	2875.2227	1027.45	147.05
1014.2766	2876.3574	1024.15	143
1014.3933	2877.4915	1019.45	139.35
1014.51	2878.6249	1025.9	145.85
1014.6266	2879.7577	1027.5	148.35
1014.7431	2880.8898	1039.35	150.5
1014.8596	2882.0212	1026.8	150
1014.9761	2883.152	1034.5	153.45
1015.0925	2884.2821	1033.15	156.9
1015.2089	2885.4116	1034.7	157
1015.3253	2886.5405	1032.25	153.35
1015.4416	2887.6686	1039.1	155.75
1015.5579	2888.7962	1035.85	158.85
1015.6741	2889.923	1035.2	155.25
1015.7903	2891.0493	1035.8	157.2
1015.9065	2892.1748	1036.95	156.8
1016.0226	2893.2997	1035.2	155.6
1016.1387	2894.424	1034.7	156.65
1016.2547	2895.5476	1036.15	157.75
1016.3707	2896.6706	1035.4	156.05
1016.4866	2897.7929	1038.2	156.15
1016.6025	2898.9145	1036	157.65
1016.7184	2900.0355	1042	161.7
1016.8342	2901.1559	1035.6	153.5
1016.95	2902.2756	1042.5	157.3
1017.0658	2903.3946	1041.55	161.5
1017.1815	2904.513	1039.3	159.45
1017.2971	2905.6308	1034	153.55
1017.4127	2906.7479	1036.05	153.75
1017.5283	2907.8643	1038.65	159.45
1017.6439	2908.9801	1038	160.55
1017.7594	2910.0953	1031.8	153.2
1017.8748	2911.2098	1034.5	152
1017.9902	2912.3236	1042.55	154.45
1018.1056	2913.4368	1039.3	155.95
1018.2209	2914.5494	1037.25	158.95
1018.3362	2915.6613	1036.7	151.8
1018.4515	2916.7725	1031.9	149.6
1018.5667	2917.8831	1026.05	144.5
1018.6819	2918.9931	1029.2	147.35
1018.797	2920.1024	1027.2	146
1018.9121	2921.211	1021.95	143.75
1019.0271	2922.319	1015.8	136.25
1019.1421	2923.4264	1015.6	139
1019.2571	2924.5331	1016.2	136.9
1019.372	2925.6391	1018.4	140.05
1019.4869	2926.7445	1015.35	138.3
1019.6017	2927.8493	1021.55	143.1
1019.7165	2928.9534	1020.8	142.2
1019.8313	2930.0569	1023	139.45
1019.946	2931.1597	1021.2	139.85
1020.0606	2932.2619	1020.6	141.25
1020.1753	2933.3634	1022.95	143.05
1020.2899	2934.4643	1031.65	144.6
1020.4044	2935.5645	1034.45	150.15
1020.5189	2936.6641	1032.15	149.65
1020.6334	2937.763	1026.3	147.3
1020.7478	2938.8613	1025.9	145.55
1020.8622	2939.959	1028.35	142.6
1020.9765	2941.056	1024.85	147.95
1021.0908	2942.1523	1018.05	136.2
1021.2051	2943.248	1012.65	133.9
1021.3193	2944.3431	1001.95	121.1
1021.4334	2945.4375	996.85	118.75
1021.5476	2946.5313	992.35	115.15
1021.6617	2947.6244	982.85	103.35
1021.7757	2948.7169	977.85	97.15
1021.8897	2949.8087	972	93.85
1022.0037	2950.8999	970.85	92
1022.1176	2951.9904	963.4	86.35
1022.2315	2953.0803	962.25	82.75
1022.3453	2954.1696	957.95	76.95
1022.4591	2955.2582	952	74.75
1022.5728	2956.3462	954.35	76.05
1022.6865	2957.4335	952.45	72.9
1022.8002	2958.5202	950.9	71.75
1022.9138	2959.6062	949.85	70.35
1023.0274	2960.6916	947.05	69
1023.141	2961.7764	951.95	73.55
1023.2545	2962.8605	950.25	69.85
1023.3679	2963.9439	947.65	69.5
1023.4813	2965.0267	949.3	69.45
1023.5947	2966.1089	971.95	72.7
1023.708	2967.1905	951.5	74.15
1023.8213	2968.2714	945.25	68.5
1023.9346	2969.3516	945.95	67.95
1024.0478	2970.4312	954.8	69.75
1024.1609	2971.5102	945.4	66.85
1024.274	2972.5885	946.15	68.35
1024.3871	2973.6662	951.2	66.45
1024.5002	2974.7432	944.8	67.85
1024.6132	2975.8196	950.6	70.9
1024.7261	2976.8954	947.3	70.4
1024.839	2977.9705	948.4	70.55
1024.9519	2979.045	946.35	69.6
1025.0647	2980.1188	947.4	69.05
1025.1775	2981.192	944.15	66.2
1025.2902	2982.2645	945.45	66.35
1025.4029	2983.3364	943.95	64.1
1025.5156	2984.4077	942.95	65.55
1025.6282	2985.4783	946.9	62
1025.7407	2986.5483	940.2	62.45
1025.8532	2987.6177	935.9	58.5
1025.9657	2988.6864	934.85	56.1
1026.0782	2989.7545	936	57.15
1026.1906	2990.8219	931.65	54.4
1026.3029	2991.8887	930.4	50.8
1026.4152	2992.9548	927.9	47.8
1026.5275	2994.0204	922.25	44.4
1026.6397	2995.0852	919.85	42.5
1026.7519	2996.1495	920.1	38.45
1026.864	2997.2131	917.4	40
1026.9761	2998.276	915.7	38.2
1027.0882	2999.3383	914.4	33.25
1027.2002	3000.4	911.35	31.35
1027.3122	3001.4611	911.25	34.3
1027.4241	3002.5215	912.5	34.3
1027.536	3003.5812	908	32.85
1027.6478	3004.6404	907.4	29.4
1027.7596	3005.6989	907.95	29.1
1027.8714	3006.7567	906.5	28.05
1027.9831	3007.8139	937.3	24.95
1028.0947	3008.8705	902.2	23.45
1028.2064	3009.9264	907.8	25.75
1028.3179	3010.9818	906.95	27.65
1028.4295	3012.0364	902.2	23.7
1028.541	3013.0905	901.1	20.3
1028.6524	3014.1439	901.85	22.2
1028.7638	3015.1966	904.35	25.7
1028.8752	3016.2487	902.05	25.5
1028.9865	3017.3002	910.05	25.45
1029.0978	3018.3511	899.3	23.25
1029.209	3019.4013	903.35	23.6
1029.3202	3020.4509	900.35	22.7
1029.4314	3021.4998	902.85	22.85
1029.5425	3022.5481	899.9	23.7
1029.6535	3023.5958	902.95	24.1
1029.7645	3024.6428	902.15	23.75
1029.8755	3025.6892	898.85	19.1
1029.9864	3026.735	901.15	23.45
1030.0973	3027.7802	900.15	22.45
1030.2082	3028.8247	900.15	23.65
1030.319	3029.8685	899.35	20.7
1030.4297	3030.9118	899.3	20.35
1030.5404	3031.9544	897.85	22.05
1030.6511	3032.9963	899.8	22.5
1030.7617	3034.0376	896.8	20.2
1030.8723	3035.0783	903.85	22.75
1030.9829	3036.1184	900.1	22.05
1031.0934	3037.1578	898.45	22.5
1031.2038	3038.1966	900.45	20.9
1031.3142	3039.2348	898.1	19.4
1031.4246	3040.2723	909.15	20.8
1031.5349	3041.3092	897.55	20
1031.6452	3042.3455	897.7	18.65
1031.7554	3043.3811	900.55	23.7
1031.8656	3044.4161	900.7	22.5
1031.9758	3045.4505	898.85	20.65
1032.0859	3046.4842	899.6	23.3
1032.1959	3047.5173	900.6	22.4
1032.3059	3048.5498	900.75	23.15
1032.4159	3049.5816	899.8	21.2
1032.5258	3050.6128	900.7	21.55
1032.6357	3051.6434	900.6	20.65
1032.7455	3052.6734	899.8	21
1032.8553	3053.7027	897.5	20.8
1032.9651	3054.7314	898.35	18.85
1033.0748	3055.7594	898.8	22
1033.1845	3056.7868	901.65	23.5
1033.2941	3057.8136	898.6	21.4
1033.4037	3058.8398	901.4	24.95
1033.5132	3059.8653	900.6	19.7
1033.6227	3060.8902	901.1	22.6
1033.7321	3061.9145	903.2	25.05
1033.8415	3062.9381	900.45	22.9
1033.9509	3063.9612	915.9	19.4
1034.0602	3064.9835	901.25	22.65
1034.1694	3066.0053	903.15	23.35
1034.2787	3067.0264	900.5	23.7
1034.3878	3068.0469	902	22.45
1034.497	3069.0668	904.8	24.8
1034.6061	3070.086	900.1	24.25
1034.7151	3071.1046	901.9	24.5
1034.8241	3072.1226	902.7	24.35
1034.9331	3073.1399	900.25	21.45
1035.042	3074.1567	901.55	24.75
1035.1508	3075.1727	902.85	22
1035.2597	3076.1882	898.2	21.75
1035.3684	3077.203	897.95	20.1
1035.4772	3078.2173	898.3	18.25
1035.5859	3079.2308	900.1	19.1
1035.6945	3080.2438	900.7	20.35
1035.8031	3081.2561	899.3	20.7
1035.9117	3082.2678	896.7	19.55
1036.0202	3083.2789	896.75	20.1
1036.1286	3084.2893	896.65	17.75
1036.2371	3085.2991	894.35	18.4
1036.3454	3086.3083	898.9	15.95
1036.4538	3087.3169	895.2	15.1
1036.562	3088.3248	895.3	16.6
1036.6703	3089.3321	895.1	16.6
1036.7785	3090.3388	894.5	18.35
1036.8866	3091.3449	895.15	17.35
1036.9948	3092.3503	898.45	21.3
1037.1028	3093.3551	893.95	18.4
1037.2108	3094.3593	892.65	15.65
1037.3188	3095.3629	891.95	17.35
1037.4267	3096.3658	894	13.25
1037.5346	3097.3681	891.95	13.45
1037.6425	3098.3698	894.1	14.75
1037.7503	3099.3708	892.8	13.8
1037.858	3100.3713	894.35	16.5
1037.9657	3101.3711	893.9	15.3
1038.0734	3102.3702	1030.6	17.7
1038.181	3103.3688	893.85	13.8
1038.2886	3104.3667	890.25	13.5
1038.3961	3105.364	891.95	14.6
1038.5036	3106.3607	893	14.3
1038.611	3107.3568	890.95	12.55
1038.7184	3108.3522	889.7	11.65
1038.8257	3109.347	893.3	14.45
1038.933	3110.3412	896.25	14.85
1039.0403	3111.3348	889.7	11.9
1039.1475	3112.3277	889.1	11.1
1039.2547	3113.32	889.2	12.8
1039.3618	3114.3117	890.35	13.25
1039.4689	3115.3028	892.35	15.6
1039.5759	3116.2932	890.95	12.35
1039.6829	3117.2831	897.65	12.35
1039.7898	3118.2723	886.75	9.1
1039.8967	3119.2608	891.7	14.85
1040.0035	3120.2488	887.5	10.15
1040.1103	3121.2361	889.2	8.75
1040.2171	3122.2229	888.75	10.45
1040.3238	3123.209	889.9	12.1
1040.4305	3124.1944	887.95	11.3
1040.5371	3125.1793	892	12.05
1040.6437	3126.1635	888.1	12.8
1040.7502	3127.1471	888.85	11.55
1040.8567	3128.1301	887.05	9.1
1040.9631	3129.1125	886.65	9.85
1041.0695	3130.0942	888.1	10.05
1041.1759	3131.0753	895.25	9.2
1041.2822	3132.0558	889.85	9.75
1041.3884	3133.0357	887.55	8.8
1041.4946	3134.015	890.8	11.65
1041.6008	3134.9936	888.6	9.95
1041.7069	3135.9716	911.8	11.85
1041.813	3136.949	887.15	8.6
1041.919	3137.9258	906.05	11.55
1042.025	3138.902	893.2	10.7
1042.1309	3139.8775	885.15	8.65
1042.2368	3140.8524	887.2	10.65
1042.3427	3141.8267	890	12.05
1042.4485	3142.8004	887.9	9.1
1042.5542	3143.7735	892.8	10.95
1042.6599	3144.7459	890.3	12.15
1042.7656	3145.7178	888.15	9.9
1042.8712	3146.689	884.75	5.95
1042.9768	3147.6596	889.25	9.8
1043.0823	3148.6295	885.6	5.75
1043.1878	3149.5989	886.95	12.45
1043.2932	3150.5676	884.8	7.2
1043.3986	3151.5357	882.95	8.05
1043.5039	3152.5032	884.65	9.9
1043.6092	3153.4701	884.05	8.65
1043.7145	3154.4364	889.6	9.25
1043.8197	3155.402	884.45	8.3
1043.9248	3156.367	887.2	7.4
1044.03	3157.3315	930.95	7.85
1044.135	3158.2952	888.25	11.05
1044.24	3159.2584	884.8	6.85
1044.345	3160.221	884.85	7.85
1044.4499	3161.1829	884.4	6.1
1044.5548	3162.1442	885.2	9.5
1044.6596	3163.105	884.2	6.3
1044.7644	3164.065	885.3	8.45
1044.8692	3165.0245	888.95	10.15
1044.9739	3165.9834	884.75	8.3
1045.0785	3166.9416	885.55	10.1
1045.1831	3167.8993	885.55	8
1045.2877	3168.8563	886.05	8.2
1045.3922	3169.8127	885.65	8.9
1045.4966	3170.7684	884.85	9.6
1045.6011	3171.7236	887.45	9.2
1045.7054	3172.6782	885.4	8.1
1045.8098	3173.6321	883.45	9.05
1045.914	3174.5854	889.1	7.1
1046.0183	3175.5381	883.35	5.85
1046.1224	3176.4902	884.9	8.65
1046.2266	3177.4417	884.35	9.25
1046.3307	3178.3926	884.3	7.9
1046.4347	3179.3428	882.6	5.9
1046.5387	3180.2924	883	8.35
1046.6427	3181.2415	887.1	9.5
1046.7466	3182.1899	885.5	7
1046.8504	3183.1377	884.55	8.6
1046.9542	3184.0848	887.6	7.7
1047.058	3185.0314	884	6.15
1047.1617	3185.9773	885.6	8.3
1047.2654	3186.9227	881.25	3.2
1047.369	3187.8674	884.25	7.3
1047.4726	3188.8115	888.55	7.2
1047.5761	3189.755	884.9	6.75
1047.6796	3190.6979	885.15	8.25
1047.783	3191.6402	882.15	5.25
1047.8864	3192.5818	884.35	7.45
1047.9898	3193.5229	889.85	6.75
1048.0931	3194.4633	883.05	6.85
1048.1963	3195.4031	884.85	5.15
1048.2995	3196.3423	883.35	7.65
1048.4027	3197.2809	884.25	6.9
1048.5058	3198.2189	884.55	6.85
1048.6089	3199.1563	891.1	8.4
1048.7119	3200.0931	880.75	4.8
1048.8148	3201.0292	881.95	5
1048.9178	3201.9648	881.45	5.3
1049.0206	3202.8997	884.85	5.4
1049.1235	3203.834	881.95	3.5
1049.2262	3204.7677	883.95	5.65
1049.329	3205.7008	884.1	5.55
1049.4317	3206.6333	881.65	5.25
1049.5343	3207.5652	886.85	8.1
1049.6369	3208.4964	884	7.5
1049.7394	3209.4271	882.85	7.15
1049.8419	3210.3571	881.65	5.2
1049.9444	3211.2865	885.8	5.5
1050.0468	3212.2154	884.75	7
1050.1491	3213.1436	884.4	5.1
1050.2514	3214.0712	889.1	5.9
1050.3537	3214.9982	884.9	8.55
1050.4559	3215.9246	882.35	5.05
1050.5581	3216.8503	881.6	4.75
1050.6602	3217.7755	882.75	6.15
1050.7623	3218.7001	881.6	6.6
1050.8643	3219.624	885.35	7.9
1050.9663	3220.5473	882.9	5.8
1051.0682	3221.4701	885.5	6.5
1051.1701	3222.3922	886.05	6.55
1051.2719	3223.3137	881.9	7.15
1051.3737	3224.2346	883.15	7.1
1051.4754	3225.1549	880.65	3.4
1051.5771	3226.0746	881.2	3.5
1051.6788	3226.9937	880.45	3.6
1051.7804	3227.9121	882.05	7.45
1051.8819	3228.83	880.4	3.35
1051.9834	3229.7473	883.1	5.45
1052.0849	3230.6639	884.65	6.4
1052.1863	3231.5799	881.6	5.1
1052.2876	3232.4954	882.95	3.95
1052.3889	3233.4102	882.15	4.5
1052.4902	3234.3244	880.35	2.7
1052.5914	3235.238	880.65	5.6
1052.6926	3236.151	908.45	7.6
1052.7937	3237.0634	880.95	6.3
1052.8948	3237.9752	881.55	3.05
1052.9958	3238.8864	880.75	2.15
1053.0968	3239.797	883.35	7.7
1053.1977	3240.7069	883.15	6.85
1053.2986	3241.6163	883.95	6.6
1053.3994	3242.5251	878.4	2.55
1053.5002	3243.4332	882	3.55
1053.6009	3244.3408	882.55	4.65
1053.7016	3245.2477	881.7	5.3
1053.8022	3246.154	882.15	4.75
1053.9028	3247.0598	882.7	4.65
1054.0034	3247.9649	879.75	2.7
1054.1039	3248.8694	881.5	5.35
1054.2043	3249.7733	879.6	4.1
1054.3047	3250.6766	882	3.5
1054.4051	3251.5793	883.85	6.35
1054.5054	3252.4814	881.25	3.85
1054.6056	3253.3829	879.85	4
1054.7058	3254.2838	882.35	5.45
1054.806	3255.1841	881.3	4.6
1054.9061	3256.0838	883.2	6.65
1055.0061	3256.9829	881.3	6.9
1055.1062	3257.8814	882.45	3.1
1055.2061	3258.7792	883.25	5.9
1055.306	3259.6765	880.65	3.15
1055.4059	3260.5731	881.6	4.3
1055.5057	3261.4692	880.9	3.5
1055.6055	3262.3647	881.45	4.95
1055.7052	3263.2595	880.9	5.45
1055.8049	3264.1538	879.6	4.55
1055.9045	3265.0474	882.95	4.55
1056.0041	3265.9404	880.5	5.45
1056.1036	3266.8329	877.75	3.7
1056.2031	3267.7247	890.3	3.65
1056.3025	3268.616	878.25	3.45
1056.4019	3269.5066	882.15	3.2
1056.5013	3270.3966	881.85	3.2
1056.6005	3271.286	879.5	3.75
