Software Version:	3.9.2.0
Unit SN:	10000200
Spectrometer SN:	6960
Date:	3/8/2024 12:51:49 PM
Data Line Index:	25
Spectral Points:	2048
Integration time (ms):	125
Averages:	20
Delay (ms):	30000
Sequence Number:	1
Processing:	dark subtract
Laser Power (mW):	305
Laser Current (mA):	822
Laser Diode Temp (C):	25
Laser Case Temp (C):	26.1
System Temp (C):	26.1
Spectrometer Temp (C):	24
CCD Temp (C):	0
Secondary Temp (C):	20.01
Heatsink Temp (C):	20.424
CCDPCB Temp (C):	36.107
SecondaryPCB Temp (C):	31.216

Wavelength	RamanShift	Raw Counts	Dark Subtracted
787.061	30.1047	451.9	43.2
787.2016	32.3739	451.25	44.8
787.3422	34.6426	458.6	52.5
787.4828	36.9109	463.85	54.9
787.6235	39.1787	469.8	57.3
787.7642	41.4461	481.05	63.75
787.9049	43.7131	492.6	71.95
788.0456	45.9796	499.5	75.25
788.1863	48.2456	510.75	81.75
788.3271	50.5112	519.25	85.6
788.4679	52.7764	527.1	90.4
788.6087	55.0411	537.35	97.6
788.7496	57.3054	549.45	105.15
788.8904	59.5692	555.6	109.5
789.0313	61.8326	567.2	118.15
789.1722	64.0955	579	126.95
789.3132	66.3579	593.3	137
789.4541	68.6199	618.7	156
789.5951	70.8815	654.9	187.75
789.7361	73.1426	733.15	264.05
789.8771	75.4032	948.2	473.25
790.0181	77.6634	1472.25	993.35
790.1592	79.9231	2695.75	2206.8
790.3003	82.1824	5335.05	4827.45
790.4414	84.4412	10068.35	9522.35
790.5825	86.6995	16552.85	15963.55
790.7237	88.9574	22781.8	22158.3
790.8648	91.2148	27007.8	26356.15
791.006	93.4717	28858.15	28190
791.1472	95.7282	29064.8	28389.85
791.2885	97.9842	28764.1	28085.4
791.4297	100.2398	27995.65	27314.95
791.571	102.4949	27105.25	26420.95
791.7123	104.7495	26128.3	25443.05
791.8536	107.0036	25154.1	24467.45
791.9949	109.2573	24317.55	23631.75
792.1363	111.5105	23500	22809.55
792.2777	113.7632	22747.35	22056.15
792.4191	116.0154	22170.9	21468.3
792.5605	118.2672	21715.6	21017.45
792.7019	120.5185	21276.05	20578.1
792.8434	122.7693	20948.65	20246.1
792.9849	125.0197	20635.4	19927.25
793.1264	127.2696	20336.5	19630.15
793.2679	129.519	20158.85	19445.35
793.4094	131.7679	19870.7	19153.15
793.551	134.0163	19575.85	18854
793.6926	136.2642	19246.9	18525.25
793.8342	138.5117	18889.95	18162.9
793.9758	140.7587	18485.2	17761.7
794.1175	143.0052	18177.1	17447.75
794.2591	145.2512	17790.4	17057
794.4008	147.4967	17483.9	16753.3
794.5425	149.7417	17240.45	16505.6
794.6842	151.9863	17054.05	16316.35
794.826	154.2304	16954.15	16213
794.9677	156.4739	16738.3	15991.85
795.1095	158.717	16633.05	15888.85
795.2513	160.9596	16475.7	15722.3
795.3931	163.2017	16182.55	15429.75
795.535	165.4433	15884.35	15128.8
795.6768	167.6844	15540.8	14783.2
795.8187	169.925	15197.55	14438.8
795.9606	172.1651	14805.45	14044.35
796.1025	174.4047	14542.65	13778.8
796.2445	176.6439	14283.1	13518
796.3864	178.8825	14048.05	13282.65
796.5284	181.1206	13922.15	13149.15
796.6704	183.3582	13741.5	12967.1
796.8124	185.5954	13668.35	12890.15
796.9544	187.832	13594.85	12809.55
797.0965	190.0681	13543.55	12761.85
797.2386	192.3037	13536.85	12743.65
797.3806	194.5388	13529.8	12734.8
797.5228	196.7734	13534.65	12740.5
797.6649	199.0075	13607.7	12813.55
797.807	201.2411	13737.95	12935.75
797.9492	203.4742	13822.75	13024
798.0914	205.7068	13993.2	13192.65
798.2336	207.9389	14108.2	13303.35
798.3758	210.1704	14302.1	13502.4
798.518	212.4015	14374.45	13588.8
798.6603	214.632	14529	13743.55
798.8025	216.862	14676.9	13890.8
798.9448	219.0915	14816.95	14036.1
799.0871	221.3205	14931.85	14142.7
799.2294	223.549	15032	14253.45
799.3718	225.777	15161.65	14378.45
799.5141	228.0044	15307.25	14514.6
799.6565	230.2314	15566.65	14777.8
799.7989	232.4578	15722.5	14932.8
799.9413	234.6837	15890.8	15091.25
800.0837	236.909	15991.5	15187.6
800.2262	239.1339	15999.85	15167
800.3687	241.3582	15898.6	15085.6
800.5111	243.582	15719.65	14874.8
800.6536	245.8053	15578.4	14750.8
800.7961	248.0281	15486	14657.35
800.9387	250.2503	15454.85	14624.2
801.0812	252.472	15454.55	14624
801.2238	254.6932	15531.6	14700.85
801.3664	256.9139	15641.45	14811.35
801.509	259.134	15829.15	14993.05
801.6516	261.3536	16039.95	15208
801.7942	263.5727	16304	15468.75
801.9369	265.7912	16534.55	15700.05
802.0795	268.0092	16768.5	15933.45
802.2222	270.2267	16965	16126.85
802.3649	272.4436	17066.35	16232.65
802.5076	274.6601	17076.95	16232.15
802.6504	276.8759	16977.65	16139.8
802.7931	279.0913	16885.85	16043.6
802.9359	281.3061	16735.55	15891
803.0787	283.5204	16723.8	15874.7
803.2215	285.7341	16687.55	15832.7
803.3643	287.9473	16741.9	15882.3
803.5071	290.16	16817.45	15962.95
803.6499	292.3721	16982.4	16137.65
803.7928	294.5837	17255.15	16409
803.9357	296.7947	17486.65	16639.65
804.0786	299.0052	17661	16809.65
804.2215	301.2152	17603.45	16755.5
804.3644	303.4246	17384.95	16539.1
804.5074	305.6334	17012.5	16165.5
804.6503	307.8418	16534.1	15682.05
804.7933	310.0495	16115.2	15261.3
804.9363	312.2568	15679.15	14821.7
805.0793	314.4635	15290.65	14431.8
805.2223	316.6696	15027	14166.9
805.3653	318.8752	14852.9	13982.8
805.5084	321.0802	14784.1	13921.8
805.6514	323.2847	14843.05	13978.9
805.7945	325.4887	14804.8	13941.7
805.9376	327.692	14790.2	13924.35
806.0807	329.8949	14719.75	13849.45
806.2238	332.0972	14530.3	13660
806.367	334.2989	14292.05	13425.05
806.5101	336.5001	14053.95	13181.95
806.6533	338.7007	13842.5	12970.9
806.7965	340.9008	13659.9	12789.35
806.9397	343.1003	13505.8	12633.3
807.0829	345.2992	13388.3	12517.7
807.2261	347.4976	13285.3	12412.1
807.3693	349.6955	13216.35	12337.55
807.5126	351.8927	13226.25	12341.2
807.6559	354.0895	13185.8	12294.15
807.7991	356.2856	13144.55	12260.3
807.9424	358.4812	13094.65	12211.95
808.0857	360.6763	13100.45	12215.9
808.2291	362.8707	13092.95	12207.7
808.3724	365.0646	13160.85	12275.6
808.5158	367.258	13176.45	12287.2
808.6591	369.4508	13252.95	12360.2
808.8025	371.643	13373.5	12484.05
808.9459	373.8346	13455.9	12563.3
809.0893	376.0257	13532.75	12631.3
809.2327	378.2162	13537.1	12640.25
809.3762	380.4062	13505.8	12612.05
809.5196	382.5956	13395.1	12507.5
809.6631	384.7844	13268.95	12385.75
809.8066	386.9726	13131.6	12250.7
809.9501	389.1603	13062.45	12178.45
810.0936	391.3474	12986.45	12073.05
810.2371	393.5339	12958.4	12065.65
810.3806	395.7199	12940.3	12056.2
810.5241	397.9052	12992.2	12107.2
810.6677	400.09	13028.4	12145.75
810.8113	402.2743	13168.3	12283.1
810.9548	404.4579	13329.3	12440.75
811.0984	406.641	13554.2	12667.15
811.2421	408.8235	13743.5	12854.65
811.3857	411.0054	13928.65	13038.4
811.5293	413.1868	14168.45	13274.75
811.673	415.3675	14257	13358
811.8166	417.5477	14266.1	13363.75
811.9603	419.7273	14294.1	13395.45
812.104	421.9064	14191.1	13284.4
812.2477	424.0848	14117.75	13217.85
812.3914	426.2627	13951.55	13054.75
812.5351	428.4399	13727.4	12823.6
812.6788	430.6166	13362.05	12457.35
812.8226	432.7928	13016.2	12109.1
812.9663	434.9683	12698.6	11799.2
813.1101	437.1432	12438.15	11537.4
813.2539	439.3176	12255.75	11362.05
813.3977	441.4914	12173.35	11281.6
813.5415	443.6645	12145.05	11247.5
813.6853	445.8371	12080.35	11177.35
813.8291	448.0091	12033.15	11132
813.973	450.1806	12039.5	11140.15
814.1168	452.3514	11995.75	11098.15
814.2607	454.5216	12041.05	11130.95
814.4046	456.6913	12000.95	11099.25
814.5485	458.8603	12037.05	11137.35
814.6924	461.0288	12099.85	11203.15
814.8363	463.1967	12096.9	11207.9
814.9802	465.3639	12139.3	11243.55
815.1241	467.5306	12145.5	11243.85
815.2681	469.6967	12165.55	11268.3
815.412	471.8622	12227.6	11335.4
815.556	474.0271	12302.4	11405.1
815.7	476.1914	12337.55	11433.9
815.844	478.3551	12355.5	11453.35
815.988	480.5182	12369.15	11470
816.132	482.6807	12466.35	11575.7
816.276	484.8426	12640.55	11757.2
816.4201	487.0039	12960.8	12070.4
816.5641	489.1647	13377.4	12475
816.7082	491.3248	13737.7	12834.05
816.8522	493.4843	13875.65	12980.2
816.9963	495.6432	13819.85	12925.1
817.1404	497.8015	13677.75	12772.2
817.2845	499.9592	13620.15	12707.6
817.4286	502.1163	13427.05	12513.2
817.5727	504.2728	13091.4	12190.6
817.7168	506.4287	12791.3	11901.25
817.861	508.5839	12455.15	11561.8
818.0051	510.7386	12245.95	11346.1
818.1493	512.8927	12115.75	11204.6
818.2935	515.0461	12095.9	11189.05
818.4377	517.199	12153.65	11243.05
818.5818	519.3512	12281.15	11367.95
818.726	521.5029	12546.6	11633.7
818.8703	523.6539	12775.65	11866.55
819.0145	525.8043	12884.25	11968.1
819.1587	527.9541	12848.05	11934
819.303	530.1033	12671.95	11764.3
819.4472	532.2519	12530.1	11619.25
819.5915	534.3999	12509.6	11597.3
819.7357	536.5472	12596.2	11686.25
819.88	538.694	12861.1	11954.6
820.0243	540.8401	13190.65	12275.9
820.1686	542.9856	13460	12535.85
820.3129	545.1305	13522.2	12596.5
820.4572	547.2748	13466.55	12536.15
820.6016	549.4185	13235.85	12300.55
820.7459	551.5615	13041.05	12114.05
820.8902	553.704	13022.4	12096.1
821.0346	555.8458	13062.25	12137.7
821.1789	557.987	13233.8	12312.7
821.3233	560.1276	13473.2	12547.45
821.4677	562.2675	13803.75	12878.8
821.6121	564.4069	14247.95	13325.15
821.7565	566.5456	14625.55	13702.3
821.9009	568.6837	14747.05	13826.95
822.0453	570.8212	14383.8	13469.9
822.1897	572.958	13727.05	12806.9
822.3342	575.0942	13113.95	12196.65
822.4786	577.2299	12704.6	11793.15
822.6231	579.3648	12474.85	11574.9
822.7675	581.4992	12437.3	11549.85
822.912	583.6329	12557.3	11669.2
823.0565	585.766	12751.3	11850.25
823.201	587.8985	12907.45	12004.9
823.3454	590.0304	12948	12008.8
823.4899	592.1616	12885.9	11963.4
823.6345	594.2922	12776.25	11851.05
823.779	596.4222	12588.7	11657.15
823.9235	598.5515	12370.85	11440.05
824.068	600.6802	12220.45	11290.6
824.2126	602.8083	12053.4	11130.4
824.3571	604.9358	12022.25	11096
824.5017	607.0626	12026.4	11098.05
824.6462	609.1888	12128.1	11191.05
824.7908	611.3144	12255.05	11323.2
824.9354	613.4393	12326.75	11392.85
825.08	615.5636	12386.15	11453.5
825.2246	617.6873	12416.9	11486.6
825.3692	619.8103	12334.9	11400.4
825.5138	621.9327	12150.95	11222.05
825.6584	624.0544	11960.3	11035
825.803	626.1756	11781.35	10853.75
825.9477	628.2961	11647.05	10717.2
826.0923	630.4159	11580.4	10652
826.237	632.5351	11552.75	10619.55
826.3816	634.6537	11523.85	10589.15
826.5263	636.7716	11525.45	10584.1
826.6709	638.8889	11549.4	10608.1
826.8156	641.0056	11571.85	10629.55
826.9603	643.1216	11535.25	10595.8
827.105	645.237	11524	10586.2
827.2497	647.3518	11439.2	10511.4
827.3944	649.4659	11404.6	10477.1
827.5391	651.5793	11344.05	10417.25
827.6838	653.6922	11293.2	10361.6
827.8285	655.8043	11314.1	10384.6
827.9733	657.9159	11314.55	10383.85
828.118	660.0268	11258.1	10326.95
828.2627	662.137	11245.55	10313.25
828.4075	664.2466	11248.6	10310.55
828.5522	666.3556	11239.95	10300.2
828.697	668.4639	11210.5	10276.15
828.8418	670.5716	11159.3	10230.7
828.9865	672.6786	11154.3	10218.75
829.1313	674.785	11123.8	10180.3
829.2761	676.8907	11108.3	10169.55
829.4209	678.9958	11166.8	10239.25
829.5657	681.1002	11125.45	10191.3
829.7105	683.204	11110.5	10163.45
829.8553	685.3072	11088.2	10141.9
830.0001	687.4097	11069.3	10129
830.1449	689.5115	11058.8	10115.35
830.2898	691.6127	11041.75	10105.15
830.4346	693.7132	11004.75	10072.7
830.5794	695.8131	11026.85	10075.3
830.7243	697.9123	11034.2	10095.7
830.8691	700.0109	11071.8	10123.25
831.014	702.1089	11117.35	10174.45
831.1588	704.2061	11117.5	10174.95
831.3037	706.3028	11198.05	10252.95
831.4486	708.3987	11229.35	10287
831.5935	710.4941	11254	10310.45
831.7383	712.5887	11314.9	10374.25
831.8832	714.6827	11455.85	10511.4
832.0281	716.7761	11631.75	10693.85
832.173	718.8688	11844.3	10906.25
832.3179	720.9608	12019.85	11073.4
832.4628	723.0522	12148.15	11194.15
832.6077	725.1429	12149.3	11201.65
832.7527	727.233	12200.25	11256.3
832.8976	729.3224	12201.9	11260.35
833.0425	731.4112	12095.5	11151.5
833.1874	733.4993	11926.65	10984.4
833.3324	735.5867	11705.1	10763.45
833.4773	737.6735	11499.5	10555.7
833.6222	739.7596	11311.45	10362.75
833.7672	741.845	11181.9	10237.45
833.9122	743.9298	11092.75	10147.85
834.0571	746.014	11093.95	10149.5
834.2021	748.0974	11078.4	10125.1
834.347	750.1802	11069	10117.2
834.492	752.2624	11079.55	10130.85
834.637	754.3439	11148.2	10196.5
834.782	756.4247	11248	10293.65
834.9269	758.5048	11425.35	10478.2
835.0719	760.5843	11735.35	10781.95
835.2169	762.6631	12170.6	11219.55
835.3619	764.7413	12721	11773.2
835.5069	766.8188	13481.35	12529.75
835.6519	768.8956	14034.1	13079.85
835.7969	770.9718	14437.45	13484.85
835.9419	773.0473	14327.95	13378.75
836.0869	775.1221	14089.7	13138.2
836.232	777.1962	13764.1	12815.35
836.377	779.2697	13640.95	12689.1
836.522	781.3426	13721.1	12760.25
836.667	783.4147	13832.7	12877.3
836.8121	785.4862	13946.65	12995.75
836.9571	787.557	13784.9	12834
837.1021	789.6271	13334.4	12379.4
837.2472	791.6966	12697.3	11744.45
837.3922	793.7654	12085.4	11134.8
837.5373	795.8335	11654.95	10706.55
837.6823	797.901	11351.35	10400.75
837.8274	799.9678	11170.3	10214.8
837.9724	802.0339	11115.55	10163.1
838.1175	804.0993	11099	10135.1
838.2626	806.1641	11019	10064.25
838.4076	808.2282	10929.65	9980.45
838.5527	810.2916	10841.05	9885.2
838.6978	812.3544	10766.1	9813.4
838.8428	814.4164	10767	9817.65
838.9879	816.4778	10774.45	9818.65
839.133	818.5385	10816.65	9858.4
839.2781	820.5986	10936.25	9978.9
839.4232	822.658	11205.8	10247.15
839.5682	824.7166	11492.55	10541.15
839.7133	826.7747	12011.4	11053.5
839.8584	828.832	12511.2	11551.3
840.0035	830.8886	12874.7	11916.15
840.1486	832.9446	13059.6	12104.8
840.2937	834.9999	12925.55	11973.95
840.4388	837.0545	12682.15	11724.85
840.5839	839.1085	12361.6	11402.7
840.729	841.1618	12087.2	11124.9
840.8741	843.2143	11835.95	10879.7
841.0192	845.2662	11654.8	10697.1
841.1643	847.3175	11514.4	10555.4
841.3095	849.368	11399.7	10441.7
841.4546	851.4179	11298.25	10340.55
841.5997	853.467	11174.25	10218.7
841.7448	855.5155	11086.7	10130.35
841.8899	857.5633	11020.8	10067.3
842.0351	859.6105	10959.25	10004.3
842.1802	861.6569	10861.5	9906.3
842.3253	863.7027	10784.85	9822.2
842.4704	865.7478	10740.95	9782.55
842.6156	867.7922	10694.8	9736.75
842.7607	869.8359	10689.75	9730.9
842.9058	871.8789	10723.55	9761.8
843.0509	873.9212	10872.1	9882.8
843.1961	875.9629	10916.05	9954
843.3412	878.0039	11083	10121.8
843.4863	880.0441	11172.95	10214.7
843.6315	882.0837	11220.15	10261.45
843.7766	884.1226	11227.4	10266.15
843.9218	886.1609	11267.5	10308.6
844.0669	888.1984	11350.05	10391.8
844.212	890.2352	11459.75	10498.9
844.3572	892.2714	11484.4	10517.3
844.5023	894.3069	11445.4	10485.8
844.6475	896.3416	11271.35	10307.75
844.7926	898.3757	11127.6	10167.35
844.9377	900.4091	11048.2	10087.55
845.0829	902.4418	11019.45	10053.3
845.228	904.4739	11069.2	10105.6
845.3732	906.5052	11130.35	10167.8
845.5183	908.5358	11081.95	10120.05
845.6635	910.5658	10938.4	9969.45
845.8086	912.595	10730.8	9771.3
845.9538	914.6236	10505.3	9541.05
846.0989	916.6515	10362.5	9401.2
846.2441	918.6786	10323.35	9360.65
846.3892	920.7051	10298.5	9333.5
846.5344	922.7309	10364.55	9402.15
846.6795	924.756	10409.25	9450.8
846.8246	926.7804	10480.65	9519.85
846.9698	928.8041	10471	9509.25
847.1149	930.8272	10533.25	9569.05
847.2601	932.8495	10518.25	9549.45
847.4052	934.8711	10489.3	9525.1
847.5504	936.892	10432.75	9471.25
847.6955	938.9123	10416.05	9452.55
847.8407	940.9318	10403.6	9441.25
847.9858	942.9506	10383.65	9419.95
848.131	944.9688	10305.65	9343.85
848.2761	946.9862	10216.4	9257.85
848.4213	949.003	10086.25	9124.45
848.5664	951.019	10000.4	9035.8
848.7115	953.0344	9955.85	8993.15
848.8567	955.0491	9942.1	8977.9
849.0018	957.063	10000.8	9039.75
849.147	959.0763	10097.8	9134.05
849.2921	961.0888	10132.7	9168.85
849.4373	963.1007	10161	9202.65
849.5824	965.1119	10184.1	9232.85
849.7275	967.1223	10191.7	9244.5
849.8727	969.1321	10172.35	9227.5
850.0178	971.1412	10178.95	9224.95
850.1629	973.1495	10170.4	9211.55
850.3081	975.1572	10247.35	9244.6
850.4532	977.1641	10235.85	9272.75
850.5983	979.1704	10201.65	9236.65
850.7435	981.1759	10197.6	9232.85
850.8886	983.1808	10223.25	9259.45
851.0337	985.1849	10247.1	9270.25
851.1788	987.1884	10287.7	9325.55
851.324	989.1911	10421.7	9462.65
851.4691	991.1932	10515.2	9552.05
851.6142	993.1945	10505.8	9547.4
851.7593	995.1951	10504.3	9542.3
851.9045	997.1951	10449.25	9483.75
852.0496	999.1943	10404.95	9444.45
852.1947	1001.1928	10395.6	9433.6
852.3398	1003.1906	10441.35	9480.75
852.4849	1005.1877	10554.95	9593.55
852.63	1007.1841	10607.75	9647.9
852.7751	1009.1798	10630.45	9670.3
852.9202	1011.1748	10547.2	9585.5
853.0653	1013.1691	10393.45	9434.25
853.2104	1015.1627	10195.55	9237
853.3555	1017.1556	9988.25	9030.45
853.5006	1019.1477	9852.4	8892.5
853.6457	1021.1392	9728.9	8778.5
853.7908	1023.1299	9717.4	8768.6
853.9359	1025.12	9711.35	8768.1
854.081	1027.1093	9768	8835.95
854.2261	1029.0979	9870.05	8946.65
854.3712	1031.0859	9995.75	9061.55
854.5163	1033.0731	10020.1	9074.45
854.6613	1035.0596	10000.4	9047.05
854.8064	1037.0454	9872.9	8917.6
854.9515	1039.0304	9777.8	8820.7
855.0965	1041.0148	9648	8693.15
855.2416	1042.9985	9554.05	8593
855.3867	1044.9814	9530.8	8573.8
855.5317	1046.9636	9451.6	8493.25
855.6768	1048.9452	9421.55	8468.2
855.8219	1050.926	9471.65	8516.6
855.9669	1052.9061	9494.45	8537.3
856.112	1054.8855	9531.25	8574.95
856.257	1056.8642	9573.3	8613.3
856.4021	1058.8421	9601.95	8640
856.5471	1060.8194	9625	8667.5
856.6921	1062.7959	9722.1	8765.6
856.8372	1064.7717	9784.6	8827.95
856.9822	1066.7469	9834.2	8873.35
857.1272	1068.7213	9893.6	8935.95
857.2723	1070.695	9965.6	9005.55
857.4173	1072.6679	9979.5	9019.85
857.5623	1074.6402	9991.15	9035.25
857.7073	1076.6117	9946.35	8981.75
857.8523	1078.5826	9848.45	8890.1
857.9973	1080.5527	9749.8	8787.5
858.1423	1082.5221	9666.4	8710.2
858.2873	1084.4908	9695.2	8734.8
858.4323	1086.4587	9743.9	8784.55
858.5773	1088.426	9778.3	8813.85
858.7223	1090.3925	9795.2	8831.4
858.8673	1092.3584	9822.8	8864.4
859.0123	1094.3235	9814.9	8859.35
859.1573	1096.2879	9876.95	8918.95
859.3022	1098.2515	9998.8	9043.65
859.4472	1100.2145	10162.5	9209.55
859.5922	1102.1767	10331.8	9372.15
859.7371	1104.1382	10576	9617.85
859.8821	1106.099	10837.7	9881.55
860.027	1108.0591	11058.95	10101.35
860.172	1110.0185	11224.1	10268.9
860.3169	1111.9771	11306.9	10349.85
860.4619	1113.9351	11202.1	10245.3
860.6068	1115.8923	11046.45	10088.9
860.7517	1117.8488	10880.3	9920.45
860.8967	1119.8045	10664.05	9706.6
861.0416	1121.7596	10525.15	9570.1
861.1865	1123.7139	10398.05	9444.1
861.3314	1125.6675	10347.05	9392.35
861.4763	1127.6204	10354.5	9398.3
861.6212	1129.5726	10379.05	9422.8
861.7661	1131.524	10265.5	9309
861.911	1133.4748	10137.4	9182.65
862.0559	1135.4248	9960.2	9003.25
862.2008	1137.3741	9828.8	8873.4
862.3457	1139.3226	9722.15	8763.05
862.4905	1141.2705	9672.1	8716.2
862.6354	1143.2176	9564.85	8603.55
862.7803	1145.164	9528.55	8568.15
862.9251	1147.1097	9498.45	8542.65
863.07	1149.0546	9374.8	8418.1
863.2148	1150.9989	9305.6	8353.85
863.3597	1152.9424	9189.4	8232.35
863.5045	1154.8852	9096.45	8142.25
863.6493	1156.8272	9058.5	8101.9
863.7942	1158.7686	9062.15	8097.1
863.939	1160.7092	9074.25	8114.2
864.0838	1162.6491	9094.7	8140.85
864.2286	1164.5883	9199.7	8244.45
864.3734	1166.5267	9341.3	8383.7
864.5182	1168.4644	9467.7	8512.95
864.663	1170.4014	9694.65	8738.95
864.8078	1172.3377	9956.85	9003.25
864.9526	1174.2732	10250.2	9295.6
865.0974	1176.2081	10657.25	9703.5
865.2421	1178.1421	11156.65	10197.65
865.3869	1180.0755	11665.45	10712.1
865.5317	1182.0082	12042.25	11089
865.6764	1183.9401	12200.6	11252.05
865.8212	1185.8713	12041.95	11093.9
865.9659	1187.8017	11745.6	10808.15
866.1106	1189.7315	11307.05	10377.25
866.2554	1191.6605	10919	9990.35
866.4001	1193.5888	10662.05	9724.55
866.5448	1195.5163	10500.25	9556.35
866.6895	1197.4432	10376.4	9426.95
866.8342	1199.3693	10350.15	9397.15
866.9789	1201.2947	10305.6	9351.25
867.1236	1203.2193	10302.05	9352
867.2683	1205.1432	10285.5	9333.85
867.413	1207.0664	10264.3	9310.25
867.5576	1208.9889	10252.3	9297.9
867.7023	1210.9106	10241.6	9287.15
867.847	1212.8316	10251.85	9299.1
867.9916	1214.7519	10302.9	9340.65
868.1363	1216.6715	10317.5	9366.15
868.2809	1218.5903	10374.1	9422.85
868.4255	1220.5084	10442.3	9491.25
868.5701	1222.4257	10546.55	9596.2
868.7148	1224.3424	10594.2	9648.45
868.8594	1226.2583	10711.1	9759.05
869.004	1228.1735	10828.25	9877.65
869.1486	1230.0879	10992.15	10041.95
869.2932	1232.0016	11189.8	10241.1
869.4377	1233.9146	11321.35	10368.8
869.5823	1235.8269	11322.8	10374.4
869.7269	1237.7384	11249.95	10298
869.8715	1239.6492	11118.85	10170.15
870.016	1241.5592	11087.7	10137.7
870.1606	1243.4686	11116.65	10168.3
870.3051	1245.3772	11269.9	10322.3
870.4496	1247.285	11450.1	10499.1
870.5941	1249.1922	11633.8	10683.45
870.7387	1251.0986	11777.5	10826.9
870.8832	1253.0042	11853.25	10902.15
871.0277	1254.9092	11963.2	11014.15
871.1722	1256.8134	12051.4	11107.25
871.3167	1258.7169	12205.35	11256.4
871.4611	1260.6196	12366.65	11417.65
871.6056	1262.5216	12619.85	11667
871.7501	1264.4229	12822.75	11874.3
871.8945	1266.3234	13023	12076.8
872.039	1268.2232	13158	12207.4
872.1834	1270.1223	13255.45	12302.8
872.3278	1272.0207	13276.75	12326.95
872.4723	1273.9183	13234.1	12279.45
872.6167	1275.8151	13187.9	12238.95
872.7611	1277.7113	13138.35	12193.85
872.9055	1279.6067	13206.65	12258.15
873.0499	1281.5014	13433.9	12481.85
873.1943	1283.3953	13786	12835
873.3386	1285.2885	14261.15	13316.95
873.483	1287.181	14741.3	13796.15
873.6274	1289.0727	15196.9	14249.25
873.7717	1290.9637	15476.2	14529.35
873.9161	1292.854	15754.05	14804.65
874.0604	1294.7435	15716.6	14768.7
874.2047	1296.6323	15662.35	14712.55
874.349	1298.5204	15559.25	14610.9
874.4933	1300.4077	15365.2	14415.8
874.6376	1302.2943	15147.8	14202.2
874.7819	1304.1802	14888.95	13938.4
874.9262	1306.0653	14476.75	13530.9
875.0705	1307.9497	13983.5	13034.1
875.2147	1309.8333	13588.05	12644.25
875.359	1311.7162	13277.55	12331.45
875.5032	1313.5984	13066.85	12116.65
875.6475	1315.4798	12946.65	11985.8
875.7917	1317.3605	12883.35	11916.85
875.9359	1319.2405	12739.35	11786.75
876.0801	1321.1197	12539.95	11590.1
876.2243	1322.9982	12237.55	11285.15
876.3685	1324.876	11956.75	11009.15
876.5127	1326.753	11689.9	10742.55
876.6569	1328.6293	11507.8	10557.25
876.801	1330.5048	11340.4	10390.25
876.9452	1332.3796	11179.65	10234.2
877.0893	1334.2537	11130.05	10155.7
877.2335	1336.127	10994.6	10047.5
877.3776	1337.9996	10960.5	10013.2
877.5217	1339.8714	10943.9	9994.9
877.6658	1341.7426	11024.85	10033.6
877.8099	1343.6129	11002.4	10050.75
877.954	1345.4826	11006.75	10057.25
878.0981	1347.3515	11007.95	10054.65
878.2422	1349.2196	10932.55	9981.25
878.3862	1351.087	11003.35	10055.8
878.5303	1352.9537	11052.65	10100.5
878.6743	1354.8197	11189.7	10242.1
878.8184	1356.6849	11351.85	10403.05
878.9624	1358.5493	11513.8	10565.6
879.1064	1360.4131	11671.4	10727.75
879.2504	1362.276	11784.15	10839.9
879.3944	1364.1383	11774.95	10827.75
879.5384	1365.9998	11581.35	10624.1
879.6823	1367.8606	11234.4	10285.25
879.8263	1369.7206	10873.05	9921.75
879.9702	1371.5799	10546.1	9594.05
880.1142	1373.4384	10256.85	9308.05
880.2581	1375.2962	10010.6	9063
880.402	1377.1533	9692.9	8745.8
880.5459	1379.0096	9329.95	8387.4
880.6898	1380.8652	8968.2	8025.3
880.8337	1382.7201	8696.4	7754.3
880.9776	1384.5742	8426.05	7476.95
881.1215	1386.4275	8234.15	7285.35
881.2653	1388.2802	8093.65	7149.75
881.4092	1390.132	7964.85	7017.85
881.553	1391.9832	7901	6954
881.6968	1393.8336	7802.85	6859.6
881.8406	1395.6832	7755.3	6810.65
881.9844	1397.5322	7705.35	6759.5
882.1282	1399.3803	7661.8	6709.35
882.272	1401.2278	7654.95	6709.6
882.4158	1403.0745	7632.05	6687.25
882.5595	1404.9204	7620.7	6677.25
882.7033	1406.7656	7648.7	6700.9
882.847	1408.6101	7676.2	6729.55
882.9908	1410.4538	7693.7	6748.7
883.1345	1412.2968	7747	6803.2
883.2782	1414.139	7820.75	6876.75
883.4219	1415.9805	7911.75	6969.5
883.5656	1417.8213	7950.95	7004.65
883.7092	1419.6613	8052.75	7113.25
883.8529	1421.5006	8227.8	7283.9
883.9965	1423.3391	8439.85	7493.55
884.1402	1425.1769	8721.55	7774.4
884.2838	1427.0139	9160.55	8213.7
884.4274	1428.8502	9737.3	8794.7
884.571	1430.6858	10306.8	9365.6
884.7146	1432.5206	10686.25	9745.1
884.8582	1434.3547	10941	9999.05
885.0018	1436.188	10952.45	10010
885.1453	1438.0206	10889	9947.15
885.2889	1439.8524	10713.45	9768.8
885.4324	1441.6835	10579.95	9639.6
885.5759	1443.5139	10489.8	9545.7
885.7194	1445.3435	10426.3	9483.65
885.8629	1447.1724	10366	9426
886.0064	1449.0005	10343.6	9402.4
886.1499	1450.8279	10263.95	9322.35
886.2933	1452.6545	10262.15	9322
886.4368	1454.4804	10296.65	9355.95
886.5802	1456.3056	10285.1	9339.95
886.7237	1458.13	10223.5	9287.25
886.8671	1459.9536	10046.55	9106.3
887.0105	1461.7766	9742.65	8803.75
887.1539	1463.5987	9389.65	8449.3
887.2972	1465.4202	9043.3	8101.7
887.4406	1467.2409	8712.85	7771.55
887.584	1469.0608	8416.35	7476.9
887.7273	1470.88	8149.85	7208.85
887.8706	1472.6984	7911.8	6972.7
888.0139	1474.5161	7695.15	6752.65
888.1572	1476.3331	7548.2	6607.65
888.3005	1478.1493	7417.4	6474.1
888.4438	1479.9648	7349.25	6411.35
888.5871	1481.7795	7260.9	6324.75
888.7303	1483.5935	7197.5	6256.35
888.8736	1485.4067	7117.5	6177
889.0168	1487.2192	7081.4	6141.15
889.16	1489.031	7052.2	6112.35
889.3032	1490.842	6990.35	6053.4
889.4464	1492.6522	6976.65	6038.65
889.5896	1494.4618	6934.4	5993.4
889.7327	1496.2705	6894.1	5955.05
889.8759	1498.0785	6849.7	5910.3
890.019	1499.8858	6835.05	5893.95
890.1622	1501.6924	6777	5838.85
890.3053	1503.4981	6748.25	5811.7
890.4484	1505.3032	6687.85	5749.05
890.5914	1507.1075	6639.5	5699.6
890.7345	1508.911	6616.4	5676.55
890.8776	1510.7138	6558.85	5618.7
891.0206	1512.5159	6495.4	5560.1
891.1637	1514.3172	6457.95	5520
891.3067	1516.1178	6442.95	5506.7
891.4497	1517.9176	6397.9	5460.8
891.5927	1519.7166	6353.8	5420.4
891.7357	1521.515	6333.7	5391.75
891.8786	1523.3126	6330.35	5394
892.0216	1525.1094	6292	5354.15
892.1645	1526.9055	6266.65	5332.85
892.3074	1528.7008	6252.65	5316.6
892.4503	1530.4954	6199.7	5264.55
892.5932	1532.2893	6186.45	5253.35
892.7361	1534.0824	6161.6	5224.45
892.879	1535.8747	6156	5225.35
893.0218	1537.6663	6155.4	5223.55
893.1647	1539.4572	6153.2	5220.85
893.3075	1541.2473	6174.7	5243.2
893.4503	1543.0367	6163.9	5231.8
893.5931	1544.8253	6168.1	5232.25
893.7359	1546.6132	6209.35	5276.55
893.8787	1548.4003	6237.4	5295.4
894.0214	1550.1867	6301.35	5362.25
894.1642	1551.9723	6349.8	5415.95
894.3069	1553.7572	6448.85	5519.65
894.4496	1555.5414	6570.5	5642.55
894.5923	1557.3247	6692.1	5764.15
894.735	1559.1074	6856.55	5931.5
894.8777	1560.8893	7027.55	6100.95
895.0204	1562.6705	7180.45	6255.6
895.163	1564.4509	7306.8	6385.6
895.3056	1566.2305	7363.3	6442
895.4482	1568.0094	7438.45	6517.75
895.5908	1569.7876	7425.55	6503.5
895.7334	1571.565	7398.8	6469.7
895.876	1573.3417	7380.2	6455.05
896.0186	1575.1176	7374.15	6451.5
896.1611	1576.8928	7396.1	6477.9
896.3036	1578.6672	7372	6456.15
896.4461	1580.4409	7366.9	6451.95
896.5886	1582.2138	7373.75	6454.45
896.7311	1583.986	7437.45	6517.1
896.8736	1585.7575	7501.85	6583.35
897.0161	1587.5282	7558.35	6642.5
897.1585	1589.2981	7649.85	6736.9
897.3009	1591.0673	7743.55	6831.35
897.4433	1592.8358	7863.7	6949.2
897.5857	1594.6035	7943.1	7021.7
897.7281	1596.3704	8063.85	7141.1
897.8705	1598.1366	8151.7	7235.45
898.0128	1599.9021	8245.4	7330.15
898.1551	1601.6668	8356.1	7436.8
898.2975	1603.4308	8488	7565.05
898.4398	1605.194	8651.6	7727.9
898.5821	1606.9564	8871.15	7959
898.7243	1608.7182	9133.35	8226.35
898.8666	1610.4791	9403.4	8500.4
899.0088	1612.2394	9702.45	8802.4
899.1511	1613.9988	10046.65	9140.3
899.2933	1615.7576	10373.85	9464.15
899.4355	1617.5156	10552.75	9631.2
899.5776	1619.2728	10651.35	9730.55
899.7198	1621.0293	10579.2	9662.35
899.862	1622.785	10394.25	9477.1
900.0041	1624.54	10045.85	9133.05
900.1462	1626.2942	9706	8796.55
900.2883	1628.0477	9295.2	8386.2
900.4304	1629.8005	8940.65	8028.2
900.5725	1631.5525	8586.85	7681.4
900.7145	1633.3037	8319.15	7411.15
900.8566	1635.0542	8106.3	7197.95
900.9986	1636.804	7910.3	7000.95
901.1406	1638.553	7858.25	6857.25
901.2826	1640.3013	7737.6	6824.85
901.4245	1642.0488	7707.25	6797.5
901.5665	1643.7955	7732.35	6828.15
901.7085	1645.5416	7802.55	6897.6
901.8504	1647.2868	7894.4	6983.95
901.9923	1649.0313	7995.65	7087.05
902.1342	1650.7751	8143.9	7228
902.2761	1652.5181	8305.8	7399.85
902.4179	1654.2604	8490.55	7582.4
902.5598	1656.0019	8745.45	7837.35
902.7016	1657.7427	9010.8	8099.05
902.8434	1659.4828	9278.7	8366.15
902.9852	1661.222	9447.55	8535.2
903.127	1662.9606	9408.6	8497.25
903.2687	1664.6984	9168.4	8253.95
903.4105	1666.4354	8740.8	7827.2
903.5522	1668.1717	8166.9	7252.15
903.6939	1669.9072	7568.35	6651.3
903.8356	1671.642	7089.15	6171.85
903.9773	1673.3761	6674.5	5761
904.119	1675.1094	6339.5	5428.8
904.2606	1676.8419	6084.9	5175.1
904.4022	1678.5737	5873.3	4962.7
904.5439	1680.3048	5702.4	4787.4
904.6855	1682.0351	5566.7	4654.85
904.827	1683.7646	5452.2	4537
904.9686	1685.4934	5353.8	4443.3
905.1101	1687.2215	5287	4379.95
905.2517	1688.9488	5211.1	4302.8
905.3932	1690.6754	5134	4223.7
905.5347	1692.4012	5097	4185.25
905.6761	1694.1263	5064.45	4152
905.8176	1695.8506	5009.8	4099.95
905.9591	1697.5742	4976.05	4068.05
906.1005	1699.297	4922.55	4016
906.2419	1701.0191	4874.05	3972.1
906.3833	1702.7404	4842.65	3938.45
906.5246	1704.461	4801.65	3891
906.666	1706.1808	4763.6	3854.4
906.8073	1707.8999	4750.2	3843.05
906.9487	1709.6182	4713.25	3810.3
907.09	1711.3358	4677.85	3776.65
907.2313	1713.0527	4661.75	3762.15
907.3725	1714.7688	4653.3	3747.9
907.5138	1716.4841	4609.3	3702.3
907.655	1718.1987	4596.2	3684.6
907.7962	1719.9126	4574.3	3673.2
907.9374	1721.6257	4558.75	3654.95
908.0786	1723.338	4539.55	3639.75
908.2198	1725.0496	4528.85	3623.9
908.3609	1726.7605	4521.35	3617.6
908.502	1728.4706	4496.3	3593.7
908.6431	1730.18	4479.9	3577.75
908.7842	1731.8886	4465.4	3565.1
908.9253	1733.5964	4477.7	3555.95
909.0664	1735.3036	4439.25	3533.25
909.2074	1737.0099	4409.15	3509.2
909.3484	1738.7156	4402.8	3503.8
909.4894	1740.4204	4369.35	3464.1
909.6304	1742.1246	4346.1	3440.7
909.7714	1743.8279	4322	3420.05
909.9123	1745.5306	4305.35	3405.3
910.0532	1747.2325	4286.6	3388.05
910.1941	1748.9336	4264.9	3363.6
910.335	1750.634	4239.45	3337.15
910.4759	1752.3336	4225.15	3324.4
910.6168	1754.0325	4228.65	3331
910.7576	1755.7307	4201.5	3302.65
910.8984	1757.4281	4216.2	3315.55
911.0392	1759.1247	4216.15	3305
911.18	1760.8206	4185.15	3277.55
911.3208	1762.5158	4196.15	3288.75
911.4615	1764.2102	4176.25	3272.5
911.6022	1765.9039	4160.75	3260.55
911.7429	1767.5968	4130.2	3232.6
911.8836	1769.289	4137.55	3238.55
912.0243	1770.9804	4115.8	3215.25
912.1649	1772.6711	4111.8	3205.35
912.3056	1774.361	4104.8	3200.15
912.4462	1776.0502	4099.25	3193.45
912.5868	1777.7386	4097.7	3191.3
912.7274	1779.4263	4078.5	3178.7
912.8679	1781.1132	4075.5	3178.05
913.0084	1782.7994	4060.6	3161.7
913.149	1784.4849	4053.7	3159.55
913.2895	1786.1696	4051.85	3135.4
913.4299	1787.8535	4027.85	3131.65
913.5704	1789.5367	4013.65	3117.9
913.7108	1791.2192	4017.5	3123.45
913.8513	1792.9009	4021.25	3097.2
913.9917	1794.5818	3999.05	3094
914.132	1796.2621	3975.6	3073.35
914.2724	1797.9415	3961.95	3063
914.4128	1799.6202	3957.2	3056
914.5531	1801.2982	3969.45	3069.65
914.6934	1802.9755	3953.1	3050.45
914.8337	1804.6519	3959.1	3057.45
914.9739	1806.3277	3924	3026.15
915.1142	1808.0027	3909.15	3014.45
915.2544	1809.6769	3921.8	3027.75
915.3946	1811.3504	3914.45	3019.65
915.5348	1813.0231	3897.55	3005.1
915.675	1814.6951	3884.4	2988.5
915.8151	1816.3664	3900.25	2999.3
915.9553	1818.0369	3893.6	2993
916.0954	1819.7067	3849.65	2950.7
916.2355	1821.3757	3879.3	2977.15
916.3755	1823.044	3857.4	2957.1
916.5156	1824.7115	3860.4	2958.7
916.6556	1826.3783	3842.3	2941.75
916.7956	1828.0443	3830.1	2932.35
916.9356	1829.7096	3838.4	2939.25
917.0756	1831.3741	3825.25	2923
917.2155	1833.0379	3815.6	2918
917.3555	1834.701	3792.25	2897.15
917.4954	1836.3633	3807.9	2913.75
917.6353	1838.0248	3792.4	2894.85
917.7751	1839.6856	3791.15	2892.9
917.915	1841.3457	3792.8	2894.55
918.0548	1843.005	3784.2	2886.15
918.1946	1844.6636	3784.6	2887.2
918.3344	1846.3214	3750.6	2849.4
918.4742	1847.9785	3765.5	2869.9
918.6139	1849.6349	3759.9	2860.05
918.7537	1851.2904	3752.75	2844.3
918.8934	1852.9453	3749.5	2847.3
919.0331	1854.5994	3742.75	2839
919.1727	1856.2528	3745.5	2841.3
919.3124	1857.9054	3724.35	2823.9
919.452	1859.5572	3725.3	2826.5
919.5916	1861.2083	3703.8	2805.45
919.7312	1862.8587	3714.85	2815.35
919.8708	1864.5084	3722	2821.45
920.0103	1866.1572	3699.4	2799.9
920.1498	1867.8054	3676.7	2775.05
920.2893	1869.4528	3683.9	2781.75
920.4288	1871.0994	3665.3	2761.55
920.5683	1872.7453	3673.5	2775.3
920.7077	1874.3905	3675.8	2767.65
920.8471	1876.0349	3652.65	2750.45
920.9865	1877.6786	3657.3	2757.4
921.1259	1879.3215	3641.3	2743.65
921.2653	1880.9637	3620.75	2719.2
921.4046	1882.6051	3619.6	2723.75
921.5439	1884.2458	3611.25	2713.1
921.6832	1885.8858	3595.1	2696.45
921.8225	1887.525	3599.15	2699.15
921.9617	1889.1634	3578.15	2678.65
922.101	1890.8011	3575.15	2676.9
922.2402	1892.4381	3586.5	2688
922.3794	1894.0743	3570.1	2670.1
922.5185	1895.7098	3568.3	2669.25
922.6577	1897.3446	3557.1	2659
922.7968	1898.9786	3560.55	2657.25
922.9359	1900.6118	3545.05	2650.3
923.075	1902.2443	3528.6	2630.35
923.214	1903.8761	3528.4	2630.65
923.3531	1905.5071	3499.1	2598.4
923.4921	1907.1374	3515.3	2616.35
923.6311	1908.7669	3504.85	2607.95
923.77	1910.3957	3494.55	2596.55
923.909	1912.0237	3475.75	2580.85
924.0479	1913.651	3477.75	2579.6
924.1868	1915.2776	3467.25	2571.55
924.3257	1916.9034	3456.35	2556.3
924.4646	1918.5285	3431.95	2536.85
924.6034	1920.1528	3433.8	2537.4
924.7422	1921.7764	3440.1	2543.5
924.881	1923.3992	3418.8	2522.05
925.0198	1925.0213	3401.35	2504.65
925.1586	1926.6427	3392.3	2497.4
925.2973	1928.2633	3458	2484.5
925.436	1929.8832	3387.95	2487.6
925.5747	1931.5023	3365.45	2465.85
925.7134	1933.1207	3362.45	2467.2
925.852	1934.7383	3352.5	2455.75
925.9906	1936.3552	3343.45	2447.3
926.1292	1937.9714	3338.4	2441.55
926.2678	1939.5868	3344.95	2447.25
926.4064	1941.2015	3320.75	2422.2
926.5449	1942.8154	3317.95	2416.85
926.6834	1944.4286	3302.25	2403.15
926.8219	1946.041	3295.55	2376.3
926.9604	1947.6528	3293.65	2392
927.0988	1949.2637	3274.7	2378.15
927.2372	1950.8739	3265.65	2370.55
927.3756	1952.4834	3261.6	2365.25
927.514	1954.0921	3253.15	2356.35
927.6523	1955.7001	3248.15	2346.9
927.7907	1957.3074	3239.85	2348.65
927.929	1958.9139	3224.35	2332.45
928.0673	1960.5197	3219.9	2324.25
928.2055	1962.1247	3212.9	2319
928.3438	1963.729	3201.1	2311.75
928.482	1965.3325	3192	2293.5
928.6202	1966.9353	3197.25	2305.35
928.7584	1968.5374	3184.2	2288
928.8965	1970.1387	3168.6	2273.95
929.0346	1971.7393	3169.15	2274.65
929.1727	1973.3392	3168.95	2275.8
929.3108	1974.9383	3157.15	2264.55
929.4489	1976.5366	3135.05	2243.4
929.5869	1978.1342	3135.15	2244.7
929.7249	1979.7311	3135.55	2244.9
929.8629	1981.3273	3116.65	2227.65
930.0009	1982.9227	3113.9	2224.9
930.1388	1984.5173	3095.5	2206.55
930.2767	1986.1112	3090.5	2202.35
930.4146	1987.7044	3080.55	2190.15
930.5525	1989.2968	3080.85	2190.5
930.6904	1990.8885	3081.55	2188.6
930.8282	1992.4795	3085.4	2197.45
930.966	1994.0697	3068.15	2181.9
931.1038	1995.6592	3054.95	2169.15
931.2415	1997.2479	3046.7	2158.25
931.3793	1998.8359	3041.15	2153.05
931.517	2000.4232	3032.1	2146.8
931.6547	2002.0097	3015.1	2132.3
931.7923	2003.5955	3014.05	2130.15
931.93	2005.1805	3018.4	2130.15
932.0676	2006.7648	3013.95	2128.8
932.2052	2008.3484	2993.85	2110.5
932.3427	2009.9312	3002	2116.95
932.4803	2011.5133	2991.95	2109.5
932.6178	2013.0946	2983	2100.45
932.7553	2014.6752	2977.8	2093.55
932.8928	2016.2551	2981.5	2094.55
933.0302	2017.8342	2967.25	2081.65
933.1676	2019.4126	2974.05	2090.45
933.305	2020.9902	2946.1	2064.75
933.4424	2022.5672	2946.5	2064.8
933.5798	2024.1433	2952.85	2065.05
933.7171	2025.7188	2938.4	2059.2
933.8544	2027.2935	2924.9	2044.15
933.9917	2028.8674	2938.45	2058.15
934.129	2030.4406	2913.65	2034.55
934.2662	2032.0131	2900	2019.45
934.4034	2033.5849	2894.6	2010.65
934.5406	2035.1559	2887.8	2007.25
934.6778	2036.7261	2882.55	1999.55
934.8149	2038.2957	2913.55	2028.25
934.952	2039.8645	2892.15	2003.25
935.0891	2041.4325	2889.15	2000.75
935.2262	2042.9998	2879.45	1994.2
935.3632	2044.5664	2880.6	1995.9
935.5002	2046.1323	2869.9	1987.8
935.6372	2047.6974	2853.4	1972.15
935.7742	2049.2617	2849.05	1966.35
935.9111	2050.8254	2857.2	1969.7
936.048	2052.3883	2862.4	1975.6
936.1849	2053.9504	2843.95	1956.2
936.3218	2055.5118	2833.4	1941.85
936.4586	2057.0725	2827	1937.35
936.5955	2058.6325	2815.5	1931.55
936.7323	2060.1917	2820.9	1938.55
936.869	2061.7502	2814.6	1929.45
937.0058	2063.3079	2790.15	1909.5
937.1425	2064.8649	2805.25	1920.5
937.2792	2066.4212	2800.85	1914.9
937.4159	2067.9767	2796.9	1912.45
937.5525	2069.5315	2787.05	1901.35
937.6891	2071.0856	2778	1894.25
937.8257	2072.6389	2758.45	1874
937.9623	2074.1915	2758.3	1877.75
938.0989	2075.7433	2749.85	1866.8
938.2354	2077.2945	2754	1870.65
938.3719	2078.8448	2748.15	1862.7
938.5084	2080.3945	2749.25	1861.35
938.6448	2081.9434	2742.55	1857
938.7812	2083.4916	2732.95	1841.55
938.9176	2085.039	2722.9	1828.85
939.054	2086.5857	2727.45	1831.75
939.1903	2088.1317	2722.8	1827.4
939.3267	2089.677	2725.25	1829.25
939.463	2091.2215	2703.3	1808.65
939.5992	2092.7652	2697.35	1800.4
939.7355	2094.3083	2704.35	1809.65
939.8717	2095.8506	2701.65	1811.65
940.0079	2097.3921	2690.15	1800.85
940.1441	2098.933	2681	1791.65
940.2802	2100.4731	2666.4	1778.3
940.4163	2102.0124	2685.5	1779.35
940.5524	2103.5511	2685.95	1793.6
940.6885	2105.089	2670.6	1780.85
940.8245	2106.6261	2667.85	1778.5
940.9606	2108.1626	2654.2	1764.35
941.0965	2109.6983	2680.3	1762.2
941.2325	2111.2332	2657.4	1768.85
941.3684	2112.7675	2647.6	1756.05
941.5044	2114.301	2649.2	1757.05
941.6403	2115.8337	2638.2	1744.95
941.7761	2117.3657	2643.75	1754
941.912	2118.897	2631.8	1744
942.0478	2120.4276	2623.5	1726.4
942.1835	2121.9575	2633.9	1739.9
942.3193	2123.4866	2627.05	1734.05
942.455	2125.0149	2620.1	1726.25
942.5907	2126.5426	2589.2	1706.1
942.7264	2128.0695	2590.15	1702.4
942.8621	2129.5956	2582.8	1701.95
942.9977	2131.1211	2589.1	1699.25
943.1333	2132.6458	2578.45	1691.35
943.2689	2134.1698	2585.55	1693.2
943.4044	2135.693	2578.1	1682.15
943.54	2137.2155	2578.6	1682.85
943.6755	2138.7373	2572.75	1681.7
943.8109	2140.2584	2558.6	1672.4
943.9464	2141.7787	2562.6	1674.5
944.0818	2143.2983	2543	1663.1
944.2172	2144.8171	2548.3	1667.8
944.3526	2146.3353	2528.7	1641.65
944.4879	2147.8527	2531.2	1643.95
944.6232	2149.3693	2539.55	1648.8
944.7585	2150.8853	2520.6	1628.05
944.8938	2152.4005	2525.75	1634.4
945.029	2153.9149	2527.9	1636.8
945.1642	2155.4287	2524.6	1632.15
945.2994	2156.9417	2517.7	1627.15
945.4346	2158.454	2512	1622.55
945.5697	2159.9655	2503.15	1616.65
945.7048	2161.4764	2492.35	1606.75
945.8399	2162.9865	2486.95	1600.55
945.9749	2164.4958	2490.05	1603.55
946.1099	2166.0045	2493	1603.35
946.2449	2167.5124	2483.25	1596.6
946.3799	2169.0195	2479.4	1590.95
946.5148	2170.526	2483.25	1592.05
946.6498	2172.0317	2464	1573.05
946.7846	2173.5367	2464	1575.45
946.9195	2175.0409	2455.85	1567.2
947.0543	2176.5445	2466.55	1579.15
947.1891	2178.0473	2454.25	1560.3
947.3239	2179.5494	2451.5	1557.3
947.4587	2181.0507	2440.9	1550.55
947.5934	2182.5513	2437.1	1545.8
947.7281	2184.0512	2431.05	1540.6
947.8628	2185.5504	2413.7	1522.6
947.9974	2187.0488	2418.5	1529.25
948.132	2188.5465	2421.25	1537.5
948.2666	2190.0435	2417.45	1529.95
948.4012	2191.5397	2410.4	1521.6
948.5357	2193.0353	2407.8	1516.1
948.6702	2194.5301	2398.95	1505.95
948.8047	2196.0241	2396.1	1500.5
948.9392	2197.5175	2401.4	1504
949.0736	2199.0101	2398.5	1501.85
949.208	2200.502	2387.15	1497.7
949.3424	2201.9931	2371.1	1482.15
949.4767	2203.4835	2362.6	1476.2
949.611	2204.9733	2372.1	1468.6
949.7453	2206.4622	2364.95	1478.85
949.8796	2207.9505	2357.9	1472.1
950.0138	2209.438	2343.15	1458.35
950.148	2210.9248	2338.85	1452.25
950.2822	2212.4109	2333.45	1443.75
950.4164	2213.8962	2340.05	1444.75
950.5505	2215.3809	2345.55	1448.2
950.6846	2216.8648	2334	1438.4
950.8186	2218.3479	2337.65	1435.85
950.9527	2219.8304	2324.9	1422.9
951.0867	2221.3121	2328.3	1430.35
951.2207	2222.7931	2305.5	1409.45
951.3546	2224.2733	2303.5	1407.65
951.4886	2225.7529	2306.25	1413.6
951.6225	2227.2317	2294.15	1403.15
951.7563	2228.7098	2295	1409.2
951.8902	2230.1872	2286.6	1401.75
952.024	2231.6638	2274.15	1388.9
952.1578	2233.1397	2279.6	1389.4
952.2916	2234.6149	2273.75	1385.15
952.4253	2236.0894	2273.5	1385.6
952.559	2237.5632	2279.3	1379.9
952.6927	2239.0362	2268.75	1377.5
952.8263	2240.5085	2258.65	1370.9
952.9599	2241.9801	2264.85	1375
953.0935	2243.4509	2248.25	1356.9
953.2271	2244.921	2247.65	1353.25
953.3606	2246.3904	2234.2	1336.45
953.4941	2247.8591	2240.45	1346.6
953.6276	2249.3271	2235.35	1343.45
953.7611	2250.7943	2225.5	1333.9
953.8945	2252.2608	2228.65	1334.95
954.0279	2253.7266	2224.85	1333.4
954.1612	2255.1917	2217.1	1325.4
954.2946	2256.656	2209.4	1320.4
954.4279	2258.1197	2195.1	1307.65
954.5612	2259.5826	2199	1307.3
954.6944	2261.0447	2200.5	1310.75
954.8276	2262.5062	2198.25	1302.65
954.9608	2263.9669	2197.3	1304.2
955.094	2265.4269	2174.4	1281.2
955.2271	2266.8862	2167.75	1278.95
955.3602	2268.3448	2179	1290.6
955.4933	2269.8026	2169.25	1281.25
955.6264	2271.2598	2179.6	1290.35
955.7594	2272.7162	2161.25	1271.8
955.8924	2274.1719	2165.6	1272.95
956.0253	2275.6268	2169.8	1274.85
956.1583	2277.0811	2166.95	1273.6
956.2912	2278.5346	2169.6	1280.9
956.4241	2279.9874	2159.15	1273
956.5569	2281.4395	2151.55	1265.55
956.6897	2282.8908	2153.85	1260.8
956.8225	2284.3414	2150.9	1258.35
956.9553	2285.7914	2133.6	1244.7
957.088	2287.2406	2145.7	1251.9
957.2207	2288.689	2148.05	1253.1
957.3534	2290.1368	2154.8	1258.05
957.486	2291.5838	2134.85	1237.1
957.6186	2293.0302	2142.6	1244.55
957.7512	2294.4758	2130.35	1233.9
957.8838	2295.9206	2127.45	1235.15
958.0163	2297.3648	2124.1	1234.15
958.1488	2298.8082	2108.85	1218.25
958.2813	2300.251	2116.1	1223.6
958.4137	2301.693	2114.05	1218.3
958.5461	2303.1343	2125.95	1232.05
958.6785	2304.5748	2113.45	1221.05
958.8108	2306.0147	2098.5	1209.15
958.9432	2307.4538	2088.4	1199.5
959.0754	2308.8922	2093.35	1208.4
959.2077	2310.3299	2095.75	1209.45
959.3399	2311.7669	2092.4	1204
959.4721	2313.2031	2076.1	1185.15
959.6043	2314.6387	2081.15	1190.9
959.7365	2316.0735	2080.8	1187.55
959.8686	2317.5076	2071.45	1181
960.0006	2318.941	2069.35	1177.05
960.1327	2320.3737	2070.25	1175.75
960.2647	2321.8056	2068.9	1172.4
960.3967	2323.2369	2054.6	1162.45
960.5287	2324.6674	2057.85	1164.9
960.6606	2326.0972	2057	1166.25
960.7925	2327.5263	2043.55	1152.45
960.9244	2328.9547	2050.75	1158.2
961.0562	2330.3823	2055.5	1159.6
961.1881	2331.8092	2042.4	1143.55
961.3198	2333.2355	2041.85	1145.95
961.4516	2334.661	2031.55	1137.65
961.5833	2336.0858	2022.1	1127.25
961.715	2337.5098	2034.65	1140.85
961.8467	2338.9332	2021.7	1130.05
961.9783	2340.3558	2022.2	1127
962.1099	2341.7778	2011.45	1122.35
962.2415	2343.199	2019.25	1127.75
962.373	2344.6195	2016	1125.6
962.5045	2346.0393	2010.8	1120.9
962.636	2347.4583	2007.35	1113.3
962.7675	2348.8767	1994.85	1102.4
962.8989	2350.2943	2008.9	1112.75
963.0303	2351.7113	2013.5	1114.5
963.1617	2353.1275	2005.45	1107.75
963.293	2354.543	2014.85	1112.45
963.4243	2355.9578	2004.65	1110.3
963.5556	2357.3718	1989.35	1100.25
963.6868	2358.7852	1989.7	1097.5
963.818	2360.1978	1992.4	1102.35
963.9492	2361.6098	1979.55	1091.05
964.0803	2363.021	1977.95	1082.3
964.2114	2364.4315	1964.75	1072.35
964.3425	2365.8413	1975.2	1082.05
964.4736	2367.2504	1970.05	1081.1
964.6046	2368.6587	1962.3	1072
964.7356	2370.0664	1961.4	1070.4
964.8666	2371.4733	1961.85	1071.6
964.9975	2372.8795	1952.8	1061.85
965.1284	2374.285	1961.95	1067.65
965.2593	2375.6899	1956.75	1067.1
965.3901	2377.0939	1947.55	1055.9
965.5209	2378.4973	1939.8	1049.95
965.6517	2379.9	1942.25	1051.55
965.7825	2381.3019	1941.4	1052.4
965.9132	2382.7032	1929.55	1037.7
966.0439	2384.1037	1934.45	1046.6
966.1745	2385.5035	1915.05	1025.7
966.3051	2386.9027	1905	1019.1
966.4357	2388.3011	1915.4	1024.05
966.5663	2389.6987	1912.95	1024
966.6968	2391.0957	1911.8	1021.1
966.8273	2392.492	1893.35	1003.8
966.9578	2393.8876	1896.5	1007.2
967.0882	2395.2824	1903.3	1015.35
967.2186	2396.6765	1900.95	1010.85
967.349	2398.07	1895.25	1003.15
967.4793	2399.4627	1891.25	997.95
967.6097	2400.8547	1886.9	995.7
967.7399	2402.246	1883.3	985.55
967.8702	2403.6366	1874.4	984.75
968.0004	2405.0265	1877.8	988.75
968.1306	2406.4156	1876.25	981.75
968.2607	2407.8041	1870.95	976.6
968.3909	2409.1918	1873.6	978.1
968.521	2410.5789	1869.45	979.1
968.651	2411.9652	1864.8	970.2
968.781	2413.3508	1859.4	966.8
968.911	2414.7358	1859.65	969.3
969.041	2416.12	1853.45	963.55
969.1709	2417.5035	1846.9	957.35
969.3008	2418.8863	1848.65	955.6
969.4307	2420.2684	1848.1	957.35
969.5606	2421.6497	1842.2	948.15
969.6904	2423.0304	1843.4	952.5
969.8201	2424.4104	1845.85	953.5
969.9499	2425.7896	1835.3	944.75
970.0796	2427.1682	1834.8	946.15
970.2093	2428.546	1828.5	938
970.3389	2429.9232	1838.45	942.45
970.4685	2431.2996	1821.75	930.85
970.5981	2432.6753	1823.8	933.05
970.7277	2434.0503	1823.75	931.4
970.8572	2435.4246	1819.6	929.1
970.9867	2436.7982	1809.5	915.35
971.1161	2438.1711	1807.6	918.45
971.2456	2439.5433	1808.95	916.6
971.375	2440.9148	1802	905.7
971.5043	2442.2856	1805.7	917.85
971.6336	2443.6557	1788.7	897.2
971.7629	2445.025	1785.55	892.1
971.8922	2446.3937	1797.85	902.7
972.0214	2447.7617	1788.85	897.25
972.1506	2449.1289	1795.1	903.9
972.2798	2450.4955	1787.05	895.35
972.4089	2451.8613	1784.25	895.1
972.538	2453.2265	1779.95	890.7
972.6671	2454.5909	1771.05	878.55
972.7961	2455.9546	1775.65	885
972.9251	2457.3177	1773.35	883.9
973.0541	2458.68	1770.05	878.75
973.1831	2460.0416	1770.35	878.9
973.312	2461.4025	1768.35	874.15
973.4408	2462.7627	1780.5	879.5
973.5697	2464.1222	1768.2	881.3
973.6985	2465.4811	1762.95	875.55
973.8273	2466.8392	1760.3	872.6
973.956	2468.1966	1753.95	861.4
974.0847	2469.5533	1767.5	874.15
974.2134	2470.9093	1754.7	863.3
974.3421	2472.2645	1746.6	854.25
974.4707	2473.6191	1750	861.8
974.5993	2474.973	1746.6	856.45
974.7278	2476.3262	1739.85	846.45
974.8563	2477.6787	1746.35	859.7
974.9848	2479.0305	1742.95	851.25
975.1132	2480.3816	1733.15	840.25
975.2417	2481.7319	1733.35	841.35
975.37	2483.0816	1734.45	845.05
975.4984	2484.4306	1729.85	840.45
975.6267	2485.7789	1729.7	839.55
975.755	2487.1264	1730.65	838.95
975.8833	2488.4733	1713	823.15
976.0115	2489.8195	1729	831.3
976.1397	2491.165	1712.7	819.45
976.2678	2492.5097	1711.8	821.25
976.3959	2493.8538	1708.25	821.7
976.524	2495.1972	1704.25	815.25
976.6521	2496.5398	1707.95	816.75
976.7801	2497.8818	1708.5	814.85
976.9081	2499.2231	1702.8	812.1
977.036	2500.5637	1704.35	811.15
977.164	2501.9035	1699.35	805.9
977.2918	2503.2427	1704.5	809.65
977.4197	2504.5812	1693.9	803.3
977.5475	2505.919	1699.15	806.4
977.6753	2507.256	1696.15	805.1
977.8031	2508.5924	1690.7	799.9
977.9308	2509.9281	1686.95	789.3
978.0585	2511.2631	1682.65	793.45
978.1861	2512.5974	1672.65	782.05
978.3137	2513.9309	1678.9	787.55
978.4413	2515.2638	1703.55	785.5
978.5689	2516.596	1676.95	786.15
978.6964	2517.9275	1674.55	780.85
978.8239	2519.2583	1665.35	772.55
978.9513	2520.5884	1664.95	771
979.0788	2521.9178	1659.3	767.95
979.2062	2523.2465	1656.95	768.7
979.3335	2524.5745	1658.25	769.5
979.4608	2525.9018	1656.65	768.5
979.5881	2527.2284	1654.1	766.7
979.7154	2528.5543	1646.75	757.1
979.8426	2529.8796	1651.6	758.05
979.9698	2531.2041	1649.1	759.05
980.0969	2532.5279	1637.2	747.7
980.224	2533.851	1653.6	764.3
980.3511	2535.1735	1647.45	757.5
980.4781	2536.4952	1641.55	749.85
980.6052	2537.8163	1647.65	755.95
980.7321	2539.1366	1644.05	752.2
980.8591	2540.4562	1641.65	749.5
980.986	2541.7752	1649	756.5
981.1129	2543.0935	1632.35	740.45
981.2397	2544.411	1629.05	734.05
981.3665	2545.7279	1636	744.8
981.4933	2547.0441	1638.85	746.65
981.62	2548.3596	1641.9	750.1
981.7467	2549.6744	1640.95	749.4
981.8734	2550.9885	1625.1	732.5
982.0001	2552.3019	1626.85	735.8
982.1267	2553.6146	1629.05	737.65
982.2532	2554.9266	1624.75	733.55
982.3798	2556.2379	1621.45	731.25
982.5063	2557.5485	1623.45	734.8
982.6327	2558.8585	1629.1	732.3
982.7592	2560.1677	1623.65	726.65
982.8856	2561.4762	1618.85	729.4
983.0119	2562.7841	1623.65	730.35
983.1383	2564.0913	1616.05	727.6
983.2646	2565.3977	1613.75	724.8
983.3908	2566.7035	1615.9	724.45
983.517	2568.0086	1619.7	725.35
983.6432	2569.313	1603.8	711.2
983.7694	2570.6167	1614.45	718.35
983.8955	2571.9197	1606.1	714.4
984.0216	2573.222	1610.8	714.65
984.1476	2574.5236	1612.6	722.15
984.2737	2575.8246	1609.55	715.1
984.3996	2577.1248	1608	712.85
984.5256	2578.4244	1601.65	711.55
984.6515	2579.7232	1603.15	714.05
984.7774	2581.0214	1624.05	706.95
984.9032	2582.3189	1604.45	713.6
985.029	2583.6157	1605.95	712.15
985.1548	2584.9118	1608.3	715
985.2806	2586.2072	1600.75	709.4
985.4063	2587.5019	1603.05	713.1
985.5319	2588.7959	1609.4	716.2
985.6576	2590.0893	1607.1	715.2
985.7832	2591.3819	1605.8	715.6
985.9087	2592.6739	1602.55	711.4
986.0343	2593.9652	1607.8	716.45
986.1597	2595.2557	1603.5	713.85
986.2852	2596.5456	1600.25	707.95
986.4106	2597.8348	1596.35	707.05
986.536	2599.1234	1593.75	704.05
986.6614	2600.4112	1598.5	707.6
986.7867	2601.6983	1608.05	715.45
986.912	2602.9848	1602.5	711.55
987.0372	2604.2705	1594.8	700.85
987.1624	2605.5556	1607.4	717.3
987.2876	2606.84	1593.1	704.5
987.4128	2608.1237	1598.5	709.15
987.5379	2609.4067	1591.2	703.1
987.6629	2610.689	1593.45	693.95
987.788	2611.9707	1586.65	693.8
987.913	2613.2516	1586.65	693.4
988.0379	2614.5319	1570.5	680
988.1629	2615.8115	1573.9	684.2
988.2878	2617.0903	1575.3	686.5
988.4126	2618.3685	1567.85	678.25
988.5375	2619.6461	1569.4	678.35
988.6622	2620.9229	1567	678.65
988.787	2622.199	1564.4	672.4
988.9117	2623.4745	1560.1	669.65
989.0364	2624.7493	1559.05	670.85
989.161	2626.0234	1551.25	664.95
989.2857	2627.2968	1553.05	664.85
989.4102	2628.5695	1561.25	671.85
989.5348	2629.8415	1555.7	667.6
989.6593	2631.1128	1556.55	666.6
989.7837	2632.3835	1546.4	658.15
989.9082	2633.6535	1552.15	663.5
990.0326	2634.9228	1548	660.8
990.1569	2636.1914	1546.7	659.85
990.2812	2637.4593	1543.25	653.05
990.4055	2638.7265	1543.4	652.65
990.5298	2639.9931	1540.35	651.1
990.654	2641.259	1540	651.85
990.7782	2642.5242	1542.5	653.45
990.9023	2643.7887	1534.45	645.2
991.0264	2645.0525	1538	649.5
991.1505	2646.3156	1536.05	649.65
991.2745	2647.5781	1527.35	639.65
991.3985	2648.8398	1529.45	641.7
991.5225	2650.1009	1562.5	637.6
991.6464	2651.3613	1527.05	638.25
991.7703	2652.6211	1529.7	641.15
991.8942	2653.8801	1523.8	636.8
992.018	2655.1385	1523.2	632.85
992.1418	2656.3961	1516	626.75
992.2655	2657.6531	1524.35	637
992.3892	2658.9094	1516.1	626.15
992.5129	2660.1651	1521.4	636.25
992.6366	2661.42	1526.2	639
992.7602	2662.6743	1521.65	634.2
992.8837	2663.9279	1530.7	644.2
993.0073	2665.1808	1529.05	639.95
993.1307	2666.433	1525.95	637.15
993.2542	2667.6846	1523.85	636.05
993.3776	2668.9354	1532.8	641.5
993.501	2670.1856	1527.2	636.7
993.6244	2671.4351	1538.9	651.7
993.7477	2672.6839	1533.5	642
993.8709	2673.9321	1534.65	645.65
993.9942	2675.1795	1532.2	643.6
994.1174	2676.4263	1537.4	649.15
994.2405	2677.6724	1541.2	655.95
994.3637	2678.9179	1537.25	649.8
994.4868	2680.1626	1538.5	652.15
994.6098	2681.4067	1534.5	646.05
994.7328	2682.6501	1538.3	651.35
994.8558	2683.8928	1538.55	651.85
994.9788	2685.1348	1527.05	638.3
995.1017	2686.3761	1529.65	641.15
995.2245	2687.6168	1521.8	635.1
995.3474	2688.8568	1511.6	623.5
995.4702	2690.0961	1514.25	627.9
995.5929	2691.3348	1511.15	623.15
995.7156	2692.5727	1509.35	621.65
995.8383	2693.81	1508.9	620.45
995.961	2695.0466	1502.05	611.95
996.0836	2696.2826	1506.3	616.05
996.2062	2697.5178	1511.75	622.75
996.3287	2698.7524	1507.95	621.05
996.4512	2699.9863	1508.6	618.7
996.5737	2701.2195	1505.8	619.2
996.6961	2702.452	1509.3	621.8
996.8185	2703.6839	1510.9	622.25
996.9408	2704.9151	1517.65	631.1
997.0631	2706.1456	1524.5	637
997.1854	2707.3755	1528.25	640.45
997.3077	2708.6046	1538.55	649.05
997.4299	2709.8331	1547.35	658.95
997.552	2711.0609	1546.4	659.75
997.6742	2712.2881	1550.5	661.9
997.7963	2713.5145	1563.25	674.55
997.9183	2714.7403	1565.45	678.15
998.0403	2715.9654	1576.7	689.55
998.1623	2717.1899	1599.2	697.1
998.2842	2718.4136	1604.35	717
998.4062	2719.6367	1612.1	725.25
998.528	2720.8591	1636.45	742.7
998.6498	2722.0809	1633.95	745.05
998.7716	2723.3019	1652.55	761.6
998.8934	2724.5223	1647.7	759.55
999.0151	2725.7421	1658.95	770.2
999.1368	2726.9611	1664.8	775.4
999.2584	2728.1795	1663.6	769.65
999.38	2729.3972	1654.8	767.75
999.5016	2730.6142	1652.5	752.25
999.6231	2731.8306	1628.45	739.8
999.7446	2733.0462	1608.5	718.85
999.8661	2734.2612	1600.45	708.8
999.9875	2735.4756	1581.2	692.9
1000.1089	2736.6892	1558.65	670
1000.2302	2737.9022	1539.3	653.3
1000.3515	2739.1145	1533.7	646.95
1000.4728	2740.3262	1527.4	630.9
1000.594	2741.5372	1513	627.7
1000.7152	2742.7475	1496.9	609.9
1000.8363	2743.9571	1490.7	602.4
1000.9575	2745.1661	1484.3	592.6
1001.0785	2746.3744	1479.75	591.3
1001.1996	2747.582	1464.6	579.65
1001.3206	2748.7889	1457.05	571.2
1001.4415	2749.9952	1443.25	555.45
1001.5625	2751.2008	1436.6	548.6
1001.6833	2752.4057	1432.15	545.45
1001.8042	2753.61	1436.25	549.05
1001.925	2754.8136	1434.1	544.9
1002.0458	2756.0165	1434.9	550.4
1002.1665	2757.2188	1428.6	544.4
1002.2872	2758.4204	1434	548.05
1002.4078	2759.6213	1432.1	545.8
1002.5285	2760.8215	1432.4	538.15
1002.649	2762.0211	1428.75	541.5
1002.7696	2763.22	1427.35	538.95
1002.8901	2764.4182	1419.9	533.05
1003.0106	2765.6158	1426.75	539
1003.131	2766.8127	1418.1	533.8
1003.2514	2768.009	1421.95	535.3
1003.3717	2769.2045	1415.5	530.85
1003.492	2770.3994	1406.6	519
1003.6123	2771.5936	1401.85	514.6
1003.7325	2772.7872	1402.75	519.2
1003.8527	2773.9801	1404.05	517.5
1003.9729	2775.1723	1415.5	512.75
1004.093	2776.3639	1398.25	513.4
1004.2131	2777.5548	1400.55	515.5
1004.3331	2778.745	1399.55	514.3
1004.4531	2779.9346	1399.2	515.35
1004.5731	2781.1235	1389.7	503.3
1004.693	2782.3117	1398.15	515.15
1004.8129	2783.4992	1402.9	516
1004.9328	2784.6861	1403.9	517.6
1005.0526	2785.8723	1410.4	524.2
1005.1723	2787.0579	1412.2	525.75
1005.2921	2788.2428	1413.7	527.6
1005.4118	2789.427	1420.85	534.95
1005.5314	2790.6106	1423.55	540.55
1005.651	2791.7935	1432.85	547.9
1005.7706	2792.9757	1438.55	553.7
1005.8902	2794.1573	1449.8	565.25
1006.0097	2795.3382	1462.15	577.9
1006.1291	2796.5184	1465	579.6
1006.2485	2797.698	1483.95	597.3
1006.3679	2798.8769	1479.45	593.65
1006.4873	2800.0551	1511.45	624.75
1006.6066	2801.2327	1517.15	629.7
1006.7258	2802.4096	1532.15	647.15
1006.8451	2803.5859	1545.9	659.1
1006.9642	2804.7615	1559.6	675.05
1007.0834	2805.9364	1579.4	695.8
1007.2025	2807.1106	1607.2	725.55
1007.3216	2808.2842	1625.45	741.6
1007.4406	2809.4572	1651.4	767.3
1007.5596	2810.6294	1689.5	805.4
1007.6785	2811.801	1722	837.7
1007.7975	2812.972	1753.55	869.45
1007.9163	2814.1423	1794.15	909.4
1008.0352	2815.3119	1837.7	953.7
1008.154	2816.4808	1887.75	1003.65
1008.2727	2817.6491	1940.35	1055.3
1008.3914	2818.8167	1993.25	1109.05
1008.5101	2819.9837	2052.2	1162.25
1008.6288	2821.15	2099.95	1217.2
1008.7474	2822.3157	2145.85	1262.2
1008.8659	2823.4807	2221.9	1337.9
1008.9844	2824.645	2267.85	1381.45
1009.1029	2825.8086	2326.45	1442.6
1009.2214	2826.9716	2378.7	1496.5
1009.3398	2828.134	2433.35	1548.55
1009.4581	2829.2957	2496.6	1613.8
1009.5764	2830.4567	2522.6	1638.95
1009.6947	2831.617	2563.05	1678.3
1009.813	2832.7767	2553.75	1672.55
1009.9312	2833.9358	2556.6	1671.6
1010.0493	2835.0941	2554.35	1669.6
1010.1675	2836.2519	2553.25	1667.6
1010.2855	2837.4089	2527.35	1643.9
1010.4036	2838.5653	2513.45	1628.35
1010.5216	2839.7211	2487.1	1605.9
1010.6396	2840.8761	2486.3	1602.1
1010.7575	2842.0306	2500.65	1619.45
1010.8754	2843.1843	2514.55	1632.6
1010.9932	2844.3374	2556.2	1674.05
1011.111	2845.4899	2609.3	1726.15
1011.2288	2846.6417	2656.7	1770.95
1011.3465	2847.7928	2720.65	1837.25
1011.4642	2848.9433	2776.65	1893.75
1011.5818	2850.0931	2848.6	1965.3
1011.6995	2851.2422	2917.55	2032
1011.817	2852.3907	2981.8	2099.35
1011.9345	2853.5385	3021.75	2136.35
1012.052	2854.6857	3093.9	2185.9
1012.1695	2855.8323	3117.35	2234.8
1012.2869	2856.9781	3194.5	2311.55
1012.4042	2858.1233	3232.05	2348.45
1012.5216	2859.2679	3285.55	2402.1
1012.6389	2860.4118	3332.05	2449.15
1012.7561	2861.555	3390.6	2503.75
1012.8733	2862.6976	3413.7	2528.75
1012.9905	2863.8395	3470.25	2588.25
1013.1076	2864.9808	3494	2610
1013.2247	2866.1214	3513.2	2632.5
1013.3417	2867.2614	3524.9	2640.85
1013.4587	2868.4007	3551.7	2668.15
1013.5757	2869.5393	3552.45	2666.5
1013.6926	2870.6773	3581.9	2697.3
1013.8095	2871.8146	3591.2	2703.45
1013.9263	2872.9513	3599.5	2713.7
1014.0431	2874.0874	3578.65	2694.6
1014.1599	2875.2227	3573.1	2687.8
1014.2766	2876.3574	3549.25	2665.6
1014.3933	2877.4915	3522.75	2641.45
1014.51	2878.6249	3496.55	2613.5
1014.6266	2879.7577	3467.05	2582.55
1014.7431	2880.8898	3473.3	2580.15
1014.8596	2882.0212	3450.05	2568.45
1014.9761	2883.152	3424.5	2540.75
1015.0925	2884.2821	3417.05	2534.75
1015.2089	2885.4116	3408.55	2525.7
1015.3253	2886.5405	3406.5	2524
1015.4416	2887.6686	3410.3	2524.85
1015.5579	2888.7962	3428.55	2548.2
1015.6741	2889.923	3432.05	2550.8
1015.7903	2891.0493	3451.1	2569.5
1015.9065	2892.1748	3444.35	2560.5
1016.0226	2893.2997	3460.05	2577.9
1016.1387	2894.424	3480.35	2599.75
1016.2547	2895.5476	3502.75	2617.85
1016.3707	2896.6706	3508.3	2628.85
1016.4866	2897.7929	3552.7	2670.55
1016.6025	2898.9145	3568.7	2687.05
1016.7184	2900.0355	3601.8	2719.6
1016.8342	2901.1559	3617.5	2734.9
1016.95	2902.2756	3674.15	2788.4
1017.0658	2903.3946	3691.05	2811.35
1017.1815	2904.513	3714.6	2827.1
1017.2971	2905.6308	3729.25	2845.85
1017.4127	2906.7479	3754.6	2871.45
1017.5283	2907.8643	3778.15	2895.5
1017.6439	2908.9801	3798.95	2918.25
1017.7594	2910.0953	3811.3	2929.05
1017.8748	2911.2098	3810.1	2925.1
1017.9902	2912.3236	3809.5	2920
1018.1056	2913.4368	3801.9	2916.45
1018.2209	2914.5494	3769.65	2889.95
1018.3362	2915.6613	3731	2843.3
1018.4515	2916.7725	3716.15	2833.45
1018.5667	2917.8831	3681	2799.4
1018.6819	2918.9931	3652.3	2768
1018.797	2920.1024	3633.9	2749.85
1018.9121	2921.211	3604.05	2720.9
1019.0271	2922.319	3584.25	2702.6
1019.1421	2923.4264	3555.2	2674.8
1019.2571	2924.5331	3546.6	2665.95
1019.372	2925.6391	3551.15	2671.65
1019.4869	2926.7445	3539.75	2659.2
1019.6017	2927.8493	3557	2675.3
1019.7165	2928.9534	3568.55	2686.55
1019.8313	2930.0569	3575.5	2691.65
1019.946	2931.1597	3573.1	2691.85
1020.0606	2932.2619	3578	2696.75
1020.1753	2933.3634	3566.45	2683.25
1020.2899	2934.4643	3580.3	2691.95
1020.4044	2935.5645	3570.2	2684.8
1020.5189	2936.6641	3540.65	2653.65
1020.6334	2937.763	3497.6	2618.2
1020.7478	2938.8613	3472.9	2591.6
1020.8622	2939.959	3425.1	2537.2
1020.9765	2941.056	3349.55	2468.55
1021.0908	2942.1523	3270	2387.6
1021.2051	2943.248	3196.6	2313.75
1021.3193	2944.3431	3120.85	2240.05
1021.4334	2945.4375	3015.3	2134.15
1021.5476	2946.5313	2903.55	2026.1
1021.6617	2947.6244	2808.3	1926.5
1021.7757	2948.7169	2706.55	1824.85
1021.8897	2949.8087	2610.65	1729.05
1022.0037	2950.8999	2529.25	1647.5
1022.1176	2951.9904	2438.2	1558.65
1022.2315	2953.0803	2382.85	1500.85
1022.3453	2954.1696	2314.1	1431.3
1022.4591	2955.2582	2262.2	1382
1022.5728	2956.3462	2211.05	1331.15
1022.6865	2957.4335	2182.3	1303
1022.8002	2958.5202	2130.4	1247.6
1022.9138	2959.6062	2114.95	1234.5
1023.0274	2960.6916	2084.65	1206.65
1023.141	2961.7764	2068.2	1187.05
1023.2545	2962.8605	2051.55	1169.95
1023.3679	2963.9439	2038.05	1157.6
1023.4813	2965.0267	2029.7	1149.55
1023.5947	2966.1089	2039.25	1136.35
1023.708	2967.1905	2003.35	1125.4
1023.8213	2968.2714	2004.25	1122.95
1023.9346	2969.3516	2000.5	1118.9
1024.0478	2970.4312	2007.4	1118.4
1024.1609	2971.5102	2002.7	1122.8
1024.274	2972.5885	2010.1	1131.2
1024.3871	2973.6662	2014.15	1130.65
1024.5002	2974.7432	2014.05	1135.7
1024.6132	2975.8196	2022.3	1142.9
1024.7261	2976.8954	2007.6	1128.2
1024.839	2977.9705	1989.55	1109.25
1024.9519	2979.045	1978.65	1099.15
1025.0647	2980.1188	1969.9	1091
1025.1775	2981.192	1939.95	1061.05
1025.2902	2982.2645	1929.55	1047
1025.4029	2983.3364	1913.6	1032.45
1025.5156	2984.4077	1884.6	1004.55
1025.6282	2985.4783	1859.55	972.6
1025.7407	2986.5483	1833.35	953.9
1025.8532	2987.6177	1799.05	919.8
1025.9657	2988.6864	1760.1	880.3
1026.0782	2989.7545	1734.95	853.8
1026.1906	2990.8219	1698.25	817.65
1026.3029	2991.8887	1657.3	775.25
1026.4152	2992.9548	1629.45	746.6
1026.5275	2994.0204	1601.6	724.9
1026.6397	2995.0852	1571.7	691
1026.7519	2996.1495	1541.85	660.45
1026.864	2997.2131	1518	636.25
1026.9761	2998.276	1492.3	612.65
1027.0882	2999.3383	1468.2	586.55
1027.2002	3000.4	1453.2	571.75
1027.3122	3001.4611	1425.65	544.7
1027.4241	3002.5215	1416.5	536.9
1027.536	3003.5812	1398.3	519.35
1027.6478	3004.6404	1382.55	503.6
1027.7596	3005.6989	1377.7	496.05
1027.8714	3006.7567	1354.75	475
1027.9831	3007.8139	1370.75	461.95
1028.0947	3008.8705	1337.95	459.05
1028.2064	3009.9264	1329.7	446.6
1028.3179	3010.9818	1330.2	451.45
1028.4295	3012.0364	1317.7	435.05
1028.541	3013.0905	1309	429.15
1028.6524	3014.1439	1305.45	424.3
1028.7638	3015.1966	1297.75	417.1
1028.8752	3016.2487	1297.45	416.5
1028.9865	3017.3002	1301.8	417
1029.0978	3018.3511	1286.4	407.9
1029.209	3019.4013	1285.4	404.75
1029.3202	3020.4509	1283.15	404.35
1029.4314	3021.4998	1286.2	408.6
1029.5425	3022.5481	1285.6	406.85
1029.6535	3023.5958	1275.05	394.7
1029.7645	3024.6428	1281.75	400.25
1029.8755	3025.6892	1271.9	393.7
1029.9864	3026.735	1276.5	394.25
1030.0973	3027.7802	1279.65	399.2
1030.2082	3028.8247	1277.55	399.05
1030.319	3029.8685	1282.75	401.25
1030.4297	3030.9118	1275.25	394.8
1030.5404	3031.9544	1284.15	406.05
1030.6511	3032.9963	1277.2	399.05
1030.7617	3034.0376	1284.2	404.6
1030.8723	3035.0783	1289.85	407.85
1030.9829	3036.1184	1290	409.45
1031.0934	3037.1578	1292.6	416.35
1031.2038	3038.1966	1296.1	414.55
1031.3142	3039.2348	1288.4	409
1031.4246	3040.2723	1303.85	416.2
1031.5349	3041.3092	1298.85	421.3
1031.6452	3042.3455	1299.95	418.55
1031.7554	3043.3811	1291.75	410.85
1031.8656	3044.4161	1290.85	410.1
1031.9758	3045.4505	1292.25	413.75
1032.0859	3046.4842	1286.95	407.45
1032.1959	3047.5173	1284.85	405.45
1032.3059	3048.5498	1282.05	403.2
1032.4159	3049.5816	1280.25	399.9
1032.5258	3050.6128	1277.95	398.25
1032.6357	3051.6434	1277.95	396.35
1032.7455	3052.6734	1267	385.2
1032.8553	3053.7027	1261.2	382.2
1032.9651	3054.7314	1265.4	386.2
1033.0748	3055.7594	1256.45	378.45
1033.1845	3056.7868	1257.8	377.7
1033.2941	3057.8136	1250.1	370.55
1033.4037	3058.8398	1251.35	373.75
1033.5132	3059.8653	1242.75	363.6
1033.6227	3060.8902	1249.1	370.75
1033.7321	3061.9145	1241.55	361.1
1033.8415	3062.9381	1248.2	369.7
1033.9509	3063.9612	1243.4	351.3
1034.0602	3064.9835	1231.05	351.95
1034.1694	3066.0053	1238.1	357.3
1034.2787	3067.0264	1223.55	346.25
1034.3878	3068.0469	1222.45	344.25
1034.497	3069.0668	1221.55	340.6
1034.6061	3070.086	1204.75	326.75
1034.7151	3071.1046	1203.75	325.1
1034.8241	3072.1226	1200.15	318.15
1034.9331	3073.1399	1198.85	321.95
1035.042	3074.1567	1183.85	304.35
1035.1508	3075.1727	1178.85	296.85
1035.2597	3076.1882	1171.35	294.45
1035.3684	3077.203	1163.35	284.85
1035.4772	3078.2173	1160.1	279.85
1035.5859	3079.2308	1152.95	271.35
1035.6945	3080.2438	1148.75	266.6
1035.8031	3081.2561	1142	263.7
1035.9117	3082.2678	1133.2	256.65
1036.0202	3083.2789	1128.8	249.85
1036.1286	3084.2893	1124.3	247.05
1036.2371	3085.2991	1115	236.35
1036.3454	3086.3083	1113.65	230.3
1036.4538	3087.3169	1104.65	223.85
1036.562	3088.3248	1103.4	223.85
1036.6703	3089.3321	1103.5	223.9
1036.7785	3090.3388	1092.4	214.25
1036.8866	3091.3449	1089.05	209.55
1036.9948	3092.3503	1092.3	208.85
1037.1028	3093.3551	1082.15	207.1
1037.2108	3094.3593	1084.25	207.6
1037.3188	3095.3629	1076.6	199.35
1037.4267	3096.3658	1078.6	198.7
1037.5346	3097.3681	1071.9	192.3
1037.6425	3098.3698	1066.5	186.3
1037.7503	3099.3708	1073.7	189.5
1037.858	3100.3713	1062.4	184.35
1037.9657	3101.3711	1060.75	181.7
1038.0734	3102.3702	1172.2	178.65
1038.181	3103.3688	1061.05	182.5
1038.2886	3104.3667	1052.15	174.85
1038.3961	3105.364	1052	174.95
1038.5036	3106.3607	1053.7	173.4
1038.611	3107.3568	1049.15	168.75
1038.7184	3108.3522	1048.2	169.15
1038.8257	3109.347	1042.25	163.8
1038.933	3110.3412	1044.35	160.85
1039.0403	3111.3348	1038.1	160.65
1039.1475	3112.3277	1036.95	157.35
1039.2547	3113.32	1034.75	156.5
1039.3618	3114.3117	1035.75	157.15
1039.4689	3115.3028	1031.45	152.1
1039.5759	3116.2932	1030.25	150.55
1039.6829	3117.2831	1033.8	151.5
1039.7898	3118.2723	1027.25	148.05
1039.8967	3119.2608	1026.3	150.45
1040.0035	3120.2488	1023.4	145.8
1040.1103	3121.2361	1023.1	143.3
1040.2171	3122.2229	1016.8	136.4
1040.3238	3123.209	1021.45	141.3
1040.4305	3124.1944	1011.35	134.65
1040.5371	3125.1793	1018.4	139.7
1040.6437	3126.1635	1013.3	135.75
1040.7502	3127.1471	1017.95	140.25
1040.8567	3128.1301	1012.2	133.85
1040.9631	3129.1125	1013.45	136.95
1041.0695	3130.0942	1013.5	134.55
1041.1759	3131.0753	1017.15	129.8
1041.2822	3132.0558	1012.65	134.05
1041.3884	3133.0357	1006	125.75
1041.4946	3134.015	1007.15	129.2
1041.6008	3134.9936	1002.45	120.95
1041.7069	3135.9716	1022.9	128.05
1041.813	3136.949	1005.25	126.05
1041.919	3137.9258	1018.15	121.8
1042.025	3138.902	1006.15	121.3
1042.1309	3139.8775	1003.35	126.05
1042.2368	3140.8524	998.8	121.9
1042.3427	3141.8267	996.6	117
1042.4485	3142.8004	994.35	115.95
1042.5542	3143.7735	1001.7	118.75
1042.6599	3144.7459	998.1	117.7
1042.7656	3145.7178	994.65	116.85
1042.8712	3146.689	995.15	117.65
1042.9768	3147.6596	995.45	116.5
1043.0823	3148.6295	994.35	118.25
1043.1878	3149.5989	986.65	109.05
1043.2932	3150.5676	988.35	111.75
1043.3986	3151.5357	982.25	105.25
1043.5039	3152.5032	987.5	110.55
1043.6092	3153.4701	986.05	107.6
1043.7145	3154.4364	987.4	106.2
1043.8197	3155.402	984.95	108.9
1043.9248	3156.367	986.6	108
1044.03	3157.3315	1021.25	109.85
1044.135	3158.2952	983.4	105.95
1044.24	3159.2584	981.85	101.7
1044.345	3160.221	980.55	101.25
1044.4499	3161.1829	980.15	103.9
1044.5548	3162.1442	977.8	100.9
1044.6596	3163.105	977.8	101.6
1044.7644	3164.065	979.75	101.8
1044.8692	3165.0245	977.65	96.35
1044.9739	3165.9834	973.25	95
1045.0785	3166.9416	974.7	96.25
1045.1831	3167.8993	974.7	95.55
1045.2877	3168.8563	976.95	100.05
1045.3922	3169.8127	972.6	94.8
1045.4966	3170.7684	971.75	95.2
1045.6011	3171.7236	974.1	96.3
1045.7054	3172.6782	972.1	93.75
1045.8098	3173.6321	974.4	94.25
1045.914	3174.5854	973.6	90.7
1046.0183	3175.5381	972.5	95.3
1046.1224	3176.4902	968.7	91.75
1046.2266	3177.4417	970.55	92.95
1046.3307	3178.3926	969.6	92.55
1046.4347	3179.3428	966.25	87.3
1046.5387	3180.2924	962.6	86.95
1046.6427	3181.2415	968.65	92.1
1046.7466	3182.1899	969.25	90.2
1046.8504	3183.1377	964.6	89.3
1046.9542	3184.0848	968.75	89.15
1047.058	3185.0314	960.8	82.95
1047.1617	3185.9773	962.05	82.85
1047.2654	3186.9227	960.4	81.55
1047.369	3187.8674	961.15	83.85
1047.4726	3188.8115	965.1	84.65
1047.5761	3189.755	960.75	83.3
1047.6796	3190.6979	960.7	85.2
1047.783	3191.6402	958.65	82.35
1047.8864	3192.5818	958.75	83.3
1047.9898	3193.5229	966.85	84.6
1048.0931	3194.4633	960.3	84.7
1048.1963	3195.4031	958.65	81.25
1048.2995	3196.3423	955.8	80.4
1048.4027	3197.2809	954.05	76.1
1048.5058	3198.2189	956.85	78.05
1048.6089	3199.1563	971.7	78.45
1048.7119	3200.0931	956.65	80.75
1048.8148	3201.0292	952.05	75.35
1048.9178	3201.9648	953.1	77.15
1049.0206	3202.8997	956.55	77.9
1049.1235	3203.834	952.85	74.3
1049.2262	3204.7677	952.35	75
1049.329	3205.7008	952.65	73.95
1049.4317	3206.6333	950.5	74.5
1049.5343	3207.5652	956.2	77.2
1049.6369	3208.4964	953.15	74.6
1049.7394	3209.4271	953.1	76
1049.8419	3210.3571	951.8	77.15
1049.9444	3211.2865	950.3	72.35
1050.0468	3212.2154	948.85	71.8
1050.1491	3213.1436	951.7	70.05
1050.2514	3214.0712	954.1	69.3
1050.3537	3214.9982	949.3	73.7
1050.4559	3215.9246	945.95	68.5
1050.5581	3216.8503	946.25	71.55
1050.6602	3217.7755	945.55	69.8
1050.7623	3218.7001	947.95	70.7
1050.8643	3219.624	946.55	69.85
1050.9663	3220.5473	945.25	67.45
1051.0682	3221.4701	949.45	70.75
1051.1701	3222.3922	946.9	67.65
1051.2719	3223.3137	945.1	69.55
1051.3737	3224.2346	940.1	63.6
1051.4754	3225.1549	943.05	66.15
1051.5771	3226.0746	940.95	65.05
1051.6788	3226.9937	943.1	66.35
1051.7804	3227.9121	940.8	65.7
1051.8819	3228.83	941.75	66.55
1051.9834	3229.7473	938.95	61.7
1052.0849	3230.6639	940.6	65
1052.1863	3231.5799	943.05	67.8
1052.2876	3232.4954	945.05	68.15
1052.3889	3233.4102	939.65	63.7
1052.4902	3234.3244	940.7	61.9
1052.5914	3235.238	938.8	61.6
1052.6926	3236.151	961.8	60.95
1052.7937	3237.0634	936.25	61.1
1052.8948	3237.9752	938.65	61
1052.9958	3238.8864	939.55	63.85
1053.0968	3239.797	938.2	62.3
1053.1977	3240.7069	940.9	63.75
1053.2986	3241.6163	937.4	58.35
1053.3994	3242.5251	937.1	61.95
1053.5002	3243.4332	937.65	62.55
1053.6009	3244.3408	937.15	57.9
1053.7016	3245.2477	933.55	58.15
1053.8022	3246.154	936.15	58.75
1053.9028	3247.0598	934.3	56.4
1054.0034	3247.9649	935.1	58
1054.1039	3248.8694	934.95	58.5
1054.2043	3249.7733	933.95	56
1054.3047	3250.6766	929.25	54.05
1054.4051	3251.5793	931.3	52.1
1054.5054	3252.4814	928.8	53.9
1054.6056	3253.3829	930.7	55.4
1054.7058	3254.2838	930.95	56.1
1054.806	3255.1841	928.15	52.15
1054.9061	3256.0838	926.95	49.05
1055.0061	3256.9829	926.95	52
1055.1062	3257.8814	929.7	50.45
1055.2061	3258.7792	929.85	52.2
1055.306	3259.6765	925.75	47
1055.4059	3260.5731	926.35	50.15
1055.5057	3261.4692	924.05	46.6
1055.6055	3262.3647	924.2	47.3
1055.7052	3263.2595	925.75	50.1
1055.8049	3264.1538	924.05	48.25
1055.9045	3265.0474	923.5	48
1056.0041	3265.9404	920.15	44.4
1056.1036	3266.8329	922.6	47.5
1056.2031	3267.7247	928.05	41.15
1056.3025	3268.616	916.8	41.55
1056.4019	3269.5066	917.35	40.6
1056.5013	3270.3966	916.6	38
1056.6005	3271.286	913.75	38.05
