Software Version:	3.9.2.0
Unit SN:	10000200
Spectrometer SN:	6960
Date:	3/8/2024 1:32:48 PM
Data Line Index:	25
Spectral Points:	2048
Integration time (ms):	125
Averages:	20
Delay (ms):	30000
Sequence Number:	1
Processing:	dark subtract
Laser Power (mW):	300
Laser Current (mA):	823
Laser Diode Temp (C):	25.1
Laser Case Temp (C):	26.3
System Temp (C):	26.3
Spectrometer Temp (C):	24.2
CCD Temp (C):	0.016
Secondary Temp (C):	20.004
Heatsink Temp (C):	20.667
CCDPCB Temp (C):	36.351
SecondaryPCB Temp (C):	31.849

Wavelength	RamanShift	Raw Counts	Dark Subtracted
787.061	30.1047	453.55	45.4
787.2016	32.3739	451.7	43.7
787.3422	34.6426	455.85	47.75
787.4828	36.9109	462.25	53
787.6235	39.1787	469.7	56.5
787.7642	41.4461	480.1	64.1
787.9049	43.7131	489.95	68.65
788.0456	45.9796	496.85	73.25
788.1863	48.2456	508.05	80.65
788.3271	50.5112	515.55	84.35
788.4679	52.7764	520	86.8
788.6087	55.0411	531.65	90.8
788.7496	57.3054	542.4	97.25
788.8904	59.5692	552	106.9
789.0313	61.8326	561.9	113.9
789.1722	64.0955	572.85	120.7
789.3132	66.3579	592.4	134.35
789.4541	68.6199	608.5	146.75
789.5951	70.8815	640.75	174.25
789.7361	73.1426	713.55	244.05
789.8771	75.4032	911.6	438.7
790.0181	77.6634	1390.65	912.55
790.1592	79.9231	2511	2027.2
790.3003	82.1824	4938.2	4439.75
790.4414	84.4412	9281.15	8756.1
790.5825	86.6995	15265.55	14709.45
790.7237	88.9574	21133.5	20552.3
790.8648	91.2148	25151.05	24551.5
791.006	93.4717	27003.8	26392.85
791.1472	95.7282	27346.05	26731.5
791.2885	97.9842	27191.4	26571.7
791.4297	100.2398	26580.45	25957.3
791.571	102.4949	25905.45	25278.8
791.7123	104.7495	25117.4	24489.65
791.8536	107.0036	24347.6	23717.45
791.9949	109.2573	23509.7	22880.8
792.1363	111.5105	22767.85	22139.25
792.2777	113.7632	22056.95	21420.9
792.4191	116.0154	21450.5	20805.95
792.5605	118.2672	20968.25	20326.15
792.7019	120.5185	20486.25	19845.15
792.8434	122.7693	20096.9	19455.2
792.9849	125.0197	19809.25	19162.1
793.1264	127.2696	19542.4	18892.15
793.2679	129.519	19343.6	18688.65
793.4094	131.7679	19100.35	18438.1
793.551	134.0163	18936.35	18272.7
793.6926	136.2642	18686.1	18017.85
793.8342	138.5117	18429.3	17762.9
793.9758	140.7587	18138.9	17471.35
794.1175	143.0052	17907.8	17237.7
794.2591	145.2512	17626.9	16956
794.4008	147.4967	17429.8	16756.8
794.5425	149.7417	17232.7	16557.05
794.6842	151.9863	17103.85	16424.35
794.826	154.2304	17022.9	16339.15
794.9677	156.4739	16906.95	16220.1
795.1095	158.717	16780.4	16091.55
795.2513	160.9596	16624.85	15929.65
795.3931	163.2017	16383.8	15688.7
795.535	165.4433	16088.9	15390.35
795.6768	167.6844	15748.05	15046.8
795.8187	169.925	15418.1	14714.95
795.9606	172.1651	15061.55	14356.45
796.1025	174.4047	14748.3	14043.45
796.2445	176.6439	14504.4	13795
796.3864	178.8825	14260.75	13550.65
796.5284	181.1206	14084.25	13364.1
796.6704	183.3582	13931.45	13208.5
796.8124	185.5954	13822.15	13096.3
796.9544	187.832	13751.85	13025.5
797.0965	190.0681	13711.7	12980.55
797.2386	192.3037	13693.5	12961.75
797.3806	194.5388	13671.55	12936.05
797.5228	196.7734	13708.45	12973.8
797.6649	199.0075	13777.55	13038.1
797.807	201.2411	13908.5	13170.2
797.9492	203.4742	13987.6	13242.15
798.0914	205.7068	14123	13373.25
798.2336	207.9389	14208.65	13463.3
798.3758	210.1704	14369	13629.6
798.518	212.4015	14476.5	13750.5
798.6603	214.632	14641.45	13919.2
798.8025	216.862	14799.95	14078.3
798.9448	219.0915	14928.85	14202.55
799.0871	221.3205	15114.2	14384.5
799.2294	223.549	15337.6	14613.65
799.3718	225.777	15592.75	14866.9
799.5141	228.0044	15925.85	15192.9
799.6565	230.2314	16308.25	15575.95
799.7989	232.4578	16682.9	15944.05
799.9413	234.6837	17036.6	16290
800.0837	236.909	17215.2	16470.35
800.2262	239.1339	17190.65	16416.95
800.3687	241.3582	16982.1	16226.25
800.5111	243.582	16728.85	15937.15
800.6536	245.8053	16406.65	15632.15
800.7961	248.0281	16160.75	15395.75
800.9387	250.2503	15917	15145.45
801.0812	252.472	15796.7	15023.85
801.2238	254.6932	15785.45	15009.65
801.3664	256.9139	15728.75	14958.05
801.509	259.134	15765.1	14985.2
801.6516	261.3536	15814.65	15041.4
801.7942	263.5727	15928.05	15148.35
801.9369	265.7912	15930.1	15154.7
802.0795	268.0092	16001.7	15219.85
802.2222	270.2267	16030.5	15250.8
802.3649	272.4436	16040.8	15257.6
802.5076	274.6601	15960.1	15167.95
802.6504	276.8759	15836.55	15050.75
802.7931	279.0913	15792.25	15006.25
802.9359	281.3061	15773.15	14982.65
803.0787	283.5204	15785.45	14993.05
803.2215	285.7341	15792.55	14997.5
803.3643	287.9473	15919.6	15113.7
803.5071	290.16	16125.7	15327.85
803.6499	292.3721	16394	15606.95
803.7928	294.5837	16779.6	15983.9
803.9357	296.7947	17110.85	16321
804.0786	299.0052	17289.65	16497.85
804.2215	301.2152	17214.95	16418
804.3644	303.4246	16865.2	16073.8
804.5074	305.6334	16365.85	15573.05
804.6503	307.8418	15860.8	15065.4
804.7933	310.0495	15420.3	14622.5
804.9363	312.2568	15079.6	14277.9
805.0793	314.4635	14819.65	14018.25
805.2223	316.6696	14678.7	13872.8
805.3653	318.8752	14619.2	13803.8
805.5084	321.0802	14626.85	13819.35
805.6514	323.2847	14735.5	13928.1
805.7945	325.4887	14799.2	13993.9
805.9376	327.692	14728.75	13918.15
806.0807	329.8949	14632.95	13824.05
806.2238	332.0972	14358.4	13547.75
806.367	334.2989	14119.3	13305
806.5101	336.5001	13811.2	12992.8
806.6533	338.7007	13645.3	12826.6
806.7965	340.9008	13503.65	12687.75
806.9397	343.1003	13355.6	12538.35
807.0829	345.2992	13286.95	12465.65
807.2261	347.4976	13226.6	12405.75
807.3693	349.6955	13245.8	12419.35
807.5126	351.8927	13276.55	12451.4
807.6559	354.0895	13253.15	12415.2
807.7991	356.2856	13299.15	12470.9
807.9424	358.4812	13257.55	12430.8
808.0857	360.6763	13321.7	12494.85
808.2291	362.8707	13261.7	12429.6
808.3724	365.0646	13283.5	12453.2
808.5158	367.258	13317.05	12479.45
808.6591	369.4508	13379.55	12540.25
808.8025	371.643	13423.9	12585.75
808.9459	373.8346	13447.7	12603.95
809.0893	376.0257	13457.85	12617.75
809.2327	378.2162	13384.2	12543.95
809.3762	380.4062	13314.65	12473.15
809.5196	382.5956	13157.9	12321.95
809.6631	384.7844	13076.25	12243.65
809.8066	386.9726	12972.7	12143
809.9501	389.1603	12878.15	12047.6
810.0936	391.3474	12852	11986.25
810.2371	393.5339	12833.35	11998.1
810.3806	395.7199	12768	11932.75
810.5241	397.9052	12785.1	11953.3
810.6677	400.09	12820.95	11988.1
810.8113	402.2743	12907.45	12071.65
810.9548	404.4579	12989.95	12152.35
811.0984	406.641	13175.5	12338.55
811.2421	408.8235	13384.95	12549.25
811.3857	411.0054	13663.75	12823.15
811.5293	413.1868	14013.5	13167.8
811.673	415.3675	14313.35	13465.65
811.8166	417.5477	14472.25	13622.6
811.9603	419.7273	14496.05	13646.6
812.104	421.9064	14421.9	13564.95
812.2477	424.0848	14305.45	13457.55
812.3914	426.2627	14093.5	13244.75
812.5351	428.4399	13821.2	12969.3
812.6788	430.6166	13443.75	12588.45
812.8226	432.7928	13083.85	12225.55
812.9663	434.9683	12759.8	11905.25
813.1101	437.1432	12539.45	11679.55
813.2539	439.3176	12378.5	11526.1
813.3977	441.4914	12300.1	11452.3
813.5415	443.6645	12247.8	11396.9
813.6853	445.8371	12203.05	11348.2
813.8291	448.0091	12134.6	11281.4
813.973	450.1806	12108.5	11256.4
814.1168	452.3514	12051.95	11200.35
814.2607	454.5216	12093.1	11230.75
814.4046	456.6913	12054.4	11198.35
814.5485	458.8603	12053.25	11199.9
814.6924	461.0288	12127.45	11278.6
814.8363	463.1967	12110.7	11262.35
814.9802	465.3639	12200.1	11348
815.1241	467.5306	12297.7	11446.8
815.2681	469.6967	12442.35	11591.7
815.412	471.8622	12518.55	11671.1
815.556	474.0271	12691	11843.05
815.7	476.1914	12746.4	11888.4
815.844	478.3551	12739.05	11880.65
815.988	480.5182	12737.9	11883.2
816.132	482.6807	12742.5	11893.45
816.276	484.8426	12831	11985.25
816.4201	487.0039	13136.9	12287.55
816.5641	489.1647	13511.8	12654.4
816.7082	491.3248	13944.65	13085.75
816.8522	493.4843	14130.1	13276.7
816.9963	495.6432	14109.9	13252.15
817.1404	497.8015	14025.9	13161.8
817.2845	499.9592	13978.75	13114.3
817.4286	502.1163	13859.25	12992.4
817.5727	504.2728	13647.75	12783.25
817.7168	506.4287	13334.3	12481.15
817.861	508.5839	12924.6	12068.1
818.0051	510.7386	12654.8	11794.5
818.1493	512.8927	12462.2	11596.4
818.2935	515.0461	12356.65	11492.55
818.4377	517.199	12351.6	11483.7
818.5818	519.3512	12389.45	11523.3
818.726	521.5029	12471.35	11602.45
818.8703	523.6539	12592.55	11723.7
819.0145	525.8043	12618.6	11750.75
819.1587	527.9541	12638.1	11763.85
819.303	530.1033	12567.4	11699.35
819.4472	532.2519	12570.85	11699.95
819.5915	534.3999	12659.1	11788.9
819.7357	536.5472	12887.95	12019.1
819.88	538.694	13303.8	12437.45
820.0243	540.8401	13805.25	12933.5
820.1686	542.9856	14234.55	13353.1
820.3129	545.1305	14420.2	13536.95
820.4572	547.2748	14266.1	13386.35
820.6016	549.4185	13950.6	13065.7
820.7459	551.5615	13654.1	12773.35
820.8902	553.704	13515.65	12636.75
821.0346	555.8458	13485.25	12609.35
821.1789	557.987	13541.55	12665.1
821.3233	560.1276	13560.2	12680.15
821.4677	562.2675	13664	12787
821.6121	564.4069	13811.85	12933.65
821.7565	566.5456	13888.9	13009.9
821.9009	568.6837	13852.4	12975.3
822.0453	570.8212	13566.2	12691.8
822.1897	572.958	13161.7	12286.2
822.3342	575.0942	12778.8	11905.7
822.4786	577.2299	12531.2	11655.6
822.6231	579.3648	12469.55	11603.4
822.7675	581.4992	12520.9	11662.9
822.912	583.6329	12705.55	11847.55
823.0565	585.766	12924.35	12061.65
823.201	587.8985	13080.4	12212.15
823.3454	590.0304	13089.35	12193.6
823.4899	592.1616	13030.45	12145.5
823.6345	594.2922	12907.3	12025.1
823.779	596.4222	12732.7	11849.45
823.9235	598.5515	12571	11685.4
824.068	600.6802	12390.35	11508.15
824.2126	602.8083	12213.9	11330.95
824.3571	604.9358	12179.7	11296.95
824.5017	607.0626	12140.65	11255.25
824.6462	609.1888	12126.3	11237.5
824.7908	611.3144	12120.35	11231.95
824.9354	613.4393	12058.55	11170.05
825.08	615.5636	12017.55	11127.75
825.2246	617.6873	11948.3	11058.05
825.3692	619.8103	11856.7	10966.2
825.5138	621.9327	11735.95	10848.85
825.6584	624.0544	11671	10789.1
825.803	626.1756	11619.15	10733.1
825.9477	628.2961	11572.8	10685.8
826.0923	630.4159	11507.9	10619.7
826.237	632.5351	11404.7	10514.25
826.3816	634.6537	11392.45	10503.95
826.5263	636.7716	11405.1	10514.25
826.6709	638.8889	11396.95	10501.25
826.8156	641.0056	11400.1	10509.3
826.9603	643.1216	11396.95	10502.6
827.105	645.237	11402.3	10511.55
827.2497	647.3518	11387.95	10500.15
827.3944	649.4659	11378.65	10490.8
827.5391	651.5793	11373.95	10487.65
827.6838	653.6922	11365.4	10476.95
827.8285	655.8043	11355.45	10470
827.9733	657.9159	11296.5	10406.8
828.118	660.0268	11241.5	10351.85
828.2627	662.137	11229.35	10335.7
828.4075	664.2466	11215.3	10320.15
828.5522	666.3556	11194	10298.4
828.697	668.4639	11151.6	10261
828.8418	670.5716	11201.8	10311.15
828.9865	672.6786	11225.2	10332.65
829.1313	674.785	11282.15	10385.9
829.2761	676.8907	11346.15	10450.4
829.4209	678.9958	11381.9	10490
829.5657	681.1002	11357.1	10461.6
829.7105	683.204	11347.35	10446.1
829.8553	685.3072	11300.8	10402
830.0001	687.4097	11267.95	10369.9
830.1449	689.5115	11228.9	10329.15
830.2898	691.6127	11196.3	10300.2
830.4346	693.7132	11123.6	10229.2
830.5794	695.8131	11088.85	10180
830.7243	697.9123	11073.25	10169.95
830.8691	700.0109	11039.05	10135.7
831.014	702.1089	11055.45	10153.6
831.1588	704.2061	11091	10191.9
831.3037	706.3028	11116.7	10215
831.4486	708.3987	11143	10243.95
831.5935	710.4941	11217.85	10320.8
831.7383	712.5887	11352.9	10455.5
831.8832	714.6827	11615.6	10714.85
832.0281	716.7761	11895.5	10998.8
832.173	718.8688	12246	11345.1
832.3179	720.9608	12435.65	11527.15
832.4628	723.0522	12489.55	11577.1
832.6077	725.1429	12367.85	11463.85
832.7527	727.233	12128.1	11223.65
832.8976	729.3224	11961.1	11059.25
833.0425	731.4112	11727.2	10825.85
833.1874	733.4993	11540.7	10636.75
833.3324	735.5867	11368.65	10465.5
833.4773	737.6735	11255.6	10351.35
833.6222	739.7596	11168.15	10261.95
833.7672	741.845	11069.85	10168.25
833.9122	743.9298	11039.25	10134.65
834.0571	746.014	11040.1	10135.3
834.2021	748.0974	11062.5	10154.9
834.347	750.1802	11066.6	10154.35
834.492	752.2624	11066.65	10160.65
834.637	754.3439	11151.15	10242
834.782	756.4247	11206.55	10289.25
834.9269	758.5048	11332	10426.65
835.0719	760.5843	11582.4	10673.05
835.2169	762.6631	11896.15	10984.25
835.3619	764.7413	12384.05	11479.5
835.5069	766.8188	12999	12089.5
835.6519	768.8956	13468	12555.8
835.7969	770.9718	13781.45	12875.6
835.9419	773.0473	13663	12755.65
836.0869	775.1221	13349.2	12442.55
836.232	777.1962	12989.95	12077.95
836.377	779.2697	12828.5	11917.5
836.522	781.3426	12852.2	11932.2
836.667	783.4147	13092	12182.3
836.8121	785.4862	13347.4	12438.5
836.9571	787.557	13337.3	12430.4
837.1021	789.6271	12979.9	12066.45
837.2472	791.6966	12394.15	11486
837.3922	793.7654	11866.9	10958.2
837.5373	795.8335	11536.55	10625.5
837.6823	797.901	11312.6	10404.9
837.8274	799.9678	11206.9	10293.5
837.9724	802.0339	11197.8	10284.75
838.1175	804.0993	11248.9	10327.7
838.2626	806.1641	11217.7	10303.25
838.4076	808.2282	11159.9	10249.95
838.5527	810.2916	11076.4	10165
838.6978	812.3544	10982.9	10075.15
838.8428	814.4164	10894.6	9985.25
838.9879	816.4778	10914.45	10001.2
839.133	818.5385	10925.4	10011.35
839.2781	820.5986	11006.1	10094.9
839.4232	822.658	11159.15	10244.75
839.5682	824.7166	11314.6	10401.95
839.7133	826.7747	11575.25	10660.15
839.8584	828.832	11850.65	10936.2
840.0035	830.8886	12065.75	11149.2
840.1486	832.9446	12194.3	11278
840.2937	834.9999	12222.95	11310.15
840.4388	837.0545	12142.95	11226.55
840.5839	839.1085	12067.8	11150
840.729	841.1618	11970.8	11052.9
840.8741	843.2143	11862.6	10946.7
841.0192	845.2662	11769.5	10856.4
841.1643	847.3175	11709.2	10792.5
841.3095	849.368	11575.9	10661.25
841.4546	851.4179	11451.65	10534.55
841.5997	853.467	11341.35	10426.45
841.7448	855.5155	11243.15	10325.65
841.8899	857.5633	11148.65	10232.4
842.0351	859.6105	11071.7	10156.9
842.1802	861.6569	11001.4	10085.1
842.3253	863.7027	10942.7	10023.55
842.4704	865.7478	10914.55	9996.65
842.6156	867.7922	10921.65	10001.9
842.7607	869.8359	10933.3	10016.85
842.9058	871.8789	11035.4	10120.35
843.0509	873.9212	11207.5	10260.5
843.1961	875.9629	11324.9	10406.6
843.3412	878.0039	11491.95	10577.8
843.4863	880.0441	11595.95	10680.1
843.6315	882.0837	11621.25	10705.5
843.7766	884.1226	11561.1	10640.9
843.9218	886.1609	11443.35	10528.55
844.0669	888.1984	11400.7	10484.2
844.212	890.2352	11428.1	10510.6
844.3572	892.2714	11420.55	10497.65
844.5023	894.3069	11429.25	10508.9
844.6475	896.3416	11307.75	10388.15
844.7926	898.3757	11239.35	10320.75
844.9377	900.4091	11221.55	10301.7
845.0829	902.4418	11238.8	10314.6
845.228	904.4739	11245.65	10321.55
845.3732	906.5052	11274.25	10356.4
845.5183	908.5358	11184.1	10263.75
845.6635	910.5658	11060.55	10136.55
845.8086	912.595	10874.5	9955.45
845.9538	914.6236	10714	9792.8
846.0989	916.6515	10626.95	9709.5
846.2441	918.6786	10615.65	9693.65
846.3892	920.7051	10639.25	9713.5
846.5344	922.7309	10750.3	9828.15
846.6795	924.756	10802.15	9880.2
846.8246	926.7804	10888.55	9967.15
846.9698	928.8041	10855.6	9934.5
847.1149	930.8272	10930.05	10007.65
847.2601	932.8495	10847.95	9926.15
847.4052	934.8711	10819.55	9894.5
847.5504	936.892	10695.7	9771.6
847.6955	938.9123	10592.7	9669.2
847.8407	940.9318	10496.55	9572.2
847.9858	942.9506	10425.9	9504.8
848.131	944.9688	10346	9423
848.2761	946.9862	10296.9	9377.05
848.4213	949.003	10221.55	9301.95
848.5664	951.019	10174.3	9249.8
848.7115	953.0344	10163.65	9242.95
848.8567	955.0491	10206.2	9282.8
849.0018	957.063	10275.55	9354.65
849.147	959.0763	10386.05	9467.45
849.2921	961.0888	10467.4	9545.85
849.4373	963.1007	10519.45	9600.65
849.5824	965.1119	10548	9631.75
849.7275	967.1223	10558.5	9645.55
849.8727	969.1321	10574.3	9663.5
850.0178	971.1412	10618.8	9701.05
850.1629	973.1495	10622.5	9702.8
850.3081	975.1572	10711.9	9745.25
850.4532	977.1641	10686.1	9765.45
850.5983	979.1704	10670.75	9748.4
850.7435	981.1759	10670.05	9746.4
850.8886	983.1808	10698.05	9777.1
851.0337	985.1849	10804.05	9871.9
851.1788	987.1884	10931.45	10006.65
851.324	989.1911	11093.55	10170.9
851.4691	991.1932	11194.2	10270.3
851.6142	993.1945	11204.9	10282.65
851.7593	995.1951	11223.75	10297.3
851.9045	997.1951	11174.8	10247.8
852.0496	999.1943	11089.45	10168.5
852.1947	1001.1928	11052.7	10129
852.3398	1003.1906	11076.65	10155.45
852.4849	1005.1877	11169.5	10247.1
852.63	1007.1841	11179.55	10256.35
852.7751	1009.1798	11124.1	10202.5
852.9202	1011.1748	10963.4	10044.75
853.0653	1013.1691	10777.45	9855.1
853.2104	1015.1627	10569.45	9648
853.3555	1017.1556	10371.55	9451.55
853.5006	1019.1477	10279.65	9363.15
853.6457	1021.1392	10222.95	9306.55
853.7908	1023.1299	10200.15	9285.5
853.9359	1025.12	10203.65	9290.95
854.081	1027.1093	10267.65	9366.5
854.2261	1029.0979	10321.45	9419.1
854.3712	1031.0859	10441.9	9533.65
854.5163	1033.0731	10452	9539.35
854.6613	1035.0596	10395.7	9477.35
854.8064	1037.0454	10283.5	9365.9
854.9515	1039.0304	10168.85	9246.2
855.0965	1041.0148	10063.15	9143.9
855.2416	1042.9985	9953.2	9031.85
855.3867	1044.9814	9932.25	9010.25
855.5317	1046.9636	9879.75	8958.6
855.6768	1048.9452	9854	8935.95
855.8219	1050.926	9875.5	8958.55
855.9669	1052.9061	9903.15	8984.1
856.112	1054.8855	9898.1	8974.65
856.257	1056.8642	9925.05	9002.2
856.4021	1058.8421	10003.2	9078.3
856.5471	1060.8194	10020.05	9097.2
856.6921	1062.7959	10066.2	9146.35
856.8372	1064.7717	10074.4	9152.25
856.9822	1066.7469	10136.7	9216.05
857.1272	1068.7213	10149.25	9224.9
857.2723	1070.695	10155.05	9231.55
857.4173	1072.6679	10127.35	9206.05
857.5623	1074.6402	10082.25	9162.4
857.7073	1076.6117	10089.7	9161.55
857.8523	1078.5826	10028.35	9105.05
857.9973	1080.5527	10007.05	9083.2
858.1423	1082.5221	10057.55	9135.6
858.2873	1084.4908	10206.65	9285.6
858.4323	1086.4587	10354.4	9431.25
858.5773	1088.426	10490.3	9569
858.7223	1090.3925	10487.4	9559.4
858.8673	1092.3584	10473.5	9550.2
859.0123	1094.3235	10357.85	9440.25
859.1573	1096.2879	10332.9	9408.95
859.3022	1098.2515	10352.55	9429.65
859.4472	1100.2145	10439.85	9517.9
859.5922	1102.1767	10562.25	9641.35
859.7371	1104.1382	10704.2	9787.4
859.8821	1106.099	10960.05	10036.85
860.027	1108.0591	11150.7	10231.05
860.172	1110.0185	11315.45	10388.3
860.3169	1111.9771	11346	10421.45
860.4619	1113.9351	11180.35	10256.15
860.6068	1115.8923	10927.6	10005.7
860.7517	1117.8488	10649.4	9724.5
860.8967	1119.8045	10401.5	9481.4
861.0416	1121.7596	10298.45	9379.75
861.1865	1123.7139	10222.2	9302.4
861.3314	1125.6675	10197.5	9276.25
861.4763	1127.6204	10277	9357.3
861.6212	1129.5726	10243.7	9321.65
861.7661	1131.524	10224.25	9303.85
861.911	1133.4748	10196.7	9275.35
862.0559	1135.4248	10139.4	9215.4
862.2008	1137.3741	10078.1	9158
862.3457	1139.3226	10029.5	9107.95
862.4905	1141.2705	10017.1	9091.15
862.6354	1143.2176	9911	8983.45
862.7803	1145.164	9890.15	8967.3
862.9251	1147.1097	9877.2	8956.45
863.07	1149.0546	9878.65	8954.05
863.2148	1150.9989	9787.05	8864.75
863.3597	1152.9424	9659.05	8737.65
863.5045	1154.8852	9535.15	8612.45
863.6493	1156.8272	9424.3	8499
863.7942	1158.7686	9399.5	8471.15
863.939	1160.7092	9390.6	8466.45
864.0838	1162.6491	9367.55	8443.05
864.2286	1164.5883	9491.15	8571.55
864.3734	1166.5267	9561	8636.85
864.5182	1168.4644	9663.5	8742
864.663	1170.4014	9882.35	8961.45
864.8078	1172.3377	10101.85	9182
864.9526	1174.2732	10350.45	9431.45
865.0974	1176.2081	10673.95	9751.25
865.2421	1178.1421	10934.85	10008.8
865.3869	1180.0755	11197.3	10275.45
865.5317	1182.0082	11378.5	10459.85
865.6764	1183.9401	11457.05	10538.3
865.8212	1185.8713	11315.1	10398.95
865.9659	1187.8017	11093.5	10183.6
866.1106	1189.7315	10822.65	9919.9
866.2554	1191.6605	10519.85	9614.55
866.4001	1193.5888	10310.2	9400.8
866.5448	1195.5163	10167	9252.9
866.6895	1197.4432	10086.45	9168.75
866.8342	1199.3693	10061.1	9140.85
866.9789	1201.2947	10019.3	9096.9
867.1236	1203.2193	10005.85	9087.95
867.2683	1205.1432	10025.9	9107.6
867.413	1207.0664	10016.5	9098.15
867.5576	1208.9889	10066.55	9144.4
867.7023	1210.9106	10100.8	9180.95
867.847	1212.8316	10135.9	9216.6
867.9916	1214.7519	10182.1	9253.35
868.1363	1216.6715	10178.2	9258.55
868.2809	1218.5903	10201	9282.3
868.4255	1220.5084	10229.65	9310.45
868.5701	1222.4257	10239.45	9319.3
868.7148	1224.3424	10233	9315.75
868.8594	1226.2583	10289.05	9367.1
869.004	1228.1735	10396.1	9475.2
869.1486	1230.0879	10517.45	9597.75
869.2932	1232.0016	10604.9	9684.95
869.4377	1233.9146	10679.1	9756.3
869.5823	1235.8269	10616.25	9698.55
869.7269	1237.7384	10508.75	9588.65
869.8715	1239.6492	10342.75	9426.35
870.016	1241.5592	10235.45	9316.35
870.1606	1243.4686	10179	9260.35
870.3051	1245.3772	10216.05	9296.65
870.4496	1247.285	10241.15	9319.9
870.5941	1249.1922	10250.75	9333
870.7387	1251.0986	10291.1	9375.1
870.8832	1253.0042	10287.2	9367.3
871.0277	1254.9092	10353.55	9437.7
871.1722	1256.8134	10419.6	9504.85
871.3167	1258.7169	10555.8	9639.2
871.4611	1260.6196	10740.5	9827
871.6056	1262.5216	10942	10022
871.7501	1264.4229	11120.3	10203.3
871.8945	1266.3234	11311.35	10395.05
872.039	1268.2232	11368.25	10450.15
872.1834	1270.1223	11383.3	10462.6
872.3278	1272.0207	11397.8	10477.2
872.4723	1273.9183	11358.9	10437
872.6167	1275.8151	11292.85	10371.9
872.7611	1277.7113	11225.25	10307.1
872.9055	1279.6067	11151.55	10234.85
873.0499	1281.5014	11137.6	10216.9
873.1943	1283.3953	11173.25	10253.25
873.3386	1285.2885	11252.7	10336.5
873.483	1287.181	11386.9	10468.65
873.6274	1289.0727	11592.6	10677.55
873.7717	1290.9637	11693.2	10776
873.9161	1292.854	11842.2	10923.5
874.0604	1294.7435	11942	11025.7
874.2047	1296.6323	12073.75	11156.85
874.349	1298.5204	12224.75	11304
874.4933	1300.4077	12368.9	11450.4
874.6376	1302.2943	12440.65	11525.2
874.7819	1304.1802	12423.15	11506.35
874.9262	1306.0653	12222.65	11305.85
875.0705	1307.9497	11966.15	11049.15
875.2147	1309.8333	11749	10833.85
875.359	1311.7162	11637.7	10722.65
875.5032	1313.5984	11606.95	10685.35
875.6475	1315.4798	11602.3	10681.65
875.7917	1317.3605	11632.55	10709.7
875.9359	1319.2405	11682.55	10764.25
876.0801	1321.1197	11583.5	10663.35
876.2243	1322.9982	11433.2	10513.15
876.3685	1324.876	11322.05	10405.75
876.5127	1326.753	11176.3	10259
876.6569	1328.6293	11131.35	10211.9
876.801	1330.5048	11082.75	10163.75
876.9452	1332.3796	11015.35	10097.9
877.0893	1334.2537	10997.35	10051.75
877.2335	1336.127	10945.35	10026.5
877.3776	1337.9996	10915.3	9998.35
877.5217	1339.8714	10908.3	9991.1
877.6658	1341.7426	10903.8	9942.45
877.8099	1343.6129	10839.1	9918.95
877.954	1345.4826	10826.7	9905.15
878.0981	1347.3515	10835.7	9916.3
878.2422	1349.2196	10781.65	9861
878.3862	1351.087	10802.65	9883.35
878.5303	1352.9537	10822.7	9904.05
878.6743	1354.8197	10955.15	10035.7
878.8184	1356.6849	11107.4	10189.05
878.9624	1358.5493	11237.9	10319.85
879.1064	1360.4131	11316.85	10398.65
879.2504	1362.276	11303.5	10390.15
879.3944	1364.1383	11196.05	10281.25
879.5384	1365.9998	11003.2	10080.45
879.6823	1367.8606	10667.8	9748.6
879.8263	1369.7206	10358.6	9439.9
879.9702	1371.5799	10127.6	9210.05
880.1142	1373.4384	9885.75	8965.75
880.2581	1375.2962	9740.1	8820.95
880.402	1377.1533	9485.2	8570.3
880.5459	1379.0096	9163.1	8250.05
880.6898	1380.8652	8870.85	7957.9
880.8337	1382.7201	8609.4	7695.4
880.9776	1384.5742	8388.2	7472.5
881.1215	1386.4275	8237.2	7316.6
881.2653	1388.2802	8089.95	7175.2
881.4092	1390.132	7989.15	7073.75
881.553	1391.9832	7915.2	6996.3
881.6968	1393.8336	7838.05	6918.45
881.8406	1395.6832	7802.7	6883.25
881.9844	1397.5322	7762.75	6842.95
882.1282	1399.3803	7748.05	6825.8
882.272	1401.2278	7730.15	6815.05
882.4158	1403.0745	7711.2	6795.05
882.5595	1404.9204	7742.2	6828.15
882.7033	1406.7656	7741.65	6823.05
882.847	1408.6101	7769	6851.4
882.9908	1410.4538	7787.6	6873.05
883.1345	1412.2968	7831.7	6916.35
883.2782	1414.139	7869.95	6958.15
883.4219	1415.9805	7957.7	7043.9
883.5656	1417.8213	8060.65	7137.15
883.7092	1419.6613	8166.05	7251.75
883.8529	1421.5006	8338.35	7419
883.9965	1423.3391	8565.9	7649.5
884.1402	1425.1769	8900.9	7982.2
884.2838	1427.0139	9358.35	8442.45
884.4274	1428.8502	9925.25	9005.5
884.571	1430.6858	10475.05	9560.15
884.7146	1432.5206	10883.5	9965.7
884.8582	1434.3547	11122.9	10207.65
885.0018	1436.188	11172.55	10258.2
885.1453	1438.0206	11078.35	10161.9
885.2889	1439.8524	10920.4	10000.8
885.4324	1441.6835	10815.3	9899.55
885.5759	1443.5139	10706.55	9788.25
885.7194	1445.3435	10657.35	9742.6
885.8629	1447.1724	10613	9700.75
886.0064	1449.0005	10562.05	9649.9
886.1499	1450.8279	10436.95	9522.9
886.2933	1452.6545	10404.45	9492.05
886.4368	1454.4804	10468.35	9557.2
886.5802	1456.3056	10456.15	9535.95
886.7237	1458.13	10369.15	9457.5
886.8671	1459.9536	10167.25	9251.65
887.0105	1461.7766	9811.1	8895.6
887.1539	1463.5987	9455.8	8539.45
887.2972	1465.4202	9092.6	8176.5
887.4406	1467.2409	8734.95	7819.65
887.584	1469.0608	8460.85	7545.8
887.7273	1470.88	8193.45	7277.15
887.8706	1472.6984	7974.4	7060.45
888.0139	1474.5161	7767.4	6851.1
888.1572	1476.3331	7623.45	6709.7
888.3005	1478.1493	7495.25	6580.1
888.4438	1479.9648	7405.55	6490.75
888.5871	1481.7795	7311.55	6395.5
888.7303	1483.5935	7224.25	6308
888.8736	1485.4067	7162.85	6248.45
889.0168	1487.2192	7133.85	6219.5
889.16	1489.031	7083.15	6169.15
889.3032	1490.842	7035.1	6121.2
889.4464	1492.6522	7013.6	6103.1
889.5896	1494.4618	6968.75	6056.25
889.7327	1496.2705	6950.65	6036.2
889.8759	1498.0785	6921.2	6006.05
890.019	1499.8858	6877.05	5962.3
890.1622	1501.6924	6856.55	5944.05
890.3053	1503.4981	6831.4	5918.85
890.4484	1505.3032	6808	5895.15
890.5914	1507.1075	6773.55	5860.2
890.7345	1508.911	6733.1	5820.65
890.8776	1510.7138	6683.05	5768.9
891.0206	1512.5159	6648.7	5735.1
891.1637	1514.3172	6612.9	5701.05
891.3067	1516.1178	6574.3	5662.35
891.4497	1517.9176	6551.9	5636.45
891.5927	1519.7166	6519.95	5607.3
891.7357	1521.515	6498.55	5581.5
891.8786	1523.3126	6467.75	5556.4
892.0216	1525.1094	6451.85	5540.6
892.1645	1526.9055	6423.7	5511.45
892.3074	1528.7008	6397.65	5485.7
892.4503	1530.4954	6369.2	5456.3
892.5932	1532.2893	6364.2	5455.75
892.7361	1534.0824	6327.65	5413.95
892.879	1535.8747	6323.7	5416.25
893.0218	1537.6663	6309.7	5400.85
893.1647	1539.4572	6297.25	5387.3
893.3075	1541.2473	6301.25	5389.3
893.4503	1543.0367	6298.85	5393.25
893.5931	1544.8253	6273.45	5358.2
893.7359	1546.6132	6303.4	5389.45
893.8787	1548.4003	6306.15	5385.7
894.0214	1550.1867	6330.25	5412.25
894.1642	1551.9723	6373.25	5462.2
894.3069	1553.7572	6451.85	5541.45
894.4496	1555.5414	6482.8	5577.8
894.5923	1557.3247	6560.65	5656.45
894.735	1559.1074	6639.65	5736.45
894.8777	1560.8893	6733.45	5829.65
895.0204	1562.6705	6829.85	5923.45
895.163	1564.4509	6927.8	6023.3
895.3056	1566.2305	6982.3	6080.3
895.4482	1568.0094	7039.35	6136.75
895.5908	1569.7876	7075.75	6174
895.7334	1571.565	7087.55	6182.7
895.876	1573.3417	7095	6187.2
896.0186	1575.1176	7063.4	6160.3
896.1611	1576.8928	7027.8	6125.8
896.3036	1578.6672	6982.35	6080.6
896.4461	1580.4409	6903.45	6006.75
896.5886	1582.2138	6811.35	5909.6
896.7311	1583.986	6739.5	5837.4
896.8736	1585.7575	6736.25	5834.75
897.0161	1587.5282	6675.15	5775.45
897.1585	1589.2981	6689.35	5791.65
897.3009	1591.0673	6688.6	5789.4
897.4433	1592.8358	6722.7	5822.5
897.5857	1594.6035	6740.2	5835.5
897.7281	1596.3704	6777.15	5874.3
897.8705	1598.1366	6828.05	5926.55
898.0128	1599.9021	6896.7	5998.85
898.1551	1601.6668	6976.7	6073.65
898.2975	1603.4308	7068.2	6166.25
898.4398	1605.194	7193.5	6287.1
898.5821	1606.9564	7364.85	6468.45
898.7243	1608.7182	7493.2	6598.3
898.8666	1610.4791	7698.05	6809.1
899.0088	1612.2394	7892.25	7003.8
899.1511	1613.9988	8089.8	7196.5
899.2933	1615.7576	8302.1	7406.2
899.4355	1617.5156	8531.4	7625.85
899.5776	1619.2728	8682.2	7782.5
899.7198	1621.0293	8758.05	7860.1
899.862	1622.785	8744.35	7843.1
900.0041	1624.54	8626.7	7730.5
900.1462	1626.2942	8434.75	7537.55
900.2883	1628.0477	8168.3	7268.4
900.4304	1629.8005	7904.3	7005.2
900.5725	1631.5525	7685.95	6789.9
900.7145	1633.3037	7503.1	6609.7
900.8566	1635.0542	7373.4	6478.7
900.9986	1636.804	7275.2	6378.7
901.1406	1638.553	7241.65	6283.65
901.2826	1640.3013	7152.8	6258.45
901.4245	1642.0488	7155.45	6259.5
901.5665	1643.7955	7173.9	6282.4
901.7085	1645.5416	7251.6	6356.75
901.8504	1647.2868	7356.3	6460.2
901.9923	1649.0313	7449.95	6556
902.1342	1650.7751	7604.65	6702.45
902.2761	1652.5181	7764.9	6871.3
902.4179	1654.2604	7944.25	7051.2
902.5598	1656.0019	8208.75	7317.75
902.7016	1657.7427	8494.95	7600.55
902.8434	1659.4828	8764.45	7867.4
902.9852	1661.222	8934.65	8035.65
903.127	1662.9606	8926.9	8031.2
903.2687	1664.6984	8722.9	7826.4
903.4105	1666.4354	8314.05	7412.7
903.5522	1668.1717	7802.15	6904.65
903.6939	1669.9072	7278.4	6379.75
903.8356	1671.642	6835.25	5934.6
903.9773	1673.3761	6477.45	5580.55
904.119	1675.1094	6179.2	5284.1
904.2606	1676.8419	5980	5086.15
904.4022	1678.5737	5781.4	4887.15
904.5439	1680.3048	5644.5	4745.9
904.6855	1682.0351	5559.85	4665.3
904.827	1683.7646	5470.25	4570.55
904.9686	1685.4934	5389.8	4495.95
905.1101	1687.2215	5331.95	4438.65
905.2517	1688.9488	5270.45	4376.5
905.3932	1690.6754	5221.55	4325.7
905.5347	1692.4012	5184.45	4290
905.6761	1694.1263	5140.95	4243.8
905.8176	1695.8506	5116	4218.95
905.9591	1697.5742	5081	4191.6
906.1005	1699.297	5049.1	4154.55
906.2419	1701.0191	5006.9	4116.75
906.3833	1702.7404	4969.9	4077.95
906.5246	1704.461	4938.05	4043.65
906.666	1706.1808	4919.65	4025.25
906.8073	1707.8999	4883.55	3991.95
906.9487	1709.6182	4872.7	3981.9
907.09	1711.3358	4851.15	3960.45
907.2313	1713.0527	4852.7	3966.45
907.3725	1714.7688	4809.9	3912.3
907.5138	1716.4841	4800.45	3908.45
907.655	1718.1987	4780	3883.5
907.7962	1719.9126	4749.65	3857.95
907.9374	1721.6257	4720.4	3829.8
908.0786	1723.338	4730	3842.4
908.2198	1725.0496	4695.95	3806.05
908.3609	1726.7605	4698.5	3805.8
908.502	1728.4706	4670.95	3780.5
908.6431	1730.18	4655.25	3763.45
908.7842	1731.8886	4632.4	3744.3
908.9253	1733.5964	4638.65	3729.6
909.0664	1735.3036	4618.25	3723.75
909.2074	1737.0099	4590.65	3698.6
909.3484	1738.7156	4573.25	3685.5
909.4894	1740.4204	4549.35	3659.55
909.6304	1742.1246	4526.95	3634
909.7714	1743.8279	4520.6	3631.35
909.9123	1745.5306	4520.35	3631.65
910.0532	1747.2325	4493.65	3607.6
910.1941	1748.9336	4470.15	3582.5
910.335	1750.634	4448.1	3555.3
910.4759	1752.3336	4448.6	3559.1
910.6168	1754.0325	4421.3	3534.9
910.7576	1755.7307	4406.1	3519.3
910.8984	1757.4281	4432.7	3539.75
911.0392	1759.1247	4414.75	3516
911.18	1760.8206	4395.1	3498.6
911.3208	1762.5158	4390.2	3495.15
911.4615	1764.2102	4367.8	3480.15
911.6022	1765.9039	4346.75	3458.05
911.7429	1767.5968	4346.35	3458.7
911.8836	1769.289	4329	3442.45
912.0243	1770.9804	4306.5	3415.8
912.1649	1772.6711	4317.75	3426.8
912.3056	1774.361	4304.15	3409.65
912.4462	1776.0502	4302.15	3409.3
912.5868	1777.7386	4297.4	3404.2
912.7274	1779.4263	4265	3376.15
912.8679	1781.1132	4259.25	3374.45
913.0084	1782.7994	4250.65	3363.6
913.149	1784.4849	4256.7	3371.9
913.2895	1786.1696	4241.9	3333.45
913.4299	1787.8535	4229.4	3344.45
913.5704	1789.5367	4225.4	3339.15
913.7108	1791.2192	4212.3	3326
913.8513	1792.9009	4212.15	3300.05
913.9917	1794.5818	4203.4	3310.45
914.132	1796.2621	4179.9	3289.3
914.2724	1797.9415	4154.3	3265.65
914.4128	1799.6202	4166.6	3275.05
914.5531	1801.2982	4156.8	3267.7
914.6934	1802.9755	4145.75	3255.55
914.8337	1804.6519	4145.3	3255.05
914.9739	1806.3277	4123	3234.95
915.1142	1808.0027	4103.2	3219.2
915.2544	1809.6769	4117.25	3231.05
915.3946	1811.3504	4095.05	3210.05
915.5348	1813.0231	4082.8	3198
915.675	1814.6951	4082.55	3196.5
915.8151	1816.3664	4104.8	3216.25
915.9553	1818.0369	4090.45	3200.35
916.0954	1819.7067	4073.25	3184.6
916.2355	1821.3757	4056	3166.65
916.3755	1823.044	4047.85	3158.3
916.5156	1824.7115	4048.65	3157.9
916.6556	1826.3783	4029.85	3142.75
916.7956	1828.0443	4022.2	3135.8
916.9356	1829.7096	4024	3135.9
917.0756	1831.3741	4009.1	3117.65
917.2155	1833.0379	3976.95	3090.95
917.3555	1834.701	3986.35	3098.05
917.4954	1836.3633	3975.3	3089.9
917.6353	1838.0248	3989.2	3101.05
917.7751	1839.6856	3969.5	3078.95
917.915	1841.3457	3953	3065.95
918.0548	1843.005	3949.85	3063.4
918.1946	1844.6636	3941.1	3053.35
918.3344	1846.3214	3931.2	3043.7
918.4742	1847.9785	3933.5	3047.05
918.6139	1849.6349	3921.9	3032.25
918.7537	1851.2904	3918.35	3020.85
918.8934	1852.9453	3914.7	3026.6
919.0331	1854.5994	3917.9	3026.65
919.1727	1856.2528	3914.8	3021.75
919.3124	1857.9054	3887.75	3000.9
919.452	1859.5572	3897.7	3011.2
919.5916	1861.2083	3880.9	2993.05
919.7312	1862.8587	3896.15	3007.9
919.8708	1864.5084	3875.85	2986.3
920.0103	1866.1572	3858.55	2968.65
920.1498	1867.8054	3848.2	2956.5
920.2893	1869.4528	3854.7	2963.8
920.4288	1871.0994	3831.8	2941.45
920.5683	1872.7453	3834.55	2946.85
920.7077	1874.3905	3826.6	2921.8
920.8471	1876.0349	3801.95	2913.85
920.9865	1877.6786	3803.95	2914.75
921.1259	1879.3215	3796.75	2907.05
921.2653	1880.9637	3796.9	2907.7
921.4046	1882.6051	3793.85	2907.25
921.5439	1884.2458	3775.5	2885.4
921.6832	1885.8858	3768.65	2880.6
921.8225	1887.525	3763.45	2875.35
921.9617	1889.1634	3746.7	2860.85
922.101	1890.8011	3740.55	2851.2
922.2402	1892.4381	3729.45	2840.55
922.3794	1894.0743	3726.15	2838.8
922.5185	1895.7098	3725.55	2837.75
922.6577	1897.3446	3713.7	2825.25
922.7968	1898.9786	3702.85	2809.05
922.9359	1900.6118	3698.35	2810.85
923.075	1902.2443	3685.1	2798.6
923.214	1903.8761	3668.5	2781.75
923.3531	1905.5071	3642.2	2753.95
923.4921	1907.1374	3653.75	2764.8
923.6311	1908.7669	3653.15	2764.6
923.77	1910.3957	3652.45	2766.9
923.909	1912.0237	3634.3	2746.95
924.0479	1913.651	3626.75	2737
924.1868	1915.2776	3606.15	2719.35
924.3257	1916.9034	3603.45	2718.95
924.4646	1918.5285	3592.05	2707.2
924.6034	1920.1528	3589.1	2703.4
924.7422	1921.7764	3571.9	2686.3
924.881	1923.3992	3562.5	2677.15
925.0198	1925.0213	3548.35	2660
925.1586	1926.6427	3530	2645.2
925.2973	1928.2633	3707	2612.9
925.436	1929.8832	3557.25	2666.25
925.5747	1931.5023	3501.05	2616
925.7134	1933.1207	3501.5	2616.35
925.852	1934.7383	3505.65	2619.4
925.9906	1936.3552	3490.1	2603.45
926.1292	1937.9714	3488.15	2601.65
926.2678	1939.5868	3474.8	2585
926.4064	1941.2015	3458.5	2569.05
926.5449	1942.8154	3455.45	2567.6
926.6834	1944.4286	3432.65	2543.65
926.8219	1946.041	3442.3	2537.05
926.9604	1947.6528	3428.5	2534.6
927.0988	1949.2637	3410.65	2525
927.2372	1950.8739	3402.3	2515.6
927.3756	1952.4834	3396.7	2510.2
927.514	1954.0921	3388.3	2503.4
927.6523	1955.7001	3382.25	2492.65
927.7907	1957.3074	3375.65	2490.25
927.929	1958.9139	3350.75	2466.95
928.0673	1960.5197	3347.25	2460.1
928.2055	1962.1247	3328.2	2441.8
928.3438	1963.729	3312.35	2427.2
928.482	1965.3325	3318.05	2430.4
928.6202	1966.9353	3310.4	2426
928.7584	1968.5374	3310.1	2425.7
928.8965	1970.1387	3295.75	2410.9
929.0346	1971.7393	3294.8	2407.6
929.1727	1973.3392	3278.75	2393.85
929.3108	1974.9383	3271.65	2388.25
929.4489	1976.5366	3262.2	2379.8
929.5869	1978.1342	3239.05	2355.8
929.7249	1979.7311	3255.55	2370.7
929.8629	1981.3273	3227.95	2344.25
930.0009	1982.9227	3226.15	2341.95
930.1388	1984.5173	3223.4	2343.45
930.2767	1986.1112	3210.9	2329.5
930.4146	1987.7044	3199.75	2318.45
930.5525	1989.2968	3213.6	2329.3
930.6904	1990.8885	3202.1	2316.65
930.8282	1992.4795	3191.6	2307.9
930.966	1994.0697	3178.25	2298.25
931.1038	1995.6592	3174.25	2292.15
931.2415	1997.2479	3154.8	2272.2
931.3793	1998.8359	3169.3	2289
931.517	2000.4232	3137.45	2256.55
931.6547	2002.0097	3135.85	2257
931.7923	2003.5955	3126.05	2243.8
931.93	2005.1805	3140.7	2258.05
932.0676	2006.7648	3113.7	2232.3
932.2052	2008.3484	3118.65	2237.4
932.3427	2009.9312	3109.5	2227.6
932.4803	2011.5133	3105.95	2228.35
932.6178	2013.0946	3096.85	2218.1
932.7553	2014.6752	3085.25	2205.45
932.8928	2016.2551	3089.6	2207.25
933.0302	2017.8342	3083.55	2203.6
933.1676	2019.4126	3071.1	2191.9
933.305	2020.9902	3060.15	2181.85
933.4424	2022.5672	3059.85	2179.7
933.5798	2024.1433	3063.5	2182.25
933.7171	2025.7188	3044.95	2169.1
933.8544	2027.2935	3037.1	2157.8
933.9917	2028.8674	3029.7	2153.05
934.129	2030.4406	3030.4	2153.1
934.2662	2032.0131	3014.95	2139.3
934.4034	2033.5849	3011.55	2131
934.5406	2035.1559	3000.7	2121.9
934.6778	2036.7261	2997.65	2118
934.8149	2038.2957	3012.35	2131.65
934.952	2039.8645	3007.3	2126.75
935.0891	2041.4325	2991.1	2107.1
935.2262	2042.9998	2979.7	2099.95
935.3632	2044.5664	2980.55	2101.3
935.5002	2046.1323	2960.65	2083.1
935.6372	2047.6974	2954.35	2076.9
935.7742	2049.2617	2957.55	2079.1
935.9111	2050.8254	2978.1	2065.45
936.048	2052.3883	2963.7	2082.8
936.1849	2053.9504	2939.6	2058.05
936.3218	2055.5118	2929.35	2047.45
936.4586	2057.0725	2926.25	2042.25
936.5955	2058.6325	2921.3	2041.75
936.7323	2060.1917	2913.05	2034.35
936.869	2061.7502	2911.75	2028.4
937.0058	2063.3079	2910.15	2032.15
937.1425	2064.8649	2893	2011.8
937.2792	2066.4212	2885.8	2004.2
937.4159	2067.9767	2882.45	2003.7
937.5525	2069.5315	2882.6	2002.45
937.6891	2071.0856	2860.8	1981.4
937.8257	2072.6389	2872.15	1993.25
937.9623	2074.1915	2848.7	1972.75
938.0989	2075.7433	2834.8	1952.2
938.2354	2077.2945	2838.5	1959.8
938.3719	2078.8448	2835.8	1954.3
938.5084	2080.3945	2830.1	1948.75
938.6448	2081.9434	2822.65	1943.65
938.7812	2083.4916	2817.8	1935.55
938.9176	2085.039	2803.1	1917.35
939.054	2086.5857	2807.6	1919.35
939.1903	2088.1317	2793.35	1905.1
939.3267	2089.677	2792.05	1904.8
939.463	2091.2215	2789.25	1904.3
939.5992	2092.7652	2787.65	1899.85
939.7355	2094.3083	2784.7	1898.6
939.8717	2095.8506	2780.95	1898.05
940.0079	2097.3921	2777	1893.2
940.1441	2098.933	2767.3	1884.4
940.2802	2100.4731	2757.4	1873.8
940.4163	2102.0124	2759.5	1870
940.5524	2103.5511	2763.4	1879.7
940.6885	2105.089	2745.25	1860.15
940.8245	2106.6261	2735.8	1852.7
940.9606	2108.1626	2727.45	1844.3
941.0965	2109.6983	2760.05	1849.05
941.2325	2111.2332	2742.65	1856.95
941.3684	2112.7675	2733.4	1849.1
941.5044	2114.301	2713.5	1827.2
941.6403	2115.8337	2716.4	1833.9
941.7761	2117.3657	2706.3	1823.5
941.912	2118.897	2713.5	1830.15
942.0478	2120.4276	2700.3	1808.3
942.1835	2121.9575	2694.85	1810
942.3193	2123.4866	2697.7	1808.5
942.455	2125.0149	2679.3	1791.4
942.5907	2126.5426	2671.8	1790.1
942.7264	2128.0695	2679.95	1795.75
942.8621	2129.5956	2666.75	1791.25
942.9977	2131.1211	2666.25	1781.7
943.1333	2132.6458	2651.9	1769.8
943.2689	2134.1698	2663.25	1780.2
943.4044	2135.693	2653.15	1765.35
943.54	2137.2155	2655.15	1766.55
943.6755	2138.7373	2641.15	1756.55
943.8109	2140.2584	2631.1	1751.5
943.9464	2141.7787	2627.4	1742.25
944.0818	2143.2983	2611	1733.3
944.2172	2144.8171	2612.1	1735.25
944.3526	2146.3353	2615.5	1732.55
944.4879	2147.8527	2604.1	1721.3
944.6232	2149.3693	2613.85	1730.75
944.7585	2150.8853	2591.9	1706.35
944.8938	2152.4005	2586.95	1703.3
945.029	2153.9149	2586.1	1699.45
945.1642	2155.4287	2584.4	1700.05
945.2994	2156.9417	2577.65	1692.2
945.4346	2158.454	2559.95	1674.05
945.5697	2159.9655	2559.8	1678.95
945.7048	2161.4764	2562.9	1680.2
945.8399	2162.9865	2549.05	1666.3
945.9749	2164.4958	2556	1671.7
946.1099	2166.0045	2545.5	1662.1
946.2449	2167.5124	2548.05	1665.6
946.3799	2169.0195	2543.35	1658.25
946.5148	2170.526	2536.4	1651.05
946.6498	2172.0317	2541.55	1659.35
946.7846	2173.5367	2525.15	1642.2
946.9195	2175.0409	2518.95	1636.75
947.0543	2176.5445	2528.3	1645.35
947.1891	2178.0473	2515.7	1631.1
947.3239	2179.5494	2509.2	1621.55
947.4587	2181.0507	2506.85	1623.4
947.5934	2182.5513	2504.55	1624.5
947.7281	2184.0512	2497.45	1614
947.8628	2185.5504	2493.85	1611.2
947.9974	2187.0488	2476	1594.3
948.132	2188.5465	2473	1591.7
948.2666	2190.0435	2472.75	1590.45
948.4012	2191.5397	2466.65	1582.6
948.5357	2193.0353	2457.3	1573.3
948.6702	2194.5301	2458.4	1571.2
948.8047	2196.0241	2461.35	1574.75
948.9392	2197.5175	2461.45	1575.4
949.0736	2199.0101	2445.8	1557.1
949.208	2200.502	2436.1	1554.75
949.3424	2201.9931	2434.3	1550.2
949.4767	2203.4835	2432	1548.55
949.611	2204.9733	2423.4	1537
949.7453	2206.4622	2416.45	1535.8
949.8796	2207.9505	2409.25	1526.3
950.0138	2209.438	2407.1	1530.45
950.148	2210.9248	2394.9	1510.8
950.2822	2212.4109	2397.9	1517.2
950.4164	2213.8962	2375.75	1487.3
950.5505	2215.3809	2383.85	1495.55
950.6846	2216.8648	2378.05	1490.85
950.8186	2218.3479	2379.7	1486.7
950.9527	2219.8304	2376.4	1485.85
951.0867	2221.3121	2380.6	1491.1
951.2207	2222.7931	2359.9	1474.7
951.3546	2224.2733	2369.15	1482.15
951.4886	2225.7529	2351.65	1465.6
951.6225	2227.2317	2357.95	1471.75
951.7563	2228.7098	2336.95	1457.05
951.8902	2230.1872	2332.25	1450
952.024	2231.6638	2338.05	1457.65
952.1578	2233.1397	2334.85	1449.2
952.2916	2234.6149	2326.1	1445.75
952.4253	2236.0894	2325.35	1441.7
952.559	2237.5632	2320.55	1427.8
952.6927	2239.0362	2302.3	1420.8
952.8263	2240.5085	2309.85	1428.55
952.9599	2241.9801	2298.05	1415.3
953.0935	2243.4509	2294.4	1409.55
953.2271	2244.921	2299.15	1413.85
953.3606	2246.3904	2287.65	1398
953.4941	2247.8591	2284.3	1399.95
953.6276	2249.3271	2274.7	1387.95
953.7611	2250.7943	2267.8	1380.85
953.8945	2252.2608	2268.15	1383.1
954.0279	2253.7266	2256.3	1371
954.1612	2255.1917	2256.85	1371.95
954.2946	2256.656	2263.95	1379.05
954.4279	2258.1197	2255.05	1373.25
954.5612	2259.5826	2245.55	1357.35
954.6944	2261.0447	2233.35	1349
954.8276	2262.5062	2241.6	1354.75
954.9608	2263.9669	2236.5	1350.3
955.094	2265.4269	2228.6	1342.8
955.2271	2266.8862	2213.25	1330.15
955.3602	2268.3448	2220.05	1336.85
955.4933	2269.8026	2218.25	1333.95
955.6264	2271.2598	2215.55	1331.95
955.7594	2272.7162	2206.55	1324.5
955.8924	2274.1719	2211.1	1324.5
956.0253	2275.6268	2210.6	1325.4
956.1583	2277.0811	2197.1	1310.35
956.2912	2278.5346	2197.6	1315.05
956.4241	2279.9874	2190.5	1307.95
956.5569	2281.4395	2194.55	1311.4
956.6897	2282.8908	2191.75	1307.95
956.8225	2284.3414	2186.95	1303.7
956.9553	2285.7914	2176.85	1293
957.088	2287.2406	2179.8	1291.4
957.2207	2288.689	2176.85	1291
957.3534	2290.1368	2180.45	1289.85
957.486	2291.5838	2181.7	1288.95
957.6186	2293.0302	2183.15	1294.1
957.7512	2294.4758	2157.25	1271.05
957.8838	2295.9206	2162.55	1277
958.0163	2297.3648	2144.9	1261.9
958.1488	2298.8082	2158.2	1275.3
958.2813	2300.251	2143.8	1255.4
958.4137	2301.693	2149.05	1259.85
958.5461	2303.1343	2160.4	1273.65
958.6785	2304.5748	2146.15	1261.6
958.8108	2306.0147	2140.05	1257.95
958.9432	2307.4538	2125.3	1240.25
959.0754	2308.8922	2120.7	1241.9
959.2077	2310.3299	2118.85	1234.75
959.3399	2311.7669	2115.35	1232.45
959.4721	2313.2031	2113.9	1228.25
959.6043	2314.6387	2104.85	1220.45
959.7365	2316.0735	2100.8	1214.3
959.8686	2317.5076	2112.65	1228.4
960.0006	2318.941	2100.45	1214.85
960.1327	2320.3737	2104.7	1217.05
960.2647	2321.8056	2095.45	1206.5
960.3967	2323.2369	2086.8	1201.2
960.5287	2324.6674	2096.35	1210.75
960.6606	2326.0972	2078	1193.1
960.7925	2327.5263	2086	1200
960.9244	2328.9547	2078.8	1190.65
961.0562	2330.3823	2072.1	1186.65
961.1881	2331.8092	2078.1	1187
961.3198	2333.2355	2062.7	1176.45
961.4516	2334.661	2059.9	1173.55
961.5833	2336.0858	2057.9	1171.6
961.715	2337.5098	2049	1163.7
961.8467	2338.9332	2046.65	1158.5
961.9783	2340.3558	2052.55	1163.1
962.1099	2341.7778	2046.2	1162.15
962.2415	2343.199	2042.6	1156.5
962.373	2344.6195	2037.35	1154.65
962.5045	2346.0393	2050.2	1166.15
962.636	2347.4583	2029.7	1143.65
962.7675	2348.8767	2023.85	1138.75
962.8989	2350.2943	2033.95	1148.5
963.0303	2351.7113	2034.8	1146.2
963.1617	2353.1275	2038.3	1149.45
963.293	2354.543	2035	1140.2
963.4243	2355.9578	2031.6	1144.5
963.5556	2357.3718	2018.55	1135.4
963.6868	2358.7852	2012.05	1127.75
963.818	2360.1978	2003.8	1120.1
963.9492	2361.6098	2001.5	1118.7
964.0803	2363.021	2005.95	1117
964.2114	2364.4315	2002.3	1117.8
964.3425	2365.8413	1997.15	1112.25
964.4736	2367.2504	1988.7	1105.25
964.6046	2368.6587	1972.55	1091
964.7356	2370.0664	1979.15	1097.35
964.8666	2371.4733	1981.5	1095.4
964.9975	2372.8795	1979.65	1096.75
965.1284	2374.285	1971.95	1088.3
965.2593	2375.6899	1966.05	1081.9
965.3901	2377.0939	1956.6	1075.55
965.5209	2378.4973	1950.65	1066.15
965.6517	2379.9	1954.2	1071.05
965.7825	2381.3019	1953.9	1071.25
965.9132	2382.7032	1942.15	1061.6
966.0439	2384.1037	1946.15	1065.7
966.1745	2385.5035	1936.8	1054.45
966.3051	2386.9027	1937.45	1057.9
966.4357	2388.3011	1931.3	1047.55
966.5663	2389.6987	1937.2	1054.85
966.6968	2391.0957	1932.85	1052.95
966.8273	2392.492	1916.55	1035.75
966.9578	2393.8876	1909.15	1027.2
967.0882	2395.2824	1913.5	1030.85
967.2186	2396.6765	1904.95	1024.75
967.349	2398.07	1903.05	1021.75
967.4793	2399.4627	1898.25	1014.15
967.6097	2400.8547	1898.8	1017.2
967.7399	2402.246	1900.1	1010.1
967.8702	2403.6366	1891.95	1008.8
968.0004	2405.0265	1879.8	998.45
968.1306	2406.4156	1891.35	1005.7
968.2607	2407.8041	1889.35	1004.3
968.3909	2409.1918	1877.75	992.75
968.521	2410.5789	1878.9	996.55
968.651	2411.9652	1869.4	981.95
968.781	2413.3508	1867.15	984.85
968.911	2414.7358	1869.25	986.85
969.041	2416.12	1869.25	986.55
969.1709	2417.5035	1857.55	976.25
969.3008	2418.8863	1851.2	968.95
969.4307	2420.2684	1848.65	967.7
969.5606	2421.6497	1848.2	967.4
969.6904	2423.0304	1845.35	964.7
969.8201	2424.4104	1837.25	956.05
969.9499	2425.7896	1850.5	961.05
970.0796	2427.1682	1842.55	960.3
970.2093	2428.546	1843.8	960.85
970.3389	2429.9232	1833.35	950.15
970.4685	2431.2996	1829.45	945.7
970.5981	2432.6753	1830.2	947.95
970.7277	2434.0503	1823.4	941.45
970.8572	2435.4246	1821.7	940.65
970.9867	2436.7982	1811.5	926.6
971.1161	2438.1711	1819.75	938.45
971.2456	2439.5433	1817.8	935.3
971.375	2440.9148	1810.9	922.65
971.5043	2442.2856	1804.1	922.65
971.6336	2443.6557	1799.9	914.5
971.7629	2445.025	1798.7	915.95
971.8922	2446.3937	1805.4	922.55
972.0214	2447.7617	1797.45	914.15
972.1506	2449.1289	1792.55	910.8
972.2798	2450.4955	1796.25	909.15
972.4089	2451.8613	1783.25	900.35
972.538	2453.2265	1775.55	889.7
972.6671	2454.5909	1778.6	895.05
972.7961	2455.9546	1783.95	901.25
972.9251	2457.3177	1779.15	897.5
973.0541	2458.68	1784.6	898.3
973.1831	2460.0416	1780.05	895.65
973.312	2461.4025	1781.1	896.3
973.4408	2462.7627	1785.15	890.8
973.5697	2464.1222	1770.55	891.5
973.6985	2465.4811	1767.7	885.65
973.8273	2466.8392	1770.3	887.4
973.956	2468.1966	1764.7	878.55
974.0847	2469.5533	1776.8	892.2
974.2134	2470.9093	1765.8	882.55
974.3421	2472.2645	1762.15	877.9
974.4707	2473.6191	1755.5	875.65
974.5993	2474.973	1751.25	866.4
974.7278	2476.3262	1754.85	868.2
974.8563	2477.6787	1751.75	870.1
974.9848	2479.0305	1750.15	866.65
975.1132	2480.3816	1748.35	864.75
975.2417	2481.7319	1741.95	858.7
975.37	2483.0816	1738.75	855.05
975.4984	2484.4306	1739.75	857.05
975.6267	2485.7789	1736.2	856.25
975.755	2487.1264	1737.65	851.4
975.8833	2488.4733	1729.75	850.15
976.0115	2489.8195	1736.65	834.75
976.1397	2491.165	1727.95	843.95
976.2678	2492.5097	1709.35	825.75
976.3959	2493.8538	1711.85	830.5
976.524	2495.1972	1708.25	825.85
976.6521	2496.5398	1702.8	818.55
976.7801	2497.8818	1707.9	819.65
976.9081	2499.2231	1709.55	826.25
977.036	2500.5637	1697.7	811.6
977.164	2501.9035	1698.95	814.1
977.2918	2503.2427	1699.25	810
977.4197	2504.5812	1698.25	815.5
977.5475	2505.919	1689.75	803.5
977.6753	2507.256	1687.5	802.85
977.8031	2508.5924	1683.35	802.6
977.9308	2509.9281	1693.45	803.85
978.0585	2511.2631	1678.05	796.4
978.1861	2512.5974	1680.95	799.45
978.3137	2513.9309	1688.25	806.55
978.4413	2515.2638	1694.55	783.15
978.5689	2516.596	1667.4	784.25
978.6964	2517.9275	1668.2	785.65
978.8239	2519.2583	1665.65	781
978.9513	2520.5884	1667.2	780
979.0788	2521.9178	1664.25	780.25
979.2062	2523.2465	1663.2	782.2
979.3335	2524.5745	1651.3	767.95
979.4608	2525.9018	1652.3	770.1
979.5881	2527.2284	1652	768
979.7154	2528.5543	1652.5	770.8
979.8426	2529.8796	1654.8	772
979.9698	2531.2041	1656.3	771.85
980.0969	2532.5279	1650.1	767.3
980.224	2533.851	1650.55	765.45
980.3511	2535.1735	1643.2	761.5
980.4781	2536.4952	1640.4	757.25
980.6052	2537.8163	1650.65	765.8
980.7321	2539.1366	1637.65	752.5
980.8591	2540.4562	1637.3	753.95
980.986	2541.7752	1637.8	752.95
981.1129	2543.0935	1641.95	758.1
981.2397	2544.411	1632.95	748.35
981.3665	2545.7279	1633.1	751.85
981.4933	2547.0441	1625.3	741
981.62	2548.3596	1630.6	743.2
981.7467	2549.6744	1628.4	745.25
981.8734	2550.9885	1624.95	737.15
982.0001	2552.3019	1622.35	738.3
982.1267	2553.6146	1628.4	743.9
982.2532	2554.9266	1611.85	728.2
982.3798	2556.2379	1610.5	725.3
982.5063	2557.5485	1612.35	730.7
982.6327	2558.8585	1624.65	733.9
982.7592	2560.1677	1618.9	730.55
982.8856	2561.4762	1610.05	724.55
983.0119	2562.7841	1611.45	725.55
983.1383	2564.0913	1608.3	723.4
983.2646	2565.3977	1608.95	726.25
983.3908	2566.7035	1608.65	724.5
983.517	2568.0086	1606.4	721.6
983.6432	2569.313	1604.1	717.2
983.7694	2570.6167	1602.5	713.1
983.8955	2571.9197	1598.2	716.6
984.0216	2573.222	1596.65	709.9
984.1476	2574.5236	1599.95	715.55
984.2737	2575.8246	1597.9	713.45
984.3996	2577.1248	1597.8	711.2
984.5256	2578.4244	1594.95	710.55
984.6515	2579.7232	1597.5	714.45
984.7774	2581.0214	1620.65	707.6
984.9032	2582.3189	1595.8	711.05
985.029	2583.6157	1597.7	708.8
985.1548	2584.9118	1595.9	714
985.2806	2586.2072	1591.9	710.3
985.4063	2587.5019	1591	707.65
985.5319	2588.7959	1594.5	709.15
985.6576	2590.0893	1598.85	710.8
985.7832	2591.3819	1590.45	707.25
985.9087	2592.6739	1596.7	711.65
986.0343	2593.9652	1594.4	706.35
986.1597	2595.2557	1600.5	717.55
986.2852	2596.5456	1592.3	706.05
986.4106	2597.8348	1588.35	704.25
986.536	2599.1234	1591.85	708.65
986.6614	2600.4112	1595.05	712.65
986.7867	2601.6983	1588.85	701.1
986.912	2602.9848	1589.75	706.35
987.0372	2604.2705	1595.7	706.5
987.1624	2605.5556	1585	702
987.2876	2606.84	1588.4	704.9
987.4128	2608.1237	1582.15	696.8
987.5379	2609.4067	1581.05	696.85
987.6629	2610.689	1590.75	698.85
987.788	2611.9707	1578.8	692.15
987.913	2613.2516	1581.65	693.95
988.0379	2614.5319	1568.3	683.85
988.1629	2615.8115	1566.55	680.05
988.2878	2617.0903	1560.2	675.4
988.4126	2618.3685	1559.4	675.1
988.5375	2619.6461	1563.8	679.1
988.6622	2620.9229	1551.9	670.35
988.787	2622.199	1555.4	671.65
988.9117	2623.4745	1561.65	676.85
989.0364	2624.7493	1561.1	677.45
989.161	2626.0234	1547.6	665.95
989.2857	2627.2968	1558	676.45
989.4102	2628.5695	1555.15	669.8
989.5348	2629.8415	1548.9	663.75
989.6593	2631.1128	1553.65	669.95
989.7837	2632.3835	1555.3	670.4
989.9082	2633.6535	1544.45	662.7
990.0326	2634.9228	1547.4	667.95
990.1569	2636.1914	1542.4	660.55
990.2812	2637.4593	1553.2	668
990.4055	2638.7265	1548.8	663.85
990.5298	2639.9931	1539.65	658.5
990.654	2641.259	1541.3	655.95
990.7782	2642.5242	1531.55	648.5
990.9023	2643.7887	1527.8	646.95
991.0264	2645.0525	1532.9	649.45
991.1505	2646.3156	1534.3	648.3
991.2745	2647.5781	1532.95	652.75
991.3985	2648.8398	1524.15	641.1
991.5225	2650.1009	1532.95	640.35
991.6464	2651.3613	1516.35	633.75
991.7703	2652.6211	1527	642.7
991.8942	2653.8801	1520.9	636.35
992.018	2655.1385	1523.25	637.6
992.1418	2656.3961	1521.4	641.1
992.2655	2657.6531	1515.25	632.55
992.3892	2658.9094	1518.3	634.15
992.5129	2660.1651	1518.6	637.85
992.6366	2661.42	1515.45	630.65
992.7602	2662.6743	1529.9	648.4
992.8837	2663.9279	1523.65	642.6
993.0073	2665.1808	1520.2	637.05
993.1307	2666.433	1520.75	637.3
993.2542	2667.6846	1528.55	646.6
993.3776	2668.9354	1530.95	644.3
993.501	2670.1856	1529.1	645.7
993.6244	2671.4351	1529.05	645.95
993.7477	2672.6839	1532.75	649.6
993.8709	2673.9321	1526.3	643.95
993.9942	2675.1795	1530.95	647.35
994.1174	2676.4263	1529.75	648.35
994.2405	2677.6724	1534	651.75
994.3637	2678.9179	1537.7	653.9
994.4868	2680.1626	1534.3	649.9
994.6098	2681.4067	1537.95	653.15
994.7328	2682.6501	1534.35	651.05
994.8558	2683.8928	1539.85	657.45
994.9788	2685.1348	1533.2	651.6
995.1017	2686.3761	1526.1	641.95
995.2245	2687.6168	1519.95	637.6
995.3474	2688.8568	1520.45	638.4
995.4702	2690.0961	1513	632.85
995.5929	2691.3348	1507.9	625.8
995.7156	2692.5727	1507.9	624.65
995.8383	2693.81	1504.75	620.85
995.961	2695.0466	1495.15	614.55
996.0836	2696.2826	1505.7	621.7
996.2062	2697.5178	1503.65	615.65
996.3287	2698.7524	1504.55	622.5
996.4512	2699.9863	1504	619.9
996.5737	2701.2195	1507.5	624
996.6961	2702.452	1506.05	621.65
996.8185	2703.6839	1513.55	628.2
996.9408	2704.9151	1514.1	632.3
997.0631	2706.1456	1518.75	634.1
997.1854	2707.3755	1525.75	644.75
997.3077	2708.6046	1530.8	644.25
997.4299	2709.8331	1541.5	658.25
997.552	2711.0609	1538.85	656.35
997.6742	2712.2881	1547.75	666.05
997.7963	2713.5145	1559.85	675.8
997.9183	2714.7403	1566.7	684.35
998.0403	2715.9654	1575.05	693.4
998.1623	2717.1899	1598.6	702.1
998.2842	2718.4136	1594.15	713.3
998.4062	2719.6367	1616	734.3
998.528	2720.8591	1629.55	739.4
998.6498	2722.0809	1627.7	745.8
998.7716	2723.3019	1639.35	750.95
998.8934	2724.5223	1656.3	771.65
999.0151	2725.7421	1650.9	766
999.1368	2726.9611	1655.25	770.05
999.2584	2728.1795	1656.75	768.95
999.38	2729.3972	1642	758.45
999.5016	2730.6142	1645.05	750.65
999.6231	2731.8306	1622.55	739
999.7446	2733.0462	1608.6	725.3
999.8661	2734.2612	1595.05	707.7
999.9875	2735.4756	1569.95	686.2
1000.1089	2736.6892	1552.7	669.85
1000.2302	2737.9022	1536.95	657.05
1000.3515	2739.1145	1527.9	645.2
1000.4728	2740.3262	1523.7	631.9
1000.594	2741.5372	1499.1	617.05
1000.7152	2742.7475	1498.85	617.65
1000.8363	2743.9571	1482.5	597.25
1000.9575	2745.1661	1476.5	589.35
1001.0785	2746.3744	1469.45	587.3
1001.1996	2747.582	1454.15	571.45
1001.3206	2748.7889	1455.05	569.5
1001.4415	2749.9952	1445.2	563.5
1001.5625	2751.2008	1435.9	551.35
1001.6833	2752.4057	1435.85	554.35
1001.8042	2753.61	1430.3	546.5
1001.925	2754.8136	1426.7	541.7
1002.0458	2756.0165	1424.75	543.25
1002.1665	2757.2188	1420.95	539
1002.2872	2758.4204	1424.15	543.35
1002.4078	2759.6213	1419.3	536.9
1002.5285	2760.8215	1428.1	541.15
1002.649	2762.0211	1418	535.55
1002.7696	2763.22	1423.1	539.7
1002.8901	2764.4182	1415.75	532.7
1003.0106	2765.6158	1411.35	529.05
1003.131	2766.8127	1408.3	525.8
1003.2514	2768.009	1407.9	525.2
1003.3717	2769.2045	1396.5	513.9
1003.492	2770.3994	1410.95	527.35
1003.6123	2771.5936	1405.55	524.5
1003.7325	2772.7872	1399.55	518.25
1003.8527	2773.9801	1395.45	510.5
1003.9729	2775.1723	1406.4	508.9
1004.093	2776.3639	1389.8	509.3
1004.2131	2777.5548	1387.6	505.45
1004.3331	2778.745	1395.25	510.45
1004.4531	2779.9346	1390.25	509.65
1004.5731	2781.1235	1394.1	509.9
1004.693	2782.3117	1402.8	521.15
1004.8129	2783.4992	1404.5	524.25
1004.9328	2784.6861	1405.95	525.9
1005.0526	2785.8723	1412.85	534.05
1005.1723	2787.0579	1418.15	536
1005.2921	2788.2428	1419.65	536.7
1005.4118	2789.427	1427.25	548.45
1005.5314	2790.6106	1436.65	555.55
1005.651	2791.7935	1442.35	560.2
1005.7706	2792.9757	1455.6	578.9
1005.8902	2794.1573	1460.8	575.95
1006.0097	2795.3382	1476.6	597
1006.1291	2796.5184	1490.6	613.15
1006.2485	2797.698	1505.15	621.25
1006.3679	2798.8769	1518.25	635.85
1006.4873	2800.0551	1539.45	657.45
1006.6066	2801.2327	1539.85	655.6
1006.7258	2802.4096	1550.55	671.35
1006.8451	2803.5859	1583.45	702.05
1006.9642	2804.7615	1590.85	708.35
1007.0834	2805.9364	1621.75	739.65
1007.2025	2807.1106	1643.55	763.65
1007.3216	2808.2842	1670.95	791.95
1007.4406	2809.4572	1701.65	821.4
1007.5596	2810.6294	1733.2	852.35
1007.6785	2811.801	1769.75	888.75
1007.7975	2812.972	1812.65	934.45
1007.9163	2814.1423	1856.65	974.95
1008.0352	2815.3119	1897.3	1013.55
1008.154	2816.4808	1942.55	1063.7
1008.2727	2817.6491	1996.1	1115.2
1008.3914	2818.8167	2041.15	1164.05
1008.5101	2819.9837	2102.7	1217.55
1008.6288	2821.15	2143.75	1261.95
1008.7474	2822.3157	2181.1	1301.7
1008.8659	2823.4807	2237.6	1353.85
1008.9844	2824.645	2297	1412.45
1009.1029	2825.8086	2335.45	1455.8
1009.2214	2826.9716	2374.7	1491.8
1009.3398	2828.134	2424.2	1544.4
1009.4581	2829.2957	2456.85	1574.6
1009.5764	2830.4567	2488.05	1607.1
1009.6947	2831.617	2503.1	1622.1
1009.813	2832.7767	2525.8	1645
1009.9312	2833.9358	2527.2	1646.55
1010.0493	2835.0941	2520.15	1638.35
1010.1675	2836.2519	2511.15	1631.05
1010.2855	2837.4089	2503.55	1621.05
1010.4036	2838.5653	2491.3	1610.7
1010.5216	2839.7211	2488	1608.8
1010.6396	2840.8761	2498.55	1614.5
1010.7575	2842.0306	2514.5	1634.4
1010.8754	2843.1843	2545.8	1665.65
1010.9932	2844.3374	2592.25	1710.85
1011.111	2845.4899	2640.85	1761.65
1011.2288	2846.6417	2699	1818.55
1011.3465	2847.7928	2761.55	1881.35
1011.4642	2848.9433	2846.05	1964.95
1011.5818	2850.0931	2904.65	2023.2
1011.6995	2851.2422	2993.85	2111.6
1011.817	2852.3907	3051.75	2170.45
1011.9345	2853.5385	3116.2	2232.8
1012.052	2854.6857	3183	2276.65
1012.1695	2855.8323	3224.05	2344.95
1012.2869	2856.9781	3279.4	2399.1
1012.4042	2858.1233	3315.3	2433.05
1012.5216	2859.2679	3364.9	2483.9
1012.6389	2860.4118	3394.7	2512.4
1012.7561	2861.555	3443.05	2558.6
1012.8733	2862.6976	3498	2617
1012.9905	2863.8395	3521.95	2640.25
1013.1076	2864.9808	3527.55	2646.75
1013.2247	2866.1214	3569.2	2691.05
1013.3417	2867.2614	3580	2699.85
1013.4587	2868.4007	3595.65	2712.05
1013.5757	2869.5393	3625.85	2742.9
1013.6926	2870.6773	3628.85	2745.6
1013.8095	2871.8146	3634.75	2752.15
1013.9263	2872.9513	3640.05	2758.15
1014.0431	2874.0874	3632.6	2752.75
1014.1599	2875.2227	3647.25	2764.3
1014.2766	2876.3574	3615.45	2734.05
1014.3933	2877.4915	3585.75	2706.8
1014.51	2878.6249	3548.7	2668.5
1014.6266	2879.7577	3539.2	2656
1014.7431	2880.8898	3533.15	2641.15
1014.8596	2882.0212	3505.25	2624.8
1014.9761	2883.152	3485.3	2604
1015.0925	2884.2821	3464.9	2587.2
1015.2089	2885.4116	3470.7	2590.4
1015.3253	2886.5405	3470.9	2591.55
1015.4416	2887.6686	3479.65	2596.85
1015.5579	2888.7962	3478	2602
1015.6741	2889.923	3474.2	2595.75
1015.7903	2891.0493	3502.05	2624.6
1015.9065	2892.1748	3506.55	2624.65
1016.0226	2893.2997	3526.05	2644.6
1016.1387	2894.424	3530.15	2652.5
1016.2547	2895.5476	3548.35	2668.9
1016.3707	2896.6706	3584.6	2706.1
1016.4866	2897.7929	3605.45	2724
1016.6025	2898.9145	3641.05	2760.5
1016.7184	2900.0355	3668.3	2789.2
1016.8342	2901.1559	3683.1	2803.6
1016.95	2902.2756	3722.8	2843.45
1017.0658	2903.3946	3743	2862.35
1017.1815	2904.513	3783.05	2900.3
1017.2971	2905.6308	3803.95	2928.15
1017.4127	2906.7479	3839.05	2958.6
1017.5283	2907.8643	3859.75	2978.9
1017.6439	2908.9801	3863.3	2984.45
1017.7594	2910.0953	3880.55	3002.1
1017.8748	2911.2098	3872.95	2993.2
1017.9902	2912.3236	3873.95	2987.75
1018.1056	2913.4368	3852.1	2969.4
1018.2209	2914.5494	3840.5	2960.55
1018.3362	2915.6613	3808.45	2922.55
1018.4515	2916.7725	3784.45	2901.2
1018.5667	2917.8831	3745.65	2865.35
1018.6819	2918.9931	3725.95	2843.9
1018.797	2920.1024	3703.5	2823.45
1018.9121	2921.211	3672.2	2790.1
1019.0271	2922.319	3643.1	2763.1
1019.1421	2923.4264	3639.45	2761.45
1019.2571	2924.5331	3620.5	2741.75
1019.372	2925.6391	3614.7	2736.65
1019.4869	2926.7445	3620.35	2740
1019.6017	2927.8493	3606.15	2726.25
1019.7165	2928.9534	3621.45	2741.85
1019.8313	2930.0569	3589.75	2708.55
1019.946	2931.1597	3586.45	2708.4
1020.0606	2932.2619	3600.35	2720.5
1020.1753	2933.3634	3580.95	2701.9
1020.2899	2934.4643	3591.05	2705
1020.4044	2935.5645	3555.9	2669.4
1020.5189	2936.6641	3547.35	2663
1020.6334	2937.763	3511.35	2633.05
1020.7478	2938.8613	3460.15	2581.45
1020.8622	2939.959	3413.3	2530.1
1020.9765	2941.056	3331.6	2454.65
1021.0908	2942.1523	3242.9	2363.15
1021.2051	2943.248	3175.35	2296.45
1021.3193	2944.3431	3077.55	2198.5
1021.4334	2945.4375	2979.8	2099.9
1021.5476	2946.5313	2875.25	1999.6
1021.6617	2947.6244	2786.6	1906.3
1021.7757	2948.7169	2683.4	1804.5
1021.8897	2949.8087	2609.8	1731.45
1022.0037	2950.8999	2514.75	1636.35
1022.1176	2951.9904	2421.7	1544.2
1022.2315	2953.0803	2356.6	1476.6
1022.3453	2954.1696	2290.15	1411.2
1022.4591	2955.2582	2232.05	1353.7
1022.5728	2956.3462	2190.95	1311.4
1022.6865	2957.4335	2153.2	1274.85
1022.8002	2958.5202	2128.15	1247.95
1022.9138	2959.6062	2087.55	1208.85
1023.0274	2960.6916	2073.8	1193.6
1023.141	2961.7764	2046.3	1168.3
1023.2545	2962.8605	2036.3	1156.85
1023.3679	2963.9439	2023.45	1147.5
1023.4813	2965.0267	2014.05	1133.55
1023.5947	2966.1089	2028.1	1127.25
1023.708	2967.1905	1989.05	1110.15
1023.8213	2968.2714	1988.55	1110.75
1023.9346	2969.3516	1993.2	1115.45
1024.0478	2970.4312	1989.4	1103.45
1024.1609	2971.5102	1995.4	1116.6
1024.274	2972.5885	1988	1109.85
1024.3871	2973.6662	2006.2	1121.55
1024.5002	2974.7432	1997.15	1121.5
1024.6132	2975.8196	1991.05	1109.85
1024.7261	2976.8954	1985.25	1107
1024.839	2977.9705	1967.35	1089.3
1024.9519	2979.045	1948.9	1069.5
1025.0647	2980.1188	1934.55	1055.4
1025.1775	2981.192	1922.85	1046.15
1025.2902	2982.2645	1912.25	1033.6
1025.4029	2983.3364	1877.05	1000.9
1025.5156	2984.4077	1851.75	973.55
1025.6282	2985.4783	1830.55	946.5
1025.7407	2986.5483	1789.25	911.25
1025.8532	2987.6177	1750.5	872.3
1025.9657	2988.6864	1731.45	853.15
1026.0782	2989.7545	1690.1	811.9
1026.1906	2990.8219	1662.85	784.35
1026.3029	2991.8887	1632.25	750.55
1026.4152	2992.9548	1604.35	726.8
1026.5275	2994.0204	1567.1	689.2
1026.6397	2995.0852	1538.45	661.3
1026.7519	2996.1495	1515.15	635.9
1026.864	2997.2131	1491.45	613.95
1026.9761	2998.276	1458.4	580.7
1027.0882	2999.3383	1445.15	568.95
1027.2002	3000.4	1426.05	546.3
1027.3122	3001.4611	1412.65	534.8
1027.4241	3002.5215	1397.1	517.95
1027.536	3003.5812	1384.4	506.65
1027.6478	3004.6404	1368.8	490.05
1027.7596	3005.6989	1362.4	482.6
1027.8714	3006.7567	1349.7	470.4
1027.9831	3007.8139	1372.5	462.65
1028.0947	3008.8705	1333.9	456.05
1028.2064	3009.9264	1327.9	445.4
1028.3179	3010.9818	1322.05	444.85
1028.4295	3012.0364	1319.6	440.05
1028.541	3013.0905	1319.15	440.75
1028.6524	3014.1439	1308.6	429.3
1028.7638	3015.1966	1303.9	426.95
1028.8752	3016.2487	1304.3	425.65
1028.9865	3017.3002	1302.9	416.25
1029.0978	3018.3511	1297.7	421
1029.209	3019.4013	1296.3	416.8
1029.3202	3020.4509	1298.1	421.4
1029.4314	3021.4998	1301.1	423.35
1029.5425	3022.5481	1299.9	421.1
1029.6535	3023.5958	1300.35	421.5
1029.7645	3024.6428	1298.5	418.7
1029.8755	3025.6892	1299.7	421.55
1029.9864	3026.735	1306.25	429.35
1030.0973	3027.7802	1306.15	429.6
1030.2082	3028.8247	1308.3	431.9
1030.319	3029.8685	1303.7	423.8
1030.4297	3030.9118	1305.05	424.2
1030.5404	3031.9544	1311.65	433.6
1030.6511	3032.9963	1309.2	431.45
1030.7617	3034.0376	1320.3	443.15
1030.8723	3035.0783	1329.05	449.7
1030.9829	3036.1184	1322.3	446.5
1031.0934	3037.1578	1324.5	448.95
1031.2038	3038.1966	1324.95	446.45
1031.3142	3039.2348	1330.9	455.55
1031.4246	3040.2723	1342.15	456.05
1031.5349	3041.3092	1325.15	449.1
1031.6452	3042.3455	1335.35	456
1031.7554	3043.3811	1329.25	449
1031.8656	3044.4161	1322.85	442.3
1031.9758	3045.4505	1319.65	443.7
1032.0859	3046.4842	1314	436
1032.1959	3047.5173	1307.85	431
1032.3059	3048.5498	1308.8	431.1
1032.4159	3049.5816	1293.85	417.05
1032.5258	3050.6128	1293.7	416
1032.6357	3051.6434	1294.4	415.25
1032.7455	3052.6734	1290.95	412.15
1032.8553	3053.7027	1279.9	401.4
1032.9651	3054.7314	1276.2	399.4
1033.0748	3055.7594	1275.55	397.8
1033.1845	3056.7868	1265.65	385.1
1033.2941	3057.8136	1264.35	387.1
1033.4037	3058.8398	1255.95	380.05
1033.5132	3059.8653	1253.35	376.8
1033.6227	3060.8902	1253.1	374.6
1033.7321	3061.9145	1248.25	368.35
1033.8415	3062.9381	1241.55	363.25
1033.9509	3063.9612	1250	355.5
1034.0602	3064.9835	1234.5	357.85
1034.1694	3066.0053	1231.2	350.75
1034.2787	3067.0264	1219	341.85
1034.3878	3068.0469	1212.25	334.55
1034.497	3069.0668	1215.75	334.7
1034.6061	3070.086	1201.05	325.15
1034.7151	3071.1046	1201.5	322.6
1034.8241	3072.1226	1189.25	310.45
1034.9331	3073.1399	1177.35	301.4
1035.042	3074.1567	1173.55	296
1035.1508	3075.1727	1167.1	286.7
1035.2597	3076.1882	1160.35	284
1035.3684	3077.203	1147.85	269.85
1035.4772	3078.2173	1140.95	263.65
1035.5859	3079.2308	1138.05	257.05
1035.6945	3080.2438	1131.45	251.35
1035.8031	3081.2561	1118.55	242.3
1035.9117	3082.2678	1113.35	236.35
1036.0202	3083.2789	1107.25	230.7
1036.1286	3084.2893	1098.6	221.75
1036.2371	3085.2991	1101	223.35
1036.3454	3086.3083	1100.2	217.75
1036.4538	3087.3169	1090.5	210.9
1036.562	3088.3248	1084.75	206.65
1036.6703	3089.3321	1074.8	194.2
1036.7785	3090.3388	1070.05	192.9
1036.8866	3091.3449	1065.05	187
1036.9948	3092.3503	1068.35	189.05
1037.1028	3093.3551	1062.55	187.65
1037.2108	3094.3593	1056.3	180.5
1037.3188	3095.3629	1054.1	177.15
1037.4267	3096.3658	1055.75	178.3
1037.5346	3097.3681	1053.55	175.15
1037.6425	3098.3698	1054.15	175.25
1037.7503	3099.3708	1052.45	168.25
1037.858	3100.3713	1045.5	168.55
1037.9657	3101.3711	1035.45	158.95
1038.0734	3102.3702	1176.45	163.15
1038.181	3103.3688	1038.7	159.25
1038.2886	3104.3667	1029.5	153.8
1038.3961	3105.364	1035.9	159.6
1038.5036	3106.3607	1031.2	152.75
1038.611	3107.3568	1031.45	154
1038.7184	3108.3522	1026.5	150.85
1038.8257	3109.347	1024	145.1
1038.933	3110.3412	1030.7	149.85
1039.0403	3111.3348	1023.25	147.1
1039.1475	3112.3277	1021.5	144.8
1039.2547	3113.32	1018.55	142.2
1039.3618	3114.3117	1017.2	139.6
1039.4689	3115.3028	1017.55	140.15
1039.5759	3116.2932	1018.15	139.1
1039.6829	3117.2831	1022.55	142.6
1039.7898	3118.2723	1011.8	137.05
1039.8967	3119.2608	1013.15	138.45
1040.0035	3120.2488	1010.05	131.5
1040.1103	3121.2361	1011.3	133.45
1040.2171	3122.2229	1006.85	128.55
1040.3238	3123.209	1005	126.9
1040.4305	3124.1944	1003.65	127.55
1040.5371	3125.1793	1004.45	127.45
1040.6437	3126.1635	1005.7	129.7
1040.7502	3127.1471	1001.2	126.1
1040.8567	3128.1301	997.25	121.7
1040.9631	3129.1125	1003.05	127.4
1041.0695	3130.0942	999.6	122.6
1041.1759	3131.0753	1008.75	123.4
1041.2822	3132.0558	1000.2	123.5
1041.3884	3133.0357	994.1	114.85
1041.4946	3134.015	995.35	118.45
1041.6008	3134.9936	991.95	113.4
1041.7069	3135.9716	1013.25	114.05
1041.813	3136.949	990.3	114.1
1041.919	3137.9258	1007.8	112.3
1042.025	3138.902	994.1	114.75
1042.1309	3139.8775	987.2	109.85
1042.2368	3140.8524	985.9	108.5
1042.3427	3141.8267	983.95	105.65
1042.4485	3142.8004	982.4	106.9
1042.5542	3143.7735	991.85	108.25
1042.6599	3144.7459	981.3	102.75
1042.7656	3145.7178	984.25	106.85
1042.8712	3146.689	980.9	105.2
1042.9768	3147.6596	979.25	101.1
1043.0823	3148.6295	981.65	104.25
1043.1878	3149.5989	980.9	103.15
1043.2932	3150.5676	976.2	101.15
1043.3986	3151.5357	975.8	101.65
1043.5039	3152.5032	972.85	96.25
1043.6092	3153.4701	973.8	98.3
1043.7145	3154.4364	976.4	97
1043.8197	3155.402	974.4	98.95
1043.9248	3156.367	972.9	94.45
1044.03	3157.3315	1003.7	95.8
1044.135	3158.2952	968.5	91.7
1044.24	3159.2584	968.5	92.15
1044.345	3160.221	971.1	95.2
1044.4499	3161.1829	969.9	93.8
1044.5548	3162.1442	969.7	91.65
1044.6596	3163.105	967.7	92.15
1044.7644	3164.065	966.45	89.35
1044.8692	3165.0245	971.25	92.3
1044.9739	3165.9834	965.95	90.7
1045.0785	3166.9416	967.5	92.4
1045.1831	3167.8993	963.75	86.9
1045.2877	3168.8563	962.55	84.25
1045.3922	3169.8127	963.05	84.9
1045.4966	3170.7684	963.9	86.1
1045.6011	3171.7236	958.95	79.95
1045.7054	3172.6782	957.2	81.05
1045.8098	3173.6321	960.55	82.65
1045.914	3174.5854	965.5	84.55
1046.0183	3175.5381	960.1	85.55
1046.1224	3176.4902	959.75	86.05
1046.2266	3177.4417	960.4	84.55
1046.3307	3178.3926	960.1	83.45
1046.4347	3179.3428	955.8	80.45
1046.5387	3180.2924	955.65	81.1
1046.6427	3181.2415	955.35	78.65
1046.7466	3182.1899	956.4	78.2
1046.8504	3183.1377	957.35	83.2
1046.9542	3184.0848	956	77.9
1047.058	3185.0314	955.3	79.75
1047.1617	3185.9773	955.8	80
1047.2654	3186.9227	952.95	77.2
1047.369	3187.8674	953.4	75.4
1047.4726	3188.8115	954.6	74.55
1047.5761	3189.755	953.3	79
1047.6796	3190.6979	949.45	73.5
1047.783	3191.6402	949	73.55
1047.8864	3192.5818	948.85	71.8
1047.9898	3193.5229	970.45	76.6
1048.0931	3194.4633	950.7	74.4
1048.1963	3195.4031	946.45	67.55
1048.2995	3196.3423	949.1	75.1
1048.4027	3197.2809	948.55	72.05
1048.5058	3198.2189	949.65	72.6
1048.6089	3199.1563	952.15	72
1048.7119	3200.0931	944.95	70.35
1048.8148	3201.0292	944.6	70.55
1048.9178	3201.9648	945.05	69.95
1049.0206	3202.8997	949.9	72
1049.1235	3203.834	944.95	69.85
1049.2262	3204.7677	946.05	72.95
1049.329	3205.7008	944.45	64.55
1049.4317	3206.6333	941.4	65.85
1049.5343	3207.5652	944.05	65.65
1049.6369	3208.4964	940.95	65.35
1049.7394	3209.4271	942.1	66
1049.8419	3210.3571	942.65	65.3
1049.9444	3211.2865	941.3	65.1
1050.0468	3212.2154	942.85	67.9
1050.1491	3213.1436	940.2	60.25
1050.2514	3214.0712	950.25	67.4
1050.3537	3214.9982	939.35	63.15
1050.4559	3215.9246	941	64
1050.5581	3216.8503	936.55	59.6
1050.6602	3217.7755	940.7	63.4
1050.7623	3218.7001	940.05	64.45
1050.8643	3219.624	938.25	63.2
1050.9663	3220.5473	938.15	63.15
1051.0682	3221.4701	939.4	62.85
1051.1701	3222.3922	940.05	61.6
1051.2719	3223.3137	941.1	66.8
1051.3737	3224.2346	935.95	59.7
1051.4754	3225.1549	938.1	64.35
1051.5771	3226.0746	936.75	60.45
1051.6788	3226.9937	934.4	58.75
1051.7804	3227.9121	938.65	64.85
1051.8819	3228.83	935.9	61.85
1051.9834	3229.7473	938.2	62.95
1052.0849	3230.6639	935.5	60.25
1052.1863	3231.5799	935.05	60.55
1052.2876	3232.4954	934.7	57.95
1052.3889	3233.4102	934	58.9
1052.4902	3234.3244	934.4	56.2
1052.5914	3235.238	932.3	57.4
1052.6926	3236.151	957.9	58.8
1052.7937	3237.0634	931.85	57.35
1052.8948	3237.9752	929.45	53.5
1052.9958	3238.8864	931.7	55.7
1053.0968	3239.797	930.25	53.45
1053.1977	3240.7069	934.2	58
1053.2986	3241.6163	932.5	56.65
1053.3994	3242.5251	930.25	55.2
1053.5002	3243.4332	925.5	52.95
1053.6009	3244.3408	928.2	51.35
1053.7016	3245.2477	926.45	51.6
1053.8022	3246.154	929.25	52.9
1053.9028	3247.0598	925.85	49.95
1054.0034	3247.9649	927.35	52.4
1054.1039	3248.8694	927.15	51.85
1054.2043	3249.7733	927.55	52
1054.3047	3250.6766	925.05	50.35
1054.4051	3251.5793	926.1	51.4
1054.5054	3252.4814	922	47.2
1054.6056	3253.3829	924.9	50.65
1054.7058	3254.2838	923.35	47.4
1054.806	3255.1841	923.2	50.75
1054.9061	3256.0838	921.1	42.5
1055.0061	3256.9829	919.6	44.7
1055.1062	3257.8814	923.4	45.8
1055.2061	3258.7792	922.3	43.6
1055.306	3259.6765	921.9	46.15
1055.4059	3260.5731	919	43.9
1055.5057	3261.4692	918.8	42.3
1055.6055	3262.3647	919.4	43.5
1055.7052	3263.2595	920.55	46.8
1055.8049	3264.1538	917.05	43.05
1055.9045	3265.0474	917.4	43.7
1056.0041	3265.9404	916.65	43.3
1056.1036	3266.8329	912.4	37.45
1056.2031	3267.7247	925	40.05
1056.3025	3268.616	913.05	39.05
1056.4019	3269.5066	914.75	37.75
1056.5013	3270.3966	912.8	37.5
1056.6005	3271.286	908.95	33.7
