Software Version:	3.9.2.0
Unit SN:	10000200
Spectrometer SN:	6960
Date:	3/8/2024 11:10:11 AM
Data Line Index:	25
Spectral Points:	2048
Integration time (ms):	125
Averages:	20
Delay (ms):	30000
Sequence Number:	1
Processing:	dark subtract
Laser Power (mW):	305
Laser Current (mA):	817
Laser Diode Temp (C):	25.1
Laser Case Temp (C):	24.4
System Temp (C):	24.3
Spectrometer Temp (C):	22.3
CCD Temp (C):	0.004
Secondary Temp (C):	20.006
Heatsink Temp (C):	19.19
CCDPCB Temp (C):	32.85
SecondaryPCB Temp (C):	25.836

Wavelength	RamanShift	Raw Counts	Dark Subtracted
787.061	30.1047	433.8	24.35
787.2016	32.3739	437.85	29.75
787.3422	34.6426	438.55	30.5
787.4828	36.9109	441	28
787.6235	39.1787	449.8	35.85
787.7642	41.4461	456.8	37.3
787.9049	43.7131	460.7	39.45
788.0456	45.9796	466.4	41.55
788.1863	48.2456	473.6	43.25
788.3271	50.5112	480.45	46.35
788.4679	52.7764	488.85	53
788.6087	55.0411	494.65	55.55
788.7496	57.3054	505.3	59.7
788.8904	59.5692	504.8	56.7
789.0313	61.8326	515.15	67.4
789.1722	64.0955	522.15	71.85
789.3132	66.3579	536.25	79.3
789.4541	68.6199	550.05	87.75
789.5951	70.8815	578.25	111.65
789.7361	73.1426	633.35	164.45
789.8771	75.4032	763.7	290.4
790.0181	77.6634	1089.6	613.7
790.1592	79.9231	1837.9	1361.3
790.3003	82.1824	3378.3	2896.95
790.4414	84.4412	6002.35	5513.8
790.5825	86.6995	9440.45	8945.55
790.7237	88.9574	12685.95	12185.75
790.8648	91.2148	14875.7	14371.45
791.006	93.4717	15870.7	15364.25
791.1472	95.7282	16084.25	15572.8
791.2885	97.9842	16009.2	15498.25
791.4297	100.2398	15745.8	15230.15
791.571	102.4949	15488	14971.15
791.7123	104.7495	15275.35	14755.05
791.8536	107.0036	14978.5	14456.95
791.9949	109.2573	14701.25	14181.75
792.1363	111.5105	14378.95	13855.8
792.2777	113.7632	13949.9	13425
792.4191	116.0154	13436.4	12900.5
792.5605	118.2672	12936.55	12405.95
792.7019	120.5185	12402.9	11871.05
792.8434	122.7693	11856.05	11319.75
792.9849	125.0197	11364.95	10826.7
793.1264	127.2696	10918.95	10373.55
793.2679	129.519	10660.8	10112.2
793.4094	131.7679	10456.7	9908.5
793.551	134.0163	10334	9783.2
793.6926	136.2642	10266.55	9713.45
793.8342	138.5117	10215.35	9658.3
793.9758	140.7587	10108.4	9551.55
794.1175	143.0052	9943.2	9383.1
794.2591	145.2512	9678.45	9116.45
794.4008	147.4967	9390.65	8824.75
794.5425	149.7417	9120.6	8552.95
794.6842	151.9863	8911.3	8341.95
794.826	154.2304	8794.85	8219.05
794.9677	156.4739	8724.35	8143.25
795.1095	158.717	8803.95	8225.2
795.2513	160.9596	8953.25	8369.65
795.3931	163.2017	9098.65	8510.15
795.535	165.4433	9228.5	8638.15
795.6768	167.6844	9255.55	8663.35
795.8187	169.925	9145.65	8550.25
795.9606	172.1651	8855.9	8258.6
796.1025	174.4047	8595.5	7992.05
796.2445	176.6439	8340.7	7737.25
796.3864	178.8825	8153.15	7545.1
796.5284	181.1206	8052.4	7440.25
796.6704	183.3582	7962.7	7347.25
796.8124	185.5954	7918	7299.3
796.9544	187.832	7889.6	7268
797.0965	190.0681	7893	7270.25
797.2386	192.3037	7925.35	7299.5
797.3806	194.5388	7931	7303.85
797.5228	196.7734	7994.35	7365.5
797.6649	199.0075	8051.85	7421
797.807	201.2411	8170.75	7540.5
797.9492	203.4742	8249.25	7615.05
798.0914	205.7068	8401.35	7763.85
798.2336	207.9389	8488.9	7851.6
798.3758	210.1704	8581.9	7951.3
798.518	212.4015	8590.8	7969.4
798.6603	214.632	8613.65	7996.9
798.8025	216.862	8638	8022.55
798.9448	219.0915	8666.1	8047.85
799.0871	221.3205	8761.6	8140.25
799.2294	223.549	8828.95	8213.05
799.3718	225.777	8870.5	8251.8
799.5141	228.0044	8813.9	8187.15
799.6565	230.2314	8800.75	8171
799.7989	232.4578	8712.6	8080.45
799.9413	234.6837	8641.2	8000.35
800.0837	236.909	8556.4	7913.45
800.2262	239.1339	8510.65	7847.15
800.3687	241.3582	8434.7	7782.85
800.5111	243.582	8446.95	7764.1
800.6536	245.8053	8451.8	7781.95
800.7961	248.0281	8492.5	7828.5
800.9387	250.2503	8493.15	7828.15
801.0812	252.472	8544.65	7875.15
801.2238	254.6932	8575.25	7906.2
801.3664	256.9139	8579.15	7908.6
801.509	259.134	8640.4	7966.45
801.6516	261.3536	8733.25	8062.6
801.7942	263.5727	8917.6	8244.1
801.9369	265.7912	9151.25	8477.8
802.0795	268.0092	9462.35	8790.8
802.2222	270.2267	9822.7	9145.65
802.3649	272.4436	10092.5	9415.5
802.5076	274.6601	10278.3	9590.95
802.6504	276.8759	10435.05	9749.75
802.7931	279.0913	10545.35	9861.6
802.9359	281.3061	10629.15	9943.35
803.0787	283.5204	10732.7	10046.45
803.2215	285.7341	10885	10194.65
803.3643	287.9473	11029.35	10339.8
803.5071	290.16	11037.65	10342.75
803.6499	292.3721	10816.3	10129.4
803.7928	294.5837	10553.1	9862.75
803.9357	296.7947	10314.3	9624.7
804.0786	299.0052	10197.3	9505.4
804.2215	301.2152	10091.55	9397.5
804.3644	303.4246	10060.7	9369.75
804.5074	305.6334	10028	9336.3
804.6503	307.8418	9960.1	9263.5
804.7933	310.0495	9894.45	9196.95
804.9363	312.2568	9707.35	9010.95
805.0793	314.4635	9460.95	8760.3
805.2223	316.6696	9196.55	8493.5
805.3653	318.8752	8932.7	8222.1
805.5084	321.0802	8770	8063.8
805.6514	323.2847	8685.3	7977.75
805.7945	325.4887	8691.1	7983.3
805.9376	327.692	8771.2	8062
806.0807	329.8949	8993.2	8282.5
806.2238	332.0972	9264.8	8552.5
806.367	334.2989	9548.8	8831.85
806.5101	336.5001	9597.7	8881.9
806.6533	338.7007	9469.35	8754.15
806.7965	340.9008	9158.65	8442.45
806.9397	343.1003	8804.75	8084.95
807.0829	345.2992	8479.9	7760.05
807.2261	347.4976	8226.6	7503.9
807.3693	349.6955	8032.8	7307.65
807.5126	351.8927	7906.15	7177.65
807.6559	354.0895	7807.45	7069
807.7991	356.2856	7752.25	7024.35
807.9424	358.4812	7671.05	6940.9
808.0857	360.6763	7653.1	6920.65
808.2291	362.8707	7598.8	6864.9
808.3724	365.0646	7606.7	6869.15
808.5158	367.258	7641.55	6902.55
808.6591	369.4508	7722.95	6980.75
808.8025	371.643	7868.45	7126.7
808.9459	373.8346	8019.65	7278.3
809.0893	376.0257	8213.3	7467.3
809.2327	378.2162	8402.9	7659.2
809.3762	380.4062	8525.55	7780.35
809.5196	382.5956	8458.25	7716.4
809.6631	384.7844	8249.75	7514.05
809.8066	386.9726	7976.9	7240.35
809.9501	389.1603	7770.8	7036.25
810.0936	391.3474	7679.65	6893.9
810.2371	393.5339	7646.65	6906.9
810.3806	395.7199	7644.05	6904.4
810.5241	397.9052	7809.95	7072.75
810.6677	400.09	8056.8	7314.25
810.8113	402.2743	8319.9	7580
810.9548	404.4579	8522.85	7778.9
811.0984	406.641	8750.25	8003.95
811.2421	408.8235	8977.4	8229.15
811.3857	411.0054	9172.5	8424.4
811.5293	413.1868	9281.55	8529.15
811.673	415.3675	9209.7	8453.2
811.8166	417.5477	9112.9	8357.4
811.9603	419.7273	9057.85	8297.8
812.104	421.9064	8921.55	8156.55
812.2477	424.0848	8713.1	7954.85
812.3914	426.2627	8371.5	7610.95
812.5351	428.4399	8000.55	7239.65
812.6788	430.6166	7690.95	6924.75
812.8226	432.7928	7444.75	6677.2
812.9663	434.9683	7250.7	6483.2
813.1101	437.1432	7130.8	6360.45
813.2539	439.3176	7019.3	6252.4
813.3977	441.4914	6945.95	6179.65
813.5415	443.6645	6903.05	6131.55
813.6853	445.8371	6887.6	6116.8
813.8291	448.0091	6875.05	6107.35
813.973	450.1806	6872.15	6103.1
814.1168	452.3514	6858.95	6084.6
814.2607	454.5216	6890.1	6109.55
814.4046	456.6913	6913.55	6138.95
814.5485	458.8603	6947.65	6173.75
814.6924	461.0288	6956.25	6184
814.8363	463.1967	6952.35	6181.2
814.9802	465.3639	6984.5	6207.5
815.1241	467.5306	6923.4	6149.6
815.2681	469.6967	6897.65	6121.3
815.412	471.8622	6855.05	6080
815.556	474.0271	6837.45	6062.75
815.7	476.1914	6836.15	6056.7
815.844	478.3551	6808.75	6031.5
815.988	480.5182	6805.65	6028.8
816.132	482.6807	6814.1	6034.85
816.276	484.8426	6903.5	6125.15
816.4201	487.0039	7120.45	6338.75
816.5641	489.1647	7468.3	6688.2
816.7082	491.3248	7708.65	6927.55
816.8522	493.4843	7824.15	7042.6
816.9963	495.6432	7793.15	7013.2
817.1404	497.8015	7606.15	6819.6
817.2845	499.9592	7356.2	6571.7
817.4286	502.1163	7032.6	6244.55
817.5727	504.2728	6811.55	6022.3
817.7168	506.4287	6678.85	5893.9
817.861	508.5839	6567.05	5779.65
818.0051	510.7386	6516.55	5730.55
818.1493	512.8927	6530.95	5734.5
818.2935	515.0461	6553.5	5761.75
818.4377	517.199	6642.55	5852.65
818.5818	519.3512	6886.6	6096.7
818.726	521.5029	7276	6481.35
818.8703	523.6539	7656.45	6865.35
819.0145	525.8043	7756.9	6961.25
819.1587	527.9541	7491.8	6697.7
819.303	530.1033	7041.5	6245.1
819.4472	532.2519	6763.15	5966.15
819.5915	534.3999	6586.4	5789.2
819.7357	536.5472	6534	5736.65
819.88	538.694	6529.5	5733.25
820.0243	540.8401	6582.7	5785.3
820.1686	542.9856	6713.25	5914
820.3129	545.1305	6802.7	6002.25
820.4572	547.2748	6881.3	6080.35
820.6016	549.4185	6923.8	6122.9
820.7459	551.5615	6954.25	6152.65
820.8902	553.704	7017.25	6217.25
821.0346	555.8458	7119.25	6322.3
821.1789	557.987	7259	6460.3
821.3233	560.1276	7450	6649.9
821.4677	562.2675	7817.25	7016.95
821.6121	564.4069	8301.75	7503.45
821.7565	566.5456	8603.15	7805.2
821.9009	568.6837	8479.2	7676.5
822.0453	570.8212	7958.2	7158.8
822.1897	572.958	7367.85	6562.9
822.3342	575.0942	6943.7	6143.45
822.4786	577.2299	6717	5912.95
822.6231	579.3648	6594.1	5788.2
822.7675	581.4992	6553.8	5749.65
822.912	583.6329	6631.9	5826.4
823.0565	585.766	6791.85	5987.95
823.201	587.8985	7065.2	6261.25
823.3454	590.0304	7372.85	6553.95
823.4899	592.1616	7616.95	6805.95
823.6345	594.2922	7677	6867.5
823.779	596.4222	7539	6727
823.9235	598.5515	7209.6	6400.4
824.068	600.6802	6852.9	6040.55
824.2126	602.8083	6573.95	5763.7
824.3571	604.9358	6449.7	5638.95
824.5017	607.0626	6400	5588.95
824.6462	609.1888	6444.45	5632.35
824.7908	611.3144	6569.6	5757.4
824.9354	613.4393	6792.45	5979.8
825.08	615.5636	7123.75	6310.3
825.2246	617.6873	7440.45	6626.8
825.3692	619.8103	7668.9	6854.85
825.5138	621.9327	7671.95	6852.8
825.6584	624.0544	7517.5	6703.3
825.803	626.1756	7162.9	6349.8
825.9477	628.2961	6798.15	5981.75
826.0923	630.4159	6602.1	5785.8
826.237	632.5351	6550.5	5733.9
826.3816	634.6537	6538.6	5721.05
826.5263	636.7716	6473.8	5654.75
826.6709	638.8889	6444.3	5623.7
826.8156	641.0056	6480.05	5660.5
826.9603	643.1216	6574.35	5755.7
827.105	645.237	6631.5	5810.4
827.2497	647.3518	6534.6	5716.2
827.3944	649.4659	6371.75	5551.65
827.5391	651.5793	6250.7	5430.25
827.6838	653.6922	6148.25	5326.05
827.8285	655.8043	6078.65	5258
827.9733	657.9159	6002.7	5180.8
828.118	660.0268	5946.65	5122.95
828.2627	662.137	5924.65	5104.35
828.4075	664.2466	5953.9	5128.75
828.5522	666.3556	5965	5140.55
828.697	668.4639	5917.55	5090.5
828.8418	670.5716	5885.6	5062
828.9865	672.6786	5828.6	5001.15
829.1313	674.785	5795.9	4969.9
829.2761	676.8907	5772.4	4947
829.4209	678.9958	5776.1	4952.6
829.5657	681.1002	5787.6	4960.85
829.7105	683.204	5787.6	4955.4
829.8553	685.3072	5770.95	4942.65
830.0001	687.4097	5767.4	4940.9
830.1449	689.5115	5748.65	4918.95
830.2898	691.6127	5763.7	4934
830.4346	693.7132	5743.15	4914.35
830.5794	695.8131	5735.35	4893.2
830.7243	697.9123	5751.45	4921.8
830.8691	700.0109	5767.4	4939.5
831.014	702.1089	5828.9	4999.4
831.1588	704.2061	5900.8	5071.45
831.3037	706.3028	6054.15	5222.95
831.4486	708.3987	6200.25	5369
831.5935	710.4941	6313.4	5481.45
831.7383	712.5887	6371.25	5535.45
831.8832	714.6827	6304.85	5468.45
832.0281	716.7761	6253.85	5420.05
832.173	718.8688	6206.3	5371.75
832.3179	720.9608	6203.05	5365.9
832.4628	723.0522	6249.75	5412.45
832.6077	725.1429	6333.2	5499.75
832.7527	727.233	6561.05	5725.8
832.8976	729.3224	6885.25	6050.25
833.0425	731.4112	7238.55	6401.85
833.1874	733.4993	7403.9	6565.9
833.3324	735.5867	7163.3	6326.4
833.4773	737.6735	6735.3	5899.2
833.6222	739.7596	6332.15	5496.65
833.7672	741.845	6054.3	5216.25
833.9122	743.9298	5921.35	5081.6
834.0571	746.014	5860.1	5022.55
834.2021	748.0974	5842.15	5004.15
834.347	750.1802	5848.5	5010.3
834.492	752.2624	5852.8	5013.9
834.637	754.3439	5872.4	5033.15
834.782	756.4247	5931.25	5081.1
834.9269	758.5048	5995.1	5157.2
835.0719	760.5843	6116.3	5277.3
835.2169	762.6631	6337.05	5496.25
835.3619	764.7413	6640	5801.8
835.5069	766.8188	7139.55	6298.3
835.6519	768.8956	7681.7	6839.85
835.7969	770.9718	8060.6	7219.3
835.9419	773.0473	8051.65	7211.55
836.0869	775.1221	7823.65	6982.85
836.232	777.1962	7708.25	6865.95
836.377	779.2697	8048.65	7207.9
836.522	781.3426	8680.4	7820.5
836.667	783.4147	9201.4	8357.65
836.8121	785.4862	9232.15	8390.9
836.9571	787.557	8789.2	7947.1
837.1021	789.6271	8038.1	7195.15
837.2472	791.6966	7214.8	6372.4
837.3922	793.7654	6571.6	5725.7
837.5373	795.8335	6184.3	5340.45
837.6823	797.901	5973.1	5130.65
837.8274	799.9678	5884.75	5039.1
837.9724	802.0339	5879.05	5037.3
838.1175	804.0993	5926.75	5072.45
838.2626	806.1641	5915.6	5068.35
838.4076	808.2282	5838.3	4992.85
838.5527	810.2916	5743.85	4896.15
838.6978	812.3544	5637.25	4793.9
838.8428	814.4164	5580.95	4736.15
838.9879	816.4778	5611.75	4765.65
839.133	818.5385	5679.3	4832.9
839.2781	820.5986	5866.05	5019.25
839.4232	822.658	6187.5	5339.1
839.5682	824.7166	6576.45	5730
839.7133	826.7747	7078	6233
839.8584	828.832	7562.1	6714.1
840.0035	830.8886	7921.85	7073.35
840.1486	832.9446	8144.1	7295.9
840.2937	834.9999	8033.45	7186.5
840.4388	837.0545	7655.9	6805.15
840.5839	839.1085	7121.05	6270.15
840.729	841.1618	6630.55	5777.05
840.8741	843.2143	6268.75	5418.45
841.0192	845.2662	6060.05	5211.55
841.1643	847.3175	5944.95	5096.95
841.3095	849.368	5875.8	5027.55
841.4546	851.4179	5860.55	5011.45
841.5997	853.467	5806.6	4957.85
841.7448	855.5155	5881.75	5030.65
841.8899	857.5633	5899.55	5048.9
842.0351	859.6105	5888.8	5039.3
842.1802	861.6569	5828.55	4979.25
842.3253	863.7027	5736.8	4883.85
842.4704	865.7478	5662.9	4812.4
842.6156	867.7922	5571.3	4719.1
842.7607	869.8359	5519.5	4667.35
842.9058	871.8789	5503.75	4651.95
843.0509	873.9212	5526.3	4644.2
843.1961	875.9629	5505.45	4655.2
843.3412	878.0039	5582.5	4730.25
843.4863	880.0441	5678.85	4826.5
843.6315	882.0837	5790.9	4938.95
843.7766	884.1226	5913.85	5059.5
843.9218	886.1609	6116.05	5262.5
844.0669	888.1984	6427.95	5576.75
844.212	890.2352	6723.55	5870.9
844.3572	892.2714	6843.6	5987.45
844.5023	894.3069	6714.05	5860.25
844.6475	896.3416	6395.25	5538.85
844.7926	898.3757	6104.1	5250.05
844.9377	900.4091	5939.7	5085.3
845.0829	902.4418	5934.9	5074
845.228	904.4739	6079.1	5221.8
845.3732	906.5052	6235.25	5379.6
845.5183	908.5358	6253.75	5399.55
845.6635	910.5658	6166.4	5309.2
845.8086	912.595	5949.55	5093.2
845.9538	914.6236	5730.7	4877.3
846.0989	916.6515	5549.75	4695.8
846.2441	918.6786	5417.4	4559.55
846.3892	920.7051	5358.25	4500.95
846.5344	922.7309	5357.6	4501.55
846.6795	924.756	5348.3	4491.4
846.8246	926.7804	5418.2	4559.95
846.9698	928.8041	5487.7	4629.95
847.1149	930.8272	5591.2	4735.15
847.2601	932.8495	5671.4	4812.95
847.4052	934.8711	5707.5	4850.25
847.5504	936.892	5724.3	4867.4
847.6955	938.9123	5871.9	5011.45
847.8407	940.9318	6033.8	5176.4
847.9858	942.9506	6174.8	5316.5
848.131	944.9688	6151.8	5294.35
848.2761	946.9862	6016.45	5159.3
848.4213	949.003	5811.3	4951.9
848.5664	951.019	5643.15	4782.35
848.7115	953.0344	5543.05	4683.75
848.8567	955.0491	5461.5	4602.45
849.0018	957.063	5399.4	4537.3
849.147	959.0763	5391.75	4531.2
849.2921	961.0888	5362.1	4502.35
849.4373	963.1007	5343.7	4484.95
849.5824	965.1119	5311.2	4452.75
849.7275	967.1223	5246.95	4387.8
849.8727	969.1321	5214.9	4355.9
850.0178	971.1412	5203.05	4343.25
850.1629	973.1495	5178.95	4318.35
850.3081	975.1572	5198.05	4298.95
850.4532	977.1641	5223.55	4365.2
850.5983	979.1704	5219	4359.15
850.7435	981.1759	5217.1	4352.15
850.8886	983.1808	5157.6	4296.65
851.0337	985.1849	5104.05	4230.8
851.1788	987.1884	5090.75	4226.65
851.324	989.1911	5124.5	4261.45
851.4691	991.1932	5171.2	4308.3
851.6142	993.1945	5204.25	4344.5
851.7593	995.1951	5203.55	4342.2
851.9045	997.1951	5191.6	4324.1
852.0496	999.1943	5161.3	4300.3
852.1947	1001.1928	5173.05	4310.25
852.3398	1003.1906	5216.75	4354.6
852.4849	1005.1877	5375.55	4513.9
852.63	1007.1841	5547.45	4684.4
852.7751	1009.1798	5666.05	4803.05
852.9202	1011.1748	5634.2	4774.25
853.0653	1013.1691	5482.5	4619.15
853.2104	1015.1627	5308.6	4445.1
853.3555	1017.1556	5110.75	4248.05
853.5006	1019.1477	4972.85	4108.95
853.6457	1021.1392	4899.75	4039.5
853.7908	1023.1299	4847.5	3984.45
853.9359	1025.12	4840.45	3977.9
854.081	1027.1093	4882.45	4022.1
854.2261	1029.0979	5015	4153.35
854.3712	1031.0859	5124.55	4263.2
854.5163	1033.0731	5221.15	4357.55
854.6613	1035.0596	5238.4	4375.1
854.8064	1037.0454	5222.5	4358.7
854.9515	1039.0304	5163	4297.55
855.0965	1041.0148	5047.1	4183.25
855.2416	1042.9985	4927.2	4061.2
855.3867	1044.9814	4813.8	3951.15
855.5317	1046.9636	4789.05	3922.9
855.6768	1048.9452	4816.15	3951.7
855.8219	1050.926	4912.45	4049.4
855.9669	1052.9061	5044.1	4180.3
856.112	1054.8855	5109.35	4246.75
856.257	1056.8642	5112.7	4248.15
856.4021	1058.8421	5100.3	4230.35
856.5471	1060.8194	5089.7	4223.05
856.6921	1062.7959	5063.55	4199
856.8372	1064.7717	5065.35	4197.3
856.9822	1066.7469	5046.25	4179.3
857.1272	1068.7213	5076	4207.15
857.2723	1070.695	5139.6	4276.1
857.4173	1072.6679	5264.35	4396.1
857.5623	1074.6402	5440.65	4573.95
857.7073	1076.6117	5545.2	4673.9
857.8523	1078.5826	5466.75	4599.45
857.9973	1080.5527	5280.65	4411
858.1423	1082.5221	5034.8	4168.3
858.2873	1084.4908	4845.5	3980.2
858.4323	1086.4587	4732	3863.4
858.5773	1088.426	4660.95	3792.3
858.7223	1090.3925	4653.65	3781.85
858.8673	1092.3584	4682	3816.25
859.0123	1094.3235	4743.05	3875.05
859.1573	1096.2879	4836.35	3968.8
859.3022	1098.2515	4959.3	4093.15
859.4472	1100.2145	5131.35	4265.8
859.5922	1102.1767	5323.65	4453.05
859.7371	1104.1382	5568.2	4699.45
859.8821	1106.099	5905.7	5035.8
860.027	1108.0591	6225.05	5358.05
860.172	1110.0185	6498.35	5630.05
860.3169	1111.9771	6691.35	5825.1
860.4619	1113.9351	6988.1	6117.85
860.6068	1115.8923	7408.85	6539.6
860.7517	1117.8488	7718.5	6848.25
860.8967	1119.8045	7570.65	6704.1
861.0416	1121.7596	6997.45	6129.8
861.1865	1123.7139	6320.55	5451.9
861.3314	1125.6675	5883.3	5015.45
861.4763	1127.6204	5797.9	4931.4
861.6212	1129.5726	5917.15	5046.4
861.7661	1131.524	5973.25	5105.8
861.911	1133.4748	5781.9	4913.05
862.0559	1135.4248	5408.6	4537.7
862.2008	1137.3741	5090.4	4220.7
862.3457	1139.3226	4904.15	4034.4
862.4905	1141.2705	4853	3985.25
862.6354	1143.2176	4879.35	4004.4
862.7803	1145.164	4987.2	4117
862.9251	1147.1097	5016.35	4146.65
863.07	1149.0546	4929.85	4060.25
863.2148	1150.9989	4785.65	3917.45
863.3597	1152.9424	4622.5	3753.4
863.5045	1154.8852	4548.95	3679.65
863.6493	1156.8272	4483	3614.05
863.7942	1158.7686	4470.4	3594.4
863.939	1160.7092	4468.45	3599.4
864.0838	1162.6491	4476.9	3605.35
864.2286	1164.5883	4558.6	3688.15
864.3734	1166.5267	4644.4	3773.35
864.5182	1168.4644	4764.7	3895.55
864.663	1170.4014	4948.9	4074.8
864.8078	1172.3377	5173.6	4303.6
864.9526	1174.2732	5459	4587.7
865.0974	1176.2081	5937.85	5069.25
865.2421	1178.1421	6659.55	5784.75
865.3869	1180.0755	7495.85	6626.15
865.5317	1182.0082	8057.2	7187.85
865.6764	1183.9401	8172.6	7299.8
865.8212	1185.8713	7675.65	6804.55
865.9659	1187.8017	6895.15	6025.45
866.1106	1189.7315	6145.35	5276.65
866.2554	1191.6605	5600.7	4700.6
866.4001	1193.5888	5246	4376.65
866.5448	1195.5163	5021.15	4150.35
866.6895	1197.4432	4888.25	4014.25
866.8342	1199.3693	4767.7	3897.05
866.9789	1201.2947	4690.65	3811.8
867.1236	1203.2193	4631.95	3761
867.2683	1205.1432	4577.75	3706.55
867.413	1207.0664	4572.25	3700.75
867.5576	1208.9889	4580.25	3705.45
867.7023	1210.9106	4578.4	3709.3
867.847	1212.8316	4603.05	3730.5
867.9916	1214.7519	4667.4	3786.5
868.1363	1216.6715	4736.05	3865.7
868.2809	1218.5903	4825	3952.9
868.4255	1220.5084	4899.75	4027.25
868.5701	1222.4257	4971	4098.9
868.7148	1224.3424	5031.4	4162.1
868.8594	1226.2583	5135.9	4260.5
869.004	1228.1735	5282.9	4410.35
869.1486	1230.0879	5507.95	4635.2
869.2932	1232.0016	5747.9	4877.05
869.4377	1233.9146	5982.7	5107.6
869.5823	1235.8269	6103.35	5230.8
869.7269	1237.7384	6128.5	5256.7
869.8715	1239.6492	6089.05	5217.6
870.016	1241.5592	6178.4	5306.95
870.1606	1243.4686	6380.1	5507.1
870.3051	1245.3772	6811.8	5939.55
870.4496	1247.285	7334.8	6461.95
870.5941	1249.1922	7853.9	6981.4
870.7387	1251.0986	8300.05	7429.45
870.8832	1253.0042	8661.9	7788.15
871.0277	1254.9092	9177.35	8304.95
871.1722	1256.8134	9797.8	8926.95
871.3167	1258.7169	10423	9548
871.4611	1260.6196	10944.7	10071.25
871.6056	1262.5216	11285.2	10412.45
871.7501	1264.4229	11371.95	10500.3
871.8945	1266.3234	11205.6	10331.3
872.039	1268.2232	10846.15	9972.7
872.1834	1270.1223	10448.5	9573.7
872.3278	1272.0207	10180.4	9305.9
872.4723	1273.9183	10046.4	9165.3
872.6167	1275.8151	9994.6	9122.7
872.7611	1277.7113	10176.2	9302.15
872.9055	1279.6067	10637.85	9764.05
873.0499	1281.5014	11452	10577.75
873.1943	1283.3953	12625.15	11748.95
873.3386	1285.2885	13974.1	13102.5
873.483	1287.181	15092.15	14217.45
873.6274	1289.0727	15671.3	14798.45
873.7717	1290.9637	15423.5	14548.85
873.9161	1292.854	14680.45	13806.05
874.0604	1294.7435	13735.15	12860.7
874.2047	1296.6323	12859.6	11985.2
874.349	1298.5204	12090.85	11212.05
874.4933	1300.4077	11494.8	10620.35
874.6376	1302.2943	11075.2	10203.15
874.7819	1304.1802	10780	9907.15
874.9262	1306.0653	10542	9666.65
875.0705	1307.9497	10331.95	9456.05
875.2147	1309.8333	10171.35	9296.75
875.359	1311.7162	10005.1	9132.95
875.5032	1313.5984	9855.45	8979.75
875.6475	1315.4798	9745.55	8860.95
875.7917	1317.3605	9765.85	8876.3
875.9359	1319.2405	9855.25	8979.7
876.0801	1321.1197	9894.15	9017.1
876.2243	1322.9982	9795.85	8916.95
876.3685	1324.876	9506.95	8632.4
876.5127	1326.753	8993.4	8117.05
876.6569	1328.6293	8380.7	7507.15
876.801	1330.5048	7748.65	6870.45
876.9452	1332.3796	7162	6288.55
877.0893	1334.2537	6713.6	5813.2
877.2335	1336.127	6375.85	5503.6
877.3776	1337.9996	6157.1	5281.7
877.5217	1339.8714	6002.05	5127.4
877.6658	1341.7426	5894.45	4975.85
877.8099	1343.6129	5763.1	4889.15
877.954	1345.4826	5608.55	4731.7
878.0981	1347.3515	5536.3	4659.15
878.2422	1349.2196	5422.45	4547.65
878.3862	1351.087	5374.1	4498.2
878.5303	1352.9537	5322.55	4448.05
878.6743	1354.8197	5336.85	4461.3
878.8184	1356.6849	5397.95	4523.45
878.9624	1358.5493	5461.5	4586.4
879.1064	1360.4131	5605.6	4729.1
879.2504	1362.276	5852.3	4978.05
879.3944	1364.1383	6086.4	5211.85
879.5384	1365.9998	6211.55	5332.6
879.6823	1367.8606	6163.55	5288
879.8263	1369.7206	6127.85	5253.15
879.9702	1371.5799	6149.6	5271.55
880.1142	1373.4384	6130.75	5255.55
880.2581	1375.2962	5996.15	5118.1
880.402	1377.1533	5717.75	4842.55
880.5459	1379.0096	5434.3	4558.65
880.6898	1380.8652	5204.6	4329.25
880.8337	1382.7201	5007	4132.15
880.9776	1384.5742	4849.3	3972.85
881.1215	1386.4275	4681.7	3805.15
881.2653	1388.2802	4561.2	3688.55
881.4092	1390.132	4490.9	3618.4
881.553	1391.9832	4427.1	3549
881.6968	1393.8336	4375.95	3500.55
881.8406	1395.6832	4353.2	3474.75
881.9844	1397.5322	4307.55	3433.2
882.1282	1399.3803	4243.45	3361.2
882.272	1401.2278	4203.35	3329.85
882.4158	1403.0745	4161.5	3285.6
882.5595	1404.9204	4103.45	3227.05
882.7033	1406.7656	4079.55	3203.7
882.847	1408.6101	4044.7	3169.35
882.9908	1410.4538	4029.2	3155.3
883.1345	1412.2968	4033.5	3159.25
883.2782	1414.139	4031.4	3154.85
883.4219	1415.9805	4069.9	3194.3
883.5656	1417.8213	4141.85	3259.35
883.7092	1419.6613	4251.15	3375.65
883.8529	1421.5006	4435.5	3556.05
883.9965	1423.3391	4658.55	3781.2
884.1402	1425.1769	4983.85	4105.85
884.2838	1427.0139	5474.55	4596.55
884.4274	1428.8502	6035.7	5157
884.571	1430.6858	6497.05	5620.3
884.7146	1432.5206	6698.9	5823.6
884.8582	1434.3547	6691.45	5813.55
885.0018	1436.188	6601.15	5725.95
885.1453	1438.0206	6498.5	5622.15
885.2889	1439.8524	6435.3	5558.3
885.4324	1441.6835	6411	5534.65
885.5759	1443.5139	6432	5552.65
885.7194	1445.3435	6453.9	5576.2
885.8629	1447.1724	6471.25	5594.7
886.0064	1449.0005	6453.25	5576.15
886.1499	1450.8279	6408.45	5529.25
886.2933	1452.6545	6379.6	5501.3
886.4368	1454.4804	6351.95	5477.85
886.5802	1456.3056	6284.7	5401.15
886.7237	1458.13	6202.6	5328.9
886.8671	1459.9536	6050.2	5174.15
887.0105	1461.7766	5816.4	4938.45
887.1539	1463.5987	5596.4	4718.05
887.2972	1465.4202	5344.2	4467.05
887.4406	1467.2409	5103.7	4226.2
887.584	1469.0608	4891.3	4013.5
887.7273	1470.88	4692.15	3816.2
887.8706	1472.6984	4517.7	3640.1
888.0139	1474.5161	4363.6	3482.85
888.1572	1476.3331	4250.75	3376.95
888.3005	1478.1493	4174.3	3296.05
888.4438	1479.9648	4150.75	3271.45
888.5871	1481.7795	4135.85	3258.3
888.7303	1483.5935	4143.95	3266.65
888.8736	1485.4067	4150.35	3272.95
889.0168	1487.2192	4161.95	3284
889.16	1489.031	4178.8	3299.05
889.3032	1490.842	4173.7	3299.35
889.4464	1492.6522	4182.4	3304.85
889.5896	1494.4618	4164.5	3286.05
889.7327	1496.2705	4173.45	3296.15
889.8759	1498.0785	4145.35	3268.85
890.019	1499.8858	4109.5	3232.15
890.1622	1501.6924	4076.3	3200.05
890.3053	1503.4981	4035.75	3160.3
890.4484	1505.3032	4012.2	3134.6
890.5914	1507.1075	3970.65	3091.45
890.7345	1508.911	3940.4	3064.25
890.8776	1510.7138	3896.5	3017.65
891.0206	1512.5159	3846.95	2967.65
891.1637	1514.3172	3825.8	2949.55
891.3067	1516.1178	3783.5	2904.95
891.4497	1517.9176	3753.5	2872.35
891.5927	1519.7166	3723.1	2845
891.7357	1521.515	3701.5	2817.85
891.8786	1523.3126	3671.15	2794.9
892.0216	1525.1094	3638	2757.85
892.1645	1526.9055	3608.5	2731.35
892.3074	1528.7008	3586.75	2708.8
892.4503	1530.4954	3569.35	2686.2
892.5932	1532.2893	3559.05	2682.85
892.7361	1534.0824	3549.6	2667.55
892.879	1535.8747	3545.25	2667
893.0218	1537.6663	3546.35	2666.8
893.1647	1539.4572	3553.45	2671.85
893.3075	1541.2473	3547.05	2669.4
893.4503	1543.0367	3542.15	2664.45
893.5931	1544.8253	3568.85	2687.1
893.7359	1546.6132	3582.85	2702.7
893.8787	1548.4003	3604.35	2718.05
894.0214	1550.1867	3666	2779.7
894.1642	1551.9723	3733.8	2852.35
894.3069	1553.7572	3800.75	2922.3
894.4496	1555.5414	3927.5	3048.5
894.5923	1557.3247	4098.9	3220.15
894.735	1559.1074	4302	3426.25
894.8777	1560.8893	4564.6	3686.85
895.0204	1562.6705	4841.05	3963.9
895.163	1564.4509	5047.5	4170.5
895.3056	1566.2305	5160.7	4284.3
895.4482	1568.0094	5187	4309.6
895.5908	1569.7876	5192.4	4316.3
895.7334	1571.565	5188.25	4310.1
895.876	1573.3417	5188.15	4311.8
896.0186	1575.1176	5242.3	4364.95
896.1611	1576.8928	5336.5	4459.45
896.3036	1578.6672	5494.95	4619.1
896.4461	1580.4409	5692.5	4816.1
896.5886	1582.2138	5916.05	5039.35
896.7311	1583.986	6201.05	5322.75
896.8736	1585.7575	6532.95	5656.85
897.0161	1587.5282	6756.25	5880.85
897.1585	1589.2981	6955.95	6078.7
897.3009	1591.0673	7079.05	6202.85
897.4433	1592.8358	7153.9	6277.5
897.5857	1594.6035	7172.6	6293.1
897.7281	1596.3704	7048.05	6170.9
897.8705	1598.1366	6970.5	6093.75
898.0128	1599.9021	6782.8	5905.4
898.1551	1601.6668	6571.8	5691.05
898.2975	1603.4308	6435.7	5556.75
898.4398	1605.194	6407.15	5524.4
898.5821	1606.9564	6514.8	5640.6
898.7243	1608.7182	6854.9	5973.3
898.8666	1610.4791	7362.8	6486.85
899.0088	1612.2394	8071.9	7196.65
899.1511	1613.9988	8843.6	7967.15
899.2933	1615.7576	9526.95	8650.25
899.4355	1617.5156	9923.5	9040.95
899.5776	1619.2728	9884.8	9007.75
899.7198	1621.0293	9433.5	8556.7
899.862	1622.785	8691.3	7814.15
900.0041	1624.54	7836.85	6956.05
900.1462	1626.2942	7018.15	6140.05
900.2883	1628.0477	6248.3	5367.6
900.4304	1629.8005	5627.5	4745.6
900.5725	1631.5525	5142	4266.45
900.7145	1633.3037	4746.35	3868.75
900.8566	1635.0542	4441.4	3563.3
900.9986	1636.804	4201.05	3323.95
901.1406	1638.553	4060.05	3120.45
901.2826	1640.3013	3882.8	3007.65
901.4245	1642.0488	3750.7	2870.2
901.5665	1643.7955	3642.45	2766.6
901.7085	1645.5416	3552.75	2675.35
901.8504	1647.2868	3490.85	2614.7
901.9923	1649.0313	3436.55	2561.95
902.1342	1650.7751	3399.65	2519.7
902.2761	1652.5181	3374.5	2496.9
902.4179	1654.2604	3368.6	2490.35
902.5598	1656.0019	3392.4	2514.45
902.7016	1657.7427	3458.2	2581.3
902.8434	1659.4828	3575.05	2696.6
902.9852	1661.222	3761	2882.55
903.127	1662.9606	3994.4	3118.25
903.2687	1664.6984	4257.9	3380.65
903.4105	1666.4354	4427.95	3548.6
903.5522	1668.1717	4397	3520.1
903.6939	1669.9072	4202.2	3323.45
903.8356	1671.642	3881.6	3004.15
903.9773	1673.3761	3582.35	2704.2
904.119	1675.1094	3325.05	2446
904.2606	1676.8419	3147.85	2269.9
904.4022	1678.5737	3025.05	2146.55
904.5439	1680.3048	2944.05	2067.25
904.6855	1682.0351	2888.5	2009.65
904.827	1683.7646	2843.75	1965.8
904.9686	1685.4934	2791.8	1916.1
905.1101	1687.2215	2784.7	1907.35
905.2517	1688.9488	2764.15	1887.05
905.3932	1690.6754	2730.05	1852.3
905.5347	1692.4012	2713.85	1835.3
905.6761	1694.1263	2693.7	1818.35
905.8176	1695.8506	2700.05	1819.35
905.9591	1697.5742	2677	1799.9
906.1005	1699.297	2650.6	1772.95
906.2419	1701.0191	2630.15	1754.4
906.3833	1702.7404	2618.65	1743.45
906.5246	1704.461	2603.1	1721.4
906.666	1706.1808	2599.25	1720.1
906.8073	1707.8999	2586.95	1708
906.9487	1709.6182	2577.4	1698.9
907.09	1711.3358	2567.05	1691.35
907.2313	1713.0527	2556.85	1677.7
907.3725	1714.7688	2541.9	1660.45
907.5138	1716.4841	2530.7	1651.65
907.655	1718.1987	2524.3	1640.35
907.7962	1719.9126	2516.9	1640.25
907.9374	1721.6257	2511.6	1632.9
908.0786	1723.338	2504.05	1623.7
908.2198	1725.0496	2485.75	1607.05
908.3609	1726.7605	2476.35	1597.25
908.502	1728.4706	2478.2	1599.35
908.6431	1730.18	2470.5	1591.6
908.7842	1731.8886	2458.9	1582.3
908.9253	1733.5964	2469.9	1572.5
909.0664	1735.3036	2451	1570.75
909.2074	1737.0099	2445.65	1567.95
909.3484	1738.7156	2430.4	1553.4
909.4894	1740.4204	2434.6	1553.45
909.6304	1742.1246	2422.95	1545.65
909.7714	1743.8279	2417.5	1538.55
909.9123	1745.5306	2419.55	1541.4
910.0532	1747.2325	2412.4	1534.45
910.1941	1748.9336	2393.25	1515.65
910.335	1750.634	2391.5	1511.65
910.4759	1752.3336	2384.35	1507.15
910.6168	1754.0325	2379.55	1502.7
910.7576	1755.7307	2391.35	1514.75
910.8984	1757.4281	2372.55	1494.9
911.0392	1759.1247	2387.7	1501.2
911.18	1760.8206	2381.55	1500.8
911.3208	1762.5158	2370.9	1488.95
911.4615	1764.2102	2367	1489.25
911.6022	1765.9039	2360.7	1483.6
911.7429	1767.5968	2350.55	1471.45
911.8836	1769.289	2344.1	1465.85
912.0243	1770.9804	2342.35	1466.05
912.1649	1772.6711	2334.95	1456.7
912.3056	1774.361	2339.65	1462.1
912.4462	1776.0502	2339.05	1461.5
912.5868	1777.7386	2330.4	1449.9
912.7274	1779.4263	2330.7	1455.25
912.8679	1781.1132	2330.65	1451.85
913.0084	1782.7994	2321.65	1440.1
913.149	1784.4849	2309.45	1429
913.2895	1786.1696	2328.25	1432.45
913.4299	1787.8535	2300.5	1423.1
913.5704	1789.5367	2296.05	1417.75
913.7108	1791.2192	2298.45	1420.15
913.8513	1792.9009	2299.15	1408.4
913.9917	1794.5818	2289.15	1411.85
914.132	1796.2621	2277.7	1400.55
914.2724	1797.9415	2270.4	1392.45
914.4128	1799.6202	2268.85	1388.7
914.5531	1801.2982	2259.55	1383.65
914.6934	1802.9755	2276.45	1397.9
914.8337	1804.6519	2262.2	1384.15
914.9739	1806.3277	2256.4	1378.75
915.1142	1808.0027	2251.7	1374.3
915.2544	1809.6769	2248.1	1369.85
915.3946	1811.3504	2243.8	1364.25
915.5348	1813.0231	2244.9	1366.35
915.675	1814.6951	2230.2	1352.05
915.8151	1816.3664	2246.05	1365.15
915.9553	1818.0369	2234.55	1358.5
916.0954	1819.7067	2220.7	1344.95
916.2355	1821.3757	2218.3	1339.5
916.3755	1823.044	2221.95	1342.8
916.5156	1824.7115	2224.35	1345
916.6556	1826.3783	2207.2	1329.8
916.7956	1828.0443	2208.9	1333.5
916.9356	1829.7096	2203.95	1325.6
917.0756	1831.3741	2207.15	1327.55
917.2155	1833.0379	2206.15	1328.7
917.3555	1834.701	2204.8	1326.15
917.4954	1836.3633	2201.35	1322.65
917.6353	1838.0248	2197	1316.85
917.7751	1839.6856	2192.25	1314.8
917.915	1841.3457	2183.5	1305.95
918.0548	1843.005	2191.85	1312.5
918.1946	1844.6636	2189.25	1313.25
918.3344	1846.3214	2177.3	1300.5
918.4742	1847.9785	2182.75	1307.3
918.6139	1849.6349	2181.25	1301.35
918.7537	1851.2904	2188.2	1301.2
918.8934	1852.9453	2168.9	1292.65
919.0331	1854.5994	2175.45	1294.25
919.1727	1856.2528	2176.25	1293.45
919.3124	1857.9054	2160.45	1280.85
919.452	1859.5572	2159.35	1280.7
919.5916	1861.2083	2161.85	1282.35
919.7312	1862.8587	2163.9	1287.05
919.8708	1864.5084	2144.6	1263.95
920.0103	1866.1572	2142	1263.25
920.1498	1867.8054	2143.95	1266.65
920.2893	1869.4528	2151.05	1273.85
920.4288	1871.0994	2142.65	1265.25
920.5683	1872.7453	2147.45	1269.25
920.7077	1874.3905	2145.85	1260.3
920.8471	1876.0349	2133.25	1253.6
920.9865	1877.6786	2132.9	1254.3
921.1259	1879.3215	2131	1253.75
921.2653	1880.9637	2114.55	1235.5
921.4046	1882.6051	2120.45	1243.95
921.5439	1884.2458	2125	1245.35
921.6832	1885.8858	2125.05	1248.95
921.8225	1887.525	2123.65	1244.35
921.9617	1889.1634	2106.75	1229.4
922.101	1890.8011	2115.1	1236
922.2402	1892.4381	2096.7	1217.7
922.3794	1894.0743	2093.8	1214.55
922.5185	1895.7098	2088.75	1209.25
922.6577	1897.3446	2091.75	1213.45
922.7968	1898.9786	2090.8	1207.5
922.9359	1900.6118	2084.65	1208.5
923.075	1902.2443	2068.85	1187.95
923.214	1903.8761	2077.45	1200.75
923.3531	1905.5071	2060.8	1183.45
923.4921	1907.1374	2065.15	1185.9
923.6311	1908.7669	2067.2	1189
923.77	1910.3957	2064.4	1185.4
923.909	1912.0237	2045.65	1167.25
924.0479	1913.651	2052.15	1172
924.1868	1915.2776	2048.35	1172.65
924.3257	1916.9034	2053.05	1175.7
924.4646	1918.5285	2037.15	1162.1
924.6034	1920.1528	2030.9	1151.2
924.7422	1921.7764	2028.4	1153.5
924.881	1923.3992	2025.65	1147.15
925.0198	1925.0213	2013.45	1135.4
925.1586	1926.6427	2011	1133.9
925.2973	1928.2633	2199.1	1110.4
925.436	1929.8832	2032.5	1153.1
925.5747	1931.5023	2003.1	1124.95
925.7134	1933.1207	2003.35	1125.8
925.852	1934.7383	1993.1	1116.8
925.9906	1936.3552	1990.15	1112.4
926.1292	1937.9714	2000.8	1121.9
926.2678	1939.5868	1994.2	1114.25
926.4064	1941.2015	1984.15	1105.6
926.5449	1942.8154	1974.3	1096.45
926.6834	1944.4286	1973.1	1094.3
926.8219	1946.041	1988.6	1085.5
926.9604	1947.6528	1969.65	1086.6
927.0988	1949.2637	1970.85	1091.25
927.2372	1950.8739	1957.2	1079.5
927.3756	1952.4834	1953.1	1074
927.514	1954.0921	1959.3	1080.55
927.6523	1955.7001	1953.1	1072.75
927.7907	1957.3074	1945.1	1066.8
927.929	1958.9139	1937.15	1060.1
928.0673	1960.5197	1933.2	1050.5
928.2055	1962.1247	1929.2	1053.35
928.3438	1963.729	1922.95	1046.3
928.482	1965.3325	1943.55	1043.8
928.6202	1966.9353	1920.15	1045.2
928.7584	1968.5374	1929.25	1047.9
928.8965	1970.1387	1914.25	1038.3
929.0346	1971.7393	1916.8	1037.5
929.1727	1973.3392	1907	1029.9
929.3108	1974.9383	1913.25	1035.25
929.4489	1976.5366	1906.65	1028.25
929.5869	1978.1342	1906.9	1030.35
929.7249	1979.7311	1897.85	1018.65
929.8629	1981.3273	1901.2	1021.9
930.0009	1982.9227	1896.9	1017.7
930.1388	1984.5173	1888.45	1009.2
930.2767	1986.1112	1888.8	1012
930.4146	1987.7044	1883.3	1006.4
930.5525	1989.2968	1878.05	999.3
930.6904	1990.8885	1873.4	991.6
930.8282	1992.4795	1884.15	1006.5
930.966	1994.0697	1871.65	993.1
931.1038	1995.6592	1862.55	983.5
931.2415	1997.2479	1859.75	980.15
931.3793	1998.8359	1867.15	990.3
931.517	2000.4232	1850.4	973.05
931.6547	2002.0097	1853.95	978.7
931.7923	2003.5955	1856.35	979.15
931.93	2005.1805	1854.3	975.25
932.0676	2006.7648	1844.65	968.85
932.2052	2008.3484	1855	976.65
932.3427	2009.9312	1850.05	973.4
932.4803	2011.5133	1839.2	963.3
932.6178	2013.0946	1845.05	966.25
932.7553	2014.6752	1835.3	960.3
932.8928	2016.2551	1832.6	952.7
933.0302	2017.8342	1828.95	952.55
933.1676	2019.4126	1832.9	956.45
933.305	2020.9902	1823.8	945.7
933.4424	2022.5672	1830	951.7
933.5798	2024.1433	1834.75	950.6
933.7171	2025.7188	1812.3	936.1
933.8544	2027.2935	1826.6	950
933.9917	2028.8674	1812.5	934.65
934.129	2030.4406	1814	936.7
934.2662	2032.0131	1801	926
934.4034	2033.5849	1811.45	927.9
934.5406	2035.1559	1803.8	928
934.6778	2036.7261	1801.25	923.55
934.8149	2038.2957	1792.7	914.7
934.952	2039.8645	1795.3	917.5
935.0891	2041.4325	1794.6	914.2
935.2262	2042.9998	1786.85	911.75
935.3632	2044.5664	1788	909.4
935.5002	2046.1323	1788.05	912.25
935.6372	2047.6974	1777.6	902.85
935.7742	2049.2617	1781.75	903.75
935.9111	2050.8254	1819.2	908.35
936.048	2052.3883	1784.55	904.5
936.1849	2053.9504	1775.05	896.85
936.3218	2055.5118	1779.05	902.35
936.4586	2057.0725	1777.8	896.75
936.5955	2058.6325	1765.2	887.1
936.7323	2060.1917	1766.65	891.85
936.869	2061.7502	1768.8	891.1
937.0058	2063.3079	1761.5	885.9
937.1425	2064.8649	1763.25	882.3
937.2792	2066.4212	1754.3	877.15
937.4159	2067.9767	1757.75	880.65
937.5525	2069.5315	1746.5	868.65
937.6891	2071.0856	1742.1	864.05
937.8257	2072.6389	1744.85	864.45
937.9623	2074.1915	1739.75	865.45
938.0989	2075.7433	1741.7	862.4
938.2354	2077.2945	1737	862.3
938.3719	2078.8448	1732.4	854.6
938.5084	2080.3945	1728.55	852.25
938.6448	2081.9434	1731	855.15
938.7812	2083.4916	1734.1	855.55
938.9176	2085.039	1730.45	850.55
939.054	2086.5857	1731.5	852.7
939.1903	2088.1317	1722.5	844.25
939.3267	2089.677	1721.9	842.35
939.463	2091.2215	1720.15	843.9
939.5992	2092.7652	1724.55	843.9
939.7355	2094.3083	1715.95	838.3
939.8717	2095.8506	1724.45	847.1
940.0079	2097.3921	1709.1	832.4
940.1441	2098.933	1711.1	834.15
940.2802	2100.4731	1709.65	832.2
940.4163	2102.0124	1714.7	830.2
940.5524	2103.5511	1706.35	829.85
940.6885	2105.089	1695.05	817.75
940.8245	2106.6261	1703.2	825.8
940.9606	2108.1626	1699.1	820.25
941.0965	2109.6983	1730	823.05
941.2325	2111.2332	1703.85	824.95
941.3684	2112.7675	1697.2	818.7
941.5044	2114.301	1704.2	825.55
941.6403	2115.8337	1697	819.4
941.7761	2117.3657	1687.7	810.3
941.912	2118.897	1691	812.2
942.0478	2120.4276	1694.7	811.05
942.1835	2121.9575	1671.15	794.8
942.3193	2123.4866	1696.35	804.15
942.455	2125.0149	1685.2	806.35
942.5907	2126.5426	1670	791.9
942.7264	2128.0695	1681.9	797.3
942.8621	2129.5956	1666.3	792.15
942.9977	2131.1211	1672.15	792.25
943.1333	2132.6458	1667.9	792.25
943.2689	2134.1698	1668.8	793
943.4044	2135.693	1674.8	794.05
943.54	2137.2155	1670.15	791.2
943.6755	2138.7373	1665.55	787
943.8109	2140.2584	1658.55	782.7
943.9464	2141.7787	1657.15	775.6
944.0818	2143.2983	1659.3	782.55
944.2172	2144.8171	1647.95	773.3
944.3526	2146.3353	1648.65	768.8
944.4879	2147.8527	1648.55	771
944.6232	2149.3693	1649.9	773.6
944.7585	2150.8853	1651.15	773.35
944.8938	2152.4005	1646.2	770.15
945.029	2153.9149	1640.2	761.8
945.1642	2155.4287	1640.65	762.85
945.2994	2156.9417	1636.7	760.35
945.4346	2158.454	1644.7	763.6
945.5697	2159.9655	1620.35	745.05
945.7048	2161.4764	1631.65	753.65
945.8399	2162.9865	1633.7	756.4
945.9749	2164.4958	1635.2	755.8
946.1099	2166.0045	1629.85	751.3
946.2449	2167.5124	1624	747.45
946.3799	2169.0195	1622.7	745.8
946.5148	2170.526	1626.2	746.7
946.6498	2172.0317	1626.25	748.95
946.7846	2173.5367	1625.2	745.55
946.9195	2175.0409	1616	741.4
947.0543	2176.5445	1613.55	737.4
947.1891	2178.0473	1614.9	737.4
947.3239	2179.5494	1618.5	740.35
947.4587	2181.0507	1614.45	737.7
947.5934	2182.5513	1606.45	730.25
947.7281	2184.0512	1608.3	730.05
947.8628	2185.5504	1597.8	722.15
947.9974	2187.0488	1601.1	725.2
948.132	2188.5465	1599.35	722.55
948.2666	2190.0435	1599.75	721.4
948.4012	2191.5397	1596.55	718.9
948.5357	2193.0353	1594	716.85
948.6702	2194.5301	1597.85	722.55
948.8047	2196.0241	1598.35	722.15
948.9392	2197.5175	1593.65	717.35
949.0736	2199.0101	1601.45	719.8
949.208	2200.502	1584.5	705.85
949.3424	2201.9931	1589.6	712.6
949.4767	2203.4835	1583.15	703.2
949.611	2204.9733	1598.25	703.85
949.7453	2206.4622	1578.35	701.75
949.8796	2207.9505	1578.8	698.25
950.0138	2209.438	1573.45	699.65
950.148	2210.9248	1571.75	693.4
950.2822	2212.4109	1562.6	685.05
950.4164	2213.8962	1572.45	692.2
950.5505	2215.3809	1568.5	690.2
950.6846	2216.8648	1563.4	685.55
950.8186	2218.3479	1566.75	684.75
950.9527	2219.8304	1561.5	682.2
951.0867	2221.3121	1553.85	674
951.2207	2222.7931	1550.05	672.65
951.3546	2224.2733	1552.4	674.4
951.4886	2225.7529	1547	670.35
951.6225	2227.2317	1550.8	671
951.7563	2228.7098	1553.8	678.3
951.8902	2230.1872	1539.65	662.55
952.024	2231.6638	1541.45	664.75
952.1578	2233.1397	1551.95	669.55
952.2916	2234.6149	1538.75	663.15
952.4253	2236.0894	1538	659.4
952.559	2237.5632	1544.85	656.75
952.6927	2239.0362	1529.55	655.15
952.8263	2240.5085	1541.5	664.85
952.9599	2241.9801	1528.35	651.2
953.0935	2243.4509	1526.5	650.1
953.2271	2244.921	1522.1	646.5
953.3606	2246.3904	1526.85	647.6
953.4941	2247.8591	1518.85	642.05
953.6276	2249.3271	1518.75	642.2
953.7611	2250.7943	1515	637.05
953.8945	2252.2608	1511	635
954.0279	2253.7266	1513.55	636.6
954.1612	2255.1917	1510.05	632.45
954.2946	2256.656	1510.85	632.85
954.4279	2258.1197	1500.7	623.45
954.5612	2259.5826	1506.15	627.55
954.6944	2261.0447	1501.05	623.05
954.8276	2262.5062	1500.75	622.65
954.9608	2263.9669	1512.5	633.05
955.094	2265.4269	1499	622.65
955.2271	2266.8862	1493.95	615.6
955.3602	2268.3448	1492.75	614.25
955.4933	2269.8026	1498.95	619.95
955.6264	2271.2598	1490.8	613.5
955.7594	2272.7162	1490.35	613.6
955.8924	2274.1719	1493.8	614.95
956.0253	2275.6268	1486.15	610.9
956.1583	2277.0811	1490.25	612.7
956.2912	2278.5346	1494.45	618.65
956.4241	2279.9874	1487.65	610.9
956.5569	2281.4395	1489.25	612.95
956.6897	2282.8908	1485.9	602.7
956.8225	2284.3414	1488.35	610.95
956.9553	2285.7914	1483.3	606.85
957.088	2287.2406	1481.85	602.55
957.2207	2288.689	1477.3	600.8
957.3534	2290.1368	1484.15	606.9
957.486	2291.5838	1475.95	598.75
957.6186	2293.0302	1480.6	602.75
957.7512	2294.4758	1475.25	598.3
957.8838	2295.9206	1483.2	603.8
958.0163	2297.3648	1472.05	595.1
958.1488	2298.8082	1469.9	589.9
958.2813	2300.251	1474.8	598.15
958.4137	2301.693	1465.9	585
958.5461	2303.1343	1466.35	589.45
958.6785	2304.5748	1471.35	594.3
958.8108	2306.0147	1463.55	584.4
958.9432	2307.4538	1460.15	581.5
959.0754	2308.8922	1460.3	583.1
959.2077	2310.3299	1457.15	580.65
959.3399	2311.7669	1460.85	584.6
959.4721	2313.2031	1451.5	575.25
959.6043	2314.6387	1456.5	578.95
959.7365	2316.0735	1451.05	574
959.8686	2317.5076	1454.1	576.35
960.0006	2318.941	1449.5	571.85
960.1327	2320.3737	1450.3	572.7
960.2647	2321.8056	1451.95	573
960.3967	2323.2369	1444.4	566.6
960.5287	2324.6674	1446.6	568.7
960.6606	2326.0972	1442.15	562.25
960.7925	2327.5263	1443.35	565.9
960.9244	2328.9547	1445.45	568.9
961.0562	2330.3823	1439.1	562.85
961.1881	2331.8092	1445.9	563.75
961.3198	2333.2355	1431.4	554.75
961.4516	2334.661	1432.45	554.25
961.5833	2336.0858	1438.9	559
961.715	2337.5098	1431.7	554.2
961.8467	2338.9332	1436.45	558.55
961.9783	2340.3558	1427.7	547.9
962.1099	2341.7778	1429.3	552.3
962.2415	2343.199	1424.75	547.2
962.373	2344.6195	1429.7	553.85
962.5045	2346.0393	1422.4	547.1
962.636	2347.4583	1423.5	545.2
962.7675	2348.8767	1421.45	543.7
962.8989	2350.2943	1427.55	549.3
963.0303	2351.7113	1428.6	551.5
963.1617	2353.1275	1423.05	545.2
963.293	2354.543	1429.95	544.9
963.4243	2355.9578	1415.1	538.35
963.5556	2357.3718	1419.45	539.65
963.6868	2358.7852	1413.45	533.85
963.818	2360.1978	1410.4	531.2
963.9492	2361.6098	1412.85	536.45
964.0803	2363.021	1419.3	537.8
964.2114	2364.4315	1412.4	533.35
964.3425	2365.8413	1412.55	532.35
964.4736	2367.2504	1406.25	528.6
964.6046	2368.6587	1399.85	521.3
964.7356	2370.0664	1405.65	529.3
964.8666	2371.4733	1404.4	523.55
964.9975	2372.8795	1405.95	528.1
965.1284	2374.285	1403.9	525.5
965.2593	2375.6899	1406.1	528.75
965.3901	2377.0939	1397.4	520.75
965.5209	2378.4973	1399.6	522.4
965.6517	2379.9	1401.8	523.2
965.7825	2381.3019	1399.8	522.8
965.9132	2382.7032	1402.5	524.55
966.0439	2384.1037	1394.5	517.5
966.1745	2385.5035	1395	517.45
966.3051	2386.9027	1385.55	509.7
966.4357	2388.3011	1396.85	516.3
966.5663	2389.6987	1388.9	510.3
966.6968	2391.0957	1393.25	516.3
966.8273	2392.492	1379.05	502
966.9578	2393.8876	1382	502.4
967.0882	2395.2824	1380.4	503.6
967.2186	2396.6765	1374.5	497.5
967.349	2398.07	1365.6	489.85
967.4793	2399.4627	1373.2	495.15
967.6097	2400.8547	1375.4	496.1
967.7399	2402.246	1380.95	498.6
967.8702	2403.6366	1364.15	485.05
968.0004	2405.0265	1366.95	487.8
968.1306	2406.4156	1375.75	494.35
968.2607	2407.8041	1374.75	492.25
968.3909	2409.1918	1370.05	490.85
968.521	2410.5789	1366.5	487.9
968.651	2411.9652	1366.8	484.7
968.781	2413.3508	1354.15	475.75
968.911	2414.7358	1362.55	484.65
969.041	2416.12	1353.3	476.9
969.1709	2417.5035	1359.2	481.45
969.3008	2418.8863	1357.4	480.3
969.4307	2420.2684	1357.65	479.6
969.5606	2421.6497	1350	470.85
969.6904	2423.0304	1353.6	475.6
969.8201	2424.4104	1349.95	470.75
969.9499	2425.7896	1352.3	474.05
970.0796	2427.1682	1348.2	470.2
970.2093	2428.546	1349.7	468.85
970.3389	2429.9232	1346	466.4
970.4685	2431.2996	1346.4	469.7
970.5981	2432.6753	1345.1	466.9
970.7277	2434.0503	1348.1	471.35
970.8572	2435.4246	1342.55	464.2
970.9867	2436.7982	1344.15	462.75
971.1161	2438.1711	1342.05	466.55
971.2456	2439.5433	1336.45	457.05
971.375	2440.9148	1338.45	460.25
971.5043	2442.2856	1332.75	455.6
971.6336	2443.6557	1338.65	459.15
971.7629	2445.025	1330.85	453.3
971.8922	2446.3937	1335.4	456.35
972.0214	2447.7617	1336.75	460.4
972.1506	2449.1289	1328.7	451.3
972.2798	2450.4955	1337.35	456
972.4089	2451.8613	1331.5	454.95
972.538	2453.2265	1331.55	453.25
972.6671	2454.5909	1327.6	448
972.7961	2455.9546	1325.8	448.15
972.9251	2457.3177	1323.8	447.2
973.0541	2458.68	1324.6	446.2
973.1831	2460.0416	1319.05	439.95
973.312	2461.4025	1321.45	443.55
973.4408	2462.7627	1330	438.8
973.5697	2464.1222	1316.85	439.95
973.6985	2465.4811	1322.6	443
973.8273	2466.8392	1315.3	436.25
973.956	2468.1966	1322.65	444
974.0847	2469.5533	1320.1	440.9
974.2134	2470.9093	1316.65	436.95
974.3421	2472.2645	1318.85	439.25
974.4707	2473.6191	1313.25	435.75
974.5993	2474.973	1319.4	441.9
974.7278	2476.3262	1311.85	429.85
974.8563	2477.6787	1319.6	442.65
974.9848	2479.0305	1314.8	438.55
975.1132	2480.3816	1316.85	437.25
975.2417	2481.7319	1312.9	436
975.37	2483.0816	1317.35	436.7
975.4984	2484.4306	1312.05	432.05
975.6267	2485.7789	1308.85	432
975.755	2487.1264	1310.4	430.6
975.8833	2488.4733	1312.4	436.2
976.0115	2489.8195	1315.15	429.55
976.1397	2491.165	1308.35	427.65
976.2678	2492.5097	1311.3	430.05
976.3959	2493.8538	1304.85	426.1
976.524	2495.1972	1305.05	425.15
976.6521	2496.5398	1309.5	431.35
976.7801	2497.8818	1303.45	424.5
976.9081	2499.2231	1305.5	425.2
977.036	2500.5637	1305.75	427.2
977.164	2501.9035	1297.1	417.6
977.2918	2503.2427	1304.2	422.05
977.4197	2504.5812	1297.5	421.95
977.5475	2505.919	1298.1	418.4
977.6753	2507.256	1294.3	416.65
977.8031	2508.5924	1295.9	416.95
977.9308	2509.9281	1306.85	423.85
978.0585	2511.2631	1290.4	411.15
978.1861	2512.5974	1292.35	417.1
978.3137	2513.9309	1294.55	415
978.4413	2515.2638	1319	414.4
978.5689	2516.596	1292.7	416.6
978.6964	2517.9275	1288.9	411
978.8239	2519.2583	1287.55	411.05
978.9513	2520.5884	1291.1	410.5
979.0788	2521.9178	1281.85	405.35
979.2062	2523.2465	1283.35	404.2
979.3335	2524.5745	1277.2	400.1
979.4608	2525.9018	1283.7	404.05
979.5881	2527.2284	1279.1	401.75
979.7154	2528.5543	1273.7	395.25
979.8426	2529.8796	1276.8	400.4
979.9698	2531.2041	1278.8	399.9
980.0969	2532.5279	1271.05	395.85
980.224	2533.851	1278.75	401.5
980.3511	2535.1735	1276.35	399.45
980.4781	2536.4952	1275.15	397.35
980.6052	2537.8163	1276.85	398
980.7321	2539.1366	1269.1	393.1
980.8591	2540.4562	1264.25	387.3
980.986	2541.7752	1270.7	393.3
981.1129	2543.0935	1270.85	392.2
981.2397	2544.411	1271.35	392.25
981.3665	2545.7279	1272.15	396
981.4933	2547.0441	1268.45	391.85
981.62	2548.3596	1271.05	391.25
981.7467	2549.6744	1271.2	394.55
981.8734	2550.9885	1274.2	389.45
982.0001	2552.3019	1263.3	386.25
982.1267	2553.6146	1266.6	390
982.2532	2554.9266	1263.85	386.45
982.3798	2556.2379	1265.45	385.1
982.5063	2557.5485	1258.35	381.95
982.6327	2558.8585	1269.05	384.8
982.7592	2560.1677	1265.8	385.15
982.8856	2561.4762	1260.1	382.15
983.0119	2562.7841	1265.5	385.2
983.1383	2564.0913	1261.1	385.15
983.2646	2565.3977	1261.9	383.9
983.3908	2566.7035	1257.2	379
983.517	2568.0086	1259.1	380.85
983.6432	2569.313	1260.05	382.5
983.7694	2570.6167	1260.8	381.8
983.8955	2571.9197	1249.35	370.8
984.0216	2573.222	1264.05	383.1
984.1476	2574.5236	1253.45	373.5
984.2737	2575.8246	1262.2	382.25
984.3996	2577.1248	1257.75	378.1
984.5256	2578.4244	1256.8	380.4
984.6515	2579.7232	1248.9	369.9
984.7774	2581.0214	1282.7	378.7
984.9032	2582.3189	1248.45	372.25
985.029	2583.6157	1256.2	375.9
985.1548	2584.9118	1258.35	379.75
985.2806	2586.2072	1258.25	380.6
985.4063	2587.5019	1247.55	369.75
985.5319	2588.7959	1257.25	379.75
985.6576	2590.0893	1251.8	371.55
985.7832	2591.3819	1258.15	381.6
985.9087	2592.6739	1255.55	378.6
986.0343	2593.9652	1255.85	377.25
986.1597	2595.2557	1255.85	379.1
986.2852	2596.5456	1256.55	377.9
986.4106	2597.8348	1264.1	386.65
986.536	2599.1234	1262.8	384.9
986.6614	2600.4112	1265.8	388.55
986.7867	2601.6983	1272.15	391.95
986.912	2602.9848	1265.65	388.3
987.0372	2604.2705	1274.95	390.25
987.1624	2605.5556	1269.5	394
987.2876	2606.84	1259.5	383.15
987.4128	2608.1237	1263.7	383
987.5379	2609.4067	1256.6	379.55
987.6629	2610.689	1266.65	379.85
987.788	2611.9707	1257	376.1
987.913	2613.2516	1250	368.15
988.0379	2614.5319	1247.05	369.45
988.1629	2615.8115	1245.6	366.55
988.2878	2617.0903	1252.3	373.25
988.4126	2618.3685	1247.5	369.3
988.5375	2619.6461	1241.95	363.35
988.6622	2620.9229	1243.5	366.45
988.787	2622.199	1244.4	365
988.9117	2623.4745	1239.85	361.85
989.0364	2624.7493	1239	362.1
989.161	2626.0234	1239.9	364.25
989.2857	2627.2968	1239.45	364.25
989.4102	2628.5695	1235.6	356.2
989.5348	2629.8415	1232.75	354.05
989.6593	2631.1128	1236.85	357.1
989.7837	2632.3835	1233.9	357.6
989.9082	2633.6535	1233.45	356.9
990.0326	2634.9228	1240.65	363.15
990.1569	2636.1914	1231.25	353.75
990.2812	2637.4593	1239.95	361.45
990.4055	2638.7265	1238.6	359
990.5298	2639.9931	1227.85	350
990.654	2641.259	1231.55	353.75
990.7782	2642.5242	1233.05	354.1
990.9023	2643.7887	1234.55	358.95
991.0264	2645.0525	1224.6	346.05
991.1505	2646.3156	1225.95	347.1
991.2745	2647.5781	1224.5	346.65
991.3985	2648.8398	1220.9	343.9
991.5225	2650.1009	1258.7	341.6
991.6464	2651.3613	1221.9	344.65
991.7703	2652.6211	1214.1	335.85
991.8942	2653.8801	1212.7	337.4
992.018	2655.1385	1221.05	340.2
992.1418	2656.3961	1207.6	330.7
992.2655	2657.6531	1208.25	328.15
992.3892	2658.9094	1211.4	332.9
992.5129	2660.1651	1209.2	330.5
992.6366	2661.42	1218.05	340.25
992.7602	2662.6743	1214.8	335.2
992.8837	2663.9279	1209.7	332.35
993.0073	2665.1808	1214.25	336.55
993.1307	2666.433	1218.5	338.7
993.2542	2667.6846	1214.75	337.15
993.3776	2668.9354	1226.1	344.95
993.501	2670.1856	1224.65	345.75
993.6244	2671.4351	1223	346.95
993.7477	2672.6839	1226.6	347.05
993.8709	2673.9321	1229.1	351.6
993.9942	2675.1795	1235.75	358.4
994.1174	2676.4263	1230.35	353.5
994.2405	2677.6724	1230.5	355.35
994.3637	2678.9179	1232.1	354.55
994.4868	2680.1626	1232.75	355.65
994.6098	2681.4067	1233.9	354.8
994.7328	2682.6501	1225.75	347.4
994.8558	2683.8928	1221.45	343.9
994.9788	2685.1348	1218.65	339.8
995.1017	2686.3761	1216.65	338.95
995.2245	2687.6168	1217.45	340.55
995.3474	2688.8568	1209.5	332.9
995.4702	2690.0961	1206.05	330.85
995.5929	2691.3348	1204.45	326.6
995.7156	2692.5727	1211	334
995.8383	2693.81	1200.35	323.7
995.961	2695.0466	1198.45	321.6
996.0836	2696.2826	1193.95	312.15
996.2062	2697.5178	1217.55	320.95
996.3287	2698.7524	1199.25	321.1
996.4512	2699.9863	1203.55	324.25
996.5737	2701.2195	1206.45	330.45
996.6961	2702.452	1209.7	329.25
996.8185	2703.6839	1210.8	334.8
996.9408	2704.9151	1211	336.65
997.0631	2706.1456	1213.5	337.25
997.1854	2707.3755	1218.5	340.7
997.3077	2708.6046	1224.6	343.7
997.4299	2709.8331	1219.3	340.95
997.552	2711.0609	1227	347.95
997.6742	2712.2881	1225.05	345.55
997.7963	2713.5145	1235.45	355.2
997.9183	2714.7403	1229.1	352.75
998.0403	2715.9654	1242.95	364.1
998.1623	2717.1899	1258.1	364.85
998.2842	2718.4136	1251.05	376.05
998.4062	2719.6367	1262.35	385.15
998.528	2720.8591	1277.85	393.85
998.6498	2722.0809	1273.45	395.9
998.7716	2723.3019	1289.45	408.65
998.8934	2724.5223	1277.55	397.85
999.0151	2725.7421	1283.35	403.8
999.1368	2726.9611	1272.6	391.7
999.2584	2728.1795	1271.1	387.6
999.38	2729.3972	1256.15	378.1
999.5016	2730.6142	1263.45	377.3
999.6231	2731.8306	1249.85	370.85
999.7446	2733.0462	1235.05	355.8
999.8661	2734.2612	1232.15	349.55
999.9875	2735.4756	1224	344.55
1000.1089	2736.6892	1215.45	336.95
1000.2302	2737.9022	1210.35	335.65
1000.3515	2739.1145	1210.15	330.85
1000.4728	2740.3262	1210.05	324.6
1000.594	2741.5372	1198.5	322.5
1000.7152	2742.7475	1194.25	316.9
1000.8363	2743.9571	1198.75	319.8
1000.9575	2745.1661	1193.45	309.95
1001.0785	2746.3744	1181.85	305.35
1001.1996	2747.582	1175.35	297.15
1001.3206	2748.7889	1176.9	298.25
1001.4415	2749.9952	1167.55	289.55
1001.5625	2751.2008	1166.3	286.15
1001.6833	2752.4057	1165.75	285.45
1001.8042	2753.61	1166.4	288.8
1001.925	2754.8136	1157.9	277.8
1002.0458	2756.0165	1165.45	289.9
1002.1665	2757.2188	1160.4	284.55
1002.2872	2758.4204	1157.55	279.9
1002.4078	2759.6213	1163.05	282.35
1002.5285	2760.8215	1168.45	288.1
1002.649	2762.0211	1159.1	279.2
1002.7696	2763.22	1161.7	280.45
1002.8901	2764.4182	1163.65	284.95
1003.0106	2765.6158	1161.3	282.3
1003.131	2766.8127	1151.3	272.55
1003.2514	2768.009	1148.6	272.3
1003.3717	2769.2045	1149.5	271.45
1003.492	2770.3994	1150.1	269.2
1003.6123	2771.5936	1148.6	269.6
1003.7325	2772.7872	1137	258.1
1003.8527	2773.9801	1143.2	264.25
1003.9729	2775.1723	1157.6	262.4
1004.093	2776.3639	1143.8	267.9
1004.2131	2777.5548	1141.2	262.75
1004.3331	2778.745	1142.3	262.25
1004.4531	2779.9346	1134.85	258.2
1004.5731	2781.1235	1147.15	267.3
1004.693	2782.3117	1137.4	260.8
1004.8129	2783.4992	1140	261.85
1004.9328	2784.6861	1146.65	269.5
1005.0526	2785.8723	1140.2	261.5
1005.1723	2787.0579	1141	263.55
1005.2921	2788.2428	1138.05	260.15
1005.4118	2789.427	1143.4	266.75
1005.5314	2790.6106	1135.95	258.55
1005.651	2791.7935	1142.7	263.85
1005.7706	2792.9757	1144.3	267.5
1005.8902	2794.1573	1148.8	270
1006.0097	2795.3382	1146.75	269.5
1006.1291	2796.5184	1149.05	273.15
1006.2485	2797.698	1153.1	274.45
1006.3679	2798.8769	1152.95	277.45
1006.4873	2800.0551	1148.65	269.9
1006.6066	2801.2327	1159.05	279.3
1006.7258	2802.4096	1163.05	285.15
1006.8451	2803.5859	1161.75	283.5
1006.9642	2804.7615	1164.5	285.85
1007.0834	2805.9364	1171.3	295.05
1007.2025	2807.1106	1172	296.6
1007.3216	2808.2842	1184.3	306.3
1007.4406	2809.4572	1189.95	311.3
1007.5596	2810.6294	1195.4	315.45
1007.6785	2811.801	1206.65	331.2
1007.7975	2812.972	1213.15	337.95
1007.9163	2814.1423	1227.3	350.55
1008.0352	2815.3119	1243.35	366.5
1008.154	2816.4808	1256.5	378.6
1008.2727	2817.6491	1277.25	397.45
1008.3914	2818.8167	1303.65	428.15
1008.5101	2819.9837	1343.7	460.95
1008.6288	2821.15	1368.3	490.45
1008.7474	2822.3157	1413.9	538.05
1008.8659	2823.4807	1458.6	579.55
1008.9844	2824.645	1507.15	628
1009.1029	2825.8086	1568.3	690.05
1009.2214	2826.9716	1609.75	732.5
1009.3398	2828.134	1680.7	806.05
1009.4581	2829.2957	1721.4	845.05
1009.5764	2830.4567	1762.55	886.35
1009.6947	2831.617	1788.05	910.55
1009.813	2832.7767	1801.9	925.25
1009.9312	2833.9358	1806.2	930.75
1010.0493	2835.0941	1805.1	925.2
1010.1675	2836.2519	1780.3	903.85
1010.2855	2837.4089	1746.9	869.2
1010.4036	2838.5653	1726.55	849.35
1010.5216	2839.7211	1705.65	831.55
1010.6396	2840.8761	1697.35	819
1010.7575	2842.0306	1690.35	815.5
1010.8754	2843.1843	1694.8	818.2
1010.9932	2844.3374	1710.2	832.9
1011.111	2845.4899	1717.4	839.55
1011.2288	2846.6417	1734	857
1011.3465	2847.7928	1735.45	856.9
1011.4642	2848.9433	1747.35	871.2
1011.5818	2850.0931	1753.75	876.95
1011.6995	2851.2422	1757.95	880.1
1011.817	2852.3907	1761.5	883.7
1011.9345	2853.5385	1763.45	884.25
1012.052	2854.6857	1800.6	896.5
1012.1695	2855.8323	1784.85	906.1
1012.2869	2856.9781	1810.45	932.95
1012.4042	2858.1233	1833.45	954.7
1012.5216	2859.2679	1848.55	973.05
1012.6389	2860.4118	1870.45	992.95
1012.7561	2861.555	1906.95	1025.05
1012.8733	2862.6976	1918.85	1040.7
1012.9905	2863.8395	1941.55	1065.15
1013.1076	2864.9808	1957.2	1079.1
1013.2247	2866.1214	1957.3	1080.5
1013.3417	2867.2614	1979.4	1102.3
1013.4587	2868.4007	1990.35	1112.95
1013.5757	2869.5393	2008.75	1127.05
1013.6926	2870.6773	2024.65	1143.45
1013.8095	2871.8146	2057.45	1176.95
1013.9263	2872.9513	2061.9	1182.95
1014.0431	2874.0874	2072.45	1196.05
1014.1599	2875.2227	2086.6	1210.85
1014.2766	2876.3574	2105.1	1228.55
1014.3933	2877.4915	2115.05	1239.6
1014.51	2878.6249	2136.7	1261.1
1014.6266	2879.7577	2156.6	1278
1014.7431	2880.8898	2173.4	1285.9
1014.8596	2882.0212	2176.5	1300.85
1014.9761	2883.152	2203.05	1325.55
1015.0925	2884.2821	2219.75	1342.95
1015.2089	2885.4116	2219.05	1341.7
1015.3253	2886.5405	2243.75	1365.9
1015.4416	2887.6686	2272.55	1392.5
1015.5579	2888.7962	2268.25	1394.95
1015.6741	2889.923	2254.2	1376.65
1015.7903	2891.0493	2256.75	1380.65
1015.9065	2892.1748	2248.9	1372.55
1016.0226	2893.2997	2253.85	1375.65
1016.1387	2894.424	2249	1373.35
1016.2547	2895.5476	2251	1373.5
1016.3707	2896.6706	2259.3	1383.75
1016.4866	2897.7929	2248.15	1370.85
1016.6025	2898.9145	2258.5	1382.9
1016.7184	2900.0355	2244.75	1365.65
1016.8342	2901.1559	2245.85	1367.75
1016.95	2902.2756	2242.45	1360.55
1017.0658	2903.3946	2236.05	1359.45
1017.1815	2904.513	2226.25	1345.4
1017.2971	2905.6308	2214.8	1338.5
1017.4127	2906.7479	2217.65	1338.1
1017.5283	2907.8643	2216.2	1338.95
1017.6439	2908.9801	2202.9	1324
1017.7594	2910.0953	2208	1330.85
1017.8748	2911.2098	2210.05	1330.45
1017.9902	2912.3236	2211.7	1326.4
1018.1056	2913.4368	2206.3	1328.3
1018.2209	2914.5494	2197.85	1319.15
1018.3362	2915.6613	2186.5	1304.95
1018.4515	2916.7725	2168.5	1288.6
1018.5667	2917.8831	2147.75	1267.95
1018.6819	2918.9931	2139.45	1260.15
1018.797	2920.1024	2105.7	1229.1
1018.9121	2921.211	2087.65	1209.35
1019.0271	2922.319	2072.5	1195.5
1019.1421	2923.4264	2060.2	1183.25
1019.2571	2924.5331	2047.85	1172.7
1019.372	2925.6391	2044.8	1167.05
1019.4869	2926.7445	2048.05	1172.3
1019.6017	2927.8493	2055.95	1177.6
1019.7165	2928.9534	2058	1180.05
1019.8313	2930.0569	2057	1178.25
1019.946	2931.1597	2070.05	1190.45
1020.0606	2932.2619	2073.7	1195.55
1020.1753	2933.3634	2092.6	1216
1020.2899	2934.4643	2108.35	1222.85
1020.4044	2935.5645	2107.5	1223.1
1020.5189	2936.6641	2117.55	1237
1020.6334	2937.763	2121.9	1245.7
1020.7478	2938.8613	2134.95	1257.55
1020.8622	2939.959	2122.25	1239.6
1020.9765	2941.056	2073.85	1199.25
1021.0908	2942.1523	2045.5	1167.2
1021.2051	2943.248	2001.35	1123.55
1021.3193	2944.3431	1950.75	1074.8
1021.4334	2945.4375	1894.35	1015.75
1021.5476	2946.5313	1837.95	962.45
1021.6617	2947.6244	1779.35	901.65
1021.7757	2948.7169	1739	860.3
1021.8897	2949.8087	1693.2	816.1
1022.0037	2950.8999	1649.25	772
1022.1176	2951.9904	1611.3	733.95
1022.2315	2953.0803	1579.3	700.55
1022.3453	2954.1696	1546.2	670.1
1022.4591	2955.2582	1528.6	651.25
1022.5728	2956.3462	1506.7	630.85
1022.6865	2957.4335	1501.7	622.7
1022.8002	2958.5202	1491	610.9
1022.9138	2959.6062	1488.3	610.9
1023.0274	2960.6916	1497.95	619.9
1023.141	2961.7764	1497.25	619.4
1023.2545	2962.8605	1498.25	622.5
1023.3679	2963.9439	1492.9	616.4
1023.4813	2965.0267	1488.45	609.9
1023.5947	2966.1089	1503.8	605.65
1023.708	2967.1905	1474.25	598.6
1023.8213	2968.2714	1475.6	599.4
1023.9346	2969.3516	1461.3	584.05
1024.0478	2970.4312	1472.55	588.35
1024.1609	2971.5102	1461.15	584.1
1024.274	2972.5885	1460.2	583.8
1024.3871	2973.6662	1462.05	579.2
1024.5002	2974.7432	1455.8	579.4
1024.6132	2975.8196	1458.6	580.65
1024.7261	2976.8954	1466.35	590.7
1024.839	2977.9705	1465.25	590.75
1024.9519	2979.045	1462.5	584.95
1025.0647	2980.1188	1454.65	578.2
1025.1775	2981.192	1438.75	562.8
1025.2902	2982.2645	1436.95	560.2
1025.4029	2983.3364	1432.1	552.7
1025.5156	2984.4077	1407.55	531.4
1025.6282	2985.4783	1404.65	520.8
1025.7407	2986.5483	1382.1	506.55
1025.8532	2987.6177	1361.6	486.4
1025.9657	2988.6864	1350.65	474.05
1026.0782	2989.7545	1341.6	463.15
1026.1906	2990.8219	1313.45	436.05
1026.3029	2991.8887	1307.95	429.45
1026.4152	2992.9548	1290.55	410.8
1026.5275	2994.0204	1272.1	396.1
1026.6397	2995.0852	1244.65	369.25
1026.7519	2996.1495	1233.4	353.9
1026.864	2997.2131	1213.75	337.55
1026.9761	2998.276	1197.5	319.25
1027.0882	2999.3383	1185.75	309
1027.2002	3000.4	1166.65	290.1
1027.3122	3001.4611	1153	275.25
1027.4241	3002.5215	1141.5	263.3
1027.536	3003.5812	1131.6	252.45
1027.6478	3004.6404	1119.5	242.95
1027.7596	3005.6989	1118	237.85
1027.8714	3006.7567	1103.65	226.5
1027.9831	3007.8139	1133.45	227.1
1028.0947	3008.8705	1100.35	224.55
1028.2064	3009.9264	1098.9	219.35
1028.3179	3010.9818	1085.2	209.95
1028.4295	3012.0364	1083.35	205.45
1028.541	3013.0905	1075.7	197.6
1028.6524	3014.1439	1073.45	196.65
1028.7638	3015.1966	1065.45	185.15
1028.8752	3016.2487	1065.95	189
1028.9865	3017.3002	1067.2	185.25
1029.0978	3018.3511	1063.85	189.35
1029.209	3019.4013	1061.55	184.4
1029.3202	3020.4509	1056.45	180.65
1029.4314	3021.4998	1061.15	183.95
1029.5425	3022.5481	1056.5	178.7
1029.6535	3023.5958	1055.7	179.35
1029.7645	3024.6428	1059.9	182.65
1029.8755	3025.6892	1058.8	184.25
1029.9864	3026.735	1051.55	175.15
1030.0973	3027.7802	1054.65	177.05
1030.2082	3028.8247	1048.1	172.6
1030.319	3029.8685	1051.9	174.8
1030.4297	3030.9118	1053.55	175.55
1030.5404	3031.9544	1049.4	171.45
1030.6511	3032.9963	1054.5	177.3
1030.7617	3034.0376	1048.75	172.15
1030.8723	3035.0783	1053.55	173.85
1030.9829	3036.1184	1050.25	170.7
1031.0934	3037.1578	1050.8	173.9
1031.2038	3038.1966	1056.9	177.4
1031.3142	3039.2348	1052.15	176.15
1031.4246	3040.2723	1063.4	178.15
1031.5349	3041.3092	1057.95	183.4
1031.6452	3042.3455	1057	181.1
1031.7554	3043.3811	1056.5	179.25
1031.8656	3044.4161	1054.7	178
1031.9758	3045.4505	1054.05	178.05
1032.0859	3046.4842	1057.35	179.55
1032.1959	3047.5173	1057.95	182.9
1032.3059	3048.5498	1055.15	178
1032.4159	3049.5816	1059.35	181.95
1032.5258	3050.6128	1062.05	186.1
1032.6357	3051.6434	1058.1	181.5
1032.7455	3052.6734	1061.7	183.7
1032.8553	3053.7027	1058.5	181.35
1032.9651	3054.7314	1056.1	178.15
1033.0748	3055.7594	1055.7	178.35
1033.1845	3056.7868	1062.55	185.4
1033.2941	3057.8136	1061.35	185.8
1033.4037	3058.8398	1060.05	185.25
1033.5132	3059.8653	1061.2	184.5
1033.6227	3060.8902	1067.45	191.5
1033.7321	3061.9145	1065.5	189.1
1033.8415	3062.9381	1069.1	193.7
1033.9509	3063.9612	1086.45	191.85
1034.0602	3064.9835	1073.75	197.25
1034.1694	3066.0053	1074.1	193.3
1034.2787	3067.0264	1071.4	196.15
1034.3878	3068.0469	1074.1	195.8
1034.497	3069.0668	1074.55	196.6
1034.6061	3070.086	1069.1	192.6
1034.7151	3071.1046	1065.6	188
1034.8241	3072.1226	1066.1	189.6
1034.9331	3073.1399	1064.65	187.4
1035.042	3074.1567	1056.5	179.15
1035.1508	3075.1727	1057.35	177.55
1035.2597	3076.1882	1050.9	175.1
1035.3684	3077.203	1047.75	169.85
1035.4772	3078.2173	1042.4	164.05
1035.5859	3079.2308	1041.6	161.3
1035.6945	3080.2438	1032.75	153.95
1035.8031	3081.2561	1036.35	158.35
1035.9117	3082.2678	1023.95	148.65
1036.0202	3083.2789	1024.55	146.8
1036.1286	3084.2893	1020.7	145.35
1036.2371	3085.2991	1020.2	143.85
1036.3454	3086.3083	1022.2	141.25
1036.4538	3087.3169	1012.6	136.05
1036.562	3088.3248	1009.05	130.1
1036.6703	3089.3321	1009.4	130
1036.7785	3090.3388	1003.9	128.65
1036.8866	3091.3449	1003.7	125.65
1036.9948	3092.3503	1006.75	127
1037.1028	3093.3551	1003.15	128.2
1037.2108	3094.3593	1000.8	125.85
1037.3188	3095.3629	1004.5	126.45
1037.4267	3096.3658	1000.2	123.05
1037.5346	3097.3681	996.6	119.15
1037.6425	3098.3698	994.15	117.25
1037.7503	3099.3708	995.1	116.1
1037.858	3100.3713	990.4	114.9
1037.9657	3101.3711	990.7	111.05
1038.0734	3102.3702	1125.75	110.95
1038.181	3103.3688	987.8	108.35
1038.2886	3104.3667	985.85	111.85
1038.3961	3105.364	986.3	110.3
1038.5036	3106.3607	982.4	103.1
1038.611	3107.3568	984.85	108.55
1038.7184	3108.3522	979.1	103.15
1038.8257	3109.347	978.45	102.3
1038.933	3110.3412	983.6	102.45
1039.0403	3111.3348	975.1	98.2
1039.1475	3112.3277	972.8	96.7
1039.2547	3113.32	971.85	95.6
1039.3618	3114.3117	972.9	96.85
1039.4689	3115.3028	974.75	98.7
1039.5759	3116.2932	969.9	90.1
1039.6829	3117.2831	975.05	92.5
1039.7898	3118.2723	965.6	89.7
1039.8967	3119.2608	965.25	86.7
1040.0035	3120.2488	969	91.85
1040.1103	3121.2361	963.8	86.7
1040.2171	3122.2229	965.65	88.7
1040.3238	3123.209	960.45	83.65
1040.4305	3124.1944	962.9	85.85
1040.5371	3125.1793	962.25	82.65
1040.6437	3126.1635	957.75	80.65
1040.7502	3127.1471	958.2	82.1
1040.8567	3128.1301	956.5	80.3
1040.9631	3129.1125	958.3	82.95
1041.0695	3130.0942	955.75	79.45
1041.1759	3131.0753	965.25	80.4
1041.2822	3132.0558	957.7	79.35
1041.3884	3133.0357	954	76.4
1041.4946	3134.015	954.1	74.8
1041.6008	3134.9936	953.15	73.7
1041.7069	3135.9716	966.15	68.25
1041.813	3136.949	949.05	72.5
1041.919	3137.9258	967.75	75.15
1042.025	3138.902	956.5	74.45
1042.1309	3139.8775	949.5	74.9
1042.2368	3140.8524	946.35	69.7
1042.3427	3141.8267	949.35	71.15
1042.4485	3142.8004	945.5	67.25
1042.5542	3143.7735	952.7	69.25
1042.6599	3144.7459	947.7	70.1
1042.7656	3145.7178	947.7	69.8
1042.8712	3146.689	939.8	65.05
1042.9768	3147.6596	943.65	64.45
1043.0823	3148.6295	942.5	66.45
1043.1878	3149.5989	942.05	65.65
1043.2932	3150.5676	939.4	64.25
1043.3986	3151.5357	940.4	65.35
1043.5039	3152.5032	940.15	63.2
1043.6092	3153.4701	939.25	62.65
1043.7145	3154.4364	943.7	64.65
1043.8197	3155.402	940.85	66
1043.9248	3156.367	939.15	59.6
1044.03	3157.3315	974.95	62.35
1044.135	3158.2952	937.65	61.25
1044.24	3159.2584	935.95	57.05
1044.345	3160.221	937.1	60.1
1044.4499	3161.1829	937.4	60.95
1044.5548	3162.1442	936.8	59.95
1044.6596	3163.105	936.25	60.2
1044.7644	3164.065	936.6	58.55
1044.8692	3165.0245	939.3	59.5
1044.9739	3165.9834	933.95	58.3
1045.0785	3166.9416	933.05	55.95
1045.1831	3167.8993	931.9	56.5
1045.2877	3168.8563	934.35	57.5
1045.3922	3169.8127	931.6	53.9
1045.4966	3170.7684	934.7	58.4
1045.6011	3171.7236	934.3	55.6
1045.7054	3172.6782	931.8	54
1045.8098	3173.6321	931.95	53.8
1045.914	3174.5854	934.6	53.65
1046.0183	3175.5381	929.55	52.05
1046.1224	3176.4902	930.9	53.5
1046.2266	3177.4417	927.95	50.7
1046.3307	3178.3926	930.45	52.5
1046.4347	3179.3428	928.2	52.5
1046.5387	3180.2924	931.25	55.7
1046.6427	3181.2415	926.85	49
1046.7466	3182.1899	928.6	51.25
1046.8504	3183.1377	928.1	52.05
1046.9542	3184.0848	930.55	50.25
1047.058	3185.0314	927.1	50.5
1047.1617	3185.9773	928.2	50.3
1047.2654	3186.9227	926.9	51.5
1047.369	3187.8674	926.6	50.8
1047.4726	3188.8115	928.7	49.1
1047.5761	3189.755	924.25	49.55
1047.6796	3190.6979	924.55	48.1
1047.783	3191.6402	922.35	47.45
1047.8864	3192.5818	923.3	47
1047.9898	3193.5229	949.35	46.6
1048.0931	3194.4633	924.75	47.25
1048.1963	3195.4031	923.7	46.15
1048.2995	3196.3423	918.2	40.8
1048.4027	3197.2809	921.3	44.45
1048.5058	3198.2189	920.85	42.75
1048.6089	3199.1563	927.4	41.25
1048.7119	3200.0931	918.95	42.4
1048.8148	3201.0292	917	41.35
1048.9178	3201.9648	918.95	42.75
1049.0206	3202.8997	922.7	44.5
1049.1235	3203.834	920.3	42.4
1049.2262	3204.7677	921	44.1
1049.329	3205.7008	921.4	44.2
1049.4317	3206.6333	920	43.15
1049.5343	3207.5652	923.8	45.1
1049.6369	3208.4964	920.1	44.95
1049.7394	3209.4271	917.75	42.85
1049.8419	3210.3571	919	42
1049.9444	3211.2865	919.45	40.25
1050.0468	3212.2154	919.65	41.65
1050.1491	3213.1436	918.85	38.15
1050.2514	3214.0712	924.75	41.5
1050.3537	3214.9982	915.8	40.15
1050.4559	3215.9246	919.9	42.85
1050.5581	3216.8503	915	39.2
1050.6602	3217.7755	917	40.55
1050.7623	3218.7001	915.5	39.85
1050.8643	3219.624	914.45	37.05
1050.9663	3220.5473	916.65	39.95
1051.0682	3221.4701	918.5	42.05
1051.1701	3222.3922	920.35	41.85
1051.2719	3223.3137	916.7	39.8
1051.3737	3224.2346	914.5	37.4
1051.4754	3225.1549	915.05	38.8
1051.5771	3226.0746	914.15	38.6
1051.6788	3226.9937	911.7	34.95
1051.7804	3227.9121	912.25	35.3
1051.8819	3228.83	910.45	32.75
1051.9834	3229.7473	913.55	37.3
1052.0849	3230.6639	913.75	35.7
1052.1863	3231.5799	912.8	34.45
1052.2876	3232.4954	913.9	36.55
1052.3889	3233.4102	912.45	37.2
1052.4902	3234.3244	912.25	35.65
1052.5914	3235.238	912.75	36.3
1052.6926	3236.151	924.25	32.35
1052.7937	3237.0634	910.55	36.15
1052.8948	3237.9752	913.1	35
1052.9958	3238.8864	910.35	33.5
1053.0968	3239.797	911.95	35.1
1053.1977	3240.7069	913.25	35.45
1053.2986	3241.6163	908.35	29.55
1053.3994	3242.5251	908.7	32.6
1053.5002	3243.4332	907.75	31.9
1053.6009	3244.3408	909.95	30.95
1053.7016	3245.2477	909.7	33.65
1053.8022	3246.154	910.35	31.05
1053.9028	3247.0598	908.4	31.2
1054.0034	3247.9649	909.3	33.55
1054.1039	3248.8694	905.1	29.15
1054.2043	3249.7733	909.2	33.25
1054.3047	3250.6766	910.3	32.4
1054.4051	3251.5793	909.15	33.8
1054.5054	3252.4814	905.65	29.25
1054.6056	3253.3829	905.2	29.1
1054.7058	3254.2838	907.7	31.65
1054.806	3255.1841	905.85	29.6
1054.9061	3256.0838	905.15	28.3
1055.0061	3256.9829	905.4	30.75
1055.1062	3257.8814	905.7	27.45
1055.2061	3258.7792	907.2	28.95
1055.306	3259.6765	903.6	24.9
1055.4059	3260.5731	905.3	30.1
1055.5057	3261.4692	904.15	25.35
1055.6055	3262.3647	903.05	24.75
1055.7052	3263.2595	902.05	23.55
1055.8049	3264.1538	900.05	24.4
1055.9045	3265.0474	902.65	25.7
1056.0041	3265.9404	899.65	23.5
1056.1036	3266.8329	902.8	28.7
1056.2031	3267.7247	908.85	19.35
1056.3025	3268.616	901	24.45
1056.4019	3269.5066	898.85	20.7
1056.5013	3270.3966	900.55	22.9
1056.6005	3271.286	897.65	23.75
