Software Version:	3.9.2.0
Unit SN:	10000200
Spectrometer SN:	6960
Date:	3/8/2024 11:17:24 AM
Data Line Index:	25
Spectral Points:	2048
Integration time (ms):	125
Averages:	20
Delay (ms):	30000
Sequence Number:	1
Processing:	dark subtract
Laser Power (mW):	305
Laser Current (mA):	822
Laser Diode Temp (C):	25.1
Laser Case Temp (C):	24.7
System Temp (C):	24.6
Spectrometer Temp (C):	22.6
CCD Temp (C):	0.005
Secondary Temp (C):	20.007
Heatsink Temp (C):	19.53
CCDPCB Temp (C):	32.728
SecondaryPCB Temp (C):	26.48

Wavelength	RamanShift	Raw Counts	Dark Subtracted
787.061	30.1047	419.05	6.9
787.2016	32.3739	416.3	8.7
787.3422	34.6426	419.6	10.35
787.4828	36.9109	423.65	12.75
787.6235	39.1787	426.75	12.35
787.7642	41.4461	432.05	13.05
787.9049	43.7131	435.95	14.5
788.0456	45.9796	440.7	15.7
788.1863	48.2456	444.25	15.55
788.3271	50.5112	449.1	16.05
788.4679	52.7764	455.4	18.65
788.6087	55.0411	459.25	18.5
788.7496	57.3054	466.6	20.75
788.8904	59.5692	469	21.5
789.0313	61.8326	472.75	25.45
789.1722	64.0955	476.5	23.9
789.3132	66.3579	486.65	29.5
789.4541	68.6199	493.2	32.05
789.5951	70.8815	507.25	41.85
789.7361	73.1426	528.85	61.45
789.8771	75.4032	577.55	106.15
790.0181	77.6634	697.7	221.75
790.1592	79.9231	967.55	488.65
790.3003	82.1824	1539.55	1053.35
790.4414	84.4412	2459.05	1963
790.5825	86.6995	3642.2	3134.45
790.7237	88.9574	4776.85	4258.8
790.8648	91.2148	5558	5031.55
791.006	93.4717	5907.1	5375.8
791.1472	95.7282	5970.05	5437.9
791.2885	97.9842	5928.05	5394.1
791.4297	100.2398	5862.05	5323.4
791.571	102.4949	5783.9	5243.65
791.7123	104.7495	5721.95	5176.7
791.8536	107.0036	5639.55	5092.9
791.9949	109.2573	5544	5001.7
792.1363	111.5105	5413.7	4868.85
792.2777	113.7632	5255.2	4706.5
792.4191	116.0154	5117.45	4558.3
792.5605	118.2672	4932.65	4377.35
792.7019	120.5185	4776.85	4219.7
792.8434	122.7693	4595.95	4038.45
792.9849	125.0197	4441.5	3878.95
793.1264	127.2696	4296.85	3728.45
793.2679	129.519	4223.55	3653.8
793.4094	131.7679	4154.15	3580.9
793.551	134.0163	4125.55	3550.8
793.6926	136.2642	4113.9	3534
793.8342	138.5117	4092.75	3511.8
793.9758	140.7587	4056.2	3474.15
794.1175	143.0052	4002.7	3418.8
794.2591	145.2512	3930.6	3344.8
794.4008	147.4967	3818.4	3228.35
794.5425	149.7417	3738.75	3149.25
794.6842	151.9863	3691.3	3095.45
794.826	154.2304	3655.75	3057.35
794.9677	156.4739	3654.6	3050.35
795.1095	158.717	3672.5	3066.15
795.2513	160.9596	3721.35	3111.65
795.3931	163.2017	3759.2	3147.4
795.535	165.4433	3785.1	3173.4
795.6768	167.6844	3801.05	3186.95
795.8187	169.925	3770.35	3153.65
795.9606	172.1651	3680.1	3058.1
796.1025	174.4047	3608.75	2982.9
796.2445	176.6439	3518.25	2890.65
796.3864	178.8825	3459.9	2829.45
796.5284	181.1206	3441.35	2806.4
796.6704	183.3582	3424.15	2784.9
796.8124	185.5954	3392.85	2752.75
796.9544	187.832	3395.55	2750
797.0965	190.0681	3404.95	2757.25
797.2386	192.3037	3406.35	2758.4
797.3806	194.5388	3422.85	2769.85
797.5228	196.7734	3436.05	2782.1
797.6649	199.0075	3459.5	2807.75
797.807	201.2411	3501.8	2846.35
797.9492	203.4742	3533.4	2874.8
798.0914	205.7068	3582.3	2920.2
798.2336	207.9389	3598.65	2935.35
798.3758	210.1704	3629.45	2976.35
798.518	212.4015	3627.7	2983.15
798.6603	214.632	3633.1	2994.2
798.8025	216.862	3650.25	3011.05
798.9448	219.0915	3642.8	3000.25
799.0871	221.3205	3676.75	3033.5
799.2294	223.549	3692.3	3049.1
799.3718	225.777	3716	3072.7
799.5141	228.0044	3700.85	3052.1
799.6565	230.2314	3694.5	3041.4
799.7989	232.4578	3670.05	3016.45
799.9413	234.6837	3642.55	2977.05
800.0837	236.909	3624.95	2959.85
800.2262	239.1339	3618.75	2927.4
800.3687	241.3582	3598.55	2922.8
800.5111	243.582	3598.8	2894.55
800.6536	245.8053	3617.4	2924.25
800.7961	248.0281	3616.65	2929.85
800.9387	250.2503	3627.65	2937.95
801.0812	252.472	3636.75	2944.85
801.2238	254.6932	3652.55	2960.05
801.3664	256.9139	3660.8	2968.05
801.509	259.134	3674.95	2975.85
801.6516	261.3536	3709.95	3014.8
801.7942	263.5727	3773.1	3076.5
801.9369	265.7912	3848.7	3152.05
802.0795	268.0092	3955.7	3257.3
802.2222	270.2267	4062.45	3364.45
802.3649	272.4436	4140.15	3438.55
802.5076	274.6601	4202.9	3492.15
802.6504	276.8759	4237.55	3532.15
802.7931	279.0913	4298	3588.5
802.9359	281.3061	4317.6	3608.5
803.0787	283.5204	4354.15	3642.7
803.2215	285.7341	4397.85	3683.15
803.3643	287.9473	4437.75	3723.1
803.5071	290.16	4433.8	3717.15
803.6499	292.3721	4364.15	3652.2
803.7928	294.5837	4293.9	3583.65
803.9357	296.7947	4214.05	3500.65
804.0786	299.0052	4199.25	3487.9
804.2215	301.2152	4165.45	3449.7
804.3644	303.4246	4155.85	3441.75
804.5074	305.6334	4124.5	3411.3
804.6503	307.8418	4109.7	3390.2
804.7933	310.0495	4056.8	3334.55
804.9363	312.2568	3994.8	3279.2
805.0793	314.4635	3937.4	3213.35
805.2223	316.6696	3848.05	3121.95
805.3653	318.8752	3769.9	3035.85
805.5084	321.0802	3715.8	2989.5
805.6514	323.2847	3696.15	2967.5
805.7945	325.4887	3695.1	2968.4
805.9376	327.692	3734.8	3004.35
806.0807	329.8949	3814.1	3081.85
806.2238	332.0972	3893.35	3159.4
806.367	334.2989	3961.85	3224.05
806.5101	336.5001	3967	3229.55
806.6533	338.7007	3925.3	3189.4
806.7965	340.9008	3842.35	3102.2
806.9397	343.1003	3735.05	2992.45
807.0829	345.2992	3631.7	2890.5
807.2261	347.4976	3556.75	2809.4
807.3693	349.6955	3480.75	2730.85
807.5126	351.8927	3461.35	2713.4
807.6559	354.0895	3437.4	2676.85
807.7991	356.2856	3390.9	2640.8
807.9424	358.4812	3395	2643.2
808.0857	360.6763	3378.15	2626.2
808.2291	362.8707	3358.65	2601.8
808.3724	365.0646	3363.5	2605
808.5158	367.258	3382.2	2622
808.6591	369.4508	3409.2	2644.9
808.8025	371.643	3464.75	2699.75
808.9459	373.8346	3495.9	2733.2
809.0893	376.0257	3579.05	2811.35
809.2327	378.2162	3616.45	2851.7
809.3762	380.4062	3650.45	2884.3
809.5196	382.5956	3620.6	2853.8
809.6631	384.7844	3558.9	2800.65
809.8066	386.9726	3457.25	2698.25
809.9501	389.1603	3407.2	2649.05
810.0936	391.3474	3403.6	2602.55
810.2371	393.5339	3369.15	2609.95
810.3806	395.7199	3361.1	2602.25
810.5241	397.9052	3438.1	2676.35
810.6677	400.09	3503.65	2741.3
810.8113	402.2743	3585.65	2824.15
810.9548	404.4579	3646.7	2883.55
811.0984	406.641	3719.15	2952.9
811.2421	408.8235	3796.9	3027.35
811.3857	411.0054	3871.2	3099.35
811.5293	413.1868	3933.15	3158.2
811.673	415.3675	3977.55	3201.6
811.8166	417.5477	3966.05	3187.1
811.9603	419.7273	3897	3114.45
812.104	421.9064	3814.35	3027.55
812.2477	424.0848	3727.35	2945.75
812.3914	426.2627	3607.9	2826
812.5351	428.4399	3492.3	2711.35
812.6788	430.6166	3390.4	2607.4
812.8226	432.7928	3337.9	2551.4
812.9663	434.9683	3258.45	2470
813.1101	437.1432	3209.95	2420
813.2539	439.3176	3180.7	2392.55
813.3977	441.4914	3152.95	2367.75
813.5415	443.6645	3155.05	2366.15
813.6853	445.8371	3151.5	2362.9
813.8291	448.0091	3146.6	2359.55
813.973	450.1806	3122.1	2335
814.1168	452.3514	3121.55	2330.35
814.2607	454.5216	3144.55	2345.5
814.4046	456.6913	3131.3	2338.45
814.5485	458.8603	3146.9	2353.05
814.6924	461.0288	3141	2348.55
814.8363	463.1967	3144.7	2352.8
814.9802	465.3639	3143.2	2346.95
815.1241	467.5306	3123.4	2327.65
815.2681	469.6967	3109.2	2315.25
815.412	471.8622	3098.1	2306.1
815.556	474.0271	3095.85	2303.8
815.7	476.1914	3084.45	2284.1
815.844	478.3551	3085.65	2288.45
815.988	480.5182	3088.35	2290.75
816.132	482.6807	3082.85	2286.8
816.276	484.8426	3129.05	2333.45
816.4201	487.0039	3196.35	2400.15
816.5641	489.1647	3290.05	2488.4
816.7082	491.3248	3379.8	2579.2
816.8522	493.4843	3406.8	2606
816.9963	495.6432	3397.35	2594.3
817.1404	497.8015	3342.75	2537.05
817.2845	499.9592	3254.6	2449.8
817.4286	502.1163	3167.6	2362.65
817.5727	504.2728	3084.55	2277.45
817.7168	506.4287	3026.75	2224.6
817.861	508.5839	3005.1	2200.7
818.0051	510.7386	2983.7	2179.95
818.1493	512.8927	2997.3	2183
818.2935	515.0461	3005.4	2199.4
818.4377	517.199	3033.3	2226.75
818.5818	519.3512	3127.95	2318.8
818.726	521.5029	3230.95	2416.55
818.8703	523.6539	3355.75	2547
819.0145	525.8043	3371.55	2558.95
819.1587	527.9541	3273.75	2461.3
819.303	530.1033	3161.75	2351.95
819.4472	532.2519	3051.9	2239
819.5915	534.3999	3014.65	2199.75
819.7357	536.5472	2991.6	2177.35
819.88	538.694	2989.5	2177.5
820.0243	540.8401	3021.8	2206.4
820.1686	542.9856	3054.65	2240.05
820.3129	545.1305	3088.7	2270.1
820.4572	547.2748	3106.7	2289.25
820.6016	549.4185	3105.1	2285.4
820.7459	551.5615	3114.9	2295
820.8902	553.704	3156.55	2336.9
821.0346	555.8458	3183.5	2364.9
821.1789	557.987	3219.4	2400.85
821.3233	560.1276	3284.1	2462.35
821.4677	562.2675	3381.8	2561.05
821.6121	564.4069	3512	2693.35
821.7565	566.5456	3597.4	2778.65
821.9009	568.6837	3563.7	2744.7
822.0453	570.8212	3415.7	2591.85
822.1897	572.958	3246.05	2424
822.3342	575.0942	3129.75	2310
822.4786	577.2299	3067.1	2248
822.6231	579.3648	3031.55	2210.8
822.7675	581.4992	2994.75	2177.1
822.912	583.6329	3019.3	2199.8
823.0565	585.766	3059.8	2239.45
823.201	587.8985	3141.15	2320.8
823.3454	590.0304	3236.7	2398.85
823.4899	592.1616	3306.35	2477.35
823.6345	594.2922	3324.8	2498.35
823.779	596.4222	3252.95	2425.35
823.9235	598.5515	3157.7	2330.3
824.068	600.6802	3050.25	2223.85
824.2126	602.8083	2980.65	2152.2
824.3571	604.9358	2937.05	2107.5
824.5017	607.0626	2918.8	2089.3
824.6462	609.1888	2928.35	2097.5
824.7908	611.3144	2968.15	2134
824.9354	613.4393	3039.75	2210.4
825.08	615.5636	3155.8	2324.35
825.2246	617.6873	3230.45	2400.75
825.3692	619.8103	3294.4	2460.9
825.5138	621.9327	3294	2458.15
825.6584	624.0544	3240.75	2410.5
825.803	626.1756	3141.1	2311.55
825.9477	628.2961	3034.65	2203.35
826.0923	630.4159	2977.95	2145.9
826.237	632.5351	2961.55	2126.2
826.3816	634.6537	2947.3	2111.85
826.5263	636.7716	2934.5	2095.25
826.6709	638.8889	2916.8	2080.65
826.8156	641.0056	2933.9	2095.55
826.9603	643.1216	2954.85	2114.15
827.105	645.237	2993.45	2156.6
827.2497	647.3518	2949.35	2112.05
827.3944	649.4659	2891.85	2055.65
827.5391	651.5793	2852.45	2015.4
827.6838	653.6922	2825.8	1991.05
827.8285	655.8043	2800.25	1960.5
827.9733	657.9159	2777.6	1939.2
828.118	660.0268	2759.4	1918.2
828.2627	662.137	2761.55	1922.65
828.4075	664.2466	2763.35	1919.9
828.5522	666.3556	2763.05	1922.85
828.697	668.4639	2758.75	1914.45
828.8418	670.5716	2741.75	1902.15
828.9865	672.6786	2729.6	1886.85
829.1313	674.785	2713.8	1868.55
829.2761	676.8907	2707.6	1866.35
829.4209	678.9958	2703.7	1862.45
829.5657	681.1002	2699	1854.35
829.7105	683.204	2701.6	1854.85
829.8553	685.3072	2705.3	1857.35
830.0001	687.4097	2710.85	1866.6
830.1449	689.5115	2699.15	1850
830.2898	691.6127	2703.75	1859.15
830.4346	693.7132	2695.2	1849.8
830.5794	695.8131	2695.2	1837.35
830.7243	697.9123	2698.65	1852.9
830.8691	700.0109	2706.9	1859.85
831.014	702.1089	2709.65	1861.5
831.1588	704.2061	2744.45	1897.65
831.3037	706.3028	2785.45	1932.2
831.4486	708.3987	2831.65	1980.95
831.5935	710.4941	2860.65	2011.55
831.7383	712.5887	2861.1	2014.1
831.8832	714.6827	2872.3	2020.3
832.0281	716.7761	2837.75	1986.8
832.173	718.8688	2837.2	1986
832.3179	720.9608	2823.75	1968.15
832.4628	723.0522	2853.1	1996
832.6077	725.1429	2881.05	2029.35
832.7527	727.233	2941.85	2089.65
832.8976	729.3224	3047.55	2196
833.0425	731.4112	3157.85	2304.25
833.1874	733.4993	3201.4	2347.1
833.3324	735.5867	3118.95	2266.85
833.4773	737.6735	2987.25	2134.45
833.6222	739.7596	2864.5	2007.05
833.7672	741.845	2790.5	1937.25
833.9122	743.9298	2756.35	1899.65
834.0571	746.014	2757.85	1906.3
834.2021	748.0974	2775	1917.05
834.347	750.1802	2769.7	1913.55
834.492	752.2624	2768.75	1917
834.637	754.3439	2748.25	1891.5
834.782	756.4247	2761.8	1894.9
834.9269	758.5048	2765.85	1911.7
835.0719	760.5843	2800.4	1942.5
835.2169	762.6631	2863.85	2005
835.3619	764.7413	2957.05	2101
835.5069	766.8188	3118.85	2262.5
835.6519	768.8956	3265.05	2405.55
835.7969	770.9718	3375.7	2517.5
835.9419	773.0473	3360.3	2504.05
836.0869	775.1221	3298.3	2438.65
836.232	777.1962	3263.05	2405.35
836.377	779.2697	3373.45	2515.2
836.522	781.3426	3578.05	2701.4
836.667	783.4147	3704.55	2845.45
836.8121	785.4862	3718.45	2860.85
836.9571	787.557	3558.5	2700.8
837.1021	789.6271	3327.75	2464.9
837.2472	791.6966	3066.2	2204.6
837.3922	793.7654	2889.95	2027.4
837.5373	795.8335	2782.4	1921.75
837.6823	797.901	2703.65	1842.4
837.8274	799.9678	2695.2	1833.1
837.9724	802.0339	2690.2	1829
838.1175	804.0993	2715.45	1844.45
838.2626	806.1641	2710.8	1848.15
838.4076	808.2282	2680.65	1819.9
838.5527	810.2916	2639.25	1776.15
838.6978	812.3544	2609.8	1750.2
838.8428	814.4164	2583.7	1722.95
838.9879	816.4778	2600.65	1737.8
839.133	818.5385	2612.5	1749.75
839.2781	820.5986	2680.2	1818.05
839.4232	822.658	2775.65	1912.8
839.5682	824.7166	2904.1	2041.15
839.7133	826.7747	3050.75	2187.05
839.8584	828.832	3191.35	2328.45
840.0035	830.8886	3310.05	2443.6
840.1486	832.9446	3363.55	2499.4
840.2937	834.9999	3327.85	2464.7
840.4388	837.0545	3204.7	2335.5
840.5839	839.1085	3042.3	2175.5
840.729	841.1618	2892.7	2024.1
840.8741	843.2143	2786.65	1919.75
841.0192	845.2662	2728.95	1864
841.1643	847.3175	2688.25	1820.9
841.3095	849.368	2671.25	1803.4
841.4546	851.4179	2659.45	1794.9
841.5997	853.467	2649.1	1780.25
841.7448	855.5155	2667.85	1799.95
841.8899	857.5633	2692.45	1823.85
842.0351	859.6105	2664.35	1796.75
842.1802	861.6569	2650.15	1783.05
842.3253	863.7027	2630.95	1759.95
842.4704	865.7478	2599.8	1731.95
842.6156	867.7922	2577.2	1709.35
842.7607	869.8359	2548.45	1680.3
842.9058	871.8789	2547.9	1679.8
843.0509	873.9212	2577.25	1675.6
843.1961	875.9629	2557	1689.7
843.3412	878.0039	2569.55	1700.85
843.4863	880.0441	2597.4	1728.3
843.6315	882.0837	2645.55	1775.05
843.7766	884.1226	2667.3	1797.75
843.9218	886.1609	2745.5	1877
844.0669	888.1984	2841	1973.05
844.212	890.2352	2937.3	2066.25
844.3572	892.2714	2950	2074.85
844.5023	894.3069	2919.7	2047.75
844.6475	896.3416	2810.2	1940.4
844.7926	898.3757	2721.75	1853.9
844.9377	900.4091	2671.4	1798.5
845.0829	902.4418	2679.1	1804
845.228	904.4739	2724.2	1852.25
845.3732	906.5052	2756.05	1881.7
845.5183	908.5358	2759.8	1890.25
845.6635	910.5658	2728.1	1854.2
845.8086	912.595	2655.8	1782.25
845.9538	914.6236	2596.4	1723.5
846.0989	916.6515	2541.5	1671.05
846.2441	918.6786	2508.05	1634.8
846.3892	920.7051	2489.2	1613.6
846.5344	922.7309	2482.25	1612.85
846.6795	924.756	2483.65	1611.4
846.8246	926.7804	2490.95	1611.9
846.9698	928.8041	2513.05	1639.95
847.1149	930.8272	2549.15	1675.35
847.2601	932.8495	2581.5	1709.4
847.4052	934.8711	2588.05	1712.5
847.5504	936.892	2588.2	1711.95
847.6955	938.9123	2635.6	1760.2
847.8407	940.9318	2680.15	1806.6
847.9858	942.9506	2719.4	1842.65
848.131	944.9688	2706.9	1834.65
848.2761	946.9862	2656.1	1780.1
848.4213	949.003	2598.75	1726.6
848.5664	951.019	2544.3	1670.5
848.7115	953.0344	2532.4	1657.7
848.8567	955.0491	2509.3	1633.05
849.0018	957.063	2489.9	1613.2
849.147	959.0763	2477.1	1603
849.2921	961.0888	2471.15	1594.65
849.4373	963.1007	2464.65	1589.3
849.5824	965.1119	2443.1	1569.15
849.7275	967.1223	2424.1	1551.05
849.8727	969.1321	2416.95	1545.5
850.0178	971.1412	2413.4	1541.9
850.1629	973.1495	2404.85	1531.1
850.3081	975.1572	2437.75	1531.2
850.4532	977.1641	2428.5	1552.4
850.5983	979.1704	2425.25	1548.4
850.7435	981.1759	2414.1	1535.35
850.8886	983.1808	2398.35	1520.1
851.0337	985.1849	2392.15	1511.85
851.1788	987.1884	2379.45	1499.15
851.324	989.1911	2390.45	1512.2
851.4691	991.1932	2398.75	1520.95
851.6142	993.1945	2407.1	1529.95
851.7593	995.1951	2402.8	1525.6
851.9045	997.1951	2405.6	1521.5
852.0496	999.1943	2396.5	1519.8
852.1947	1001.1928	2411.85	1535.6
852.3398	1003.1906	2422.55	1545.2
852.4849	1005.1877	2460.55	1582.9
852.63	1007.1841	2510.85	1631.9
852.7751	1009.1798	2531.65	1654.55
852.9202	1011.1748	2528.35	1650.05
853.0653	1013.1691	2489.25	1610.55
853.2104	1015.1627	2415.75	1537.6
853.3555	1017.1556	2362	1483.25
853.5006	1019.1477	2338.3	1459.8
853.6457	1021.1392	2305.85	1430.05
853.7908	1023.1299	2286.35	1409.95
853.9359	1025.12	2281.9	1406.7
854.081	1027.1093	2295.95	1422.3
854.2261	1029.0979	2323.2	1451
854.3712	1031.0859	2375.3	1504.75
854.5163	1033.0731	2401	1524.55
854.6613	1035.0596	2400.35	1523.2
854.8064	1037.0454	2389.4	1511.15
854.9515	1039.0304	2367.75	1489.5
855.0965	1041.0148	2331.85	1455.75
855.2416	1042.9985	2294.15	1412.5
855.3867	1044.9814	2268.75	1388.3
855.5317	1046.9636	2261.3	1381.4
855.6768	1048.9452	2267.3	1388.35
855.8219	1050.926	2299.3	1420.85
855.9669	1052.9061	2336.65	1457.25
856.112	1054.8855	2347.25	1468.25
856.257	1056.8642	2341.4	1461.25
856.4021	1058.8421	2346.15	1464.35
856.5471	1060.8194	2344.85	1465.2
856.6921	1062.7959	2340.8	1458
856.8372	1064.7717	2335.2	1453.2
856.9822	1066.7469	2331.2	1448.4
857.1272	1068.7213	2338.3	1457.35
857.2723	1070.695	2356.7	1476.25
857.4173	1072.6679	2393.1	1513.55
857.5623	1074.6402	2450.1	1568.9
857.7073	1076.6117	2480.25	1595.4
857.8523	1078.5826	2447.3	1564.05
857.9973	1080.5527	2374.3	1490.65
858.1423	1082.5221	2310.15	1428.45
858.2873	1084.4908	2252.05	1371.1
858.4323	1086.4587	2226.15	1345.2
858.5773	1088.426	2210.95	1327.8
858.7223	1090.3925	2214.05	1327.25
858.8673	1092.3584	2214.85	1334.5
859.0123	1094.3235	2230.15	1349.85
859.1573	1096.2879	2263.15	1382.3
859.3022	1098.2515	2306.5	1423.65
859.4472	1100.2145	2333.55	1453.55
859.5922	1102.1767	2397.65	1514.5
859.7371	1104.1382	2484.9	1603.3
859.8821	1106.099	2583.6	1699.5
860.027	1108.0591	2684.4	1803.7
860.172	1110.0185	2762.75	1878.8
860.3169	1111.9771	2809.35	1927.75
860.4619	1113.9351	2900.75	2017.85
860.6068	1115.8923	3040	2158.6
860.7517	1117.8488	3119.6	2235.2
860.8967	1119.8045	3039.4	2156.05
861.0416	1121.7596	2871.05	1987.2
861.1865	1123.7139	2666.55	1785.9
861.3314	1125.6675	2545.5	1663.05
861.4763	1127.6204	2522.8	1641.5
861.6212	1129.5726	2570.8	1688.55
861.7661	1131.524	2590.35	1710.45
861.911	1133.4748	2510.4	1628.3
862.0559	1135.4248	2392.65	1510.2
862.2008	1137.3741	2303.1	1421.45
862.3457	1139.3226	2245.55	1362.35
862.4905	1141.2705	2244.4	1362.65
862.6354	1143.2176	2260.35	1370.1
862.7803	1145.164	2286.4	1402.45
862.9251	1147.1097	2294.65	1411.2
863.07	1149.0546	2263.25	1378.6
863.2148	1150.9989	2205.05	1322.25
863.3597	1152.9424	2158	1273.55
863.5045	1154.8852	2145.05	1263.15
863.6493	1156.8272	2117.35	1236.1
863.7942	1158.7686	2128.85	1239.2
863.939	1160.7092	2118.35	1234.8
864.0838	1162.6491	2139.2	1254.5
864.2286	1164.5883	2140.2	1256.85
864.3734	1166.5267	2169.8	1282.6
864.5182	1168.4644	2205.15	1322.3
864.663	1170.4014	2278.05	1392.5
864.8078	1172.3377	2341	1458.5
864.9526	1174.2732	2430.5	1548.2
865.0974	1176.2081	2589.1	1703.95
865.2421	1178.1421	2804.4	1915.95
865.3869	1180.0755	3041.5	2158.9
865.5317	1182.0082	3201.25	2319.35
865.6764	1183.9401	3206.6	2322.5
865.8212	1185.8713	3031.05	2148.5
865.9659	1187.8017	2798.45	1915.55
866.1106	1189.7315	2573.6	1695.4
866.2554	1191.6605	2442.15	1533.8
866.4001	1193.5888	2325.45	1444.85
866.5448	1195.5163	2263.85	1381.95
866.6895	1197.4432	2217.95	1334.65
866.8342	1199.3693	2190.9	1309.9
866.9789	1201.2947	2165.05	1273.1
867.1236	1203.2193	2152.85	1268.3
867.2683	1205.1432	2135.45	1251.45
867.413	1207.0664	2137.4	1254.05
867.5576	1208.9889	2137.6	1253
867.7023	1210.9106	2135.45	1248.6
867.847	1212.8316	2142.4	1256.35
867.9916	1214.7519	2161.45	1266.8
868.1363	1216.6715	2180.25	1296.6
868.2809	1218.5903	2216.3	1333
868.4255	1220.5084	2233.8	1350
868.5701	1222.4257	2252.95	1366.8
868.7148	1224.3424	2279.95	1396.85
868.8594	1226.2583	2317.1	1429.7
869.004	1228.1735	2360.15	1474.5
869.1486	1230.0879	2422.5	1537.4
869.2932	1232.0016	2480.45	1597.4
869.4377	1233.9146	2554.1	1667
869.5823	1235.8269	2600.95	1715.85
869.7269	1237.7384	2604.15	1718.45
869.8715	1239.6492	2587.5	1703.25
870.016	1241.5592	2610.75	1724.2
870.1606	1243.4686	2694.45	1809.95
870.3051	1245.3772	2817.8	1933.6
870.4496	1247.285	2982.15	2099.7
870.5941	1249.1922	3128	2241.3
870.7387	1251.0986	3266.2	2383.4
870.8832	1253.0042	3391.9	2504.45
871.0277	1254.9092	3540.5	2654.7
871.1722	1256.8134	3717.45	2835
871.3167	1258.7169	3907.15	3021.15
871.4611	1260.6196	4038.45	3152.15
871.6056	1262.5216	4108.65	3221.85
871.7501	1264.4229	4114.5	3230.25
871.8945	1266.3234	4057.05	3173.5
872.039	1268.2232	3944.7	3059.05
872.1834	1270.1223	3835.85	2950.2
872.3278	1272.0207	3752.95	2866.3
872.4723	1273.9183	3717.9	2825.05
872.6167	1275.8151	3708.45	2822.9
872.7611	1277.7113	3761.2	2872.75
872.9055	1279.6067	3893.85	3008.6
873.0499	1281.5014	4166.45	3277.1
873.1943	1283.3953	4517.5	3629.35
873.3386	1285.2885	4886.3	4004.7
873.483	1287.181	5220.1	4333.35
873.6274	1289.0727	5359.95	4474.55
873.7717	1290.9637	5279.85	4394.7
873.9161	1292.854	5066.95	4178.9
874.0604	1294.7435	4774.35	3887.85
874.2047	1296.6323	4557.6	3672.45
874.349	1298.5204	4323.7	3435
874.4933	1300.4077	4157.55	3271.3
874.6376	1302.2943	4040.8	3154.15
874.7819	1304.1802	3977.6	3090.95
874.9262	1306.0653	3909.25	3020.3
875.0705	1307.9497	3858	2972.75
875.2147	1309.8333	3804.95	2920.55
875.359	1311.7162	3726.9	2839.95
875.5032	1313.5984	3678.25	2789.95
875.6475	1315.4798	3662.8	2764.15
875.7917	1317.3605	3667.1	2762.9
875.9359	1319.2405	3694.3	2806.15
876.0801	1321.1197	3677.3	2786.75
876.2243	1322.9982	3635.95	2745
876.3685	1324.876	3511.55	2627.4
876.5127	1326.753	3350.2	2463.4
876.6569	1328.6293	3182.95	2297.2
876.801	1330.5048	3001.45	2109.5
876.9452	1332.3796	2821.55	1936.55
877.0893	1334.2537	2723	1812.2
877.2335	1336.127	2622.55	1734.4
877.3776	1337.9996	2553.75	1668.55
877.5217	1339.8714	2520.2	1631.6
877.6658	1341.7426	2510.55	1581.5
877.8099	1343.6129	2454.45	1566.55
877.954	1345.4826	2408.5	1521.7
878.0981	1347.3515	2386.25	1497.9
878.2422	1349.2196	2347.7	1459.85
878.3862	1351.087	2335.35	1447.25
878.5303	1352.9537	2334.15	1446.55
878.6743	1354.8197	2328.4	1441.55
878.8184	1356.6849	2353.3	1465.75
878.9624	1358.5493	2373.3	1486.5
879.1064	1360.4131	2434.9	1546.8
879.2504	1362.276	2488.4	1601.85
879.3944	1364.1383	2552.3	1664.8
879.5384	1365.9998	2589.65	1697.1
879.6823	1367.8606	2575.5	1687.15
879.8263	1369.7206	2566.85	1677.55
879.9702	1371.5799	2561.35	1672.65
880.1142	1373.4384	2566.15	1677.9
880.2581	1375.2962	2522.4	1634.9
880.402	1377.1533	2423.2	1537.3
880.5459	1379.0096	2326.45	1438.45
880.6898	1380.8652	2262.45	1376.1
880.8337	1382.7201	2213	1325.25
880.9776	1384.5742	2148.4	1262.8
881.1215	1386.4275	2111.8	1224.45
881.2653	1388.2802	2080.15	1193.3
881.4092	1390.132	2061.15	1173.4
881.553	1391.9832	2047.35	1159.8
881.6968	1393.8336	2024.5	1137.3
881.8406	1395.6832	2019.3	1131
881.9844	1397.5322	2013.8	1124.1
882.1282	1399.3803	2001.95	1110.05
882.272	1401.2278	1987.65	1099.35
882.4158	1403.0745	1967.95	1080.2
882.5595	1404.9204	1935.6	1051.25
882.7033	1406.7656	1924.95	1035.75
882.847	1408.6101	1923.05	1036.7
882.9908	1410.4538	1917.75	1030.1
883.1345	1412.2968	1920.25	1033.1
883.2782	1414.139	1923.7	1037.35
883.4219	1415.9805	1944.95	1058.15
883.5656	1417.8213	1955.65	1063.9
883.7092	1419.6613	1992.15	1105.2
883.8529	1421.5006	2048.5	1158.35
883.9965	1423.3391	2112.5	1225.55
884.1402	1425.1769	2212.9	1324.25
884.2838	1427.0139	2347.6	1460.4
884.4274	1428.8502	2519.3	1631.85
884.571	1430.6858	2646.6	1758.1
884.7146	1432.5206	2703.8	1814.15
884.8582	1434.3547	2696.55	1808.65
885.0018	1436.188	2654.6	1767.9
885.1453	1438.0206	2637.25	1751
885.2889	1439.8524	2612.55	1723.85
885.4324	1441.6835	2596.65	1707.65
885.5759	1443.5139	2619.75	1729.75
885.7194	1445.3435	2621.7	1735.15
885.8629	1447.1724	2615.55	1728.95
886.0064	1449.0005	2616.85	1729.25
886.1499	1450.8279	2594.35	1706.15
886.2933	1452.6545	2583.2	1693.55
886.4368	1454.4804	2585.5	1699.75
886.5802	1456.3056	2561.35	1667.45
886.7237	1458.13	2544.1	1658.1
886.8671	1459.9536	2495.05	1608.7
887.0105	1461.7766	2445.8	1558.1
887.1539	1463.5987	2363.25	1475.3
887.2972	1465.4202	2292.65	1404.8
887.4406	1467.2409	2215.1	1325.35
887.584	1469.0608	2151.6	1265.6
887.7273	1470.88	2085.6	1193.9
887.8706	1472.6984	2043.1	1155.15
888.0139	1474.5161	1999.7	1108
888.1572	1476.3331	1968.85	1081.3
888.3005	1478.1493	1947.7	1060.75
888.4438	1479.9648	1940.55	1054.25
888.5871	1481.7795	1938.45	1050.9
888.7303	1483.5935	1937.7	1050.35
888.8736	1485.4067	1935.65	1047.95
889.0168	1487.2192	1945.2	1056.7
889.16	1489.031	1949.35	1058.9
889.3032	1490.842	1947.8	1059.65
889.4464	1492.6522	1948.5	1059.2
889.5896	1494.4618	1939.55	1049.95
889.7327	1496.2705	1935.6	1049.75
889.8759	1498.0785	1913.7	1025.65
890.019	1499.8858	1917.2	1028.45
890.1622	1501.6924	1906.95	1019.5
890.3053	1503.4981	1892	1003.15
890.4484	1505.3032	1887.25	998.05
890.5914	1507.1075	1877.95	989.85
890.7345	1508.911	1867.6	978.75
890.8776	1510.7138	1847.2	959.8
891.0206	1512.5159	1831.35	945.15
891.1637	1514.3172	1827.5	938.15
891.3067	1516.1178	1807.7	922.4
891.4497	1517.9176	1809.45	919.7
891.5927	1519.7166	1796.55	910.75
891.7357	1521.515	1798.7	902.1
891.8786	1523.3126	1779.85	892.4
892.0216	1525.1094	1776.9	886.75
892.1645	1526.9055	1754	868.25
892.3074	1528.7008	1753.75	870.3
892.4503	1530.4954	1747.15	851.95
892.5932	1532.2893	1737.85	853.1
892.7361	1534.0824	1758.9	868.55
892.879	1535.8747	1747.55	860.75
893.0218	1537.6663	1737.4	851.15
893.1647	1539.4572	1741.05	851
893.3075	1541.2473	1733.95	845.95
893.4503	1543.0367	1743.65	857.9
893.5931	1544.8253	1753.25	863.95
893.7359	1546.6132	1754.95	866.4
893.8787	1548.4003	1770.7	874.75
894.0214	1550.1867	1776.2	878.75
894.1642	1551.9723	1790.95	899.25
894.3069	1553.7572	1807.9	917.95
894.4496	1555.5414	1851.8	965.4
894.5923	1557.3247	1896.15	1009.2
894.735	1559.1074	1954.1	1068.6
894.8777	1560.8893	2038.2	1154.2
895.0204	1562.6705	2120.3	1233.05
895.163	1564.4509	2167.95	1282.4
895.3056	1566.2305	2189.05	1303.35
895.4482	1568.0094	2204.9	1320.35
895.5908	1569.7876	2197.3	1312.65
895.7334	1571.565	2194.55	1307
895.876	1573.3417	2184.4	1298.5
896.0186	1575.1176	2211.85	1324.4
896.1611	1576.8928	2224.7	1339.45
896.3036	1578.6672	2276.55	1393.65
896.4461	1580.4409	2328.9	1444.2
896.5886	1582.2138	2402.2	1516.9
896.7311	1583.986	2476.2	1590
896.8736	1585.7575	2560.95	1677.5
897.0161	1587.5282	2622.45	1739.1
897.1585	1589.2981	2683.75	1797.9
897.3009	1591.0673	2709.35	1826.6
897.4433	1592.8358	2723.65	1837.3
897.5857	1594.6035	2733.75	1844.7
897.7281	1596.3704	2702.9	1815.65
897.8705	1598.1366	2658.5	1773.9
898.0128	1599.9021	2619.45	1734.75
898.1551	1601.6668	2560.45	1675.3
898.2975	1603.4308	2518.8	1632.85
898.4398	1605.194	2524.2	1634.05
898.5821	1606.9564	2553.05	1669.05
898.7243	1608.7182	2662.7	1773.7
898.8666	1610.4791	2807.35	1923.8
899.0088	1612.2394	3006.2	2125.4
899.1511	1613.9988	3215.65	2333
899.2933	1615.7576	3401.95	2518.65
899.4355	1617.5156	3500.4	2610.9
899.5776	1619.2728	3461.6	2576.8
899.7198	1621.0293	3306.75	2421.55
899.862	1622.785	3098.2	2207.9
900.0041	1624.54	2853.3	1965.2
900.1462	1626.2942	2621.85	1737.25
900.2883	1628.0477	2414.5	1527.9
900.4304	1629.8005	2247.35	1359.9
900.5725	1631.5525	2110.05	1226.85
900.7145	1633.3037	2010.1	1124.4
900.8566	1635.0542	1923.25	1039.05
900.9986	1636.804	1858.95	974.25
901.1406	1638.553	1860.15	915.15
901.2826	1640.3013	1759.5	875.85
901.4245	1642.0488	1734.75	847.75
901.5665	1643.7955	1704.45	822.85
901.7085	1645.5416	1678.3	793.2
901.8504	1647.2868	1663.75	779.7
901.9923	1649.0313	1641.25	757.25
902.1342	1650.7751	1638.3	749.55
902.2761	1652.5181	1623.55	736.95
902.4179	1654.2604	1631.75	747.1
902.5598	1656.0019	1636.05	752.25
902.7016	1657.7427	1652.8	768.95
902.8434	1659.4828	1690.95	806.7
902.9852	1661.222	1745.2	859.25
903.127	1662.9606	1812.95	929
903.2687	1664.6984	1888.45	1002.05
903.4105	1666.4354	1923.9	1037.55
903.5522	1668.1717	1907.05	1020.7
903.6939	1669.9072	1825.65	939
903.8356	1671.642	1735.15	846.35
903.9773	1673.3761	1654.7	769.8
904.119	1675.1094	1595.2	711.65
904.2606	1676.8419	1546.6	661.35
904.4022	1678.5737	1517.85	633.35
904.5439	1680.3048	1499.7	614.05
904.6855	1682.0351	1482.9	597.65
904.827	1683.7646	1473.45	584.05
904.9686	1685.4934	1461.45	578.05
905.1101	1687.2215	1452.55	566.45
905.2517	1688.9488	1439.9	553.75
905.3932	1690.6754	1440.5	555.25
905.5347	1692.4012	1432.9	549.1
905.6761	1694.1263	1424.65	539.35
905.8176	1695.8506	1423.35	539.05
905.9591	1697.5742	1418.65	535.35
906.1005	1699.297	1412.7	528.3
906.2419	1701.0191	1408.15	526.85
906.3833	1702.7404	1407.05	523.5
906.5246	1704.461	1408.15	522.2
906.666	1706.1808	1395.6	507.85
906.8073	1707.8999	1391.9	506.25
906.9487	1709.6182	1392.25	509.8
907.09	1711.3358	1390.5	506.15
907.2313	1713.0527	1375.4	492.6
907.3725	1714.7688	1381.75	492.05
907.5138	1716.4841	1384.55	498.45
907.655	1718.1987	1380.75	489.85
907.7962	1719.9126	1366.35	481.95
907.9374	1721.6257	1374.05	486
908.0786	1723.338	1369.9	485.45
908.2198	1725.0496	1364.05	478.4
908.3609	1726.7605	1369.7	483.55
908.502	1728.4706	1365.05	479.7
908.6431	1730.18	1356.5	471.3
908.7842	1731.8886	1355.75	472.65
908.9253	1733.5964	1371.3	464.9
909.0664	1735.3036	1353.05	465.9
909.2074	1737.0099	1352.3	467.6
909.3484	1738.7156	1349.05	464.2
909.4894	1740.4204	1349.8	463.8
909.6304	1742.1246	1354.85	469.55
909.7714	1743.8279	1345.05	461.15
909.9123	1745.5306	1346.1	460.45
910.0532	1747.2325	1343.85	459.5
910.1941	1748.9336	1342.25	457.85
910.335	1750.634	1337.25	450
910.4759	1752.3336	1337.45	454.1
910.6168	1754.0325	1330.45	446.2
910.7576	1755.7307	1339.6	459.8
910.8984	1757.4281	1336.1	450.5
911.0392	1759.1247	1342.4	451.1
911.18	1760.8206	1338.85	448.95
911.3208	1762.5158	1334.3	446.5
911.4615	1764.2102	1327.85	444.75
911.6022	1765.9039	1324.4	440.7
911.7429	1767.5968	1326.25	443.5
911.8836	1769.289	1328	445.6
912.0243	1770.9804	1323.65	438.3
912.1649	1772.6711	1333.7	450.1
912.3056	1774.361	1323.6	437.75
912.4462	1776.0502	1332.7	448.05
912.5868	1777.7386	1322.6	435.45
912.7274	1779.4263	1317.5	433.15
912.8679	1781.1132	1313.45	430.6
913.0084	1782.7994	1316.1	430.9
913.149	1784.4849	1313.4	431.15
913.2895	1786.1696	1328.7	425.55
913.4299	1787.8535	1305.9	423.95
913.5704	1789.5367	1308.8	426.25
913.7108	1791.2192	1301.1	418.5
913.8513	1792.9009	1315.4	417.9
913.9917	1794.5818	1308.8	421.8
914.132	1796.2621	1302.25	419.05
914.2724	1797.9415	1306.4	421.35
914.4128	1799.6202	1301.15	418
914.5531	1801.2982	1300.05	415.3
914.6934	1802.9755	1303.6	419.15
914.8337	1804.6519	1294.35	408.1
914.9739	1806.3277	1291.05	405.9
915.1142	1808.0027	1295.35	411.75
915.2544	1809.6769	1296	411.7
915.3946	1811.3504	1294.25	409.7
915.5348	1813.0231	1289.35	406.9
915.675	1814.6951	1293.1	408.8
915.8151	1816.3664	1288	401.85
915.9553	1818.0369	1291.2	406.65
916.0954	1819.7067	1284.85	402.25
916.2355	1821.3757	1286.05	400.6
916.3755	1823.044	1282.4	395.9
916.5156	1824.7115	1286.55	402
916.6556	1826.3783	1284.15	401.45
916.7956	1828.0443	1281.1	396.15
916.9356	1829.7096	1283.75	398.05
917.0756	1831.3741	1283.55	398.9
917.2155	1833.0379	1269.9	388.75
917.3555	1834.701	1278.15	392.85
917.4954	1836.3633	1274.95	391.25
917.6353	1838.0248	1276.9	390.85
917.7751	1839.6856	1278.95	396
917.915	1841.3457	1273.95	390.5
918.0548	1843.005	1273.7	389.5
918.1946	1844.6636	1271.75	388.7
918.3344	1846.3214	1273.55	390.65
918.4742	1847.9785	1270.75	386.6
918.6139	1849.6349	1264.2	377.75
918.7537	1851.2904	1278	385.7
918.8934	1852.9453	1271.6	385.15
919.0331	1854.5994	1270.6	384.4
919.1727	1856.2528	1274.7	384.55
919.3124	1857.9054	1269.9	385.15
919.452	1859.5572	1267.4	385.55
919.5916	1861.2083	1266.1	381.2
919.7312	1862.8587	1266.7	383.05
919.8708	1864.5084	1264.4	379.4
920.0103	1866.1572	1256.2	373.9
920.1498	1867.8054	1255.45	370.1
920.2893	1869.4528	1263.95	380
920.4288	1871.0994	1259.75	375.45
920.5683	1872.7453	1262.05	376.25
920.7077	1874.3905	1264.45	372.35
920.8471	1876.0349	1256.45	371.15
920.9865	1877.6786	1259.05	371.65
921.1259	1879.3215	1250.35	366.4
921.2653	1880.9637	1254.4	370.1
921.4046	1882.6051	1246.95	364.85
921.5439	1884.2458	1247.75	360.95
921.6832	1885.8858	1254.35	371.4
921.8225	1887.525	1251.95	368.25
921.9617	1889.1634	1251.65	367.65
922.101	1890.8011	1244.4	360.05
922.2402	1892.4381	1246.25	362.7
922.3794	1894.0743	1242.5	357.45
922.5185	1895.7098	1240.15	355.35
922.6577	1897.3446	1250.5	366
922.7968	1898.9786	1243.75	355.65
922.9359	1900.6118	1242.8	359.55
923.075	1902.2443	1234.95	348.75
923.214	1903.8761	1238.85	355.25
923.3531	1905.5071	1235.15	350.25
923.4921	1907.1374	1235.1	350.1
923.6311	1908.7669	1231.2	348.15
923.77	1910.3957	1235.7	350.8
923.909	1912.0237	1229.75	346.25
924.0479	1913.651	1233.25	348
924.1868	1915.2776	1229.05	346.85
924.3257	1916.9034	1225.8	343.05
924.4646	1918.5285	1228.15	343.25
924.6034	1920.1528	1224.5	339.6
924.7422	1921.7764	1221.9	336.9
924.881	1923.3992	1219.15	333.85
925.0198	1925.0213	1221.8	336.4
925.1586	1926.6427	1222.05	337.7
925.2973	1928.2633	1427.55	324.8
925.436	1929.8832	1229.35	344.4
925.5747	1931.5023	1220.3	336
925.7134	1933.1207	1218.6	334.6
925.852	1934.7383	1219.6	335
925.9906	1936.3552	1219.05	334.05
926.1292	1937.9714	1216.4	331.75
926.2678	1939.5868	1212.85	324.95
926.4064	1941.2015	1213.1	327.6
926.5449	1942.8154	1212.3	327.15
926.6834	1944.4286	1207.95	321
926.8219	1946.041	1225.8	318.35
926.9604	1947.6528	1206.1	317.2
927.0988	1949.2637	1204.85	319.6
927.2372	1950.8739	1202.1	318.3
927.3756	1952.4834	1202.2	318.7
927.514	1954.0921	1206.35	322.55
927.6523	1955.7001	1209.85	322.7
927.7907	1957.3074	1202.9	319.05
927.929	1958.9139	1193.2	309.85
928.0673	1960.5197	1198.45	313.65
928.2055	1962.1247	1195.65	311.3
928.3438	1963.729	1196.45	313.3
928.482	1965.3325	1220.4	314.6
928.6202	1966.9353	1191.3	311.5
928.7584	1968.5374	1190.45	306.85
928.8965	1970.1387	1189.1	305.6
929.0346	1971.7393	1192.65	306.85
929.1727	1973.3392	1187	305.45
929.3108	1974.9383	1188.05	306.35
929.4489	1976.5366	1186.05	302.4
929.5869	1978.1342	1180.5	299.45
929.7249	1979.7311	1180.95	296.55
929.8629	1981.3273	1186.5	303.3
930.0009	1982.9227	1188.05	304.6
930.1388	1984.5173	1184.25	302.7
930.2767	1986.1112	1181	298.85
930.4146	1987.7044	1182.2	301.95
930.5525	1989.2968	1179.15	295.4
930.6904	1990.8885	1180.7	295.6
930.8282	1992.4795	1181.45	298
930.966	1994.0697	1177.9	296.65
931.1038	1995.6592	1175.65	292.25
931.2415	1997.2479	1174.15	291.7
931.3793	1998.8359	1175.2	292.55
931.517	2000.4232	1170.75	290.45
931.6547	2002.0097	1173.05	293.75
931.7923	2003.5955	1172.65	290
931.93	2005.1805	1173.05	289.2
932.0676	2006.7648	1174.45	294
932.2052	2008.3484	1174.15	291.65
932.3427	2009.9312	1171.5	289.2
932.4803	2011.5133	1167.75	288.1
932.6178	2013.0946	1171.65	293
932.7553	2014.6752	1165.9	286.55
932.8928	2016.2551	1162.95	280.3
933.0302	2017.8342	1165.45	284.5
933.1676	2019.4126	1165	282.75
933.305	2020.9902	1162.85	281.65
933.4424	2022.5672	1162.15	280.85
933.5798	2024.1433	1168	283.8
933.7171	2025.7188	1161.1	282.7
933.8544	2027.2935	1159.75	277.65
933.9917	2028.8674	1155.7	275.95
934.129	2030.4406	1156.15	277.1
934.2662	2032.0131	1156.3	276.7
934.4034	2033.5849	1162.5	279.2
934.5406	2035.1559	1156.7	277.3
934.6778	2036.7261	1159.65	278.7
934.8149	2038.2957	1162.1	280.7
934.952	2039.8645	1157.9	278.35
935.0891	2041.4325	1164.05	280.4
935.2262	2042.9998	1151.95	270.15
935.3632	2044.5664	1160.4	279.3
935.5002	2046.1323	1148.4	268.1
935.6372	2047.6974	1149.85	270.7
935.7742	2049.2617	1149.65	269.95
935.9111	2050.8254	1184.55	270.15
936.048	2052.3883	1151.1	269.65
936.1849	2053.9504	1150.35	269.1
936.3218	2055.5118	1149.6	268.95
936.4586	2057.0725	1150.7	264.4
936.5955	2058.6325	1145.2	264.25
936.7323	2060.1917	1144.65	264.75
936.869	2061.7502	1147.05	264.7
937.0058	2063.3079	1144.8	263.95
937.1425	2064.8649	1150.25	266.2
937.2792	2066.4212	1147.55	264.5
937.4159	2067.9767	1145.1	265.75
937.5525	2069.5315	1149.85	269.6
937.6891	2071.0856	1144.55	265.5
937.8257	2072.6389	1142.9	260.55
937.9623	2074.1915	1142.1	263.15
938.0989	2075.7433	1143.5	259.65
938.2354	2077.2945	1141.75	262.15
938.3719	2078.8448	1137.6	257.6
938.5084	2080.3945	1139.35	258.85
938.6448	2081.9434	1140.75	259.65
938.7812	2083.4916	1140.15	259.7
938.9176	2085.039	1139.9	257.55
939.054	2086.5857	1140.25	255.7
939.1903	2088.1317	1138.65	256.75
939.3267	2089.677	1141	258.8
939.463	2091.2215	1140.25	255.95
939.5992	2092.7652	1140.65	254.9
939.7355	2094.3083	1141.05	260.55
939.8717	2095.8506	1135.5	253.6
940.0079	2097.3921	1134.85	254.05
940.1441	2098.933	1133.15	251.7
940.2802	2100.4731	1131.2	250.7
940.4163	2102.0124	1155.6	256.05
940.5524	2103.5511	1135.25	254.5
940.6885	2105.089	1131.9	251.65
940.8245	2106.6261	1136.3	253.7
940.9606	2108.1626	1133.15	251.35
941.0965	2109.6983	1165.6	257.35
941.2325	2111.2332	1133.85	252.35
941.3684	2112.7675	1134.1	250.5
941.5044	2114.301	1135.45	252.15
941.6403	2115.8337	1127	243.55
941.7761	2117.3657	1126.7	245.25
941.912	2118.897	1129.25	249.2
942.0478	2120.4276	1134.9	248.2
942.1835	2121.9575	1132.65	251.75
942.3193	2123.4866	1146.3	249.3
942.455	2125.0149	1130.8	246.25
942.5907	2126.5426	1124.3	244.55
942.7264	2128.0695	1124.7	240.15
942.8621	2129.5956	1127.7	249.4
942.9977	2131.1211	1123.45	239.55
943.1333	2132.6458	1121.7	240.9
943.2689	2134.1698	1126.2	242.6
943.4044	2135.693	1128.1	246.55
943.54	2137.2155	1127.75	243.15
943.6755	2138.7373	1130.55	249.05
943.8109	2140.2584	1121.65	241.85
943.9464	2141.7787	1129.9	245.45
944.0818	2143.2983	1120.9	241.9
944.2172	2144.8171	1120.65	241.1
944.3526	2146.3353	1120.15	236.3
944.4879	2147.8527	1117.7	237.8
944.6232	2149.3693	1118.95	238.5
944.7585	2150.8853	1125.3	242.9
944.8938	2152.4005	1116.65	231.8
945.029	2153.9149	1115.8	234.85
945.1642	2155.4287	1115.05	234.05
945.2994	2156.9417	1121.75	238.35
945.4346	2158.454	1118.75	234.65
945.5697	2159.9655	1116.95	236.35
945.7048	2161.4764	1111.9	230.9
945.8399	2162.9865	1114.45	231.55
945.9749	2164.4958	1113.15	229.95
946.1099	2166.0045	1118.4	234.75
946.2449	2167.5124	1113.9	233.65
946.3799	2169.0195	1114.95	232.4
946.5148	2170.526	1114.5	232.95
946.6498	2172.0317	1113.5	233.1
946.7846	2173.5367	1110.2	227.95
946.9195	2175.0409	1109.25	228.9
947.0543	2176.5445	1111.4	231.55
947.1891	2178.0473	1109.1	227.1
947.3239	2179.5494	1114.2	229.25
947.4587	2181.0507	1110.5	231.25
947.5934	2182.5513	1107	226.45
947.7281	2184.0512	1108.65	224.4
947.8628	2185.5504	1106.8	227.1
947.9974	2187.0488	1104.35	221.8
948.132	2188.5465	1102	222.95
948.2666	2190.0435	1103.45	224.85
948.4012	2191.5397	1107.7	227.95
948.5357	2193.0353	1103.3	223.4
948.6702	2194.5301	1104.45	220.35
948.8047	2196.0241	1103	220.9
948.9392	2197.5175	1102.95	220.85
949.0736	2199.0101	1109.65	221.5
949.208	2200.502	1101.15	220.05
949.3424	2201.9931	1100.4	219.95
949.4767	2203.4835	1102.55	220.1
949.611	2204.9733	1118.05	220.6
949.7453	2206.4622	1096.9	216.15
949.8796	2207.9505	1099	215.85
950.0138	2209.438	1095.7	216.55
950.148	2210.9248	1097.85	215.4
950.2822	2212.4109	1100.15	222.45
950.4164	2213.8962	1099.2	215
950.5505	2215.3809	1099.55	217.35
950.6846	2216.8648	1097.8	215.3
950.8186	2218.3479	1103.15	215.5
950.9527	2219.8304	1094.25	211
951.0867	2221.3121	1098.1	213.7
951.2207	2222.7931	1089.55	207.55
951.3546	2224.2733	1092.55	209.2
951.4886	2225.7529	1091.05	207.65
951.6225	2227.2317	1088.6	205.55
951.7563	2228.7098	1087.9	209.3
951.8902	2230.1872	1088.3	208
952.024	2231.6638	1086.9	205.25
952.1578	2233.1397	1092.7	205.35
952.2916	2234.6149	1088.35	207.2
952.4253	2236.0894	1092.1	210.7
952.559	2237.5632	1095.9	204.7
952.6927	2239.0362	1081.3	201
952.8263	2240.5085	1084.5	202.4
952.9599	2241.9801	1083.6	202.7
953.0935	2243.4509	1085.35	205.1
953.2271	2244.921	1080.55	198.6
953.3606	2246.3904	1086.75	202
953.4941	2247.8591	1076.95	194.7
953.6276	2249.3271	1085.25	207.2
953.7611	2250.7943	1087.9	204.05
953.8945	2252.2608	1077.65	193.95
954.0279	2253.7266	1077.7	198.75
954.1612	2255.1917	1076.45	194.85
954.2946	2256.656	1077.05	195.25
954.4279	2258.1197	1076.5	194.95
954.5612	2259.5826	1078.55	197.6
954.6944	2261.0447	1077.3	196.95
954.8276	2262.5062	1074.65	189.4
954.9608	2263.9669	1077	195.05
955.094	2265.4269	1071.95	190.3
955.2271	2266.8862	1071.65	190.95
955.3602	2268.3448	1074.05	194.5
955.4933	2269.8026	1078.95	196.5
955.6264	2271.2598	1072.85	192.35
955.7594	2272.7162	1075.45	195.15
955.8924	2274.1719	1076.6	195.85
956.0253	2275.6268	1072.8	192.05
956.1583	2277.0811	1067.85	183.2
956.2912	2278.5346	1070.75	191.2
956.4241	2279.9874	1067.7	185.15
956.5569	2281.4395	1069.35	190.65
956.6897	2282.8908	1070.8	186.2
956.8225	2284.3414	1073.95	190.25
956.9553	2285.7914	1069.55	186.95
957.088	2287.2406	1072.3	190.65
957.2207	2288.689	1067.9	185.85
957.3534	2290.1368	1068.95	185.05
957.486	2291.5838	1073.15	189.55
957.6186	2293.0302	1069.1	184.95
957.7512	2294.4758	1067.6	186.85
957.8838	2295.9206	1071.3	186.4
958.0163	2297.3648	1068.95	187.3
958.1488	2298.8082	1069.5	188.95
958.2813	2300.251	1064.6	181
958.4137	2301.693	1069.85	185.9
958.5461	2303.1343	1063.2	181.9
958.6785	2304.5748	1061.5	179.25
958.8108	2306.0147	1059	178.65
958.9432	2307.4538	1062.95	178.9
959.0754	2308.8922	1064.85	185.15
959.2077	2310.3299	1062.55	181.85
959.3399	2311.7669	1057.7	175.65
959.4721	2313.2031	1059.3	177.3
959.6043	2314.6387	1059.05	178.55
959.7365	2316.0735	1062.25	182
959.8686	2317.5076	1059.95	176.7
960.0006	2318.941	1059.6	178.05
960.1327	2320.3737	1062.2	179.8
960.2647	2321.8056	1059.7	176.4
960.3967	2323.2369	1062.85	179.8
960.5287	2324.6674	1067.2	183.4
960.6606	2326.0972	1068.75	185.7
960.7925	2327.5263	1067.25	186.5
960.9244	2328.9547	1074.7	192.4
961.0562	2330.3823	1067.1	184.7
961.1881	2331.8092	1063.65	179.75
961.3198	2333.2355	1059.9	178.05
961.4516	2334.661	1059.7	178.35
961.5833	2336.0858	1055.65	170.75
961.715	2337.5098	1050.3	168.25
961.8467	2338.9332	1055.55	171.3
961.9783	2340.3558	1056.1	169.45
962.1099	2341.7778	1053.55	172.4
962.2415	2343.199	1053.25	168.5
962.373	2344.6195	1049.35	169.95
962.5045	2346.0393	1051.25	168.3
962.636	2347.4583	1053.5	171.85
962.7675	2348.8767	1058.6	175.65
962.8989	2350.2943	1050.4	167.5
963.0303	2351.7113	1049.35	164.05
963.1617	2353.1275	1053.6	172.6
963.293	2354.543	1060.7	170.15
963.4243	2355.9578	1050	165.5
963.5556	2357.3718	1049.5	166
963.6868	2358.7852	1047.65	162.15
963.818	2360.1978	1049.45	165.7
963.9492	2361.6098	1046.7	165.1
964.0803	2363.021	1049.6	165.55
964.2114	2364.4315	1047.6	162.2
964.3425	2365.8413	1044.9	163.3
964.4736	2367.2504	1044.15	161.1
964.6046	2368.6587	1048.45	166.5
964.7356	2370.0664	1043.6	163.45
964.8666	2371.4733	1047.25	164.5
964.9975	2372.8795	1042.95	159.35
965.1284	2374.285	1042	160.45
965.2593	2375.6899	1045.6	162.75
965.3901	2377.0939	1041.6	160.2
965.5209	2378.4973	1043	159.65
965.6517	2379.9	1043.5	162.05
965.7825	2381.3019	1039.35	157.3
965.9132	2382.7032	1041.9	158.1
966.0439	2384.1037	1036.45	157.85
966.1745	2385.5035	1045.4	164.3
966.3051	2386.9027	1040.85	160.2
966.4357	2388.3011	1045.05	157.35
966.5663	2389.6987	1040.05	155.1
966.6968	2391.0957	1038.3	156.35
966.8273	2392.492	1035.9	153.15
966.9578	2393.8876	1035.3	154.1
967.0882	2395.2824	1041.25	159.2
967.2186	2396.6765	1037.8	156.8
967.349	2398.07	1034.7	152.5
967.4793	2399.4627	1039	155.1
967.6097	2400.8547	1036.05	155.35
967.7399	2402.246	1039.85	150.95
967.8702	2403.6366	1038.15	156.75
968.0004	2405.0265	1034.05	151.55
968.1306	2406.4156	1037.6	151.9
968.2607	2407.8041	1035.75	148.9
968.3909	2409.1918	1035.9	150.8
968.521	2410.5789	1034.25	151.05
968.651	2411.9652	1035.1	149.65
968.781	2413.3508	1033.15	148.85
968.911	2414.7358	1032.55	150.35
969.041	2416.12	1029.9	147.2
969.1709	2417.5035	1030.65	146.85
969.3008	2418.8863	1029.8	145.9
969.4307	2420.2684	1031.65	148.2
969.5606	2421.6497	1029.3	144.35
969.6904	2423.0304	1029.65	149.8
969.8201	2424.4104	1030.45	147.3
969.9499	2425.7896	1031	145.55
970.0796	2427.1682	1026.75	144.1
970.2093	2428.546	1028.05	144.15
970.3389	2429.9232	1030.55	147.9
970.4685	2431.2996	1024.15	141.35
970.5981	2432.6753	1028.05	145.2
970.7277	2434.0503	1021.95	139.25
970.8572	2435.4246	1022.95	141.1
970.9867	2436.7982	1029.4	143.1
971.1161	2438.1711	1023.9	141.8
971.2456	2439.5433	1025.15	140.75
971.375	2440.9148	1026	142
971.5043	2442.2856	1022.4	140.7
971.6336	2443.6557	1029	142.6
971.7629	2445.025	1021.75	140
971.8922	2446.3937	1019.75	137.45
972.0214	2447.7617	1022.9	140.05
972.1506	2449.1289	1021.95	137.6
972.2798	2450.4955	1026.5	140.8
972.4089	2451.8613	1019	137.25
972.538	2453.2265	1018.65	136.85
972.6671	2454.5909	1020.15	136.75
972.7961	2455.9546	1020	138.25
972.9251	2457.3177	1018.25	135.3
973.0541	2458.68	1023.15	138.65
973.1831	2460.0416	1022.9	139.4
973.312	2461.4025	1020.95	137.8
973.4408	2462.7627	1029.8	136
973.5697	2464.1222	1017.5	137.75
973.6985	2465.4811	1023.4	141.4
973.8273	2466.8392	1017.85	135.45
973.956	2468.1966	1020.6	134.65
974.0847	2469.5533	1020.5	136.3
974.2134	2470.9093	1016.45	134.05
974.3421	2472.2645	1019	135.45
974.4707	2473.6191	1013.4	129.85
974.5993	2474.973	1015.8	133
974.7278	2476.3262	1015.55	131
974.8563	2477.6787	1015.55	135
974.9848	2479.0305	1012.65	131.2
975.1132	2480.3816	1017.4	134.05
975.2417	2481.7319	1018.75	137.05
975.37	2483.0816	1015.75	133.55
975.4984	2484.4306	1015.3	131.35
975.6267	2485.7789	1019.2	137.05
975.755	2487.1264	1015.3	131.3
975.8833	2488.4733	1010.25	128.45
976.0115	2489.8195	1018.45	127.75
976.1397	2491.165	1013.85	128.55
976.2678	2492.5097	1015.1	132.55
976.3959	2493.8538	1010.55	127.65
976.524	2495.1972	1015.05	132.7
976.6521	2496.5398	1014.45	128.75
976.7801	2497.8818	1011.9	126.35
976.9081	2499.2231	1011.45	128.4
977.036	2500.5637	1011.15	125.3
977.164	2501.9035	1012.45	129.05
977.2918	2503.2427	1014.2	128.5
977.4197	2504.5812	1010.6	127.9
977.5475	2505.919	1008.3	122.5
977.6753	2507.256	1008.8	125.45
977.8031	2508.5924	1009.95	126.6
977.9308	2509.9281	1017.25	128.5
978.0585	2511.2631	1007	124.65
978.1861	2512.5974	1007.6	124.35
978.3137	2513.9309	1006.75	124.05
978.4413	2515.2638	1039.65	125.9
978.5689	2516.596	1008.15	126.6
978.6964	2517.9275	1008.75	125.95
978.8239	2519.2583	1006.65	123.6
978.9513	2520.5884	1004.5	119.35
979.0788	2521.9178	1008.7	126.25
979.2062	2523.2465	1006.85	124.35
979.3335	2524.5745	1005.75	122.6
979.4608	2525.9018	1001.2	118.8
979.5881	2527.2284	1001.1	120.6
979.7154	2528.5543	1002.75	121.75
979.8426	2529.8796	1002.45	119.05
979.9698	2531.2041	1003.35	119.8
980.0969	2532.5279	999.15	117.85
980.224	2533.851	1006	122.4
980.3511	2535.1735	1004.9	123.9
980.4781	2536.4952	1003.45	121.1
980.6052	2537.8163	1000.1	117
980.7321	2539.1366	1003.35	122.2
980.8591	2540.4562	1004.8	122.5
980.986	2541.7752	998.5	115
981.1129	2543.0935	1002.35	119
981.2397	2544.411	999.45	117
981.3665	2545.7279	1001.4	119.05
981.4933	2547.0441	997.95	116.7
981.62	2548.3596	1005	118.65
981.7467	2549.6744	1000.2	117.95
981.8734	2550.9885	1008.1	117.15
982.0001	2552.3019	1000.25	118.95
982.1267	2553.6146	998.4	115.5
982.2532	2554.9266	998.1	114.9
982.3798	2556.2379	1001.1	118.3
982.5063	2557.5485	995.45	114.45
982.6327	2558.8585	1001.45	111.2
982.7592	2560.1677	1002.05	115.4
982.8856	2561.4762	995	112.85
983.0119	2562.7841	999.85	115.5
983.1383	2564.0913	996.2	114.75
983.2646	2565.3977	996	116.6
983.3908	2566.7035	995.5	114.1
983.517	2568.0086	997.75	113.7
983.6432	2569.313	998.55	116.45
983.7694	2570.6167	996.75	110.85
983.8955	2571.9197	994.25	113.95
984.0216	2573.222	998	110.75
984.1476	2574.5236	995.35	113.9
984.2737	2575.8246	998.9	113.1
984.3996	2577.1248	997.45	111.2
984.5256	2578.4244	997.65	117.1
984.6515	2579.7232	993.9	112.1
984.7774	2581.0214	1020.8	110.75
984.9032	2582.3189	996.55	116.2
985.029	2583.6157	994.85	107.6
985.1548	2584.9118	992.95	112
985.2806	2586.2072	998.45	117
985.4063	2587.5019	992.65	109.95
985.5319	2588.7959	996.25	114
985.6576	2590.0893	1001.4	115.95
985.7832	2591.3819	995.15	113.55
985.9087	2592.6739	993.5	112.65
986.0343	2593.9652	997	112.85
986.1597	2595.2557	996.15	114.4
986.2852	2596.5456	999.95	114.75
986.4106	2597.8348	994.8	112.7
986.536	2599.1234	999.95	117.35
986.6614	2600.4112	995.1	111.1
986.7867	2601.6983	999.55	115.65
986.912	2602.9848	1000.3	117.65
987.0372	2604.2705	1007.4	117.05
987.1624	2605.5556	997.25	114.55
987.2876	2606.84	998.8	115.2
987.4128	2608.1237	996.5	114.75
987.5379	2609.4067	992.8	111.65
987.6629	2610.689	1003.5	112.45
987.788	2611.9707	997.8	110.75
987.913	2613.2516	996.8	111.1
988.0379	2614.5319	992.6	112
988.1629	2615.8115	989.15	106.85
988.2878	2617.0903	993.2	108.4
988.4126	2618.3685	993.35	111.25
988.5375	2619.6461	992.45	110.45
988.6622	2620.9229	985.7	103.7
988.787	2622.199	993.55	110.2
988.9117	2623.4745	992.15	107.45
989.0364	2624.7493	986.45	106.35
989.161	2626.0234	988.5	107.7
989.2857	2627.2968	989.9	106.9
989.4102	2628.5695	989.95	108.05
989.5348	2629.8415	987.8	106.65
989.6593	2631.1128	988.5	106.1
989.7837	2632.3835	990.3	108.6
989.9082	2633.6535	984.85	103.05
990.0326	2634.9228	987.5	104.55
990.1569	2636.1914	982.2	98.55
990.2812	2637.4593	989.9	107.75
990.4055	2638.7265	985.2	102.7
990.5298	2639.9931	984.7	102.25
990.654	2641.259	985.4	103
990.7782	2642.5242	985.75	103.3
990.9023	2643.7887	982.4	101.1
991.0264	2645.0525	986.25	104.5
991.1505	2646.3156	987.85	106.05
991.2745	2647.5781	987.85	104.7
991.3985	2648.8398	982.1	101.05
991.5225	2650.1009	1019.85	101.1
991.6464	2651.3613	982.65	102.6
991.7703	2652.6211	980.95	99.45
991.8942	2653.8801	978.5	99.9
992.018	2655.1385	981.55	95.35
992.1418	2656.3961	981.65	100.3
992.2655	2657.6531	980.15	99.55
992.3892	2658.9094	977.4	94.35
992.5129	2660.1651	979.6	96.85
992.6366	2661.42	981.45	100.2
992.7602	2662.6743	981.65	98.95
992.8837	2663.9279	980.7	99.5
993.0073	2665.1808	979.7	96.85
993.1307	2666.433	982.85	101.85
993.2542	2667.6846	979.85	98.95
993.3776	2668.9354	986.8	101.45
993.501	2670.1856	981.2	100.15
993.6244	2671.4351	982.75	101.7
993.7477	2672.6839	984.45	101.3
993.8709	2673.9321	984.6	104.2
993.9942	2675.1795	980.55	98.05
994.1174	2676.4263	988.85	107.1
994.2405	2677.6724	986.25	105.45
994.3637	2678.9179	985.7	105.25
994.4868	2680.1626	981.9	100.85
994.6098	2681.4067	980.3	98.45
994.7328	2682.6501	986	105.15
994.8558	2683.8928	985.1	104.2
994.9788	2685.1348	980.2	97.25
995.1017	2686.3761	980.15	99.3
995.2245	2687.6168	980.3	97.55
995.3474	2688.8568	978.9	97.4
995.4702	2690.0961	977.35	96.6
995.5929	2691.3348	974.3	92.4
995.7156	2692.5727	976.7	94.55
995.8383	2693.81	976.55	96.25
995.961	2695.0466	973.6	94.1
996.0836	2696.2826	976.5	93.6
996.2062	2697.5178	999	97.85
996.3287	2698.7524	975.8	95.25
996.4512	2699.9863	980.55	96.4
996.5737	2701.2195	977.25	97
996.6961	2702.452	982.3	98
996.8185	2703.6839	979.85	97.45
996.9408	2704.9151	978.25	98.65
997.0631	2706.1456	980.95	98.25
997.1854	2707.3755	983	99.4
997.3077	2708.6046	981.85	97.55
997.4299	2709.8331	977.8	95.5
997.552	2711.0609	981.35	99.6
997.6742	2712.2881	981.35	99.7
997.7963	2713.5145	984.55	101.35
997.9183	2714.7403	987.85	105.5
998.0403	2715.9654	987.75	105.85
998.1623	2717.1899	1003.05	104.35
998.2842	2718.4136	986.5	103.45
998.4062	2719.6367	990.8	110.15
998.528	2720.8591	998.25	109.75
998.6498	2722.0809	995.4	114.25
998.7716	2723.3019	1001.25	117.05
998.8934	2724.5223	998.15	116
999.0151	2725.7421	997.15	114.05
999.1368	2726.9611	996.3	115.7
999.2584	2728.1795	997.85	110.7
999.38	2729.3972	991.1	110.4
999.5016	2730.6142	995.5	105.2
999.6231	2731.8306	986.7	103.95
999.7446	2733.0462	986.1	102.35
999.8661	2734.2612	985.45	99.05
999.9875	2735.4756	978.15	95.5
1000.1089	2736.6892	979.85	98.5
1000.2302	2737.9022	974.55	95.95
1000.3515	2739.1145	976.85	93.35
1000.4728	2740.3262	983.45	94.2
1000.594	2741.5372	974.4	93.9
1000.7152	2742.7475	972.5	92.6
1000.8363	2743.9571	976.45	93.75
1000.9575	2745.1661	977.7	93.15
1001.0785	2746.3744	970.7	88.95
1001.1996	2747.582	966.65	86.15
1001.3206	2748.7889	967.3	84.15
1001.4415	2749.9952	965.9	85.45
1001.5625	2751.2008	966.8	86
1001.6833	2752.4057	967.5	85.3
1001.8042	2753.61	964.2	83.1
1001.925	2754.8136	965.6	83.5
1002.0458	2756.0165	961.2	81
1002.1665	2757.2188	960.85	79.8
1002.2872	2758.4204	960.3	78.15
1002.4078	2759.6213	964.4	82.05
1002.5285	2760.8215	965.65	80.05
1002.649	2762.0211	965.7	83.25
1002.7696	2763.22	964.1	79
1002.8901	2764.4182	962.85	82.8
1003.0106	2765.6158	965.55	84.6
1003.131	2766.8127	961.25	79.15
1003.2514	2768.009	959.4	80.7
1003.3717	2769.2045	961.55	78.2
1003.492	2770.3994	959.85	76.1
1003.6123	2771.5936	958.8	77.75
1003.7325	2772.7872	955.3	74.45
1003.8527	2773.9801	955.65	73.8
1003.9729	2775.1723	977.05	76.7
1004.093	2776.3639	954.35	72.95
1004.2131	2777.5548	959.65	75.65
1004.3331	2778.745	955.4	74
1004.4531	2779.9346	955.8	73.95
1004.5731	2781.1235	958.25	78.1
1004.693	2782.3117	954.65	72.05
1004.8129	2783.4992	956.55	76.55
1004.9328	2784.6861	960.3	79.65
1005.0526	2785.8723	958	76.9
1005.1723	2787.0579	956.75	75.6
1005.2921	2788.2428	959.35	77.9
1005.4118	2789.427	958.2	77.45
1005.5314	2790.6106	955.25	74.75
1005.651	2791.7935	955.3	73.8
1005.7706	2792.9757	956.7	76.25
1005.8902	2794.1573	959.25	77.6
1006.0097	2795.3382	957.35	76.9
1006.1291	2796.5184	955.4	74.45
1006.2485	2797.698	959.55	76.7
1006.3679	2798.8769	961.7	82
1006.4873	2800.0551	960.25	77.1
1006.6066	2801.2327	962.4	80.15
1006.7258	2802.4096	961.8	80.15
1006.8451	2803.5859	963.9	82
1006.9642	2804.7615	963.75	81.95
1007.0834	2805.9364	963.5	81.85
1007.2025	2807.1106	963.5	84.35
1007.3216	2808.2842	967.45	85.35
1007.4406	2809.4572	967.8	86.35
1007.5596	2810.6294	970.9	89.35
1007.6785	2811.801	976.05	97.65
1007.7975	2812.972	973.45	92
1007.9163	2814.1423	980.9	100.75
1008.0352	2815.3119	984.9	103.55
1008.154	2816.4808	988.45	111.1
1008.2727	2817.6491	997.3	116.4
1008.3914	2818.8167	1001.7	124.65
1008.5101	2819.9837	1013.7	127.85
1008.6288	2821.15	1017.4	137.8
1008.7474	2822.3157	1031	150.9
1008.8659	2823.4807	1048.05	166.1
1008.9844	2824.645	1060.3	178.6
1009.1029	2825.8086	1075.7	197.85
1009.2214	2826.9716	1095.75	217.05
1009.3398	2828.134	1105.05	226.8
1009.4581	2829.2957	1120.05	238.2
1009.5764	2830.4567	1130.1	252.05
1009.6947	2831.617	1144.4	262.8
1009.813	2832.7767	1146.05	266.8
1009.9312	2833.9358	1144.1	264.95
1010.0493	2835.0941	1140.4	259.55
1010.1675	2836.2519	1133.4	252.3
1010.2855	2837.4089	1128.85	247.5
1010.4036	2838.5653	1119.35	238.45
1010.5216	2839.7211	1111	230.15
1010.6396	2840.8761	1108.75	226.25
1010.7575	2842.0306	1103.8	224
1010.8754	2843.1843	1107.85	226.4
1010.9932	2844.3374	1113.6	233.05
1011.111	2845.4899	1110.85	228.65
1011.2288	2846.6417	1120.75	242.15
1011.3465	2847.7928	1120.75	240.9
1011.4642	2848.9433	1123.45	242.8
1011.5818	2850.0931	1126.55	245.6
1011.6995	2851.2422	1124.55	243
1011.817	2852.3907	1126.9	246.45
1011.9345	2853.5385	1130.05	249.5
1012.052	2854.6857	1163.1	254.95
1012.1695	2855.8323	1134.4	253.6
1012.2869	2856.9781	1141.65	260.35
1012.4042	2858.1233	1151.15	271
1012.5216	2859.2679	1148.65	269
1012.6389	2860.4118	1160.05	281.9
1012.7561	2861.555	1172.4	288.75
1012.8733	2862.6976	1180.6	298.35
1012.9905	2863.8395	1178.65	298.45
1013.1076	2864.9808	1179.5	297.95
1013.2247	2866.1214	1185.75	306.45
1013.3417	2867.2614	1186.85	305.35
1013.4587	2868.4007	1192.55	311.55
1013.5757	2869.5393	1197.85	314
1013.6926	2870.6773	1203	318.2
1013.8095	2871.8146	1211.1	329.4
1013.9263	2872.9513	1211.1	329.25
1014.0431	2874.0874	1211.6	330.75
1014.1599	2875.2227	1218.7	338.3
1014.2766	2876.3574	1221.9	339.75
1014.3933	2877.4915	1229.3	349.3
1014.51	2878.6249	1225.05	344.65
1014.6266	2879.7577	1232.7	350.75
1014.7431	2880.8898	1250.2	360.1
1014.8596	2882.0212	1240.55	361.3
1014.9761	2883.152	1248.85	369.35
1015.0925	2884.2821	1254.25	375.6
1015.2089	2885.4116	1255.35	374.8
1015.3253	2886.5405	1260.1	380.05
1015.4416	2887.6686	1264.8	382.7
1015.5579	2888.7962	1261.2	382.3
1015.6741	2889.923	1265.5	386.15
1015.7903	2891.0493	1257	377.55
1015.9065	2892.1748	1266.15	384.05
1016.0226	2893.2997	1263.9	383.15
1016.1387	2894.424	1256.75	378.15
1016.2547	2895.5476	1259.15	378.6
1016.3707	2896.6706	1264.9	384
1016.4866	2897.7929	1270.3	390.05
1016.6025	2898.9145	1265.5	384.75
1016.7184	2900.0355	1259.45	379
1016.8342	2901.1559	1263.95	382.3
1016.95	2902.2756	1266.3	381
1017.0658	2903.3946	1261.95	383.3
1017.1815	2904.513	1254.65	370.7
1017.2971	2905.6308	1250.7	371.95
1017.4127	2906.7479	1255.1	373.45
1017.5283	2907.8643	1252.5	371.5
1017.6439	2908.9801	1254	374
1017.7594	2910.0953	1252.65	372.65
1017.8748	2911.2098	1253.4	369.25
1017.9902	2912.3236	1256.2	367.85
1018.1056	2913.4368	1255.2	372.3
1018.2209	2914.5494	1247.8	367.7
1018.3362	2915.6613	1250.9	364.35
1018.4515	2916.7725	1242.25	359.75
1018.5667	2917.8831	1231.55	349.5
1018.6819	2918.9931	1227.45	345.7
1018.797	2920.1024	1222.75	341.65
1018.9121	2921.211	1218.5	338
1019.0271	2922.319	1213.2	332.65
1019.1421	2923.4264	1213.05	332.2
1019.2571	2924.5331	1204.85	324.9
1019.372	2925.6391	1205.75	329.3
1019.4869	2926.7445	1203.45	324.6
1019.6017	2927.8493	1206.8	324.3
1019.7165	2928.9534	1207.8	326.8
1019.8313	2930.0569	1211	327.5
1019.946	2931.1597	1215.4	334.55
1020.0606	2932.2619	1218.35	339.4
1020.1753	2933.3634	1223.3	343.95
1020.2899	2934.4643	1228.95	342.4
1020.4044	2935.5645	1226.45	340
1020.5189	2936.6641	1229.9	346
1020.6334	2937.763	1228.55	349.8
1020.7478	2938.8613	1226.45	345.25
1020.8622	2939.959	1228.45	344.15
1020.9765	2941.056	1220.45	341.1
1021.0908	2942.1523	1209.35	329.35
1021.2051	2943.248	1195.4	314.45
1021.3193	2944.3431	1174	294.95
1021.4334	2945.4375	1160.45	280.6
1021.5476	2946.5313	1140.95	260.6
1021.6617	2947.6244	1130.1	249.6
1021.7757	2948.7169	1117.75	237.25
1021.8897	2949.8087	1100.7	219.35
1022.0037	2950.8999	1093.85	212.25
1022.1176	2951.9904	1081.4	202.5
1022.2315	2953.0803	1073.5	192.45
1022.3453	2954.1696	1066.1	185.75
1022.4591	2955.2582	1054.95	175.05
1022.5728	2956.3462	1055.45	176.5
1022.6865	2957.4335	1051.5	171.1
1022.8002	2958.5202	1054.85	172.7
1022.9138	2959.6062	1049.4	169.2
1023.0274	2960.6916	1055.6	175.05
1023.141	2961.7764	1052.95	173.25
1023.2545	2962.8605	1050.2	168.15
1023.3679	2963.9439	1049.35	170
1023.4813	2965.0267	1050.9	168.45
1023.5947	2966.1089	1066.8	165.85
1023.708	2967.1905	1046.4	167.2
1023.8213	2968.2714	1042.95	164
1023.9346	2969.3516	1040.85	160.05
1024.0478	2970.4312	1049.85	163.55
1024.1609	2971.5102	1037.45	157.8
1024.274	2972.5885	1042.65	162.5
1024.3871	2973.6662	1048.05	163.35
1024.5002	2974.7432	1041.35	164.85
1024.6132	2975.8196	1039.9	161.65
1024.7261	2976.8954	1039.45	159.2
1024.839	2977.9705	1041.1	162.7
1024.9519	2979.045	1041.65	163.35
1025.0647	2980.1188	1043	163.65
1025.1775	2981.192	1040	160.6
1025.2902	2982.2645	1037.6	156.45
1025.4029	2983.3364	1036	155.15
1025.5156	2984.4077	1026.15	146.4
1025.6282	2985.4783	1032.05	143.8
1025.7407	2986.5483	1022.15	143.7
1025.8532	2987.6177	1016.5	136.8
1025.9657	2988.6864	1015.15	137.65
1026.0782	2989.7545	1006.75	124.6
1026.1906	2990.8219	1003.85	125.9
1026.3029	2991.8887	1001.55	120.5
1026.4152	2992.9548	998.2	116.35
1026.5275	2994.0204	992.15	113.05
1026.6397	2995.0852	981.7	102.5
1026.7519	2996.1495	978.65	96.85
1026.864	2997.2131	975.05	95.1
1026.9761	2998.276	970.9	90.3
1027.0882	2999.3383	966.25	84
1027.2002	3000.4	957.35	78.8
1027.3122	3001.4611	954.45	73.35
1027.4241	3002.5215	954.3	75.2
1027.536	3003.5812	950.85	72
1027.6478	3004.6404	949.1	69
1027.7596	3005.6989	949.15	68.1
1027.8714	3006.7567	944.6	64.25
1027.9831	3007.8139	975.05	63.05
1028.0947	3008.8705	943.1	63.8
1028.2064	3009.9264	942.2	57.2
1028.3179	3010.9818	938.1	57.7
1028.4295	3012.0364	939.3	60.8
1028.541	3013.0905	936.3	57.05
1028.6524	3014.1439	935.25	54.4
1028.7638	3015.1966	936.5	54.95
1028.8752	3016.2487	932.05	53.8
1028.9865	3017.3002	934.35	50.9
1029.0978	3018.3511	933	54.4
1029.209	3019.4013	931.6	50.6
1029.3202	3020.4509	930.95	53.25
1029.4314	3021.4998	930.5	52.85
1029.5425	3022.5481	930.3	49.95
1029.6535	3023.5958	928.85	47.55
1029.7645	3024.6428	931	50.5
1029.8755	3025.6892	929.7	49.1
1029.9864	3026.735	926.15	46.45
1030.0973	3027.7802	930.6	50
1030.2082	3028.8247	925.9	46.35
1030.319	3029.8685	930.8	52.1
1030.4297	3030.9118	929.55	49.8
1030.5404	3031.9544	927	46.7
1030.6511	3032.9963	926.55	46.9
1030.7617	3034.0376	928.75	49.65
1030.8723	3035.0783	929.2	48.15
1030.9829	3036.1184	932	51.95
1031.0934	3037.1578	927.5	50.6
1031.2038	3038.1966	931.15	50.4
1031.3142	3039.2348	926.65	47
1031.4246	3040.2723	936.65	50.65
1031.5349	3041.3092	930.3	52.7
1031.6452	3042.3455	932.55	52.85
1031.7554	3043.3811	931.85	49.95
1031.8656	3044.4161	931.7	51.3
1031.9758	3045.4505	927.35	47.4
1032.0859	3046.4842	930.6	51.2
1032.1959	3047.5173	928.1	49.95
1032.3059	3048.5498	930.1	50.25
1032.4159	3049.5816	932.6	51.05
1032.5258	3050.6128	931.9	52.2
1032.6357	3051.6434	933.45	50.35
1032.7455	3052.6734	932.8	52.55
1032.8553	3053.7027	930.55	50.7
1032.9651	3054.7314	929.15	50.8
1033.0748	3055.7594	930.25	50.5
1033.1845	3056.7868	931.3	51.8
1033.2941	3057.8136	931	50.5
1033.4037	3058.8398	931.55	53.9
1033.5132	3059.8653	934.2	54.85
1033.6227	3060.8902	934.3	53.8
1033.7321	3061.9145	933.5	53
1033.8415	3062.9381	933.3	55.25
1033.9509	3063.9612	948.55	53.2
1034.0602	3064.9835	934.4	54.25
1034.1694	3066.0053	937.15	57.4
1034.2787	3067.0264	934.05	53.4
1034.3878	3068.0469	937.1	58.2
1034.497	3069.0668	935.45	51.8
1034.6061	3070.086	931.5	53.75
1034.7151	3071.1046	933.2	51.9
1034.8241	3072.1226	936	54.45
1034.9331	3073.1399	929.8	50.6
1035.042	3074.1567	930.3	50.05
1035.1508	3075.1727	931.85	49.8
1035.2597	3076.1882	926.85	48.65
1035.3684	3077.203	926.75	45.85
1035.4772	3078.2173	928.85	46.85
1035.5859	3079.2308	928.55	44.25
1035.6945	3080.2438	927.1	46.15
1035.8031	3081.2561	923.1	43.65
1035.9117	3082.2678	922.1	43.5
1036.0202	3083.2789	921.2	41.15
1036.1286	3084.2893	919.05	40.4
1036.2371	3085.2991	919.45	40.7
1036.3454	3086.3083	924.1	43.2
1036.4538	3087.3169	919.5	40.3
1036.562	3088.3248	920.15	37.2
1036.6703	3089.3321	917.45	35.85
1036.7785	3090.3388	916.35	38.1
1036.8866	3091.3449	914.6	35.15
1036.9948	3092.3503	917.3	35
1037.1028	3093.3551	914.55	35.75
1037.2108	3094.3593	913.8	36.35
1037.3188	3095.3629	913.45	34.05
1037.4267	3096.3658	915.85	35.75
1037.5346	3097.3681	916.95	35.8
1037.6425	3098.3698	915.8	35.45
1037.7503	3099.3708	912.35	32.45
1037.858	3100.3713	912.45	33.15
1037.9657	3101.3711	913.8	35.85
1038.0734	3102.3702	1050.85	35.25
1038.181	3103.3688	914.1	32.65
1038.2886	3104.3667	908.7	31.1
1038.3961	3105.364	911.05	33.95
1038.5036	3106.3607	911.85	31.1
1038.611	3107.3568	909.7	29.6
1038.7184	3108.3522	911	31.75
1038.8257	3109.347	908.1	27.65
1038.933	3110.3412	914.65	31.6
1039.0403	3111.3348	909.25	31
1039.1475	3112.3277	908.4	28.35
1039.2547	3113.32	908.3	28.85
1039.3618	3114.3117	905.05	23.6
1039.4689	3115.3028	906.65	27.75
1039.5759	3116.2932	909.25	27.85
1039.6829	3117.2831	909.3	26.6
1039.7898	3118.2723	905.65	26.75
1039.8967	3119.2608	905.75	26.5
1040.0035	3120.2488	902.85	21.75
1040.1103	3121.2361	905.75	27.6
1040.2171	3122.2229	903.9	24.75
1040.3238	3123.209	905.45	22.25
1040.4305	3124.1944	904.25	26.2
1040.5371	3125.1793	905.1	24.9
1040.6437	3126.1635	903.05	23.9
1040.7502	3127.1471	902.4	24.15
1040.8567	3128.1301	903.7	25
1040.9631	3129.1125	901.55	24.05
1041.0695	3130.0942	901.6	21.45
1041.1759	3131.0753	909.65	22.85
1041.2822	3132.0558	903.25	20.6
1041.3884	3133.0357	901.05	21.95
1041.4946	3134.015	903.1	23.15
1041.6008	3134.9936	902.65	22.95
1041.7069	3135.9716	920.1	21.35
1041.813	3136.949	899.9	23.25
1041.919	3137.9258	916.95	20.3
1042.025	3138.902	906	21.05
1042.1309	3139.8775	900.55	22.4
1042.2368	3140.8524	900	20.35
1042.3427	3141.8267	903.7	23.25
1042.4485	3142.8004	900.6	20.55
1042.5542	3143.7735	903.6	18.6
1042.6599	3144.7459	900.8	17.6
1042.7656	3145.7178	899.5	19.45
1042.8712	3146.689	899.9	20.05
1042.9768	3147.6596	900.95	20.6
1043.0823	3148.6295	899.75	19.55
1043.1878	3149.5989	900.55	22.45
1043.2932	3150.5676	897.55	19.35
1043.3986	3151.5357	897.15	20.1
1043.5039	3152.5032	897.8	19.95
1043.6092	3153.4701	899.6	20.5
1043.7145	3154.4364	898.3	16.5
1043.8197	3155.402	898.75	21.05
1043.9248	3156.367	899.3	17.65
1044.03	3157.3315	934.65	19.75
1044.135	3158.2952	897.45	18.55
1044.24	3159.2584	897.2	17.45
1044.345	3160.221	895.45	14.75
1044.4499	3161.1829	898.5	19.65
1044.5548	3162.1442	896.7	17.35
1044.6596	3163.105	895.4	18.2
1044.7644	3164.065	896.15	17.25
1044.8692	3165.0245	899.1	17.45
1044.9739	3165.9834	895.55	18.65
1045.0785	3166.9416	895.55	15.05
1045.1831	3167.8993	896.25	16.8
1045.2877	3168.8563	897.15	17.15
1045.3922	3169.8127	896.65	18.1
1045.4966	3170.7684	897.6	18.75
1045.6011	3171.7236	896.75	15
1045.7054	3172.6782	896.65	19.1
1045.8098	3173.6321	894.3	14.05
1045.914	3174.5854	898.3	15.5
1046.0183	3175.5381	895.25	17.25
1046.1224	3176.4902	892.95	13.5
1046.2266	3177.4417	891.4	13.25
1046.3307	3178.3926	895.4	17.45
1046.4347	3179.3428	894.7	16.1
1046.5387	3180.2924	893.5	16
1046.6427	3181.2415	894.2	14
1046.7466	3182.1899	895.2	14.6
1046.8504	3183.1377	893.25	15.05
1046.9542	3184.0848	899.55	17.5
1047.058	3185.0314	893.2	13.3
1047.1617	3185.9773	894	12.95
1047.2654	3186.9227	893.25	10.8
1047.369	3187.8674	894.05	15.5
1047.4726	3188.8115	898.75	14.95
1047.5761	3189.755	892.7	14.8
1047.6796	3190.6979	895.9	17
1047.783	3191.6402	894.25	14.9
1047.8864	3192.5818	892.85	13
1047.9898	3193.5229	917.3	12.95
1048.0931	3194.4633	891.05	13.4
1048.1963	3195.4031	893.9	14.6
1048.2995	3196.3423	894.7	14.85
1048.4027	3197.2809	893.75	15.95
1048.5058	3198.2189	890.6	12.6
1048.6089	3199.1563	898.2	12.2
1048.7119	3200.0931	894.2	16.55
1048.8148	3201.0292	890.95	11.25
1048.9178	3201.9648	890.15	11.45
1049.0206	3202.8997	896.45	15.7
1049.1235	3203.834	890.9	13.45
1049.2262	3204.7677	892.65	13.85
1049.329	3205.7008	892.8	10.95
1049.4317	3206.6333	889.65	11.1
1049.5343	3207.5652	895.3	14.1
1049.6369	3208.4964	891.9	12.8
1049.7394	3209.4271	890.1	12.3
1049.8419	3210.3571	892.2	12.85
1049.9444	3211.2865	891	11.65
1050.0468	3212.2154	893.85	14.3
1050.1491	3213.1436	895.5	14.7
1050.2514	3214.0712	898.8	13.9
1050.3537	3214.9982	891.55	12.9
1050.4559	3215.9246	889.35	10.25
1050.5581	3216.8503	890.3	12.4
1050.6602	3217.7755	890.65	10.35
1050.7623	3218.7001	891.8	12.55
1050.8643	3219.624	890.5	12.15
1050.9663	3220.5473	893	12.25
1051.0682	3221.4701	891.45	12.7
1051.1701	3222.3922	892.45	10.2
1051.2719	3223.3137	892.2	14.1
1051.3737	3224.2346	891.15	13.45
1051.4754	3225.1549	888.35	7.7
1051.5771	3226.0746	890.75	12.2
1051.6788	3226.9937	890.9	9.6
1051.7804	3227.9121	889.9	12.15
1051.8819	3228.83	889.15	9.8
1051.9834	3229.7473	890.35	11.2
1052.0849	3230.6639	889.6	10.25
1052.1863	3231.5799	888.6	10.15
1052.2876	3232.4954	891.05	10.85
1052.3889	3233.4102	888.25	10.05
1052.4902	3234.3244	887.2	7.2
1052.5914	3235.238	887.8	7.35
1052.6926	3236.151	912.4	6.95
1052.7937	3237.0634	889.1	12.85
1052.8948	3237.9752	891.8	12.1
1052.9958	3238.8864	889.65	9.45
1053.0968	3239.797	890.7	11.65
1053.1977	3240.7069	889.2	8.7
1053.2986	3241.6163	889.3	10.25
1053.3994	3242.5251	886.35	8.8
1053.5002	3243.4332	886.4	9.1
1053.6009	3244.3408	889.7	9.35
1053.7016	3245.2477	888.05	9.2
1053.8022	3246.154	890.1	10.25
1053.9028	3247.0598	889.05	9.6
1054.0034	3247.9649	888.7	9.1
1054.1039	3248.8694	889.3	9.9
1054.2043	3249.7733	887.75	8.6
1054.3047	3250.6766	887.1	8.25
1054.4051	3251.5793	890.5	10.65
1054.5054	3252.4814	888.5	10.3
1054.6056	3253.3829	888.55	10.25
1054.7058	3254.2838	887.9	10
1054.806	3255.1841	886.75	9.45
1054.9061	3256.0838	889.25	12.25
1055.0061	3256.9829	886.8	8.25
1055.1062	3257.8814	886.9	6.85
1055.2061	3258.7792	891	11.7
1055.306	3259.6765	888.5	9.7
1055.4059	3260.5731	888.35	8.45
1055.5057	3261.4692	886.4	6.7
1055.6055	3262.3647	889.25	10.05
1055.7052	3263.2595	887.8	7.5
1055.8049	3264.1538	884.65	5.35
1055.9045	3265.0474	886.85	6.5
1056.0041	3265.9404	887	8.55
1056.1036	3266.8329	888.05	10.7
1056.2031	3267.7247	897.15	9.25
1056.3025	3268.616	886.05	7.7
1056.4019	3269.5066	886.55	7.4
1056.5013	3270.3966	887.3	6.5
1056.6005	3271.286	885.65	6.75
