Software Version:	3.9.2.0
Unit SN:	10000200
Spectrometer SN:	6960
Date:	3/8/2024 1:15:28 PM
Data Line Index:	25
Spectral Points:	2048
Integration time (ms):	125
Averages:	20
Delay (ms):	30000
Sequence Number:	1
Processing:	dark subtract
Laser Power (mW):	300
Laser Current (mA):	822
Laser Diode Temp (C):	25.1
Laser Case Temp (C):	26.1
System Temp (C):	26.1
Spectrometer Temp (C):	24
CCD Temp (C):	0.008
Secondary Temp (C):	20.004
Heatsink Temp (C):	20.41
CCDPCB Temp (C):	36.007
SecondaryPCB Temp (C):	29.904

Wavelength	RamanShift	Raw Counts	Dark Subtracted
787.061	30.1047	452.2	43.95
787.2016	32.3739	453.9	47.55
787.3422	34.6426	462.05	54.55
787.4828	36.9109	463	54.8
787.6235	39.1787	475.25	61.5
787.7642	41.4461	482.7	66.9
787.9049	43.7131	494.4	72.6
788.0456	45.9796	502.05	77.7
788.1863	48.2456	511.15	84.8
788.3271	50.5112	517.45	84.15
788.4679	52.7764	523.55	86.75
788.6087	55.0411	537.85	96.95
788.7496	57.3054	548.4	100.65
788.8904	59.5692	555.45	107.95
789.0313	61.8326	568.5	120.4
789.1722	64.0955	582.45	130.25
789.3132	66.3579	594.8	137.35
789.4541	68.6199	617.7	155.05
789.5951	70.8815	651.55	184.65
789.7361	73.1426	732.75	261.65
789.8771	75.4032	931.6	459.1
790.0181	77.6634	1428.5	949.15
790.1592	79.9231	2594.3	2105
790.3003	82.1824	5128.55	4620.25
790.4414	84.4412	9669.95	9130.75
790.5825	86.6995	15878.95	15296.75
790.7237	88.9574	21939	21320.7
790.8648	91.2148	26090	25442.15
791.006	93.4717	27972.4	27314.2
791.1472	95.7282	28333.9	27666.3
791.2885	97.9842	28064.4	27387.85
791.4297	100.2398	27481.45	26803.45
791.571	102.4949	26756.3	26074.1
791.7123	104.7495	25928.95	25248.15
791.8536	107.0036	25069.95	24386.15
791.9949	109.2573	24285.55	23607.2
792.1363	111.5105	23527.75	22846.1
792.2777	113.7632	22811.8	22123.6
792.4191	116.0154	22258.75	21560.65
792.5605	118.2672	21827.3	21133.9
792.7019	120.5185	21324.5	20631.7
792.8434	122.7693	20979.4	20282.6
792.9849	125.0197	20711.9	20011.7
793.1264	127.2696	20398.65	19695.75
793.2679	129.519	20238.85	19528.45
793.4094	131.7679	19981.75	19275.1
793.551	134.0163	19791.4	19080.15
793.6926	136.2642	19525.3	18811.2
793.8342	138.5117	19235.3	18509.1
793.9758	140.7587	18938.2	18218.15
794.1175	143.0052	18626.25	17899.65
794.2591	145.2512	18381	17659.15
794.4008	147.4967	18125.95	17402
794.5425	149.7417	17908.4	17180.25
794.6842	151.9863	17773.65	17045.3
794.826	154.2304	17708.8	16969.25
794.9677	156.4739	17593.4	16851.6
795.1095	158.717	17486.05	16746.45
795.2513	160.9596	17314.5	16565.8
795.3931	163.2017	17052.05	16303.65
795.535	165.4433	16752.45	16001.85
795.6768	167.6844	16411.8	15659.55
795.8187	169.925	16098.7	15342.75
795.9606	172.1651	15748.4	14994.2
796.1025	174.4047	15453.8	14698.8
796.2445	176.6439	15196.35	14436.65
796.3864	178.8825	14986.7	14223.5
796.5284	181.1206	14827.65	14057
796.6704	183.3582	14664.15	13888.9
796.8124	185.5954	14576.1	13802.2
796.9544	187.832	14492.6	13713.85
797.0965	190.0681	14450.3	13667.85
797.2386	192.3037	14468.35	13682.55
797.3806	194.5388	14449.1	13662.75
797.5228	196.7734	14513.35	13724.45
797.6649	199.0075	14560.35	13772.35
797.807	201.2411	14681	13886
797.9492	203.4742	14789.9	13998.4
798.0914	205.7068	14918	14113.3
798.2336	207.9389	15011.65	14216.8
798.3758	210.1704	15209.55	14414.7
798.518	212.4015	15300.7	14519.15
798.6603	214.632	15476.7	14701.4
798.8025	216.862	15627.35	14851.65
798.9448	219.0915	15742.85	14964.55
799.0871	221.3205	15940.7	15157.5
799.2294	223.549	16139.9	15362.85
799.3718	225.777	16335.9	15559.55
799.5141	228.0044	16581.2	15794.55
799.6565	230.2314	16944.3	16158.25
799.7989	232.4578	17269.3	16479.25
799.9413	234.6837	17529.15	16733.2
800.0837	236.909	17713.7	16914.35
800.2262	239.1339	17689.5	16859.1
800.3687	241.3582	17514.15	16701.35
800.5111	243.582	17305.55	16456.25
800.6536	245.8053	17079.4	16254.9
800.7961	248.0281	16845.8	16027.75
800.9387	250.2503	16701.75	15880.55
801.0812	252.472	16617.35	15788.4
801.2238	254.6932	16629.3	15800.85
801.3664	256.9139	16624.8	15799
801.509	259.134	16731.4	15903.4
801.6516	261.3536	16797.4	15964.3
801.7942	263.5727	16995.6	16161.7
801.9369	265.7912	17086	16254.5
802.0795	268.0092	17210.7	16377.75
802.2222	270.2267	17242.55	16412.3
802.3649	272.4436	17234.9	16401.3
802.5076	274.6601	17246.2	16403.65
802.6504	276.8759	17152.15	16314
802.7931	279.0913	17085.15	16244.35
802.9359	281.3061	16956.65	16113.6
803.0787	283.5204	16997.75	16153.1
803.2215	285.7341	17043.35	16191
803.3643	287.9473	17165.8	16308.3
803.5071	290.16	17324.65	16471
803.6499	292.3721	17516.9	16678.1
803.7928	294.5837	17888.8	17041.55
803.9357	296.7947	18193.1	17343.5
804.0786	299.0052	18377.55	17533
804.2215	301.2152	18259	17410.5
804.3644	303.4246	17970.05	17125.25
804.5074	305.6334	17513.55	16668.6
804.6503	307.8418	17025.8	16178.1
804.7933	310.0495	16611.85	15756.85
804.9363	312.2568	16240.65	15389.05
805.0793	314.4635	15976	15120.25
805.2223	316.6696	15791.55	14929.7
805.3653	318.8752	15701	14832.9
805.5084	321.0802	15711.25	14850.4
805.6514	323.2847	15795.75	14934.25
805.7945	325.4887	15811.1	14943.25
805.9376	327.692	15763.95	14899.8
806.0807	329.8949	15696.45	14829.65
806.2238	332.0972	15448.7	14582.7
806.367	334.2989	15228.8	14362.85
806.5101	336.5001	14921.55	14054.75
806.6533	338.7007	14754.6	13886.25
806.7965	340.9008	14619.85	13750.5
806.9397	343.1003	14471.85	13605.75
807.0829	345.2992	14417.85	13542.65
807.2261	347.4976	14323.25	13449.05
807.3693	349.6955	14327.25	13449.65
807.5126	351.8927	14371.05	13491.1
807.6559	354.0895	14345.35	13454
807.7991	356.2856	14361.5	13480.1
807.9424	358.4812	14316.35	13433.15
808.0857	360.6763	14366.35	13483.55
808.2291	362.8707	14365.95	13482.85
808.3724	365.0646	14372.7	13489.4
808.5158	367.258	14412.65	13527.9
808.6591	369.4508	14432.5	13540.6
808.8025	371.643	14575.55	13684.45
808.9459	373.8346	14589.3	13694.75
809.0893	376.0257	14596.15	13699.85
809.2327	378.2162	14551.8	13658.85
809.3762	380.4062	14501.2	13612.25
809.5196	382.5956	14384.4	13496.75
809.6631	384.7844	14268.3	13386.55
809.8066	386.9726	14159.4	13279.65
809.9501	389.1603	14088.75	13204.55
810.0936	391.3474	14047.9	13138.1
810.2371	393.5339	14028.95	13142.75
810.3806	395.7199	14002.15	13118.55
810.5241	397.9052	14045.15	13164.25
810.6677	400.09	14045	13160.85
810.8113	402.2743	14152.65	13265.8
810.9548	404.4579	14279.95	13395.25
811.0984	406.641	14457.1	13570.5
811.2421	408.8235	14640.15	13756.45
811.3857	411.0054	14954.1	14062.5
811.5293	413.1868	15254.3	14358.15
811.673	415.3675	15474.8	14572.9
811.8166	417.5477	15598.3	14699.9
811.9603	419.7273	15644.05	14747.35
812.104	421.9064	15530.35	14626.55
812.2477	424.0848	15412.75	14517.7
812.3914	426.2627	15222.35	14326.6
812.5351	428.4399	14980.45	14079.15
812.6788	430.6166	14621.65	13714.45
812.8226	432.7928	14258.65	13355.75
812.9663	434.9683	13946.85	13046.05
813.1101	437.1432	13738.6	12840.15
813.2539	439.3176	13566.25	12673
813.3977	441.4914	13455.15	12562.7
813.5415	443.6645	13409.95	12519
813.6853	445.8371	13381.05	12479.85
813.8291	448.0091	13353.2	12455.95
813.973	450.1806	13316.65	12420.65
814.1168	452.3514	13290.75	12395
814.2607	454.5216	13303.9	12398.45
814.4046	456.6913	13252.45	12352.4
814.5485	458.8603	13306.25	12414.25
814.6924	461.0288	13342.15	12449.75
814.8363	463.1967	13344.6	12454.3
814.9802	465.3639	13443.65	12549.2
815.1241	467.5306	13489.35	12587.75
815.2681	469.6967	13578.3	12689.25
815.412	471.8622	13701.15	12806.45
815.556	474.0271	13803.55	12909.55
815.7	476.1914	13857	12953.8
815.844	478.3551	13853.35	12953.65
815.988	480.5182	13868.85	12970.85
816.132	482.6807	13913.4	13022.65
816.276	484.8426	14028	13150.1
816.4201	487.0039	14357.65	13471
816.5641	489.1647	14749.3	13851.85
816.7082	491.3248	15130.15	14229.35
816.8522	493.4843	15281.55	14389.05
816.9963	495.6432	15305.85	14409.1
817.1404	497.8015	15169	14260.2
817.2845	499.9592	15128.7	14214.95
817.4286	502.1163	15016	14106.95
817.5727	504.2728	14713.3	13808.35
817.7168	506.4287	14431.25	13546.65
817.861	508.5839	14046.85	13156.65
818.0051	510.7386	13802.3	12906.15
818.1493	512.8927	13648.85	12740.1
818.2935	515.0461	13581.05	12670.55
818.4377	517.199	13606	12692.45
818.5818	519.3512	13698.8	12789.65
818.726	521.5029	13833.3	12920.55
818.8703	523.6539	13986.8	13076.5
819.0145	525.8043	14030.15	13119.6
819.1587	527.9541	14007.3	13092.15
819.303	530.1033	13958.1	13049.25
819.4472	532.2519	13906.85	12991.2
819.5915	534.3999	13945.85	13031.95
819.7357	536.5472	14165.8	13257.6
819.88	538.694	14514.2	13609.2
820.0243	540.8401	14971.05	14060
820.1686	542.9856	15379.25	14460.85
820.3129	545.1305	15486.25	14554.85
820.4572	547.2748	15348.6	14420.3
820.6016	549.4185	15072.65	14139.25
820.7459	551.5615	14826.25	13895.35
820.8902	553.704	14722.55	13796.7
821.0346	555.8458	14730.55	13810.65
821.1789	557.987	14823.35	13904.15
821.3233	560.1276	14887	13964.1
821.4677	562.2675	15083.45	14161.25
821.6121	564.4069	15327.35	14405.6
821.7565	566.5456	15490.85	14567.1
821.9009	568.6837	15500.9	14582.95
822.0453	570.8212	15187.6	14269.8
822.1897	572.958	14712	13791.3
822.3342	575.0942	14268.25	13348.05
822.4786	577.2299	13983.75	13072.45
822.6231	579.3648	13855.05	12956.9
822.7675	581.4992	13918.6	13029.55
822.912	583.6329	14062.95	13174.3
823.0565	585.766	14235.1	13340.9
823.201	587.8985	14411.15	13510.5
823.3454	590.0304	14447.75	13511.4
823.4899	592.1616	14338.3	13417.45
823.6345	594.2922	14257.75	13331.45
823.779	596.4222	14092.35	13163.35
823.9235	598.5515	13896.35	12968.2
824.068	600.6802	13745.15	12816.85
824.2126	602.8083	13576.45	12651.9
824.3571	604.9358	13533.8	12609.65
824.5017	607.0626	13502.85	12576.75
824.6462	609.1888	13581.15	12647.1
824.7908	611.3144	13586.7	12654.95
824.9354	613.4393	13573.6	12636.95
825.08	615.5636	13553.75	12618.45
825.2246	617.6873	13508.35	12573.1
825.3692	619.8103	13460.4	12529.1
825.5138	621.9327	13315.75	12384.85
825.6584	624.0544	13182.7	12256.8
825.803	626.1756	13130.75	12203.9
825.9477	628.2961	13003.05	12074.75
826.0923	630.4159	12942.1	12010.4
826.237	632.5351	12933.15	12001.05
826.3816	634.6537	12918.4	11984.8
826.5263	636.7716	12887.3	11946.4
826.6709	638.8889	12917.65	11976.2
826.8156	641.0056	12942.9	11995.9
826.9603	643.1216	12918.6	11979.65
827.105	645.237	12901.2	11963.2
827.2497	647.3518	12865.35	11935.45
827.3944	649.4659	12868.35	11947.05
827.5391	651.5793	12858.55	11932.85
827.6838	653.6922	12830.95	11903.3
827.8285	655.8043	12834.65	11905.5
827.9733	657.9159	12829.55	11901.95
828.118	660.0268	12764.35	11834.55
828.2627	662.137	12705.05	11769.2
828.4075	664.2466	12711.15	11771.9
828.5522	666.3556	12728.6	11790.85
828.697	668.4639	12691	11758.15
828.8418	670.5716	12707.5	11782.7
828.9865	672.6786	12714.9	11783.25
829.1313	674.785	12766.55	11827.35
829.2761	676.8907	12792	11859.05
829.4209	678.9958	12824.15	11894.95
829.5657	681.1002	12791.75	11854.95
829.7105	683.204	12784.4	11835.35
829.8553	685.3072	12776.9	11834.9
830.0001	687.4097	12715.95	11779.5
830.1449	689.5115	12671.5	11728.8
830.2898	691.6127	12645.75	11712.1
830.4346	693.7132	12648.9	11712.8
830.5794	695.8131	12625.55	11678.75
830.7243	697.9123	12633.7	11689.4
830.8691	700.0109	12607	11659.65
831.014	702.1089	12625.95	11688.7
831.1588	704.2061	12630.45	11687.9
831.3037	706.3028	12672.5	11726.65
831.4486	708.3987	12739.6	11797.4
831.5935	710.4941	12781.2	11840.3
831.7383	712.5887	12917.6	11975.15
831.8832	714.6827	13132.8	12189
832.0281	716.7761	13402.4	12465.9
832.173	718.8688	13662.9	12722.5
832.3179	720.9608	13840.8	12894.35
832.4628	723.0522	13966.25	13009.7
832.6077	725.1429	13887.75	12941.05
832.7527	727.233	13752.75	12810.05
832.8976	729.3224	13627.25	12687
833.0425	731.4112	13427.4	12484.8
833.1874	733.4993	13241.55	12297.25
833.3324	735.5867	13049.95	12104.75
833.4773	737.6735	12927.5	11981.25
833.6222	739.7596	12801.75	11855.6
833.7672	741.845	12712.2	11767.9
833.9122	743.9298	12699.35	11752.55
834.0571	746.014	12675.35	11729.8
834.2021	748.0974	12691.8	11740.25
834.347	750.1802	12704.2	11749.8
834.492	752.2624	12708.4	11755.6
834.637	754.3439	12744.2	11792.55
834.782	756.4247	12836.15	11875.4
834.9269	758.5048	12972.95	12021.1
835.0719	760.5843	13250.6	12296.55
835.2169	762.6631	13592.85	12638.8
835.3619	764.7413	14102.25	13151.3
835.5069	766.8188	14756.45	13802.55
835.6519	768.8956	15256.1	14303.75
835.7969	770.9718	15554.95	14603.15
835.9419	773.0473	15435.05	14482.65
836.0869	775.1221	15125.85	14176.6
836.232	777.1962	14813.2	13863.05
836.377	779.2697	14641.6	13689.85
836.522	781.3426	14710.95	13748.95
836.667	783.4147	14877.35	13923.25
836.8121	785.4862	15106.3	14156.15
836.9571	787.557	15047.3	14095.55
837.1021	789.6271	14652.9	13698.1
837.2472	791.6966	14083.75	13131.75
837.3922	793.7654	13508.15	12553.55
837.5373	795.8335	13183.75	12229.9
837.6823	797.901	12942.6	11989.7
837.8274	799.9678	12828.5	11871.2
837.9724	802.0339	12797.85	11843.45
838.1175	804.0993	12831.85	11867.35
838.2626	806.1641	12779.4	11820.85
838.4076	808.2282	12719.9	11766.3
838.5527	810.2916	12640.5	11684.4
838.6978	812.3544	12549.35	11596.8
838.8428	814.4164	12508.65	11556.35
838.9879	816.4778	12504.35	11545.1
839.133	818.5385	12535.95	11577.6
839.2781	820.5986	12653.85	11694.2
839.4232	822.658	12812.05	11852.55
839.5682	824.7166	13016.35	12057.3
839.7133	826.7747	13375.9	12421.95
839.8584	828.832	13699.5	12742.15
840.0035	830.8886	13943.1	12980.05
840.1486	832.9446	14086.55	13127.7
840.2937	834.9999	14042.9	13085.25
840.4388	837.0545	13922.3	12961.75
840.5839	839.1085	13765.25	12806.65
840.729	841.1618	13607.3	12644.95
840.8741	843.2143	13506.55	12544.7
841.0192	845.2662	13383.9	12425.4
841.1643	847.3175	13263.55	12301.15
841.3095	849.368	13163.55	12205.75
841.4546	851.4179	13063.6	12102.7
841.5997	853.467	12961.6	12003.2
841.7448	855.5155	12871.8	11913.25
841.8899	857.5633	12794.55	11835.05
842.0351	859.6105	12673.7	11711.05
842.1802	861.6569	12633	11673.7
842.3253	863.7027	12561.6	11597.5
842.4704	865.7478	12537.4	11574.1
842.6156	867.7922	12528.1	11567.65
842.7607	869.8359	12565.5	11607.35
842.9058	871.8789	12616.05	11652.7
843.0509	873.9212	12795.65	11800.8
843.1961	875.9629	12901.3	11937.4
843.3412	878.0039	13047.35	12083.8
843.4863	880.0441	13148.95	12190.9
843.6315	882.0837	13191.6	12232.95
843.7766	884.1226	13151.8	12191.25
843.9218	886.1609	13127	12167.15
844.0669	888.1984	13099.15	12136.5
844.212	890.2352	13144.85	12182.9
844.3572	892.2714	13145.5	12176.35
844.5023	894.3069	13100.65	12140
844.6475	896.3416	12954.6	11990.4
844.7926	898.3757	12908.4	11944.45
844.9377	900.4091	12879.7	11914.2
845.0829	902.4418	12903	11935
845.228	904.4739	12923.2	11954.6
845.3732	906.5052	12958.15	11993.05
845.5183	908.5358	12868.75	11903.05
845.6635	910.5658	12744.1	11777.35
845.8086	912.595	12517.5	11551.6
845.9538	914.6236	12393.2	11427.2
846.0989	916.6515	12305.35	11340.15
846.2441	918.6786	12242.5	11273.7
846.3892	920.7051	12299.05	11334.1
846.5344	922.7309	12349.6	11384.2
846.6795	924.756	12423	11454.85
846.8246	926.7804	12534.3	11569.85
846.9698	928.8041	12495.55	11534.2
847.1149	930.8272	12540.2	11577.25
847.2601	932.8495	12463.95	11495.4
847.4052	934.8711	12447.8	11483.25
847.5504	936.892	12339.9	11371.85
847.6955	938.9123	12263.6	11296.6
847.8407	940.9318	12221.2	11257.15
847.9858	942.9506	12151.3	11184.5
848.131	944.9688	12045.45	11079.7
848.2761	946.9862	11973.9	11009.85
848.4213	949.003	11895.9	10930.5
848.5664	951.019	11846.45	10881
848.7115	953.0344	11837.65	10873.2
848.8567	955.0491	11862.6	10897.05
849.0018	957.063	11966.3	10997.45
849.147	959.0763	12052.9	11088.95
849.2921	961.0888	12093.1	11125.25
849.4373	963.1007	12145.1	11183.5
849.5824	965.1119	12187.95	11230.8
849.7275	967.1223	12198.85	11254.7
849.8727	969.1321	12209.45	11263.4
850.0178	971.1412	12228.65	11275.25
850.1629	973.1495	12222.55	11262.3
850.3081	975.1572	12320	11310.7
850.4532	977.1641	12303.9	11338.5
850.5983	979.1704	12264.4	11298.3
850.7435	981.1759	12275.35	11306.4
850.8886	983.1808	12301.05	11333
851.0337	985.1849	12350.8	11373.2
851.1788	987.1884	12483.95	11520.85
851.324	989.1911	12619.45	11654.25
851.4691	991.1932	12713.85	11751.45
851.6142	993.1945	12751.85	11790.75
851.7593	995.1951	12689.6	11722.65
851.9045	997.1951	12689.5	11719.1
852.0496	999.1943	12637.65	11674.55
852.1947	1001.1928	12597.15	11630.7
852.3398	1003.1906	12620.3	11651.2
852.4849	1005.1877	12704.3	11739.35
852.63	1007.1841	12702.45	11738.5
852.7751	1009.1798	12689.7	11724.35
852.9202	1011.1748	12547.45	11583.85
853.0653	1013.1691	12381.3	11416.35
853.2104	1015.1627	12154.4	11190.3
853.3555	1017.1556	11974.25	11014.7
853.5006	1019.1477	11845.8	10881.7
853.6457	1021.1392	11741.5	10788.05
853.7908	1023.1299	11738.75	10788.3
853.9359	1025.12	11737.25	10797
854.081	1027.1093	11789.75	10860.8
854.2261	1029.0979	11908.65	10982.45
854.3712	1031.0859	11999.1	11064.9
854.5163	1033.0731	12021.4	11071.9
854.6613	1035.0596	11945.2	10994.95
854.8064	1037.0454	11825.25	10868.3
854.9515	1039.0304	11749.15	10787.65
855.0965	1041.0148	11623.6	10663.95
855.2416	1042.9985	11527.9	10567.6
855.3867	1044.9814	11491.9	10530.05
855.5317	1046.9636	11402.55	10441.8
855.6768	1048.9452	11390.15	10433
855.8219	1050.926	11456.85	10498.6
855.9669	1052.9061	11460.05	10499.4
856.112	1054.8855	11472.15	10509.6
856.257	1056.8642	11503.25	10539.25
856.4021	1058.8421	11548.35	10584
856.5471	1060.8194	11579.95	10618.05
856.6921	1062.7959	11614.45	10654.15
856.8372	1064.7717	11664	10702.75
856.9822	1066.7469	11718.75	10756.7
857.1272	1068.7213	11737.45	10773.45
857.2723	1070.695	11769	10809.4
857.4173	1072.6679	11745.15	10783.5
857.5623	1074.6402	11751	10793.75
857.7073	1076.6117	11716.75	10750.5
857.8523	1078.5826	11655.4	10690.2
857.9973	1080.5527	11627.25	10659.55
858.1423	1082.5221	11614.8	10651.8
858.2873	1084.4908	11725.1	10765.2
858.4323	1086.4587	11852.4	10891
858.5773	1088.426	11960.75	10998.6
858.7223	1090.3925	11930.05	10964.95
858.8673	1092.3584	11918.65	10957.75
859.0123	1094.3235	11871.25	10911.2
859.1573	1096.2879	11878.7	10916.95
859.3022	1098.2515	11920.75	10962.35
859.4472	1100.2145	12032.15	11069.65
859.5922	1102.1767	12154	11192.15
859.7371	1104.1382	12334.15	11375.2
859.8821	1106.099	12576.25	11616.4
860.027	1108.0591	12801.55	11843.35
860.172	1110.0185	12966.55	12001.95
860.3169	1111.9771	12970.7	12012.55
860.4619	1113.9351	12819.3	11856.95
860.6068	1115.8923	12573.25	11612.4
860.7517	1117.8488	12367.5	11405.75
860.8967	1119.8045	12127.85	11168.9
861.0416	1121.7596	12012.7	11053.65
861.1865	1123.7139	11921.75	10964.9
861.3314	1125.6675	11909.65	10950.15
861.4763	1127.6204	11955.6	10997.95
861.6212	1129.5726	11946.95	10987.45
861.7661	1131.524	11918.45	10959.25
861.911	1133.4748	11825.75	10865.6
862.0559	1135.4248	11735.9	10773.75
862.2008	1137.3741	11660	10704.3
862.3457	1139.3226	11573	10614.75
862.4905	1141.2705	11520.45	10560.65
862.6354	1143.2176	11442.45	10477.9
862.7803	1145.164	11438.6	10479.1
862.9251	1147.1097	11403	10444.2
863.07	1149.0546	11375.7	10414.75
863.2148	1150.9989	11271.3	10311.35
863.3597	1152.9424	11132.95	10172.2
863.5045	1154.8852	11039.05	10081.65
863.6493	1156.8272	10970	10010.65
863.7942	1158.7686	10928.35	9965.1
863.939	1160.7092	10926.4	9963.5
864.0838	1162.6491	10931.05	9971.05
864.2286	1164.5883	11035.75	10077.9
864.3734	1166.5267	11125.85	10166.5
864.5182	1168.4644	11283.45	10325.75
864.663	1170.4014	11447.8	10489.6
864.8078	1172.3377	11720.6	10765.75
864.9526	1174.2732	11979.5	11026.4
865.0974	1176.2081	12292.1	11334.55
865.2421	1178.1421	12638	11679.05
865.3869	1180.0755	13005.9	12049
865.5317	1182.0082	13206.3	12252.45
865.6764	1183.9401	13302.15	12347.35
865.8212	1185.8713	13169.9	12220.6
865.9659	1187.8017	12905.65	11964.5
866.1106	1189.7315	12600.9	11667.15
866.2554	1191.6605	12249.25	11319.9
866.4001	1193.5888	12015.8	11075.8
866.5448	1195.5163	11885.8	10937.5
866.6895	1197.4432	11828.4	10875.25
866.8342	1199.3693	11782.2	10828.3
866.9789	1201.2947	11771.7	10811.3
867.1236	1203.2193	11742.9	10788.15
867.2683	1205.1432	11755.3	10800.7
867.413	1207.0664	11747.4	10794.95
867.5576	1208.9889	11761.05	10806.6
867.7023	1210.9106	11735.15	10780.4
867.847	1212.8316	11785.05	10832.35
867.9916	1214.7519	11815.45	10850.5
868.1363	1216.6715	11828.25	10873.6
868.2809	1218.5903	11855.85	10904
868.4255	1220.5084	11888.55	10934.95
868.5701	1222.4257	11953.85	11004.9
868.7148	1224.3424	11933.25	10985.8
868.8594	1226.2583	11999.7	11042.9
869.004	1228.1735	12136.45	11181.9
869.1486	1230.0879	12209.95	11259.3
869.2932	1232.0016	12384.25	11429.1
869.4377	1233.9146	12430.25	11474.6
869.5823	1235.8269	12336.6	11384.2
869.7269	1237.7384	12276.7	11319.95
869.8715	1239.6492	12121.95	11171.5
870.016	1241.5592	12022	11069.8
870.1606	1243.4686	11997.75	11047.25
870.3051	1245.3772	12070.6	11120.45
870.4496	1247.285	12120.6	11168.15
870.5941	1249.1922	12169.7	11216.2
870.7387	1251.0986	12237.6	11284.35
870.8832	1253.0042	12222.55	11268.7
871.0277	1254.9092	12337.15	11389.55
871.1722	1256.8134	12405.45	11455.4
871.3167	1258.7169	12552.5	11598.7
871.4611	1260.6196	12694.75	11745.8
871.6056	1262.5216	12932.35	11981.05
871.7501	1264.4229	13137.6	12188.65
871.8945	1266.3234	13272.7	12320.8
872.039	1268.2232	13385.6	12430.45
872.1834	1270.1223	13442.55	12486.55
872.3278	1272.0207	13434.85	12485
872.4723	1273.9183	13404.45	12445.1
872.6167	1275.8151	13339.85	12391.75
872.7611	1277.7113	13286.15	12335.4
872.9055	1279.6067	13248.3	12302.95
873.0499	1281.5014	13287.15	12333.85
873.1943	1283.3953	13396.75	12443.85
873.3386	1285.2885	13634.35	12682.95
873.483	1287.181	13855	12903.45
873.6274	1289.0727	14106.8	13158.3
873.7717	1290.9637	14248.5	13297.7
873.9161	1292.854	14414.45	13462.2
874.0604	1294.7435	14469	13520.45
874.2047	1296.6323	14545.05	13597.3
874.349	1298.5204	14594.5	13642.35
874.4933	1300.4077	14661.65	13708.5
874.6376	1302.2943	14672.45	13722.3
874.7819	1304.1802	14559.5	13609.45
874.9262	1306.0653	14286.25	13334.7
875.0705	1307.9497	13974.3	13027.3
875.2147	1309.8333	13708	12761.45
875.359	1311.7162	13546.15	12600.5
875.5032	1313.5984	13469	12518.15
875.6475	1315.4798	13410.1	12457.05
875.7917	1317.3605	13455	12491.5
875.9359	1319.2405	13421.15	12469.85
876.0801	1321.1197	13282	12327.6
876.2243	1322.9982	13096.7	12142.45
876.3685	1324.876	12909.95	11958.35
876.5127	1326.753	12753.15	11801.75
876.6569	1328.6293	12684.05	11731.65
876.801	1330.5048	12609.4	11657.65
876.9452	1332.3796	12504.35	11557.2
877.0893	1334.2537	12477.1	11502.15
877.2335	1336.127	12377.25	11426.2
877.3776	1337.9996	12364.4	11415.8
877.5217	1339.8714	12359.4	11411.65
877.6658	1341.7426	12391.3	11398.2
877.8099	1343.6129	12393.05	11440.4
877.954	1345.4826	12334.9	11385.35
878.0981	1347.3515	12325.8	11371.95
878.2422	1349.2196	12284	11332.15
878.3862	1351.087	12321.05	11369.3
878.5303	1352.9537	12359.15	11407.7
878.6743	1354.8197	12483.95	11532.8
878.8184	1356.6849	12664.75	11711.45
878.9624	1358.5493	12779.25	11829.55
879.1064	1360.4131	12873.3	11925.7
879.2504	1362.276	12901.2	11953.05
879.3944	1364.1383	12798.25	11849.95
879.5384	1365.9998	12587.3	11634.45
879.6823	1367.8606	12265.45	11310.05
879.8263	1369.7206	11928.65	10978.1
879.9702	1371.5799	11646.5	10694
880.1142	1373.4384	11436.5	10486.8
880.2581	1375.2962	11238.3	10289.1
880.402	1377.1533	10971.15	10024.05
880.5459	1379.0096	10627.3	9682.75
880.6898	1380.8652	10314.75	9372.25
880.8337	1382.7201	10038.3	9090.9
880.9776	1384.5742	9808.95	8861.6
881.1215	1386.4275	9638.2	8689.8
881.2653	1388.2802	9466.15	8517.3
881.4092	1390.132	9388.4	8438.2
881.553	1391.9832	9322.7	8374.3
881.6968	1393.8336	9226.75	8276.45
881.8406	1395.6832	9168.45	8216.65
881.9844	1397.5322	9146.45	8200.3
882.1282	1399.3803	9142.1	8189.1
882.272	1401.2278	9112.85	8164.7
882.4158	1403.0745	9076.3	8129
882.5595	1404.9204	9078.95	8132.1
882.7033	1406.7656	9081.75	8133.75
882.847	1408.6101	9093.4	8146.95
882.9908	1410.4538	9114.8	8168.85
883.1345	1412.2968	9178.65	8229.25
883.2782	1414.139	9212.15	8265.4
883.4219	1415.9805	9292.7	8346.55
883.5656	1417.8213	9375.1	8421.3
883.7092	1419.6613	9472.75	8528.45
883.8529	1421.5006	9661.15	8712.25
883.9965	1423.3391	9873.8	8927.4
884.1402	1425.1769	10207.85	9259.35
884.2838	1427.0139	10641	9694
884.4274	1428.8502	11195.35	10247.5
884.571	1430.6858	11738.2	10792.1
884.7146	1432.5206	12114.6	11169.75
884.8582	1434.3547	12362.65	11416.1
885.0018	1436.188	12374.85	11426.9
885.1453	1438.0206	12277.4	11330.9
885.2889	1439.8524	12100.8	11155.65
885.4324	1441.6835	12035.2	11091
885.5759	1443.5139	11933.25	10986.35
885.7194	1445.3435	11853.25	10906.9
885.8629	1447.1724	11802.95	10860.8
886.0064	1449.0005	11741.15	10801
886.1499	1450.8279	11649.4	10706.7
886.2933	1452.6545	11618.65	10679.15
886.4368	1454.4804	11671.7	10730.4
886.5802	1456.3056	11647.1	10697.05
886.7237	1458.13	11560	10618.7
886.8671	1459.9536	11352.1	10408.95
887.0105	1461.7766	11040.9	10097.25
887.1539	1463.5987	10674	9727.35
887.2972	1465.4202	10306.75	9360.7
887.4406	1467.2409	9957.25	9012.8
887.584	1469.0608	9707.4	8766.65
887.7273	1470.88	9418.45	8476.5
887.8706	1472.6984	9176	8233.05
888.0139	1474.5161	8996.95	8052.7
888.1572	1476.3331	8847.8	7903.4
888.3005	1478.1493	8716.05	7775.1
888.4438	1479.9648	8620.4	7681.3
888.5871	1481.7795	8538.4	7594.25
888.7303	1483.5935	8453.25	7511.3
888.8736	1485.4067	8393.6	7448
889.0168	1487.2192	8374.3	7435.25
889.16	1489.031	8338.75	7397.8
889.3032	1490.842	8269.8	7328.2
889.4464	1492.6522	8213.6	7272.4
889.5896	1494.4618	8190.1	7247.9
889.7327	1496.2705	8165.5	7226.45
889.8759	1498.0785	8121.75	7179.4
890.019	1499.8858	8101.7	7159.8
890.1622	1501.6924	8066.15	7121.75
890.3053	1503.4981	8015.75	7071.95
890.4484	1505.3032	7986.25	7041.9
890.5914	1507.1075	7946.6	7004.45
890.7345	1508.911	7907.6	6965.25
890.8776	1510.7138	7873.7	6933
891.0206	1512.5159	7821.75	6879.65
891.1637	1514.3172	7789.05	6846.9
891.3067	1516.1178	7730.05	6790.7
891.4497	1517.9176	7712.5	6770.25
891.5927	1519.7166	7669.6	6730.95
891.7357	1521.515	7644.6	6703.75
891.8786	1523.3126	7614.55	6676.15
892.0216	1525.1094	7589.85	6648.95
892.1645	1526.9055	7559.05	6621.25
892.3074	1528.7008	7548.15	6608.35
892.4503	1530.4954	7501.15	6563.05
892.5932	1532.2893	7478.05	6543.2
892.7361	1534.0824	7442.25	6504.7
892.879	1535.8747	7446.35	6512.25
893.0218	1537.6663	7415.35	6482.7
893.1647	1539.4572	7404.25	6468.95
893.3075	1541.2473	7387.9	6455.15
893.4503	1543.0367	7415.25	6483.45
893.5931	1544.8253	7395.5	6456.5
893.7359	1546.6132	7431.1	6496.05
893.8787	1548.4003	7425.75	6483.85
894.0214	1550.1867	7470.65	6531.4
894.1642	1551.9723	7490.45	6554.5
894.3069	1553.7572	7568.65	6637.9
894.4496	1555.5414	7618.6	6689.95
894.5923	1557.3247	7715.85	6784.05
894.735	1559.1074	7824.7	6903.2
894.8777	1560.8893	7945.1	7022.1
895.0204	1562.6705	8063.15	7138.55
895.163	1564.4509	8119.5	7193.15
895.3056	1566.2305	8192.4	7272.95
895.4482	1568.0094	8240.35	7318.4
895.5908	1569.7876	8260.45	7335.5
895.7334	1571.565	8250.2	7321.2
895.876	1573.3417	8242.4	7314.85
896.0186	1575.1176	8208.75	7282.75
896.1611	1576.8928	8194.25	7271.7
896.3036	1578.6672	8140	7224.75
896.4461	1580.4409	8097.1	7183.85
896.5886	1582.2138	8052.95	7134.95
896.7311	1583.986	7995.6	7073.7
896.8736	1585.7575	7986.9	7070.1
897.0161	1587.5282	7994.25	7076.75
897.1585	1589.2981	8002.7	7090.25
897.3009	1591.0673	8000.5	7084.35
897.4433	1592.8358	8060.55	7144.5
897.5857	1594.6035	8127.9	7208.6
897.7281	1596.3704	8161.9	7238.6
897.8705	1598.1366	8226.5	7306.6
898.0128	1599.9021	8308.75	7389.75
898.1551	1601.6668	8398.7	7482.55
898.2975	1603.4308	8493.55	7572.25
898.4398	1605.194	8612.95	7687.3
898.5821	1606.9564	8787.1	7876.75
898.7243	1608.7182	8986.05	8081.25
898.8666	1610.4791	9180.55	8278.7
899.0088	1612.2394	9418.75	8518.8
899.1511	1613.9988	9636.25	8732.8
899.2933	1615.7576	9881.9	8969.95
899.4355	1617.5156	10080.5	9155.35
899.5776	1619.2728	10208.05	9288.6
899.7198	1621.0293	10242.45	9326.15
899.862	1622.785	10159.35	9244.55
900.0041	1624.54	9974.4	9061.25
900.1462	1626.2942	9742.55	8833.5
900.2883	1628.0477	9459.05	8548.35
900.4304	1629.8005	9195.1	8282.55
900.5725	1631.5525	8917.15	8009
900.7145	1633.3037	8735.35	7826.3
900.8566	1635.0542	8574.95	7666.95
900.9986	1636.804	8441.35	7531.9
901.1406	1638.553	8447	7456.8
901.2826	1640.3013	8333.15	7422.2
901.4245	1642.0488	8315.45	7402.25
901.5665	1643.7955	8358.85	7451.1
901.7085	1645.5416	8420.45	7512.1
901.8504	1647.2868	8514.4	7606.25
901.9923	1649.0313	8612.85	7702.6
902.1342	1650.7751	8751.75	7840
902.2761	1652.5181	8901.15	7993.4
902.4179	1654.2604	9087.05	8180.75
902.5598	1656.0019	9341.6	8435.45
902.7016	1657.7427	9640.4	8732.6
902.8434	1659.4828	9890.3	8978.7
902.9852	1661.222	10040.8	9128.4
903.127	1662.9606	10013.85	9102.75
903.2687	1664.6984	9795.6	8884.5
903.4105	1666.4354	9371.15	8454.25
903.5522	1668.1717	8817.3	7901.8
903.6939	1669.9072	8289.9	7375.75
903.8356	1671.642	7822.05	6903.05
903.9773	1673.3761	7462.55	6553
904.119	1675.1094	7162.75	6252.35
904.2606	1676.8419	6932.25	6020
904.4022	1678.5737	6726.55	5816.25
904.5439	1680.3048	6584.85	5670.6
904.6855	1682.0351	6478.55	5568.1
904.827	1683.7646	6361.7	5447.15
904.9686	1685.4934	6290.95	5380.55
905.1101	1687.2215	6211	5301
905.2517	1688.9488	6143.25	5234.3
905.3932	1690.6754	6082.15	5174.15
905.5347	1692.4012	6057.3	5144.65
905.6761	1694.1263	6003.45	5091.05
905.8176	1695.8506	5980.45	5069.8
905.9591	1697.5742	5923.3	5016.65
906.1005	1699.297	5893.1	4989.7
906.2419	1701.0191	5857.05	4956.1
906.3833	1702.7404	5808.75	4903.45
906.5246	1704.461	5784.5	4876.85
906.666	1706.1808	5739.55	4831.05
906.8073	1707.8999	5728.3	4823.15
906.9487	1709.6182	5688.1	4785.8
907.09	1711.3358	5660.55	4759.7
907.2313	1713.0527	5638.65	4742.25
907.3725	1714.7688	5620.4	4716.35
907.5138	1716.4841	5578.95	4673.3
907.655	1718.1987	5579.35	4669.4
907.7962	1719.9126	5569.6	4669.55
907.9374	1721.6257	5509.85	4610.65
908.0786	1723.338	5504.3	4606.55
908.2198	1725.0496	5490.55	4588.35
908.3609	1726.7605	5458.05	4553.3
908.502	1728.4706	5437.65	4534.65
908.6431	1730.18	5429.9	4527.75
908.7842	1731.8886	5400.15	4502.3
908.9253	1733.5964	5393.75	4475.1
909.0664	1735.3036	5388.45	4485.6
909.2074	1737.0099	5348.95	4448.1
909.3484	1738.7156	5342.4	4442.65
909.4894	1740.4204	5300.1	4399.05
909.6304	1742.1246	5306.45	4406
909.7714	1743.8279	5264.35	4364.75
909.9123	1745.5306	5253.25	4355.1
910.0532	1747.2325	5210.25	4312.35
910.1941	1748.9336	5200.5	4300.55
910.335	1750.634	5179.35	4276.4
910.4759	1752.3336	5179	4279.35
910.6168	1754.0325	5146.75	4249.25
910.7576	1755.7307	5144.85	4247.15
910.8984	1757.4281	5148.7	4246.2
911.0392	1759.1247	5145.95	4235.6
911.18	1760.8206	5100.4	4193
911.3208	1762.5158	5105.4	4199.1
911.4615	1764.2102	5076.75	4173.75
911.6022	1765.9039	5072.55	4173.85
911.7429	1767.5968	5053.65	4155.65
911.8836	1769.289	5047.65	4150.15
912.0243	1770.9804	5011.55	4110.05
912.1649	1772.6711	5029.65	4126.75
912.3056	1774.361	5008.25	4106.65
912.4462	1776.0502	5001.35	4096.55
912.5868	1777.7386	5004.3	4099.1
912.7274	1779.4263	4959.7	4060.1
912.8679	1781.1132	4963.4	4069
913.0084	1782.7994	4941.7	4045.85
913.149	1784.4849	4925.65	4031
913.2895	1786.1696	4941.9	4039.95
913.4299	1787.8535	4906.7	4012.1
913.5704	1789.5367	4891.85	3998.55
913.7108	1791.2192	4896.95	4000.1
913.8513	1792.9009	4889.45	3963.9
913.9917	1794.5818	4881.55	3979.15
914.132	1796.2621	4873.2	3974.3
914.2724	1797.9415	4839.3	3939.6
914.4128	1799.6202	4832.75	3932.7
914.5531	1801.2982	4822	3918.45
914.6934	1802.9755	4812.8	3909.45
914.8337	1804.6519	4819.45	3918.9
914.9739	1806.3277	4800.45	3903.05
915.1142	1808.0027	4775.95	3884.15
915.2544	1809.6769	4759.75	3865.8
915.3946	1811.3504	4742.15	3849.75
915.5348	1813.0231	4753.4	3859.05
915.675	1814.6951	4738	3845.15
915.8151	1816.3664	4739.3	3838.2
915.9553	1818.0369	4719.75	3820.75
916.0954	1819.7067	4725.6	3826.1
916.2355	1821.3757	4729.1	3828
916.3755	1823.044	4704.3	3803.1
916.5156	1824.7115	4691.2	3789.95
916.6556	1826.3783	4674.65	3773.95
916.7956	1828.0443	4664.75	3769.4
916.9356	1829.7096	4659.9	3760.95
917.0756	1831.3741	4641.65	3741.95
917.2155	1833.0379	4632.75	3737.35
917.3555	1834.701	4627.5	3731.25
917.4954	1836.3633	4606.55	3714.25
917.6353	1838.0248	4596.65	3701.95
917.7751	1839.6856	4603.4	3706.85
917.915	1841.3457	4597.7	3700.1
918.0548	1843.005	4594.85	3694.9
918.1946	1844.6636	4594.95	3696.75
918.3344	1846.3214	4563.5	3666.25
918.4742	1847.9785	4562	3667.45
918.6139	1849.6349	4560.05	3660.15
918.7537	1851.2904	4541.95	3631.7
918.8934	1852.9453	4525.2	3625.25
919.0331	1854.5994	4540.4	3637.3
919.1727	1856.2528	4537.85	3636
919.3124	1857.9054	4514.25	3614.1
919.452	1859.5572	4499	3602.2
919.5916	1861.2083	4497.4	3600.55
919.7312	1862.8587	4505.95	3605.4
919.8708	1864.5084	4482.1	3579.4
920.0103	1866.1572	4485.75	3586.3
920.1498	1867.8054	4445.8	3546.05
920.2893	1869.4528	4458.45	3556.85
920.4288	1871.0994	4433.9	3533.4
920.5683	1872.7453	4432.15	3532
920.7077	1874.3905	4428.55	3511.75
920.8471	1876.0349	4415.15	3515.75
920.9865	1877.6786	4408.25	3507.45
921.1259	1879.3215	4404.45	3504.9
921.2653	1880.9637	4386.1	3487.4
921.4046	1882.6051	4384.75	3486.9
921.5439	1884.2458	4378.9	3480.75
921.6832	1885.8858	4355.75	3459.85
921.8225	1887.525	4352.85	3455.35
921.9617	1889.1634	4349.05	3451.25
922.101	1890.8011	4313.3	3413.75
922.2402	1892.4381	4297.8	3398
922.3794	1894.0743	4309.45	3409.2
922.5185	1895.7098	4307.3	3410.95
922.6577	1897.3446	4292.55	3393.4
922.7968	1898.9786	4290.55	3390
922.9359	1900.6118	4264.85	3369.35
923.075	1902.2443	4258.3	3361.95
923.214	1903.8761	4257.25	3362.1
923.3531	1905.5071	4216.35	3320.1
923.4921	1907.1374	4219.8	3322.35
923.6311	1908.7669	4210.15	3314.25
923.77	1910.3957	4202.3	3307.7
923.909	1912.0237	4190	3297
924.0479	1913.651	4176.15	3277.45
924.1868	1915.2776	4162.15	3266.25
924.3257	1916.9034	4165.75	3269.75
924.4646	1918.5285	4139.65	3245.3
924.6034	1920.1528	4123.5	3226
924.7422	1921.7764	4121.8	3225.75
924.881	1923.3992	4112.5	3216.1
925.0198	1925.0213	4098.85	3203
925.1586	1926.6427	4085.4	3191.15
925.2973	1928.2633	4266.55	3163.95
925.436	1929.8832	4112.65	3213.45
925.5747	1931.5023	4062.45	3165.1
925.7134	1933.1207	4042.6	3149.4
925.852	1934.7383	4028.25	3128.95
925.9906	1936.3552	4039.5	3146.7
926.1292	1937.9714	4023.7	3127.95
926.2678	1939.5868	3990.35	3093.05
926.4064	1941.2015	3989.45	3090.4
926.5449	1942.8154	3976.8	3076.95
926.6834	1944.4286	3957.4	3057.75
926.8219	1946.041	3976.5	3061.6
926.9604	1947.6528	3934.6	3032.2
927.0988	1949.2637	3930.25	3035.05
927.2372	1950.8739	3906.75	3008.55
927.3756	1952.4834	3908.4	3013.45
927.514	1954.0921	3902.1	3005.65
927.6523	1955.7001	3891.95	2993.95
927.7907	1957.3074	3865.8	2972.3
927.929	1958.9139	3857.05	2966.55
928.0673	1960.5197	3854.1	2960.85
928.2055	1962.1247	3836.6	2945.6
928.3438	1963.729	3821.4	2931.35
928.482	1965.3325	3831.75	2936.45
928.6202	1966.9353	3803.1	2914.05
928.7584	1968.5374	3794.15	2901.1
928.8965	1970.1387	3790.75	2897.8
929.0346	1971.7393	3785.15	2892.9
929.1727	1973.3392	3769.25	2876.45
929.3108	1974.9383	3764.7	2876.7
929.4489	1976.5366	3738.55	2850
929.5869	1978.1342	3735.5	2848.15
929.7249	1979.7311	3737.9	2847.25
929.8629	1981.3273	3715.75	2825.55
930.0009	1982.9227	3717.7	2828.5
930.1388	1984.5173	3690.5	2802.85
930.2767	1986.1112	3698.95	2811.5
930.4146	1987.7044	3680.75	2791.7
930.5525	1989.2968	3661.55	2773.95
930.6904	1990.8885	3661.75	2772.05
930.8282	1992.4795	3643.2	2756.6
930.966	1994.0697	3654.85	2771.3
931.1038	1995.6592	3647.05	2759.4
931.2415	1997.2479	3618.95	2730.55
931.3793	1998.8359	3628.2	2741.35
931.517	2000.4232	3601.9	2719.85
931.6547	2002.0097	3586.7	2707.3
931.7923	2003.5955	3576.95	2694.25
931.93	2005.1805	3575.95	2693.25
932.0676	2006.7648	3572.6	2689.1
932.2052	2008.3484	3564.7	2679.9
932.3427	2009.9312	3559.5	2677.65
932.4803	2011.5133	3550	2669.45
932.6178	2013.0946	3539.85	2658.2
932.7553	2014.6752	3537	2655.15
932.8928	2016.2551	3530.35	2644.95
933.0302	2017.8342	3523.3	2638.55
933.1676	2019.4126	3503.35	2621.8
933.305	2020.9902	3489.3	2609.1
933.4424	2022.5672	3496.65	2614.55
933.5798	2024.1433	3493	2608.05
933.7171	2025.7188	3480.5	2605.3
933.8544	2027.2935	3469.3	2588.55
933.9917	2028.8674	3459.55	2581.95
934.129	2030.4406	3451.1	2573.2
934.2662	2032.0131	3435.5	2558.95
934.4034	2033.5849	3421.3	2539.4
934.5406	2035.1559	3427.75	2547.5
934.6778	2036.7261	3430.25	2547.9
934.8149	2038.2957	3415.7	2529.05
934.952	2039.8645	3412.85	2525.2
935.0891	2041.4325	3409.95	2521.85
935.2262	2042.9998	3397.3	2514.9
935.3632	2044.5664	3396.3	2514.55
935.5002	2046.1323	3382.55	2504
935.6372	2047.6974	3358.15	2478.2
935.7742	2049.2617	3366.75	2487.65
935.9111	2050.8254	3393.1	2489.35
936.048	2052.3883	3365.85	2482.6
936.1849	2053.9504	3368.9	2484.4
936.3218	2055.5118	3352.75	2466.9
936.4586	2057.0725	3352.15	2464.35
936.5955	2058.6325	3312	2431.05
936.7323	2060.1917	3321.8	2441.3
936.869	2061.7502	3309.1	2426.4
937.0058	2063.3079	3315.3	2435.45
937.1425	2064.8649	3284.35	2403.05
937.2792	2066.4212	3294.9	2411.9
937.4159	2067.9767	3282.25	2400.25
937.5525	2069.5315	3272.1	2390.7
937.6891	2071.0856	3255.45	2374.3
937.8257	2072.6389	3240.85	2360.4
937.9623	2074.1915	3223.45	2342.1
938.0989	2075.7433	3213.65	2330.4
938.2354	2077.2945	3216.45	2332.75
938.3719	2078.8448	3217.35	2332.45
938.5084	2080.3945	3205.5	2320.1
938.6448	2081.9434	3216.9	2331.05
938.7812	2083.4916	3195.9	2306.3
938.9176	2085.039	3204.55	2310.95
939.054	2086.5857	3190.85	2296.3
939.1903	2088.1317	3184.55	2289
939.3267	2089.677	3178.45	2284.6
939.463	2091.2215	3173.45	2281.6
939.5992	2092.7652	3164.25	2267.2
939.7355	2094.3083	3152.9	2261.55
939.8717	2095.8506	3145.45	2256.6
940.0079	2097.3921	3149.8	2263.15
940.1441	2098.933	3130.35	2243.1
940.2802	2100.4731	3139.55	2250.85
940.4163	2102.0124	3141.05	2244.05
940.5524	2103.5511	3132.35	2241.35
940.6885	2105.089	3134.6	2242.25
940.8245	2106.6261	3118.25	2229.25
940.9606	2108.1626	3110.5	2224.3
941.0965	2109.6983	3143.1	2227.65
941.2325	2111.2332	3099.45	2209.7
941.3684	2112.7675	3098.55	2207.2
941.5044	2114.301	3092.65	2202.45
941.6403	2115.8337	3082.7	2192.4
941.7761	2117.3657	3088.2	2199.9
941.912	2118.897	3074.6	2183.1
942.0478	2120.4276	3067.35	2171.4
942.1835	2121.9575	3050.45	2159.5
942.3193	2123.4866	3048.85	2158.5
942.455	2125.0149	3050.75	2158.7
942.5907	2126.5426	3013.75	2130.2
942.7264	2128.0695	3038.35	2153.25
942.8621	2129.5956	3022.85	2141.3
942.9977	2131.1211	3022.6	2134.1
943.1333	2132.6458	3021.1	2133.35
943.2689	2134.1698	3019.1	2126.3
943.4044	2135.693	3003.75	2108.6
943.54	2137.2155	3010.35	2117.65
943.6755	2138.7373	2993.45	2104.95
943.8109	2140.2584	2983.4	2098.4
943.9464	2141.7787	2985.65	2098.1
944.0818	2143.2983	2971.25	2091.95
944.2172	2144.8171	2952.25	2072.65
944.3526	2146.3353	2946.45	2062.15
944.4879	2147.8527	2936.05	2051.6
944.6232	2149.3693	2951.35	2062.9
944.7585	2150.8853	2942.45	2052
944.8938	2152.4005	2923.8	2033.1
945.029	2153.9149	2926.45	2033.5
945.1642	2155.4287	2913	2019
945.2994	2156.9417	2909.65	2018.5
945.4346	2158.454	2899.45	2011.9
945.5697	2159.9655	2893.8	2008.05
945.7048	2161.4764	2891.3	2004.8
945.8399	2162.9865	2882.1	1998.8
945.9749	2164.4958	2876.2	1992.8
946.1099	2166.0045	2875.6	1988.4
946.2449	2167.5124	2888	2002.55
946.3799	2169.0195	2868.05	1979.75
946.5148	2170.526	2873.9	1984.65
946.6498	2172.0317	2860.3	1971.1
946.7846	2173.5367	2848.45	1959
946.9195	2175.0409	2855	1968.15
947.0543	2176.5445	2855.2	1965.4
947.1891	2178.0473	2832.7	1941.8
947.3239	2179.5494	2842.6	1949
947.4587	2181.0507	2829.35	1938.25
947.5934	2182.5513	2824.8	1936.9
947.7281	2184.0512	2811.55	1921.6
947.8628	2185.5504	2811.35	1926
947.9974	2187.0488	2803.45	1918.45
948.132	2188.5465	2800.05	1917.8
948.2666	2190.0435	2792.05	1905.65
948.4012	2191.5397	2786.35	1899.2
948.5357	2193.0353	2779	1888.4
948.6702	2194.5301	2766.3	1872.55
948.8047	2196.0241	2778	1884.1
948.9392	2197.5175	2775.5	1881.95
949.0736	2199.0101	2754.05	1856.8
949.208	2200.502	2734.95	1844.3
949.3424	2201.9931	2730.55	1845.3
949.4767	2203.4835	2726.05	1840.7
949.611	2204.9733	2723.3	1834.05
949.7453	2206.4622	2715.1	1832.2
949.8796	2207.9505	2700.15	1813.4
950.0138	2209.438	2703.35	1820.75
950.148	2210.9248	2703.65	1818.95
950.2822	2212.4109	2692.75	1805.85
950.4164	2213.8962	2698.65	1803.15
950.5505	2215.3809	2689.4	1793.15
950.6846	2216.8648	2682	1784.6
950.8186	2218.3479	2688	1787.15
950.9527	2219.8304	2679.75	1782.4
951.0867	2221.3121	2680.5	1784
951.2207	2222.7931	2659.7	1769.55
951.3546	2224.2733	2656.15	1764.15
951.4886	2225.7529	2642.4	1753.05
951.6225	2227.2317	2632.4	1742.2
951.7563	2228.7098	2626.05	1740.95
951.8902	2230.1872	2622.8	1737.75
952.024	2231.6638	2619.3	1733
952.1578	2233.1397	2610.95	1722.45
952.2916	2234.6149	2593.75	1708.5
952.4253	2236.0894	2600.95	1715.5
952.559	2237.5632	2616.65	1720
952.6927	2239.0362	2590.1	1702.2
952.8263	2240.5085	2580.7	1693.6
952.9599	2241.9801	2588.1	1698.75
953.0935	2243.4509	2578.1	1686.9
953.2271	2244.921	2575.65	1680.7
953.3606	2246.3904	2570.15	1674.55
953.4941	2247.8591	2551.45	1659.35
953.6276	2249.3271	2551.15	1660.15
953.7611	2250.7943	2549.7	1658.3
953.8945	2252.2608	2534.7	1643.15
954.0279	2253.7266	2540.15	1648
954.1612	2255.1917	2528.65	1639.15
954.2946	2256.656	2518.55	1630.4
954.4279	2258.1197	2511.2	1627.3
954.5612	2259.5826	2508.8	1618.45
954.6944	2261.0447	2513.1	1622.85
954.8276	2262.5062	2501.7	1609.1
954.9608	2263.9669	2502.5	1607.6
955.094	2265.4269	2498.35	1607.15
955.2271	2266.8862	2494.75	1605.8
955.3602	2268.3448	2480.35	1591.35
955.4933	2269.8026	2482.45	1593.95
955.6264	2271.2598	2473	1585.6
955.7594	2272.7162	2471.65	1583.7
955.8924	2274.1719	2471.2	1580.25
956.0253	2275.6268	2464.8	1570.35
956.1583	2277.0811	2470.8	1580.1
956.2912	2278.5346	2458.45	1571.35
956.4241	2279.9874	2452.9	1564.4
956.5569	2281.4395	2449.95	1564.7
956.6897	2282.8908	2449.75	1558.05
956.8225	2284.3414	2451	1560.65
956.9553	2285.7914	2448.05	1561.15
957.088	2287.2406	2437.9	1542.75
957.2207	2288.689	2433.35	1538.75
957.3534	2290.1368	2426.6	1529.3
957.486	2291.5838	2423.75	1522.25
957.6186	2293.0302	2420.35	1523.6
957.7512	2294.4758	2416.55	1522.75
957.8838	2295.9206	2415.85	1522.95
958.0163	2297.3648	2403.95	1514.4
958.1488	2298.8082	2399.25	1509.1
958.2813	2300.251	2396.05	1504.2
958.4137	2301.693	2397.95	1502.8
958.5461	2303.1343	2398.25	1503.4
958.6785	2304.5748	2384.2	1492.45
958.8108	2306.0147	2375.8	1487.8
958.9432	2307.4538	2376.4	1486.9
959.0754	2308.8922	2361.95	1477.55
959.2077	2310.3299	2368.05	1480.4
959.3399	2311.7669	2355.85	1468.8
959.4721	2313.2031	2356.5	1467.05
959.6043	2314.6387	2347.05	1455.1
959.7365	2316.0735	2349.4	1457.45
959.8686	2317.5076	2338.35	1447.9
960.0006	2318.941	2329.8	1436.65
960.1327	2320.3737	2334.45	1438.9
960.2647	2321.8056	2337.6	1441.2
960.3967	2323.2369	2328	1434.2
960.5287	2324.6674	2324.25	1430.3
960.6606	2326.0972	2317.35	1426.95
960.7925	2327.5263	2316.8	1425.9
960.9244	2328.9547	2318.6	1425.1
961.0562	2330.3823	2303.8	1409.7
961.1881	2331.8092	2300.05	1402.1
961.3198	2333.2355	2293.95	1399.8
961.4516	2334.661	2300.6	1406.85
961.5833	2336.0858	2290.85	1396.9
961.715	2337.5098	2292.65	1399.45
961.8467	2338.9332	2284.75	1392.75
961.9783	2340.3558	2276.65	1382.9
962.1099	2341.7778	2272.1	1383.55
962.2415	2343.199	2256.15	1366.15
962.373	2344.6195	2256.15	1366.75
962.5045	2346.0393	2259.8	1369.45
962.636	2347.4583	2266.5	1375.85
962.7675	2348.8767	2263.25	1371.2
962.8989	2350.2943	2257.5	1362.65
963.0303	2351.7113	2269.05	1374.55
963.1617	2353.1275	2255.5	1360.65
963.293	2354.543	2257	1355.55
963.4243	2355.9578	2252.8	1360.4
963.5556	2357.3718	2237.2	1348.2
963.6868	2358.7852	2226.55	1339.5
963.818	2360.1978	2233.65	1344.55
963.9492	2361.6098	2223.8	1336.3
964.0803	2363.021	2227.6	1333.95
964.2114	2364.4315	2220.15	1329.35
964.3425	2365.8413	2213.4	1320.9
964.4736	2367.2504	2207.55	1320.05
964.6046	2368.6587	2192.25	1303.95
964.7356	2370.0664	2190.75	1303.5
964.8666	2371.4733	2186.05	1295.1
964.9975	2372.8795	2190.15	1300.25
965.1284	2374.285	2172.4	1284.05
965.2593	2375.6899	2180.55	1293
965.3901	2377.0939	2168.95	1281.05
965.5209	2378.4973	2160.3	1273.2
965.6517	2379.9	2164.7	1275.75
965.7825	2381.3019	2160.7	1273
965.9132	2382.7032	2153.5	1265.7
966.0439	2384.1037	2148.75	1267.4
966.1745	2385.5035	2144.35	1259.35
966.3051	2386.9027	2140.7	1256.15
966.4357	2388.3011	2138.2	1249.85
966.5663	2389.6987	2135.65	1248.5
966.6968	2391.0957	2129.5	1245.55
966.8273	2392.492	2123.4	1240.1
966.9578	2393.8876	2106	1219.8
967.0882	2395.2824	2105.15	1217.5
967.2186	2396.6765	2104.75	1216.05
967.349	2398.07	2104	1214.15
967.4793	2399.4627	2105.6	1215.8
967.6097	2400.8547	2096.95	1206.65
967.7399	2402.246	2084.55	1189.25
967.8702	2403.6366	2085.5	1198.85
968.0004	2405.0265	2081	1194.25
968.1306	2406.4156	2079.75	1189.2
968.2607	2407.8041	2081.3	1191.8
968.3909	2409.1918	2081	1191.8
968.521	2410.5789	2062.15	1174.5
968.651	2411.9652	2068.5	1177.05
968.781	2413.3508	2057.8	1169.55
968.911	2414.7358	2057.4	1169.6
969.041	2416.12	2056.15	1168.7
969.1709	2417.5035	2052.85	1166.05
969.3008	2418.8863	2053.25	1163.85
969.4307	2420.2684	2048.95	1160.15
969.5606	2421.6497	2037.35	1150.75
969.6904	2423.0304	2026.9	1141.5
969.8201	2424.4104	2036.25	1146.75
969.9499	2425.7896	2025.25	1136.25
970.0796	2427.1682	2019.2	1132.3
970.2093	2428.546	2009.7	1120.45
970.3389	2429.9232	2014.3	1126.05
970.4685	2431.2996	2015.5	1125.6
970.5981	2432.6753	2023.05	1137.05
970.7277	2434.0503	2017.6	1128.45
970.8572	2435.4246	2000.7	1110.8
970.9867	2436.7982	1998.05	1108.3
971.1161	2438.1711	2002	1112.15
971.2456	2439.5433	1998.4	1110.5
971.375	2440.9148	1999.25	1105.5
971.5043	2442.2856	1986.8	1099.15
971.6336	2443.6557	1976.05	1087.55
971.7629	2445.025	1973.45	1084.75
971.8922	2446.3937	1976.5	1087.55
972.0214	2447.7617	1971.65	1083.15
972.1506	2449.1289	1959.7	1070.2
972.2798	2450.4955	1963.8	1072.7
972.4089	2451.8613	1962.4	1074.2
972.538	2453.2265	1953.95	1065
972.6671	2454.5909	1952.3	1065
972.7961	2455.9546	1951.25	1061.75
972.9251	2457.3177	1955.55	1067.65
973.0541	2458.68	1947.95	1059.05
973.1831	2460.0416	1945.4	1055.45
973.312	2461.4025	1938.5	1048.8
973.4408	2462.7627	1948.75	1050.05
973.5697	2464.1222	1941.65	1056.65
973.6985	2465.4811	1941.45	1055.65
973.8273	2466.8392	1931.45	1044.55
973.956	2468.1966	1932.2	1042.5
974.0847	2469.5533	1939.95	1049.15
974.2134	2470.9093	1928.35	1039.45
974.3421	2472.2645	1926.7	1038.3
974.4707	2473.6191	1917.1	1027.1
974.5993	2474.973	1913.7	1024.45
974.7278	2476.3262	1909.9	1019.05
974.8563	2477.6787	1909.15	1022.3
974.9848	2479.0305	1910.95	1024.4
975.1132	2480.3816	1905.3	1017.3
975.2417	2481.7319	1903.55	1019.55
975.37	2483.0816	1895.7	1006.75
975.4984	2484.4306	1895.9	1008.4
975.6267	2485.7789	1884.05	996.85
975.755	2487.1264	1889	1000.25
975.8833	2488.4733	1881.9	995.1
976.0115	2489.8195	1874.35	979.25
976.1397	2491.165	1877.75	987.25
976.2678	2492.5097	1858.9	971.95
976.3959	2493.8538	1866.35	981
976.524	2495.1972	1861.7	971.6
976.6521	2496.5398	1862.8	973.5
976.7801	2497.8818	1864.4	971.35
976.9081	2499.2231	1868.25	979.2
977.036	2500.5637	1852.55	961.45
977.164	2501.9035	1855.9	965.95
977.2918	2503.2427	1852.4	958.7
977.4197	2504.5812	1835.7	946
977.5475	2505.919	1841.1	950.35
977.6753	2507.256	1843.9	954.05
977.8031	2508.5924	1833.35	944.45
977.9308	2509.9281	1833.7	938.6
978.0585	2511.2631	1834.15	946.75
978.1861	2512.5974	1832.6	944.05
978.3137	2513.9309	1824.65	937.05
978.4413	2515.2638	1845.5	930.05
978.5689	2516.596	1824.45	934.65
978.6964	2517.9275	1823.85	933.9
978.8239	2519.2583	1810.9	922.2
978.9513	2520.5884	1806.3	917.3
979.0788	2521.9178	1805.1	915.7
979.2062	2523.2465	1805	917.75
979.3335	2524.5745	1802.4	916.45
979.4608	2525.9018	1799.65	911.45
979.5881	2527.2284	1798.15	911.45
979.7154	2528.5543	1790.8	901.3
979.8426	2529.8796	1793.75	903.85
979.9698	2531.2041	1792.65	902.4
980.0969	2532.5279	1784.75	898.15
980.224	2533.851	1781.65	895.3
980.3511	2535.1735	1783.4	893.2
980.4781	2536.4952	1791.5	901.3
980.6052	2537.8163	1783.85	894.6
980.7321	2539.1366	1782.5	893.4
980.8591	2540.4562	1777.35	885.25
980.986	2541.7752	1777.7	887.8
981.1129	2543.0935	1775.4	884
981.2397	2544.411	1772.2	881.5
981.3665	2545.7279	1774.5	884.9
981.4933	2547.0441	1770.25	883.8
981.62	2548.3596	1776.05	882.65
981.7467	2549.6744	1763.4	873.6
981.8734	2550.9885	1763.6	873.3
982.0001	2552.3019	1765.4	874.5
982.1267	2553.6146	1759.1	870.6
982.2532	2554.9266	1746.15	856.35
982.3798	2556.2379	1747.1	855.9
982.5063	2557.5485	1744.55	856.95
982.6327	2558.8585	1759.9	864.95
982.7592	2560.1677	1745.9	853.4
982.8856	2561.4762	1750.05	862.1
983.0119	2562.7841	1746.85	854.35
983.1383	2564.0913	1742.25	854.65
983.2646	2565.3977	1736.1	847.4
983.3908	2566.7035	1740	850.85
983.517	2568.0086	1741.3	849.4
983.6432	2569.313	1739.15	846.2
983.7694	2570.6167	1738.35	847.1
983.8955	2571.9197	1723.1	832.95
984.0216	2573.222	1731.05	839.8
984.1476	2574.5236	1735.1	845.7
984.2737	2575.8246	1726.5	835
984.3996	2577.1248	1725.9	831.95
984.5256	2578.4244	1721.9	832.55
984.6515	2579.7232	1729	839.4
984.7774	2581.0214	1738.9	823.6
984.9032	2582.3189	1726.7	839.7
985.029	2583.6157	1732.05	838.25
985.1548	2584.9118	1719.9	832.4
985.2806	2586.2072	1720.55	831.6
985.4063	2587.5019	1721	832.7
985.5319	2588.7959	1726.25	838.5
985.6576	2590.0893	1721.65	829.35
985.7832	2591.3819	1723.6	834.15
985.9087	2592.6739	1719	831.9
986.0343	2593.9652	1717.25	827.05
986.1597	2595.2557	1728.75	842.35
986.2852	2596.5456	1715.95	824
986.4106	2597.8348	1719.85	830.5
986.536	2599.1234	1717.7	828.3
986.6614	2600.4112	1713.9	825.8
986.7867	2601.6983	1714.1	823.6
986.912	2602.9848	1711	824.6
987.0372	2604.2705	1716.3	821.45
987.1624	2605.5556	1714.3	827.25
987.2876	2606.84	1705	817.25
987.4128	2608.1237	1700.7	808.9
987.5379	2609.4067	1702.75	814.95
987.6629	2610.689	1703.05	804.95
987.788	2611.9707	1690.7	799.5
987.913	2613.2516	1703.55	811.25
988.0379	2614.5319	1680.2	790.6
988.1629	2615.8115	1669.85	781.4
988.2878	2617.0903	1680.2	792.15
988.4126	2618.3685	1673.45	785.3
988.5375	2619.6461	1671.1	784.55
988.6622	2620.9229	1671.9	783.05
988.787	2622.199	1665.8	778.95
988.9117	2623.4745	1672.7	782.2
989.0364	2624.7493	1674.7	787.2
989.161	2626.0234	1664.2	778.9
989.2857	2627.2968	1666.9	779
989.4102	2628.5695	1664.4	775.65
989.5348	2629.8415	1663.1	775.3
989.6593	2631.1128	1659.6	770.65
989.7837	2632.3835	1657.85	771
989.9082	2633.6535	1653.25	767.05
990.0326	2634.9228	1649.35	761.65
990.1569	2636.1914	1651.1	762.25
990.2812	2637.4593	1657.9	767.65
990.4055	2638.7265	1649.6	761.25
990.5298	2639.9931	1644.2	758.15
990.654	2641.259	1643.3	755.2
990.7782	2642.5242	1645.45	756.75
990.9023	2643.7887	1640.75	752.95
991.0264	2645.0525	1635.85	750.15
991.1505	2646.3156	1628.05	738.8
991.2745	2647.5781	1624.35	736.95
991.3985	2648.8398	1626.25	736.5
991.5225	2650.1009	1654.15	731.35
991.6464	2651.3613	1620.55	734.25
991.7703	2652.6211	1630.1	743.75
991.8942	2653.8801	1625.85	739.95
992.018	2655.1385	1621.35	727.95
992.1418	2656.3961	1621.65	731.95
992.2655	2657.6531	1615.6	728.2
992.3892	2658.9094	1619.1	731.3
992.5129	2660.1651	1621.7	738.5
992.6366	2661.42	1617.4	730.65
992.7602	2662.6743	1621.75	734.8
992.8837	2663.9279	1623.9	735.1
993.0073	2665.1808	1618.8	731
993.1307	2666.433	1621.9	732.8
993.2542	2667.6846	1620.3	732.2
993.3776	2668.9354	1625.4	735.4
993.501	2670.1856	1620.8	733
993.6244	2671.4351	1626.45	739.95
993.7477	2672.6839	1626.75	738.3
993.8709	2673.9321	1627	739.95
993.9942	2675.1795	1635.9	749
994.1174	2676.4263	1630	741.5
994.2405	2677.6724	1626.75	742.25
994.3637	2678.9179	1630.05	742.75
994.4868	2680.1626	1629	745.8
994.6098	2681.4067	1629.05	740.45
994.7328	2682.6501	1627.8	739
994.8558	2683.8928	1628.55	742.9
994.9788	2685.1348	1613.4	726.75
995.1017	2686.3761	1620.35	737.2
995.2245	2687.6168	1614.5	729
995.3474	2688.8568	1613.3	728.4
995.4702	2690.0961	1600	715.85
995.5929	2691.3348	1599.15	712.05
995.7156	2692.5727	1601.15	714.6
995.8383	2693.81	1591.9	703
995.961	2695.0466	1599.5	713.55
996.0836	2696.2826	1593.5	706.5
996.2062	2697.5178	1609.8	704.4
996.3287	2698.7524	1589.3	701
996.4512	2699.9863	1593.2	702.4
996.5737	2701.2195	1589.2	704.55
996.6961	2702.452	1589.95	702.75
996.8185	2703.6839	1596.25	709.1
996.9408	2704.9151	1607.7	721.95
997.0631	2706.1456	1606.7	719.8
997.1854	2707.3755	1615.2	728.55
997.3077	2708.6046	1618.8	729.05
997.4299	2709.8331	1626.35	739.5
997.552	2711.0609	1631.75	745.3
997.6742	2712.2881	1629.25	743.3
997.7963	2713.5145	1640.45	754.4
997.9183	2714.7403	1644.15	759.7
998.0403	2715.9654	1659.55	773.75
998.1623	2717.1899	1676.9	777.45
998.2842	2718.4136	1670.6	782.4
998.4062	2719.6367	1685.7	800.65
998.528	2720.8591	1709.75	816.15
998.6498	2722.0809	1714.45	828.45
998.7716	2723.3019	1717.8	828.55
998.8934	2724.5223	1732	843.15
999.0151	2725.7421	1731.85	845.55
999.1368	2726.9611	1731.9	845.3
999.2584	2728.1795	1734.6	842.65
999.38	2729.3972	1720.3	833.7
999.5016	2730.6142	1719.05	821.45
999.6231	2731.8306	1696.55	809.2
999.7446	2733.0462	1683.35	794.85
999.8661	2734.2612	1663.15	773.05
999.9875	2735.4756	1642.1	754.7
1000.1089	2736.6892	1628.25	741.35
1000.2302	2737.9022	1616.75	732.75
1000.3515	2739.1145	1603.6	716.75
1000.4728	2740.3262	1596.85	706.55
1000.594	2741.5372	1573.4	688.9
1000.7152	2742.7475	1569.95	683.9
1000.8363	2743.9571	1564.05	676.6
1000.9575	2745.1661	1557	665.95
1001.0785	2746.3744	1538	651.3
1001.1996	2747.582	1535.95	649.85
1001.3206	2748.7889	1528.6	644
1001.4415	2749.9952	1515.15	628.8
1001.5625	2751.2008	1506.1	619.75
1001.6833	2752.4057	1512.8	625.1
1001.8042	2753.61	1497.05	610.8
1001.925	2754.8136	1500	611.6
1002.0458	2756.0165	1497.1	611.8
1002.1665	2757.2188	1496.35	611.8
1002.2872	2758.4204	1490.95	606.15
1002.4078	2759.6213	1496.25	609.3
1002.5285	2760.8215	1499.55	610.1
1002.649	2762.0211	1497.75	609.1
1002.7696	2763.22	1497.5	608.85
1002.8901	2764.4182	1482.7	596.6
1003.0106	2765.6158	1486.3	602
1003.131	2766.8127	1488.65	602.65
1003.2514	2768.009	1478.45	593.65
1003.3717	2769.2045	1471.6	586.55
1003.492	2770.3994	1473.35	586
1003.6123	2771.5936	1472.15	585
1003.7325	2772.7872	1462.25	578.3
1003.8527	2773.9801	1462.6	577
1003.9729	2775.1723	1482.4	579.15
1004.093	2776.3639	1462.65	577.05
1004.2131	2777.5548	1466.05	578.4
1004.3331	2778.745	1465.75	580.45
1004.4531	2779.9346	1464.05	580.3
1004.5731	2781.1235	1465.6	580.7
1004.693	2782.3117	1465.2	581.4
1004.8129	2783.4992	1465.4	582.05
1004.9328	2784.6861	1468.9	587.4
1005.0526	2785.8723	1478.35	591.15
1005.1723	2787.0579	1477.6	593.35
1005.2921	2788.2428	1483	597.75
1005.4118	2789.427	1488.4	604.15
1005.5314	2790.6106	1499.05	615.4
1005.651	2791.7935	1506.2	620.75
1005.7706	2792.9757	1507.45	624.75
1005.8902	2794.1573	1524.25	636.45
1006.0097	2795.3382	1520.3	636
1006.1291	2796.5184	1538.55	653.8
1006.2485	2797.698	1554.35	669.8
1006.3679	2798.8769	1560.1	675.75
1006.4873	2800.0551	1583	697.35
1006.6066	2801.2327	1600.1	714.25
1006.7258	2802.4096	1609.1	725.2
1006.8451	2803.5859	1628.95	744.8
1006.9642	2804.7615	1648.4	763.9
1007.0834	2805.9364	1667.35	787.7
1007.2025	2807.1106	1689.1	806.05
1007.3216	2808.2842	1721.35	837.35
1007.4406	2809.4572	1749.8	864.7
1007.5596	2810.6294	1781.85	898.05
1007.6785	2811.801	1810.65	927.5
1007.7975	2812.972	1851.55	971.25
1007.9163	2814.1423	1887.6	1003.2
1008.0352	2815.3119	1931.3	1048.45
1008.154	2816.4808	1969.35	1085.75
1008.2727	2817.6491	2028.7	1145.25
1008.3914	2818.8167	2077.45	1195.35
1008.5101	2819.9837	2131.75	1242.45
1008.6288	2821.15	2169.95	1285.15
1008.7474	2822.3157	2227.55	1343.8
1008.8659	2823.4807	2279.35	1395.75
1008.9844	2824.645	2332	1447.7
1009.1029	2825.8086	2382.65	1501.35
1009.2214	2826.9716	2430.65	1548.15
1009.3398	2828.134	2477.55	1594.95
1009.4581	2829.2957	2511.4	1628
1009.5764	2830.4567	2548.25	1665.7
1009.6947	2831.617	2578.45	1695.15
1009.813	2832.7767	2588.1	1706.65
1009.9312	2833.9358	2581.45	1700.55
1010.0493	2835.0941	2579.05	1695.8
1010.1675	2836.2519	2554.3	1673.75
1010.2855	2837.4089	2542.25	1659.1
1010.4036	2838.5653	2528.2	1646.25
1010.5216	2839.7211	2520.15	1634.85
1010.6396	2840.8761	2534.6	1651.95
1010.7575	2842.0306	2552.5	1669.6
1010.8754	2843.1843	2591.45	1708.5
1010.9932	2844.3374	2620.8	1738.65
1011.111	2845.4899	2675.9	1793.7
1011.2288	2846.6417	2735.15	1854.4
1011.3465	2847.7928	2800.55	1919.05
1011.4642	2848.9433	2866.65	1984.25
1011.5818	2850.0931	2934.6	2052.45
1011.6995	2851.2422	2998.7	2114.1
1011.817	2852.3907	3062.35	2178.6
1011.9345	2853.5385	3129.55	2244.45
1012.052	2854.6857	3196.55	2303.9
1012.1695	2855.8323	3222.9	2341.5
1012.2869	2856.9781	3264.75	2381.3
1012.4042	2858.1233	3313.9	2430.55
1012.5216	2859.2679	3367.45	2486.4
1012.6389	2860.4118	3421.35	2540.05
1012.7561	2861.555	3462.6	2575.25
1012.8733	2862.6976	3490.3	2607.6
1012.9905	2863.8395	3542.95	2660.4
1013.1076	2864.9808	3560.55	2678.1
1013.2247	2866.1214	3579.1	2697.5
1013.3417	2867.2614	3600.9	2719.3
1013.4587	2868.4007	3611.5	2727.8
1013.5757	2869.5393	3620.1	2736.35
1013.6926	2870.6773	3636.5	2750.3
1013.8095	2871.8146	3661.85	2775.65
1013.9263	2872.9513	3649.5	2764.4
1014.0431	2874.0874	3641.8	2761.6
1014.1599	2875.2227	3631.4	2748.2
1014.2766	2876.3574	3603.5	2719.45
1014.3933	2877.4915	3594.3	2713.45
1014.51	2878.6249	3560.7	2678.35
1014.6266	2879.7577	3536.75	2651.85
1014.7431	2880.8898	3520.75	2628.55
1014.8596	2882.0212	3501	2619.95
1014.9761	2883.152	3488.1	2605
1015.0925	2884.2821	3473.55	2593.8
1015.2089	2885.4116	3478.45	2598.85
1015.3253	2886.5405	3468.8	2585.1
1015.4416	2887.6686	3487.95	2603.95
1015.5579	2888.7962	3473.15	2593.1
1015.6741	2889.923	3489.8	2609.5
1015.7903	2891.0493	3494.3	2614.35
1015.9065	2892.1748	3505.15	2625.1
1016.0226	2893.2997	3521.45	2639.95
1016.1387	2894.424	3540.5	2658.55
1016.2547	2895.5476	3565.55	2684.6
1016.3707	2896.6706	3589.85	2710.3
1016.4866	2897.7929	3593.1	2711.05
1016.6025	2898.9145	3608.9	2727.95
1016.7184	2900.0355	3664.5	2781.65
1016.8342	2901.1559	3671.5	2791.2
1016.95	2902.2756	3712.6	2830.25
1017.0658	2903.3946	3751.35	2869.6
1017.1815	2904.513	3776.55	2891.45
1017.2971	2905.6308	3785.25	2904.6
1017.4127	2906.7479	3816.25	2935.4
1017.5283	2907.8643	3849.7	2968.55
1017.6439	2908.9801	3874.85	2992.8
1017.7594	2910.0953	3866.75	2987.95
1017.8748	2911.2098	3870.4	2985.9
1017.9902	2912.3236	3864.1	2975.35
1018.1056	2913.4368	3870.4	2986.85
1018.2209	2914.5494	3845.6	2966.2
1018.3362	2915.6613	3803.65	2917.15
1018.4515	2916.7725	3780.15	2896.05
1018.5667	2917.8831	3735.6	2853.45
1018.6819	2918.9931	3714.5	2833.2
1018.797	2920.1024	3681.05	2797.05
1018.9121	2921.211	3672.1	2790.35
1019.0271	2922.319	3643.35	2762.95
1019.1421	2923.4264	3623.35	2745.65
1019.2571	2924.5331	3616.65	2737.25
1019.372	2925.6391	3616.3	2738.8
1019.4869	2926.7445	3598.8	2719.5
1019.6017	2927.8493	3618.75	2737.2
1019.7165	2928.9534	3617.05	2733.5
1019.8313	2930.0569	3622.2	2739.8
1019.946	2931.1597	3614.9	2734.1
1020.0606	2932.2619	3606.4	2726.9
1020.1753	2933.3634	3599.3	2719.65
1020.2899	2934.4643	3607.2	2721.4
1020.4044	2935.5645	3562.55	2677.7
1020.5189	2936.6641	3553.35	2668.7
1020.6334	2937.763	3524.35	2645.5
1020.7478	2938.8613	3471.8	2590.1
1020.8622	2939.959	3417.9	2530.9
1020.9765	2941.056	3348.1	2469.3
1021.0908	2942.1523	3273.45	2392.95
1021.2051	2943.248	3195.35	2315.7
1021.3193	2944.3431	3097.8	2220.1
1021.4334	2945.4375	3009.45	2128.25
1021.5476	2946.5313	2901.6	2024.55
1021.6617	2947.6244	2809.95	1928.55
1021.7757	2948.7169	2707.1	1827.45
1021.8897	2949.8087	2612.25	1734.85
1022.0037	2950.8999	2520.9	1642.15
1022.1176	2951.9904	2445.3	1564.75
1022.2315	2953.0803	2370.35	1488
1022.3453	2954.1696	2320	1439.25
1022.4591	2955.2582	2271.15	1390.8
1022.5728	2956.3462	2225.15	1344.7
1022.6865	2957.4335	2175.8	1295
1022.8002	2958.5202	2146.6	1265.8
1022.9138	2959.6062	2115.3	1235.8
1023.0274	2960.6916	2090.45	1212.3
1023.141	2961.7764	2075.95	1194.95
1023.2545	2962.8605	2066.8	1188
1023.3679	2963.9439	2048.3	1168.05
1023.4813	2965.0267	2040.2	1159.65
1023.5947	2966.1089	2045.95	1144.95
1023.708	2967.1905	2020.1	1139.55
1023.8213	2968.2714	2015.05	1135.45
1023.9346	2969.3516	2021.7	1140.05
1024.0478	2970.4312	2020	1131.1
1024.1609	2971.5102	2019.8	1138.3
1024.274	2972.5885	2021.8	1142.2
1024.3871	2973.6662	2030.9	1146.8
1024.5002	2974.7432	2025.15	1147
1024.6132	2975.8196	2020.95	1142
1024.7261	2976.8954	2003.25	1123.5
1024.839	2977.9705	1998.95	1120.3
1024.9519	2979.045	1980.1	1102.35
1025.0647	2980.1188	1969.25	1089.3
1025.1775	2981.192	1956.9	1078.05
1025.2902	2982.2645	1936.8	1055.1
1025.4029	2983.3364	1905.8	1025.8
1025.5156	2984.4077	1888.65	1009.45
1025.6282	2985.4783	1863.65	977.05
1025.7407	2986.5483	1829.2	951.8
1025.8532	2987.6177	1795.75	916.45
1025.9657	2988.6864	1749	870.1
1026.0782	2989.7545	1727.95	847.75
1026.1906	2990.8219	1697.4	819
1026.3029	2991.8887	1655.35	771.1
1026.4152	2992.9548	1626.75	746.7
1026.5275	2994.0204	1599.8	719.8
1026.6397	2995.0852	1574.35	695.9
1026.7519	2996.1495	1544.25	663.95
1026.864	2997.2131	1521.6	642.5
1026.9761	2998.276	1488.4	609.75
1027.0882	2999.3383	1474.05	592.6
1027.2002	3000.4	1451.25	569.75
1027.3122	3001.4611	1439.45	561.4
1027.4241	3002.5215	1419.35	542.45
1027.536	3003.5812	1399.35	519.8
1027.6478	3004.6404	1392.45	513.3
1027.7596	3005.6989	1384.3	504.3
1027.8714	3006.7567	1372.65	489.55
1027.9831	3007.8139	1398.8	491.25
1028.0947	3008.8705	1355.4	476.7
1028.2064	3009.9264	1363.65	468.85
1028.3179	3010.9818	1341.9	463.2
1028.4295	3012.0364	1337.7	457.6
1028.541	3013.0905	1337.8	459.5
1028.6524	3014.1439	1329.95	450.25
1028.7638	3015.1966	1325.15	447.35
1028.8752	3016.2487	1324.3	446.9
1028.9865	3017.3002	1334.7	450.05
1029.0978	3018.3511	1321.8	446.45
1029.209	3019.4013	1317.75	439.95
1029.3202	3020.4509	1315.4	435.9
1029.4314	3021.4998	1311.1	432.75
1029.5425	3022.5481	1317.25	439.3
1029.6535	3023.5958	1310.05	430.55
1029.7645	3024.6428	1319.95	441.8
1029.8755	3025.6892	1309.6	431.05
1029.9864	3026.735	1307.3	427.6
1030.0973	3027.7802	1309.65	431.8
1030.2082	3028.8247	1314.25	434.5
1030.319	3029.8685	1319.1	441
1030.4297	3030.9118	1322.5	442
1030.5404	3031.9544	1324.3	447.1
1030.6511	3032.9963	1321.1	441.95
1030.7617	3034.0376	1325.55	446.95
1030.8723	3035.0783	1331.55	450.3
1030.9829	3036.1184	1336.1	457.25
1031.0934	3037.1578	1340.15	464.4
1031.2038	3038.1966	1339.3	460.45
1031.3142	3039.2348	1341.5	464.45
1031.4246	3040.2723	1346.6	458
1031.5349	3041.3092	1336.5	460.1
1031.6452	3042.3455	1336.7	457.85
1031.7554	3043.3811	1333.75	456.3
1031.8656	3044.4161	1332.75	454.25
1031.9758	3045.4505	1325.4	446.5
1032.0859	3046.4842	1323.75	445.35
1032.1959	3047.5173	1322.5	446.15
1032.3059	3048.5498	1310.3	432.75
1032.4159	3049.5816	1312.95	435.4
1032.5258	3050.6128	1306.9	428.35
1032.6357	3051.6434	1304.1	425.25
1032.7455	3052.6734	1297.55	419.1
1032.8553	3053.7027	1295.75	417
1032.9651	3054.7314	1284.9	408.3
1033.0748	3055.7594	1283.1	404
1033.1845	3056.7868	1284.55	406.5
1033.2941	3057.8136	1281.45	403.2
1033.4037	3058.8398	1266.8	390.85
1033.5132	3059.8653	1260.55	383.65
1033.6227	3060.8902	1265.15	386.8
1033.7321	3061.9145	1263.25	383
1033.8415	3062.9381	1252.35	373.7
1033.9509	3063.9612	1274	379.55
1034.0602	3064.9835	1249.35	370.95
1034.1694	3066.0053	1248.05	368.5
1034.2787	3067.0264	1239.3	362.2
1034.3878	3068.0469	1234	354.7
1034.497	3069.0668	1231.3	352.3
1034.6061	3070.086	1218.25	342.3
1034.7151	3071.1046	1213.75	334.85
1034.8241	3072.1226	1208.7	327.35
1034.9331	3073.1399	1201.15	322.05
1035.042	3074.1567	1192.6	314.4
1035.1508	3075.1727	1190	309.35
1035.2597	3076.1882	1177.7	301.15
1035.3684	3077.203	1165.4	286.9
1035.4772	3078.2173	1163	283.6
1035.5859	3079.2308	1162.35	283.35
1035.6945	3080.2438	1150.4	268.95
1035.8031	3081.2561	1141.25	264.7
1035.9117	3082.2678	1135	256.55
1036.0202	3083.2789	1129	252.3
1036.1286	3084.2893	1125.85	248.45
1036.2371	3085.2991	1119.15	241.95
1036.3454	3086.3083	1119.65	238
1036.4538	3087.3169	1108.1	228.15
1036.562	3088.3248	1104.65	226.15
1036.6703	3089.3321	1103.05	224.1
1036.7785	3090.3388	1095.9	216.8
1036.8866	3091.3449	1092.8	215.8
1036.9948	3092.3503	1087.85	207.95
1037.1028	3093.3551	1085.65	210.6
1037.2108	3094.3593	1082.8	206.85
1037.3188	3095.3629	1076.75	200.7
1037.4267	3096.3658	1075.7	196.2
1037.5346	3097.3681	1072.55	197.15
1037.6425	3098.3698	1071.95	192.85
1037.7503	3099.3708	1074.45	191.55
1037.858	3100.3713	1063.1	187.35
1037.9657	3101.3711	1061.4	182.95
1038.0734	3102.3702	1196.3	182.55
1038.181	3103.3688	1063.75	185.2
1038.2886	3104.3667	1056.35	179.25
1038.3961	3105.364	1053.9	177.85
1038.5036	3106.3607	1053.2	177.15
1038.611	3107.3568	1051.55	173.45
1038.7184	3108.3522	1047.3	171.4
1038.8257	3109.347	1047.7	169.45
1038.933	3110.3412	1049	169.5
1039.0403	3111.3348	1043.1	166.6
1039.1475	3112.3277	1039.15	162.7
1039.2547	3113.32	1037.85	161.75
1039.3618	3114.3117	1037.4	159.6
1039.4689	3115.3028	1037.25	159.95
1039.5759	3116.2932	1037.1	157.9
1039.6829	3117.2831	1038	155.1
1039.7898	3118.2723	1034.85	157.6
1039.8967	3119.2608	1029.05	152.8
1040.0035	3120.2488	1029.8	151.3
1040.1103	3121.2361	1028.2	151.25
1040.2171	3122.2229	1025.4	147.7
1040.3238	3123.209	1021.95	143.4
1040.4305	3124.1944	1021.7	145.55
1040.5371	3125.1793	1023.2	143.85
1040.6437	3126.1635	1018.8	143.2
1040.7502	3127.1471	1020.8	145.55
1040.8567	3128.1301	1019.45	141.45
1040.9631	3129.1125	1013.85	138.3
1041.0695	3130.0942	1019.35	143.05
1041.1759	3131.0753	1023.25	139.8
1041.2822	3132.0558	1015.5	137.3
1041.3884	3133.0357	1012.65	134.6
1041.4946	3134.015	1010.6	133.25
1041.6008	3134.9936	1011.2	134.15
1041.7069	3135.9716	1028.25	131.6
1041.813	3136.949	1006.95	132.35
1041.919	3137.9258	1021.1	126.5
1042.025	3138.902	1009.1	127.65
1042.1309	3139.8775	1004.25	127.1
1042.2368	3140.8524	1005.15	127.65
1042.3427	3141.8267	1007.95	125.8
1042.4485	3142.8004	1000.3	124.55
1042.5542	3143.7735	1002.4	120.4
1042.6599	3144.7459	1000.15	123.35
1042.7656	3145.7178	999.45	120.6
1042.8712	3146.689	994.5	117.5
1042.9768	3147.6596	997.9	120.3
1043.0823	3148.6295	991.75	115.35
1043.1878	3149.5989	996.2	118.7
1043.2932	3150.5676	992.85	118.55
1043.3986	3151.5357	988.65	115.3
1043.5039	3152.5032	988.95	114.4
1043.6092	3153.4701	989.6	112.25
1043.7145	3154.4364	992.65	112.65
1043.8197	3155.402	987.8	113.3
1043.9248	3156.367	988.7	111.3
1044.03	3157.3315	1017.95	110
1044.135	3158.2952	985.65	108.3
1044.24	3159.2584	984.1	106.95
1044.345	3160.221	988.4	111.85
1044.4499	3161.1829	979.65	103.4
1044.5548	3162.1442	983.05	107.5
1044.6596	3163.105	979.45	101.95
1044.7644	3164.065	980.1	103.45
1044.8692	3165.0245	983.05	104.05
1044.9739	3165.9834	978.15	101.85
1045.0785	3166.9416	979.05	103.5
1045.1831	3167.8993	973.6	98.65
1045.2877	3168.8563	978.9	103.15
1045.3922	3169.8127	975.05	99.55
1045.4966	3170.7684	979.7	106.65
1045.6011	3171.7236	977.45	100.25
1045.7054	3172.6782	972.95	97.05
1045.8098	3173.6321	973.95	97.25
1045.914	3174.5854	978.25	98.15
1046.0183	3175.5381	971.45	95.7
1046.1224	3176.4902	972.15	96.7
1046.2266	3177.4417	975.2	99.95
1046.3307	3178.3926	970.7	94.5
1046.4347	3179.3428	970.65	97.25
1046.5387	3180.2924	970.5	96.35
1046.6427	3181.2415	968.15	92.35
1046.7466	3182.1899	970.55	95.45
1046.8504	3183.1377	967.8	93.75
1046.9542	3184.0848	971.35	92
1047.058	3185.0314	967.95	92.4
1047.1617	3185.9773	964.6	87.8
1047.2654	3186.9227	969.3	92.05
1047.369	3187.8674	969.25	95.15
1047.4726	3188.8115	968.5	88.55
1047.5761	3189.755	964.95	89.9
1047.6796	3190.6979	961.55	86.55
1047.783	3191.6402	962.7	86.85
1047.8864	3192.5818	963.5	89.6
1047.9898	3193.5229	980.8	87.65
1048.0931	3194.4633	963.75	89.05
1048.1963	3195.4031	958.85	82.25
1048.2995	3196.3423	959.55	86.15
1048.4027	3197.2809	959.55	82.65
1048.5058	3198.2189	961.9	85.85
1048.6089	3199.1563	966.05	84.15
1048.7119	3200.0931	957.15	82.4
1048.8148	3201.0292	955.05	81.15
1048.9178	3201.9648	959.1	85.5
1049.0206	3202.8997	959.15	80.1
1049.1235	3203.834	955.25	81.25
1049.2262	3204.7677	955.65	78.95
1049.329	3205.7008	956.55	77.55
1049.4317	3206.6333	954.4	82.45
1049.5343	3207.5652	956.4	80.65
1049.6369	3208.4964	952.45	76.85
1049.7394	3209.4271	953.95	80.25
1049.8419	3210.3571	950.95	75.9
1049.9444	3211.2865	950.3	73.25
1050.0468	3212.2154	951.9	74.85
1050.1491	3213.1436	954	74.25
1050.2514	3214.0712	959.75	78.4
1050.3537	3214.9982	951.75	75.9
1050.4559	3215.9246	951.65	76.5
1050.5581	3216.8503	950.25	74.9
1050.6602	3217.7755	951.55	76.25
1050.7623	3218.7001	950.55	76.4
1050.8643	3219.624	951.45	75.1
1050.9663	3220.5473	949.4	73.65
1051.0682	3221.4701	949.05	73.95
1051.1701	3222.3922	949.65	73.1
1051.2719	3223.3137	946	69.8
1051.3737	3224.2346	942.25	63.45
1051.4754	3225.1549	946.65	72.95
1051.5771	3226.0746	945	68.8
1051.6788	3226.9937	946	72.1
1051.7804	3227.9121	945.45	71.1
1051.8819	3228.83	942.65	66.4
1051.9834	3229.7473	944.7	68.8
1052.0849	3230.6639	944.8	71.45
1052.1863	3231.5799	946.25	71.5
1052.2876	3232.4954	945.9	70.15
1052.3889	3233.4102	942.2	66.9
1052.4902	3234.3244	942.25	66.95
1052.5914	3235.238	941.8	66.6
1052.6926	3236.151	965.05	65.55
1052.7937	3237.0634	939.5	65.2
1052.8948	3237.9752	935.65	59.5
1052.9958	3238.8864	939.35	67.3
1053.0968	3239.797	938.85	65.05
1053.1977	3240.7069	940.4	64
1053.2986	3241.6163	940.75	63.75
1053.3994	3242.5251	937.05	64.05
1053.5002	3243.4332	936.25	64.05
1053.6009	3244.3408	936.55	63.2
1053.7016	3245.2477	937.95	63.6
1053.8022	3246.154	939.2	64
1053.9028	3247.0598	937.1	61.75
1054.0034	3247.9649	936.8	62.85
1054.1039	3248.8694	935.1	60.3
1054.2043	3249.7733	936.15	59.9
1054.3047	3250.6766	934.5	59.45
1054.4051	3251.5793	933.5	58.5
1054.5054	3252.4814	937.15	62.45
1054.6056	3253.3829	934.25	59.6
1054.7058	3254.2838	930.65	55.1
1054.806	3255.1841	929.85	58.1
1054.9061	3256.0838	930.25	56.35
1055.0061	3256.9829	930.1	54.9
1055.1062	3257.8814	930.8	55.55
1055.2061	3258.7792	932.1	54.15
1055.306	3259.6765	928.1	51.7
1055.4059	3260.5731	927.9	53.3
1055.5057	3261.4692	926.35	50.85
1055.6055	3262.3647	927.95	54.05
1055.7052	3263.2595	925.25	52.55
1055.8049	3264.1538	922.5	48.7
1055.9045	3265.0474	922.8	47.35
1056.0041	3265.9404	924.45	51.55
1056.1036	3266.8329	922.55	49.15
1056.2031	3267.7247	932.2	47.75
1056.3025	3268.616	918.35	46.7
1056.4019	3269.5066	919.25	45.1
1056.5013	3270.3966	917.85	43.2
1056.6005	3271.286	911.55	38.3
