Software Version:	3.9.2.0
Unit SN:	10000200
Spectrometer SN:	6960
Date:	3/8/2024 1:18:38 PM
Data Line Index:	25
Spectral Points:	2048
Integration time (ms):	125
Averages:	20
Delay (ms):	30000
Sequence Number:	1
Processing:	dark subtract
Laser Power (mW):	300
Laser Current (mA):	823
Laser Diode Temp (C):	25.1
Laser Case Temp (C):	26.1
System Temp (C):	26.1
Spectrometer Temp (C):	23.9
CCD Temp (C):	0.009
Secondary Temp (C):	20.007
Heatsink Temp (C):	21.034
CCDPCB Temp (C):	35.384
SecondaryPCB Temp (C):	29.537

Wavelength	RamanShift	Raw Counts	Dark Subtracted
787.061	30.1047	451.95	45.95
787.2016	32.3739	451.9	46
787.3422	34.6426	457.3	50.6
787.4828	36.9109	464.65	54.85
787.6235	39.1787	472.4	59.7
787.7642	41.4461	480.4	64.25
787.9049	43.7131	490.05	70.45
788.0456	45.9796	497.15	74.55
788.1863	48.2456	508.8	82.55
788.3271	50.5112	516.5	84.85
788.4679	52.7764	523.7	89.35
788.6087	55.0411	536.5	97.4
788.7496	57.3054	548.5	103.25
788.8904	59.5692	558.8	111.55
789.0313	61.8326	563.2	114.15
789.1722	64.0955	576.3	124.7
789.3132	66.3579	592.75	133.9
789.4541	68.6199	614	151.35
789.5951	70.8815	649.9	182.45
789.7361	73.1426	726.75	255.45
789.8771	75.4032	929.95	456.25
790.0181	77.6634	1423	941.4
790.1592	79.9231	2576.9	2088.05
790.3003	82.1824	5054.4	4548.95
790.4414	84.4412	9519.85	8978.75
790.5825	86.6995	15634.5	15052.8
790.7237	88.9574	21592.4	20971.7
790.8648	91.2148	25688.45	25044.35
791.006	93.4717	27527.05	26868.2
791.1472	95.7282	27863	27198.15
791.2885	97.9842	27660.55	26987.15
791.4297	100.2398	26979.75	26306.55
791.571	102.4949	26330.6	25652.55
791.7123	104.7495	25497.3	24817.9
791.8536	107.0036	24640.8	23963.9
791.9949	109.2573	23834.35	23155
792.1363	111.5105	23062.8	22379
792.2777	113.7632	22357.25	21675.15
792.4191	116.0154	21769.8	21073.05
792.5605	118.2672	21327.65	20637.25
792.7019	120.5185	20858.35	20165.8
792.8434	122.7693	20494	19799.85
792.9849	125.0197	20242.1	19543.9
793.1264	127.2696	19917.05	19219.1
793.2679	129.519	19744.3	19037.75
793.4094	131.7679	19532.05	18822.2
793.551	134.0163	19309.3	18597.7
793.6926	136.2642	19066.95	18349.15
793.8342	138.5117	18783.25	18062.7
793.9758	140.7587	18453.8	17728.8
794.1175	143.0052	18268.9	17540.15
794.2591	145.2512	17936.25	17215.15
794.4008	147.4967	17669	16948.9
794.5425	149.7417	17508.9	16784.55
794.6842	151.9863	17360.55	16630.85
794.826	154.2304	17277.35	16543.5
794.9677	156.4739	17119.55	16379.65
795.1095	158.717	17027.15	16286.15
795.2513	160.9596	16883.55	16136.15
795.3931	163.2017	16602.25	15859.1
795.535	165.4433	16323.9	15573.4
795.6768	167.6844	15982.65	15233.2
795.8187	169.925	15657.95	14908.25
795.9606	172.1651	15327.2	14568.95
796.1025	174.4047	15044.7	14291.1
796.2445	176.6439	14762.4	14005.65
796.3864	178.8825	14515.7	13756.05
796.5284	181.1206	14370.1	13597.55
796.6704	183.3582	14233.5	13457.35
796.8124	185.5954	14130.9	13358.35
796.9544	187.832	14062.6	13284.35
797.0965	190.0681	14018.5	13237.9
797.2386	192.3037	13992.1	13209.85
797.3806	194.5388	13992.7	13205.5
797.5228	196.7734	14030	13244.1
797.6649	199.0075	14108.85	13321.75
797.807	201.2411	14222.95	13431.45
797.9492	203.4742	14311.15	13518
798.0914	205.7068	14429.1	13631.85
798.2336	207.9389	14534.4	13734.65
798.3758	210.1704	14692.45	13897.75
798.518	212.4015	14801	14018.85
798.6603	214.632	14968.9	14192.5
798.8025	216.862	15107.2	14331.25
798.9448	219.0915	15270.6	14495.6
799.0871	221.3205	15463.7	14680.45
799.2294	223.549	15651.4	14876.75
799.3718	225.777	15867	15096.65
799.5141	228.0044	16136.8	15356.2
799.6565	230.2314	16506.25	15724.1
799.7989	232.4578	16814.55	16026.85
799.9413	234.6837	17119.4	16327.4
800.0837	236.909	17291.8	16495.3
800.2262	239.1339	17247.3	16426.25
800.3687	241.3582	17116.8	16311.35
800.5111	243.582	16859.9	16022.35
800.6536	245.8053	16601.6	15778.7
800.7961	248.0281	16357.25	15538.65
800.9387	250.2503	16213.8	15388.95
801.0812	252.472	16123.65	15300.9
801.2238	254.6932	16181.2	15360.1
801.3664	256.9139	16122	15298.95
801.509	259.134	16231.6	15398.8
801.6516	261.3536	16301.85	15474.95
801.7942	263.5727	16396.35	15567.05
801.9369	265.7912	16507.8	15676.2
802.0795	268.0092	16640.9	15813.05
802.2222	270.2267	16676.1	15847.4
802.3649	272.4436	16707.35	15876.5
802.5076	274.6601	16673.35	15835.75
802.6504	276.8759	16565.15	15730.6
802.7931	279.0913	16478.2	15646.55
802.9359	281.3061	16397.45	15562.05
803.0787	283.5204	16395.5	15547
803.2215	285.7341	16435.95	15595.3
803.3643	287.9473	16536.65	15684.5
803.5071	290.16	16729	15884.95
803.6499	292.3721	16973.2	16132.5
803.7928	294.5837	17315.95	16469
803.9357	296.7947	17623.9	16775.3
804.0786	299.0052	17836.75	16988.5
804.2215	301.2152	17714.75	16868.55
804.3644	303.4246	17433.75	16589.65
804.5074	305.6334	16957.2	16120.1
804.6503	307.8418	16460.95	15616.7
804.7933	310.0495	16066.35	15218.3
804.9363	312.2568	15681.4	14834.5
805.0793	314.4635	15385.45	14532.7
805.2223	316.6696	15281.5	14425.1
805.3653	318.8752	15167.85	14306.5
805.5084	321.0802	15143.7	14285.5
805.6514	323.2847	15235.3	14376.35
805.7945	325.4887	15282.85	14423.15
805.9376	327.692	15263.65	14403.45
806.0807	329.8949	15146.8	14282.15
806.2238	332.0972	14862.3	14000.2
806.367	334.2989	14640.7	13772.05
806.5101	336.5001	14394.35	13531.1
806.6533	338.7007	14202.1	13333.85
806.7965	340.9008	14034.55	13168.15
806.9397	343.1003	13907.55	13041
807.0829	345.2992	13848.25	12979.05
807.2261	347.4976	13797.75	12924.2
807.3693	349.6955	13772.1	12899.8
807.5126	351.8927	13825.95	12947.35
807.6559	354.0895	13784.55	12898.55
807.7991	356.2856	13828	12945.25
807.9424	358.4812	13788.35	12912.05
808.0857	360.6763	13797.75	12917.15
808.2291	362.8707	13796.3	12916.75
808.3724	365.0646	13828.75	12946.6
808.5158	367.258	13853.25	12969.25
808.6591	369.4508	13920.85	13032.35
808.8025	371.643	13991.15	13105.1
808.9459	373.8346	14036.4	13148.45
809.0893	376.0257	14019.4	13126.9
809.2327	378.2162	13986.55	13097.15
809.3762	380.4062	13938.45	13051.85
809.5196	382.5956	13793.75	12904.35
809.6631	384.7844	13665.25	12781.2
809.8066	386.9726	13571.5	12692.1
809.9501	389.1603	13496.4	12616.1
810.0936	391.3474	13478.9	12566.45
810.2371	393.5339	13473.85	12589.6
810.3806	395.7199	13388.7	12507.05
810.5241	397.9052	13415.65	12534.05
810.6677	400.09	13458.15	12576.05
810.8113	402.2743	13540.85	12660.35
810.9548	404.4579	13666.05	12782.55
811.0984	406.641	13875.3	12991.5
811.2421	408.8235	14050.95	13171.7
811.3857	411.0054	14308.1	13425.8
811.5293	413.1868	14653.1	13763.6
811.673	415.3675	14935	14042
811.8166	417.5477	15069.95	14175.95
811.9603	419.7273	15060.65	14165.2
812.104	421.9064	14995	14094.25
812.2477	424.0848	14848.6	13951.85
812.3914	426.2627	14669.3	13771
812.5351	428.4399	14412.9	13513.1
812.6788	430.6166	14066.75	13164.35
812.8226	432.7928	13688.4	12788.7
812.9663	434.9683	13365.2	12464.4
813.1101	437.1432	13134.85	12237.8
813.2539	439.3176	12971.95	12079.85
813.3977	441.4914	12875.15	11988.4
813.5415	443.6645	12842	11949
813.6853	445.8371	12802.8	11906
813.8291	448.0091	12751.55	11858.15
813.973	450.1806	12742.25	11845.55
814.1168	452.3514	12707.5	11815.25
814.2607	454.5216	12724.45	11820.95
814.4046	456.6913	12648.7	11753.4
814.5485	458.8603	12709.2	11814.75
814.6924	461.0288	12780.3	11888.05
814.8363	463.1967	12782.1	11895.45
814.9802	465.3639	12849.5	11958.5
815.1241	467.5306	12914.1	12020.4
815.2681	469.6967	13009.05	12120.5
815.412	471.8622	13116.85	12230.75
815.556	474.0271	13229.7	12341.55
815.7	476.1914	13303.1	12406.4
815.844	478.3551	13307.9	12411.95
815.988	480.5182	13309.45	12420.95
816.132	482.6807	13334.45	12447.35
816.276	484.8426	13462.6	12582.7
816.4201	487.0039	13777.15	12889.35
816.5641	489.1647	14202.15	13308.25
816.7082	491.3248	14606.95	13708.05
816.8522	493.4843	14745.65	13852.7
816.9963	495.6432	14720.75	13832.3
817.1404	497.8015	14616.9	13707.7
817.2845	499.9592	14577.95	13666.85
817.4286	502.1163	14455.6	13545.75
817.5727	504.2728	14189.65	13292.8
817.7168	506.4287	13898.5	13011.9
817.861	508.5839	13516.35	12627.15
818.0051	510.7386	13226.45	12331.25
818.1493	512.8927	13080.25	12172.15
818.2935	515.0461	12990.45	12084.45
818.4377	517.199	13011.55	12106.45
818.5818	519.3512	13074.95	12165.75
818.726	521.5029	13212	12301.35
818.8703	523.6539	13356.85	12452
819.0145	525.8043	13420.65	12508.8
819.1587	527.9541	13399	12488.1
819.303	530.1033	13338.5	12432.85
819.4472	532.2519	13287.45	12380.1
819.5915	534.3999	13343.95	12434.95
819.7357	536.5472	13585.1	12678
819.88	538.694	13939.1	13037.35
820.0243	540.8401	14394.4	13485.4
820.1686	542.9856	14855.7	13935.6
820.3129	545.1305	14941.9	14015.9
820.4572	547.2748	14833.65	13899.9
820.6016	549.4185	14527.9	13596.1
820.7459	551.5615	14244.35	13317.55
820.8902	553.704	14155.8	13225.65
821.0346	555.8458	14173.55	13254.35
821.1789	557.987	14243.15	13324.25
821.3233	560.1276	14290.75	13366.65
821.4677	562.2675	14462.2	13539.95
821.6121	564.4069	14652.7	13731.05
821.7565	566.5456	14835	13919.7
821.9009	568.6837	14818.35	13904.15
822.0453	570.8212	14515.85	13602.45
822.1897	572.958	14048.55	13138.55
822.3342	575.0942	13619.9	12711.4
822.4786	577.2299	13340.6	12432.7
822.6231	579.3648	13271.55	12376.85
822.7675	581.4992	13288.8	12405.3
822.912	583.6329	13445.65	12565.75
823.0565	585.766	13680.2	12788.85
823.201	587.8985	13765.75	12867.9
823.3454	590.0304	13834	12899.9
823.4899	592.1616	13777.05	12858
823.6345	594.2922	13638.8	12720.35
823.779	596.4222	13499.75	12573.4
823.9235	598.5515	13294.5	12373.05
824.068	600.6802	13156.05	12229.1
824.2126	602.8083	12994.8	12074.3
824.3571	604.9358	12959.15	12038.15
824.5017	607.0626	12919.55	11994.05
824.6462	609.1888	12937.15	12002.65
824.7908	611.3144	12959.65	12026.05
824.9354	613.4393	12933.05	12004.2
825.08	615.5636	12936.35	12004.9
825.2246	617.6873	12867.25	11941.2
825.3692	619.8103	12833.35	11901.45
825.5138	621.9327	12661.9	11737.3
825.6584	624.0544	12553.3	11631.4
825.803	626.1756	12499.3	11577.95
825.9477	628.2961	12430.05	11502.15
826.0923	630.4159	12373.35	11442.5
826.237	632.5351	12317.05	11387.35
826.3816	634.6537	12257.25	11322.45
826.5263	636.7716	12289.25	11350.8
826.6709	638.8889	12293.7	11356.1
826.8156	641.0056	12302.35	11363.85
826.9603	643.1216	12303.3	11365.9
827.105	645.237	12299.15	11367.4
827.2497	647.3518	12256.05	11334.9
827.3944	649.4659	12244.25	11322.6
827.5391	651.5793	12235.1	11316.75
827.6838	653.6922	12222.5	11300.5
827.8285	655.8043	12204.05	11279
827.9733	657.9159	12209.1	11280.8
828.118	660.0268	12151.25	11222.3
828.2627	662.137	12133.4	11201.55
828.4075	664.2466	12090.65	11154.3
828.5522	666.3556	12106.65	11171.9
828.697	668.4639	12058.55	11128.85
828.8418	670.5716	12092.65	11170.2
828.9865	672.6786	12127.45	11198.55
829.1313	674.785	12144.9	11210.05
829.2761	676.8907	12138.15	11203.75
829.4209	678.9958	12215.65	11289.75
829.5657	681.1002	12219.5	11283.3
829.7105	683.204	12217.05	11277
829.8553	685.3072	12156.35	11214
830.0001	687.4097	12130.75	11194.2
830.1449	689.5115	12097.3	11158.05
830.2898	691.6127	12057.4	11126.45
830.4346	693.7132	12003.9	11073.95
830.5794	695.8131	12027.35	11081.05
830.7243	697.9123	12011.85	11072.55
830.8691	700.0109	11999.85	11056
831.014	702.1089	12018.3	11076.9
831.1588	704.2061	12035.15	11099.7
831.3037	706.3028	12060.4	11120.8
831.4486	708.3987	12101.85	11159.55
831.5935	710.4941	12195.1	11258.15
831.7383	712.5887	12282.35	11346.05
831.8832	714.6827	12486.15	11545.5
832.0281	716.7761	12779.55	11848.3
832.173	718.8688	13057.25	12119.85
832.3179	720.9608	13248.05	12302.95
832.4628	723.0522	13358.75	12407.55
832.6077	725.1429	13258.5	12311.2
832.7527	727.233	13110.3	12168.9
832.8976	729.3224	12997.6	12058.05
833.0425	731.4112	12765.9	11825.75
833.1874	733.4993	12597.1	11657.25
833.3324	735.5867	12385.05	11444
833.4773	737.6735	12290.55	11346.05
833.6222	739.7596	12158.15	11217.35
833.7672	741.845	12097.05	11154.15
833.9122	743.9298	12052.55	11113.95
834.0571	746.014	12020.95	11075.1
834.2021	748.0974	12034.55	11086.4
834.347	750.1802	12019.4	11068.95
834.492	752.2624	12043.1	11093.2
834.637	754.3439	12128.7	11182.4
834.782	756.4247	12193.8	11239.35
834.9269	758.5048	12350.15	11403
835.0719	760.5843	12589.95	11640
835.2169	762.6631	12917.2	11969.4
835.3619	764.7413	13417.05	12472.9
835.5069	766.8188	14064.25	13116.2
835.6519	768.8956	14597.5	13652.95
835.7969	770.9718	14899.2	13950.85
835.9419	773.0473	14794.2	13847.3
836.0869	775.1221	14502.65	13554.8
836.232	777.1962	14127.85	13179.2
836.377	779.2697	13984.6	13035.95
836.522	781.3426	14032.3	13070.1
836.667	783.4147	14235.1	13288.8
836.8121	785.4862	14441.35	13496.25
836.9571	787.557	14392.55	13439.6
837.1021	789.6271	14029.5	13079.3
837.2472	791.6966	13473.45	12521.25
837.3922	793.7654	12908.35	11958.35
837.5373	795.8335	12535.3	11585.15
837.6823	797.901	12317.2	11365.4
837.8274	799.9678	12218.75	11267.05
837.9724	802.0339	12188.4	11236.65
838.1175	804.0993	12217.3	11257.7
838.2626	806.1641	12159.4	11203.7
838.4076	808.2282	12090.2	11140.9
838.5527	810.2916	12020.85	11067.45
838.6978	812.3544	11923.55	10977.8
838.8428	814.4164	11865	10915.25
838.9879	816.4778	11903.3	10947.75
839.133	818.5385	11911.9	10958.25
839.2781	820.5986	12004.4	11048.1
839.4232	822.658	12185	11231.8
839.5682	824.7166	12390.15	11436.7
839.7133	826.7747	12712.9	11759.65
839.8584	828.832	13028.4	12076.95
840.0035	830.8886	13253.4	12297.3
840.1486	832.9446	13410.65	12453.75
840.2937	834.9999	13395.85	12441.85
840.4388	837.0545	13249.4	12289.9
840.5839	839.1085	13146	12189.85
840.729	841.1618	13011.9	12046.65
840.8741	843.2143	12894.3	11938.95
841.0192	845.2662	12746.8	11792.2
841.1643	847.3175	12663.2	11704.7
841.3095	849.368	12555.95	11604.95
841.4546	851.4179	12446.25	11493.55
841.5997	853.467	12327.55	11374.7
841.7448	855.5155	12238.55	11280.4
841.8899	857.5633	12159.7	11205.5
842.0351	859.6105	12059.7	11099.95
842.1802	861.6569	11995.8	11035.9
842.3253	863.7027	11943.7	10986.65
842.4704	865.7478	11909.15	10951.4
842.6156	867.7922	11896.15	10940.35
842.7607	869.8359	11960.05	11000.45
842.9058	871.8789	12031.7	11072.4
843.0509	873.9212	12194.7	11205.5
843.1961	875.9629	12294.1	11340.5
843.3412	878.0039	12448.85	11492.2
843.4863	880.0441	12532	11578.15
843.6315	882.0837	12575.1	11619.8
843.7766	884.1226	12542.1	11583
843.9218	886.1609	12487.45	11530.7
844.0669	888.1984	12470.55	11508.7
844.212	890.2352	12506.3	11548.5
844.3572	892.2714	12490.85	11527.25
844.5023	894.3069	12469.15	11510.4
844.6475	896.3416	12351.4	11393.35
844.7926	898.3757	12293.55	11335.4
844.9377	900.4091	12263.85	11304.8
845.0829	902.4418	12280.05	11313.6
845.228	904.4739	12295.55	11330.35
845.3732	906.5052	12318.05	11357.65
845.5183	908.5358	12228.85	11268.25
845.6635	910.5658	12089.5	11126.9
845.8086	912.595	11897.25	10935.2
845.9538	914.6236	11759.6	10793.85
846.0989	916.6515	11682.2	10724.25
846.2441	918.6786	11602.55	10641
846.3892	920.7051	11662.45	10700.4
846.5344	922.7309	11762.4	10800.75
846.6795	924.756	11805.9	10846.9
846.8246	926.7804	11896.15	10934.45
846.9698	928.8041	11886.5	10926.25
847.1149	930.8272	11924.25	10961.25
847.2601	932.8495	11909.9	10947.05
847.4052	934.8711	11865.8	10903.3
847.5504	936.892	11717.65	10758.8
847.6955	938.9123	11638.2	10677.05
847.8407	940.9318	11592	10634.3
847.9858	942.9506	11522.25	10559.4
848.131	944.9688	11440.45	10479.7
848.2761	946.9862	11364.4	10400.8
848.4213	949.003	11243.75	10282.7
848.5664	951.019	11249.8	10291.75
848.7115	953.0344	11243.6	10280.15
848.8567	955.0491	11284.35	10324.95
849.0018	957.063	11344.75	10382.8
849.147	959.0763	11441.3	10481.85
849.2921	961.0888	11460.7	10497.6
849.4373	963.1007	11556.5	10597.3
849.5824	965.1119	11565.4	10619.4
849.7275	967.1223	11616.1	10670.1
849.8727	969.1321	11575.65	10634.15
850.0178	971.1412	11613.35	10664.2
850.1629	973.1495	11620.9	10664.45
850.3081	975.1572	11675.5	10669
850.4532	977.1641	11706.15	10748.8
850.5983	979.1704	11659.45	10699.15
850.7435	981.1759	11642.3	10681.3
850.8886	983.1808	11714.9	10754.75
851.0337	985.1849	11771.85	10801.65
851.1788	987.1884	11892.3	10930.75
851.324	989.1911	12020.35	11062.35
851.4691	991.1932	12135.55	11177.95
851.6142	993.1945	12196.65	11237.45
851.7593	995.1951	12119.3	11161.15
851.9045	997.1951	12119.45	11149.2
852.0496	999.1943	12054.1	11095.5
852.1947	1001.1928	12034.1	11068.65
852.3398	1003.1906	12064.8	11104.4
852.4849	1005.1877	12144.35	11184
852.63	1007.1841	12122.5	11166.45
852.7751	1009.1798	12127.3	11166.65
852.9202	1011.1748	11981	11020.7
853.0653	1013.1691	11795.15	10834.1
853.2104	1015.1627	11594.15	10632.35
853.3555	1017.1556	11379.65	10426.95
853.5006	1019.1477	11295.5	10337.9
853.6457	1021.1392	11184.8	10236.95
853.7908	1023.1299	11162.25	10217.8
853.9359	1025.12	11173.25	10231.4
854.081	1027.1093	11241.7	10314.85
854.2261	1029.0979	11342.6	10418.65
854.3712	1031.0859	11438	10507.35
854.5163	1033.0731	11427.85	10485.65
854.6613	1035.0596	11386.8	10439.5
854.8064	1037.0454	11272.65	10319.85
854.9515	1039.0304	11152.85	10197.7
855.0965	1041.0148	11030.55	10078
855.2416	1042.9985	10954.2	10001.05
855.3867	1044.9814	10910.05	9953.65
855.5317	1046.9636	10851	9893.85
855.6768	1048.9452	10837.1	9883.2
855.8219	1050.926	10884.15	9929.85
855.9669	1052.9061	10893.15	9939.65
856.112	1054.8855	10900.6	9944.85
856.257	1056.8642	10923.5	9967.65
856.4021	1058.8421	10981.95	10021.3
856.5471	1060.8194	11023.2	10064.7
856.6921	1062.7959	11051.05	10094.15
856.8372	1064.7717	11100.8	10138.7
856.9822	1066.7469	11140.2	10180.1
857.1272	1068.7213	11164	10205
857.2723	1070.695	11204.15	10248.9
857.4173	1072.6679	11179.6	10222.8
857.5623	1074.6402	11167.45	10211.05
857.7073	1076.6117	11118.35	10153.15
857.8523	1078.5826	11076.85	10118
857.9973	1080.5527	11034	10075
858.1423	1082.5221	11045.95	10086.05
858.2873	1084.4908	11173.6	10215.6
858.4323	1086.4587	11320.1	10360.65
858.5773	1088.426	11391.8	10435.65
858.7223	1090.3925	11404.9	10443.5
858.8673	1092.3584	11388.25	10432.2
859.0123	1094.3235	11321.05	10365.5
859.1573	1096.2879	11280.7	10323.5
859.3022	1098.2515	11349.4	10394.8
859.4472	1100.2145	11467.45	10513.3
859.5922	1102.1767	11588.25	10631.1
859.7371	1104.1382	11757.95	10800.6
859.8821	1106.099	12010.3	11053.2
860.027	1108.0591	12239.05	11282.55
860.172	1110.0185	12359.5	11400.6
860.3169	1111.9771	12411.65	11454.8
860.4619	1113.9351	12247.3	11292.9
860.6068	1115.8923	12036.7	11079.3
860.7517	1117.8488	11798.75	10844.3
860.8967	1119.8045	11535.65	10580.15
861.0416	1121.7596	11412.7	10457.45
861.1865	1123.7139	11344.5	10389.6
861.3314	1125.6675	11333.55	10381.4
861.4763	1127.6204	11383.6	10431.15
861.6212	1129.5726	11360.4	10402.9
861.7661	1131.524	11340.15	10387.95
861.911	1133.4748	11265.35	10307.8
862.0559	1135.4248	11178.9	10222.95
862.2008	1137.3741	11103.75	10151.9
862.3457	1139.3226	11015.55	10059.25
862.4905	1141.2705	10993.95	10037.55
862.6354	1143.2176	10928.4	9966.1
862.7803	1145.164	10879.9	9923.3
862.9251	1147.1097	10853.4	9896.3
863.07	1149.0546	10831.15	9873.25
863.2148	1150.9989	10738.95	9783.5
863.3597	1152.9424	10603.55	9650.3
863.5045	1154.8852	10513.4	9557.45
863.6493	1156.8272	10413.05	9460.45
863.7942	1158.7686	10395.05	9436
863.939	1160.7092	10384.1	9428.95
864.0838	1162.6491	10391.8	9431.6
864.2286	1164.5883	10479.6	9523.25
864.3734	1166.5267	10575.6	9622.55
864.5182	1168.4644	10748	9791.25
864.663	1170.4014	10917.9	9960.35
864.8078	1172.3377	11143.6	10192.9
864.9526	1174.2732	11415.05	10462.8
865.0974	1176.2081	11728.7	10776.6
865.2421	1178.1421	12065	11107.25
865.3869	1180.0755	12427.6	11473.4
865.5317	1182.0082	12579.45	11630.15
865.6764	1183.9401	12687.5	11736.55
865.8212	1185.8713	12545.85	11601
865.9659	1187.8017	12291.35	11352.15
866.1106	1189.7315	12005.6	11081.7
866.2554	1191.6605	11671.85	10744.5
866.4001	1193.5888	11451.55	10517.2
866.5448	1195.5163	11338.3	10394
866.6895	1197.4432	11228.65	10278.55
866.8342	1199.3693	11210.5	10262.75
866.9789	1201.2947	11180.45	10228.25
867.1236	1203.2193	11171.05	10222.35
867.2683	1205.1432	11197.45	10245.3
867.413	1207.0664	11175.65	10225.4
867.5576	1208.9889	11201.7	10248.7
867.7023	1210.9106	11192	10242.05
867.847	1212.8316	11218.6	10268.85
867.9916	1214.7519	11277.65	10320.55
868.1363	1216.6715	11291.55	10341.95
868.2809	1218.5903	11327.4	10380.3
868.4255	1220.5084	11334.65	10383.1
868.5701	1222.4257	11380	10428.8
868.7148	1224.3424	11380.2	10438.45
868.8594	1226.2583	11449.3	10497.4
869.004	1228.1735	11547.75	10598.7
869.1486	1230.0879	11664.7	10713.6
869.2932	1232.0016	11798.8	10848.85
869.4377	1233.9146	11848.65	10901.55
869.5823	1235.8269	11794.05	10848.25
869.7269	1237.7384	11716.05	10765.05
869.8715	1239.6492	11560.65	10610.85
870.016	1241.5592	11466.35	10516.2
870.1606	1243.4686	11429.45	10483.15
870.3051	1245.3772	11479.95	10530.6
870.4496	1247.285	11529.25	10576.9
870.5941	1249.1922	11550.15	10602.4
870.7387	1251.0986	11605.45	10658.4
870.8832	1253.0042	11641.25	10695.65
871.0277	1254.9092	11695.3	10749.85
871.1722	1256.8134	11752	10806.8
871.3167	1258.7169	11916.65	10968.1
871.4611	1260.6196	12102.25	11154.1
871.6056	1262.5216	12304.55	11358.6
871.7501	1264.4229	12468.25	11523.4
871.8945	1266.3234	12648.35	11700.8
872.039	1268.2232	12771.2	11820.1
872.1834	1270.1223	12806	11856.05
872.3278	1272.0207	12823.95	11875.35
872.4723	1273.9183	12793.45	11838.65
872.6167	1275.8151	12721.5	11773.1
872.7611	1277.7113	12671.8	11724.55
872.9055	1279.6067	12595.25	11651
873.0499	1281.5014	12598.55	11649.75
873.1943	1283.3953	12737.15	11784.05
873.3386	1285.2885	12929.45	11981.5
873.483	1287.181	13120.8	12177.1
873.6274	1289.0727	13357.7	12413.15
873.7717	1290.9637	13533.05	12589.5
873.9161	1292.854	13673.7	12728.45
874.0604	1294.7435	13744.9	12798.1
874.2047	1296.6323	13846.45	12901.15
874.349	1298.5204	13908.2	12958.5
874.4933	1300.4077	13975.75	13025.25
874.6376	1302.2943	13988	13041.2
874.7819	1304.1802	13888.35	12940.55
874.9262	1306.0653	13656.25	12708.9
875.0705	1307.9497	13352	12405.3
875.2147	1309.8333	13123.8	12178.9
875.359	1311.7162	12949.4	12010.1
875.5032	1313.5984	12863	11912.35
875.6475	1315.4798	12860.95	11915.5
875.7917	1317.3605	12876.25	11913.55
875.9359	1319.2405	12856.7	11908.1
876.0801	1321.1197	12731.5	11786
876.2243	1322.9982	12579.95	11631.3
876.3685	1324.876	12420	11473.55
876.5127	1326.753	12246.4	11303.05
876.6569	1328.6293	12175.45	11228.25
876.801	1330.5048	12109.5	11160.45
876.9452	1332.3796	12000.65	11052.05
877.0893	1334.2537	11977.25	11007.15
877.2335	1336.127	11906.5	10960.55
877.3776	1337.9996	11898.9	10955
877.5217	1339.8714	11861	10913
877.6658	1341.7426	11909.5	10919.2
877.8099	1343.6129	11842.45	10892.5
877.954	1345.4826	11815.2	10866.7
878.0981	1347.3515	11838.95	10886.4
878.2422	1349.2196	11793.9	10846.7
878.3862	1351.087	11829.1	10882.4
878.5303	1352.9537	11861.15	10912.85
878.6743	1354.8197	11956.75	11009.4
878.8184	1356.6849	12132.65	11185.2
878.9624	1358.5493	12252.1	11307.65
879.1064	1360.4131	12332.4	11385.55
879.2504	1362.276	12372.95	11427.75
879.3944	1364.1383	12311.65	11363.85
879.5384	1365.9998	12066.3	11114.55
879.6823	1367.8606	11741.65	10797.8
879.8263	1369.7206	11416.9	10466.45
879.9702	1371.5799	11161.15	10212.1
880.1142	1373.4384	10926.8	9980.2
880.2581	1375.2962	10774.35	9828.25
880.402	1377.1533	10459.7	9515.4
880.5459	1379.0096	10133.45	9191.6
880.6898	1380.8652	9845.7	8908.1
880.8337	1382.7201	9536.55	8598.75
880.9776	1384.5742	9317.65	8373.3
881.1215	1386.4275	9151.45	8207.5
881.2653	1388.2802	9016.85	8072.35
881.4092	1390.132	8886.05	7941.8
881.553	1391.9832	8852.25	7907.2
881.6968	1393.8336	8762.25	7816.3
881.8406	1395.6832	8737.4	7792.2
881.9844	1397.5322	8680.85	7735.15
882.1282	1399.3803	8651.95	7700.65
882.272	1401.2278	8638.3	7696.7
882.4158	1403.0745	8633	7690.15
882.5595	1404.9204	8607.75	7664.6
882.7033	1406.7656	8630.35	7686.4
882.847	1408.6101	8633.75	7689
882.9908	1410.4538	8678.5	7733.55
883.1345	1412.2968	8729.9	7783.6
883.2782	1414.139	8775.8	7830.85
883.4219	1415.9805	8843.6	7896.1
883.5656	1417.8213	8939.45	7991.9
883.7092	1419.6613	9048.8	8110.75
883.8529	1421.5006	9210.8	8267.1
883.9965	1423.3391	9414.55	8467.65
884.1402	1425.1769	9743.9	8800.85
884.2838	1427.0139	10198.45	9254.25
884.4274	1428.8502	10734.45	9793.7
884.571	1430.6858	11290.85	10351.35
884.7146	1432.5206	11692.15	10750.6
884.8582	1434.3547	11945.35	11004
885.0018	1436.188	11967.3	11027.5
885.1453	1438.0206	11885.25	10944.05
885.2889	1439.8524	11696.75	10753
885.4324	1441.6835	11600.95	10657.55
885.5759	1443.5139	11473.7	10529.95
885.7194	1445.3435	11410.55	10469.2
885.8629	1447.1724	11367	10428.9
886.0064	1449.0005	11328.15	10387.8
886.1499	1450.8279	11218.6	10281.2
886.2933	1452.6545	11194.7	10254.1
886.4368	1454.4804	11202.65	10266.35
886.5802	1456.3056	11230.25	10286.2
886.7237	1458.13	11147.85	10211.75
886.8671	1459.9536	10962.25	10022.5
887.0105	1461.7766	10624.9	9685.3
887.1539	1463.5987	10262.1	9322.85
887.2972	1465.4202	9895.95	8955.35
887.4406	1467.2409	9545.8	8606
887.584	1469.0608	9273.5	8336.1
887.7273	1470.88	9004.8	8067.5
887.8706	1472.6984	8792.7	7853.8
888.0139	1474.5161	8590.05	7650
888.1572	1476.3331	8425.35	7485.9
888.3005	1478.1493	8304.6	7363.65
888.4438	1479.9648	8198.2	7259.9
888.5871	1481.7795	8098.5	7160.45
888.7303	1483.5935	8063.55	7124
888.8736	1485.4067	7995.4	7055.85
889.0168	1487.2192	7957.2	7019.9
889.16	1489.031	7900.4	6957.6
889.3032	1490.842	7849.3	6911.35
889.4464	1492.6522	7823.55	6886.35
889.5896	1494.4618	7792	6853.65
889.7327	1496.2705	7772.1	6834.45
889.8759	1498.0785	7725.8	6786.45
890.019	1499.8858	7673	6732
890.1622	1501.6924	7646.95	6710.7
890.3053	1503.4981	7611.75	6672.85
890.4484	1505.3032	7600.4	6662.95
890.5914	1507.1075	7535.4	6598.45
890.7345	1508.911	7497.75	6560
890.8776	1510.7138	7465.3	6527.45
891.0206	1512.5159	7423.95	6490.3
891.1637	1514.3172	7375.5	6441.75
891.3067	1516.1178	7325.9	6389.95
891.4497	1517.9176	7309.35	6372.7
891.5927	1519.7166	7263.8	6328.9
891.7357	1521.515	7229.4	6290.3
891.8786	1523.3126	7237.9	6304.4
892.0216	1525.1094	7188.7	6253.95
892.1645	1526.9055	7160.3	6225.45
892.3074	1528.7008	7143.95	6210.65
892.4503	1530.4954	7094.7	6160.7
892.5932	1532.2893	7078.3	6147.55
892.7361	1534.0824	7074.95	6141.1
892.879	1535.8747	7075.9	6146.65
893.0218	1537.6663	7045.7	6115.95
893.1647	1539.4572	7036.1	6105.05
893.3075	1541.2473	7039	6107.05
893.4503	1543.0367	7020.7	6091.65
893.5931	1544.8253	7036.15	6101
893.7359	1546.6132	7052.85	6118.3
893.8787	1548.4003	7040.15	6098.8
894.0214	1550.1867	7084.95	6148.25
894.1642	1551.9723	7115.2	6182.4
894.3069	1553.7572	7161.05	6231.95
894.4496	1555.5414	7243	6316.9
894.5923	1557.3247	7323.5	6398.85
894.735	1559.1074	7422.75	6500.75
894.8777	1560.8893	7556.8	6633.4
895.0204	1562.6705	7651.55	6728.65
895.163	1564.4509	7742.75	6820.65
895.3056	1566.2305	7782.25	6864.65
895.4482	1568.0094	7867.25	6947.65
895.5908	1569.7876	7878.8	6959
895.7334	1571.565	7863.85	6938.9
895.876	1573.3417	7880	6956.95
896.0186	1575.1176	7864.3	6943.9
896.1611	1576.8928	7817.45	6899.8
896.3036	1578.6672	7752.35	6840.1
896.4461	1580.4409	7690.65	6778.1
896.5886	1582.2138	7620.25	6701.75
896.7311	1583.986	7613.7	6697.85
896.8736	1585.7575	7589.9	6671.95
897.0161	1587.5282	7560.3	6647.8
897.1585	1589.2981	7591.2	6679.05
897.3009	1591.0673	7616.65	6706.9
897.4433	1592.8358	7651.65	6736.9
897.5857	1594.6035	7696.95	6778.9
897.7281	1596.3704	7744.25	6824.15
897.8705	1598.1366	7824.7	6905.55
898.0128	1599.9021	7866.8	6952.9
898.1551	1601.6668	7981.8	7067.05
898.2975	1603.4308	8064.05	7145.95
898.4398	1605.194	8188.85	7271.15
898.5821	1606.9564	8342.85	7437.75
898.7243	1608.7182	8564.35	7657.85
898.8666	1610.4791	8747.5	7848.1
899.0088	1612.2394	8942.45	8043.05
899.1511	1613.9988	9172.5	8270.65
899.2933	1615.7576	9410.25	8501.8
899.4355	1617.5156	9617.9	8695.9
899.5776	1619.2728	9761.4	8843
899.7198	1621.0293	9824.9	8908.95
899.862	1622.785	9770	8856.75
900.0041	1624.54	9548.55	8641.35
900.1462	1626.2942	9326.35	8418.05
900.2883	1628.0477	9039.95	8129.65
900.4304	1629.8005	8792.85	7878.95
900.5725	1631.5525	8582.95	7675
900.7145	1633.3037	8335.6	7428.05
900.8566	1635.0542	8211.45	7305.25
900.9986	1636.804	8090.65	7186.6
901.1406	1638.553	8064.75	7078.8
901.2826	1640.3013	7992.05	7083.95
901.4245	1642.0488	7939.9	7033.5
901.5665	1643.7955	7997.8	7092.45
901.7085	1645.5416	8042.75	7137.75
901.8504	1647.2868	8140.1	7232.55
901.9923	1649.0313	8238.75	7329.55
902.1342	1650.7751	8403.4	7493.35
902.2761	1652.5181	8543.65	7638.1
902.4179	1654.2604	8725.85	7822.25
902.5598	1656.0019	8988.2	8086.8
902.7016	1657.7427	9238.15	8332.4
902.8434	1659.4828	9529.15	8619.8
902.9852	1661.222	9703.95	8792.7
903.127	1662.9606	9672.2	8761.45
903.2687	1664.6984	9427.25	8515.6
903.4105	1666.4354	9018.2	8104.1
903.5522	1668.1717	8527.2	7617.6
903.6939	1669.9072	7968.65	7056.95
903.8356	1671.642	7512.45	6598.95
903.9773	1673.3761	7130	6219.85
904.119	1675.1094	6850.15	5942.35
904.2606	1676.8419	6609.35	5700.35
904.4022	1678.5737	6421.9	5513.9
904.5439	1680.3048	6292.4	5383.95
904.6855	1682.0351	6159.25	5251.25
904.827	1683.7646	6062.9	5148.55
904.9686	1685.4934	5990.5	5082.95
905.1101	1687.2215	5886.05	4975.95
905.2517	1688.9488	5840.4	4936.4
905.3932	1690.6754	5800.4	4895.35
905.5347	1692.4012	5770.85	4860.05
905.6761	1694.1263	5717.15	4809.2
905.8176	1695.8506	5681	4774.95
905.9591	1697.5742	5620.4	4715.25
906.1005	1699.297	5594	4693.4
906.2419	1701.0191	5545.45	4644.8
906.3833	1702.7404	5526.9	4626.75
906.5246	1704.461	5497.15	4590.35
906.666	1706.1808	5463.8	4558.85
906.8073	1707.8999	5443.55	4542.55
906.9487	1709.6182	5400.9	4502.95
907.09	1711.3358	5376.6	4479.55
907.2313	1713.0527	5357.8	4463.1
907.3725	1714.7688	5341.4	4436.85
907.5138	1716.4841	5302.1	4397.5
907.655	1718.1987	5295.2	4387.55
907.7962	1719.9126	5281.85	4384.75
907.9374	1721.6257	5251.95	4351.85
908.0786	1723.338	5238.3	4341.35
908.2198	1725.0496	5202.65	4302.85
908.3609	1726.7605	5192.15	4291.7
908.502	1728.4706	5178.25	4278.85
908.6431	1730.18	5147.1	4246.9
908.7842	1731.8886	5125.7	4229.65
908.9253	1733.5964	5150.65	4233.05
909.0664	1735.3036	5113.75	4211.75
909.2074	1737.0099	5109.15	4210.75
909.3484	1738.7156	5066.9	4172.35
909.4894	1740.4204	5035.45	4135.1
909.6304	1742.1246	5024.65	4126.1
909.7714	1743.8279	4994.45	4096.45
909.9123	1745.5306	4993	4097.1
910.0532	1747.2325	4957.65	4061.85
910.1941	1748.9336	4943.8	4043.75
910.335	1750.634	4929.3	4030.35
910.4759	1752.3336	4914.6	4016.2
910.6168	1754.0325	4904.65	4010.05
910.7576	1755.7307	4886.6	3994
910.8984	1757.4281	4878.55	3979.2
911.0392	1759.1247	4895.25	3987.15
911.18	1760.8206	4874.5	3965.25
911.3208	1762.5158	4877.9	3970.4
911.4615	1764.2102	4848.85	3949.2
911.6022	1765.9039	4806.8	3907.8
911.7429	1767.5968	4823.9	3928.25
911.8836	1769.289	4789.6	3894.55
912.0243	1770.9804	4790.35	3890.45
912.1649	1772.6711	4778.05	3876.2
912.3056	1774.361	4773.15	3872.15
912.4462	1776.0502	4756.4	3855.3
912.5868	1777.7386	4745.7	3844.4
912.7274	1779.4263	4726.7	3830.2
912.8679	1781.1132	4704.55	3809.95
913.0084	1782.7994	4700.2	3806.8
913.149	1784.4849	4698.65	3806.95
913.2895	1786.1696	4691.1	3791
913.4299	1787.8535	4680.85	3788.3
913.5704	1789.5367	4649.15	3756.6
913.7108	1791.2192	4661.7	3768.05
913.8513	1792.9009	4663.3	3740.75
913.9917	1794.5818	4634.9	3737.4
914.132	1796.2621	4608.15	3711.95
914.2724	1797.9415	4624.1	3726.15
914.4128	1799.6202	4604.7	3707.15
914.5531	1801.2982	4593.85	3697.5
914.6934	1802.9755	4585.55	3684.5
914.8337	1804.6519	4585.55	3689.95
914.9739	1806.3277	4567.1	3670.65
915.1142	1808.0027	4539.85	3648.65
915.2544	1809.6769	4528.15	3637.25
915.3946	1811.3504	4516.15	3625.65
915.5348	1813.0231	4505.45	3611.9
915.675	1814.6951	4508.7	3616.95
915.8151	1816.3664	4511.6	3615.25
915.9553	1818.0369	4507.85	3612
916.0954	1819.7067	4483	3586.45
916.2355	1821.3757	4480.85	3581.8
916.3755	1823.044	4455.4	3559.3
916.5156	1824.7115	4467.35	3569.2
916.6556	1826.3783	4449.1	3552.6
916.7956	1828.0443	4431.15	3536.85
916.9356	1829.7096	4424.5	3526.9
917.0756	1831.3741	4434.4	3532.75
917.2155	1833.0379	4399.4	3507.6
917.3555	1834.701	4407.8	3514.95
917.4954	1836.3633	4398.15	3506.6
917.6353	1838.0248	4369.6	3475.95
917.7751	1839.6856	4380.5	3483.65
917.915	1841.3457	4382.8	3487.05
918.0548	1843.005	4360	3462.65
918.1946	1844.6636	4369.35	3472.85
918.3344	1846.3214	4342.75	3447.05
918.4742	1847.9785	4346.3	3451.45
918.6139	1849.6349	4337	3440.85
918.7537	1851.2904	4355.35	3450.45
918.8934	1852.9453	4341.1	3442.35
919.0331	1854.5994	4310.3	3412.05
919.1727	1856.2528	4307.6	3406.25
919.3124	1857.9054	4300.3	3402.4
919.452	1859.5572	4293.3	3398.95
919.5916	1861.2083	4292.95	3398.5
919.7312	1862.8587	4294.7	3397.85
919.8708	1864.5084	4277.25	3377.75
920.0103	1866.1572	4269.15	3371.25
920.1498	1867.8054	4243.75	3344.25
920.2893	1869.4528	4220.85	3320.85
920.4288	1871.0994	4224.35	3326.75
920.5683	1872.7453	4210.55	3312.6
920.7077	1874.3905	4236.85	3322.55
920.8471	1876.0349	4203.5	3305.45
920.9865	1877.6786	4201.5	3305.1
921.1259	1879.3215	4190.8	3292.95
921.2653	1880.9637	4190.35	3293.35
921.4046	1882.6051	4181.5	3288.2
921.5439	1884.2458	4177.05	3279.6
921.6832	1885.8858	4154.9	3260.1
921.8225	1887.525	4156.65	3262.2
921.9617	1889.1634	4126.95	3231.75
922.101	1890.8011	4135.35	3238.9
922.2402	1892.4381	4109.45	3212.5
922.3794	1894.0743	4113.25	3217.25
922.5185	1895.7098	4108.25	3211.1
922.6577	1897.3446	4094.6	3201.05
922.7968	1898.9786	4086.9	3186.8
922.9359	1900.6118	4066.6	3170.25
923.075	1902.2443	4061.2	3168.9
923.214	1903.8761	4049.5	3151.75
923.3531	1905.5071	4033.3	3138
923.4921	1907.1374	4041	3145.5
923.6311	1908.7669	4023.7	3129.6
923.77	1910.3957	4012.9	3119.65
923.909	1912.0237	3997.95	3102.7
924.0479	1913.651	3987.25	3089.25
924.1868	1915.2776	3984.75	3091.6
924.3257	1916.9034	3955.65	3062.9
924.4646	1918.5285	3940.55	3048.65
924.6034	1920.1528	3932.85	3039.95
924.7422	1921.7764	3938.1	3044.35
924.881	1923.3992	3912.4	3017.6
925.0198	1925.0213	3908.4	3013.55
925.1586	1926.6427	3892.85	2998.2
925.2973	1928.2633	4052.25	2958.4
925.436	1929.8832	3908.65	3010.5
925.5747	1931.5023	3870.25	2977
925.7134	1933.1207	3865.35	2970.25
925.852	1934.7383	3853.75	2959.25
925.9906	1936.3552	3832.9	2942.7
926.1292	1937.9714	3833.75	2942.6
926.2678	1939.5868	3819.75	2925.25
926.4064	1941.2015	3801.75	2907.7
926.5449	1942.8154	3796.3	2899.65
926.6834	1944.4286	3774.5	2878.35
926.8219	1946.041	3781.85	2869.45
926.9604	1947.6528	3755.65	2855.5
927.0988	1949.2637	3737.3	2841.2
927.2372	1950.8739	3725.65	2832.2
927.3756	1952.4834	3727.35	2834.75
927.514	1954.0921	3723.9	2833.6
927.6523	1955.7001	3720.9	2823.6
927.7907	1957.3074	3698.25	2809.6
927.929	1958.9139	3676.45	2787.25
928.0673	1960.5197	3679.85	2788.1
928.2055	1962.1247	3662.95	2771.75
928.3438	1963.729	3646.15	2758.65
928.482	1965.3325	3659.05	2765.65
928.6202	1966.9353	3630	2743
928.7584	1968.5374	3620.4	2733.25
928.8965	1970.1387	3615.15	2725.85
929.0346	1971.7393	3605.55	2716.9
929.1727	1973.3392	3595.45	2705.2
929.3108	1974.9383	3579.1	2690.85
929.4489	1976.5366	3579.3	2691.25
929.5869	1978.1342	3562.1	2674.45
929.7249	1979.7311	3555.1	2667.2
929.8629	1981.3273	3540.75	2654.35
930.0009	1982.9227	3541.55	2657.25
930.1388	1984.5173	3526.15	2641.95
930.2767	1986.1112	3517.5	2631.1
930.4146	1987.7044	3511.55	2625.8
930.5525	1989.2968	3507.5	2617.95
930.6904	1990.8885	3513	2623.6
930.8282	1992.4795	3492.4	2610.75
930.966	1994.0697	3491.4	2607.05
931.1038	1995.6592	3480.1	2595.75
931.2415	1997.2479	3459.5	2574.05
931.3793	1998.8359	3454.85	2568.3
931.517	2000.4232	3449.25	2568.35
931.6547	2002.0097	3439.3	2561.45
931.7923	2003.5955	3414.75	2535.15
931.93	2005.1805	3424.35	2541.7
932.0676	2006.7648	3409.4	2528.6
932.2052	2008.3484	3407.3	2525.5
932.3427	2009.9312	3396.65	2511.55
932.4803	2011.5133	3391.05	2512.2
932.6178	2013.0946	3378.55	2497.75
932.7553	2014.6752	3378.7	2498.35
932.8928	2016.2551	3369.1	2484.9
933.0302	2017.8342	3357.35	2473.35
933.1676	2019.4126	3340.85	2460.85
933.305	2020.9902	3333.25	2455.25
933.4424	2022.5672	3336.65	2454.85
933.5798	2024.1433	3329.9	2447.1
933.7171	2025.7188	3317.05	2441.65
933.8544	2027.2935	3310.7	2432.25
933.9917	2028.8674	3304.3	2426.95
934.129	2030.4406	3291.6	2415.75
934.2662	2032.0131	3281.8	2407.4
934.4034	2033.5849	3287.55	2407.75
934.5406	2035.1559	3276.5	2399.35
934.6778	2036.7261	3273.15	2392.9
934.8149	2038.2957	3265.55	2381
934.952	2039.8645	3260.55	2374.75
935.0891	2041.4325	3270.6	2382.6
935.2262	2042.9998	3258.7	2376.2
935.3632	2044.5664	3241.8	2359.6
935.5002	2046.1323	3241.1	2360.85
935.6372	2047.6974	3219	2339.9
935.7742	2049.2617	3213.75	2337.35
935.9111	2050.8254	3248	2332.4
936.048	2052.3883	3215.75	2333.5
936.1849	2053.9504	3208.85	2325.65
936.3218	2055.5118	3208.9	2324.15
936.4586	2057.0725	3193.3	2309.5
936.5955	2058.6325	3178.95	2296.8
936.7323	2060.1917	3181.65	2302.05
936.869	2061.7502	3175.75	2291.75
937.0058	2063.3079	3156.55	2279.45
937.1425	2064.8649	3155.6	2274.45
937.2792	2066.4212	3154.2	2270.7
937.4159	2067.9767	3138.9	2257.75
937.5525	2069.5315	3140.55	2256.65
937.6891	2071.0856	3126.35	2245.6
937.8257	2072.6389	3122.3	2241.4
937.9623	2074.1915	3115.9	2239.1
938.0989	2075.7433	3100.55	2219.25
938.2354	2077.2945	3099.9	2221.2
938.3719	2078.8448	3085.25	2202.25
938.5084	2080.3945	3086.4	2201.3
938.6448	2081.9434	3063.85	2179.85
938.7812	2083.4916	3068.9	2183.4
938.9176	2085.039	3063.85	2172.4
939.054	2086.5857	3056.65	2165.3
939.1903	2088.1317	3047.4	2155.8
939.3267	2089.677	3050.3	2156.7
939.463	2091.2215	3045.7	2153.45
939.5992	2092.7652	3028.4	2135.7
939.7355	2094.3083	3032	2142.7
939.8717	2095.8506	3012.4	2125.35
940.0079	2097.3921	3025.2	2138.2
940.1441	2098.933	3011.2	2123.95
940.2802	2100.4731	3003.15	2118.55
940.4163	2102.0124	3013.15	2117.25
940.5524	2103.5511	3004.85	2118.45
940.6885	2105.089	2987.4	2100.7
940.8245	2106.6261	2995.9	2110.9
940.9606	2108.1626	2986.6	2099.8
941.0965	2109.6983	2997	2082.35
941.2325	2111.2332	2973.75	2088.5
941.3684	2112.7675	2967.15	2079.05
941.5044	2114.301	2971.3	2081
941.6403	2115.8337	2963.55	2076.15
941.7761	2117.3657	2948.75	2062.1
941.912	2118.897	2957.8	2068.35
942.0478	2120.4276	2941.55	2047.35
942.1835	2121.9575	2925.15	2036.85
942.3193	2123.4866	2920.85	2028.95
942.455	2125.0149	2923.55	2031.3
942.5907	2126.5426	2906.4	2024.1
942.7264	2128.0695	2914.45	2028.3
942.8621	2129.5956	2911.2	2032.65
942.9977	2131.1211	2906.35	2019.55
943.1333	2132.6458	2883.8	1997.4
943.2689	2134.1698	2884.3	1994.6
943.4044	2135.693	2891.65	1997.15
943.54	2137.2155	2875.8	1986.15
943.6755	2138.7373	2879.1	1992.2
943.8109	2140.2584	2850.55	1968.7
943.9464	2141.7787	2857	1971.25
944.0818	2143.2983	2835.8	1955.15
944.2172	2144.8171	2834.4	1956.35
944.3526	2146.3353	2826.25	1944
944.4879	2147.8527	2824.8	1942.65
944.6232	2149.3693	2816.7	1932.65
944.7585	2150.8853	2814.95	1925.95
944.8938	2152.4005	2810.55	1920.05
945.029	2153.9149	2815.3	1926.75
945.1642	2155.4287	2821.65	1934.15
945.2994	2156.9417	2795.9	1907.35
945.4346	2158.454	2783.3	1895.45
945.5697	2159.9655	2777.25	1893.5
945.7048	2161.4764	2783.85	1899
945.8399	2162.9865	2777.75	1891.7
945.9749	2164.4958	2767.65	1885.65
946.1099	2166.0045	2765.2	1880.75
946.2449	2167.5124	2760.65	1875.2
946.3799	2169.0195	2748.6	1863.2
946.5148	2170.526	2753.3	1865.35
946.6498	2172.0317	2733.95	1847.3
946.7846	2173.5367	2737.05	1850.1
946.9195	2175.0409	2739.95	1854
947.0543	2176.5445	2734.1	1847.9
947.1891	2178.0473	2733.7	1841.65
947.3239	2179.5494	2725.3	1831.9
947.4587	2181.0507	2723.3	1836.4
947.5934	2182.5513	2709.25	1823.3
947.7281	2184.0512	2705.75	1818.05
947.8628	2185.5504	2705.4	1819.25
947.9974	2187.0488	2693.25	1808.7
948.132	2188.5465	2681.45	1798.1
948.2666	2190.0435	2683.15	1795.55
948.4012	2191.5397	2679.25	1791.5
948.5357	2193.0353	2670.15	1783.5
948.6702	2194.5301	2666.85	1775.2
948.8047	2196.0241	2664.1	1771.25
948.9392	2197.5175	2664.9	1773.8
949.0736	2199.0101	2662.65	1767.85
949.208	2200.502	2631.15	1744.65
949.3424	2201.9931	2630.35	1745.35
949.4767	2203.4835	2624.75	1740.65
949.611	2204.9733	2615.15	1726.5
949.7453	2206.4622	2612.35	1730.45
949.8796	2207.9505	2610.05	1725.7
950.0138	2209.438	2596.1	1715.85
950.148	2210.9248	2596.65	1713.15
950.2822	2212.4109	2585.2	1700.75
950.4164	2213.8962	2578.3	1686.75
950.5505	2215.3809	2584.35	1690.4
950.6846	2216.8648	2590.65	1696.85
950.8186	2218.3479	2583.65	1685.9
950.9527	2219.8304	2578.95	1680.85
951.0867	2221.3121	2569.45	1673.55
951.2207	2222.7931	2555.35	1664.85
951.3546	2224.2733	2555.6	1664.7
951.4886	2225.7529	2542.35	1653.6
951.6225	2227.2317	2531.85	1642.55
951.7563	2228.7098	2541.85	1660.75
951.8902	2230.1872	2526.3	1642.15
952.024	2231.6638	2523.9	1641.65
952.1578	2233.1397	2519.15	1632.2
952.2916	2234.6149	2531.75	1649.2
952.4253	2236.0894	2509.55	1622.75
952.559	2237.5632	2511.75	1616.75
952.6927	2239.0362	2495.65	1608.75
952.8263	2240.5085	2488.75	1601.85
952.9599	2241.9801	2487.7	1597.35
953.0935	2243.4509	2474.75	1585.2
953.2271	2244.921	2480.7	1589.8
953.3606	2246.3904	2476.1	1581.65
953.4941	2247.8591	2470.55	1580.4
953.6276	2249.3271	2456.85	1567.55
953.7611	2250.7943	2457.65	1566.5
953.8945	2252.2608	2439.4	1549.7
954.0279	2253.7266	2445.4	1556.2
954.1612	2255.1917	2436.55	1547.55
954.2946	2256.656	2430.4	1545.85
954.4279	2258.1197	2420.8	1537.65
954.5612	2259.5826	2420.9	1534.95
954.6944	2261.0447	2422.3	1535.45
954.8276	2262.5062	2406.6	1515.45
954.9608	2263.9669	2421.85	1530.35
955.094	2265.4269	2410.6	1521.6
955.2271	2266.8862	2394	1506.75
955.3602	2268.3448	2397.7	1511.6
955.4933	2269.8026	2397.25	1513.05
955.6264	2271.2598	2392.7	1509.7
955.7594	2272.7162	2380.75	1496.45
955.8924	2274.1719	2388.55	1500.2
956.0253	2275.6268	2376.6	1484.4
956.1583	2277.0811	2381.1	1490.15
956.2912	2278.5346	2377.25	1491.25
956.4241	2279.9874	2365.85	1483.4
956.5569	2281.4395	2368.25	1483.8
956.6897	2282.8908	2360.55	1469.1
956.8225	2284.3414	2372.8	1486.35
956.9553	2285.7914	2358.7	1474.85
957.088	2287.2406	2351.5	1459.8
957.2207	2288.689	2351.55	1460.65
957.3534	2290.1368	2352	1453.65
957.486	2291.5838	2331.6	1434.2
957.6186	2293.0302	2340.2	1446.55
957.7512	2294.4758	2334.9	1440.8
957.8838	2295.9206	2318.6	1426.55
958.0163	2297.3648	2319.05	1432.85
958.1488	2298.8082	2317.15	1428.55
958.2813	2300.251	2320.6	1433.1
958.4137	2301.693	2311.65	1417.4
958.5461	2303.1343	2299.6	1408.7
958.6785	2304.5748	2305.2	1416.95
958.8108	2306.0147	2290.55	1402.25
958.9432	2307.4538	2291.4	1403.65
959.0754	2308.8922	2274.85	1395.1
959.2077	2310.3299	2279.55	1395.6
959.3399	2311.7669	2273.75	1389.55
959.4721	2313.2031	2265.9	1378.35
959.6043	2314.6387	2281.1	1391.65
959.7365	2316.0735	2261.3	1370.85
959.8686	2317.5076	2256.5	1369.1
960.0006	2318.941	2256.85	1366.7
960.1327	2320.3737	2253.8	1362.2
960.2647	2321.8056	2247.2	1354.05
960.3967	2323.2369	2245.35	1355
960.5287	2324.6674	2249.1	1361.45
960.6606	2326.0972	2238.05	1348.55
960.7925	2327.5263	2231.6	1342.15
960.9244	2328.9547	2229.1	1336.4
961.0562	2330.3823	2226.05	1332.6
961.1881	2331.8092	2233.75	1338.65
961.3198	2333.2355	2217.7	1325.45
961.4516	2334.661	2226.55	1335.75
961.5833	2336.0858	2212.55	1320.55
961.715	2337.5098	2213.2	1324.05
961.8467	2338.9332	2204.95	1314.8
961.9783	2340.3558	2193.55	1300.5
962.1099	2341.7778	2196.4	1307.9
962.2415	2343.199	2202.15	1314.9
962.373	2344.6195	2189.3	1302.2
962.5045	2346.0393	2190.7	1305.15
962.636	2347.4583	2188.15	1299.8
962.7675	2348.8767	2186.1	1296.6
962.8989	2350.2943	2187.2	1297.05
963.0303	2351.7113	2189.65	1296.55
963.1617	2353.1275	2168.75	1274.95
963.293	2354.543	2187.95	1285.4
963.4243	2355.9578	2167.7	1278.5
963.5556	2357.3718	2159.85	1273.15
963.6868	2358.7852	2163.2	1275.1
963.818	2360.1978	2144.55	1257.35
963.9492	2361.6098	2157.85	1270.85
964.0803	2363.021	2156.1	1264.55
964.2114	2364.4315	2140.6	1253.95
964.3425	2365.8413	2127.35	1240.7
964.4736	2367.2504	2138.95	1252.25
964.6046	2368.6587	2131.65	1244.55
964.7356	2370.0664	2125.7	1237.9
964.8666	2371.4733	2117.1	1229.55
964.9975	2372.8795	2114.85	1228.65
965.1284	2374.285	2114.2	1226.4
965.2593	2375.6899	2103.2	1218.85
965.3901	2377.0939	2101.4	1215.65
965.5209	2378.4973	2101.85	1218.6
965.6517	2379.9	2087.95	1202.8
965.7825	2381.3019	2093.95	1206.95
965.9132	2382.7032	2082.15	1199.15
966.0439	2384.1037	2067.55	1182.45
966.1745	2385.5035	2072.8	1190.75
966.3051	2386.9027	2066.65	1184.65
966.4357	2388.3011	2061.2	1176.6
966.5663	2389.6987	2051.25	1166.95
966.6968	2391.0957	2048.8	1164.85
966.8273	2392.492	2051.45	1168.15
966.9578	2393.8876	2042	1156.65
967.0882	2395.2824	2045.7	1161.5
967.2186	2396.6765	2035.3	1150.35
967.349	2398.07	2034.95	1150.45
967.4793	2399.4627	2036.5	1150.15
967.6097	2400.8547	2027.3	1140.25
967.7399	2402.246	2028.55	1136.9
967.8702	2403.6366	2010.75	1125.45
968.0004	2405.0265	2022.5	1137.5
968.1306	2406.4156	2018.1	1129.5
968.2607	2407.8041	2005.6	1116.85
968.3909	2409.1918	2011.45	1124.05
968.521	2410.5789	2008	1122.25
968.651	2411.9652	2003.9	1116.2
968.781	2413.3508	1997.25	1114.7
968.911	2414.7358	1999.35	1113.4
969.041	2416.12	1983.5	1099.1
969.1709	2417.5035	1993.4	1109.1
969.3008	2418.8863	1983.55	1096.45
969.4307	2420.2684	1978.9	1095
969.5606	2421.6497	1974.2	1087.5
969.6904	2423.0304	1970.15	1087.15
969.8201	2424.4104	1972.2	1085.8
969.9499	2425.7896	1965.45	1076.65
970.0796	2427.1682	1966.3	1080.85
970.2093	2428.546	1965.3	1080.05
970.3389	2429.9232	1960.25	1072
970.4685	2431.2996	1950.6	1062.75
970.5981	2432.6753	1952.75	1067.5
970.7277	2434.0503	1945.3	1060.4
970.8572	2435.4246	1938	1053.15
970.9867	2436.7982	1945.95	1055.1
971.1161	2438.1711	1939.45	1053.3
971.2456	2439.5433	1936.05	1049.75
971.375	2440.9148	1942.95	1050.2
971.5043	2442.2856	1923.3	1037.05
971.6336	2443.6557	1913.15	1027.2
971.7629	2445.025	1914.75	1027.75
971.8922	2446.3937	1917.45	1028.5
972.0214	2447.7617	1910.4	1021.6
972.1506	2449.1289	1908.7	1022.9
972.2798	2450.4955	1906.95	1016.85
972.4089	2451.8613	1908.65	1023.35
972.538	2453.2265	1904	1018.05
972.6671	2454.5909	1903.9	1020.1
972.7961	2455.9546	1893.75	1009.15
972.9251	2457.3177	1879.8	994.95
973.0541	2458.68	1891.5	1003.9
973.1831	2460.0416	1898.85	1014.2
973.312	2461.4025	1887.05	999.65
973.4408	2462.7627	1891.65	992.9
973.5697	2464.1222	1881.9	998.85
973.6985	2465.4811	1873.4	987.35
973.8273	2466.8392	1874.1	989.7
973.956	2468.1966	1876.1	987.4
974.0847	2469.5533	1878.4	990.05
974.2134	2470.9093	1869.6	984.75
974.3421	2472.2645	1865.3	978.3
974.4707	2473.6191	1863.55	977.15
974.5993	2474.973	1857.9	971.65
974.7278	2476.3262	1857.1	968.85
974.8563	2477.6787	1862.9	978.4
974.9848	2479.0305	1848.3	961.15
975.1132	2480.3816	1858.5	970.35
975.2417	2481.7319	1845.55	961.25
975.37	2483.0816	1837.25	951.7
975.4984	2484.4306	1845.7	958.9
975.6267	2485.7789	1838.65	956.35
975.755	2487.1264	1828.95	944.35
975.8833	2488.4733	1825.6	939.3
976.0115	2489.8195	1838.35	944.9
976.1397	2491.165	1828.55	942.5
976.2678	2492.5097	1819.6	933.65
976.3959	2493.8538	1813.15	930.2
976.524	2495.1972	1816.05	930.3
976.6521	2496.5398	1808.15	919.65
976.7801	2497.8818	1815.3	927.45
976.9081	2499.2231	1801.7	916.3
977.036	2500.5637	1803.65	916.95
977.164	2501.9035	1807.45	918.55
977.2918	2503.2427	1796.5	906.05
977.4197	2504.5812	1793.65	907.4
977.5475	2505.919	1789.15	899.45
977.6753	2507.256	1803.45	916.8
977.8031	2508.5924	1787.25	900.5
977.9308	2509.9281	1784.35	892.3
978.0585	2511.2631	1782.4	897
978.1861	2512.5974	1776.6	891.7
978.3137	2513.9309	1780.5	895.9
978.4413	2515.2638	1806.1	893.45
978.5689	2516.596	1784.8	899.8
978.6964	2517.9275	1767.5	880.65
978.8239	2519.2583	1766.6	877.6
978.9513	2520.5884	1765.75	879.55
979.0788	2521.9178	1759.35	874.1
979.2062	2523.2465	1752.9	868.7
979.3335	2524.5745	1754.15	868.95
979.4608	2525.9018	1743.75	859.55
979.5881	2527.2284	1749.95	867.3
979.7154	2528.5543	1749.1	865.15
979.8426	2529.8796	1736.8	849.45
979.9698	2531.2041	1745.4	860.95
980.0969	2532.5279	1740	855.2
980.224	2533.851	1742.3	856.45
980.3511	2535.1735	1740.2	857.3
980.4781	2536.4952	1739.05	849.55
980.6052	2537.8163	1742.35	854.85
980.7321	2539.1366	1740.45	853.05
980.8591	2540.4562	1729.15	840.5
980.986	2541.7752	1726.55	840.95
981.1129	2543.0935	1726.95	841.45
981.2397	2544.411	1733.05	846.6
981.3665	2545.7279	1722.9	836.4
981.4933	2547.0441	1724.25	838.85
981.62	2548.3596	1729.15	841.65
981.7467	2549.6744	1730.05	841.05
981.8734	2550.9885	1721.35	832.9
982.0001	2552.3019	1720.25	835.15
982.1267	2553.6146	1721.55	834.1
982.2532	2554.9266	1717.9	829.7
982.3798	2556.2379	1712.1	823.35
982.5063	2557.5485	1708.6	824.25
982.6327	2558.8585	1712.7	816.1
982.7592	2560.1677	1707.8	816.75
982.8856	2561.4762	1696.95	810.55
983.0119	2562.7841	1698.8	808.6
983.1383	2564.0913	1692.65	807.7
983.2646	2565.3977	1688	800.25
983.3908	2566.7035	1692.35	804.35
983.517	2568.0086	1690.3	801
983.6432	2569.313	1692.1	803.1
983.7694	2570.6167	1693.9	804.6
983.8955	2571.9197	1693.5	806.65
984.0216	2573.222	1688.05	796.5
984.1476	2574.5236	1685	796.85
984.2737	2575.8246	1687.65	797.15
984.3996	2577.1248	1688.4	799.6
984.5256	2578.4244	1675.4	787.95
984.6515	2579.7232	1679.05	792.45
984.7774	2581.0214	1706.7	793.4
984.9032	2582.3189	1681.75	795.35
985.029	2583.6157	1685.6	793.7
985.1548	2584.9118	1680.25	792.95
985.2806	2586.2072	1683.35	798.4
985.4063	2587.5019	1680.35	792.9
985.5319	2588.7959	1682.05	795.85
985.6576	2590.0893	1680.85	792.3
985.7832	2591.3819	1683.4	796.15
985.9087	2592.6739	1679.15	794.15
986.0343	2593.9652	1681.4	791.2
986.1597	2595.2557	1673.3	786.4
986.2852	2596.5456	1679.8	790
986.4106	2597.8348	1679.6	794.7
986.536	2599.1234	1681.35	795.4
986.6614	2600.4112	1675.05	789.1
986.7867	2601.6983	1676.05	787.45
986.912	2602.9848	1676.1	789.55
987.0372	2604.2705	1675.35	782.35
987.1624	2605.5556	1668.4	782.35
987.2876	2606.84	1661.2	777.45
987.4128	2608.1237	1654	766.65
987.5379	2609.4067	1657.4	772.7
987.6629	2610.689	1665.45	770.05
987.788	2611.9707	1662.7	773.1
987.913	2613.2516	1658.05	768.1
988.0379	2614.5319	1642.85	757.15
988.1629	2615.8115	1644.25	759.65
988.2878	2617.0903	1646.2	759.45
988.4126	2618.3685	1646.45	761.75
988.5375	2619.6461	1627.9	740.65
988.6622	2620.9229	1643	758.65
988.787	2622.199	1625.8	738.15
988.9117	2623.4745	1633.8	745.8
989.0364	2624.7493	1631.4	744
989.161	2626.0234	1628.3	744
989.2857	2627.2968	1621.75	736
989.4102	2628.5695	1629.05	741.95
989.5348	2629.8415	1622.15	736.45
989.6593	2631.1128	1634.45	747.85
989.7837	2632.3835	1616.75	730
989.9082	2633.6535	1626.9	743.05
990.0326	2634.9228	1613.9	730.9
990.1569	2636.1914	1613.75	729.8
990.2812	2637.4593	1611.95	726.6
990.4055	2638.7265	1617.3	729.75
990.5298	2639.9931	1616.95	730.95
990.654	2641.259	1614.65	726.8
990.7782	2642.5242	1603.55	717.4
990.9023	2643.7887	1595.15	707.95
991.0264	2645.0525	1603.9	720.05
991.1505	2646.3156	1610.05	724.55
991.2745	2647.5781	1604.25	720.4
991.3985	2648.8398	1592.05	709.2
991.5225	2650.1009	1626.65	703.35
991.6464	2651.3613	1596.35	710.65
991.7703	2652.6211	1591.7	706.9
991.8942	2653.8801	1588.15	705.05
992.018	2655.1385	1593.25	704.95
992.1418	2656.3961	1586.1	701.05
992.2655	2657.6531	1591.75	706.65
992.3892	2658.9094	1591.85	707.4
992.5129	2660.1651	1586.5	701.95
992.6366	2661.42	1587	704.25
992.7602	2662.6743	1591.05	704.75
992.8837	2663.9279	1585.45	703.1
993.0073	2665.1808	1584.45	700.45
993.1307	2666.433	1587.9	700.9
993.2542	2667.6846	1593.4	707.9
993.3776	2668.9354	1602.45	714.75
993.501	2670.1856	1592.1	705.95
993.6244	2671.4351	1599.65	715
993.7477	2672.6839	1601.85	717.7
993.8709	2673.9321	1604.1	719.05
993.9942	2675.1795	1599.1	715.05
994.1174	2676.4263	1598.35	714.4
994.2405	2677.6724	1604.5	719.45
994.3637	2678.9179	1600.9	715.35
994.4868	2680.1626	1603	720
994.6098	2681.4067	1601	716.35
994.7328	2682.6501	1595.3	709.2
994.8558	2683.8928	1590.15	706.15
994.9788	2685.1348	1579.35	694.55
995.1017	2686.3761	1578.6	695.4
995.2245	2687.6168	1582.65	699.6
995.3474	2688.8568	1583.8	701.2
995.4702	2690.0961	1574.1	689.85
995.5929	2691.3348	1576.8	693.2
995.7156	2692.5727	1571.8	688.25
995.8383	2693.81	1567.65	683.45
995.961	2695.0466	1561.85	677.8
996.0836	2696.2826	1572.45	689.85
996.2062	2697.5178	1565.85	678
996.3287	2698.7524	1560.15	676.2
996.4512	2699.9863	1559.6	671.5
996.5737	2701.2195	1564.75	681.15
996.6961	2702.452	1562.9	678.4
996.8185	2703.6839	1571.9	687
996.9408	2704.9151	1578.75	698.45
997.0631	2706.1456	1579.65	696.3
997.1854	2707.3755	1584.35	699.5
997.3077	2708.6046	1589.05	703.85
997.4299	2709.8331	1599.9	715.35
997.552	2711.0609	1607.25	722.45
997.6742	2712.2881	1612.2	728.95
997.7963	2713.5145	1618.4	730.4
997.9183	2714.7403	1625.6	743.45
998.0403	2715.9654	1620.95	736.25
998.1623	2717.1899	1657.05	758.2
998.2842	2718.4136	1653.95	771.1
998.4062	2719.6367	1661.95	776.2
998.528	2720.8591	1687.7	796.85
998.6498	2722.0809	1691	807.95
998.7716	2723.3019	1702.95	816.55
998.8934	2724.5223	1702.45	818.95
999.0151	2725.7421	1707.8	820.2
999.1368	2726.9611	1712.45	828.55
999.2584	2728.1795	1702.55	813.9
999.38	2729.3972	1693.45	810.95
999.5016	2730.6142	1697.9	801.55
999.6231	2731.8306	1679.9	792.3
999.7446	2733.0462	1660.45	777
999.8661	2734.2612	1636.35	748.2
999.9875	2735.4756	1622.65	739.65
1000.1089	2736.6892	1608.5	723.4
1000.2302	2737.9022	1587.5	704.35
1000.3515	2739.1145	1576.15	694.6
1000.4728	2740.3262	1570.65	679
1000.594	2741.5372	1555.9	674.8
1000.7152	2742.7475	1548.5	664.9
1000.8363	2743.9571	1535.2	649.9
1000.9575	2745.1661	1535.95	649.65
1001.0785	2746.3744	1519.5	636.95
1001.1996	2747.582	1502.35	620.55
1001.3206	2748.7889	1499.05	613.6
1001.4415	2749.9952	1495.15	612.2
1001.5625	2751.2008	1489.95	605.2
1001.6833	2752.4057	1481.35	597.5
1001.8042	2753.61	1481.05	596.7
1001.925	2754.8136	1479.15	593.3
1002.0458	2756.0165	1475.9	592.9
1002.1665	2757.2188	1479.95	599.3
1002.2872	2758.4204	1476.45	592.15
1002.4078	2759.6213	1481.95	598.5
1002.5285	2760.8215	1485.55	598.2
1002.649	2762.0211	1474.65	588.05
1002.7696	2763.22	1473.6	587.9
1002.8901	2764.4182	1463.9	579.65
1003.0106	2765.6158	1463.85	580.6
1003.131	2766.8127	1459.55	575.1
1003.2514	2768.009	1457.05	575.65
1003.3717	2769.2045	1455.8	575.35
1003.492	2770.3994	1458.5	572.95
1003.6123	2771.5936	1456.55	575
1003.7325	2772.7872	1443.55	562.55
1003.8527	2773.9801	1448.4	565.45
1003.9729	2775.1723	1461.1	560.05
1004.093	2776.3639	1438.55	555.95
1004.2131	2777.5548	1440.65	558.05
1004.3331	2778.745	1446.2	561.3
1004.4531	2779.9346	1438	557.35
1004.5731	2781.1235	1443.3	559.5
1004.693	2782.3117	1449.1	569.8
1004.8129	2783.4992	1446.25	564.55
1004.9328	2784.6861	1459.6	578.55
1005.0526	2785.8723	1453.5	570.5
1005.1723	2787.0579	1456.35	575.55
1005.2921	2788.2428	1455	571.1
1005.4118	2789.427	1472.3	591.65
1005.5314	2790.6106	1475.8	592.6
1005.651	2791.7935	1485.35	604.2
1005.7706	2792.9757	1498.85	616.95
1005.8902	2794.1573	1510.95	627.05
1006.0097	2795.3382	1508.55	628.45
1006.1291	2796.5184	1521.75	642.05
1006.2485	2797.698	1538.25	655.7
1006.3679	2798.8769	1551.25	668
1006.4873	2800.0551	1565.3	684.3
1006.6066	2801.2327	1580.15	694.05
1006.7258	2802.4096	1595.25	715.1
1006.8451	2803.5859	1610.85	731.75
1006.9642	2804.7615	1630.5	746.65
1007.0834	2805.9364	1650	769.1
1007.2025	2807.1106	1678.15	799.55
1007.3216	2808.2842	1705.95	823.2
1007.4406	2809.4572	1729.9	847.45
1007.5596	2810.6294	1760	876
1007.6785	2811.801	1793.8	913.5
1007.7975	2812.972	1829	947.85
1007.9163	2814.1423	1864.3	984.5
1008.0352	2815.3119	1914.5	1034.5
1008.154	2816.4808	1965.25	1082.9
1008.2727	2817.6491	2028.7	1146.95
1008.3914	2818.8167	2065.7	1186.75
1008.5101	2819.9837	2114.9	1227.25
1008.6288	2821.15	2152.1	1271.1
1008.7474	2822.3157	2217.75	1337.7
1008.8659	2823.4807	2263.3	1382.65
1008.9844	2824.645	2325.65	1443.65
1009.1029	2825.8086	2354.1	1475.4
1009.2214	2826.9716	2420.95	1541.95
1009.3398	2828.134	2461.6	1581.7
1009.4581	2829.2957	2494.65	1613.35
1009.5764	2830.4567	2528.4	1648.95
1009.6947	2831.617	2558.5	1675.55
1009.813	2832.7767	2566.6	1685.8
1009.9312	2833.9358	2556.9	1677.6
1010.0493	2835.0941	2553.7	1671.1
1010.1675	2836.2519	2561.75	1682.8
1010.2855	2837.4089	2529.9	1649.8
1010.4036	2838.5653	2517.45	1637.95
1010.5216	2839.7211	2516.85	1637.5
1010.6396	2840.8761	2520.8	1638.85
1010.7575	2842.0306	2541.8	1663
1010.8754	2843.1843	2561.55	1680.65
1010.9932	2844.3374	2602.8	1721.55
1011.111	2845.4899	2659.15	1778.15
1011.2288	2846.6417	2722.35	1843.3
1011.3465	2847.7928	2774.75	1896.45
1011.4642	2848.9433	2856	1975.45
1011.5818	2850.0931	2925.75	2045.9
1011.6995	2851.2422	3004.45	2123.35
1011.817	2852.3907	3061.5	2178.9
1011.9345	2853.5385	3126.2	2244.5
1012.052	2854.6857	3180.6	2286.65
1012.1695	2855.8323	3218.65	2339.4
1012.2869	2856.9781	3262.45	2383.4
1012.4042	2858.1233	3309.2	2429
1012.5216	2859.2679	3365.9	2487.9
1012.6389	2860.4118	3409.85	2529.55
1012.7561	2861.555	3460.8	2577
1012.8733	2862.6976	3485.15	2602.4
1012.9905	2863.8395	3526.45	2646.85
1013.1076	2864.9808	3542	2661.65
1013.2247	2866.1214	3565.15	2686.5
1013.3417	2867.2614	3576.45	2693.75
1013.4587	2868.4007	3589.9	2710.7
1013.5757	2869.5393	3623.15	2740.4
1013.6926	2870.6773	3625.8	2742.35
1013.8095	2871.8146	3635.2	2751.15
1013.9263	2872.9513	3631.65	2748.8
1014.0431	2874.0874	3623.45	2744.1
1014.1599	2875.2227	3614.3	2732.7
1014.2766	2876.3574	3604.25	2725
1014.3933	2877.4915	3572.95	2694.05
1014.51	2878.6249	3562.25	2682.8
1014.6266	2879.7577	3538.8	2656.55
1014.7431	2880.8898	3531.3	2641.65
1014.8596	2882.0212	3498.8	2620.55
1014.9761	2883.152	3490.8	2610.8
1015.0925	2884.2821	3471.85	2592.9
1015.2089	2885.4116	3449.65	2573.4
1015.3253	2886.5405	3464.3	2584.2
1015.4416	2887.6686	3472.8	2589.9
1015.5579	2888.7962	3482.85	2605.3
1015.6741	2889.923	3481.75	2602.25
1015.7903	2891.0493	3494.95	2616.7
1015.9065	2892.1748	3505.6	2628.3
1016.0226	2893.2997	3519.75	2640.75
1016.1387	2894.424	3532.3	2652.5
1016.2547	2895.5476	3545.1	2665.95
1016.3707	2896.6706	3565	2686.75
1016.4866	2897.7929	3596.95	2715.7
1016.6025	2898.9145	3616.45	2736.35
1016.7184	2900.0355	3647.2	2766.85
1016.8342	2901.1559	3678.25	2799.3
1016.95	2902.2756	3708.9	2829.4
1017.0658	2903.3946	3744.15	2863.95
1017.1815	2904.513	3769.7	2888.9
1017.2971	2905.6308	3799.3	2919.95
1017.4127	2906.7479	3820.15	2938.75
1017.5283	2907.8643	3856.9	2976.5
1017.6439	2908.9801	3853.9	2976
1017.7594	2910.0953	3860.85	2981.45
1017.8748	2911.2098	3861.35	2976.9
1017.9902	2912.3236	3853.7	2965.3
1018.1056	2913.4368	3867.1	2984.55
1018.2209	2914.5494	3834.95	2955.8
1018.3362	2915.6613	3810.85	2924.7
1018.4515	2916.7725	3780	2898.55
1018.5667	2917.8831	3732.7	2852.9
1018.6819	2918.9931	3715.15	2834.8
1018.797	2920.1024	3683.7	2802.85
1018.9121	2921.211	3672.45	2792.3
1019.0271	2922.319	3638.35	2760
1019.1421	2923.4264	3631	2753.45
1019.2571	2924.5331	3616.65	2739.55
1019.372	2925.6391	3612.95	2735.6
1019.4869	2926.7445	3599.05	2720.4
1019.6017	2927.8493	3603.6	2726.85
1019.7165	2928.9534	3593.55	2713.75
1019.8313	2930.0569	3606.65	2724.85
1019.946	2931.1597	3590.6	2709.9
1020.0606	2932.2619	3592.85	2716.75
1020.1753	2933.3634	3588.3	2709.65
1020.2899	2934.4643	3595.25	2709
1020.4044	2935.5645	3587.85	2702.55
1020.5189	2936.6641	3539.45	2658.45
1020.6334	2937.763	3503.7	2626.25
1020.7478	2938.8613	3478.35	2599.45
1020.8622	2939.959	3406.4	2523.05
1020.9765	2941.056	3334.75	2456.95
1021.0908	2942.1523	3258.8	2378.9
1021.2051	2943.248	3189.9	2310.85
1021.3193	2944.3431	3108.3	2230.1
1021.4334	2945.4375	2991.5	2113
1021.5476	2946.5313	2891.95	2015.75
1021.6617	2947.6244	2802.2	1925.7
1021.7757	2948.7169	2698.65	1820.1
1021.8897	2949.8087	2603.9	1726.5
1022.0037	2950.8999	2516.15	1637.4
1022.1176	2951.9904	2436.7	1556.95
1022.2315	2953.0803	2374.45	1497.65
1022.3453	2954.1696	2312.15	1433.2
1022.4591	2955.2582	2253.25	1375.25
1022.5728	2956.3462	2200.7	1323.3
1022.6865	2957.4335	2171.95	1294
1022.8002	2958.5202	2142.4	1261.95
1022.9138	2959.6062	2115.35	1238.3
1023.0274	2960.6916	2089.95	1213.55
1023.141	2961.7764	2072.15	1193.05
1023.2545	2962.8605	2056.25	1177.1
1023.3679	2963.9439	2039.95	1161.85
1023.4813	2965.0267	2021.6	1143.75
1023.5947	2966.1089	2053.25	1150.5
1023.708	2967.1905	2014.75	1136.9
1023.8213	2968.2714	2016	1139.3
1023.9346	2969.3516	2010.25	1131.55
1024.0478	2970.4312	2028.45	1145.15
1024.1609	2971.5102	2016.65	1138.25
1024.274	2972.5885	2008.65	1131.2
1024.3871	2973.6662	2017.5	1133.4
1024.5002	2974.7432	2008.85	1130.8
1024.6132	2975.8196	2005.6	1128.4
1024.7261	2976.8954	1999.3	1122.8
1024.839	2977.9705	1985.5	1109.7
1024.9519	2979.045	1972.7	1097.15
1025.0647	2980.1188	1960.45	1084.05
1025.1775	2981.192	1933.8	1055.65
1025.2902	2982.2645	1922.1	1044.2
1025.4029	2983.3364	1896.1	1018.2
1025.5156	2984.4077	1867.35	989
1025.6282	2985.4783	1847.3	963
1025.7407	2986.5483	1818.8	942
1025.8532	2987.6177	1786.9	909.05
1025.9657	2988.6864	1749.35	874
1026.0782	2989.7545	1716.45	837.65
1026.1906	2990.8219	1677	800.15
1026.3029	2991.8887	1656.15	775.9
1026.4152	2992.9548	1609.75	728.65
1026.5275	2994.0204	1589.25	713.05
1026.6397	2995.0852	1555.55	679.2
1026.7519	2996.1495	1539.9	662
1026.864	2997.2131	1512.1	633.8
1026.9761	2998.276	1481.35	604.7
1027.0882	2999.3383	1473.25	596
1027.2002	3000.4	1447.6	570.8
1027.3122	3001.4611	1429.85	550.85
1027.4241	3002.5215	1417.55	540.2
1027.536	3003.5812	1403.5	526.35
1027.6478	3004.6404	1394.35	518.15
1027.7596	3005.6989	1385.8	506.45
1027.8714	3006.7567	1366.1	488.45
1027.9831	3007.8139	1384.55	479
1028.0947	3008.8705	1352.05	477.55
1028.2064	3009.9264	1340.75	461.3
1028.3179	3010.9818	1340.85	464.3
1028.4295	3012.0364	1337.7	460
1028.541	3013.0905	1329.05	452.5
1028.6524	3014.1439	1327.45	449.95
1028.7638	3015.1966	1321.4	444.55
1028.8752	3016.2487	1319.95	445.15
1028.9865	3017.3002	1326.7	443.95
1029.0978	3018.3511	1310.6	433.9
1029.209	3019.4013	1317.5	440.2
1029.3202	3020.4509	1308.55	432.7
1029.4314	3021.4998	1311.1	433.5
1029.5425	3022.5481	1309.7	434
1029.6535	3023.5958	1307.2	430.6
1029.7645	3024.6428	1307.85	429.5
1029.8755	3025.6892	1304.5	428
1029.9864	3026.735	1309.55	432.25
1030.0973	3027.7802	1316.75	440.05
1030.2082	3028.8247	1310.25	434.5
1030.319	3029.8685	1311.3	433.45
1030.4297	3030.9118	1310.5	434.05
1030.5404	3031.9544	1319.95	444.9
1030.6511	3032.9963	1326.65	451.7
1030.7617	3034.0376	1324.85	450
1030.8723	3035.0783	1340.9	463
1030.9829	3036.1184	1333.5	456.45
1031.0934	3037.1578	1328.8	455.05
1031.2038	3038.1966	1337.05	455.55
1031.3142	3039.2348	1331.3	453.65
1031.4246	3040.2723	1343.1	457.95
1031.5349	3041.3092	1326.85	452.35
1031.6452	3042.3455	1338	460.5
1031.7554	3043.3811	1336.95	459.3
1031.8656	3044.4161	1331.6	453.7
1031.9758	3045.4505	1322.35	447.45
1032.0859	3046.4842	1324.95	448.65
1032.1959	3047.5173	1319.8	445.6
1032.3059	3048.5498	1313.35	437.25
1032.4159	3049.5816	1307.4	431.75
1032.5258	3050.6128	1303.15	425.25
1032.6357	3051.6434	1304.05	425.2
1032.7455	3052.6734	1291.75	414.45
1032.8553	3053.7027	1291.1	414.6
1032.9651	3054.7314	1283.75	406.6
1033.0748	3055.7594	1282.65	408.7
1033.1845	3056.7868	1276.9	396.85
1033.2941	3057.8136	1269.5	394.7
1033.4037	3058.8398	1269.95	393.8
1033.5132	3059.8653	1264.1	388.45
1033.6227	3060.8902	1267.55	392.85
1033.7321	3061.9145	1257.1	381.3
1033.8415	3062.9381	1256.25	379.9
1033.9509	3063.9612	1265	372.2
1034.0602	3064.9835	1242.6	368.05
1034.1694	3066.0053	1237.45	358.4
1034.2787	3067.0264	1234.65	358.1
1034.3878	3068.0469	1229.2	351.45
1034.497	3069.0668	1231	350.95
1034.6061	3070.086	1215.65	338.4
1034.7151	3071.1046	1207.4	329.7
1034.8241	3072.1226	1204.2	326.95
1034.9331	3073.1399	1190.9	316.6
1035.042	3074.1567	1188.1	313.05
1035.1508	3075.1727	1182.85	306.45
1035.2597	3076.1882	1175.8	300.3
1035.3684	3077.203	1161.5	286.2
1035.4772	3078.2173	1162.5	284.8
1035.5859	3079.2308	1153.05	270
1035.6945	3080.2438	1150.95	271.2
1035.8031	3081.2561	1138.65	262.3
1035.9117	3082.2678	1129.7	253.45
1036.0202	3083.2789	1126.7	250.15
1036.1286	3084.2893	1120.65	246.7
1036.2371	3085.2991	1112.7	235.85
1036.3454	3086.3083	1115.85	236.5
1036.4538	3087.3169	1104.3	226
1036.562	3088.3248	1095.75	220.7
1036.6703	3089.3321	1093.1	216
1036.7785	3090.3388	1088.5	213.7
1036.8866	3091.3449	1085.55	209.15
1036.9948	3092.3503	1083	204.1
1037.1028	3093.3551	1079.4	202.9
1037.2108	3094.3593	1078.2	204.55
1037.3188	3095.3629	1076.1	202.1
1037.4267	3096.3658	1073.65	196.45
1037.5346	3097.3681	1065.4	189.35
1037.6425	3098.3698	1064.4	188.85
1037.7503	3099.3708	1068.35	185.05
1037.858	3100.3713	1059.4	184.6
1037.9657	3101.3711	1059.8	183.85
1038.0734	3102.3702	1196.7	184.1
1038.181	3103.3688	1059.85	182
1038.2886	3104.3667	1051.65	177.35
1038.3961	3105.364	1049.3	174.15
1038.5036	3106.3607	1047.95	169.25
1038.611	3107.3568	1050	171.8
1038.7184	3108.3522	1041.6	167.5
1038.8257	3109.347	1041.1	165.45
1038.933	3110.3412	1041.55	162.3
1039.0403	3111.3348	1041.95	167.05
1039.1475	3112.3277	1034.05	156.2
1039.2547	3113.32	1034.5	159.8
1039.3618	3114.3117	1032.95	156.8
1039.4689	3115.3028	1028.55	152.55
1039.5759	3116.2932	1028.9	151.65
1039.6829	3117.2831	1031.05	150.7
1039.7898	3118.2723	1029	154.9
1039.8967	3119.2608	1020.2	146.15
1040.0035	3120.2488	1025.2	149.25
1040.1103	3121.2361	1024.25	147.5
1040.2171	3122.2229	1021.65	146.4
1040.3238	3123.209	1023.45	146.6
1040.4305	3124.1944	1019.35	146
1040.5371	3125.1793	1017.55	140.55
1040.6437	3126.1635	1021.35	148.9
1040.7502	3127.1471	1013.9	139.15
1040.8567	3128.1301	1009.3	132.8
1040.9631	3129.1125	1012.05	136.7
1041.0695	3130.0942	1013.45	137.95
1041.1759	3131.0753	1017.9	133.95
1041.2822	3132.0558	1011.8	132.75
1041.3884	3133.0357	1012.2	138.7
1041.4946	3134.015	1014.4	139.05
1041.6008	3134.9936	1007.35	131.1
1041.7069	3135.9716	1025.15	126.95
1041.813	3136.949	1004.5	129.15
1041.919	3137.9258	1018.7	123.75
1042.025	3138.902	1007.2	126.35
1042.1309	3139.8775	996.4	120.45
1042.2368	3140.8524	1002.9	129
1042.3427	3141.8267	999.55	122.55
1042.4485	3142.8004	997.7	122.05
1042.5542	3143.7735	1004.65	125.55
1042.6599	3144.7459	996	118.7
1042.7656	3145.7178	999.2	125.6
1042.8712	3146.689	994.1	120.55
1042.9768	3147.6596	993.05	117.95
1043.0823	3148.6295	995.65	119.8
1043.1878	3149.5989	992.75	118.2
1043.2932	3150.5676	990.05	115.5
1043.3986	3151.5357	987.6	114.15
1043.5039	3152.5032	986.35	112.05
1043.6092	3153.4701	985.9	113.7
1043.7145	3154.4364	989.8	112.25
1043.8197	3155.402	982.65	109.2
1043.9248	3156.367	984.05	108.05
1044.03	3157.3315	1013.5	107.5
1044.135	3158.2952	984.15	111.5
1044.24	3159.2584	983.55	109.6
1044.345	3160.221	980.8	106.5
1044.4499	3161.1829	978.7	103.05
1044.5548	3162.1442	981.1	105.8
1044.6596	3163.105	979.7	104.5
1044.7644	3164.065	979.2	103.7
1044.8692	3165.0245	980.7	102.95
1044.9739	3165.9834	973.75	101.05
1045.0785	3166.9416	973.45	99.45
1045.1831	3167.8993	980	105.7
1045.2877	3168.8563	976.1	98.8
1045.3922	3169.8127	975.4	100.45
1045.4966	3170.7684	976.1	100.9
1045.6011	3171.7236	975.35	99.3
1045.7054	3172.6782	968.85	94.1
1045.8098	3173.6321	969.15	95.25
1045.914	3174.5854	974.3	97
1046.0183	3175.5381	970.55	97.4
1046.1224	3176.4902	973.4	97.8
1046.2266	3177.4417	968.85	95.5
1046.3307	3178.3926	966.9	94.3
1046.4347	3179.3428	968.95	95.5
1046.5387	3180.2924	968.45	94.55
1046.6427	3181.2415	968.25	92.05
1046.7466	3182.1899	965.85	89.4
1046.8504	3183.1377	963.6	90
1046.9542	3184.0848	967.85	89.2
1047.058	3185.0314	964.35	88.8
1047.1617	3185.9773	961.05	88.4
1047.2654	3186.9227	964.3	88.45
1047.369	3187.8674	964.95	92.15
1047.4726	3188.8115	968.9	92
1047.5761	3189.755	963.15	89.95
1047.6796	3190.6979	959.1	84.35
1047.783	3191.6402	958.4	84.85
1047.8864	3192.5818	961.6	86.45
1047.9898	3193.5229	977.95	83.8
1048.0931	3194.4633	959.75	85.95
1048.1963	3195.4031	957.95	84.4
1048.2995	3196.3423	959.4	85.1
1048.4027	3197.2809	955.25	81.65
1048.5058	3198.2189	959	85.55
1048.6089	3199.1563	961.8	82.4
1048.7119	3200.0931	958.35	86.3
1048.8148	3201.0292	953.9	80
1048.9178	3201.9648	954.85	81.15
1049.0206	3202.8997	952.1	74.85
1049.1235	3203.834	952.1	76.65
1049.2262	3204.7677	950.6	76.35
1049.329	3205.7008	953.55	77.5
1049.4317	3206.6333	948.05	76.05
1049.5343	3207.5652	955.35	79.6
1049.6369	3208.4964	951.85	77.4
1049.7394	3209.4271	951.4	77.15
1049.8419	3210.3571	951.9	78.85
1049.9444	3211.2865	950.9	74.8
1050.0468	3212.2154	951.9	77.4
1050.1491	3213.1436	950.05	73.05
1050.2514	3214.0712	958.4	76.8
1050.3537	3214.9982	946.4	70.85
1050.4559	3215.9246	950.5	74.65
1050.5581	3216.8503	947.1	71.4
1050.6602	3217.7755	950.85	78.1
1050.7623	3218.7001	948.85	77.5
1050.8643	3219.624	948.35	75.65
1050.9663	3220.5473	947.7	75.55
1051.0682	3221.4701	944.15	68.25
1051.1701	3222.3922	946.05	69.35
1051.2719	3223.3137	946.6	73.9
1051.3737	3224.2346	945.4	71.75
1051.4754	3225.1549	944.2	70.95
1051.5771	3226.0746	945.85	73.1
1051.6788	3226.9937	940.75	68.3
1051.7804	3227.9121	941.05	69.3
1051.8819	3228.83	941.9	68.2
1051.9834	3229.7473	942.8	67.35
1052.0849	3230.6639	944.45	70.1
1052.1863	3231.5799	944.2	71.35
1052.2876	3232.4954	942.55	69
1052.3889	3233.4102	939.25	68.25
1052.4902	3234.3244	941.05	66.6
1052.5914	3235.238	940.1	67.3
1052.6926	3236.151	965.75	70.5
1052.7937	3237.0634	940.2	67.1
1052.8948	3237.9752	938	62.9
1052.9958	3238.8864	938	63.85
1053.0968	3239.797	937.75	63.5
1053.1977	3240.7069	939.4	64.25
1053.2986	3241.6163	940	64.05
1053.3994	3242.5251	936.35	64.1
1053.5002	3243.4332	937	64.45
1053.6009	3244.3408	937.65	63.55
1053.7016	3245.2477	935.35	62
1053.8022	3246.154	932.9	59.45
1053.9028	3247.0598	935.6	61.8
1054.0034	3247.9649	933.15	59.5
1054.1039	3248.8694	932	56.3
1054.2043	3249.7733	932.5	57.85
1054.3047	3250.6766	932.5	57.75
1054.4051	3251.5793	932.25	57.05
1054.5054	3252.4814	930.65	57.55
1054.6056	3253.3829	931.7	58.45
1054.7058	3254.2838	929	56.6
1054.806	3255.1841	929.7	59.05
1054.9061	3256.0838	930.35	56.9
1055.0061	3256.9829	928.4	55.4
1055.1062	3257.8814	930.25	56.2
1055.2061	3258.7792	929.85	55.55
1055.306	3259.6765	928.65	54.6
1055.4059	3260.5731	926.9	54
1055.5057	3261.4692	927.55	54.55
1055.6055	3262.3647	926.75	52.3
1055.7052	3263.2595	924.35	51.45
1055.8049	3264.1538	923.8	50.25
1055.9045	3265.0474	924.5	49.15
1056.0041	3265.9404	921.9	48.8
1056.1036	3266.8329	922.7	51.7
1056.2031	3267.7247	928.6	44.45
1056.3025	3268.616	917.35	45.95
1056.4019	3269.5066	918.6	44.95
1056.5013	3270.3966	918.8	44.9
1056.6005	3271.286	914.55	43.1
