Software Version:	3.9.2.0
Unit SN:	10000200
Spectrometer SN:	6960
Date:	3/8/2024 12:24:16 PM
Data Line Index:	25
Spectral Points:	2048
Integration time (ms):	125
Averages:	20
Delay (ms):	30000
Sequence Number:	1
Processing:	dark subtract
Laser Power (mW):	305
Laser Current (mA):	822
Laser Diode Temp (C):	25
Laser Case Temp (C):	25.9
System Temp (C):	25.9
Spectrometer Temp (C):	23.7
CCD Temp (C):	0.005
Secondary Temp (C):	20.01
Heatsink Temp (C):	20.964
CCDPCB Temp (C):	36.174
SecondaryPCB Temp (C):	29.07

Wavelength	RamanShift	Raw Counts	Dark Subtracted
787.061	30.1047	415.8	6.95
787.2016	32.3739	413.7	7.6
787.3422	34.6426	415.55	7.6
787.4828	36.9109	418	6.2
787.6235	39.1787	423	8.2
787.7642	41.4461	429.2	11.2
787.9049	43.7131	433.6	10.95
788.0456	45.9796	437.9	11.95
788.1863	48.2456	442.5	14.05
788.3271	50.5112	445.2	12.75
788.4679	52.7764	449.25	13.35
788.6087	55.0411	457.35	16.6
788.7496	57.3054	462.6	15.15
788.8904	59.5692	467.75	20.3
789.0313	61.8326	469.4	18.15
789.1722	64.0955	473.7	18.45
789.3132	66.3579	480.6	23.8
789.4541	68.6199	490.15	28.25
789.5951	70.8815	502.4	35.65
789.7361	73.1426	524.95	56.15
789.8771	75.4032	571.3	96.65
790.0181	77.6634	684.7	207.45
790.1592	79.9231	938.4	455.85
790.3003	82.1824	1470.95	975.05
790.4414	84.4412	2352.55	1832.05
790.5825	86.6995	3463.15	2918.45
790.7237	88.9574	4551.3	3984.55
790.8648	91.2148	5265.1	4680.65
791.006	93.4717	5584.65	4989.65
791.1472	95.7282	5595.2	4992.35
791.2885	97.9842	5525.85	4923.05
791.4297	100.2398	5393.05	4788.15
791.571	102.4949	5247.3	4638.05
791.7123	104.7495	5102.55	4491.1
791.8536	107.0036	4905.3	4293.3
791.9949	109.2573	4748.85	4137.4
792.1363	111.5105	4576.15	3962.9
792.2777	113.7632	4393.45	3778.05
792.4191	116.0154	4225.95	3598.95
792.5605	118.2672	4070.8	3451.25
792.7019	120.5185	3931.3	3311.15
792.8434	122.7693	3817.1	3190.4
792.9849	125.0197	3711.95	3080.9
793.1264	127.2696	3619.25	2988.25
793.2679	129.519	3557.45	2920.05
793.4094	131.7679	3493.6	2854.6
793.551	134.0163	3442.65	2797.75
793.6926	136.2642	3383.85	2738.6
793.8342	138.5117	3340.1	2683.75
793.9758	140.7587	3264.35	2616.7
794.1175	143.0052	3171.5	2520.6
794.2591	145.2512	3091.7	2442.6
794.4008	147.4967	3023.85	2367.25
794.5425	149.7417	2961.05	2302.7
794.6842	151.9863	2920.3	2260.85
794.826	154.2304	2896.6	2232.4
794.9677	156.4739	2879.1	2210.5
795.1095	158.717	2887.6	2216.65
795.2513	160.9596	2878.35	2200.15
795.3931	163.2017	2886.7	2207.95
795.535	165.4433	2849.25	2169.55
795.6768	167.6844	2805.3	2124.35
795.8187	169.925	2744.3	2061.8
795.9606	172.1651	2633.5	1945.15
796.1025	174.4047	2591.6	1902.55
796.2445	176.6439	2533.8	1841.2
796.3864	178.8825	2493.25	1799.15
796.5284	181.1206	2459.3	1759.3
796.6704	183.3582	2444.3	1740.5
796.8124	185.5954	2427.15	1723.75
796.9544	187.832	2425.35	1718.2
797.0965	190.0681	2427.15	1716.45
797.2386	192.3037	2425.35	1710.35
797.3806	194.5388	2441.8	1723.8
797.5228	196.7734	2447.25	1724.75
797.6649	199.0075	2465.95	1743.6
797.807	201.2411	2501.65	1777.95
797.9492	203.4742	2526.3	1803.1
798.0914	205.7068	2565.85	1837.05
798.2336	207.9389	2595.75	1862.6
798.3758	210.1704	2622.6	1897.4
798.518	212.4015	2622.25	1905.2
798.6603	214.632	2628.9	1917.15
798.8025	216.862	2656.5	1951.9
798.9448	219.0915	2666.25	1957.6
799.0871	221.3205	2681.75	1969.95
799.2294	223.549	2687.45	1979.35
799.3718	225.777	2681.95	1973.35
799.5141	228.0044	2678.65	1963.85
799.6565	230.2314	2679.55	1965.65
799.7989	232.4578	2661.25	1943.1
799.9413	234.6837	2648.9	1920.1
800.0837	236.909	2637.1	1909.7
800.2262	239.1339	2656.95	1900.6
800.3687	241.3582	2639.65	1900.8
800.5111	243.582	2653.8	1883.95
800.6536	245.8053	2645.65	1889.4
800.7961	248.0281	2650.9	1901
800.9387	250.2503	2663.65	1908.05
801.0812	252.472	2682.65	1924.85
801.2238	254.6932	2714.15	1958.55
801.3664	256.9139	2734.75	1977.4
801.509	259.134	2772.25	2006
801.6516	261.3536	2840.5	2081.6
801.7942	263.5727	2919.65	2158.8
801.9369	265.7912	3000.85	2239.75
802.0795	268.0092	3085.65	2316.95
802.2222	270.2267	3165.7	2401.35
802.3649	272.4436	3242.3	2481.9
802.5076	274.6601	3271.5	2498.5
802.6504	276.8759	3283.45	2513.65
802.7931	279.0913	3295.15	2524.05
802.9359	281.3061	3297.5	2528.75
803.0787	283.5204	3332.9	2556.1
803.2215	285.7341	3361.25	2580
803.3643	287.9473	3391.9	2609.75
803.5071	290.16	3386.85	2601.65
803.6499	292.3721	3342.9	2567.75
803.7928	294.5837	3332.65	2554.95
803.9357	296.7947	3340.55	2562.85
804.0786	299.0052	3338.95	2557.15
804.2215	301.2152	3331.2	2547.15
804.3644	303.4246	3294.6	2518.85
804.5074	305.6334	3251.2	2471.4
804.6503	307.8418	3199.35	2419.45
804.7933	310.0495	3138	2353.95
804.9363	312.2568	3033.8	2253.95
805.0793	314.4635	2957	2174.85
805.2223	316.6696	2860.65	2076
805.3653	318.8752	2793.4	1993.7
805.5084	321.0802	2742.75	1953
805.6514	323.2847	2736.2	1946.35
805.7945	325.4887	2746.1	1956.6
805.9376	327.692	2782.45	1987.75
806.0807	329.8949	2815.25	2018.4
806.2238	332.0972	2835.3	2038.2
806.367	334.2989	2845.9	2048.9
806.5101	336.5001	2793	1992.45
806.6533	338.7007	2746	1944.75
806.7965	340.9008	2675.9	1872.25
806.9397	343.1003	2606.5	1800.55
807.0829	345.2992	2557.15	1752.75
807.2261	347.4976	2514	1708.85
807.3693	349.6955	2470.45	1662.15
807.5126	351.8927	2445.25	1632.5
807.6559	354.0895	2433.9	1610.6
807.7991	356.2856	2415.15	1600.85
807.9424	358.4812	2401.2	1589.5
808.0857	360.6763	2387.75	1569.9
808.2291	362.8707	2385.15	1567.5
808.3724	365.0646	2401.05	1585.05
808.5158	367.258	2419.75	1600.1
808.6591	369.4508	2439.25	1614.85
808.8025	371.643	2491	1667.1
808.9459	373.8346	2516.4	1691.5
809.0893	376.0257	2560.45	1727.1
809.2327	378.2162	2578.8	1752.15
809.3762	380.4062	2604.5	1774.4
809.5196	382.5956	2573.05	1746.75
809.6631	384.7844	2532.2	1710.95
809.8066	386.9726	2472.8	1658.15
809.9501	389.1603	2446.8	1628
810.0936	391.3474	2451.35	1601.7
810.2371	393.5339	2426.9	1605.3
810.3806	395.7199	2424.9	1605.9
810.5241	397.9052	2474.4	1655.2
810.6677	400.09	2524.75	1708.2
810.8113	402.2743	2593.6	1775.95
810.9548	404.4579	2640.15	1819.4
811.0984	406.641	2717.4	1893.95
811.2421	408.8235	2761.45	1938.9
811.3857	411.0054	2832.35	2006.9
811.5293	413.1868	2887.5	2058.5
811.673	415.3675	2912.7	2079.6
811.8166	417.5477	2863.4	2027.9
811.9603	419.7273	2788.25	1947.95
812.104	421.9064	2734.1	1888.15
812.2477	424.0848	2689.55	1852.35
812.3914	426.2627	2632	1792.05
812.5351	428.4399	2549.15	1711.7
812.6788	430.6166	2473.4	1633.4
812.8226	432.7928	2405.7	1558.8
812.9663	434.9683	2346.35	1502.25
813.1101	437.1432	2295.15	1451.2
813.2539	439.3176	2255.5	1415.9
813.3977	441.4914	2248.65	1413.1
813.5415	443.6645	2231.15	1392.1
813.6853	445.8371	2229	1389.3
813.8291	448.0091	2235	1394.65
813.973	450.1806	2229.05	1388.45
814.1168	452.3514	2226.45	1384.15
814.2607	454.5216	2236.25	1386.4
814.4046	456.6913	2230.85	1386.1
814.5485	458.8603	2247.05	1403.05
814.6924	461.0288	2258.4	1417.35
814.8363	463.1967	2243.85	1404.7
814.9802	465.3639	2243.35	1396.9
815.1241	467.5306	2244	1400.5
815.2681	469.6967	2240.65	1400.55
815.412	471.8622	2218.25	1380.3
815.556	474.0271	2231.6	1390.7
815.7	476.1914	2241.25	1394.7
815.844	478.3551	2233.55	1383.25
815.988	480.5182	2236.9	1391.9
816.132	482.6807	2256.1	1413.55
816.276	484.8426	2279.25	1440.4
816.4201	487.0039	2348.15	1508.25
816.5641	489.1647	2431.8	1582.05
816.7082	491.3248	2504.35	1653.4
816.8522	493.4843	2531	1680.65
816.9963	495.6432	2518.5	1670.65
817.1404	497.8015	2491.35	1637.2
817.2845	499.9592	2427.65	1569.35
817.4286	502.1163	2366.4	1508.4
817.5727	504.2728	2292.9	1442.9
817.7168	506.4287	2229.5	1383.7
817.861	508.5839	2201.15	1352.6
818.0051	510.7386	2189.35	1339.4
818.1493	512.8927	2196.15	1338.7
818.2935	515.0461	2192.35	1337.95
818.4377	517.199	2229.25	1373.2
818.5818	519.3512	2288.7	1431.45
818.726	521.5029	2372.7	1510.9
818.8703	523.6539	2452.55	1596
819.0145	525.8043	2457	1596.75
819.1587	527.9541	2403.7	1539.35
819.303	530.1033	2330.15	1469.75
819.4472	532.2519	2271.9	1412.3
819.5915	534.3999	2237.55	1376.25
819.7357	536.5472	2230.85	1370.7
819.88	538.694	2244.4	1384.55
820.0243	540.8401	2282.2	1421
820.1686	542.9856	2308.85	1439.6
820.3129	545.1305	2345.3	1477.6
820.4572	547.2748	2340.75	1467.05
820.6016	549.4185	2330.65	1456.9
820.7459	551.5615	2336.45	1461.65
820.8902	553.704	2370.4	1498.95
821.0346	555.8458	2404.5	1531.9
821.1789	557.987	2439	1575.55
821.3233	560.1276	2483.9	1613.95
821.4677	562.2675	2557.45	1688.4
821.6121	564.4069	2689.55	1820.9
821.7565	566.5456	2765.95	1898.9
821.9009	568.6837	2777.2	1912.1
822.0453	570.8212	2677.3	1810.5
822.1897	572.958	2553.45	1684.35
822.3342	575.0942	2415.35	1552.3
822.4786	577.2299	2332.45	1463.45
822.6231	579.3648	2296.3	1435.2
822.7675	581.4992	2288.7	1436.75
822.912	583.6329	2306.15	1453.7
823.0565	585.766	2361.15	1503.5
823.201	587.8985	2418.9	1558.95
823.3454	590.0304	2500.6	1610
823.4899	592.1616	2510.1	1637.5
823.6345	594.2922	2471.9	1597.65
823.779	596.4222	2421.05	1543.55
823.9235	598.5515	2341.7	1465.55
824.068	600.6802	2290.55	1409.35
824.2126	602.8083	2240.15	1365.35
824.3571	604.9358	2236.5	1362.95
824.5017	607.0626	2238.9	1359.35
824.6462	609.1888	2275.75	1391.8
824.7908	611.3144	2307.75	1426.45
824.9354	613.4393	2378.6	1497.9
825.08	615.5636	2458.85	1578.1
825.2246	617.6873	2486.2	1606.5
825.3692	619.8103	2526.1	1645.8
825.5138	621.9327	2498.05	1616.3
825.6584	624.0544	2434.5	1556
825.803	626.1756	2359.25	1481.3
825.9477	628.2961	2310.8	1429.4
826.0923	630.4159	2286.45	1402.65
826.237	632.5351	2273.2	1390.9
826.3816	634.6537	2264.25	1381.75
826.5263	636.7716	2250.75	1366.8
826.6709	638.8889	2238.1	1353
826.8156	641.0056	2243.65	1354.55
826.9603	643.1216	2246.3	1360.15
827.105	645.237	2250.75	1362.8
827.2497	647.3518	2216.95	1334.9
827.3944	649.4659	2172.5	1293.75
827.5391	651.5793	2157.55	1277.5
827.6838	653.6922	2148.35	1265.05
827.8285	655.8043	2134.15	1252.7
827.9733	657.9159	2128.35	1244.9
828.118	660.0268	2121.55	1239.25
828.2627	662.137	2123.85	1235.8
828.4075	664.2466	2135.85	1246.2
828.5522	666.3556	2124.5	1236.35
828.697	668.4639	2107.75	1217.5
828.8418	670.5716	2105.05	1225.9
828.9865	672.6786	2099.25	1211.55
829.1313	674.785	2082.35	1190.85
829.2761	676.8907	2077.55	1191.55
829.4209	678.9958	2084.25	1200.2
829.5657	681.1002	2072.3	1185.5
829.7105	683.204	2089.25	1196.9
829.8553	685.3072	2076.6	1184.55
830.0001	687.4097	2073.05	1183.55
830.1449	689.5115	2075.2	1182.7
830.2898	691.6127	2082.35	1193.55
830.4346	693.7132	2073.65	1186.6
830.5794	695.8131	2094.5	1185.65
830.7243	697.9123	2097.35	1204.85
830.8691	700.0109	2094.55	1199.75
831.014	702.1089	2116.95	1226.4
831.1588	704.2061	2139.4	1246.85
831.3037	706.3028	2160.6	1266.2
831.4486	708.3987	2179.9	1282.25
831.5935	710.4941	2208.6	1316.05
831.7383	712.5887	2205.55	1311.55
831.8832	714.6827	2206.75	1309.15
832.0281	716.7761	2221.15	1326.75
832.173	718.8688	2222.45	1330.75
832.3179	720.9608	2244.05	1343.55
832.4628	723.0522	2293.55	1389.8
832.6077	725.1429	2330.9	1431.8
832.7527	727.233	2392.1	1495.55
832.8976	729.3224	2465.85	1568.6
833.0425	731.4112	2512.75	1612.45
833.1874	733.4993	2505.4	1608.75
833.3324	735.5867	2415.3	1516.95
833.4773	737.6735	2315.55	1417.75
833.6222	739.7596	2242.2	1344.1
833.7672	741.845	2197.65	1302.55
833.9122	743.9298	2182.05	1283.8
834.0571	746.014	2189.3	1289.85
834.2021	748.0974	2185.4	1280.85
834.347	750.1802	2193.35	1289.6
834.492	752.2624	2180.85	1278.9
834.637	754.3439	2190.4	1287.95
834.782	756.4247	2217.3	1309.75
834.9269	758.5048	2232.95	1330.6
835.0719	760.5843	2273.35	1368.55
835.2169	762.6631	2354.75	1450
835.3619	764.7413	2475.25	1574.4
835.5069	766.8188	2637.65	1730.95
835.6519	768.8956	2773.45	1870.05
835.7969	770.9718	2877.4	1974.35
835.9419	773.0473	2864.25	1961.5
836.0869	775.1221	2837.8	1937.7
836.232	777.1962	2804.5	1898.75
836.377	779.2697	2875.05	1968.75
836.522	781.3426	2966.2	2043.7
836.667	783.4147	3001.05	2095.65
836.8121	785.4862	2972.4	2069.25
836.9571	787.557	2850.75	1944.65
837.1021	789.6271	2681.65	1773.5
837.2472	791.6966	2512.3	1609.45
837.3922	793.7654	2367.1	1461.5
837.5373	795.8335	2279.85	1372.35
837.6823	797.901	2217.65	1312.4
837.8274	799.9678	2198.7	1291.85
837.9724	802.0339	2201.5	1295.75
838.1175	804.0993	2195.3	1277.85
838.2626	806.1641	2163.6	1256.05
838.4076	808.2282	2143.8	1239.75
838.5527	810.2916	2122.7	1213.4
838.6978	812.3544	2091.65	1187.75
838.8428	814.4164	2094.8	1188.55
838.9879	816.4778	2107.2	1198.35
839.133	818.5385	2123.7	1216.1
839.2781	820.5986	2166.25	1256.35
839.4232	822.658	2267.6	1355.35
839.5682	824.7166	2361.1	1453.3
839.7133	826.7747	2517.7	1608
839.8584	828.832	2665	1758.4
840.0035	830.8886	2770.4	1858.8
840.1486	832.9446	2807	1895.7
840.2937	834.9999	2733.6	1826.85
840.4388	837.0545	2606.1	1694.2
840.5839	839.1085	2489.55	1578.8
840.729	841.1618	2383.1	1469.8
840.8741	843.2143	2294.2	1381.85
841.0192	845.2662	2251.85	1345.9
841.1643	847.3175	2220.9	1311.4
841.3095	849.368	2195.05	1284.6
841.4546	851.4179	2192.6	1280.35
841.5997	853.467	2173.55	1263.3
841.7448	855.5155	2177.7	1261.95
841.8899	857.5633	2178	1265.8
842.0351	859.6105	2164.05	1251.15
842.1802	861.6569	2150.3	1236.6
842.3253	863.7027	2130.9	1217.55
842.4704	865.7478	2112.3	1199.15
842.6156	867.7922	2106.6	1191.8
842.7607	869.8359	2095.05	1183.25
842.9058	871.8789	2091.5	1178.35
843.0509	873.9212	2131.15	1187.05
843.1961	875.9629	2108.8	1196.05
843.3412	878.0039	2132.25	1216.9
843.4863	880.0441	2155.85	1244.55
843.6315	882.0837	2190.45	1276.65
843.7766	884.1226	2224.5	1310.9
843.9218	886.1609	2278.65	1366.45
844.0669	888.1984	2338.95	1426.45
844.212	890.2352	2388.05	1478.3
844.3572	892.2714	2399.95	1483.45
844.5023	894.3069	2358.4	1445.15
844.6475	896.3416	2294.9	1381.5
844.7926	898.3757	2250.65	1336.7
844.9377	900.4091	2217.4	1300.55
845.0829	902.4418	2223.9	1302.5
845.228	904.4739	2227.8	1311.1
845.3732	906.5052	2244.05	1328.4
845.5183	908.5358	2224.35	1309.75
845.6635	910.5658	2208.45	1290.2
845.8086	912.595	2154.8	1237.5
845.9538	914.6236	2086.3	1170.95
846.0989	916.6515	2056.95	1140.25
846.2441	918.6786	2036.55	1117.9
846.3892	920.7051	2031.45	1114.45
846.5344	922.7309	2019.85	1100.2
846.6795	924.756	2026.65	1108.45
846.8246	926.7804	2040.8	1123.2
846.9698	928.8041	2071.7	1154.05
847.1149	930.8272	2083.6	1168.5
847.2601	932.8495	2090	1172.7
847.4052	934.8711	2103.25	1184.5
847.5504	936.892	2108.45	1192.85
847.6955	938.9123	2129.65	1208.75
847.8407	940.9318	2166.95	1250.6
847.9858	942.9506	2184.7	1267.65
848.131	944.9688	2169.25	1253.55
848.2761	946.9862	2127.3	1209.35
848.4213	949.003	2082.45	1163.6
848.5664	951.019	2046.25	1130.5
848.7115	953.0344	2014.1	1095.65
848.8567	955.0491	2009.5	1087.65
849.0018	957.063	2003	1086.5
849.147	959.0763	2000.75	1083.35
849.2921	961.0888	2009.2	1088.95
849.4373	963.1007	2008.3	1092.75
849.5824	965.1119	2008.4	1096.45
849.7275	967.1223	2000.95	1090.95
849.8727	969.1321	1993.05	1087.35
850.0178	971.1412	1988.6	1079.1
850.1629	973.1495	1992.45	1078.35
850.3081	975.1572	2014.45	1063.7
850.4532	977.1641	1988.85	1070.45
850.5983	979.1704	1987.95	1071.05
850.7435	981.1759	1984.1	1061.15
850.8886	983.1808	1981.15	1059.2
851.0337	985.1849	1989.45	1060.1
851.1788	987.1884	1977.7	1060
851.324	989.1911	2002.8	1082.7
851.4691	991.1932	2010.65	1092.15
851.6142	993.1945	2003.9	1089
851.7593	995.1951	1988.3	1069.5
851.9045	997.1951	1994.05	1070.1
852.0496	999.1943	1986.05	1068.3
852.1947	1001.1928	2003.25	1083.65
852.3398	1003.1906	2028	1108.5
852.4849	1005.1877	2051.4	1127.3
852.63	1007.1841	2079.7	1163.5
852.7751	1009.1798	2091.9	1175.65
852.9202	1011.1748	2096.85	1179.6
853.0653	1013.1691	2048	1128.45
853.2104	1015.1627	2010.9	1094.75
853.3555	1017.1556	1971.3	1057.25
853.5006	1019.1477	1942	1026.65
853.6457	1021.1392	1915.95	1002.2
853.7908	1023.1299	1911.15	997.6
853.9359	1025.12	1918.3	1009.2
854.081	1027.1093	1921.05	1021.9
854.2261	1029.0979	1958.9	1061.25
854.3712	1031.0859	1981.3	1079
854.5163	1033.0731	2009.3	1096.9
854.6613	1035.0596	2007.4	1093.8
854.8064	1037.0454	1981.3	1068.25
854.9515	1039.0304	1964.45	1047.85
855.0965	1041.0148	1950.4	1033.8
855.2416	1042.9985	1925.7	1007.05
855.3867	1044.9814	1909.05	994.05
855.5317	1046.9636	1910.8	993.35
855.6768	1048.9452	1911.15	995.6
855.8219	1050.926	1946.35	1030.5
855.9669	1052.9061	1960.6	1044.65
856.112	1054.8855	1967.35	1049.85
856.257	1056.8642	1967.05	1050.95
856.4021	1058.8421	1966.1	1047.6
856.5471	1060.8194	1965.7	1046.55
856.6921	1062.7959	1969	1052.85
856.8372	1064.7717	1976.85	1057.8
856.9822	1066.7469	1998.95	1076.2
857.1272	1068.7213	2010.15	1091
857.2723	1070.695	2034.9	1115.45
857.4173	1072.6679	2064.1	1144.8
857.5623	1074.6402	2072.5	1154
857.7073	1076.6117	2071.5	1147.3
857.8523	1078.5826	2038.95	1118.95
857.9973	1080.5527	1990.5	1067.9
858.1423	1082.5221	1948.05	1029.65
858.2873	1084.4908	1928.9	1009.25
858.4323	1086.4587	1920.65	999
858.5773	1088.426	1916.4	997.85
858.7223	1090.3925	1915.85	992.05
858.8673	1092.3584	1931	1013.5
859.0123	1094.3235	1951.9	1034.9
859.1573	1096.2879	1991.65	1072.75
859.3022	1098.2515	2013.45	1095.85
859.4472	1100.2145	2070	1152.15
859.5922	1102.1767	2134.15	1214.55
859.7371	1104.1382	2210.55	1292.15
859.8821	1106.099	2282.65	1365.1
860.027	1108.0591	2360.7	1443.05
860.172	1110.0185	2423.45	1502.7
860.3169	1111.9771	2475.75	1557
860.4619	1113.9351	2517.45	1598.1
860.6068	1115.8923	2553.3	1634.4
860.7517	1117.8488	2550.65	1631
860.8967	1119.8045	2479.85	1562.8
861.0416	1121.7596	2369.5	1449.85
861.1865	1123.7139	2261.9	1346.5
861.3314	1125.6675	2216.55	1298.8
861.4763	1127.6204	2228.55	1313.3
861.6212	1129.5726	2231.9	1312.7
861.7661	1131.524	2219.1	1302.25
861.911	1133.4748	2158.4	1238.35
862.0559	1135.4248	2074.55	1155.75
862.2008	1137.3741	2019.85	1104.65
862.3457	1139.3226	1989.25	1072.05
862.4905	1141.2705	1987.35	1070.35
862.6354	1143.2176	1988.3	1065.65
862.7803	1145.164	1983.85	1063.5
862.9251	1147.1097	1976.1	1060.35
863.07	1149.0546	1940.25	1019.9
863.2148	1150.9989	1901.6	982.8
863.3597	1152.9424	1888.4	968.3
863.5045	1154.8852	1871.5	952.15
863.6493	1156.8272	1871.55	955
863.7942	1158.7686	1883.9	960.25
863.939	1160.7092	1880.2	960.35
864.0838	1162.6491	1901.95	983.15
864.2286	1164.5883	1917.2	998.5
864.3734	1166.5267	1954.05	1033.6
864.5182	1168.4644	1989.85	1072.15
864.663	1170.4014	2059.2	1137.75
864.8078	1172.3377	2124.8	1210.3
864.9526	1174.2732	2220.6	1304.1
865.0974	1176.2081	2378.2	1460.1
865.2421	1178.1421	2561.4	1638.6
865.3869	1180.0755	2717.9	1800.65
865.5317	1182.0082	2791.35	1876.4
865.6764	1183.9401	2742.85	1825
865.8212	1185.8713	2615.35	1702.8
865.9659	1187.8017	2445.9	1534
866.1106	1189.7315	2299.7	1396.5
866.2554	1191.6605	2186.9	1281.45
866.4001	1193.5888	2126.7	1216.85
866.5448	1195.5163	2085.7	1174.2
866.6895	1197.4432	2064.55	1150.05
866.8342	1199.3693	2038.8	1121.85
866.9789	1201.2947	2024.2	1106.55
867.1236	1203.2193	2027.7	1111.65
867.2683	1205.1432	2018.9	1102.9
867.413	1207.0664	2017.1	1096.55
867.5576	1208.9889	2020.15	1103.25
867.7023	1210.9106	2023	1106.2
867.847	1212.8316	2035.15	1119.15
867.9916	1214.7519	2062.75	1139.25
868.1363	1216.6715	2079	1162.8
868.2809	1218.5903	2094	1179.6
868.4255	1220.5084	2123.35	1206.8
868.5701	1222.4257	2162.6	1248.55
868.7148	1224.3424	2189.5	1278.45
868.8594	1226.2583	2232.8	1314.5
869.004	1228.1735	2274.65	1357.85
869.1486	1230.0879	2347.9	1431.25
869.2932	1232.0016	2414.9	1502.05
869.4377	1233.9146	2477	1557.7
869.5823	1235.8269	2520.5	1607.6
869.7269	1237.7384	2523.6	1607.35
869.8715	1239.6492	2527.3	1612.7
870.016	1241.5592	2572.8	1654.55
870.1606	1243.4686	2649.55	1733.9
870.3051	1245.3772	2756.2	1841.7
870.4496	1247.285	2883.25	1966.15
870.5941	1249.1922	2997.55	2084.2
870.7387	1251.0986	3116.7	2201.05
870.8832	1253.0042	3209.9	2294.2
871.0277	1254.9092	3313.55	2398.35
871.1722	1256.8134	3391.3	2478.4
871.3167	1258.7169	3451.45	2537.25
871.4611	1260.6196	3437.4	2521.5
871.6056	1262.5216	3445.35	2528
871.7501	1264.4229	3426.25	2510.95
871.8945	1266.3234	3410.2	2493.5
872.039	1268.2232	3391.4	2475.8
872.1834	1270.1223	3354.65	2437.2
872.3278	1272.0207	3337.3	2421.6
872.4723	1273.9183	3317.9	2395.9
872.6167	1275.8151	3354.2	2436.25
872.7611	1277.7113	3414.5	2495.95
872.9055	1279.6067	3527.1	2612.75
873.0499	1281.5014	3724.55	2806.15
873.1943	1283.3953	3943.2	3024.7
873.3386	1285.2885	4169.9	3254.25
873.483	1287.181	4365	3448.45
873.6274	1289.0727	4447.35	3532.7
873.7717	1290.9637	4454	3538.55
873.9161	1292.854	4401.7	3488.75
874.0604	1294.7435	4309.55	3395.5
874.2047	1296.6323	4194.1	3278.45
874.349	1298.5204	4070.5	3155.4
874.4933	1300.4077	3980.75	3065.15
874.6376	1302.2943	3888.3	2972.55
874.7819	1304.1802	3803.35	2887.55
874.9262	1306.0653	3701.3	2783.15
875.0705	1307.9497	3590.55	2675.9
875.2147	1309.8333	3484.35	2567.95
875.359	1311.7162	3389.5	2475.8
875.5032	1313.5984	3322.6	2405.65
875.6475	1315.4798	3269.45	2353.9
875.7917	1317.3605	3255.15	2322.75
875.9359	1319.2405	3191.3	2274.4
876.0801	1321.1197	3111.65	2194.45
876.2243	1322.9982	3005.35	2084.65
876.3685	1324.876	2879.1	1963.85
876.5127	1326.753	2749.05	1834.05
876.6569	1328.6293	2639.9	1722.9
876.801	1330.5048	2544.25	1629.05
876.9452	1332.3796	2457.55	1544
877.0893	1334.2537	2419.35	1479.35
877.2335	1336.127	2356.55	1443.15
877.3776	1337.9996	2318.85	1404.45
877.5217	1339.8714	2300.75	1385.35
877.6658	1341.7426	2321.65	1361.3
877.8099	1343.6129	2269.7	1351.7
877.954	1345.4826	2266.25	1350.4
878.0981	1347.3515	2246.95	1328
878.2422	1349.2196	2228.75	1312.15
878.3862	1351.087	2226.05	1311.5
878.5303	1352.9537	2228	1310.1
878.6743	1354.8197	2242.7	1328.6
878.8184	1356.6849	2272.65	1354.35
878.9624	1358.5493	2316.05	1399.35
879.1064	1360.4131	2357.6	1442.65
879.2504	1362.276	2421.65	1508.5
879.3944	1364.1383	2465.25	1552.5
879.5384	1365.9998	2464.6	1542.4
879.6823	1367.8606	2413.1	1497.5
879.8263	1369.7206	2359.45	1444.4
879.9702	1371.5799	2330.1	1410.9
880.1142	1373.4384	2288.9	1375.3
880.2581	1375.2962	2239.6	1324.25
880.402	1377.1533	2150.65	1233.8
880.5459	1379.0096	2085.45	1174.2
880.6898	1380.8652	1999.95	1088.45
880.8337	1382.7201	1959.8	1047.3
880.9776	1384.5742	1911.15	997.25
881.1215	1386.4275	1875.5	960.1
881.2653	1388.2802	1842.9	928.8
881.4092	1390.132	1830.35	916.75
881.553	1391.9832	1817.25	900.85
881.6968	1393.8336	1795.15	881.1
881.8406	1395.6832	1785.35	868.2
881.9844	1397.5322	1778.15	866
882.1282	1399.3803	1773.05	852.65
882.272	1401.2278	1754.65	839.05
882.4158	1403.0745	1748.35	834.65
882.5595	1404.9204	1733.85	821.25
882.7033	1406.7656	1731.6	817.95
882.847	1408.6101	1735.25	821.35
882.9908	1410.4538	1731.6	815.85
883.1345	1412.2968	1743.1	831.65
883.2782	1414.139	1757.1	842.6
883.4219	1415.9805	1763.85	850.6
883.5656	1417.8213	1790.3	867.25
883.7092	1419.6613	1809.6	899.35
883.8529	1421.5006	1842.75	929.75
883.9965	1423.3391	1908.95	993.5
884.1402	1425.1769	1977.05	1063.6
884.2838	1427.0139	2084.5	1170.2
884.4274	1428.8502	2217.4	1302.85
884.571	1430.6858	2316.85	1403.05
884.7146	1432.5206	2387.3	1472.65
884.8582	1434.3547	2382.15	1470.05
885.0018	1436.188	2365.9	1453.75
885.1453	1438.0206	2342.45	1429.2
885.2889	1439.8524	2317.6	1403.6
885.4324	1441.6835	2312.05	1396.25
885.5759	1443.5139	2310.85	1396.55
885.7194	1445.3435	2302.2	1390.25
885.8629	1447.1724	2305.25	1391.75
886.0064	1449.0005	2308	1398.3
886.1499	1450.8279	2292.55	1382.55
886.2933	1452.6545	2287.3	1374.85
886.4368	1454.4804	2303.9	1393.15
886.5802	1456.3056	2291.25	1372.2
886.7237	1458.13	2268.75	1354.7
886.8671	1459.9536	2228.85	1317.9
887.0105	1461.7766	2156.1	1244
887.1539	1463.5987	2100.5	1185.15
887.2972	1465.4202	2056	1144.55
887.4406	1467.2409	1989.5	1077.35
887.584	1469.0608	1940.6	1026.5
887.7273	1470.88	1881.4	970.4
887.8706	1472.6984	1835.35	926.15
888.0139	1474.5161	1801.4	887.9
888.1572	1476.3331	1778.85	869.25
888.3005	1478.1493	1776.55	864.9
888.4438	1479.9648	1762.5	847.65
888.5871	1481.7795	1755.5	844.6
888.7303	1483.5935	1741.7	830.9
888.8736	1485.4067	1738.05	825.25
889.0168	1487.2192	1750.55	838.45
889.16	1489.031	1744.3	829.6
889.3032	1490.842	1739.25	827.4
889.4464	1492.6522	1738.2	827.3
889.5896	1494.4618	1722.95	808.55
889.7327	1496.2705	1717.05	807.1
889.8759	1498.0785	1722.55	810.7
890.019	1499.8858	1710.15	797.85
890.1622	1501.6924	1694.4	782.9
890.3053	1503.4981	1677.05	768.75
890.4484	1505.3032	1670.1	760.8
890.5914	1507.1075	1666.55	757.15
890.7345	1508.911	1652.85	744.3
890.8776	1510.7138	1645.3	734
891.0206	1512.5159	1636.6	725
891.1637	1514.3172	1628.55	719.2
891.3067	1516.1178	1606.9	695.35
891.4497	1517.9176	1603.6	690.95
891.5927	1519.7166	1591.6	681.4
891.7357	1521.515	1591.3	676.25
891.8786	1523.3126	1583.3	672.05
892.0216	1525.1094	1591.85	682.35
892.1645	1526.9055	1578.9	671.95
892.3074	1528.7008	1569.05	660.5
892.4503	1530.4954	1576.75	666.25
892.5932	1532.2893	1572.5	663.55
892.7361	1534.0824	1579.3	668.6
892.879	1535.8747	1563.75	660.3
893.0218	1537.6663	1569	661.75
893.1647	1539.4572	1569.9	661.7
893.3075	1541.2473	1572.95	664.35
893.4503	1543.0367	1579.9	673.2
893.5931	1544.8253	1595.05	683.8
893.7359	1546.6132	1604.15	694.95
893.8787	1548.4003	1620.1	703.95
894.0214	1550.1867	1641.55	724.55
894.1642	1551.9723	1657.7	747.55
894.3069	1553.7572	1686.5	778.65
894.4496	1555.5414	1722.55	817.9
894.5923	1557.3247	1770.65	867.8
894.735	1559.1074	1837.4	934.55
894.8777	1560.8893	1901.2	999.2
895.0204	1562.6705	1971.35	1067.95
895.163	1564.4509	2004.3	1102.5
895.3056	1566.2305	2001.7	1102.4
895.4482	1568.0094	2012.45	1113.85
895.5908	1569.7876	2016.9	1113.2
895.7334	1571.565	2013.85	1113.5
895.876	1573.3417	2023.35	1119.45
896.0186	1575.1176	2026.75	1126.25
896.1611	1576.8928	2040.95	1137.4
896.3036	1578.6672	2089.95	1190.95
896.4461	1580.4409	2133.2	1234.8
896.5886	1582.2138	2184.2	1282.2
896.7311	1583.986	2232.25	1328.8
896.8736	1585.7575	2287.5	1385.55
897.0161	1587.5282	2339.6	1442.8
897.1585	1589.2981	2393.75	1496.75
897.3009	1591.0673	2433.15	1536.45
897.4433	1592.8358	2474	1575.55
897.5857	1594.6035	2486.3	1585.75
897.7281	1596.3704	2483.7	1583.65
897.8705	1598.1366	2479.15	1580.7
898.0128	1599.9021	2469.6	1570.35
898.1551	1601.6668	2469.35	1566.6
898.2975	1603.4308	2482.05	1580.35
898.4398	1605.194	2521.45	1617.2
898.5821	1606.9564	2564.6	1667.95
898.7243	1608.7182	2680.2	1784.2
898.8666	1610.4791	2788.1	1897.1
899.0088	1612.2394	2934.65	2044.65
899.1511	1613.9988	3069.7	2177.35
899.2933	1615.7576	3154.85	2260.6
899.4355	1617.5156	3179.3	2275.4
899.5776	1619.2728	3110.5	2211.65
899.7198	1621.0293	2983.65	2086.55
899.862	1622.785	2816.5	1918
900.0041	1624.54	2645.95	1748.7
900.1462	1626.2942	2478.55	1582.7
900.2883	1628.0477	2316.65	1416.35
900.4304	1629.8005	2192.5	1293.8
900.5725	1631.5525	2086.05	1188.6
900.7145	1633.3037	1991.3	1095
900.8566	1635.0542	1924.1	1029.35
900.9986	1636.804	1863.45	966.65
901.1406	1638.553	1883.45	927.3
901.2826	1640.3013	1796.95	902.1
901.4245	1642.0488	1757.9	861.5
901.5665	1643.7955	1743.5	850.9
901.7085	1645.5416	1732.3	836.75
901.8504	1647.2868	1721.3	828.75
901.9923	1649.0313	1721.8	823.15
902.1342	1650.7751	1736.55	836.8
902.2761	1652.5181	1742.65	850.4
902.4179	1654.2604	1756.55	862.05
902.5598	1656.0019	1792.75	900.3
902.7016	1657.7427	1835.25	939.9
902.8434	1659.4828	1888.6	990.65
902.9852	1661.222	1949.4	1052.8
903.127	1662.9606	1973.6	1078.75
903.2687	1664.6984	1980.25	1083.55
903.4105	1666.4354	1932.6	1034.6
903.5522	1668.1717	1843.5	945
903.6939	1669.9072	1748.55	851.9
903.8356	1671.642	1653	752.75
903.9773	1673.3761	1588.7	692.75
904.119	1675.1094	1531.95	637.85
904.2606	1676.8419	1493.85	598.8
904.4022	1678.5737	1473.8	577.15
904.5439	1680.3048	1447.1	549
904.6855	1682.0351	1424.4	529.55
904.827	1683.7646	1411.85	514.45
904.9686	1685.4934	1397.45	500.9
905.1101	1687.2215	1389	491.7
905.2517	1688.9488	1377.85	483.4
905.3932	1690.6754	1362.85	469.05
905.5347	1692.4012	1360.25	465.15
905.6761	1694.1263	1361.1	464.4
905.8176	1695.8506	1346.5	452.15
905.9591	1697.5742	1342.45	446.15
906.1005	1699.297	1328.8	434.65
906.2419	1701.0191	1330.8	439.85
906.3833	1702.7404	1323.1	432.25
906.5246	1704.461	1330.15	435.2
906.666	1706.1808	1318.55	423.2
906.8073	1707.8999	1312.15	417.8
906.9487	1709.6182	1314.4	422.55
907.09	1711.3358	1308.7	416.3
907.2313	1713.0527	1295.65	407.3
907.3725	1714.7688	1303.15	410.45
907.5138	1716.4841	1299	404.85
907.655	1718.1987	1295.25	398.3
907.7962	1719.9126	1285.1	394.2
907.9374	1721.6257	1282.25	388.8
908.0786	1723.338	1282.25	392.35
908.2198	1725.0496	1280	388.1
908.3609	1726.7605	1283.95	390.25
908.502	1728.4706	1279.15	384.05
908.6431	1730.18	1279.7	388.4
908.7842	1731.8886	1278.3	386.4
908.9253	1733.5964	1288.3	377.85
909.0664	1735.3036	1271.6	376.85
909.2074	1737.0099	1263.6	374
909.3484	1738.7156	1262.2	371.65
909.4894	1740.4204	1261.55	369.3
909.6304	1742.1246	1260.6	368.25
909.7714	1743.8279	1259.8	369.9
909.9123	1745.5306	1257.7	364.85
910.0532	1747.2325	1247.85	358.15
910.1941	1748.9336	1245.4	355.4
910.335	1750.634	1252.3	357.6
910.4759	1752.3336	1251.4	362.15
910.6168	1754.0325	1241.25	352.55
910.7576	1755.7307	1245.45	356.15
910.8984	1757.4281	1246.95	357.25
911.0392	1759.1247	1254.4	355.4
911.18	1760.8206	1251.9	354.6
911.3208	1762.5158	1249.2	353.5
911.4615	1764.2102	1239.2	347.95
911.6022	1765.9039	1239.65	348.65
911.7429	1767.5968	1227.7	336.75
911.8836	1769.289	1233.1	343.05
912.0243	1770.9804	1234.95	345.95
912.1649	1772.6711	1239.05	343.1
912.3056	1774.361	1239.8	346.45
912.4462	1776.0502	1236.1	343.45
912.5868	1777.7386	1240.3	345.1
912.7274	1779.4263	1229.1	338
912.8679	1781.1132	1228	338.85
913.0084	1782.7994	1226.2	334.15
913.149	1784.4849	1225.45	336
913.2895	1786.1696	1240.4	333.3
913.4299	1787.8535	1216.8	329.4
913.5704	1789.5367	1218.9	330.25
913.7108	1791.2192	1222.75	333.9
913.8513	1792.9009	1247.3	329.85
913.9917	1794.5818	1222.9	330.7
914.132	1796.2621	1220.45	331.2
914.2724	1797.9415	1218.7	327.25
914.4128	1799.6202	1221.9	331.5
914.5531	1801.2982	1217.6	327.85
914.6934	1802.9755	1217.85	325.3
914.8337	1804.6519	1213.4	321.55
914.9739	1806.3277	1210.4	318.55
915.1142	1808.0027	1205.95	318.75
915.2544	1809.6769	1209.15	321.65
915.3946	1811.3504	1211.2	322.55
915.5348	1813.0231	1205.65	317.05
915.675	1814.6951	1209.4	319.7
915.8151	1816.3664	1214	321.6
915.9553	1818.0369	1209.15	316.85
916.0954	1819.7067	1204.4	315.3
916.2355	1821.3757	1205.8	314.3
916.3755	1823.044	1206.5	315.1
916.5156	1824.7115	1208.2	317.6
916.6556	1826.3783	1200.15	309.7
916.7956	1828.0443	1201.75	311.65
916.9356	1829.7096	1204.2	313.35
917.0756	1831.3741	1201.45	307.65
917.2155	1833.0379	1202.5	312
917.3555	1834.701	1194.35	304.75
917.4954	1836.3633	1199.2	311.95
917.6353	1838.0248	1191.25	299.65
917.7751	1839.6856	1192.3	300.9
917.915	1841.3457	1191.7	301.8
918.0548	1843.005	1196.85	307.6
918.1946	1844.6636	1196.3	305.6
918.3344	1846.3214	1191.1	301.7
918.4742	1847.9785	1197.65	308.7
918.6139	1849.6349	1194.05	302.05
918.7537	1851.2904	1203.45	303.9
918.8934	1852.9453	1195.55	302.1
919.0331	1854.5994	1191.65	298.2
919.1727	1856.2528	1192.75	298.6
919.3124	1857.9054	1189.55	297.2
919.452	1859.5572	1189.55	299.35
919.5916	1861.2083	1194.25	303.35
919.7312	1862.8587	1189.25	298.35
919.8708	1864.5084	1191.45	300.5
920.0103	1866.1572	1191.8	299.2
920.1498	1867.8054	1189.8	297.45
920.2893	1869.4528	1187	294.6
920.4288	1871.0994	1187.35	294.95
920.5683	1872.7453	1189.7	298.8
920.7077	1874.3905	1193.5	299.1
920.8471	1876.0349	1183.85	292.55
920.9865	1877.6786	1183.7	291.55
921.1259	1879.3215	1180.65	289.95
921.2653	1880.9637	1179.3	288
921.4046	1882.6051	1182.05	292.6
921.5439	1884.2458	1179	287
921.6832	1885.8858	1174.9	283.65
921.8225	1887.525	1178.35	288.25
921.9617	1889.1634	1177.15	288.6
922.101	1890.8011	1174.9	285.9
922.2402	1892.4381	1170.85	279.35
922.3794	1894.0743	1173.7	282.75
922.5185	1895.7098	1170.15	281.15
922.6577	1897.3446	1176.75	286.2
922.7968	1898.9786	1176.3	284.15
922.9359	1900.6118	1169.1	279.5
923.075	1902.2443	1168.35	276.4
923.214	1903.8761	1162.65	274.15
923.3531	1905.5071	1166.5	277.15
923.4921	1907.1374	1162.6	272.9
923.6311	1908.7669	1160.5	270.8
923.77	1910.3957	1162.35	273.6
923.909	1912.0237	1163.9	274.4
924.0479	1913.651	1165.05	275.35
924.1868	1915.2776	1161.75	272.25
924.3257	1916.9034	1160.35	271.85
924.4646	1918.5285	1154	264.45
924.6034	1920.1528	1154.05	263.4
924.7422	1921.7764	1157.6	267.75
924.881	1923.3992	1153.65	265.25
925.0198	1925.0213	1153.9	265.85
925.1586	1926.6427	1147.25	258.8
925.2973	1928.2633	1236.55	253.3
925.436	1929.8832	1149.65	257.5
925.5747	1931.5023	1151.85	262.75
925.7134	1933.1207	1150.5	262.05
925.852	1934.7383	1149.15	258.5
925.9906	1936.3552	1149.55	258.15
926.1292	1937.9714	1147.05	256.35
926.2678	1939.5868	1152.25	260.3
926.4064	1941.2015	1146.4	255.35
926.5449	1942.8154	1146.25	254.7
926.6834	1944.4286	1143.7	252.9
926.8219	1946.041	1160.75	250.2
926.9604	1947.6528	1143.7	249.45
927.0988	1949.2637	1141.15	251.35
927.2372	1950.8739	1137.95	247.7
927.3756	1952.4834	1142.35	253
927.514	1954.0921	1139	249.45
927.6523	1955.7001	1145.35	250.45
927.7907	1957.3074	1133.75	247.75
927.929	1958.9139	1129.45	242.35
928.0673	1960.5197	1137.2	248.05
928.2055	1962.1247	1128.6	242
928.3438	1963.729	1131.3	244.15
928.482	1965.3325	1134.1	241.05
928.6202	1966.9353	1128.85	241.95
928.7584	1968.5374	1129.5	241.5
928.8965	1970.1387	1127.45	240.45
929.0346	1971.7393	1126.6	238.35
929.1727	1973.3392	1131.05	243.3
929.3108	1974.9383	1125.5	239.55
929.4489	1976.5366	1124.3	237.8
929.5869	1978.1342	1122.55	237.25
929.7249	1979.7311	1119.9	232.05
929.8629	1981.3273	1120.7	234.65
930.0009	1982.9227	1125.55	239.3
930.1388	1984.5173	1118.9	231.3
930.2767	1986.1112	1119.25	235.25
930.4146	1987.7044	1117.45	232.3
930.5525	1989.2968	1117.65	231.45
930.6904	1990.8885	1118.2	228.45
930.8282	1992.4795	1120.95	234.1
930.966	1994.0697	1114.4	230
931.1038	1995.6592	1111.9	228.2
931.2415	1997.2479	1109.25	224.4
931.3793	1998.8359	1110.2	225.8
931.517	2000.4232	1109.55	227.55
931.6547	2002.0097	1105.1	223.1
931.7923	2003.5955	1111.2	228.95
931.93	2005.1805	1109.45	223.35
932.0676	2006.7648	1104.5	221.9
932.2052	2008.3484	1105.8	220.95
932.3427	2009.9312	1103.4	218.35
932.4803	2011.5133	1103.2	221.4
932.6178	2013.0946	1105.65	222.4
932.7553	2014.6752	1106.9	224.15
932.8928	2016.2551	1108	222.55
933.0302	2017.8342	1096.8	210.4
933.1676	2019.4126	1095.45	213.55
933.305	2020.9902	1098.8	216.15
933.4424	2022.5672	1097.45	215.4
933.5798	2024.1433	1104.65	215.7
933.7171	2025.7188	1098.05	218.1
933.8544	2027.2935	1098.35	215.15
933.9917	2028.8674	1099.25	216.35
934.129	2030.4406	1098.9	217.9
934.2662	2032.0131	1092.45	213.15
934.4034	2033.5849	1098.35	208.55
934.5406	2035.1559	1093.2	212.9
934.6778	2036.7261	1096.2	213.05
934.8149	2038.2957	1098.3	214.8
934.952	2039.8645	1100.95	214.8
935.0891	2041.4325	1100.15	212.4
935.2262	2042.9998	1094.85	212.15
935.3632	2044.5664	1094.65	210.5
935.5002	2046.1323	1093.75	214.25
935.6372	2047.6974	1094.05	213.1
935.7742	2049.2617	1091.75	211.6
935.9111	2050.8254	1096.3	209.3
936.048	2052.3883	1094.2	209.1
936.1849	2053.9504	1092.05	208.05
936.3218	2055.5118	1095.2	210.95
936.4586	2057.0725	1091.6	203.8
936.5955	2058.6325	1090.75	208.65
936.7323	2060.1917	1085.9	203.3
936.869	2061.7502	1088.6	204.15
937.0058	2063.3079	1080.15	198.85
937.1425	2064.8649	1088.75	202.6
937.2792	2066.4212	1087.4	203.05
937.4159	2067.9767	1083.25	200.9
937.5525	2069.5315	1082	198.65
937.6891	2071.0856	1086.55	202.75
937.8257	2072.6389	1082.85	199.75
937.9623	2074.1915	1080.9	197.8
938.0989	2075.7433	1081.1	195.8
938.2354	2077.2945	1079.15	193.95
938.3719	2078.8448	1076.9	193.6
938.5084	2080.3945	1080.2	193.85
938.6448	2081.9434	1080.3	197.5
938.7812	2083.4916	1083.15	198.8
938.9176	2085.039	1079.2	188.95
939.054	2086.5857	1087	199
939.1903	2088.1317	1076.3	188.85
939.3267	2089.677	1088.35	200.9
939.463	2091.2215	1079.35	191.95
939.5992	2092.7652	1078.1	190.55
939.7355	2094.3083	1080.2	191.5
939.8717	2095.8506	1080.1	193.95
940.0079	2097.3921	1078.2	192.85
940.1441	2098.933	1080.45	193.4
940.2802	2100.4731	1076.45	192.95
940.4163	2102.0124	1090.3	186.6
940.5524	2103.5511	1076.1	190.25
940.6885	2105.089	1076.75	190
940.8245	2106.6261	1075.3	188.9
940.9606	2108.1626	1075.1	187.65
941.0965	2109.6983	1099.75	185
941.2325	2111.2332	1075.25	188.15
941.3684	2112.7675	1080.15	191.95
941.5044	2114.301	1076.35	190.65
941.6403	2115.8337	1069.75	182.8
941.7761	2117.3657	1069	183.85
941.912	2118.897	1075.3	185.7
942.0478	2120.4276	1078.3	186.1
942.1835	2121.9575	1070.6	184.65
942.3193	2123.4866	1072.35	182.55
942.455	2125.0149	1074.55	186.45
942.5907	2126.5426	1060.55	175.6
942.7264	2128.0695	1068.55	180.6
942.8621	2129.5956	1066.15	184.15
942.9977	2131.1211	1070.1	183.6
943.1333	2132.6458	1067.6	182.15
943.2689	2134.1698	1065.55	178.9
943.4044	2135.693	1069.15	176.65
943.54	2137.2155	1070.9	181.5
943.6755	2138.7373	1065.45	179.1
943.8109	2140.2584	1062.6	179.55
943.9464	2141.7787	1064.8	177.95
944.0818	2143.2983	1061.85	180.7
944.2172	2144.8171	1056.9	176.25
944.3526	2146.3353	1059.3	172.05
944.4879	2147.8527	1061.9	177.35
944.6232	2149.3693	1062.4	177.75
944.7585	2150.8853	1058.55	171.95
944.8938	2152.4005	1065.3	176.4
945.029	2153.9149	1065.65	175.95
945.1642	2155.4287	1062	175.15
945.2994	2156.9417	1062.1	174
945.4346	2158.454	1060.5	173.1
945.5697	2159.9655	1060.1	176.7
945.7048	2161.4764	1059.3	175.3
945.8399	2162.9865	1056.65	172.85
945.9749	2164.4958	1058.5	172.75
946.1099	2166.0045	1058.3	170.6
946.2449	2167.5124	1058.1	172.55
946.3799	2169.0195	1058.05	173.15
946.5148	2170.526	1059.25	171.6
946.6498	2172.0317	1054.55	167.9
946.7846	2173.5367	1053.95	167.8
946.9195	2175.0409	1050.35	162.75
947.0543	2176.5445	1057.55	173.9
947.1891	2178.0473	1050.8	163.7
947.3239	2179.5494	1055.65	165.3
947.4587	2181.0507	1055.05	168.1
947.5934	2182.5513	1055.25	167.6
947.7281	2184.0512	1055.65	169.05
947.8628	2185.5504	1050.7	165.3
947.9974	2187.0488	1048.15	164.2
948.132	2188.5465	1051.15	165.95
948.2666	2190.0435	1049.1	163.15
948.4012	2191.5397	1056	171.1
948.5357	2193.0353	1052.2	166.55
948.6702	2194.5301	1057.95	169.85
948.8047	2196.0241	1054.6	166.65
948.9392	2197.5175	1049.9	161.2
949.0736	2199.0101	1054.4	162.45
949.208	2200.502	1043.45	159.7
949.3424	2201.9931	1047.55	160.8
949.4767	2203.4835	1044.1	157.8
949.611	2204.9733	1063.65	163.95
949.7453	2206.4622	1047.15	162.95
949.8796	2207.9505	1045.35	158.25
950.0138	2209.438	1038	156.25
950.148	2210.9248	1047.9	161.55
950.2822	2212.4109	1039.15	154.15
950.4164	2213.8962	1050.5	161.3
950.5505	2215.3809	1048.6	159.1
950.6846	2216.8648	1044.8	154.45
950.8186	2218.3479	1050.15	157.05
950.9527	2219.8304	1051.6	159.05
951.0867	2221.3121	1046.05	155.25
951.2207	2222.7931	1043.55	156.65
951.3546	2224.2733	1043.3	156.95
951.4886	2225.7529	1042.25	155.45
951.6225	2227.2317	1041.95	154.5
951.7563	2228.7098	1038.2	153.3
951.8902	2230.1872	1035.25	149.35
952.024	2231.6638	1037.5	153.15
952.1578	2233.1397	1040.75	151
952.2916	2234.6149	1036.85	151.95
952.4253	2236.0894	1038.5	151.6
952.559	2237.5632	1044.35	146.95
952.6927	2239.0362	1034	148.3
952.8263	2240.5085	1035.2	149.45
952.9599	2241.9801	1033.6	145.15
953.0935	2243.4509	1035.25	148.5
953.2271	2244.921	1032.25	143.65
953.3606	2246.3904	1037.7	146.4
953.4941	2247.8591	1034.3	147.3
953.6276	2249.3271	1035.95	148.8
953.7611	2250.7943	1034.15	146
953.8945	2252.2608	1036.3	148.75
954.0279	2253.7266	1026.2	139.6
954.1612	2255.1917	1032.25	146.35
954.2946	2256.656	1031.3	145.15
954.4279	2258.1197	1025.35	142.45
954.5612	2259.5826	1028.2	138.8
954.6944	2261.0447	1028.5	141.05
954.8276	2262.5062	1032.3	143.25
954.9608	2263.9669	1033.1	143
955.094	2265.4269	1028.95	142.7
955.2271	2266.8862	1027.35	139.7
955.3602	2268.3448	1023.35	137.75
955.4933	2269.8026	1024.7	140.8
955.6264	2271.2598	1025.75	141.1
955.7594	2272.7162	1025.1	140.65
955.8924	2274.1719	1029.95	142.8
956.0253	2275.6268	1024.9	136.35
956.1583	2277.0811	1028.65	142.45
956.2912	2278.5346	1028.25	143.35
956.4241	2279.9874	1023.6	138.35
956.5569	2281.4395	1025.15	139.5
956.6897	2282.8908	1024.4	135
956.8225	2284.3414	1022.45	135.2
956.9553	2285.7914	1025.9	139.5
957.088	2287.2406	1022.6	133.55
957.2207	2288.689	1029.05	140.85
957.3534	2290.1368	1025.75	136.65
957.486	2291.5838	1029.05	138.9
957.6186	2293.0302	1027.2	137.85
957.7512	2294.4758	1026	137.6
957.8838	2295.9206	1025.3	135.2
958.0163	2297.3648	1026	138.4
958.1488	2298.8082	1019.3	131.2
958.2813	2300.251	1027.3	139.25
958.4137	2301.693	1026.7	135.8
958.5461	2303.1343	1026.2	135.8
958.6785	2304.5748	1015.7	128.65
958.8108	2306.0147	1023.15	139.4
958.9432	2307.4538	1021.3	133.55
959.0754	2308.8922	1014.3	131.1
959.2077	2310.3299	1019.7	134.25
959.3399	2311.7669	1014.55	129.9
959.4721	2313.2031	1020.7	134.85
959.6043	2314.6387	1019	130.15
959.7365	2316.0735	1020.85	134.2
959.8686	2317.5076	1017.55	129.3
960.0006	2318.941	1016.9	129.25
960.1327	2320.3737	1020.3	130.75
960.2647	2321.8056	1019.7	130.15
960.3967	2323.2369	1020.65	130.3
960.5287	2324.6674	1022.4	134.6
960.6606	2326.0972	1020.3	130.9
960.7925	2327.5263	1018.35	130.6
960.9244	2328.9547	1025.25	136.2
961.0562	2330.3823	1024.9	136.75
961.1881	2331.8092	1022.5	129.95
961.3198	2333.2355	1021.65	133.9
961.4516	2334.661	1017.7	130.15
961.5833	2336.0858	1016.95	124.6
961.715	2337.5098	1014.5	126.8
961.8467	2338.9332	1017	129.45
961.9783	2340.3558	1018.3	127.35
962.1099	2341.7778	1014.75	126.65
962.2415	2343.199	1021.4	133.05
962.373	2344.6195	1012.1	125.15
962.5045	2346.0393	1011.2	125.9
962.636	2347.4583	1014.45	125.25
962.7675	2348.8767	1013.1	125.25
962.8989	2350.2943	1012.45	123.3
963.0303	2351.7113	1013.95	123.1
963.1617	2353.1275	1011.55	120.2
963.293	2354.543	1020.6	122.95
963.4243	2355.9578	1013.45	122.9
963.5556	2357.3718	1008.1	121.2
963.6868	2358.7852	1013.95	123.15
963.818	2360.1978	1006.7	119.65
963.9492	2361.6098	1010.1	122.3
964.0803	2363.021	1016.65	124.8
964.2114	2364.4315	1013.25	125.65
964.3425	2365.8413	1012.55	125.65
964.4736	2367.2504	1007.95	122.15
964.6046	2368.6587	1008.75	121.75
964.7356	2370.0664	1006.85	120.05
964.8666	2371.4733	1008.35	119.85
964.9975	2372.8795	1012.55	127.25
965.1284	2374.285	1009.95	121.15
965.2593	2375.6899	1006.4	117.95
965.3901	2377.0939	1006	115.9
965.5209	2378.4973	1007.45	120.95
965.6517	2379.9	1009	122.6
965.7825	2381.3019	1004.35	118
965.9132	2382.7032	1005.6	118.1
966.0439	2384.1037	1004.2	120.5
966.1745	2385.5035	1003.45	117.2
966.3051	2386.9027	1001.65	114.85
966.4357	2388.3011	1008.65	117.8
966.5663	2389.6987	1001.45	117.15
966.6968	2391.0957	1000.25	114.5
966.8273	2392.492	1004.5	119.5
966.9578	2393.8876	1003.55	117.2
967.0882	2395.2824	1002.15	117.3
967.2186	2396.6765	1002.5	115.6
967.349	2398.07	1002.6	115.65
967.4793	2399.4627	1003.4	112.8
967.6097	2400.8547	1002.35	111.8
967.7399	2402.246	1009.05	113.45
967.8702	2403.6366	1001.6	112.8
968.0004	2405.0265	998.85	113.55
968.1306	2406.4156	998.95	109
968.2607	2407.8041	1005.05	114.3
968.3909	2409.1918	1001.95	112.75
968.521	2410.5789	1001.1	111.35
968.651	2411.9652	1003.45	112.3
968.781	2413.3508	999	111.05
968.911	2414.7358	997.2	107.2
969.041	2416.12	996.45	109.45
969.1709	2417.5035	997.75	110.15
969.3008	2418.8863	997.95	107.9
969.4307	2420.2684	1000.2	112.7
969.5606	2421.6497	996.5	107.65
969.6904	2423.0304	999.5	111.75
969.8201	2424.4104	1000.15	111.5
969.9499	2425.7896	1001.25	106.15
970.0796	2427.1682	996.9	108.7
970.2093	2428.546	998	109.9
970.3389	2429.9232	995.8	107.85
970.4685	2431.2996	994.25	104.5
970.5981	2432.6753	994.25	105.5
970.7277	2434.0503	997.1	108.55
970.8572	2435.4246	996.4	111.55
970.9867	2436.7982	997.15	106.9
971.1161	2438.1711	994.35	105.85
971.2456	2439.5433	995.8	105.95
971.375	2440.9148	1002.05	108.4
971.5043	2442.2856	989.95	102.45
971.6336	2443.6557	992.05	103.3
971.7629	2445.025	992.8	103.85
971.8922	2446.3937	997.65	107.7
972.0214	2447.7617	993.2	103.55
972.1506	2449.1289	994.85	105.45
972.2798	2450.4955	996.3	103.15
972.4089	2451.8613	992.9	105.85
972.538	2453.2265	994.55	107.25
972.6671	2454.5909	994.9	106.7
972.7961	2455.9546	992.25	104.05
972.9251	2457.3177	987.8	100.55
973.0541	2458.68	990.25	98.7
973.1831	2460.0416	991.65	101.65
973.312	2461.4025	991.75	102.2
973.4408	2462.7627	1002.3	101.3
973.5697	2464.1222	988.1	102.2
973.6985	2465.4811	989	102.65
973.8273	2466.8392	990.2	104.2
973.956	2468.1966	989.35	100.5
974.0847	2469.5533	990.9	100.75
974.2134	2470.9093	993.85	103.15
974.3421	2472.2645	991.8	102.55
974.4707	2473.6191	988.05	100.2
974.5993	2474.973	987.55	101.85
974.7278	2476.3262	987.65	98.55
974.8563	2477.6787	992.2	104.4
974.9848	2479.0305	989.5	102.5
975.1132	2480.3816	994.25	105.55
975.2417	2481.7319	987.75	100.1
975.37	2483.0816	989	100.15
975.4984	2484.4306	988.05	99.1
975.6267	2485.7789	985.1	99.25
975.755	2487.1264	986.65	98.8
975.8833	2488.4733	986.2	100.75
976.0115	2489.8195	1003.85	100.95
976.1397	2491.165	988.85	98.3
976.2678	2492.5097	986.1	96.9
976.3959	2493.8538	980.9	94.95
976.524	2495.1972	985.35	100.55
976.6521	2496.5398	985.9	98.05
976.7801	2497.8818	986.35	94.9
976.9081	2499.2231	986.3	97
977.036	2500.5637	989.8	98.1
977.164	2501.9035	988.95	99.05
977.2918	2503.2427	993.35	102.05
977.4197	2504.5812	986.85	98.05
977.5475	2505.919	988.2	98.2
977.6753	2507.256	982.4	93.25
977.8031	2508.5924	980.3	92.4
977.9308	2509.9281	991.55	99.15
978.0585	2511.2631	983.7	96.65
978.1861	2512.5974	979.3	91.2
978.3137	2513.9309	982.35	95.15
978.4413	2515.2638	1013	95.1
978.5689	2516.596	984.25	95.7
978.6964	2517.9275	983.5	94.2
978.8239	2519.2583	985.5	99
978.9513	2520.5884	981.5	94
979.0788	2521.9178	977.35	91
979.2062	2523.2465	981.7	96.1
979.3335	2524.5745	977.3	90.2
979.4608	2525.9018	977.7	89.95
979.5881	2527.2284	974.35	87.85
979.7154	2528.5543	976.3	88.65
979.8426	2529.8796	981.75	94.6
979.9698	2531.2041	982.15	95.95
980.0969	2532.5279	977.9	93.05
980.224	2533.851	984.25	99.05
980.3511	2535.1735	977.25	88.75
980.4781	2536.4952	977.75	89.05
980.6052	2537.8163	983.5	96
980.7321	2539.1366	979	91
980.8591	2540.4562	981.15	92.05
980.986	2541.7752	979.55	92.25
981.1129	2543.0935	981.75	93.7
981.2397	2544.411	982.25	92.2
981.3665	2545.7279	980.35	91.9
981.4933	2547.0441	982.3	94.15
981.62	2548.3596	985.95	96.35
981.7467	2549.6744	977.9	91.55
981.8734	2550.9885	987.2	91.6
982.0001	2552.3019	978.2	92.15
982.1267	2553.6146	980.3	92.65
982.2532	2554.9266	979.25	90.7
982.3798	2556.2379	976.4	86.75
982.5063	2557.5485	975.5	89.5
982.6327	2558.8585	986.8	91.6
982.7592	2560.1677	982.9	92.95
982.8856	2561.4762	977.15	88.65
983.0119	2562.7841	981.35	90.7
983.1383	2564.0913	977.35	90.5
983.2646	2565.3977	976.9	90.15
983.3908	2566.7035	978.3	93
983.517	2568.0086	979.05	89.5
983.6432	2569.313	980.35	93.95
983.7694	2570.6167	981.35	90.75
983.8955	2571.9197	973.7	87.7
984.0216	2573.222	984.15	94.95
984.1476	2574.5236	973.75	82.9
984.2737	2575.8246	979.65	91.05
984.3996	2577.1248	982.95	93.4
984.5256	2578.4244	974.95	87.65
984.6515	2579.7232	978.4	90.65
984.7774	2581.0214	1004.8	91.35
984.9032	2582.3189	976.3	90.15
985.029	2583.6157	982.35	91.15
985.1548	2584.9118	977	86.2
985.2806	2586.2072	975.85	88
985.4063	2587.5019	977.2	90.45
985.5319	2588.7959	975.6	89.6
985.6576	2590.0893	980.5	93.1
985.7832	2591.3819	979.15	92.3
985.9087	2592.6739	978.65	90.7
986.0343	2593.9652	981.15	92.4
986.1597	2595.2557	976.35	89.5
986.2852	2596.5456	982.65	93.75
986.4106	2597.8348	978.75	91.05
986.536	2599.1234	979.85	94.4
986.6614	2600.4112	981.1	94.35
986.7867	2601.6983	984.7	94.9
986.912	2602.9848	979.4	91.95
987.0372	2604.2705	982	90
987.1624	2605.5556	980.35	92.2
987.2876	2606.84	978.05	92.4
987.4128	2608.1237	977.95	89.15
987.5379	2609.4067	976.15	92.3
987.6629	2610.689	987.65	90.45
987.788	2611.9707	978.45	87.5
987.913	2613.2516	979.8	88.3
988.0379	2614.5319	972.7	87.15
988.1629	2615.8115	974.5	88.25
988.2878	2617.0903	975.05	86.4
988.4126	2618.3685	976.45	89.45
988.5375	2619.6461	974.3	88.05
988.6622	2620.9229	974.75	88.5
988.787	2622.199	973.65	88.05
988.9117	2623.4745	976.05	88.35
989.0364	2624.7493	971	83.4
989.161	2626.0234	972.8	86.85
989.2857	2627.2968	973.35	87.75
989.4102	2628.5695	975.45	88.15
989.5348	2629.8415	974.6	90.1
989.6593	2631.1128	970.8	84.25
989.7837	2632.3835	975.35	90.45
989.9082	2633.6535	967.35	81.2
990.0326	2634.9228	967.9	83.95
990.1569	2636.1914	970.5	84.4
990.2812	2637.4593	971.75	85.55
990.4055	2638.7265	972.05	86.75
990.5298	2639.9931	969.25	84.9
990.654	2641.259	970.45	84.5
990.7782	2642.5242	970.2	82.5
990.9023	2643.7887	968.75	81.85
991.0264	2645.0525	970.55	85.1
991.1505	2646.3156	968.35	81.9
991.2745	2647.5781	969.7	85.5
991.3985	2648.8398	969.95	86.65
991.5225	2650.1009	1002.4	78.75
991.6464	2651.3613	966.35	80.95
991.7703	2652.6211	966.25	80.85
991.8942	2653.8801	967.1	82
992.018	2655.1385	970	82.4
992.1418	2656.3961	965.6	80.3
992.2655	2657.6531	967.85	82.65
992.3892	2658.9094	967.7	82.1
992.5129	2660.1651	965	83.05
992.6366	2661.42	967.3	80.7
992.7602	2662.6743	967.45	80.5
992.8837	2663.9279	969.9	84
993.0073	2665.1808	970	83.3
993.1307	2666.433	972.4	87.2
993.2542	2667.6846	967.15	81.25
993.3776	2668.9354	973.2	84.6
993.501	2670.1856	971.25	83.55
993.6244	2671.4351	968.15	82.75
993.7477	2672.6839	971.45	83.4
993.8709	2673.9321	967.65	84
993.9942	2675.1795	973.5	87.25
994.1174	2676.4263	973.75	88.7
994.2405	2677.6724	973.3	89.05
994.3637	2678.9179	973	88.45
994.4868	2680.1626	972.35	87
994.6098	2681.4067	968.55	82.85
994.7328	2682.6501	971.8	87
994.8558	2683.8928	970.9	83.9
994.9788	2685.1348	962.85	79.1
995.1017	2686.3761	969.45	85.3
995.2245	2687.6168	968.3	84.5
995.3474	2688.8568	966.95	83.8
995.4702	2690.0961	965.7	80.65
995.5929	2691.3348	970.4	84.95
995.7156	2692.5727	968.05	83.05
995.8383	2693.81	966.45	80.65
995.961	2695.0466	966.05	80.4
996.0836	2696.2826	964.9	79.65
996.2062	2697.5178	985.75	79.05
996.3287	2698.7524	967.8	82.95
996.4512	2699.9863	967.25	79.55
996.5737	2701.2195	965.65	82.7
996.6961	2702.452	968.6	81.85
996.8185	2703.6839	971.85	86.85
996.9408	2704.9151	966.05	83.25
997.0631	2706.1456	970.7	85.4
997.1854	2707.3755	973.45	88.5
997.3077	2708.6046	975.25	87.1
997.4299	2709.8331	975.5	89.45
997.552	2711.0609	974.8	89.15
997.6742	2712.2881	975.25	90.65
997.7963	2713.5145	976.7	90
997.9183	2714.7403	979.75	95.5
998.0403	2715.9654	978.95	93.3
998.1623	2717.1899	994.7	93.9
998.2842	2718.4136	986.5	102.8
998.4062	2719.6367	987.95	103.1
998.528	2720.8591	992.9	100.3
998.6498	2722.0809	990.5	105.85
998.7716	2723.3019	999.75	111.75
998.8934	2724.5223	994.25	108.1
999.0151	2725.7421	993.65	106.05
999.1368	2726.9611	998.75	110
999.2584	2728.1795	994	102.9
999.38	2729.3972	987.65	103.05
999.5016	2730.6142	994.7	101.35
999.6231	2731.8306	985.2	98.85
999.7446	2733.0462	987.4	99.95
999.8661	2734.2612	986.3	97.4
999.9875	2735.4756	980.1	95.85
1000.1089	2736.6892	976.6	90.3
1000.2302	2737.9022	973.65	92.4
1000.3515	2739.1145	969.45	84.2
1000.4728	2740.3262	981.6	87.65
1000.594	2741.5372	968.85	83.45
1000.7152	2742.7475	969.6	83.65
1000.8363	2743.9571	972.05	86.2
1000.9575	2745.1661	972.4	85.1
1001.0785	2746.3744	964.25	78.65
1001.1996	2747.582	962.65	80.85
1001.3206	2748.7889	963.35	77.75
1001.4415	2749.9952	956.7	73.95
1001.5625	2751.2008	960.8	77.15
1001.6833	2752.4057	964.6	78.9
1001.8042	2753.61	962.45	77.55
1001.925	2754.8136	962.85	75.1
1002.0458	2756.0165	958.1	75.45
1002.1665	2757.2188	953.55	70.35
1002.2872	2758.4204	959.25	74.05
1002.4078	2759.6213	958.65	73.1
1002.5285	2760.8215	964.9	76.1
1002.649	2762.0211	962.15	77.25
1002.7696	2763.22	960.45	73.05
1002.8901	2764.4182	960.9	75.1
1003.0106	2765.6158	957.75	73.35
1003.131	2766.8127	956.3	72.75
1003.2514	2768.009	958.15	72.75
1003.3717	2769.2045	955.55	70.45
1003.492	2770.3994	958.2	68.6
1003.6123	2771.5936	957.05	72.1
1003.7325	2772.7872	953.25	69.05
1003.8527	2773.9801	954.8	70.2
1003.9729	2775.1723	969.6	70.7
1004.093	2776.3639	952.7	70.05
1004.2131	2777.5548	958.35	72.45
1004.3331	2778.745	954.6	71.8
1004.4531	2779.9346	952.15	67.35
1004.5731	2781.1235	954.4	67.55
1004.693	2782.3117	954.95	71.55
1004.8129	2783.4992	952.15	69.7
1004.9328	2784.6861	953.65	70.95
1005.0526	2785.8723	953.1	67.95
1005.1723	2787.0579	955.95	74
1005.2921	2788.2428	953.75	70.6
1005.4118	2789.427	957.05	73.55
1005.5314	2790.6106	954.65	69.5
1005.651	2791.7935	957.45	72.65
1005.7706	2792.9757	957.85	74.3
1005.8902	2794.1573	960.7	75.5
1006.0097	2795.3382	962.65	78.2
1006.1291	2796.5184	955.7	73.8
1006.2485	2797.698	959.25	73.5
1006.3679	2798.8769	961.3	78.25
1006.4873	2800.0551	963.45	78.65
1006.6066	2801.2327	964.2	78.3
1006.7258	2802.4096	968.15	85.85
1006.8451	2803.5859	969.05	83.85
1006.9642	2804.7615	972	85.75
1007.0834	2805.9364	972.3	91.55
1007.2025	2807.1106	974.25	89
1007.3216	2808.2842	973.8	88.65
1007.4406	2809.4572	978.8	95.6
1007.5596	2810.6294	985.55	102.5
1007.6785	2811.801	984.35	102.3
1007.7975	2812.972	989.1	106.15
1007.9163	2814.1423	999.4	116.9
1008.0352	2815.3119	1003.25	118.5
1008.154	2816.4808	1008	126.95
1008.2727	2817.6491	1022.6	138.8
1008.3914	2818.8167	1029.2	147.05
1008.5101	2819.9837	1039.6	151.8
1008.6288	2821.15	1044.15	158.3
1008.7474	2822.3157	1059.2	177.85
1008.8659	2823.4807	1074.35	189.65
1008.9844	2824.645	1084.95	200.4
1009.1029	2825.8086	1098.1	216.7
1009.2214	2826.9716	1120.6	238.15
1009.3398	2828.134	1127.15	244.8
1009.4581	2829.2957	1146.3	264.85
1009.5764	2830.4567	1149.15	267.05
1009.6947	2831.617	1162.55	279.55
1009.813	2832.7767	1164.85	282.15
1009.9312	2833.9358	1160.6	277.3
1010.0493	2835.0941	1161.5	276.3
1010.1675	2836.2519	1154.75	270.15
1010.2855	2837.4089	1152.15	269
1010.4036	2838.5653	1142.85	262.1
1010.5216	2839.7211	1136.15	254.65
1010.6396	2840.8761	1134.75	252.35
1010.7575	2842.0306	1129.3	249.55
1010.8754	2843.1843	1133.35	253.75
1010.9932	2844.3374	1135.75	252.95
1011.111	2845.4899	1145.25	260.5
1011.2288	2846.6417	1148.2	267
1011.3465	2847.7928	1160.75	279
1011.4642	2848.9433	1164.95	282.55
1011.5818	2850.0931	1174	291.65
1011.6995	2851.2422	1176.1	290.8
1011.817	2852.3907	1178.35	296.05
1011.9345	2853.5385	1191.4	306.05
1012.052	2854.6857	1220.4	312.65
1012.1695	2855.8323	1197.6	315.5
1012.2869	2856.9781	1209.35	326.4
1012.4042	2858.1233	1209.3	327.45
1012.5216	2859.2679	1227.7	343.4
1012.6389	2860.4118	1231.85	350.25
1012.7561	2861.555	1243.8	357
1012.8733	2862.6976	1252	367.2
1012.9905	2863.8395	1256.45	375.9
1013.1076	2864.9808	1257.25	374.3
1013.2247	2866.1214	1257.75	376.4
1013.3417	2867.2614	1260.65	378.95
1013.4587	2868.4007	1264.3	380
1013.5757	2869.5393	1276	394.35
1013.6926	2870.6773	1276.5	391.6
1013.8095	2871.8146	1278.5	391.7
1013.9263	2872.9513	1278.55	393.15
1014.0431	2874.0874	1280.65	397.85
1014.1599	2875.2227	1281.35	397.6
1014.2766	2876.3574	1281.5	400.5
1014.3933	2877.4915	1283.55	402.25
1014.51	2878.6249	1282.7	401.45
1014.6266	2879.7577	1282.35	397.4
1014.7431	2880.8898	1290.2	397.45
1014.8596	2882.0212	1284.75	403.85
1014.9761	2883.152	1286.9	404.6
1015.0925	2884.2821	1274.05	393.5
1015.2089	2885.4116	1289.2	405
1015.3253	2886.5405	1286.9	403.6
1015.4416	2887.6686	1295.35	411.1
1015.5579	2888.7962	1288.65	407.35
1015.6741	2889.923	1294.1	412.65
1015.7903	2891.0493	1291.65	408.9
1015.9065	2892.1748	1295.8	415.35
1016.0226	2893.2997	1297.9	415.4
1016.1387	2894.424	1305.1	425.45
1016.2547	2895.5476	1296.9	415.7
1016.3707	2896.6706	1298.35	416.2
1016.4866	2897.7929	1307.05	424.5
1016.6025	2898.9145	1304.15	421.1
1016.7184	2900.0355	1303.55	419.2
1016.8342	2901.1559	1308.25	424.45
1016.95	2902.2756	1318.85	432.1
1017.0658	2903.3946	1310.7	430.2
1017.1815	2904.513	1321.55	435.9
1017.2971	2905.6308	1321.2	438.5
1017.4127	2906.7479	1323.35	439.4
1017.5283	2907.8643	1323.7	441.9
1017.6439	2908.9801	1322.9	439.1
1017.7594	2910.0953	1326.05	445
1017.8748	2911.2098	1325.65	441.2
1017.9902	2912.3236	1333.2	442.6
1018.1056	2913.4368	1327.05	441.95
1018.2209	2914.5494	1316.95	435.1
1018.3362	2915.6613	1316.9	428.15
1018.4515	2916.7725	1312.6	430.4
1018.5667	2917.8831	1297.85	416.35
1018.6819	2918.9931	1302.45	418.55
1018.797	2920.1024	1293.65	410.9
1018.9121	2921.211	1284.6	401.4
1019.0271	2922.319	1279.35	395.65
1019.1421	2923.4264	1278.9	398.55
1019.2571	2924.5331	1280.3	398.45
1019.372	2925.6391	1281	398.7
1019.4869	2926.7445	1278.75	397.7
1019.6017	2927.8493	1276.35	393.2
1019.7165	2928.9534	1278.75	395.8
1019.8313	2930.0569	1284.85	401.15
1019.946	2931.1597	1285.9	402.85
1020.0606	2932.2619	1287.05	406.65
1020.1753	2933.3634	1294.95	410.4
1020.2899	2934.4643	1299.1	410.25
1020.4044	2935.5645	1297	407.8
1020.5189	2936.6641	1299.3	413.65
1020.6334	2937.763	1288.55	410
1020.7478	2938.8613	1289.25	405.15
1020.8622	2939.959	1286.05	399.25
1020.9765	2941.056	1283.05	400.1
1021.0908	2942.1523	1265.45	384
1021.2051	2943.248	1245.7	363.9
1021.3193	2944.3431	1223.65	341.1
1021.4334	2945.4375	1209.3	329.2
1021.5476	2946.5313	1193.9	313.85
1021.6617	2947.6244	1179.35	300.05
1021.7757	2948.7169	1162.25	279.65
1021.8897	2949.8087	1143.3	262.55
1022.0037	2950.8999	1132.2	250
1022.1176	2951.9904	1116.9	234.65
1022.2315	2953.0803	1107.05	224.3
1022.3453	2954.1696	1094.1	213.95
1022.4591	2955.2582	1090.4	208.95
1022.5728	2956.3462	1080.35	198.3
1022.6865	2957.4335	1075.15	193.55
1022.8002	2958.5202	1074.35	189.95
1022.9138	2959.6062	1067.45	188.55
1023.0274	2960.6916	1070.2	189.9
1023.141	2961.7764	1061.6	180.8
1023.2545	2962.8605	1060.55	179.45
1023.3679	2963.9439	1061.95	181.5
1023.4813	2965.0267	1058.8	173.6
1023.5947	2966.1089	1080.5	178.3
1023.708	2967.1905	1054.1	172.15
1023.8213	2968.2714	1056.7	174.65
1023.9346	2969.3516	1051.2	170.7
1024.0478	2970.4312	1065.35	176.9
1024.1609	2971.5102	1053.55	170.6
1024.274	2972.5885	1054.65	174.35
1024.3871	2973.6662	1064.45	176.3
1024.5002	2974.7432	1058.45	177.65
1024.6132	2975.8196	1062.25	179.9
1024.7261	2976.8954	1060.8	180
1024.839	2977.9705	1058.5	174.65
1024.9519	2979.045	1054.3	174.1
1025.0647	2980.1188	1054.1	173
1025.1775	2981.192	1051.3	170.3
1025.2902	2982.2645	1049.75	166.15
1025.4029	2983.3364	1048	167.5
1025.5156	2984.4077	1041.35	159
1025.6282	2985.4783	1046.4	160.25
1025.7407	2986.5483	1038.3	157.6
1025.8532	2987.6177	1026.4	145.9
1025.9657	2988.6864	1020.1	138.6
1026.0782	2989.7545	1019.65	139.9
1026.1906	2990.8219	1008.3	128.35
1026.3029	2991.8887	1008.55	126.45
1026.4152	2992.9548	1000.3	117.4
1026.5275	2994.0204	994.85	114.5
1026.6397	2995.0852	988.25	108.85
1026.7519	2996.1495	986.8	105.45
1026.864	2997.2131	975.85	95.65
1026.9761	2998.276	976.1	96.5
1027.0882	2999.3383	970.2	86.2
1027.2002	3000.4	968.75	87.45
1027.3122	3001.4611	961.95	78.95
1027.4241	3002.5215	962.5	81
1027.536	3003.5812	959.7	78.8
1027.6478	3004.6404	951.9	70.9
1027.7596	3005.6989	955.35	75.3
1027.8714	3006.7567	950.85	70.25
1027.9831	3007.8139	981.65	69.4
1028.0947	3008.8705	947.5	67.05
1028.2064	3009.9264	950.8	66.1
1028.3179	3010.9818	945	65
1028.4295	3012.0364	944.65	63.3
1028.541	3013.0905	943.1	61.1
1028.6524	3014.1439	942.35	61.9
1028.7638	3015.1966	937.95	56.95
1028.8752	3016.2487	939.95	60.1
1028.9865	3017.3002	946.35	61.15
1029.0978	3018.3511	938.55	60.4
1029.209	3019.4013	936.85	56.85
1029.3202	3020.4509	938.5	57.15
1029.4314	3021.4998	935.9	55.7
1029.5425	3022.5481	936.4	55.15
1029.6535	3023.5958	937.35	55.2
1029.7645	3024.6428	936	53.4
1029.8755	3025.6892	933.5	51.85
1029.9864	3026.735	935.25	54.2
1030.0973	3027.7802	933.75	52.75
1030.2082	3028.8247	936.3	56
1030.319	3029.8685	936.6	56.85
1030.4297	3030.9118	934.6	51.3
1030.5404	3031.9544	933.1	55.65
1030.6511	3032.9963	936.4	56.9
1030.7617	3034.0376	934.6	55.05
1030.8723	3035.0783	934.55	51.35
1030.9829	3036.1184	933.15	49.6
1031.0934	3037.1578	934	54.6
1031.2038	3038.1966	935.9	53.15
1031.3142	3039.2348	934.5	54.6
1031.4246	3040.2723	947.2	57.55
1031.5349	3041.3092	934	53.3
1031.6452	3042.3455	933.65	52.35
1031.7554	3043.3811	935.5	52.45
1031.8656	3044.4161	937.45	55.95
1031.9758	3045.4505	935.9	57.65
1032.0859	3046.4842	934.45	51.6
1032.1959	3047.5173	933.5	56.2
1032.3059	3048.5498	932.7	52.7
1032.4159	3049.5816	936	54.1
1032.5258	3050.6128	935.35	53.5
1032.6357	3051.6434	936.5	53.85
1032.7455	3052.6734	934.8	52.4
1032.8553	3053.7027	934.4	53.25
1032.9651	3054.7314	933.65	51.6
1033.0748	3055.7594	936.15	56.95
1033.1845	3056.7868	935.05	53.7
1033.2941	3057.8136	935.75	55.5
1033.4037	3058.8398	934.1	54.35
1033.5132	3059.8653	935.35	53.8
1033.6227	3060.8902	936.15	54.75
1033.7321	3061.9145	935.45	54.95
1033.8415	3062.9381	934.15	51.3
1033.9509	3063.9612	953.7	58.75
1034.0602	3064.9835	937.1	57.1
1034.1694	3066.0053	938.15	56.95
1034.2787	3067.0264	936.5	55.15
1034.3878	3068.0469	937.4	55.05
1034.497	3069.0668	937.9	53.8
1034.6061	3070.086	934.2	53.6
1034.7151	3071.1046	931.55	49.8
1034.8241	3072.1226	931.9	50.1
1034.9331	3073.1399	933.15	52.65
1035.042	3074.1567	934.15	52.25
1035.1508	3075.1727	930.7	49.05
1035.2597	3076.1882	928.35	49.2
1035.3684	3077.203	928.25	46.6
1035.4772	3078.2173	928.7	46.5
1035.5859	3079.2308	929.45	46.55
1035.6945	3080.2438	926.65	44.9
1035.8031	3081.2561	925.65	45.4
1035.9117	3082.2678	919.9	40.8
1036.0202	3083.2789	923.3	43.2
1036.1286	3084.2893	921	41.6
1036.2371	3085.2991	919.5	38.85
1036.3454	3086.3083	924.15	40.2
1036.4538	3087.3169	920.85	39.75
1036.562	3088.3248	920.3	39
1036.6703	3089.3321	918.75	37.45
1036.7785	3090.3388	918.85	40.35
1036.8866	3091.3449	915.25	36.75
1036.9948	3092.3503	921.05	37.65
1037.1028	3093.3551	914.05	34.95
1037.2108	3094.3593	911.2	31.3
1037.3188	3095.3629	913.35	34.6
1037.4267	3096.3658	916.45	35.1
1037.5346	3097.3681	916.45	36.55
1037.6425	3098.3698	916	31.4
1037.7503	3099.3708	920.85	32.55
1037.858	3100.3713	912.95	32.7
1037.9657	3101.3711	911.3	30.85
1038.0734	3102.3702	1026.85	30.2
1038.181	3103.3688	911.4	29.4
1038.2886	3104.3667	910	31
1038.3961	3105.364	910.25	29.1
1038.5036	3106.3607	909.2	28.15
1038.611	3107.3568	909.95	28.5
1038.7184	3108.3522	910.05	30.85
1038.8257	3109.347	907.8	28.5
1038.933	3110.3412	910.65	28.25
1039.0403	3111.3348	906	25.35
1039.1475	3112.3277	907	26.75
1039.2547	3113.32	905.95	26.15
1039.3618	3114.3117	905.9	26.8
1039.4689	3115.3028	905	25.4
1039.5759	3116.2932	907.3	22.6
1039.6829	3117.2831	911	26.45
1039.7898	3118.2723	906.25	27.8
1039.8967	3119.2608	903.75	23
1040.0035	3120.2488	905.9	26.7
1040.1103	3121.2361	903.9	23.65
1040.2171	3122.2229	903.6	24.1
1040.3238	3123.209	902.45	21.45
1040.4305	3124.1944	902.85	25.05
1040.5371	3125.1793	907.15	26.8
1040.6437	3126.1635	901.55	23.95
1040.7502	3127.1471	901.9	21.55
1040.8567	3128.1301	900.8	20.65
1040.9631	3129.1125	901.3	20.3
1041.0695	3130.0942	901.8	23.6
1041.1759	3131.0753	908.85	19.55
1041.2822	3132.0558	902.3	18.65
1041.3884	3133.0357	900.3	17.3
1041.4946	3134.015	901.55	22.9
1041.6008	3134.9936	901.4	20
1041.7069	3135.9716	919.9	21.35
1041.813	3136.949	901.45	22.05
1041.919	3137.9258	917.65	18
1042.025	3138.902	905.3	18.6
1042.1309	3139.8775	897.75	18.15
1042.2368	3140.8524	898.9	17.75
1042.3427	3141.8267	899.95	17.4
1042.4485	3142.8004	899.2	16.6
1042.5542	3143.7735	906.35	22.5
1042.6599	3144.7459	902.5	20.55
1042.7656	3145.7178	900.25	20.05
1042.8712	3146.689	896.55	18
1042.9768	3147.6596	899.25	17.8
1043.0823	3148.6295	899.25	18.7
1043.1878	3149.5989	898.15	17.5
1043.2932	3150.5676	898.15	19.8
1043.3986	3151.5357	897.45	17.75
1043.5039	3152.5032	897.5	19.35
1043.6092	3153.4701	895.3	15
1043.7145	3154.4364	899.55	18.2
1043.8197	3155.402	894.05	14.8
1043.9248	3156.367	900.35	19
1044.03	3157.3315	933.4	17.45
1044.135	3158.2952	895.55	14.7
1044.24	3159.2584	894.2	15.35
1044.345	3160.221	898.9	17.9
1044.4499	3161.1829	898.65	18.6
1044.5548	3162.1442	895.75	15.4
1044.6596	3163.105	897.05	18.15
1044.7644	3164.065	897.05	15.45
1044.8692	3165.0245	897.9	15.85
1044.9739	3165.9834	894.2	16.7
1045.0785	3166.9416	895.2	15.9
1045.1831	3167.8993	893.95	11.9
1045.2877	3168.8563	896.5	15.25
1045.3922	3169.8127	897.2	19.6
1045.4966	3170.7684	894.95	13.8
1045.6011	3171.7236	895.1	13.65
1045.7054	3172.6782	896.05	14.4
1045.8098	3173.6321	894.45	14.55
1045.914	3174.5854	901.15	16.2
1046.0183	3175.5381	894.2	13.7
1046.1224	3176.4902	893.7	12.7
1046.2266	3177.4417	893.7	15.1
1046.3307	3178.3926	893.65	13.7
1046.4347	3179.3428	893.45	14.05
1046.5387	3180.2924	893.75	13.9
1046.6427	3181.2415	894.3	13.85
1046.7466	3182.1899	895.7	14.95
1046.8504	3183.1377	894.05	13.9
1046.9542	3184.0848	896.5	14.45
1047.058	3185.0314	894.75	14.55
1047.1617	3185.9773	895.2	13.95
1047.2654	3186.9227	894.7	14.4
1047.369	3187.8674	892.5	15.15
1047.4726	3188.8115	898	12.5
1047.5761	3189.755	892.1	11.4
1047.6796	3190.6979	894.4	14.6
1047.783	3191.6402	892.65	12.95
1047.8864	3192.5818	892.9	13
1047.9898	3193.5229	904.05	12.05
1048.0931	3194.4633	891.95	13
1048.1963	3195.4031	892.85	14.35
1048.2995	3196.3423	891.6	11.75
1048.4027	3197.2809	890.15	10.95
1048.5058	3198.2189	893.05	11.4
1048.6089	3199.1563	909.9	11.35
1048.7119	3200.0931	890.6	11.95
1048.8148	3201.0292	889.8	10.45
1048.9178	3201.9648	891.15	12.6
1049.0206	3202.8997	893.85	12
1049.1235	3203.834	891.6	13.05
1049.2262	3204.7677	892.85	11.15
1049.329	3205.7008	895.9	15.3
1049.4317	3206.6333	889.6	11.85
1049.5343	3207.5652	892.2	9.55
1049.6369	3208.4964	890.2	10.45
1049.7394	3209.4271	892.05	14.2
1049.8419	3210.3571	889.15	9.6
1049.9444	3211.2865	893.9	14.4
1050.0468	3212.2154	892.65	11.15
1050.1491	3213.1436	896.1	11.75
1050.2514	3214.0712	899.3	12.95
1050.3537	3214.9982	890.45	11.9
1050.4559	3215.9246	888.75	9.05
1050.5581	3216.8503	890.05	10.05
1050.6602	3217.7755	890.75	10.45
1050.7623	3218.7001	890.95	13.1
1050.8643	3219.624	890.15	11.45
1050.9663	3220.5473	893.35	14.9
1051.0682	3221.4701	892.8	12.85
1051.1701	3222.3922	891.45	9.65
1051.2719	3223.3137	890.9	11.5
1051.3737	3224.2346	889.1	10.75
1051.4754	3225.1549	886.75	6.7
1051.5771	3226.0746	889.85	9.8
1051.6788	3226.9937	890	10.4
1051.7804	3227.9121	889	10.6
1051.8819	3228.83	888.75	9.05
1051.9834	3229.7473	888.7	8.6
1052.0849	3230.6639	889.4	10.35
1052.1863	3231.5799	887.6	9.7
1052.2876	3232.4954	890.1	10.45
1052.3889	3233.4102	890.25	11.7
1052.4902	3234.3244	889.25	9.35
1052.5914	3235.238	890.05	12.1
1052.6926	3236.151	914.4	9.8
1052.7937	3237.0634	888.2	9.25
1052.8948	3237.9752	890.9	10.15
1052.9958	3238.8864	886.95	6.65
1053.0968	3239.797	887.85	7.15
1053.1977	3240.7069	889.25	8.45
1053.2986	3241.6163	890.7	7.75
1053.3994	3242.5251	890.5	12.65
1053.5002	3243.4332	887.4	6.2
1053.6009	3244.3408	891.4	11.55
1053.7016	3245.2477	889.7	10.45
1053.8022	3246.154	889.55	9.75
1053.9028	3247.0598	888.7	8.45
1054.0034	3247.9649	887.15	5.3
1054.1039	3248.8694	889.35	8.9
1054.2043	3249.7733	888.45	8.3
1054.3047	3250.6766	888.15	8.45
1054.4051	3251.5793	889.45	9.9
1054.5054	3252.4814	887.2	7.2
1054.6056	3253.3829	885.9	6.8
1054.7058	3254.2838	886.8	7.35
1054.806	3255.1841	884.95	7.45
1054.9061	3256.0838	889.9	9.35
1055.0061	3256.9829	885.15	7.6
1055.1062	3257.8814	889.45	7.05
1055.2061	3258.7792	888.05	6.9
1055.306	3259.6765	886.8	5.4
1055.4059	3260.5731	885.45	5.65
1055.5057	3261.4692	887.4	6.1
1055.6055	3262.3647	886.3	6.45
1055.7052	3263.2595	886.6	7.4
1055.8049	3264.1538	885.9	6.3
1055.9045	3265.0474	888.4	7.1
1056.0041	3265.9404	886.9	9.1
1056.1036	3266.8329	885.95	7.05
1056.2031	3267.7247	894.75	5.6
1056.3025	3268.616	883.85	6
1056.4019	3269.5066	885.9	5.65
1056.5013	3270.3966	885.05	2.8
1056.6005	3271.286	882.25	4.1
