Software Version:	3.9.2.0
Unit SN:	10000200
Spectrometer SN:	6960
Date:	3/8/2024 11:35:42 AM
Data Line Index:	25
Spectral Points:	2048
Integration time (ms):	125
Averages:	20
Delay (ms):	30000
Sequence Number:	1
Processing:	dark subtract
Laser Power (mW):	305
Laser Current (mA):	822
Laser Diode Temp (C):	25
Laser Case Temp (C):	25.1
System Temp (C):	25.1
Spectrometer Temp (C):	23
CCD Temp (C):	0.007
Secondary Temp (C):	20.013
Heatsink Temp (C):	19.892
CCDPCB Temp (C):	33.528
SecondaryPCB Temp (C):	27.503

Wavelength	RamanShift	Raw Counts	Dark Subtracted
787.061	30.1047	415.5	5.25
787.2016	32.3739	413.7	5.6
787.3422	34.6426	416.2	6.65
787.4828	36.9109	416.45	7.1
787.6235	39.1787	422.5	7.1
787.7642	41.4461	424.85	7.2
787.9049	43.7131	431.3	10.85
788.0456	45.9796	436.1	12.05
788.1863	48.2456	438.8	9.8
788.3271	50.5112	442.4	10.25
788.4679	52.7764	446.25	9.95
788.6087	55.0411	450.3	9.95
788.7496	57.3054	458	13.55
788.8904	59.5692	460.05	13.95
789.0313	61.8326	464.1	13.8
789.1722	64.0955	468.45	16.55
789.3132	66.3579	474.25	16.35
789.4541	68.6199	481.5	21.35
789.5951	70.8815	491.35	25.95
789.7361	73.1426	511.85	42.9
789.8771	75.4032	545.15	71.95
790.0181	77.6634	625.9	148.65
790.1592	79.9231	799.15	320.35
790.3003	82.1824	1172.4	686.95
790.4414	84.4412	1774.05	1275.4
790.5825	86.6995	2539.05	2028.45
790.7237	88.9574	3265.6	2745.55
790.8648	91.2148	3747.1	3217.05
791.006	93.4717	3945.8	3410.75
791.1472	95.7282	3975.55	3436.9
791.2885	97.9842	3971.6	3430.5
791.4297	100.2398	3917.65	3375.1
791.571	102.4949	3861.65	3317.95
791.7123	104.7495	3805.5	3254.75
791.8536	107.0036	3747	3197.3
791.9949	109.2573	3688.95	3138.35
792.1363	111.5105	3593.65	3039
792.2777	113.7632	3504.9	2951.95
792.4191	116.0154	3389	2825.55
792.5605	118.2672	3279.1	2722.35
792.7019	120.5185	3155.3	2595.6
792.8434	122.7693	3055.25	2493.15
792.9849	125.0197	2968.7	2401.25
793.1264	127.2696	2891.85	2319.55
793.2679	129.519	2844.2	2269.2
793.4094	131.7679	2820.8	2244.8
793.551	134.0163	2799.95	2221.05
793.6926	136.2642	2801.05	2217.55
793.8342	138.5117	2780	2193.9
793.9758	140.7587	2739.65	2154.85
794.1175	143.0052	2693.3	2102.8
794.2591	145.2512	2632.4	2044.2
794.4008	147.4967	2593.95	2001.75
794.5425	149.7417	2547.15	1952.3
794.6842	151.9863	2515.1	1918.85
794.826	154.2304	2508.9	1905.5
794.9677	156.4739	2503.1	1895.6
795.1095	158.717	2520.5	1911.2
795.2513	160.9596	2545.15	1933.85
795.3931	163.2017	2567.35	1952.4
795.535	165.4433	2574.5	1958.25
795.6768	167.6844	2565.8	1947.3
795.8187	169.925	2536.55	1913.4
795.9606	172.1651	2475	1849.6
796.1025	174.4047	2430.5	1801.3
796.2445	176.6439	2395.15	1762.55
796.3864	178.8825	2374.45	1739.6
796.5284	181.1206	2352.55	1716.6
796.6704	183.3582	2336.15	1695.35
796.8124	185.5954	2330.6	1687.8
796.9544	187.832	2332.95	1688.75
797.0965	190.0681	2345.7	1696.05
797.2386	192.3037	2345.8	1692
797.3806	194.5388	2338.1	1682.9
797.5228	196.7734	2355.5	1699.6
797.6649	199.0075	2381.45	1721.45
797.807	201.2411	2397.15	1737
797.9492	203.4742	2414.5	1755.2
798.0914	205.7068	2458.55	1790.8
798.2336	207.9389	2480.45	1814.05
798.3758	210.1704	2482.9	1821.3
798.518	212.4015	2490.15	1836
798.6603	214.632	2480.25	1834.55
798.8025	216.862	2485.15	1839.85
798.9448	219.0915	2489.45	1841.75
799.0871	221.3205	2509.05	1858.75
799.2294	223.549	2515.9	1871.7
799.3718	225.777	2515.9	1870.45
799.5141	228.0044	2500.25	1846.7
799.6565	230.2314	2504.25	1852.9
799.7989	232.4578	2493.55	1838.4
799.9413	234.6837	2480.85	1811.05
800.0837	236.909	2456.85	1788.35
800.2262	239.1339	2467.9	1773.45
800.3687	241.3582	2458.1	1780.1
800.5111	243.582	2477.8	1771.3
800.6536	245.8053	2472.05	1775.15
800.7961	248.0281	2481.55	1790.9
800.9387	250.2503	2483.35	1789.8
801.0812	252.472	2490.8	1793.7
801.2238	254.6932	2505.3	1810.3
801.3664	256.9139	2508.15	1810.05
801.509	259.134	2528.3	1825.6
801.6516	261.3536	2552.35	1852.55
801.7942	263.5727	2603.25	1901.15
801.9369	265.7912	2651.7	1954.3
802.0795	268.0092	2699.7	1997
802.2222	270.2267	2764.1	2061.05
802.3649	272.4436	2826.7	2123.9
802.5076	274.6601	2867.15	2152.4
802.6504	276.8759	2884.55	2175.45
802.7931	279.0913	2904.65	2194.95
802.9359	281.3061	2914.75	2203.8
803.0787	283.5204	2944.95	2229.65
803.2215	285.7341	2971.25	2252.95
803.3643	287.9473	3003.55	2284.95
803.5071	290.16	2993.95	2271.55
803.6499	292.3721	2946.25	2232.3
803.7928	294.5837	2917.35	2196.85
803.9357	296.7947	2875.45	2158.2
804.0786	299.0052	2859.2	2140.85
804.2215	301.2152	2848.7	2127.95
804.3644	303.4246	2833.15	2115.05
804.5074	305.6334	2803.4	2083.25
804.6503	307.8418	2799.55	2076.65
804.7933	310.0495	2764.6	2042.6
804.9363	312.2568	2741.65	2016.8
805.0793	314.4635	2684.65	1957.85
805.2223	316.6696	2642.9	1915
805.3653	318.8752	2587.55	1848.2
805.5084	321.0802	2552.8	1824.2
805.6514	323.2847	2548.4	1817
805.7945	325.4887	2547.75	1815.15
805.9376	327.692	2575.85	1842.3
806.0807	329.8949	2623.1	1886.35
806.2238	332.0972	2664.8	1924.65
806.367	334.2989	2704.95	1964.15
806.5101	336.5001	2692.9	1949.85
806.6533	338.7007	2655.4	1915.2
806.7965	340.9008	2617.2	1871.5
806.9397	343.1003	2552.35	1808.7
807.0829	345.2992	2503.05	1755.95
807.2261	347.4976	2460.9	1713.35
807.3693	349.6955	2416.3	1666.15
807.5126	351.8927	2412	1660.3
807.6559	354.0895	2393.75	1633
807.7991	356.2856	2384.55	1629.25
807.9424	358.4812	2372	1616.2
808.0857	360.6763	2360.15	1602.7
808.2291	362.8707	2361.7	1603.7
808.3724	365.0646	2369.3	1608
808.5158	367.258	2387.4	1624.45
808.6591	369.4508	2395.6	1629.55
808.8025	371.643	2424.4	1658.25
808.9459	373.8346	2460	1692.35
809.0893	376.0257	2483.8	1711
809.2327	378.2162	2506.9	1736.5
809.3762	380.4062	2525.8	1753.8
809.5196	382.5956	2507.8	1740.95
809.6631	384.7844	2454.1	1687.15
809.8066	386.9726	2409	1645.4
809.9501	389.1603	2375.3	1612.4
810.0936	391.3474	2390.55	1592.8
810.2371	393.5339	2375.3	1609.55
810.3806	395.7199	2365.7	1604.5
810.5241	397.9052	2406.65	1644.55
810.6677	400.09	2447.8	1683.4
810.8113	402.2743	2494.9	1730.4
810.9548	404.4579	2526.65	1761.15
811.0984	406.641	2592.05	1820.8
811.2421	408.8235	2634.35	1863.95
811.3857	411.0054	2687.85	1914.15
811.5293	413.1868	2737.95	1962.5
811.673	415.3675	2788.85	2009.05
811.8166	417.5477	2797.15	2017.1
811.9603	419.7273	2735.75	1951.85
812.104	421.9064	2655.6	1866.65
812.2477	424.0848	2586.5	1801.25
812.3914	426.2627	2519.9	1738.5
812.5351	428.4399	2447.75	1663.95
812.6788	430.6166	2386.85	1599.25
812.8226	432.7928	2348.1	1556.8
812.9663	434.9683	2304.3	1513.45
813.1101	437.1432	2276.75	1486.85
813.2539	439.3176	2251.75	1462.25
813.3977	441.4914	2231.9	1442.15
813.5415	443.6645	2229.2	1438.05
813.6853	445.8371	2230.9	1440.75
813.8291	448.0091	2246.85	1454.75
813.973	450.1806	2241.3	1447.1
814.1168	452.3514	2233.25	1439.7
814.2607	454.5216	2237.5	1434.15
814.4046	456.6913	2224	1426.15
814.5485	458.8603	2235.45	1441.65
814.6924	461.0288	2242.4	1449.55
814.8363	463.1967	2234.05	1439.05
814.9802	465.3639	2233.5	1436.25
815.1241	467.5306	2228.1	1431.1
815.2681	469.6967	2224.05	1427.35
815.412	471.8622	2220.8	1424.65
815.556	474.0271	2213.15	1415.15
815.7	476.1914	2218.55	1418.4
815.844	478.3551	2199.8	1399.85
815.988	480.5182	2209.1	1409.35
816.132	482.6807	2226	1425.45
816.276	484.8426	2225.9	1426.55
816.4201	487.0039	2264.75	1467.35
816.5641	489.1647	2330.15	1527.65
816.7082	491.3248	2372.1	1570.45
816.8522	493.4843	2400.9	1601.05
816.9963	495.6432	2387.6	1587.75
817.1404	497.8015	2345.75	1538.2
817.2845	499.9592	2318.1	1512.65
817.4286	502.1163	2251.15	1444.9
817.5727	504.2728	2203.2	1395.1
817.7168	506.4287	2177.45	1372.5
817.861	508.5839	2171.85	1365.5
818.0051	510.7386	2163.75	1356.25
818.1493	512.8927	2172.4	1356.85
818.2935	515.0461	2168.55	1358.4
818.4377	517.199	2183	1372
818.5818	519.3512	2232.3	1419.95
818.726	521.5029	2307.5	1488.2
818.8703	523.6539	2368.65	1556.4
819.0145	525.8043	2381.15	1566.95
819.1587	527.9541	2317.55	1500.65
819.303	530.1033	2244.1	1427.4
819.4472	532.2519	2192.95	1375.35
819.5915	534.3999	2178.55	1359.1
819.7357	536.5472	2166.1	1349
819.88	538.694	2158.7	1341.2
820.0243	540.8401	2176.75	1358.95
820.1686	542.9856	2201.55	1377.35
820.3129	545.1305	2210.95	1388.75
820.4572	547.2748	2221.8	1396.25
820.6016	549.4185	2231.2	1403.6
820.7459	551.5615	2254.2	1431.65
820.8902	553.704	2264.15	1440.45
821.0346	555.8458	2287.7	1466.35
821.1789	557.987	2303.25	1481.6
821.3233	560.1276	2341.45	1518.75
821.4677	562.2675	2396.05	1574.1
821.6121	564.4069	2471.45	1653.1
821.7565	566.5456	2507.25	1689.1
821.9009	568.6837	2491.7	1671.05
822.0453	570.8212	2402.1	1580.95
822.1897	572.958	2316.55	1493.95
822.3342	575.0942	2266.8	1446.1
822.4786	577.2299	2221.35	1398.9
822.6231	579.3648	2200.15	1381.45
822.7675	581.4992	2168.55	1350
822.912	583.6329	2187.1	1366.9
823.0565	585.766	2222.85	1402.35
823.201	587.8985	2273.35	1451
823.3454	590.0304	2331.95	1496.45
823.4899	592.1616	2364.6	1537.8
823.6345	594.2922	2356.9	1529.75
823.779	596.4222	2312.8	1483.1
823.9235	598.5515	2248.55	1414.2
824.068	600.6802	2192.05	1362.2
824.2126	602.8083	2152.35	1323.2
824.3571	604.9358	2129.2	1298.35
824.5017	607.0626	2131.95	1300.7
824.6462	609.1888	2138.75	1305.15
824.7908	611.3144	2163.6	1330.95
824.9354	613.4393	2212.15	1379.45
825.08	615.5636	2270.15	1434.85
825.2246	617.6873	2321.85	1488.65
825.3692	619.8103	2347.9	1512.45
825.5138	621.9327	2345.8	1509.75
825.6584	624.0544	2313.05	1479.15
825.803	626.1756	2242.65	1411.15
825.9477	628.2961	2192	1353.7
826.0923	630.4159	2167.05	1328.2
826.237	632.5351	2162	1326.35
826.3816	634.6537	2147.55	1308.85
826.5263	636.7716	2141.45	1301.8
826.6709	638.8889	2129.75	1288.6
826.8156	641.0056	2141.35	1302.4
826.9603	643.1216	2147.25	1306.55
827.105	645.237	2160.05	1316.9
827.2497	647.3518	2132.6	1294.05
827.3944	649.4659	2098.85	1261.45
827.5391	651.5793	2091.45	1254.2
827.6838	653.6922	2066.7	1228
827.8285	655.8043	2055.95	1215.6
827.9733	657.9159	2049.3	1205.9
828.118	660.0268	2044.6	1200.15
828.2627	662.137	2032.4	1189.15
828.4075	664.2466	2037	1193.9
828.5522	666.3556	2031.5	1189.3
828.697	668.4639	2033.05	1186.15
828.8418	670.5716	2018.75	1177.35
828.9865	672.6786	2010.6	1166.55
829.1313	674.785	2006.55	1161.15
829.2761	676.8907	1991.55	1147.35
829.4209	678.9958	1996.05	1155.9
829.5657	681.1002	2006.65	1162.5
829.7105	683.204	2006.3	1157.35
829.8553	685.3072	2011.15	1162.2
830.0001	687.4097	1995	1147.25
830.1449	689.5115	1999.25	1148.75
830.2898	691.6127	1992.15	1145.15
830.4346	693.7132	1992.6	1145.75
830.5794	695.8131	1998.75	1138.7
830.7243	697.9123	2006.95	1156.55
830.8691	700.0109	1997.45	1145.35
831.014	702.1089	2000.95	1151.8
831.1588	704.2061	2023.1	1173.85
831.3037	706.3028	2053.05	1201.85
831.4486	708.3987	2080.45	1231
831.5935	710.4941	2079.7	1228.55
831.7383	712.5887	2089.65	1238.15
831.8832	714.6827	2098.95	1244.15
832.0281	716.7761	2083.85	1231.75
832.173	718.8688	2082.75	1230.4
832.3179	720.9608	2093.35	1237.6
832.4628	723.0522	2109.15	1250.9
832.6077	725.1429	2114.75	1257.5
832.7527	727.233	2167.45	1314
832.8976	729.3224	2225.8	1374.25
833.0425	731.4112	2294.9	1440.5
833.1874	733.4993	2302.6	1447.75
833.3324	735.5867	2239.7	1383.85
833.4773	737.6735	2167.15	1310.25
833.6222	739.7596	2099.15	1243.9
833.7672	741.845	2073.1	1215.45
833.9122	743.9298	2057.3	1198.15
834.0571	746.014	2076.6	1221.75
834.2021	748.0974	2084.5	1222.2
834.347	750.1802	2081.25	1222.65
834.492	752.2624	2074.5	1217.25
834.637	754.3439	2062.3	1202.15
834.782	756.4247	2066.85	1199.8
834.9269	758.5048	2062.3	1205.1
835.0719	760.5843	2081.55	1222.65
835.2169	762.6631	2109.6	1249.8
835.3619	764.7413	2179.15	1322.75
835.5069	766.8188	2267.6	1407.4
835.6519	768.8956	2360.15	1499.25
835.7969	770.9718	2423.95	1565.35
835.9419	773.0473	2410.85	1551.25
836.0869	775.1221	2374.9	1514
836.232	777.1962	2360	1499.5
836.377	779.2697	2424.9	1563.6
836.522	781.3426	2555.35	1677.35
836.667	783.4147	2599.85	1738.55
836.8121	785.4862	2592.5	1731.05
836.9571	787.557	2500.15	1636.35
837.1021	789.6271	2365	1502.65
837.2472	791.6966	2217.2	1354.15
837.3922	793.7654	2112.75	1250.95
837.5373	795.8335	2054.85	1193.8
837.6823	797.901	2021.9	1159.2
837.8274	799.9678	2010.25	1142.45
837.9724	802.0339	2002.85	1141.15
838.1175	804.0993	2020.95	1148.3
838.2626	806.1641	2007.15	1141.35
838.4076	808.2282	1982.5	1121.55
838.5527	810.2916	1967.1	1098.65
838.6978	812.3544	1945.2	1083.15
838.8428	814.4164	1946	1081.9
838.9879	816.4778	1959.7	1091.95
839.133	818.5385	1973.05	1110.75
839.2781	820.5986	1989	1124.9
839.4232	822.658	2053.1	1187.2
839.5682	824.7166	2126.75	1261
839.7133	826.7747	2220.25	1355.75
839.8584	828.832	2306.05	1438.3
840.0035	830.8886	2372.5	1504.35
840.1486	832.9446	2393.85	1526.8
840.2937	834.9999	2351.5	1484.15
840.4388	837.0545	2275.1	1405.8
840.5839	839.1085	2184.75	1317.1
840.729	841.1618	2108.95	1238
840.8741	843.2143	2043.6	1175.35
841.0192	845.2662	2008.6	1140.55
841.1643	847.3175	1999.8	1131.35
841.3095	849.368	1993.25	1124.9
841.4546	851.4179	1976.6	1110.5
841.5997	853.467	1978.55	1111.75
841.7448	855.5155	1980	1112.3
841.8899	857.5633	1995.1	1126.25
842.0351	859.6105	1976.9	1106.25
842.1802	861.6569	1974	1105.5
842.3253	863.7027	1960.65	1088.5
842.4704	865.7478	1955.65	1087
842.6156	867.7922	1934.9	1063.7
842.7607	869.8359	1931.55	1060.25
842.9058	871.8789	1924.4	1054.85
843.0509	873.9212	1956.15	1056.5
843.1961	875.9629	1928.05	1057.75
843.3412	878.0039	1941.2	1069.6
843.4863	880.0441	1956.5	1087.45
843.6315	882.0837	1973.65	1099.5
843.7766	884.1226	2002.75	1130.25
843.9218	886.1609	2025.7	1158.6
844.0669	888.1984	2085.85	1215.5
844.212	890.2352	2142.15	1273.2
844.3572	892.2714	2167	1293.6
844.5023	894.3069	2127.9	1256
844.6475	896.3416	2065.15	1191.85
844.7926	898.3757	2023.15	1148.45
844.9377	900.4091	1988.5	1115.85
845.0829	902.4418	2007.45	1130.2
845.228	904.4739	2021.65	1144.95
845.3732	906.5052	2039.9	1168.5
845.5183	908.5358	2030.9	1156.1
845.6635	910.5658	2009.75	1137.2
845.8086	912.595	1967.7	1096.15
845.9538	914.6236	1926.15	1051.75
846.0989	916.6515	1902.9	1029.2
846.2441	918.6786	1879.45	1001.3
846.3892	920.7051	1870.4	995.65
846.5344	922.7309	1870.75	997.2
846.6795	924.756	1869.9	998.8
846.8246	926.7804	1888	1013.1
846.9698	928.8041	1892.6	1018.4
847.1149	930.8272	1908.6	1032.75
847.2601	932.8495	1916.45	1040.35
847.4052	934.8711	1932.4	1057.45
847.5504	936.892	1939.65	1064.85
847.6955	938.9123	1963.45	1087.95
847.8407	940.9318	1985.65	1108.25
847.9858	942.9506	1997.85	1123.65
848.131	944.9688	1985.65	1109.95
848.2761	946.9862	1957.8	1080.75
848.4213	949.003	1921.5	1045.7
848.5664	951.019	1906.5	1028.7
848.7115	953.0344	1880.45	1005.15
848.8567	955.0491	1872.25	991.9
849.0018	957.063	1846.7	969.85
849.147	959.0763	1859.9	985.1
849.2921	961.0888	1850.35	969.8
849.4373	963.1007	1858.6	982.75
849.5824	965.1119	1844.2	966.35
849.7275	967.1223	1845.4	972
849.8727	969.1321	1833.9	961.15
850.0178	971.1412	1831.9	955.2
850.1629	973.1495	1829.55	953.7
850.3081	975.1572	1855.15	943.25
850.4532	977.1641	1832.55	956.65
850.5983	979.1704	1831.45	951.7
850.7435	981.1759	1816.4	935.45
850.8886	983.1808	1818.4	939.3
851.0337	985.1849	1821.6	932.15
851.1788	987.1884	1811.1	931.55
851.324	989.1911	1813.3	933.15
851.4691	991.1932	1820.2	941.75
851.6142	993.1945	1824.1	949.55
851.7593	995.1951	1821.15	942.9
851.9045	997.1951	1818.65	933.15
852.0496	999.1943	1810.6	931.65
852.1947	1001.1928	1812.15	933.5
852.3398	1003.1906	1824.9	947.7
852.4849	1005.1877	1857.5	978.15
852.63	1007.1841	1871.35	992.4
852.7751	1009.1798	1893.3	1016.6
852.9202	1011.1748	1884.95	1006.4
853.0653	1013.1691	1861.2	981.6
853.2104	1015.1627	1819.7	940.4
853.3555	1017.1556	1780.85	898.9
853.5006	1019.1477	1774.05	896.1
853.6457	1021.1392	1756.75	877.3
853.7908	1023.1299	1754	878
853.9359	1025.12	1755.35	876.25
854.081	1027.1093	1748.5	876.1
854.2261	1029.0979	1771.9	899.2
854.3712	1031.0859	1789.05	915.2
854.5163	1033.0731	1809.35	932.35
854.6613	1035.0596	1806.9	927.8
854.8064	1037.0454	1796.35	917
854.9515	1039.0304	1778.8	899.2
855.0965	1041.0148	1754.95	873.2
855.2416	1042.9985	1738.35	858.25
855.3867	1044.9814	1732.05	851.2
855.5317	1046.9636	1729.5	849.2
855.6768	1048.9452	1734.35	856.95
855.8219	1050.926	1757.6	879.3
855.9669	1052.9061	1774.65	896.35
856.112	1054.8855	1774.2	895.35
856.257	1056.8642	1772.2	892.5
856.4021	1058.8421	1783.8	898.35
856.5471	1060.8194	1769.4	885.05
856.6921	1062.7959	1768.85	887.6
856.8372	1064.7717	1765.65	881.15
856.9822	1066.7469	1764.25	882.35
857.1272	1068.7213	1778.2	893.15
857.2723	1070.695	1791.6	912.7
857.4173	1072.6679	1810.3	928.65
857.5623	1074.6402	1822.65	939.8
857.7073	1076.6117	1836.95	951.35
857.8523	1078.5826	1803.8	921.4
857.9973	1080.5527	1775.8	892.05
858.1423	1082.5221	1740.8	859
858.2873	1084.4908	1712.3	829.05
858.4323	1086.4587	1698.6	814.15
858.5773	1088.426	1687.2	805.05
858.7223	1090.3925	1696.6	811.4
858.8673	1092.3584	1696.4	815.3
859.0123	1094.3235	1711.9	830.25
859.1573	1096.2879	1722.75	840.2
859.3022	1098.2515	1750	867.8
859.4472	1100.2145	1783.45	900.65
859.5922	1102.1767	1806.4	922.05
859.7371	1104.1382	1852.25	969.85
859.8821	1106.099	1910.95	1027.15
860.027	1108.0591	1964.4	1085.75
860.172	1110.0185	2011.65	1127.5
860.3169	1111.9771	2049.15	1169.85
860.4619	1113.9351	2097.3	1213.1
860.6068	1115.8923	2164.25	1281.05
860.7517	1117.8488	2182.15	1299.5
860.8967	1119.8045	2131.7	1247
861.0416	1121.7596	2040.8	1158.2
861.1865	1123.7139	1933.15	1051.1
861.3314	1125.6675	1877.6	997.05
861.4763	1127.6204	1877.3	996.15
861.6212	1129.5726	1894.1	1008.25
861.7661	1131.524	1888.3	1005.7
861.911	1133.4748	1848.25	964.25
862.0559	1135.4248	1790.7	905.9
862.2008	1137.3741	1724.8	841.65
862.3457	1139.3226	1709.5	822.75
862.4905	1141.2705	1707.25	823.6
862.6354	1143.2176	1716.85	826.1
862.7803	1145.164	1732.15	848.2
862.9251	1147.1097	1728.3	847.2
863.07	1149.0546	1706.1	820.5
863.2148	1150.9989	1673.55	788.2
863.3597	1152.9424	1657.5	771.05
863.5045	1154.8852	1642.7	756.95
863.6493	1156.8272	1630.85	749.3
863.7942	1158.7686	1642	751.1
863.939	1160.7092	1624.5	738.15
864.0838	1162.6491	1642.55	756.45
864.2286	1164.5883	1655.2	770.1
864.3734	1166.5267	1662.95	778.15
864.5182	1168.4644	1693.6	808.55
864.663	1170.4014	1729.2	843.8
864.8078	1172.3377	1770.85	887.5
864.9526	1174.2732	1822.05	936
865.0974	1176.2081	1913.15	1031.25
865.2421	1178.1421	2043	1154.25
865.3869	1180.0755	2168.75	1284.5
865.5317	1182.0082	2239.5	1356.9
865.6764	1183.9401	2211.35	1327.75
865.8212	1185.8713	2097.3	1217
865.9659	1187.8017	1976	1094.6
866.1106	1189.7315	1848.9	969.85
866.2554	1191.6605	1803.3	894.9
866.4001	1193.5888	1734.7	850.75
866.5448	1195.5163	1708.25	825.15
866.6895	1197.4432	1687.3	802.75
866.8342	1199.3693	1668.25	784
866.9789	1201.2947	1648.3	761.25
867.1236	1203.2193	1642.45	759.05
867.2683	1205.1432	1630.25	746.3
867.413	1207.0664	1638.1	755.55
867.5576	1208.9889	1637.35	751.55
867.7023	1210.9106	1639.45	752.6
867.847	1212.8316	1640.8	758.15
867.9916	1214.7519	1668	773.7
868.1363	1216.6715	1662.2	778.15
868.2809	1218.5903	1681.55	794.65
868.4255	1220.5084	1696.4	812.9
868.5701	1222.4257	1698.8	813.75
868.7148	1224.3424	1723.6	843.25
868.8594	1226.2583	1742.5	853.05
869.004	1228.1735	1780.4	895.1
869.1486	1230.0879	1810.85	923.8
869.2932	1232.0016	1852.1	966.4
869.4377	1233.9146	1897.5	1011.6
869.5823	1235.8269	1915.25	1029.45
869.7269	1237.7384	1916.85	1030.4
869.8715	1239.6492	1920.05	1038.7
870.016	1241.5592	1941.45	1056.8
870.1606	1243.4686	1990.2	1105.45
870.3051	1245.3772	2060.6	1174.8
870.4496	1247.285	2148.4	1261.65
870.5941	1249.1922	2222.65	1336.6
870.7387	1251.0986	2303.5	1416.6
870.8832	1253.0042	2377.45	1491.65
871.0277	1254.9092	2474.25	1589.5
871.1722	1256.8134	2558.6	1675.3
871.3167	1258.7169	2634.5	1749.7
871.4611	1260.6196	2681	1795.9
871.6056	1262.5216	2688.7	1800.9
871.7501	1264.4229	2675.2	1791.5
871.8945	1266.3234	2644.75	1757.2
872.039	1268.2232	2589.65	1701.45
872.1834	1270.1223	2530	1643
872.3278	1272.0207	2506.2	1617.75
872.4723	1273.9183	2491.4	1599.25
872.6167	1275.8151	2479.45	1593.4
872.7611	1277.7113	2527.35	1638.45
872.9055	1279.6067	2624.1	1738.8
873.0499	1281.5014	2753.65	1863.8
873.1943	1283.3953	2945.65	2058.65
873.3386	1285.2885	3135.7	2249.45
873.483	1287.181	3273.15	2386.6
873.6274	1289.0727	3337.25	2453.25
873.7717	1290.9637	3276.1	2389.95
873.9161	1292.854	3176.8	2291.9
874.0604	1294.7435	3053.95	2166.1
874.2047	1296.6323	2950.85	2064.3
874.349	1298.5204	2851.25	1960.15
874.4933	1300.4077	2764.95	1875.15
874.6376	1302.2943	2720.4	1834.5
874.7819	1304.1802	2682.15	1799.7
874.9262	1306.0653	2638.95	1749.45
875.0705	1307.9497	2618.95	1733.35
875.2147	1309.8333	2581.15	1695.3
875.359	1311.7162	2533	1646.85
875.5032	1313.5984	2512.05	1621.4
875.6475	1315.4798	2486.4	1588.55
875.7917	1317.3605	2482.2	1590.15
875.9359	1319.2405	2474.9	1583.65
876.0801	1321.1197	2447.95	1560.7
876.2243	1322.9982	2396.05	1502.8
876.3685	1324.876	2318.65	1431.05
876.5127	1326.753	2221.35	1333.95
876.6569	1328.6293	2132.3	1242.25
876.801	1330.5048	2043.45	1153.8
876.9452	1332.3796	1963.55	1076
877.0893	1334.2537	1915.5	1003.8
877.2335	1336.127	1871.05	984.5
877.3776	1337.9996	1830.3	942.75
877.5217	1339.8714	1809.75	922.95
877.6658	1341.7426	1837.65	906.35
877.8099	1343.6129	1794.65	907.45
877.954	1345.4826	1771.7	883.2
878.0981	1347.3515	1762.5	872.1
878.2422	1349.2196	1735.45	846
878.3862	1351.087	1728.2	840.3
878.5303	1352.9537	1732.2	845.35
878.6743	1354.8197	1732.2	844.45
878.8184	1356.6849	1742.9	855.6
878.9624	1358.5493	1765.2	877.95
879.1064	1360.4131	1791.95	904.25
879.2504	1362.276	1825.6	936.05
879.3944	1364.1383	1867.05	978.85
879.5384	1365.9998	1878.85	984.1
879.6823	1367.8606	1864.35	976.25
879.8263	1369.7206	1852.2	963.95
879.9702	1371.5799	1859.05	967.6
880.1142	1373.4384	1842.2	954.45
880.2581	1375.2962	1818.9	932.25
880.402	1377.1533	1771.5	883.45
880.5459	1379.0096	1715.6	828.9
880.6898	1380.8652	1675.3	786.8
880.8337	1382.7201	1641.1	754.7
880.9776	1384.5742	1625.05	738.35
881.1215	1386.4275	1598.6	708.75
881.2653	1388.2802	1578.3	691.05
881.4092	1390.132	1566.15	677.65
881.553	1391.9832	1557.9	669.8
881.6968	1393.8336	1540.8	653.95
881.8406	1395.6832	1538.15	651.25
881.9844	1397.5322	1535.45	648.2
882.1282	1399.3803	1527.85	633.2
882.272	1401.2278	1522.4	635
882.4158	1403.0745	1506.55	617.75
882.5595	1404.9204	1497.1	609.7
882.7033	1406.7656	1498.4	611.8
882.847	1408.6101	1490	598.3
882.9908	1410.4538	1490	601.9
883.1345	1412.2968	1490.25	604.7
883.2782	1414.139	1493.8	605.5
883.4219	1415.9805	1501.6	613.4
883.5656	1417.8213	1522.65	629.2
883.7092	1419.6613	1531.7	646.25
883.8529	1421.5006	1560.05	670.65
883.9965	1423.3391	1601.1	713.45
884.1402	1425.1769	1649.6	758.9
884.2838	1427.0139	1727.45	838.7
884.4274	1428.8502	1804.9	915.7
884.571	1430.6858	1890.45	1004.45
884.7146	1432.5206	1914.85	1029.75
884.8582	1434.3547	1894.1	1005.75
885.0018	1436.188	1881.2	997.15
885.1453	1438.0206	1874.65	984.85
885.2889	1439.8524	1855.25	968.75
885.4324	1441.6835	1855.05	966.25
885.5759	1443.5139	1862.85	974
885.7194	1445.3435	1861.05	971.7
885.8629	1447.1724	1860.4	972.8
886.0064	1449.0005	1849.95	962.1
886.1499	1450.8279	1846.45	956.55
886.2933	1452.6545	1847.7	959.35
886.4368	1454.4804	1839.7	954.2
886.5802	1456.3056	1831.9	937.7
886.7237	1458.13	1813	925.6
886.8671	1459.9536	1791.8	906.25
887.0105	1461.7766	1750.35	863.15
887.1539	1463.5987	1710.15	820.65
887.2972	1465.4202	1667.35	781.25
887.4406	1467.2409	1629.8	741.7
887.584	1469.0608	1602.15	713.9
887.7273	1470.88	1568	679.2
887.8706	1472.6984	1534.55	647.4
888.0139	1474.5161	1523.55	632.4
888.1572	1476.3331	1504.85	616.9
888.3005	1478.1493	1493.1	603.1
888.4438	1479.9648	1498.2	611.25
888.5871	1481.7795	1491.4	603.7
888.7303	1483.5935	1486.95	599.35
888.8736	1485.4067	1486.95	600.7
889.0168	1487.2192	1495.15	606.15
889.16	1489.031	1494.95	605.45
889.3032	1490.842	1487.4	599.9
889.4464	1492.6522	1492.9	606.15
889.5896	1494.4618	1483.4	596.35
889.7327	1496.2705	1487.95	599.35
889.8759	1498.0785	1469.65	582.55
890.019	1499.8858	1473.65	585.45
890.1622	1501.6924	1453.65	565.65
890.3053	1503.4981	1450.6	563.8
890.4484	1505.3032	1453.9	566.75
890.5914	1507.1075	1436.75	549.9
890.7345	1508.911	1437.3	547.5
890.8776	1510.7138	1429.15	539.65
891.0206	1512.5159	1414.8	527.75
891.1637	1514.3172	1410.95	521.2
891.3067	1516.1178	1409.2	521.3
891.4497	1517.9176	1406.4	515.4
891.5927	1519.7166	1397.7	511
891.7357	1521.515	1397.85	504.5
891.8786	1523.3126	1387.25	499.8
892.0216	1525.1094	1386.05	496.9
892.1645	1526.9055	1380.15	494
892.3074	1528.7008	1366.05	480.8
892.4503	1530.4954	1372.95	478
892.5932	1532.2893	1370.15	486.35
892.7361	1534.0824	1370.6	477.85
892.879	1535.8747	1370.3	483.95
893.0218	1537.6663	1365.55	478.85
893.1647	1539.4572	1361.55	474.9
893.3075	1541.2473	1364.05	474.8
893.4503	1543.0367	1363.2	476.9
893.5931	1544.8253	1365.15	473.65
893.7359	1546.6132	1363.7	475.65
893.8787	1548.4003	1385.45	488.9
894.0214	1550.1867	1392.35	498.3
894.1642	1551.9723	1396.35	505.25
894.3069	1553.7572	1403.25	514.1
894.4496	1555.5414	1428.75	540.55
894.5923	1557.3247	1450.95	564.95
894.735	1559.1074	1490.75	604.75
894.8777	1560.8893	1524.05	640.45
895.0204	1562.6705	1559.6	673.6
895.163	1564.4509	1590	703.65
895.3056	1566.2305	1594.2	709.65
895.4482	1568.0094	1602.35	717.5
895.5908	1569.7876	1598.35	712.55
895.7334	1571.565	1595.4	707.95
895.876	1573.3417	1598.15	711.75
896.0186	1575.1176	1596.85	712.1
896.1611	1576.8928	1610.55	725.65
896.3036	1578.6672	1632.7	751.05
896.4461	1580.4409	1658.4	775.8
896.5886	1582.2138	1687.65	800.3
896.7311	1583.986	1724.55	838.7
896.8736	1585.7575	1765.8	883.5
897.0161	1587.5282	1797	913.45
897.1585	1589.2981	1818.65	936.55
897.3009	1591.0673	1839.65	956.6
897.4433	1592.8358	1857.55	975.75
897.5857	1594.6035	1854.35	969.45
897.7281	1596.3704	1832.4	946.5
897.8705	1598.1366	1819.7	935.15
898.0128	1599.9021	1796.85	914.1
898.1551	1601.6668	1777.1	891.25
898.2975	1603.4308	1759.85	870.75
898.4398	1605.194	1769.95	880.25
898.5821	1606.9564	1790.35	905.7
898.7243	1608.7182	1844.25	955.5
898.8666	1610.4791	1930.5	1049.8
899.0088	1612.2394	2019.25	1138.8
899.1511	1613.9988	2125.1	1242.9
899.2933	1615.7576	2197.9	1316.1
899.4355	1617.5156	2225.4	1335.55
899.5776	1619.2728	2192.1	1307.45
899.7198	1621.0293	2102.5	1218.75
899.862	1622.785	1989.45	1100.55
900.0041	1624.54	1877.1	990.7
900.1462	1626.2942	1760.5	874.15
900.2883	1628.0477	1656.35	770.3
900.4304	1629.8005	1587.7	701.4
900.5725	1631.5525	1513.85	630.55
900.7145	1633.3037	1468.95	585.25
900.8566	1635.0542	1425.15	542.3
900.9986	1636.804	1394.1	507.6
901.1406	1638.553	1431.2	486.55
901.2826	1640.3013	1351.75	466.9
901.4245	1642.0488	1332.75	446.55
901.5665	1643.7955	1315.1	430.65
901.7085	1645.5416	1297.65	413.15
901.8504	1647.2868	1294.95	411.75
901.9923	1649.0313	1284.65	399.85
902.1342	1650.7751	1283.95	395.35
902.2761	1652.5181	1288.5	407.35
902.4179	1654.2604	1277.4	392.95
902.5598	1656.0019	1278.8	396.85
902.7016	1657.7427	1294.85	409.25
902.8434	1659.4828	1321.65	439.25
902.9852	1661.222	1347.95	461.35
903.127	1662.9606	1376.5	492.85
903.2687	1664.6984	1410.85	524.35
903.4105	1666.4354	1403.65	519.55
903.5522	1668.1717	1393.1	506.25
903.6939	1669.9072	1346.75	462.95
903.8356	1671.642	1317.5	428.75
903.9773	1673.3761	1276	391.65
904.119	1675.1094	1244.8	360.4
904.2606	1676.8419	1227.65	344.4
904.4022	1678.5737	1212.3	327.3
904.5439	1680.3048	1204.45	318.8
904.6855	1682.0351	1194.9	312.3
904.827	1683.7646	1193.35	303.8
904.9686	1685.4934	1183.45	298.45
905.1101	1687.2215	1177.4	292.6
905.2517	1688.9488	1171.8	286.1
905.3932	1690.6754	1171.3	289.1
905.5347	1692.4012	1169.5	284.2
905.6761	1694.1263	1164.25	279.55
905.8176	1695.8506	1165.05	279.35
905.9591	1697.5742	1161.65	279.05
906.1005	1699.297	1157.2	274
906.2419	1701.0191	1153.85	270.3
906.3833	1702.7404	1148.7	266.2
906.5246	1704.461	1148.85	263.8
906.666	1706.1808	1154	267.7
906.8073	1707.8999	1147.9	264
906.9487	1709.6182	1139.1	257.2
907.09	1711.3358	1140.25	256.75
907.2313	1713.0527	1140.3	256.65
907.3725	1714.7688	1142.55	253.85
907.5138	1716.4841	1137.2	251.35
907.655	1718.1987	1142.2	253.9
907.7962	1719.9126	1134.25	251.7
907.9374	1721.6257	1134.2	248.15
908.0786	1723.338	1134.5	251.9
908.2198	1725.0496	1133.15	249.1
908.3609	1726.7605	1131.8	249.15
908.502	1728.4706	1127.3	243.15
908.6431	1730.18	1128.7	244.1
908.7842	1731.8886	1128.25	246.1
908.9253	1733.5964	1144.15	238.25
909.0664	1735.3036	1131.8	247.25
909.2074	1737.0099	1128.35	246.85
909.3484	1738.7156	1122.9	240.15
909.4894	1740.4204	1124.35	238.6
909.6304	1742.1246	1121.05	234.1
909.7714	1743.8279	1123.15	239.1
909.9123	1745.5306	1118.75	234.8
910.0532	1747.2325	1124.4	241.45
910.1941	1748.9336	1123.7	242.4
910.335	1750.634	1122.25	235.4
910.4759	1752.3336	1120.35	236.9
910.6168	1754.0325	1119.85	237.7
910.7576	1755.7307	1118.65	235.2
910.8984	1757.4281	1120.35	238.15
911.0392	1759.1247	1121.95	228.75
911.18	1760.8206	1123.25	235.1
911.3208	1762.5158	1120.1	233.15
911.4615	1764.2102	1112.95	228.2
911.6022	1765.9039	1109.85	228.15
911.7429	1767.5968	1110.25	228.6
911.8836	1769.289	1107.5	223.25
912.0243	1770.9804	1109.05	223.3
912.1649	1772.6711	1111.9	229.4
912.3056	1774.361	1115	230.45
912.4462	1776.0502	1111.35	225.6
912.5868	1777.7386	1111.55	225.75
912.7274	1779.4263	1112.65	228.2
912.8679	1781.1132	1109.85	228.65
913.0084	1782.7994	1108.5	224.55
913.149	1784.4849	1105.7	221.6
913.2895	1786.1696	1120.35	219.7
913.4299	1787.8535	1104.9	224.05
913.5704	1789.5367	1108.45	227.85
913.7108	1791.2192	1098.9	217.4
913.8513	1792.9009	1126.15	217.9
913.9917	1794.5818	1106.7	219.7
914.132	1796.2621	1101.45	218.9
914.2724	1797.9415	1102.65	217.65
914.4128	1799.6202	1099.15	215.8
914.5531	1801.2982	1103.3	217.15
914.6934	1802.9755	1100.2	216.7
914.8337	1804.6519	1097.35	215.2
914.9739	1806.3277	1094.05	211.15
915.1142	1808.0027	1094.35	212.2
915.2544	1809.6769	1093.2	210.2
915.3946	1811.3504	1097.6	214.65
915.5348	1813.0231	1094.55	211.85
915.675	1814.6951	1091.95	210.25
915.8151	1816.3664	1097.2	212.95
915.9553	1818.0369	1092.95	211.05
916.0954	1819.7067	1092.25	209.05
916.2355	1821.3757	1090.1	203.9
916.3755	1823.044	1091.9	206.55
916.5156	1824.7115	1089.7	207.65
916.6556	1826.3783	1089.65	207.95
916.7956	1828.0443	1087.3	204.45
916.9356	1829.7096	1089.5	204.75
917.0756	1831.3741	1090.3	203.35
917.2155	1833.0379	1085.5	202.8
917.3555	1834.701	1087.9	201.7
917.4954	1836.3633	1085.15	199.15
917.6353	1838.0248	1085.85	202
917.7751	1839.6856	1085.45	203.6
917.915	1841.3457	1084.65	202.25
918.0548	1843.005	1086.4	203.6
918.1946	1844.6636	1078.95	195.9
918.3344	1846.3214	1085.9	205.25
918.4742	1847.9785	1082.3	201
918.6139	1849.6349	1083.75	198.3
918.7537	1851.2904	1092.5	200.8
918.8934	1852.9453	1078.2	194.45
919.0331	1854.5994	1085.15	197.9
919.1727	1856.2528	1090.25	202.1
919.3124	1857.9054	1079.7	197.1
919.452	1859.5572	1082.3	199.4
919.5916	1861.2083	1079.15	194.95
919.7312	1862.8587	1082.05	199.35
919.8708	1864.5084	1076.3	189.55
920.0103	1866.1572	1073.9	192.6
920.1498	1867.8054	1078.3	192.15
920.2893	1869.4528	1077	191.6
920.4288	1871.0994	1079.8	195.8
920.5683	1872.7453	1080.6	196.1
920.7077	1874.3905	1081.65	191.55
920.8471	1876.0349	1072.9	187.85
920.9865	1877.6786	1072.55	188.9
921.1259	1879.3215	1073.5	191.25
921.2653	1880.9637	1074.85	187.85
921.4046	1882.6051	1074.65	191.9
921.5439	1884.2458	1075.2	189.65
921.6832	1885.8858	1073.05	190.4
921.8225	1887.525	1074.25	189.4
921.9617	1889.1634	1068.95	187.2
922.101	1890.8011	1067.75	183.35
922.2402	1892.4381	1067.6	184.05
922.3794	1894.0743	1068.7	185.95
922.5185	1895.7098	1066.05	183.1
922.6577	1897.3446	1068.35	183.2
922.7968	1898.9786	1070.85	185.05
922.9359	1900.6118	1066.55	183.05
923.075	1902.2443	1068.5	179.7
923.214	1903.8761	1067.6	185.15
923.3531	1905.5071	1070.2	184.8
923.4921	1907.1374	1062.9	177.55
923.6311	1908.7669	1064.75	179.95
923.77	1910.3957	1062.95	180.35
923.909	1912.0237	1062.95	177.9
924.0479	1913.651	1061.7	178.4
924.1868	1915.2776	1060.1	177.95
924.3257	1916.9034	1056.05	173.45
924.4646	1918.5285	1057.85	175.3
924.6034	1920.1528	1058.8	174.65
924.7422	1921.7764	1061.5	178.65
924.881	1923.3992	1058.6	176.25
925.0198	1925.0213	1058.05	173.65
925.1586	1926.6427	1053.4	170.45
925.2973	1928.2633	1267.1	173
925.436	1929.8832	1063.55	177.2
925.5747	1931.5023	1060.2	177.3
925.7134	1933.1207	1055.1	169.55
925.852	1934.7383	1056.4	172.75
925.9906	1936.3552	1053.45	171
926.1292	1937.9714	1052.45	168.9
926.2678	1939.5868	1053.65	167.95
926.4064	1941.2015	1054.95	170.75
926.5449	1942.8154	1051.35	168.65
926.6834	1944.4286	1051.1	165.2
926.8219	1946.041	1072.45	166.05
926.9604	1947.6528	1052.3	162.05
927.0988	1949.2637	1051.35	168.7
927.2372	1950.8739	1051.8	169.2
927.3756	1952.4834	1050.45	168.5
927.514	1954.0921	1053.4	169.6
927.6523	1955.7001	1055.35	167.75
927.7907	1957.3074	1041.65	161.55
927.929	1958.9139	1049.25	165.3
928.0673	1960.5197	1047.35	163.75
928.2055	1962.1247	1040.95	158.75
928.3438	1963.729	1039.9	158.05
928.482	1965.3325	1048.2	158.7
928.6202	1966.9353	1043.4	163
928.7584	1968.5374	1047.65	163.3
928.8965	1970.1387	1044.95	162.7
929.0346	1971.7393	1043.85	160.7
929.1727	1973.3392	1040.6	157.5
929.3108	1974.9383	1037.55	157.15
929.4489	1976.5366	1043.6	161.95
929.5869	1978.1342	1036.15	154.65
929.7249	1979.7311	1045.6	162.6
929.8629	1981.3273	1038.6	155.95
930.0009	1982.9227	1038.95	155.3
930.1388	1984.5173	1038.65	157.15
930.2767	1986.1112	1040.15	161.05
930.4146	1987.7044	1032.4	150.65
930.5525	1989.2968	1035.15	153.05
930.6904	1990.8885	1038.95	152.6
930.8282	1992.4795	1037.95	157.2
930.966	1994.0697	1033.45	153.35
931.1038	1995.6592	1037.8	157.05
931.2415	1997.2479	1032.7	152.4
931.3793	1998.8359	1035.35	155.9
931.517	2000.4232	1030.95	151.95
931.6547	2002.0097	1030.2	150.6
931.7923	2003.5955	1035.05	153.15
931.93	2005.1805	1038.2	155.7
932.0676	2006.7648	1029.35	149.3
932.2052	2008.3484	1029.95	148.15
932.3427	2009.9312	1033.15	151.7
932.4803	2011.5133	1034	153.35
932.6178	2013.0946	1031.65	151
932.7553	2014.6752	1032.55	154.85
932.8928	2016.2551	1029.9	147
933.0302	2017.8342	1032.35	151.85
933.1676	2019.4126	1027.15	148.45
933.305	2020.9902	1032.75	151.55
933.4424	2022.5672	1026.25	145.65
933.5798	2024.1433	1029.85	143.15
933.7171	2025.7188	1027.55	149.1
933.8544	2027.2935	1029.25	150.65
933.9917	2028.8674	1024.75	146.3
934.129	2030.4406	1023.55	146.8
934.2662	2032.0131	1027.15	149.05
934.4034	2033.5849	1028.8	145.95
934.5406	2035.1559	1024.6	145.05
934.6778	2036.7261	1029.5	148.55
934.8149	2038.2957	1026.85	146.9
934.952	2039.8645	1025	144.15
935.0891	2041.4325	1030.15	147.25
935.2262	2042.9998	1025.1	144.7
935.3632	2044.5664	1026	145.05
935.5002	2046.1323	1022.9	144.5
935.6372	2047.6974	1026.3	147.8
935.7742	2049.2617	1023.65	146.9
935.9111	2050.8254	1046.85	144.15
936.048	2052.3883	1027.9	146.25
936.1849	2053.9504	1027.9	145.65
936.3218	2055.5118	1025.75	144.45
936.4586	2057.0725	1030	147.7
936.5955	2058.6325	1024.3	145.3
936.7323	2060.1917	1023.15	143.1
936.869	2061.7502	1026.3	143.7
937.0058	2063.3079	1019.6	142
937.1425	2064.8649	1025.9	144.2
937.2792	2066.4212	1024.25	143.2
937.4159	2067.9767	1025.2	145.25
937.5525	2069.5315	1025	145.2
937.6891	2071.0856	1024.15	144
937.8257	2072.6389	1019.65	138.1
937.9623	2074.1915	1020.75	144
938.0989	2075.7433	1026.3	145.15
938.2354	2077.2945	1018.65	140.5
938.3719	2078.8448	1019.85	140.05
938.5084	2080.3945	1019.65	141.2
938.6448	2081.9434	1019.35	141.45
938.7812	2083.4916	1020.15	137.6
938.9176	2085.039	1023.3	141.75
939.054	2086.5857	1021.55	137.75
939.1903	2088.1317	1021.3	142
939.3267	2089.677	1022.7	140.25
939.463	2091.2215	1020.7	137.5
939.5992	2092.7652	1021.65	137.2
939.7355	2094.3083	1020.85	139.4
939.8717	2095.8506	1018.8	138.35
940.0079	2097.3921	1022.7	141.55
940.1441	2098.933	1017.5	139.1
940.2802	2100.4731	1018.05	138.05
940.4163	2102.0124	1034.45	136.9
940.5524	2103.5511	1021.15	140.9
940.6885	2105.089	1021.6	138.65
940.8245	2106.6261	1016.25	134.3
940.9606	2108.1626	1018	136.15
941.0965	2109.6983	1043.2	134.65
941.2325	2111.2332	1019.15	138.55
941.3684	2112.7675	1020.15	137.8
941.5044	2114.301	1021.35	138.45
941.6403	2115.8337	1019.2	139.65
941.7761	2117.3657	1019.5	141.15
941.912	2118.897	1022	138.4
942.0478	2120.4276	1021.35	135.45
942.1835	2121.9575	1017.55	135.3
942.3193	2123.4866	1036.15	140.65
942.455	2125.0149	1019.25	135.55
942.5907	2126.5426	1012.1	132
942.7264	2128.0695	1023.35	140.3
942.8621	2129.5956	1015.65	137.7
942.9977	2131.1211	1020.85	137.05
943.1333	2132.6458	1012.45	134.05
943.2689	2134.1698	1015.55	134.05
943.4044	2135.693	1019.95	137.3
943.54	2137.2155	1018.1	135.5
943.6755	2138.7373	1018.65	138.05
943.8109	2140.2584	1015.2	137.35
943.9464	2141.7787	1016.9	132
944.0818	2143.2983	1015	138.6
944.2172	2144.8171	1010.65	132.3
944.3526	2146.3353	1017.7	136.1
944.4879	2147.8527	1016.3	138.8
944.6232	2149.3693	1011.9	129.7
944.7585	2150.8853	1012	130.8
944.8938	2152.4005	1014.35	130.75
945.029	2153.9149	1012.8	131.65
945.1642	2155.4287	1014	133.2
945.2994	2156.9417	1016.8	134.55
945.4346	2158.454	1014.85	133.75
945.5697	2159.9655	1007.6	128.7
945.7048	2161.4764	1013.25	134
945.8399	2162.9865	1009.8	130
945.9749	2164.4958	1011.2	127.45
946.1099	2166.0045	1014.05	130.25
946.2449	2167.5124	1013.4	133.3
946.3799	2169.0195	1009.9	128.9
946.5148	2170.526	1013.7	132.7
946.6498	2172.0317	1014.8	135.4
946.7846	2173.5367	1013.6	134.3
946.9195	2175.0409	1011.1	130.95
947.0543	2176.5445	1010.85	130.8
947.1891	2178.0473	1011.75	130.25
947.3239	2179.5494	1015.45	130.7
947.4587	2181.0507	1008.3	128.3
947.5934	2182.5513	1005.05	123.9
947.7281	2184.0512	1006.95	124.7
947.8628	2185.5504	1006.5	127.55
947.9974	2187.0488	1007.65	126.1
948.132	2188.5465	1006.4	127.9
948.2666	2190.0435	1008.3	127.65
948.4012	2191.5397	1003.7	123.65
948.5357	2193.0353	1010.7	131.15
948.6702	2194.5301	1011.7	129
948.8047	2196.0241	1010.25	129.3
948.9392	2197.5175	1005.8	125.25
949.0736	2199.0101	1012.55	127.05
949.208	2200.502	1008	128
949.3424	2201.9931	1002.25	122.1
949.4767	2203.4835	1003.4	124.3
949.611	2204.9733	1023.75	127.45
949.7453	2206.4622	1003.7	123.25
949.8796	2207.9505	1007.85	126.05
950.0138	2209.438	1001.15	123.25
950.148	2210.9248	1004.2	123.35
950.2822	2212.4109	1002	121.2
950.4164	2213.8962	1004.95	122.45
950.5505	2215.3809	1006.35	124.9
950.6846	2216.8648	1006.2	125.05
950.8186	2218.3479	1006.1	118.3
950.9527	2219.8304	1000.45	117.75
951.0867	2221.3121	1002.3	117.35
951.2207	2222.7931	999.25	119.7
951.3546	2224.2733	1001.3	120.75
951.4886	2225.7529	997.7	115.15
951.6225	2227.2317	1000.1	118.85
951.7563	2228.7098	999.15	120.05
951.8902	2230.1872	997.6	116.1
952.024	2231.6638	998.85	119.95
952.1578	2233.1397	999.6	111.65
952.2916	2234.6149	997.4	119.65
952.4253	2236.0894	998.95	118
952.559	2237.5632	1008.05	120
952.6927	2239.0362	997.15	119.8
952.8263	2240.5085	996	114.15
952.9599	2241.9801	995.4	116.75
953.0935	2243.4509	997.5	116.75
953.2271	2244.921	992.6	110.6
953.3606	2246.3904	995.2	111.8
953.4941	2247.8591	993.8	112.1
953.6276	2249.3271	994.7	114.8
953.7611	2250.7943	996	112.55
953.8945	2252.2608	995.3	113.2
954.0279	2253.7266	994.9	114.5
954.1612	2255.1917	995.4	112.85
954.2946	2256.656	991.3	111.5
954.4279	2258.1197	991.5	110.45
954.5612	2259.5826	994.25	113.6
954.6944	2261.0447	995.3	114.5
954.8276	2262.5062	991.95	109.95
954.9608	2263.9669	992.75	109.35
955.094	2265.4269	989	110.15
955.2271	2266.8862	991.95	110.8
955.3602	2268.3448	992.7	111
955.4933	2269.8026	989.75	109.75
955.6264	2271.2598	989.4	109.55
955.7594	2272.7162	989.65	111.35
955.8924	2274.1719	990.2	111.2
956.0253	2275.6268	989.7	109.05
956.1583	2277.0811	988.65	108.1
956.2912	2278.5346	992.45	113
956.4241	2279.9874	986.25	105.75
956.5569	2281.4395	985.5	105.55
956.6897	2282.8908	994.05	108.35
956.8225	2284.3414	989.55	107.3
956.9553	2285.7914	986.85	106.15
957.088	2287.2406	989.5	106.05
957.2207	2288.689	992.05	111.95
957.3534	2290.1368	990.05	108.05
957.486	2291.5838	992.45	108.5
957.6186	2293.0302	991	106.8
957.7512	2294.4758	988.55	107.4
957.8838	2295.9206	986.4	101.35
958.0163	2297.3648	985.3	105.25
958.1488	2298.8082	989.2	109.8
958.2813	2300.251	984.85	102.4
958.4137	2301.693	989.9	105.45
958.5461	2303.1343	990.2	110.85
958.6785	2304.5748	986.5	106.7
958.8108	2306.0147	989	107.35
958.9432	2307.4538	985.35	106.15
959.0754	2308.8922	984.2	105.9
959.2077	2310.3299	983.35	103.15
959.3399	2311.7669	982.9	102.7
959.4721	2313.2031	985.05	103.1
959.6043	2314.6387	983.55	101.45
959.7365	2316.0735	981.15	99.7
959.8686	2317.5076	982.4	101.8
960.0006	2318.941	984.7	102.45
960.1327	2320.3737	986.05	105.5
960.2647	2321.8056	988.75	106
960.3967	2323.2369	986.3	105.5
960.5287	2324.6674	988.6	106.05
960.6606	2326.0972	990.25	108.4
960.7925	2327.5263	988.35	107.9
960.9244	2328.9547	993.35	111.45
961.0562	2330.3823	992.05	110.7
961.1881	2331.8092	992.85	108.95
961.3198	2333.2355	983	101.4
961.4516	2334.661	982.95	99.7
961.5833	2336.0858	985.65	104
961.715	2337.5098	980.4	99.7
961.8467	2338.9332	985.55	103.85
961.9783	2340.3558	983	97.2
962.1099	2341.7778	978.9	97.9
962.2415	2343.199	984.9	102.15
962.373	2344.6195	978.8	99.15
962.5045	2346.0393	976.65	97.55
962.636	2347.4583	981.45	98.8
962.7675	2348.8767	979.9	98.65
962.8989	2350.2943	981.85	99.7
963.0303	2351.7113	982.55	100.2
963.1617	2353.1275	978.75	97.65
963.293	2354.543	1003	98.25
963.4243	2355.9578	977.2	96.95
963.5556	2357.3718	976.35	95.5
963.6868	2358.7852	979.55	95.25
963.818	2360.1978	977.25	96.7
963.9492	2361.6098	976.2	94.6
964.0803	2363.021	983.45	100
964.2114	2364.4315	977.65	95.95
964.3425	2365.8413	982.4	95.8
964.4736	2367.2504	976.2	97.55
964.6046	2368.6587	975.4	92.7
964.7356	2370.0664	976.75	95.4
964.8666	2371.4733	976.15	93.1
964.9975	2372.8795	977.4	96.25
965.1284	2374.285	975.95	94
965.2593	2375.6899	974.9	91.95
965.3901	2377.0939	973.35	92.6
965.5209	2378.4973	975.4	94.8
965.6517	2379.9	976.9	93.9
965.7825	2381.3019	974.2	92.8
965.9132	2382.7032	975.65	94.7
966.0439	2384.1037	970.05	88.65
966.1745	2385.5035	972	91.15
966.3051	2386.9027	971.55	91.05
966.4357	2388.3011	977.1	92.2
966.5663	2389.6987	974.65	91.8
966.6968	2391.0957	973.55	95.7
966.8273	2392.492	972.9	92.4
966.9578	2393.8876	969.3	87.6
967.0882	2395.2824	972.45	91.4
967.2186	2396.6765	968.85	88.3
967.349	2398.07	971.8	90.8
967.4793	2399.4627	972.6	88.95
967.6097	2400.8547	970.15	84.9
967.7399	2402.246	977.25	89.1
967.8702	2403.6366	970.85	89.1
968.0004	2405.0265	969.5	88
968.1306	2406.4156	970.15	85.3
968.2607	2407.8041	970.5	86.55
968.3909	2409.1918	973.15	88.85
968.521	2410.5789	969.65	87.25
968.651	2411.9652	971.15	85.6
968.781	2413.3508	965.3	83.35
968.911	2414.7358	968.4	84.25
969.041	2416.12	967.25	85.6
969.1709	2417.5035	969.25	88.15
969.3008	2418.8863	968.25	86.3
969.4307	2420.2684	969.2	85.15
969.5606	2421.6497	966.15	83.6
969.6904	2423.0304	966.25	86.25
969.8201	2424.4104	964.15	79.8
969.9499	2425.7896	971.25	85.3
970.0796	2427.1682	965.45	82.55
970.2093	2428.546	969.25	85.1
970.3389	2429.9232	966.35	84.45
970.4685	2431.2996	962.95	79.5
970.5981	2432.6753	963.4	80.5
970.7277	2434.0503	962.25	80.35
970.8572	2435.4246	964.65	84.5
970.9867	2436.7982	966.35	82.1
971.1161	2438.1711	962.7	80.25
971.2456	2439.5433	962.55	79.1
971.375	2440.9148	965.4	83.25
971.5043	2442.2856	960.65	78.15
971.6336	2443.6557	964.15	79.45
971.7629	2445.025	962.65	79.25
971.8922	2446.3937	962.15	80.95
972.0214	2447.7617	961.9	79.85
972.1506	2449.1289	959.9	78.4
972.2798	2450.4955	969.85	86.8
972.4089	2451.8613	961.95	82.05
972.538	2453.2265	960.7	77.45
972.6671	2454.5909	961.45	78.5
972.7961	2455.9546	961.65	80.75
972.9251	2457.3177	959.8	80.25
973.0541	2458.68	962.95	80.5
973.1831	2460.0416	960.85	76.9
973.312	2461.4025	961.85	79.1
973.4408	2462.7627	969.9	78.5
973.5697	2464.1222	957.4	76.5
973.6985	2465.4811	958.15	76.55
973.8273	2466.8392	960.3	76
973.956	2468.1966	959.85	75.95
974.0847	2469.5533	960.95	77.5
974.2134	2470.9093	959.4	77.55
974.3421	2472.2645	960.4	77
974.4707	2473.6191	957	76.55
974.5993	2474.973	959.35	78.4
974.7278	2476.3262	964.2	79.4
974.8563	2477.6787	959	78.2
974.9848	2479.0305	958.5	77.9
975.1132	2480.3816	957.9	73.7
975.2417	2481.7319	957.1	77.1
975.37	2483.0816	958.35	75.3
975.4984	2484.4306	959.4	77.75
975.6267	2485.7789	957.35	77.6
975.755	2487.1264	958.25	73.8
975.8833	2488.4733	952.7	74.55
976.0115	2489.8195	966.15	75.5
976.1397	2491.165	961.8	78.45
976.2678	2492.5097	958.45	76.3
976.3959	2493.8538	957.45	75
976.524	2495.1972	958	75.05
976.6521	2496.5398	958.45	75.3
976.7801	2497.8818	956.1	72
976.9081	2499.2231	956.8	74.05
977.036	2500.5637	956.95	72.75
977.164	2501.9035	957.8	75.15
977.2918	2503.2427	956.45	70.95
977.4197	2504.5812	951.5	71.3
977.5475	2505.919	960.15	78.45
977.6753	2507.256	954.6	71.2
977.8031	2508.5924	952.9	71.35
977.9308	2509.9281	960.7	73.9
978.0585	2511.2631	954.2	73.2
978.1861	2512.5974	951.25	69.85
978.3137	2513.9309	952.65	71.75
978.4413	2515.2638	984.1	75.9
978.5689	2516.596	953.15	72.7
978.6964	2517.9275	954.8	71.95
978.8239	2519.2583	951.75	69.55
978.9513	2520.5884	951.6	69.35
979.0788	2521.9178	951.65	70.75
979.2062	2523.2465	950.3	69.65
979.3335	2524.5745	950.1	68.4
979.4608	2525.9018	949.2	66.85
979.5881	2527.2284	949.9	68.6
979.7154	2528.5543	951.8	72.85
979.8426	2529.8796	949.35	68.4
979.9698	2531.2041	952.35	72.9
980.0969	2532.5279	948	68.75
980.224	2533.851	950.6	69.4
980.3511	2535.1735	949.4	69.95
980.4781	2536.4952	948.35	64.7
980.6052	2537.8163	948.75	67.2
980.7321	2539.1366	946.4	66
980.8591	2540.4562	950.45	66.75
980.986	2541.7752	950.55	69.25
981.1129	2543.0935	949.25	68.1
981.2397	2544.411	953.75	71.1
981.3665	2545.7279	948.5	67.95
981.4933	2547.0441	945.95	63.75
981.62	2548.3596	949.45	67.9
981.7467	2549.6744	947.85	68.75
981.8734	2550.9885	954.1	61.75
982.0001	2552.3019	948.1	68.75
982.1267	2553.6146	948	65.75
982.2532	2554.9266	947.4	66.05
982.3798	2556.2379	948.25	65.1
982.5063	2557.5485	945.4	66.75
982.6327	2558.8585	951.35	63.65
982.7592	2560.1677	951	65.7
982.8856	2561.4762	947.55	66
983.0119	2562.7841	950.7	66.5
983.1383	2564.0913	945.2	65
983.2646	2565.3977	947.3	66.35
983.3908	2566.7035	948.5	67.15
983.517	2568.0086	946.55	63.9
983.6432	2569.313	947.65	66.9
983.7694	2570.6167	948.8	63.55
983.8955	2571.9197	947.6	64.9
984.0216	2573.222	944.9	59.9
984.1476	2574.5236	949.75	69.3
984.2737	2575.8246	949.5	65.15
984.3996	2577.1248	948.55	62.55
984.5256	2578.4244	940.75	60.45
984.6515	2579.7232	943.45	62.2
984.7774	2581.0214	977.75	64.4
984.9032	2582.3189	946.45	66.5
985.029	2583.6157	951.25	63.4
985.1548	2584.9118	946.45	63.35
985.2806	2586.2072	946.75	67.75
985.4063	2587.5019	944	61.25
985.5319	2588.7959	945.45	62.85
985.6576	2590.0893	945.85	59.2
985.7832	2591.3819	944.2	63.75
985.9087	2592.6739	942.9	63.2
986.0343	2593.9652	946.05	63.8
986.1597	2595.2557	945.65	67.8
986.2852	2596.5456	949.95	68.05
986.4106	2597.8348	945.65	67.1
986.536	2599.1234	947.1	67.95
986.6614	2600.4112	949	65.7
986.7867	2601.6983	952.5	70.6
986.912	2602.9848	945.3	61.7
987.0372	2604.2705	955.65	66.6
987.1624	2605.5556	945.55	65.05
987.2876	2606.84	943	60.85
987.4128	2608.1237	943.85	62.6
987.5379	2609.4067	944.1	61.7
987.6629	2610.689	954.4	65.25
987.788	2611.9707	947.2	64.35
987.913	2613.2516	946.3	61
988.0379	2614.5319	941.9	62.05
988.1629	2615.8115	944.05	62.05
988.2878	2617.0903	943.4	59.85
988.4126	2618.3685	943	59.45
988.5375	2619.6461	940.95	59.55
988.6622	2620.9229	940.95	59.2
988.787	2622.199	943.05	59.85
988.9117	2623.4745	939.95	57.4
989.0364	2624.7493	940.7	61.6
989.161	2626.0234	939.75	58.3
989.2857	2627.2968	940.25	58.4
989.4102	2628.5695	945.15	62.3
989.5348	2629.8415	943.45	62.95
989.6593	2631.1128	939.1	55.35
989.7837	2632.3835	938.95	59.15
989.9082	2633.6535	938.8	57.85
990.0326	2634.9228	943.45	62.9
990.1569	2636.1914	937.6	55.9
990.2812	2637.4593	938.25	56.6
990.4055	2638.7265	938.8	58.8
990.5298	2639.9931	938.7	58.95
990.654	2641.259	941	59
990.7782	2642.5242	938.4	55.7
990.9023	2643.7887	937.25	55.85
991.0264	2645.0525	936.4	54.6
991.1505	2646.3156	940	58.4
991.2745	2647.5781	937.5	57.75
991.3985	2648.8398	937.6	59.7
991.5225	2650.1009	976.35	58.6
991.6464	2651.3613	935.95	55.55
991.7703	2652.6211	936.4	54.55
991.8942	2653.8801	932.35	52.05
992.018	2655.1385	936.1	49.7
992.1418	2656.3961	935.65	55.3
992.2655	2657.6531	934.25	53.85
992.3892	2658.9094	934.25	51.1
992.5129	2660.1651	936.4	58.5
992.6366	2661.42	935.1	53.45
992.7602	2662.6743	934.5	53.95
992.8837	2663.9279	934.6	52.85
993.0073	2665.1808	938.7	58.45
993.1307	2666.433	935	52.45
993.2542	2667.6846	937.65	56.3
993.3776	2668.9354	938.25	53.55
993.501	2670.1856	937.3	55.5
993.6244	2671.4351	935.35	54.35
993.7477	2672.6839	939.3	58.15
993.8709	2673.9321	932.85	50.85
993.9942	2675.1795	936.7	55
994.1174	2676.4263	934.5	56.05
994.2405	2677.6724	936.25	56.05
994.3637	2678.9179	937.65	57
994.4868	2680.1626	935.05	54.05
994.6098	2681.4067	936.85	57.5
994.7328	2682.6501	934.5	55.6
994.8558	2683.8928	933.3	50.85
994.9788	2685.1348	931.5	51.5
995.1017	2686.3761	934.8	53.15
995.2245	2687.6168	932.65	52.85
995.3474	2688.8568	931.95	52.45
995.4702	2690.0961	931.9	51.8
995.5929	2691.3348	929.7	50.05
995.7156	2692.5727	933.8	53.1
995.8383	2693.81	930.05	50.55
995.961	2695.0466	929.9	51.25
996.0836	2696.2826	930.25	46
996.2062	2697.5178	936.1	52.4
996.3287	2698.7524	932.65	50.05
996.4512	2699.9863	933.55	51.15
996.5737	2701.2195	931.5	53
996.6961	2702.452	930.75	47.55
996.8185	2703.6839	933.85	54.8
996.9408	2704.9151	932.2	51.6
997.0631	2706.1456	933.85	53.05
997.1854	2707.3755	934.25	54.15
997.3077	2708.6046	938.8	57.65
997.4299	2709.8331	933.55	53.95
997.552	2711.0609	933.15	53.15
997.6742	2712.2881	933.9	53
997.7963	2713.5145	938.15	57.3
997.9183	2714.7403	934.55	54.15
998.0403	2715.9654	937.55	54.85
998.1623	2717.1899	951.25	56.5
998.2842	2718.4136	935.55	55.5
998.4062	2719.6367	941.1	60.75
998.528	2720.8591	945.45	58.85
998.6498	2722.0809	942.35	62.45
998.7716	2723.3019	945	61.15
998.8934	2724.5223	945.55	62.65
999.0151	2725.7421	944.5	62.25
999.1368	2726.9611	946.65	63.45
999.2584	2728.1795	943.85	58.55
999.38	2729.3972	940.2	62.1
999.5016	2730.6142	943.1	56.2
999.6231	2731.8306	937.7	56.05
999.7446	2733.0462	936.55	52.6
999.8661	2734.2612	940.95	54.7
999.9875	2735.4756	934.65	53.25
1000.1089	2736.6892	935.6	53.1
1000.2302	2737.9022	930.65	54.05
1000.3515	2739.1145	928.1	48.35
1000.4728	2740.3262	938.35	50.05
1000.594	2741.5372	930.8	52.4
1000.7152	2742.7475	931.65	49.55
1000.8363	2743.9571	931.5	51.95
1000.9575	2745.1661	934.5	49.45
1001.0785	2746.3744	927.95	49.55
1001.1996	2747.582	930.55	50.5
1001.3206	2748.7889	927.05	45.95
1001.4415	2749.9952	927.65	47.95
1001.5625	2751.2008	922.95	41.95
1001.6833	2752.4057	926.1	43.1
1001.8042	2753.61	923.35	41.9
1001.925	2754.8136	926.6	45.5
1002.0458	2756.0165	922.7	43.55
1002.1665	2757.2188	922.85	43.8
1002.2872	2758.4204	924.5	44.1
1002.4078	2759.6213	927.75	46
1002.5285	2760.8215	928.65	42.65
1002.649	2762.0211	924.2	42.85
1002.7696	2763.22	928.35	46.55
1002.8901	2764.4182	925.55	43.75
1003.0106	2765.6158	925.55	45.8
1003.131	2766.8127	922	41
1003.2514	2768.009	923.4	46.05
1003.3717	2769.2045	924.1	43.55
1003.492	2770.3994	922.25	39.5
1003.6123	2771.5936	921.6	41.7
1003.7325	2772.7872	920.25	42.85
1003.8527	2773.9801	919.95	38.6
1003.9729	2775.1723	937.8	40.4
1004.093	2776.3639	921.2	41.5
1004.2131	2777.5548	921.85	41.1
1004.3331	2778.745	921.3	38.7
1004.4531	2779.9346	918.6	39
1004.5731	2781.1235	922.25	42.75
1004.693	2782.3117	918.8	39.35
1004.8129	2783.4992	922.4	42.95
1004.9328	2784.6861	922.75	41.35
1005.0526	2785.8723	921.5	41.7
1005.1723	2787.0579	922.25	44.8
1005.2921	2788.2428	921.4	41.2
1005.4118	2789.427	919.9	41.8
1005.5314	2790.6106	921.15	40.5
1005.651	2791.7935	920.55	39.75
1005.7706	2792.9757	917.3	37.05
1005.8902	2794.1573	923.45	41.8
1006.0097	2795.3382	919.6	38.8
1006.1291	2796.5184	920.6	42.85
1006.2485	2797.698	923	41.85
1006.3679	2798.8769	921.75	41.25
1006.4873	2800.0551	921.6	42.5
1006.6066	2801.2327	926.15	44.6
1006.7258	2802.4096	923.05	43.9
1006.8451	2803.5859	924.3	44.4
1006.9642	2804.7615	923.65	44.45
1007.0834	2805.9364	924.15	46.3
1007.2025	2807.1106	923.65	45.55
1007.3216	2808.2842	929.45	49.7
1007.4406	2809.4572	927.7	47.85
1007.5596	2810.6294	931.1	49.8
1007.6785	2811.801	928.55	50.05
1007.7975	2812.972	929.85	52.5
1007.9163	2814.1423	935.25	55.25
1008.0352	2815.3119	936.85	56.25
1008.154	2816.4808	935.2	57.05
1008.2727	2817.6491	940.6	60.35
1008.3914	2818.8167	944.2	64.7
1008.5101	2819.9837	953.1	67.6
1008.6288	2821.15	952	71.9
1008.7474	2822.3157	957.65	80.95
1008.8659	2823.4807	964.85	84.45
1008.9844	2824.645	973.6	91.35
1009.1029	2825.8086	975.65	97.15
1009.2214	2826.9716	991.15	111.9
1009.3398	2828.134	993.85	114.55
1009.4581	2829.2957	1002.85	122.75
1009.5764	2830.4567	1005.5	127.75
1009.6947	2831.617	1012.8	133.8
1009.813	2832.7767	1014.2	136.15
1009.9312	2833.9358	1011.8	133.6
1010.0493	2835.0941	1014.95	134.4
1010.1675	2836.2519	1010.95	131.45
1010.2855	2837.4089	1009	129.1
1010.4036	2838.5653	1001.35	122.05
1010.5216	2839.7211	1000.5	121.1
1010.6396	2840.8761	999.35	118.4
1010.7575	2842.0306	992.3	111.75
1010.8754	2843.1843	993.3	113.8
1010.9932	2844.3374	997.35	117.7
1011.111	2845.4899	994.2	114.2
1011.2288	2846.6417	999.3	120.65
1011.3465	2847.7928	998.8	119.95
1011.4642	2848.9433	999.85	119.55
1011.5818	2850.0931	1004.4	124.45
1011.6995	2851.2422	1004.1	123.55
1011.817	2852.3907	1005.1	124.95
1011.9345	2853.5385	1011.55	131.5
1012.052	2854.6857	1037.8	131.25
1012.1695	2855.8323	1014.65	135.95
1012.2869	2856.9781	1012.5	134.6
1012.4042	2858.1233	1015.8	137.3
1012.5216	2859.2679	1021.9	140.7
1012.6389	2860.4118	1021.85	141.55
1012.7561	2861.555	1030.45	147.4
1012.8733	2862.6976	1030.55	148.8
1012.9905	2863.8395	1027.95	149.85
1013.1076	2864.9808	1030.35	148
1013.2247	2866.1214	1031.1	152.3
1013.3417	2867.2614	1035.6	157.1
1013.4587	2868.4007	1037.6	157.1
1013.5757	2869.5393	1038.05	156.45
1013.6926	2870.6773	1045	161.75
1013.8095	2871.8146	1042.75	161.35
1013.9263	2872.9513	1045.55	163.35
1014.0431	2874.0874	1047.55	169
1014.1599	2875.2227	1047.35	167.6
1014.2766	2876.3574	1049.75	170.6
1014.3933	2877.4915	1051.95	173.6
1014.51	2878.6249	1051.6	173.25
1014.6266	2879.7577	1057	176.6
1014.7431	2880.8898	1067.7	177.45
1014.8596	2882.0212	1058.8	180.85
1014.9761	2883.152	1063.85	183.35
1015.0925	2884.2821	1063.7	185.85
1015.2089	2885.4116	1065.25	185.7
1015.3253	2886.5405	1065.5	187.35
1015.4416	2887.6686	1072.75	189.8
1015.5579	2888.7962	1070.5	194.05
1015.6741	2889.923	1069.7	190.35
1015.7903	2891.0493	1069.4	190.1
1015.9065	2892.1748	1069.6	190.05
1016.0226	2893.2997	1072.15	194.3
1016.1387	2894.424	1064.3	187.1
1016.2547	2895.5476	1066.45	186.7
1016.3707	2896.6706	1067.65	187.9
1016.4866	2897.7929	1067.9	188.4
1016.6025	2898.9145	1069.4	190.45
1016.7184	2900.0355	1072.55	190.65
1016.8342	2901.1559	1065.45	186.45
1016.95	2902.2756	1071.05	187.25
1017.0658	2903.3946	1070.8	194.3
1017.1815	2904.513	1068.25	184.75
1017.2971	2905.6308	1061.95	183.05
1017.4127	2906.7479	1067.1	186.85
1017.5283	2907.8643	1064	185.4
1017.6439	2908.9801	1066.25	186.2
1017.7594	2910.0953	1065.35	188.3
1017.8748	2911.2098	1065.35	181
1017.9902	2912.3236	1073.7	186.55
1018.1056	2913.4368	1065.55	184.7
1018.2209	2914.5494	1066.4	186.75
1018.3362	2915.6613	1063.5	177.05
1018.4515	2916.7725	1062.7	182.6
1018.5667	2917.8831	1053.25	171.6
1018.6819	2918.9931	1056.55	175.5
1018.797	2920.1024	1049.35	170.45
1018.9121	2921.211	1048.6	168.55
1019.0271	2922.319	1049.65	170.85
1019.1421	2923.4264	1044.3	166.1
1019.2571	2924.5331	1046.75	169.2
1019.372	2925.6391	1045.75	165.5
1019.4869	2926.7445	1044.05	166.95
1019.6017	2927.8493	1045.15	164.6
1019.7165	2928.9534	1045.65	167.85
1019.8313	2930.0569	1048.8	167.4
1019.946	2931.1597	1049.5	169
1020.0606	2932.2619	1045.55	166.9
1020.1753	2933.3634	1044.25	165.2
1020.2899	2934.4643	1059.35	171.45
1020.4044	2935.5645	1065.15	180.4
1020.5189	2936.6641	1057.25	174.75
1020.6334	2937.763	1057.25	178.85
1020.7478	2938.8613	1055.1	172.85
1020.8622	2939.959	1058.75	177.15
1020.9765	2941.056	1045.4	168
1021.0908	2942.1523	1040.5	161.4
1021.2051	2943.248	1032.5	152.85
1021.3193	2944.3431	1022.55	143.55
1021.4334	2945.4375	1022.35	142.75
1021.5476	2946.5313	1014.8	137.1
1021.6617	2947.6244	1002.4	123.4
1021.7757	2948.7169	996.6	117.3
1021.8897	2949.8087	991.6	114.45
1022.0037	2950.8999	984.3	106.45
1022.1176	2951.9904	974.85	97.55
1022.2315	2953.0803	977.45	95.1
1022.3453	2954.1696	972.85	94.5
1022.4591	2955.2582	967.4	87.1
1022.5728	2956.3462	967.95	89.75
1022.6865	2957.4335	965.25	85.1
1022.8002	2958.5202	967.6	85.7
1022.9138	2959.6062	964.6	87.5
1023.0274	2960.6916	966.55	86.9
1023.141	2961.7764	967	86.2
1023.2545	2962.8605	962.25	83
1023.3679	2963.9439	962	83.95
1023.4813	2965.0267	962.5	83.2
1023.5947	2966.1089	985.4	82.7
1023.708	2967.1905	962.05	82.45
1023.8213	2968.2714	962.35	85.7
1023.9346	2969.3516	960.1	79.95
1024.0478	2970.4312	970.05	84.5
1024.1609	2971.5102	960.55	82.3
1024.274	2972.5885	959.8	83.1
1024.3871	2973.6662	969.25	86.05
1024.5002	2974.7432	962.4	84.8
1024.6132	2975.8196	958.75	80.9
1024.7261	2976.8954	959.95	82.35
1024.839	2977.9705	961.55	80.8
1024.9519	2979.045	962.4	85.05
1025.0647	2980.1188	963.6	86.3
1025.1775	2981.192	956.75	79.65
1025.2902	2982.2645	961.95	81.6
1025.4029	2983.3364	955.3	75.9
1025.5156	2984.4077	953.8	75.75
1025.6282	2985.4783	956.95	71.65
1025.7407	2986.5483	950.2	72.75
1025.8532	2987.6177	946.85	68.35
1025.9657	2988.6864	947.05	68.55
1026.0782	2989.7545	946.1	68.25
1026.1906	2990.8219	941.1	62.7
1026.3029	2991.8887	939.9	57.85
1026.4152	2992.9548	938.1	60.4
1026.5275	2994.0204	932.1	53.85
1026.6397	2995.0852	930.75	54.7
1026.7519	2996.1495	928.8	49.3
1026.864	2997.2131	925.2	47.95
1026.9761	2998.276	925	45.1
1027.0882	2999.3383	922.15	41.75
1027.2002	3000.4	918.55	38.6
1027.3122	3001.4611	921.85	43.05
1027.4241	3002.5215	916.7	37.3
1027.536	3003.5812	914.4	36.4
1027.6478	3004.6404	913.9	36.35
1027.7596	3005.6989	914.95	34.95
1027.8714	3006.7567	912.2	32.05
1027.9831	3007.8139	944.65	35.25
1028.0947	3008.8705	911	31.2
1028.2064	3009.9264	914.25	33.2
1028.3179	3010.9818	907.9	28.2
1028.4295	3012.0364	910.7	30.65
1028.541	3013.0905	909	31.15
1028.6524	3014.1439	908.8	29.5
1028.7638	3015.1966	909.15	30.4
1028.8752	3016.2487	905.65	25.15
1028.9865	3017.3002	909.75	27.7
1029.0978	3018.3511	905.55	28.95
1029.209	3019.4013	906.05	27.9
1029.3202	3020.4509	905.8	27.35
1029.4314	3021.4998	904.55	26.35
1029.5425	3022.5481	907.5	27.95
1029.6535	3023.5958	902.55	24.2
1029.7645	3024.6428	906.05	27.7
1029.8755	3025.6892	903.55	25.5
1029.9864	3026.735	902.55	24.1
1030.0973	3027.7802	904.2	25.85
1030.2082	3028.8247	903.95	25
1030.319	3029.8685	905.25	25.15
1030.4297	3030.9118	905.75	26.7
1030.5404	3031.9544	905.6	28.9
1030.6511	3032.9963	904.1	26.3
1030.7617	3034.0376	903.45	25
1030.8723	3035.0783	905.8	23.05
1030.9829	3036.1184	906.7	26.8
1031.0934	3037.1578	904.1	28.2
1031.2038	3038.1966	906.55	27.9
1031.3142	3039.2348	905.7	26.3
1031.4246	3040.2723	913.45	25.55
1031.5349	3041.3092	901.7	24.35
1031.6452	3042.3455	905.85	25.4
1031.7554	3043.3811	905.5	26.65
1031.8656	3044.4161	906.3	28.25
1031.9758	3045.4505	902.65	25.9
1032.0859	3046.4842	904.3	25.95
1032.1959	3047.5173	902.65	24.3
1032.3059	3048.5498	905.1	25.5
1032.4159	3049.5816	904.95	25.25
1032.5258	3050.6128	905.8	28.1
1032.6357	3051.6434	906	23.6
1032.7455	3052.6734	906.3	27.75
1032.8553	3053.7027	905.8	25.65
1032.9651	3054.7314	904	26.85
1033.0748	3055.7594	906.6	29.3
1033.1845	3056.7868	905.7	26.75
1033.2941	3057.8136	905.5	28.5
1033.4037	3058.8398	904.45	24.55
1033.5132	3059.8653	906.4	29.3
1033.6227	3060.8902	905.3	27.25
1033.7321	3061.9145	906.3	29.4
1033.8415	3062.9381	906.1	26.15
1033.9509	3063.9612	925.35	31.05
1034.0602	3064.9835	908.6	30.25
1034.1694	3066.0053	907.3	27.3
1034.2787	3067.0264	904.4	26.75
1034.3878	3068.0469	908.2	28.65
1034.497	3069.0668	909.6	26.75
1034.6061	3070.086	904.95	28.6
1034.7151	3071.1046	907.3	28.55
1034.8241	3072.1226	906.65	25.7
1034.9331	3073.1399	904.65	26
1035.042	3074.1567	904.4	23.7
1035.1508	3075.1727	906.4	26.65
1035.2597	3076.1882	903	26.05
1035.3684	3077.203	904.2	23
1035.4772	3078.2173	904.6	24
1035.5859	3079.2308	905.1	21.6
1035.6945	3080.2438	904.55	23.35
1035.8031	3081.2561	901.4	24.5
1035.9117	3082.2678	900.9	21.85
1036.0202	3083.2789	902.2	24.2
1036.1286	3084.2893	897.15	19.25
1036.2371	3085.2991	899.55	21.3
1036.3454	3086.3083	902.55	19.8
1036.4538	3087.3169	900.2	21.35
1036.562	3088.3248	900.1	19.55
1036.6703	3089.3321	901.7	22.35
1036.7785	3090.3388	898.1	20.65
1036.8866	3091.3449	897.4	19.55
1036.9948	3092.3503	898.85	18.65
1037.1028	3093.3551	894.4	18.3
1037.2108	3094.3593	895.5	18.6
1037.3188	3095.3629	895.55	18.85
1037.4267	3096.3658	896.85	17.4
1037.5346	3097.3681	896.4	18.6
1037.6425	3098.3698	899.2	18.9
1037.7503	3099.3708	896.05	17.6
1037.858	3100.3713	895.35	17.25
1037.9657	3101.3711	895.85	17.9
1038.0734	3102.3702	1033	20.35
1038.181	3103.3688	898.9	22.15
1038.2886	3104.3667	894.3	16.25
1038.3961	3105.364	894.75	16.45
1038.5036	3106.3607	897.55	17.95
1038.611	3107.3568	895.55	15.3
1038.7184	3108.3522	894.7	18.05
1038.8257	3109.347	895.65	17.95
1038.933	3110.3412	895.2	12.3
1039.0403	3111.3348	892.55	15.15
1039.1475	3112.3277	891.15	12
1039.2547	3113.32	893.9	16.75
1039.3618	3114.3117	895.05	16.05
1039.4689	3115.3028	891.7	13.85
1039.5759	3116.2932	892.9	12.6
1039.6829	3117.2831	897.2	14.85
1039.7898	3118.2723	893.25	14.45
1039.8967	3119.2608	891.65	14.2
1040.0035	3120.2488	892.95	13.25
1040.1103	3121.2361	892.65	14.4
1040.2171	3122.2229	890.5	11.3
1040.3238	3123.209	891.2	12.85
1040.4305	3124.1944	890.15	13.35
1040.5371	3125.1793	893.75	13.5
1040.6437	3126.1635	891.55	14.4
1040.7502	3127.1471	889.15	12.35
1040.8567	3128.1301	889.9	10.8
1040.9631	3129.1125	891.25	13.55
1041.0695	3130.0942	891.7	13.2
1041.1759	3131.0753	900.2	14.85
1041.2822	3132.0558	893.9	15.6
1041.3884	3133.0357	890.85	11.6
1041.4946	3134.015	891.15	10.8
1041.6008	3134.9936	889.75	10.25
1041.7069	3135.9716	910.95	9.9
1041.813	3136.949	889.55	10.35
1041.919	3137.9258	907.35	11.75
1042.025	3138.902	894.75	10.9
1042.1309	3139.8775	890.25	12.35
1042.2368	3140.8524	888.55	10.95
1042.3427	3141.8267	891.95	9.25
1042.4485	3142.8004	888.8	10.55
1042.5542	3143.7735	895.25	11.1
1042.6599	3144.7459	889.15	10.05
1042.7656	3145.7178	891.4	10.75
1042.8712	3146.689	890.15	12.9
1042.9768	3147.6596	889.95	8.15
1043.0823	3148.6295	890.85	13.45
1043.1878	3149.5989	889.35	12.7
1043.2932	3150.5676	886.75	8.9
1043.3986	3151.5357	888.55	13.05
1043.5039	3152.5032	888.25	10.45
1043.6092	3153.4701	887.3	10.75
1043.7145	3154.4364	890.65	11.35
1043.8197	3155.402	886.15	9.7
1043.9248	3156.367	890.1	9.45
1044.03	3157.3315	931.95	8.85
1044.135	3158.2952	887.05	9.05
1044.24	3159.2584	887.8	10.35
1044.345	3160.221	887.4	6.65
1044.4499	3161.1829	888.05	10.45
1044.5548	3162.1442	887.3	9.15
1044.6596	3163.105	888.9	9.6
1044.7644	3164.065	888.8	11.15
1044.8692	3165.0245	891.25	10
1044.9739	3165.9834	886.55	7.5
1045.0785	3166.9416	887.5	12
1045.1831	3167.8993	887.65	8
1045.2877	3168.8563	889.35	10.7
1045.3922	3169.8127	885.65	10.25
1045.4966	3170.7684	887.85	10.6
1045.6011	3171.7236	888.65	9.85
1045.7054	3172.6782	886.45	8.95
1045.8098	3173.6321	889	12.85
1045.914	3174.5854	891.75	11.45
1046.0183	3175.5381	886.4	7.75
1046.1224	3176.4902	885.65	7.2
1046.2266	3177.4417	886.55	6.75
1046.3307	3178.3926	885.65	8
1046.4347	3179.3428	885.95	9.35
1046.5387	3180.2924	883.4	4.95
1046.6427	3181.2415	887.85	10.1
1046.7466	3182.1899	886.1	8.95
1046.8504	3183.1377	887	9.55
1046.9542	3184.0848	890.8	11.15
1047.058	3185.0314	887.2	10.2
1047.1617	3185.9773	885.55	5.3
1047.2654	3186.9227	888.5	10.5
1047.369	3187.8674	885.9	7.75
1047.4726	3188.8115	890.45	6.6
1047.5761	3189.755	887.1	8.65
1047.6796	3190.6979	885.55	9.45
1047.783	3191.6402	882.15	4.7
1047.8864	3192.5818	888.45	10.65
1047.9898	3193.5229	912.7	9.15
1048.0931	3194.4633	886.15	9.75
1048.1963	3195.4031	885.75	6
1048.2995	3196.3423	885.5	8.95
1048.4027	3197.2809	888.65	11.1
1048.5058	3198.2189	886.6	8.4
1048.6089	3199.1563	891.2	6.45
1048.7119	3200.0931	884.8	9.55
1048.8148	3201.0292	883.85	6.55
1048.9178	3201.9648	887.45	8.8
1049.0206	3202.8997	887.45	6.65
1049.1235	3203.834	885.95	7.2
1049.2262	3204.7677	882.05	4.3
1049.329	3205.7008	889.5	11.35
1049.4317	3206.6333	883.05	6.3
1049.5343	3207.5652	888	6.7
1049.6369	3208.4964	885.45	5.3
1049.7394	3209.4271	884.55	7.7
1049.8419	3210.3571	884.1	7.1
1049.9444	3211.2865	886.6	9.7
1050.0468	3212.2154	885.75	10.35
1050.1491	3213.1436	888.55	7.75
1050.2514	3214.0712	889.85	4.25
1050.3537	3214.9982	885.3	7.35
1050.4559	3215.9246	885.35	5.2
1050.5581	3216.8503	884.35	7.15
1050.6602	3217.7755	884	5.95
1050.7623	3218.7001	882.7	4.7
1050.8643	3219.624	884.7	5.25
1050.9663	3220.5473	885.3	5.7
1051.0682	3221.4701	885.8	7.1
1051.1701	3222.3922	886.55	6.95
1051.2719	3223.3137	884.05	6.1
1051.3737	3224.2346	884.65	6.5
1051.4754	3225.1549	885.25	7.5
1051.5771	3226.0746	884.05	7.1
1051.6788	3226.9937	885.3	6.9
1051.7804	3227.9121	881.3	3.8
1051.8819	3228.83	885.25	6.95
1051.9834	3229.7473	884.85	6.9
1052.0849	3230.6639	884.65	6.55
1052.1863	3231.5799	884	6.85
1052.2876	3232.4954	883.8	4.2
1052.3889	3233.4102	885.15	9.75
1052.4902	3234.3244	883.65	3.95
1052.5914	3235.238	884.15	7.5
1052.6926	3236.151	910.25	9.3
1052.7937	3237.0634	883.3	7
1052.8948	3237.9752	883.45	5.25
1052.9958	3238.8864	881.7	3.5
1053.0968	3239.797	883.9	5.55
1053.1977	3240.7069	885.25	6.1
1053.2986	3241.6163	884.65	3.9
1053.3994	3242.5251	881.3	4.5
1053.5002	3243.4332	885	9.85
1053.6009	3244.3408	885.25	7.15
1053.7016	3245.2477	882.55	5.2
1053.8022	3246.154	886.8	7.55
1053.9028	3247.0598	883.55	5
1054.0034	3247.9649	882.75	4.85
1054.1039	3248.8694	883.3	5.2
1054.2043	3249.7733	882.5	5.6
1054.3047	3250.6766	882.6	3.45
1054.4051	3251.5793	884.55	5.55
1054.5054	3252.4814	883.75	7.6
1054.6056	3253.3829	882.65	6.35
1054.7058	3254.2838	884.2	5.75
1054.806	3255.1841	882.55	5.4
1054.9061	3256.0838	882.65	4.05
1055.0061	3256.9829	883.15	5.2
1055.1062	3257.8814	884.5	3.4
1055.2061	3258.7792	883.45	4.25
1055.306	3259.6765	882.1	2.6
1055.4059	3260.5731	883.9	7
1055.5057	3261.4692	883.65	4.35
1055.6055	3262.3647	883.3	3.95
1055.7052	3263.2595	885.65	5.75
1055.8049	3264.1538	882.5	5.5
1055.9045	3265.0474	883.8	3.35
1056.0041	3265.9404	884.25	7.6
1056.1036	3266.8329	882.6	6.45
1056.2031	3267.7247	893.25	5.8
1056.3025	3268.616	882.35	6.95
1056.4019	3269.5066	881.75	4
1056.5013	3270.3966	883.15	3.45
1056.6005	3271.286	880.5	3.8
