Software Version:	3.9.2.0
Unit SN:	10000200
Spectrometer SN:	6960
Date:	3/8/2024 12:38:26 PM
Data Line Index:	25
Spectral Points:	2048
Integration time (ms):	125
Averages:	20
Delay (ms):	30000
Sequence Number:	1
Processing:	dark subtract
Laser Power (mW):	305
Laser Current (mA):	821
Laser Diode Temp (C):	25
Laser Case Temp (C):	26
System Temp (C):	26
Spectrometer Temp (C):	23.9
CCD Temp (C):	0.004
Secondary Temp (C):	20.008
Heatsink Temp (C):	20.911
CCDPCB Temp (C):	36.185
SecondaryPCB Temp (C):	29.07

Wavelength	RamanShift	Raw Counts	Dark Subtracted
787.061	30.1047	447.6	38.25
787.2016	32.3739	447.15	39.2
787.3422	34.6426	451.6	43.6
787.4828	36.9109	458.2	48.45
787.6235	39.1787	464.95	49.55
787.7642	41.4461	473.1	54.45
787.9049	43.7131	482.6	60.25
788.0456	45.9796	488	64.5
788.1863	48.2456	497.8	68.7
788.3271	50.5112	507.35	72.65
788.4679	52.7764	510	73.8
788.6087	55.0411	524.65	81.9
788.7496	57.3054	533.05	86
788.8904	59.5692	542.25	94.55
789.0313	61.8326	551.15	101.7
789.1722	64.0955	559.9	106.75
789.3132	66.3579	575.95	117
789.4541	68.6199	593.55	129.2
789.5951	70.8815	624.9	159.55
789.7361	73.1426	700.5	228.55
789.8771	75.4032	881.65	405.55
790.0181	77.6634	1338.2	858.6
790.1592	79.9231	2426.15	1938.15
790.3003	82.1824	4691.7	4185.35
790.4414	84.4412	8747.65	8210.35
790.5825	86.6995	14231.35	13650
790.7237	88.9574	19497.85	18878.55
790.8648	91.2148	23084.4	22439.15
791.006	93.4717	24677.45	24022
791.1472	95.7282	24882.75	24217.65
791.2885	97.9842	24553.65	23889.25
791.4297	100.2398	23880.15	23207.75
791.571	102.4949	23130	22455.5
791.7123	104.7495	22281.35	21610.15
791.8536	107.0036	21437.15	20759.35
791.9949	109.2573	20703.35	20026.7
792.1363	111.5105	20054.9	19376.15
792.2777	113.7632	19444.35	18761.65
792.4191	116.0154	18932.55	18239.25
792.5605	118.2672	18570.8	17880.2
792.7019	120.5185	18222.15	17533.75
792.8434	122.7693	17992.9	17300.95
792.9849	125.0197	17764.35	17071.8
793.1264	127.2696	17503.1	16807.4
793.2679	129.519	17275.6	16573.6
793.4094	131.7679	17088.15	16381.05
793.551	134.0163	16836.5	16127.2
793.6926	136.2642	16523.45	15812.4
793.8342	138.5117	16203.05	15481.2
793.9758	140.7587	15858.25	15143.4
794.1175	143.0052	15560.15	14840.15
794.2591	145.2512	15221.5	14501.1
794.4008	147.4967	14940.9	14221
794.5425	149.7417	14719	14000
794.6842	151.9863	14576.5	13849.25
794.826	154.2304	14454.6	13722.4
794.9677	156.4739	14311.4	13577.65
795.1095	158.717	14191.3	13457.9
795.2513	160.9596	14051.4	13308.6
795.3931	163.2017	13841.65	13098.85
795.535	165.4433	13609.25	12863.85
795.6768	167.6844	13296.1	12551
795.8187	169.925	13045.25	12297.55
795.9606	172.1651	12766.8	12019.55
796.1025	174.4047	12543.8	11790.3
796.2445	176.6439	12340.05	11590.45
796.3864	178.8825	12151.6	11395.8
796.5284	181.1206	12019.9	11253.85
796.6704	183.3582	11929.85	11161.7
796.8124	185.5954	11844.3	11074.8
796.9544	187.832	11774.75	11002.1
797.0965	190.0681	11757.15	10984.45
797.2386	192.3037	11778.3	11001.05
797.3806	194.5388	11761.45	10981.45
797.5228	196.7734	11786.25	11003.35
797.6649	199.0075	11873.7	11088.65
797.807	201.2411	11938.55	11152.25
797.9492	203.4742	12002.05	11213.35
798.0914	205.7068	12157.45	11362.55
798.2336	207.9389	12260.1	11466.25
798.3758	210.1704	12378	11592.2
798.518	212.4015	12457.65	11680.4
798.6603	214.632	12586.05	11815.95
798.8025	216.862	12705.5	11936.95
798.9448	219.0915	12790.4	12018.6
799.0871	221.3205	12889.55	12113.3
799.2294	223.549	12943.75	12174.15
799.3718	225.777	12982.8	12213.45
799.5141	228.0044	13054.75	12278.2
799.6565	230.2314	13168.05	12386.55
799.7989	232.4578	13222.65	12440.65
799.9413	234.6837	13290.25	12500.65
800.0837	236.909	13356.9	12567.15
800.2262	239.1339	13340.7	12521.7
800.3687	241.3582	13283.15	12477.25
800.5111	243.582	13239.9	12406.9
800.6536	245.8053	13184.7	12364.15
800.7961	248.0281	13170.35	12356.1
800.9387	250.2503	13142.5	12323.9
801.0812	252.472	13214.9	12396.9
801.2238	254.6932	13313	12497.05
801.3664	256.9139	13426.05	12605.85
801.509	259.134	13624.4	12799.7
801.6516	261.3536	13831.85	13009.15
801.7942	263.5727	14140.8	13316.8
801.9369	265.7912	14370.3	13543.35
802.0795	268.0092	14649.5	13824.05
802.2222	270.2267	14860.05	14038.45
802.3649	272.4436	15011.65	14187.65
802.5076	274.6601	15020.2	14183.6
802.6504	276.8759	14978.65	14148
802.7931	279.0913	14906.65	14076.6
802.9359	281.3061	14790.3	13957.5
803.0787	283.5204	14733.05	13894.75
803.2215	285.7341	14727.45	13888.15
803.3643	287.9473	14762.25	13910.9
803.5071	290.16	14762.2	13921.9
803.6499	292.3721	14805.45	13966.45
803.7928	294.5837	14949.65	14109.85
803.9357	296.7947	15072.6	14232.2
804.0786	299.0052	15237.05	14395.5
804.2215	301.2152	15236.8	14393.2
804.3644	303.4246	15130.25	14294.45
804.5074	305.6334	14862.7	14026.7
804.6503	307.8418	14542.2	13702.7
804.7933	310.0495	14207.8	13364.8
804.9363	312.2568	13835.85	12992.6
805.0793	314.4635	13481.9	12635.95
805.2223	316.6696	13173.35	12322.8
805.3653	318.8752	12961.6	12100.15
805.5084	321.0802	12865.9	12016.4
805.6514	323.2847	12867.2	12011.65
805.7945	325.4887	12883.8	12035.75
805.9376	327.692	12895.05	12038.2
806.0807	329.8949	12868	12015.05
806.2238	332.0972	12742.9	11886.65
806.367	334.2989	12565.85	11708.75
806.5101	336.5001	12364.15	11501.1
806.6533	338.7007	12196.05	11333.15
806.7965	340.9008	12045.55	11181.5
806.9397	343.1003	11877.6	11017.6
807.0829	345.2992	11799.75	10934.75
807.2261	347.4976	11677.55	10815.25
807.3693	349.6955	11595.7	10728.55
807.5126	351.8927	11591.15	10722.05
807.6559	354.0895	11484	10600.6
807.7991	356.2856	11464.95	10593.05
807.9424	358.4812	11419.75	10553.4
808.0857	360.6763	11413.35	10538.4
808.2291	362.8707	11394.3	10518.6
808.3724	365.0646	11450.05	10574.65
808.5158	367.258	11465.9	10588.25
808.6591	369.4508	11531.3	10648.8
808.8025	371.643	11640.05	10759.4
808.9459	373.8346	11745.1	10864.05
809.0893	376.0257	11820.8	10937.05
809.2327	378.2162	11858	10975.6
809.3762	380.4062	11858.25	10976.85
809.5196	382.5956	11743.85	10864.15
809.6631	384.7844	11676.75	10799.8
809.8066	386.9726	11531.9	10660.15
809.9501	389.1603	11478.7	10606.4
810.0936	391.3474	11458.95	10550.1
810.2371	393.5339	11406.4	10526.55
810.3806	395.7199	11369.45	10494.2
810.5241	397.9052	11413.45	10541.8
810.6677	400.09	11498.55	10619.9
810.8113	402.2743	11647.8	10773.4
810.9548	404.4579	11796.75	10917.8
811.0984	406.641	11974.8	11099.6
811.2421	408.8235	12142.55	11264.3
811.3857	411.0054	12243.35	11363.05
811.5293	413.1868	12359.85	11471.65
811.673	415.3675	12390.65	11496.5
811.8166	417.5477	12390.25	11499.9
811.9603	419.7273	12302.65	11409.3
812.104	421.9064	12237.45	11339.95
812.2477	424.0848	12187.65	11301.05
812.3914	426.2627	12068.6	11181.1
812.5351	428.4399	11866.55	10976.35
812.6788	430.6166	11595.95	10697.35
812.8226	432.7928	11311.75	10410.55
812.9663	434.9683	11046.05	10151.3
813.1101	437.1432	10840.8	9949.75
813.2539	439.3176	10701.2	9813.65
813.3977	441.4914	10612.45	9730.55
813.5415	443.6645	10562.05	9674.95
813.6853	445.8371	10548.5	9660.2
813.8291	448.0091	10520.55	9625.85
813.973	450.1806	10502.65	9610.05
814.1168	452.3514	10500.1	9611.1
814.2607	454.5216	10533.25	9633.1
814.4046	456.6913	10490.45	9599.4
814.5485	458.8603	10538.7	9646.55
814.6924	461.0288	10577.95	9691.5
814.8363	463.1967	10546.25	9664
814.9802	465.3639	10580	9695.45
815.1241	467.5306	10558.75	9669.35
815.2681	469.6967	10540.2	9649.9
815.412	471.8622	10525.45	9637.5
815.556	474.0271	10591.6	9701
815.7	476.1914	10621.5	9725.4
815.844	478.3551	10630.9	9736.95
815.988	480.5182	10673.75	9785.85
816.132	482.6807	10750.9	9870.2
816.276	484.8426	10908.15	10034.45
816.4201	487.0039	11165.3	10280.9
816.5641	489.1647	11510.6	10620.05
816.7082	491.3248	11785.6	10886.55
816.8522	493.4843	11863.95	10974.6
816.9963	495.6432	11847.2	10958.75
817.1404	497.8015	11698.55	10800.55
817.2845	499.9592	11615.45	10711.9
817.4286	502.1163	11438.4	10534.8
817.5727	504.2728	11145.9	10247.5
817.7168	506.4287	10915.5	10027.6
817.861	508.5839	10683.2	9797.1
818.0051	510.7386	10497.8	9606.8
818.1493	512.8927	10430.45	9519.6
818.2935	515.0461	10420.95	9519.8
818.4377	517.199	10476.45	9572.6
818.5818	519.3512	10676.2	9770.3
818.726	521.5029	10911.95	10004.55
818.8703	523.6539	11159.4	10253.5
819.0145	525.8043	11259.3	10353.15
819.1587	527.9541	11176.6	10268.45
819.303	530.1033	11006.8	10103.35
819.4472	532.2519	10869.55	9964.6
819.5915	534.3999	10766.65	9857.85
819.7357	536.5472	10817	9915.6
819.88	538.694	10958	10061.15
820.0243	540.8401	11157.7	10250.9
820.1686	542.9856	11314.9	10401.2
820.3129	545.1305	11350.7	10429.05
820.4572	547.2748	11287.45	10365.6
820.6016	549.4185	11149.3	10226.8
820.7459	551.5615	11060.55	10143.45
820.8902	553.704	11093.6	10179.65
821.0346	555.8458	11158.4	10246.25
821.1789	557.987	11312.7	10401.25
821.3233	560.1276	11513.95	10598.9
821.4677	562.2675	11893.7	10979.1
821.6121	564.4069	12375.5	11462.8
821.7565	566.5456	12798.85	11886.6
821.9009	568.6837	12944.8	12034
822.0453	570.8212	12633.55	11726.95
822.1897	572.958	11997.1	11085.5
822.3342	575.0942	11392.45	10484.9
822.4786	577.2299	11019.75	10113.55
822.6231	579.3648	10820.8	9924.9
822.7675	581.4992	10729.7	9840.95
822.912	583.6329	10779.3	9896.9
823.0565	585.766	10921.75	10030.25
823.201	587.8985	11054.95	10157.5
823.3454	590.0304	11142.65	10209.3
823.4899	592.1616	11133.85	10219.95
823.6345	594.2922	11023.2	10103.15
823.779	596.4222	10820.2	9900.45
823.9235	598.5515	10645.8	9725.7
824.068	600.6802	10502.5	9580.45
824.2126	602.8083	10384.95	9468.1
824.3571	604.9358	10358.2	9441.1
824.5017	607.0626	10384.8	9461.65
824.6462	609.1888	10495.9	9569.65
824.7908	611.3144	10622.95	9695.2
824.9354	613.4393	10747.45	9821.6
825.08	615.5636	10894	9968.7
825.2246	617.6873	10925.35	10002.25
825.3692	619.8103	10883	9958.9
825.5138	621.9327	10698.95	9776.9
825.6584	624.0544	10488.9	9574.35
825.803	626.1756	10297.1	9380.05
825.9477	628.2961	10166.8	9242.45
826.0923	630.4159	10077.05	9151.75
826.237	632.5351	10072.2	9147.55
826.3816	634.6537	10075	9149.05
826.5263	636.7716	10058.2	9129
826.6709	638.8889	10084.85	9155.35
826.8156	641.0056	10120.55	9188
826.9603	643.1216	10079.4	9146
827.105	645.237	10057.95	9130.6
827.2497	647.3518	9950.15	9031.45
827.3944	649.4659	9889.45	8975.35
827.5391	651.5793	9838.15	8918.4
827.6838	653.6922	9813.05	8890.1
827.8285	655.8043	9795.7	8874.8
827.9733	657.9159	9811.4	8890.5
828.118	660.0268	9778.55	8854.8
828.2627	662.137	9814.75	8890.1
828.4075	664.2466	9801.55	8867.55
828.5522	666.3556	9802.55	8873.35
828.697	668.4639	9746.65	8817.2
828.8418	670.5716	9703.25	8782.75
828.9865	672.6786	9646.7	8720.4
829.1313	674.785	9601.9	8669.6
829.2761	676.8907	9570.95	8642.75
829.4209	678.9958	9567.95	8647.3
829.5657	681.1002	9521.4	8591.15
829.7105	683.204	9540.6	8602.9
829.8553	685.3072	9530.3	8595.15
830.0001	687.4097	9523.45	8592
830.1449	689.5115	9525.55	8593.75
830.2898	691.6127	9518.15	8588.35
830.4346	693.7132	9477.85	8553.75
830.5794	695.8131	9523.75	8569.7
830.7243	697.9123	9544.4	8610.75
830.8691	700.0109	9551.1	8615.05
831.014	702.1089	9615.35	8685.75
831.1588	704.2061	9651.35	8719.2
831.3037	706.3028	9738.9	8803.7
831.4486	708.3987	9777.45	8837.55
831.5935	710.4941	9786.1	8853.25
831.7383	712.5887	9799.5	8862.5
831.8832	714.6827	9833.2	8896.7
832.0281	716.7761	9934.35	9003.8
832.173	718.8688	10073.65	9139.6
832.3179	720.9608	10174.5	9232.1
832.4628	723.0522	10297.25	9354.5
832.6077	725.1429	10390.95	9448.85
832.7527	727.233	10448.1	9509.5
832.8976	729.3224	10551.8	9614.75
833.0425	731.4112	10526.3	9589.8
833.1874	733.4993	10415.4	9480.05
833.3324	735.5867	10214.5	9279.2
833.4773	737.6735	9989.25	9053.75
833.6222	739.7596	9830.35	8890.75
833.7672	741.845	9687.05	8753.15
833.9122	743.9298	9607.25	8672.6
834.0571	746.014	9548.8	8610.95
834.2021	748.0974	9565.05	8622.3
834.347	750.1802	9573.95	8634.25
834.492	752.2624	9610.15	8667.1
834.637	754.3439	9648.4	8705.75
834.782	756.4247	9718.7	8765.5
834.9269	758.5048	9875.45	8934.15
835.0719	760.5843	10092.65	9151.15
835.2169	762.6631	10457.9	9512.85
835.3619	764.7413	10932.2	9990.3
835.5069	766.8188	11537.1	10597.25
835.6519	768.8956	12073.95	11130.15
835.7969	770.9718	12452.35	11509.85
835.9419	773.0473	12423.3	11483.15
836.0869	775.1221	12203.65	11261.8
836.232	777.1962	11983.45	11042.55
836.377	779.2697	11907.9	10964.85
836.522	781.3426	12006.1	11049.95
836.667	783.4147	12096.3	11149.6
836.8121	785.4862	12100.55	11158.65
836.9571	787.557	11937.3	10989.5
837.1021	789.6271	11505.55	10557.45
837.2472	791.6966	10963.85	10018.3
837.3922	793.7654	10406.9	9465.65
837.5373	795.8335	10026.5	9082.1
837.6823	797.901	9775.15	8832.95
837.8274	799.9678	9645.4	8700.65
837.9724	802.0339	9504.85	8556.1
838.1175	804.0993	9488.85	8535.3
838.2626	806.1641	9429.1	8484.65
838.4076	808.2282	9345.4	8404.8
838.5527	810.2916	9281.75	8338.05
838.6978	812.3544	9206.5	8264.9
838.8428	814.4164	9190.05	8245.3
838.9879	816.4778	9231.05	8280.85
839.133	818.5385	9287.5	8338.35
839.2781	820.5986	9390.25	8437
839.4232	822.658	9626.55	8676.1
839.5682	824.7166	9910.6	8962.95
839.7133	826.7747	10386.4	9442
839.8584	828.832	10878.75	9931.7
840.0035	830.8886	11249.75	10299.3
840.1486	832.9446	11441.9	10489.4
840.2937	834.9999	11314.35	10364.6
840.4388	837.0545	11039.05	10087.2
840.5839	839.1085	10715	9766.95
840.729	841.1618	10364.5	9415.6
840.8741	843.2143	10116.15	9164.6
841.0192	845.2662	9909.4	8961.5
841.1643	847.3175	9780.65	8833.95
841.3095	849.368	9688.85	8738.85
841.4546	851.4179	9607.45	8663.6
841.5997	853.467	9526.1	8574.8
841.7448	855.5155	9504.05	8553.4
841.8899	857.5633	9434.25	8482.45
842.0351	859.6105	9352.85	8404.7
842.1802	861.6569	9276.2	8327.6
842.3253	863.7027	9211.9	8260.4
842.4704	865.7478	9197.75	8243.3
842.6156	867.7922	9142.45	8192.85
842.7607	869.8359	9110.45	8162.45
842.9058	871.8789	9128.75	8178.6
843.0509	873.9212	9191.1	8206.3
843.1961	875.9629	9223.6	8266.05
843.3412	878.0039	9297.45	8344.4
843.4863	880.0441	9400.9	8451.6
843.6315	882.0837	9458.2	8507
843.7766	884.1226	9507	8556.6
843.9218	886.1609	9562.65	8614.3
844.0669	888.1984	9694.15	8745.05
844.212	890.2352	9780.6	8830.3
844.3572	892.2714	9842.15	8886.8
844.5023	894.3069	9782.25	8831.05
844.6475	896.3416	9638.25	8682.2
844.7926	898.3757	9493.7	8538.55
844.9377	900.4091	9399.6	8443.8
845.0829	902.4418	9394.05	8434.9
845.228	904.4739	9413.35	8457.25
845.3732	906.5052	9459.65	8505.6
845.5183	908.5358	9429.65	8475.9
845.6635	910.5658	9336.1	8378.15
845.8086	912.595	9137.3	8184.55
845.9538	914.6236	8939.6	7991.6
846.0989	916.6515	8809.65	7858.65
846.2441	918.6786	8739.65	7780.65
846.3892	920.7051	8723.95	7767.2
846.5344	922.7309	8771.1	7812.35
846.6795	924.756	8772.9	7821.95
846.8246	926.7804	8847.65	7894.75
846.9698	928.8041	8833.75	7878.1
847.1149	930.8272	8895.75	7940.9
847.2601	932.8495	8871.6	7913.85
847.4052	934.8711	8871.75	7916.55
847.5504	936.892	8837.2	7883.75
847.6955	938.9123	8855.15	7900.65
847.8407	940.9318	8890.95	7937.25
847.9858	942.9506	8900.65	7947.9
848.131	944.9688	8845.2	7890.3
848.2761	946.9862	8773.8	7818.65
848.4213	949.003	8631.95	7681.85
848.5664	951.019	8545.85	7593.25
848.7115	953.0344	8457.9	7506.1
848.8567	955.0491	8449.2	7495.15
849.0018	957.063	8480.45	7528.9
849.147	959.0763	8522.4	7569.05
849.2921	961.0888	8567.55	7614.8
849.4373	963.1007	8601	7650.4
849.5824	965.1119	8608.5	7664.85
849.7275	967.1223	8598.35	7660.25
849.8727	969.1321	8557.5	7619.45
850.0178	971.1412	8547.45	7603.45
850.1629	973.1495	8539.9	7592.75
850.3081	975.1572	8582.45	7576.8
850.4532	977.1641	8565.45	7610.9
850.5983	979.1704	8553.3	7596.9
850.7435	981.1759	8500.3	7541.55
850.8886	983.1808	8529.2	7575.8
851.0337	985.1849	8526.9	7563.3
851.1788	987.1884	8601	7644.9
851.324	989.1911	8654.1	7702.05
851.4691	991.1932	8688.35	7734.95
851.6142	993.1945	8701.05	7750.05
851.7593	995.1951	8657.95	7708.45
851.9045	997.1951	8645.1	7685.5
852.0496	999.1943	8636.35	7681.35
852.1947	1001.1928	8632.85	7677.6
852.3398	1003.1906	8665.35	7715.45
852.4849	1005.1877	8765.15	7813.8
852.63	1007.1841	8828.95	7877.85
852.7751	1009.1798	8911.7	7961.15
852.9202	1011.1748	8834.75	7883.5
853.0653	1013.1691	8702.8	7748.75
853.2104	1015.1627	8525.3	7576
853.3555	1017.1556	8345.5	7392.45
853.5006	1019.1477	8251.7	7304.2
853.6457	1021.1392	8152.4	7211.35
853.7908	1023.1299	8103.4	7161.65
853.9359	1025.12	8111.9	7176
854.081	1027.1093	8154.45	7231
854.2261	1029.0979	8260	7340.55
854.3712	1031.0859	8348.8	7422.7
854.5163	1033.0731	8393.45	7456.9
854.6613	1035.0596	8371.35	7429.95
854.8064	1037.0454	8266.55	7321.45
854.9515	1039.0304	8199.2	7252.55
855.0965	1041.0148	8092.8	7148
855.2416	1042.9985	8002.4	7053.35
855.3867	1044.9814	7967.95	7021.1
855.5317	1046.9636	7919.4	6968
855.6768	1048.9452	7916.05	6967.9
855.8219	1050.926	7949.2	7002.05
855.9669	1052.9061	7967.5	7016.85
856.112	1054.8855	7995.75	7047.8
856.257	1056.8642	8034.35	7085.75
856.4021	1058.8421	8073.15	7121.75
856.5471	1060.8194	8095	7146.8
856.6921	1062.7959	8137.9	7189.25
856.8372	1064.7717	8194.75	7243.5
856.9822	1066.7469	8264.25	7311
857.1272	1068.7213	8341.3	7389.2
857.2723	1070.695	8420.7	7475.65
857.4173	1072.6679	8477.4	7526.6
857.5623	1074.6402	8500.1	7547.85
857.7073	1076.6117	8452.85	7495.8
857.8523	1078.5826	8365.4	7414.15
857.9973	1080.5527	8222.2	7270.35
858.1423	1082.5221	8114.65	7165.35
858.2873	1084.4908	8059.55	7111.25
858.4323	1086.4587	8052.05	7101.65
858.5773	1088.426	8053.15	7103
858.7223	1090.3925	8086.7	7131.9
858.8673	1092.3584	8122.1	7176.15
859.0123	1094.3235	8135.95	7184.3
859.1573	1096.2879	8242.45	7295.6
859.3022	1098.2515	8344.75	7395
859.4472	1100.2145	8484.15	7538.7
859.5922	1102.1767	8670.95	7720.85
859.7371	1104.1382	8890.9	7942.85
859.8821	1106.099	9112.8	8162.5
860.027	1108.0591	9308.75	8359.75
860.172	1110.0185	9448.85	8497.2
860.3169	1111.9771	9498	8551.25
860.4619	1113.9351	9454.7	8508.25
860.6068	1115.8923	9374.95	8427.2
860.7517	1117.8488	9263.5	8311.7
860.8967	1119.8045	9103.1	8156.6
861.0416	1121.7596	8991.05	8042.5
861.1865	1123.7139	8855.1	7910
861.3314	1125.6675	8811.15	7863.6
861.4763	1127.6204	8818.4	7870.6
861.6212	1129.5726	8754.45	7807.15
861.7661	1131.524	8701.85	7752.8
861.911	1133.4748	8572.15	7623.4
862.0559	1135.4248	8382.7	7437.45
862.2008	1137.3741	8231.35	7287.55
862.3457	1139.3226	8145.3	7198.6
862.4905	1141.2705	8072.35	7126.9
862.6354	1143.2176	8025.75	7075.8
862.7803	1145.164	7969.85	7020.45
862.9251	1147.1097	7887.85	6939.3
863.07	1149.0546	7822.35	6874.5
863.2148	1150.9989	7725.95	6774.85
863.3597	1152.9424	7654.4	6708.7
863.5045	1154.8852	7589.9	6641.1
863.6493	1156.8272	7559.4	6612.5
863.7942	1158.7686	7581.8	6629.65
863.939	1160.7092	7585.85	6636.55
864.0838	1162.6491	7626.3	6678.6
864.2286	1164.5883	7722.95	6778.5
864.3734	1166.5267	7818.9	6871.7
864.5182	1168.4644	7976.25	7030.95
864.663	1170.4014	8126.45	7176.85
864.8078	1172.3377	8353.5	7408.9
864.9526	1174.2732	8631.85	7688.9
865.0974	1176.2081	8999.85	8058.7
865.2421	1178.1421	9477.65	8529.9
865.3869	1180.0755	9983.9	9042.45
865.5317	1182.0082	10322.4	9377.45
865.6764	1183.9401	10457.15	9515.2
865.8212	1185.8713	10343.65	9408.4
865.9659	1187.8017	10027.65	9097.25
866.1106	1189.7315	9645.5	8723.8
866.2554	1191.6605	9259.9	8338.4
866.4001	1193.5888	9000.2	8071.8
866.5448	1195.5163	8854.65	7918.8
866.6895	1197.4432	8761.4	7821.2
866.8342	1199.3693	8724.9	7784.45
866.9789	1201.2947	8682	7732.3
867.1236	1203.2193	8679.8	7735.3
867.2683	1205.1432	8649.1	7711.15
867.413	1207.0664	8609.55	7668.2
867.5576	1208.9889	8563.8	7618.95
867.7023	1210.9106	8563.95	7621.85
867.847	1212.8316	8552.35	7611.2
867.9916	1214.7519	8589.8	7642.05
868.1363	1216.6715	8616.3	7673.85
868.2809	1218.5903	8713.55	7772.1
868.4255	1220.5084	8806.9	7866.9
868.5701	1222.4257	8896.95	7953.05
868.7148	1224.3424	8941.05	8006.1
868.8594	1226.2583	9080.7	8142.05
869.004	1228.1735	9215.2	8273.05
869.1486	1230.0879	9345.55	8402.25
869.2932	1232.0016	9519.75	8578.65
869.4377	1233.9146	9661.15	8718.8
869.5823	1235.8269	9738.2	8800.4
869.7269	1237.7384	9719.7	8777.9
869.8715	1239.6492	9631.7	8693.55
870.016	1241.5592	9641.7	8701.2
870.1606	1243.4686	9693	8749.1
870.3051	1245.3772	9859.05	8920.65
870.4496	1247.285	10126.8	9188.35
870.5941	1249.1922	10342.95	9405.6
870.7387	1251.0986	10531.4	9594.35
870.8832	1253.0042	10638.35	9700.9
871.0277	1254.9092	10718.7	9778.6
871.1722	1256.8134	10818	9879.8
871.3167	1258.7169	10929.7	9989.6
871.4611	1260.6196	11081.8	10143.25
871.6056	1262.5216	11255.35	10313.3
871.7501	1264.4229	11441.5	10506
871.8945	1266.3234	11582.25	10644.85
872.039	1268.2232	11717.05	10776.95
872.1834	1270.1223	11792.1	10852.35
872.3278	1272.0207	11826.15	10884.85
872.4723	1273.9183	11803.45	10860.8
872.6167	1275.8151	11744.3	10807.75
872.7611	1277.7113	11761.4	10820.3
872.9055	1279.6067	11886.3	10948.3
873.0499	1281.5014	12155.45	11215.55
873.1943	1283.3953	12560.05	11622.9
873.3386	1285.2885	13112.65	12177
873.483	1287.181	13689.7	12751.8
873.6274	1289.0727	14197.1	13261.05
873.7717	1290.9637	14521.6	13587.7
873.9161	1292.854	14743.45	13807.25
874.0604	1294.7435	14741.55	13806.2
874.2047	1296.6323	14553.35	13616.45
874.349	1298.5204	14346.4	13408.55
874.4933	1300.4077	14080.5	13142.9
874.6376	1302.2943	13781.65	12843.5
874.7819	1304.1802	13474.85	12536.05
874.9262	1306.0653	12994.9	12055.7
875.0705	1307.9497	12507.95	11571.05
875.2147	1309.8333	12074.65	11141.6
875.359	1311.7162	11765	10827.45
875.5032	1313.5984	11538.5	10597.95
875.6475	1315.4798	11394.9	10456.55
875.7917	1317.3605	11269.7	10327.55
875.9359	1319.2405	11161.95	10220.75
876.0801	1321.1197	10900.8	9958.8
876.2243	1322.9982	10606.55	9663.75
876.3685	1324.876	10320.55	9385.25
876.5127	1326.753	10046.55	9108.05
876.6569	1328.6293	9805.8	8865.95
876.801	1330.5048	9619.15	8678.05
876.9452	1332.3796	9427.95	8492.35
877.0893	1334.2537	9335.15	8369.75
877.2335	1336.127	9224.8	8285.4
877.3776	1337.9996	9188.75	8251.55
877.5217	1339.8714	9166.75	8227.75
877.6658	1341.7426	9180.6	8199.4
877.8099	1343.6129	9194.65	8252.45
877.954	1345.4826	9149.85	8209.9
878.0981	1347.3515	9187	8244.85
878.2422	1349.2196	9165.4	8228.1
878.3862	1351.087	9167.55	8228.5
878.5303	1352.9537	9204	8262.2
878.6743	1354.8197	9311.9	8372.5
878.8184	1356.6849	9449.4	8512.65
878.9624	1358.5493	9597.65	8661.5
879.1064	1360.4131	9766.6	8829.7
879.2504	1362.276	9949.15	9011.15
879.3944	1364.1383	9963.05	9026.8
879.5384	1365.9998	9829.05	8888.25
879.6823	1367.8606	9542	8604.3
879.8263	1369.7206	9261.05	8322.35
879.9702	1371.5799	8964.3	8025.45
880.1142	1373.4384	8729.25	7791.35
880.2581	1375.2962	8489.15	7548.6
880.402	1377.1533	8235.25	7299.65
880.5459	1379.0096	7931.05	7000.2
880.6898	1380.8652	7610.55	6679.45
880.8337	1382.7201	7347.7	6414.95
880.9776	1384.5742	7138.5	6205.3
881.1215	1386.4275	6978.8	6040.35
881.2653	1388.2802	6852	5915.45
881.4092	1390.132	6739.7	5802.75
881.553	1391.9832	6707.35	5765.9
881.6968	1393.8336	6625.75	5689.45
881.8406	1395.6832	6570.95	5630.4
881.9844	1397.5322	6541.3	5606.8
882.1282	1399.3803	6526.7	5589.35
882.272	1401.2278	6485.55	5549.45
882.4158	1403.0745	6482.9	5548.95
882.5595	1404.9204	6447.25	5510.8
882.7033	1406.7656	6441.3	5504.3
882.847	1408.6101	6489.9	5554.15
882.9908	1410.4538	6495.55	5556.7
883.1345	1412.2968	6519.2	5584.05
883.2782	1414.139	6539.1	5605.15
883.4219	1415.9805	6624.9	5690.75
883.5656	1417.8213	6673.9	5734.45
883.7092	1419.6613	6755.5	5822.9
883.8529	1421.5006	6894.75	5963.5
883.9965	1423.3391	7046.3	6112.9
884.1402	1425.1769	7290.3	6353.55
884.2838	1427.0139	7650.05	6714.15
884.4274	1428.8502	8083.8	7150.45
884.571	1430.6858	8536.8	7600.2
884.7146	1432.5206	8836.05	7902.75
884.8582	1434.3547	9047.6	8115.65
885.0018	1436.188	9066.65	8133.45
885.1453	1438.0206	8977.85	8044.4
885.2889	1439.8524	8863.25	7928.8
885.4324	1441.6835	8753.35	7818.05
885.5759	1443.5139	8655.95	7722.7
885.7194	1445.3435	8624.15	7690.45
885.8629	1447.1724	8583.7	7653.8
886.0064	1449.0005	8559.6	7627.35
886.1499	1450.8279	8517.05	7584.6
886.2933	1452.6545	8514.75	7584.3
886.4368	1454.4804	8546.5	7617.35
886.5802	1456.3056	8530.95	7593
886.7237	1458.13	8453.45	7523
886.8671	1459.9536	8331.4	7401.3
887.0105	1461.7766	8138.9	7206.8
887.1539	1463.5987	7880.75	6947.3
887.2972	1465.4202	7590.75	6657.1
887.4406	1467.2409	7324.35	6393
887.584	1469.0608	7077.3	6148.65
887.7273	1470.88	6863.4	5932.75
887.8706	1472.6984	6659.25	5733.55
888.0139	1474.5161	6490.15	5557.85
888.1572	1476.3331	6383.75	5451.1
888.3005	1478.1493	6276	5345.15
888.4438	1479.9648	6214.2	5281.35
888.5871	1481.7795	6148.7	5217.2
888.7303	1483.5935	6126.8	5196.65
888.8736	1485.4067	6079.5	5149.5
889.0168	1487.2192	6027.9	5098.3
889.16	1489.031	6014.5	5082.8
889.3032	1490.842	5974.75	5045.25
889.4464	1492.6522	5952.8	5023.1
889.5896	1494.4618	5915.35	4983.2
889.7327	1496.2705	5884.3	4954.25
889.8759	1498.0785	5831.05	4898.15
890.019	1499.8858	5825.15	4895.65
890.1622	1501.6924	5783.65	4854.6
890.3053	1503.4981	5756	4822.7
890.4484	1505.3032	5701.2	4773.7
890.5914	1507.1075	5664.3	4738.05
890.7345	1508.911	5625.4	4699.25
890.8776	1510.7138	5577.4	4646.3
891.0206	1512.5159	5549.5	4618.25
891.1637	1514.3172	5522.6	4594.7
891.3067	1516.1178	5469.65	4543.3
891.4497	1517.9176	5445.1	4513.85
891.5927	1519.7166	5407.05	4482
891.7357	1521.515	5405.85	4471.75
891.8786	1523.3126	5386.55	4460.1
892.0216	1525.1094	5352.35	4425.1
892.1645	1526.9055	5318.15	4392.45
892.3074	1528.7008	5307.8	4383.7
892.4503	1530.4954	5280.6	4357.15
892.5932	1532.2893	5276.25	4354.35
892.7361	1534.0824	5248.35	4319.15
892.879	1535.8747	5243.4	4322.4
893.0218	1537.6663	5247.75	4325.25
893.1647	1539.4572	5236.25	4309.4
893.3075	1541.2473	5247.15	4324.25
893.4503	1543.0367	5260.9	4341.65
893.5931	1544.8253	5281.05	4357.25
893.7359	1546.6132	5301.65	4376.9
893.8787	1548.4003	5314.9	4381.3
894.0214	1550.1867	5368.45	4437.95
894.1642	1551.9723	5431.05	4508.45
894.3069	1553.7572	5521.85	4601.4
894.4496	1555.5414	5614.95	4696.85
894.5923	1557.3247	5756.95	4838.4
894.735	1559.1074	5921.7	5009.3
894.8777	1560.8893	6082.5	5167.45
895.0204	1562.6705	6215.9	5297.65
895.163	1564.4509	6348.8	5433.8
895.3056	1566.2305	6406.85	5496.75
895.4482	1568.0094	6479.65	5565.7
895.5908	1569.7876	6450.2	5537.65
895.7334	1571.565	6429.85	5514.95
895.876	1573.3417	6409.75	5497.5
896.0186	1575.1176	6415.85	5502.55
896.1611	1576.8928	6435.65	5523.8
896.3036	1578.6672	6454.1	5547.1
896.4461	1580.4409	6490.95	5584
896.5886	1582.2138	6534.95	5625.1
896.7311	1583.986	6641.7	5728.7
896.8736	1585.7575	6729.8	5816.5
897.0161	1587.5282	6838.6	5930.75
897.1585	1589.2981	6933.05	6023.55
897.3009	1591.0673	7055.05	6148.15
897.4433	1592.8358	7152.85	6245.15
897.5857	1594.6035	7269.8	6358.7
897.7281	1596.3704	7363.55	6448.95
897.8705	1598.1366	7447.25	6538.1
898.0128	1599.9021	7526.9	6618.8
898.1551	1601.6668	7602.95	6692.15
898.2975	1603.4308	7729.55	6814.2
898.4398	1605.194	7864.15	6950.7
898.5821	1606.9564	8055.4	7151.1
898.7243	1608.7182	8273.8	7372.3
898.8666	1610.4791	8562.35	7666.7
899.0088	1612.2394	8879.5	7985.2
899.1511	1613.9988	9168.95	8272
899.2933	1615.7576	9443.05	8541.15
899.4355	1617.5156	9634.7	8717.45
899.5776	1619.2728	9679.45	8768.5
899.7198	1621.0293	9589.6	8680.3
899.862	1622.785	9331.35	8421.2
900.0041	1624.54	8972.15	8067.15
900.1462	1626.2942	8578.6	7673.75
900.2883	1628.0477	8159.85	7253.55
900.4304	1629.8005	7818.4	6913.05
900.5725	1631.5525	7471.6	6567.75
900.7145	1633.3037	7224.5	6321.9
900.8566	1635.0542	6987.35	6086.45
900.9986	1636.804	6814.65	5910.6
901.1406	1638.553	6742.4	5750.25
901.2826	1640.3013	6578.75	5675.2
901.4245	1642.0488	6531.85	5627.7
901.5665	1643.7955	6553.65	5654.1
901.7085	1645.5416	6575.4	5676.2
901.8504	1647.2868	6645.65	5745.15
901.9923	1649.0313	6735.45	5832.25
902.1342	1650.7751	6845.45	5939.65
902.2761	1652.5181	6950.9	6048.35
902.4179	1654.2604	7099.9	6201.9
902.5598	1656.0019	7312.7	6415.1
902.7016	1657.7427	7498.9	6598.75
902.8434	1659.4828	7719.75	6818
902.9852	1661.222	7859.65	6953.95
903.127	1662.9606	7837.75	6936.95
903.2687	1664.6984	7683.55	6777.75
903.4105	1666.4354	7325.65	6420.1
903.5522	1668.1717	6867.85	5961.25
903.6939	1669.9072	6376.65	5471.3
903.8356	1671.642	6004.35	5097.15
903.9773	1673.3761	5660.1	4755.95
904.119	1675.1094	5368.05	4464.45
904.2606	1676.8419	5159	4258.95
904.4022	1678.5737	4986.1	4084.15
904.5439	1680.3048	4861.05	3955.45
904.6855	1682.0351	4735.5	3830.95
904.827	1683.7646	4640.7	3734.55
904.9686	1685.4934	4567.45	3662.6
905.1101	1687.2215	4491.7	3589.6
905.2517	1688.9488	4427.2	3526.7
905.3932	1690.6754	4366.65	3467.5
905.5347	1692.4012	4332.6	3430.55
905.6761	1694.1263	4301.1	3397.9
905.8176	1695.8506	4247.25	3344.3
905.9591	1697.5742	4213.4	3313.15
906.1005	1699.297	4172.95	3276
906.2419	1701.0191	4135.75	3237.85
906.3833	1702.7404	4113.25	3215.3
906.5246	1704.461	4066.6	3164.1
906.666	1706.1808	4043.5	3141.55
906.8073	1707.8999	4029	3126.4
906.9487	1709.6182	3997.9	3103.3
907.09	1711.3358	3973.6	3078.45
907.2313	1713.0527	3949.8	3056.15
907.3725	1714.7688	3935.05	3036.1
907.5138	1716.4841	3919.25	3019.2
907.655	1718.1987	3909.2	3006.85
907.7962	1719.9126	3896.4	3000.5
907.9374	1721.6257	3861.75	2965.55
908.0786	1723.338	3858.45	2963.8
908.2198	1725.0496	3838.8	2942.45
908.3609	1726.7605	3828.75	2928.8
908.502	1728.4706	3808.2	2910.4
908.6431	1730.18	3806.2	2910.55
908.7842	1731.8886	3786.1	2891.55
908.9253	1733.5964	3795.45	2880.6
909.0664	1735.3036	3770.6	2871.05
909.2074	1737.0099	3746.8	2853.5
909.3484	1738.7156	3733.5	2840.8
909.4894	1740.4204	3710	2813.4
909.6304	1742.1246	3699.75	2801.95
909.7714	1743.8279	3663.7	2769.15
909.9123	1745.5306	3662.7	2768.35
910.0532	1747.2325	3647.4	2752.25
910.1941	1748.9336	3629.4	2736.25
910.335	1750.634	3628.9	2731
910.4759	1752.3336	3596.95	2698.8
910.6168	1754.0325	3587.55	2694.85
910.7576	1755.7307	3597.45	2703.05
910.8984	1757.4281	3590.5	2696
911.0392	1759.1247	3573.9	2667.55
911.18	1760.8206	3578.3	2674.05
911.3208	1762.5158	3574.95	2671.8
911.4615	1764.2102	3555.3	2657.2
911.6022	1765.9039	3531	2637
911.7429	1767.5968	3539.2	2646
911.8836	1769.289	3512.9	2619.8
912.0243	1770.9804	3507.85	2613.4
912.1649	1772.6711	3516.15	2617.35
912.3056	1774.361	3494.8	2595.55
912.4462	1776.0502	3482.8	2583.8
912.5868	1777.7386	3485.45	2583.85
912.7274	1779.4263	3465.95	2572.35
912.8679	1781.1132	3472.8	2580.45
913.0084	1782.7994	3454.05	2559.1
913.149	1784.4849	3456.2	2563.25
913.2895	1786.1696	3455.6	2544.05
913.4299	1787.8535	3439.2	2546.35
913.5704	1789.5367	3423.4	2534.3
913.7108	1791.2192	3427.35	2534.65
913.8513	1792.9009	3436.6	2517.5
913.9917	1794.5818	3405.2	2506.85
914.132	1796.2621	3411.7	2517.9
914.2724	1797.9415	3400.85	2505.05
914.4128	1799.6202	3403.2	2506.1
914.5531	1801.2982	3380.85	2483.9
914.6934	1802.9755	3385.15	2485.85
914.8337	1804.6519	3366.65	2469.35
914.9739	1806.3277	3357.05	2463.6
915.1142	1808.0027	3346.75	2454.7
915.2544	1809.6769	3353.6	2464
915.3946	1811.3504	3333.7	2442.3
915.5348	1813.0231	3333.85	2443.05
915.675	1814.6951	3313.65	2421.1
915.8151	1816.3664	3326.6	2432.35
915.9553	1818.0369	3325.05	2429.2
916.0954	1819.7067	3316.4	2419.95
916.2355	1821.3757	3306.95	2408.95
916.3755	1823.044	3307.35	2411.1
916.5156	1824.7115	3301.9	2405.6
916.6556	1826.3783	3281.1	2386.1
916.7956	1828.0443	3273.6	2380.5
916.9356	1829.7096	3267.1	2371.4
917.0756	1831.3741	3288.8	2391.8
917.2155	1833.0379	3274.3	2382.7
917.3555	1834.701	3256.6	2366.15
917.4954	1836.3633	3257.8	2364.1
917.6353	1838.0248	3242.15	2349.9
917.7751	1839.6856	3244.2	2350.25
917.915	1841.3457	3228.85	2333.35
918.0548	1843.005	3227.7	2334.45
918.1946	1844.6636	3223.25	2328.5
918.3344	1846.3214	3234.95	2340.95
918.4742	1847.9785	3218.8	2324.65
918.6139	1849.6349	3211.45	2315.5
918.7537	1851.2904	3223.8	2317.75
918.8934	1852.9453	3205.55	2306.4
919.0331	1854.5994	3201.35	2303.55
919.1727	1856.2528	3197.8	2295.5
919.3124	1857.9054	3182.35	2286.85
919.452	1859.5572	3188.35	2296.3
919.5916	1861.2083	3168.45	2274.65
919.7312	1862.8587	3184.35	2290.7
919.8708	1864.5084	3180.1	2281.35
920.0103	1866.1572	3157.25	2261.6
920.1498	1867.8054	3145.65	2248
920.2893	1869.4528	3145.9	2246.4
920.4288	1871.0994	3141.1	2242.25
920.5683	1872.7453	3126.25	2231.45
920.7077	1874.3905	3135.4	2232
920.8471	1876.0349	3120.2	2226.5
920.9865	1877.6786	3124.8	2228.25
921.1259	1879.3215	3126.25	2232.85
921.2653	1880.9637	3110.75	2216.9
921.4046	1882.6051	3112.25	2220.3
921.5439	1884.2458	3100.05	2204.65
921.6832	1885.8858	3082.3	2189.85
921.8225	1887.525	3096.8	2201.3
921.9617	1889.1634	3085.45	2190.8
922.101	1890.8011	3070.25	2173.1
922.2402	1892.4381	3074.5	2179
922.3794	1894.0743	3060.65	2166.2
922.5185	1895.7098	3056.8	2161.65
922.6577	1897.3446	3065.2	2168.45
922.7968	1898.9786	3056	2158.35
922.9359	1900.6118	3050.1	2156.6
923.075	1902.2443	3032.05	2137.1
923.214	1903.8761	3015.15	2119.4
923.3531	1905.5071	3016.75	2123.55
923.4921	1907.1374	2997.5	2102.65
923.6311	1908.7669	3005.25	2113.45
923.77	1910.3957	2997.1	2104.35
923.909	1912.0237	2983.45	2091.6
924.0479	1913.651	2974.35	2080.2
924.1868	1915.2776	2974.6	2081.55
924.3257	1916.9034	2969.25	2077.25
924.4646	1918.5285	2954.25	2062.7
924.6034	1920.1528	2953.6	2059.7
924.7422	1921.7764	2945.5	2051.85
924.881	1923.3992	2936.85	2042.65
925.0198	1925.0213	2915.05	2021.55
925.1586	1926.6427	2925.3	2035.5
925.2973	1928.2633	3007.35	2031.05
925.436	1929.8832	2920.5	2026.35
925.5747	1931.5023	2905.9	2010.95
925.7134	1933.1207	2895.3	2003.3
925.852	1934.7383	2890.55	1998.55
925.9906	1936.3552	2894.9	2001.4
926.1292	1937.9714	2887.25	1994.6
926.2678	1939.5868	2873.85	1979.3
926.4064	1941.2015	2855.75	1960.2
926.5449	1942.8154	2845.85	1951
926.6834	1944.4286	2841.5	1945.75
926.8219	1946.041	2849	1933.85
926.9604	1947.6528	2837.35	1938.35
927.0988	1949.2637	2832.35	1936.8
927.2372	1950.8739	2817.6	1926.9
927.3756	1952.4834	2822.25	1927.8
927.514	1954.0921	2817.35	1925.15
927.6523	1955.7001	2815.2	1918.45
927.7907	1957.3074	2807.45	1917.15
927.929	1958.9139	2789.95	1902.25
928.0673	1960.5197	2782.85	1891.15
928.2055	1962.1247	2777.5	1886.45
928.3438	1963.729	2777	1890.45
928.482	1965.3325	2760.45	1866.15
928.6202	1966.9353	2742.15	1853.15
928.7584	1968.5374	2748.45	1857.95
928.8965	1970.1387	2739.5	1848.9
929.0346	1971.7393	2723	1833.85
929.1727	1973.3392	2732.85	1843.1
929.3108	1974.9383	2714.65	1826.9
929.4489	1976.5366	2706.75	1818.3
929.5869	1978.1342	2703.35	1815.3
929.7249	1979.7311	2703.3	1812.95
929.8629	1981.3273	2700.35	1811.75
930.0009	1982.9227	2690.6	1800.75
930.1388	1984.5173	2671.25	1786.55
930.2767	1986.1112	2671.9	1785.65
930.4146	1987.7044	2662.45	1776.85
930.5525	1989.2968	2666.45	1778.6
930.6904	1990.8885	2659.95	1770
930.8282	1992.4795	2657.05	1769.5
930.966	1994.0697	2652.65	1768.2
931.1038	1995.6592	2652.7	1765.5
931.2415	1997.2479	2645.9	1757.75
931.3793	1998.8359	2637.25	1751.35
931.517	2000.4232	2611.95	1729.75
931.6547	2002.0097	2608.55	1727.25
931.7923	2003.5955	2611.5	1728.15
931.93	2005.1805	2610.6	1722.7
932.0676	2006.7648	2616.35	1732.35
932.2052	2008.3484	2609.95	1726.6
932.3427	2009.9312	2601.8	1717.7
932.4803	2011.5133	2584	1701.05
932.6178	2013.0946	2579.95	1697.1
932.7553	2014.6752	2585.25	1705
932.8928	2016.2551	2581.45	1696.9
933.0302	2017.8342	2575.85	1692.8
933.1676	2019.4126	2561.85	1681.45
933.305	2020.9902	2551.7	1672.3
933.4424	2022.5672	2564.65	1682.1
933.5798	2024.1433	2565.45	1679.1
933.7171	2025.7188	2543.85	1664.7
933.8544	2027.2935	2552.7	1669.8
933.9917	2028.8674	2530.15	1649.1
934.129	2030.4406	2530.2	1650.1
934.2662	2032.0131	2525	1645.85
934.4034	2033.5849	2518.2	1631.35
934.5406	2035.1559	2507.3	1629.3
934.6778	2036.7261	2519.85	1637.15
934.8149	2038.2957	2509.2	1622.6
934.952	2039.8645	2512.75	1625.3
935.0891	2041.4325	2512.7	1625
935.2262	2042.9998	2500.4	1618.3
935.3632	2044.5664	2490.85	1606.3
935.5002	2046.1323	2487.2	1606.7
935.6372	2047.6974	2494.3	1610.95
935.7742	2049.2617	2484.75	1603.5
935.9111	2050.8254	2486	1596.8
936.048	2052.3883	2477.35	1592
936.1849	2053.9504	2464.6	1578.15
936.3218	2055.5118	2464.2	1577.8
936.4586	2057.0725	2459.3	1573.05
936.5955	2058.6325	2450.55	1567.05
936.7323	2060.1917	2448.35	1564.95
936.869	2061.7502	2450.8	1566.75
937.0058	2063.3079	2442.5	1561.15
937.1425	2064.8649	2438.5	1552.85
937.2792	2066.4212	2428.4	1545.05
937.4159	2067.9767	2425.95	1543.4
937.5525	2069.5315	2427.45	1543.6
937.6891	2071.0856	2418.7	1537.85
937.8257	2072.6389	2404.85	1524.2
937.9623	2074.1915	2400.1	1519
938.0989	2075.7433	2386.05	1502.9
938.2354	2077.2945	2389.5	1507.3
938.3719	2078.8448	2380.05	1494.65
938.5084	2080.3945	2399.85	1513.75
938.6448	2081.9434	2390.8	1505.1
938.7812	2083.4916	2377.85	1490.75
938.9176	2085.039	2385.25	1494.15
939.054	2086.5857	2370.05	1477.3
939.1903	2088.1317	2377.95	1486.05
939.3267	2089.677	2368	1478.05
939.463	2091.2215	2368.2	1475.6
939.5992	2092.7652	2365.1	1472.5
939.7355	2094.3083	2354.7	1462.25
939.8717	2095.8506	2351.8	1463.15
940.0079	2097.3921	2341.25	1456.7
940.1441	2098.933	2344.2	1457.5
940.2802	2100.4731	2341.75	1454.05
940.4163	2102.0124	2360.55	1454.5
940.5524	2103.5511	2342.15	1453.55
940.6885	2105.089	2335.3	1446.3
940.8245	2106.6261	2325.45	1437.1
940.9606	2108.1626	2329	1441.1
941.0965	2109.6983	2336.75	1420.05
941.2325	2111.2332	2318.05	1430.15
941.3684	2112.7675	2314.8	1425.7
941.5044	2114.301	2310.9	1421.6
941.6403	2115.8337	2302.75	1415.65
941.7761	2117.3657	2310.25	1423.25
941.912	2118.897	2312.05	1421.25
942.0478	2120.4276	2307.6	1413
942.1835	2121.9575	2296.4	1406.05
942.3193	2123.4866	2309.95	1417.95
942.455	2125.0149	2281.45	1392.4
942.5907	2126.5426	2263.5	1378.4
942.7264	2128.0695	2275.7	1390.95
942.8621	2129.5956	2258.1	1378.4
942.9977	2131.1211	2266.45	1378.6
943.1333	2132.6458	2274.6	1389.4
943.2689	2134.1698	2264.65	1375.75
943.4044	2135.693	2259.1	1367.5
943.54	2137.2155	2253	1359.45
943.6755	2138.7373	2256.75	1369.15
943.8109	2140.2584	2243.5	1360.05
943.9464	2141.7787	2246.2	1358.55
944.0818	2143.2983	2226.95	1345.9
944.2172	2144.8171	2212.05	1331.05
944.3526	2146.3353	2225.85	1339.2
944.4879	2147.8527	2220.5	1337.45
944.6232	2149.3693	2227	1337.4
944.7585	2150.8853	2221.5	1330.85
944.8938	2152.4005	2206.9	1316.45
945.029	2153.9149	2208.3	1318.3
945.1642	2155.4287	2207.65	1317.45
945.2994	2156.9417	2203.15	1313.65
945.4346	2158.454	2186.25	1299.75
945.5697	2159.9655	2191.45	1307.35
945.7048	2161.4764	2198.4	1311.25
945.8399	2162.9865	2195.4	1309.9
945.9749	2164.4958	2183.3	1297.3
946.1099	2166.0045	2164.75	1278.95
946.2449	2167.5124	2183.7	1297.95
946.3799	2169.0195	2178.75	1291.5
946.5148	2170.526	2174.05	1285.45
946.6498	2172.0317	2159.95	1269.8
946.7846	2173.5367	2166.25	1278.45
946.9195	2175.0409	2167.25	1278.8
947.0543	2176.5445	2166	1279.65
947.1891	2178.0473	2163.25	1273.5
947.3239	2179.5494	2145.25	1251.05
947.4587	2181.0507	2149.7	1262.05
947.5934	2182.5513	2143.75	1255.3
947.7281	2184.0512	2146.95	1258.85
947.8628	2185.5504	2148.65	1261.55
947.9974	2187.0488	2115.1	1231.35
948.132	2188.5465	2126.1	1242.75
948.2666	2190.0435	2121.3	1235.4
948.4012	2191.5397	2123.35	1234
948.5357	2193.0353	2123.75	1232.45
948.6702	2194.5301	2122	1230.8
948.8047	2196.0241	2115.05	1223.4
948.9392	2197.5175	2111.35	1218.6
949.0736	2199.0101	2107.1	1212.4
949.208	2200.502	2104.05	1217.7
949.3424	2201.9931	2099.05	1213.6
949.4767	2203.4835	2081.3	1197.05
949.611	2204.9733	2096.35	1196.35
949.7453	2206.4622	2086.6	1200.45
949.8796	2207.9505	2069.4	1183.5
950.0138	2209.438	2063.25	1181.95
950.148	2210.9248	2068.25	1180.35
950.2822	2212.4109	2063.5	1175.75
950.4164	2213.8962	2076.5	1182.2
950.5505	2215.3809	2072.4	1179.05
950.6846	2216.8648	2059	1164.7
950.8186	2218.3479	2063.15	1167.15
950.9527	2219.8304	2055.2	1156.75
951.0867	2221.3121	2045.05	1148.4
951.2207	2222.7931	2045.7	1152.4
951.3546	2224.2733	2034.3	1143.5
951.4886	2225.7529	2035.6	1145.35
951.6225	2227.2317	2033.45	1144.45
951.7563	2228.7098	2026.05	1141.8
951.8902	2230.1872	2017.7	1133.25
952.024	2231.6638	2012.2	1127.9
952.1578	2233.1397	2009.45	1120.75
952.2916	2234.6149	2000.8	1118.25
952.4253	2236.0894	2004.05	1116.15
952.559	2237.5632	2011.65	1116.05
952.6927	2239.0362	2009.65	1122.85
952.8263	2240.5085	1996.4	1110.65
952.9599	2241.9801	1993.55	1105.5
953.0935	2243.4509	1993.5	1103.75
953.2271	2244.921	1992.55	1103.2
953.3606	2246.3904	1988.75	1093.95
953.4941	2247.8591	1973.1	1082.9
953.6276	2249.3271	1978.8	1089.35
953.7611	2250.7943	1973.7	1082.7
953.8945	2252.2608	1958.25	1069.15
954.0279	2253.7266	1966.9	1077.85
954.1612	2255.1917	1959.45	1070.9
954.2946	2256.656	1951.8	1063.45
954.4279	2258.1197	1952.5	1066.45
954.5612	2259.5826	1951.6	1062.25
954.6944	2261.0447	1949.15	1060.65
954.8276	2262.5062	1944.7	1051.8
954.9608	2263.9669	1949.1	1057.85
955.094	2265.4269	1934.45	1045.35
955.2271	2266.8862	1945.3	1057.3
955.3602	2268.3448	1929.55	1042.2
955.4933	2269.8026	1933.7	1048.55
955.6264	2271.2598	1924.55	1038.35
955.7594	2272.7162	1928.75	1042.35
955.8924	2274.1719	1920.85	1031.45
956.0253	2275.6268	1921.4	1031.3
956.1583	2277.0811	1921.2	1030.3
956.2912	2278.5346	1920.4	1034.1
956.4241	2279.9874	1917.85	1034.05
956.5569	2281.4395	1913.15	1029.6
956.6897	2282.8908	1911.9	1021.05
956.8225	2284.3414	1917.2	1028.4
956.9553	2285.7914	1901.55	1013.65
957.088	2287.2406	1912.1	1017.8
957.2207	2288.689	1903.55	1012.65
957.3534	2290.1368	1904.75	1008.4
957.486	2291.5838	1906.65	1007.8
957.6186	2293.0302	1897.2	1000.05
957.7512	2294.4758	1897.8	1006.55
957.8838	2295.9206	1889.25	1000.85
958.0163	2297.3648	1874.5	987.4
958.1488	2298.8082	1890.55	1000.05
958.2813	2300.251	1876.95	986.65
958.4137	2301.693	1879.4	985.3
958.5461	2303.1343	1871.95	979.95
958.6785	2304.5748	1870	981.75
958.8108	2306.0147	1870.9	982.9
958.9432	2307.4538	1870.55	983.65
959.0754	2308.8922	1862.4	979.2
959.2077	2310.3299	1853.6	967.25
959.3399	2311.7669	1846.5	960
959.4721	2313.2031	1852.25	964.35
959.6043	2314.6387	1845.45	957.2
959.7365	2316.0735	1854.75	966.35
959.8686	2317.5076	1850.8	959.85
960.0006	2318.941	1850	960.8
960.1327	2320.3737	1848.8	955.45
960.2647	2321.8056	1845.45	953.05
960.3967	2323.2369	1836.15	945.9
960.5287	2324.6674	1838.75	949.6
960.6606	2326.0972	1836.15	947.35
960.7925	2327.5263	1831.9	941.35
960.9244	2328.9547	1830.4	940.4
961.0562	2330.3823	1828.15	936.5
961.1881	2331.8092	1828.15	933.65
961.3198	2333.2355	1823.55	930.75
961.4516	2334.661	1811.15	919.4
961.5833	2336.0858	1810.05	919.55
961.715	2337.5098	1821.2	930.85
961.8467	2338.9332	1803.75	912.95
961.9783	2340.3558	1804.7	914.05
962.1099	2341.7778	1798	909
962.2415	2343.199	1795.9	906.95
962.373	2344.6195	1793.5	906.6
962.5045	2346.0393	1794.85	906.5
962.636	2347.4583	1801.35	912.85
962.7675	2348.8767	1792.85	901.3
962.8989	2350.2943	1798.1	904
963.0303	2351.7113	1798.5	904.4
963.1617	2353.1275	1788.55	896.1
963.293	2354.543	1801.75	901.55
963.4243	2355.9578	1791.6	899.95
963.5556	2357.3718	1783.65	896.2
963.6868	2358.7852	1772.25	882.35
963.818	2360.1978	1779.3	892.95
963.9492	2361.6098	1774.05	888.05
964.0803	2363.021	1770.1	877.15
964.2114	2364.4315	1763	872.1
964.3425	2365.8413	1769.3	881.35
964.4736	2367.2504	1756.25	868.05
964.6046	2368.6587	1761.7	872.2
964.7356	2370.0664	1755.1	865.05
964.8666	2371.4733	1752	864.2
964.9975	2372.8795	1747.65	859.45
965.1284	2374.285	1761.65	871.15
965.2593	2375.6899	1750.2	862.15
965.3901	2377.0939	1754.05	866.45
965.5209	2378.4973	1742	852.25
965.6517	2379.9	1739.3	851.35
965.7825	2381.3019	1742.05	851.7
965.9132	2382.7032	1738.9	852.95
966.0439	2384.1037	1728.65	844.45
966.1745	2385.5035	1725.2	840.45
966.3051	2386.9027	1728.45	842.75
966.4357	2388.3011	1723	834.35
966.5663	2389.6987	1728.35	842.5
966.6968	2391.0957	1712.2	824.7
966.8273	2392.492	1712.9	826.45
966.9578	2393.8876	1714.45	828.15
967.0882	2395.2824	1702.85	815.05
967.2186	2396.6765	1700.15	814.6
967.349	2398.07	1698.8	809.8
967.4793	2399.4627	1704.55	811.45
967.6097	2400.8547	1698.7	809.95
967.7399	2402.246	1701.95	807.7
967.8702	2403.6366	1689.9	801.45
968.0004	2405.0265	1687.65	801.7
968.1306	2406.4156	1681.55	789.1
968.2607	2407.8041	1689.8	799
968.3909	2409.1918	1683.4	792.95
968.521	2410.5789	1682	795.35
968.651	2411.9652	1679.65	787.9
968.781	2413.3508	1679.4	788.75
968.911	2414.7358	1667.55	781.05
969.041	2416.12	1658.95	771.2
969.1709	2417.5035	1675.05	788.75
969.3008	2418.8863	1669.45	780.85
969.4307	2420.2684	1677.9	787.2
969.5606	2421.6497	1659	770
969.6904	2423.0304	1648.9	761.7
969.8201	2424.4104	1661.4	771.35
969.9499	2425.7896	1659.75	766.25
970.0796	2427.1682	1650.9	764.8
970.2093	2428.546	1650.9	762.4
970.3389	2429.9232	1648.35	758.2
970.4685	2431.2996	1646.5	756.9
970.5981	2432.6753	1640.2	750.85
970.7277	2434.0503	1643.05	753.95
970.8572	2435.4246	1635.3	748.9
970.9867	2436.7982	1644.7	753.05
971.1161	2438.1711	1639.85	752.55
971.2456	2439.5433	1637.8	746.25
971.375	2440.9148	1630.15	735.8
971.5043	2442.2856	1619.25	731.6
971.6336	2443.6557	1625.3	735.3
971.7629	2445.025	1621.4	730.85
971.8922	2446.3937	1623.7	735.2
972.0214	2447.7617	1617.85	728.65
972.1506	2449.1289	1621.6	733.15
972.2798	2450.4955	1615.45	725.25
972.4089	2451.8613	1617.8	728.75
972.538	2453.2265	1615.7	727.05
972.6671	2454.5909	1600	709.1
972.7961	2455.9546	1606.95	718.4
972.9251	2457.3177	1608.35	720.7
973.0541	2458.68	1599.1	709.15
973.1831	2460.0416	1604	715
973.312	2461.4025	1604	714.8
973.4408	2462.7627	1611.65	713.55
973.5697	2464.1222	1590.35	706.6
973.6985	2465.4811	1598.2	709.8
973.8273	2466.8392	1589.75	704.65
973.956	2468.1966	1591.8	700.4
974.0847	2469.5533	1599.6	710.05
974.2134	2470.9093	1593.45	707
974.3421	2472.2645	1582	692.2
974.4707	2473.6191	1584.8	696.9
974.5993	2474.973	1584.25	697.9
974.7278	2476.3262	1580.1	691.5
974.8563	2477.6787	1587.75	700.7
974.9848	2479.0305	1577.95	689.15
975.1132	2480.3816	1576.85	686.3
975.2417	2481.7319	1578.1	688.55
975.37	2483.0816	1570.4	683.45
975.4984	2484.4306	1566.95	678.45
975.6267	2485.7789	1569.3	683.75
975.755	2487.1264	1572	686
975.8833	2488.4733	1562.85	674.9
976.0115	2489.8195	1565.25	672
976.1397	2491.165	1563.95	675.1
976.2678	2492.5097	1556.45	668.25
976.3959	2493.8538	1556.25	669.55
976.524	2495.1972	1550.35	662.15
976.6521	2496.5398	1549.95	659.2
976.7801	2497.8818	1550	659.65
976.9081	2499.2231	1547.7	660.3
977.036	2500.5637	1548.85	658.75
977.164	2501.9035	1545.85	655.5
977.2918	2503.2427	1544.25	652.65
977.4197	2504.5812	1537.35	650.6
977.5475	2505.919	1543.75	652.4
977.6753	2507.256	1544.65	657.5
977.8031	2508.5924	1535.05	645.7
977.9308	2509.9281	1538.75	645.3
978.0585	2511.2631	1537.05	649.1
978.1861	2512.5974	1530.4	642.55
978.3137	2513.9309	1522.6	634.4
978.4413	2515.2638	1550.9	636.25
978.5689	2516.596	1526.5	638.85
978.6964	2517.9275	1519.25	629.55
978.8239	2519.2583	1517.55	629.65
978.9513	2520.5884	1520.45	630.35
979.0788	2521.9178	1510.85	622.5
979.2062	2523.2465	1516	629.05
979.3335	2524.5745	1512.4	627.1
979.4608	2525.9018	1509.7	620.25
979.5881	2527.2284	1508.8	621.75
979.7154	2528.5543	1507.25	621.95
979.8426	2529.8796	1509.75	619.9
979.9698	2531.2041	1504.65	617.05
980.0969	2532.5279	1505	619.05
980.224	2533.851	1503.85	617.2
980.3511	2535.1735	1504.8	618.3
980.4781	2536.4952	1504.25	616.75
980.6052	2537.8163	1509.5	616.95
980.7321	2539.1366	1509.45	621.3
980.8591	2540.4562	1502.35	610.7
980.986	2541.7752	1501.65	612.8
981.1129	2543.0935	1500.05	609.3
981.2397	2544.411	1498.85	610.65
981.3665	2545.7279	1500.3	611.05
981.4933	2547.0441	1489.35	600.8
981.62	2548.3596	1503.35	612.2
981.7467	2549.6744	1498.25	609.65
981.8734	2550.9885	1500.2	603.4
982.0001	2552.3019	1492.05	604.65
982.1267	2553.6146	1492.45	603.65
982.2532	2554.9266	1489.35	601.7
982.3798	2556.2379	1490.75	600.95
982.5063	2557.5485	1479.95	592.4
982.6327	2558.8585	1493	598
982.7592	2560.1677	1491	597.95
982.8856	2561.4762	1482.8	595
983.0119	2562.7841	1484.95	593.55
983.1383	2564.0913	1481	594.75
983.2646	2565.3977	1482.3	596
983.3908	2566.7035	1474.65	586.7
983.517	2568.0086	1481.65	592.55
983.6432	2569.313	1479.95	589.75
983.7694	2570.6167	1478.8	586.6
983.8955	2571.9197	1477	590.8
984.0216	2573.222	1473.15	581.3
984.1476	2574.5236	1473.9	585.3
984.2737	2575.8246	1473.2	584.6
984.3996	2577.1248	1471.6	578.1
984.5256	2578.4244	1471.55	584.1
984.6515	2579.7232	1459.55	570.7
984.7774	2581.0214	1487.1	575.5
984.9032	2582.3189	1466.6	580.25
985.029	2583.6157	1469.1	579.45
985.1548	2584.9118	1477.85	589.4
985.2806	2586.2072	1469.8	582.05
985.4063	2587.5019	1465.25	577.65
985.5319	2588.7959	1467.75	578
985.6576	2590.0893	1473.8	582.7
985.7832	2591.3819	1467	579.7
985.9087	2592.6739	1466.05	581
986.0343	2593.9652	1468.55	581.55
986.1597	2595.2557	1467.8	579.9
986.2852	2596.5456	1466.45	577.15
986.4106	2597.8348	1469.1	582.95
986.536	2599.1234	1462.85	575.2
986.6614	2600.4112	1470.2	584.05
986.7867	2601.6983	1466	576.5
986.912	2602.9848	1465.95	578.65
987.0372	2604.2705	1460.95	567.1
987.1624	2605.5556	1458.85	573.25
987.2876	2606.84	1464.05	580.4
987.4128	2608.1237	1462.55	574.45
987.5379	2609.4067	1450.25	564.45
987.6629	2610.689	1457.45	562.85
987.788	2611.9707	1452.25	563.95
987.913	2613.2516	1446.45	555.45
988.0379	2614.5319	1442.05	556.65
988.1629	2615.8115	1447.6	560.3
988.2878	2617.0903	1439	553.85
988.4126	2618.3685	1440.75	553.75
988.5375	2619.6461	1439.05	554.7
988.6622	2620.9229	1436.5	551.2
988.787	2622.199	1428.25	542.55
988.9117	2623.4745	1431.85	546.05
989.0364	2624.7493	1427.85	542.35
989.161	2626.0234	1428.3	545.95
989.2857	2627.2968	1426.05	539.95
989.4102	2628.5695	1437.4	550.55
989.5348	2629.8415	1425.4	540.75
989.6593	2631.1128	1423	535.9
989.7837	2632.3835	1420.85	535.7
989.9082	2633.6535	1422.35	537.95
990.0326	2634.9228	1422.95	538.85
990.1569	2636.1914	1416.7	532.15
990.2812	2637.4593	1420.05	531.65
990.4055	2638.7265	1411.35	525.55
990.5298	2639.9931	1414.3	526.55
990.654	2641.259	1418.1	532.15
990.7782	2642.5242	1410.4	523.65
990.9023	2643.7887	1411.7	528.25
991.0264	2645.0525	1411.25	525.5
991.1505	2646.3156	1405.9	522
991.2745	2647.5781	1397.55	513.4
991.3985	2648.8398	1400.45	516.5
991.5225	2650.1009	1433	510.3
991.6464	2651.3613	1398.85	512.05
991.7703	2652.6211	1392.9	508.65
991.8942	2653.8801	1398.85	512.8
992.018	2655.1385	1399.45	511.05
992.1418	2656.3961	1391.7	505.75
992.2655	2657.6531	1392.9	509
992.3892	2658.9094	1397.35	512.4
992.5129	2660.1651	1388.85	504.25
992.6366	2661.42	1396.75	511.35
992.7602	2662.6743	1394.25	509.4
992.8837	2663.9279	1400.35	516.25
993.0073	2665.1808	1399.6	514.45
993.1307	2666.433	1407.5	522.6
993.2542	2667.6846	1400.5	516.05
993.3776	2668.9354	1407.45	520.45
993.501	2670.1856	1402.2	515.3
993.6244	2671.4351	1406.85	523.85
993.7477	2672.6839	1410.05	523.05
993.8709	2673.9321	1412.1	528.2
993.9942	2675.1795	1414	529.4
994.1174	2676.4263	1415.65	530.35
994.2405	2677.6724	1412.9	530.4
994.3637	2678.9179	1417.25	533.4
994.4868	2680.1626	1418.2	535.1
994.6098	2681.4067	1416.95	534.45
994.7328	2682.6501	1409.45	523.2
994.8558	2683.8928	1406.25	523.05
994.9788	2685.1348	1398.65	514.35
995.1017	2686.3761	1398.55	512.3
995.2245	2687.6168	1397.5	513.75
995.3474	2688.8568	1391.3	506.9
995.4702	2690.0961	1396.05	515.5
995.5929	2691.3348	1388.75	503.2
995.7156	2692.5727	1393.55	507.15
995.8383	2693.81	1380.45	496.4
995.961	2695.0466	1382.65	498.85
996.0836	2696.2826	1387.45	501
996.2062	2697.5178	1389.35	495.1
996.3287	2698.7524	1383.85	497.25
996.4512	2699.9863	1387.75	502.4
996.5737	2701.2195	1384.8	501.25
996.6961	2702.452	1392.15	507.55
996.8185	2703.6839	1394.7	508.45
996.9408	2704.9151	1389.95	507.6
997.0631	2706.1456	1399.15	514.15
997.1854	2707.3755	1403.25	519.4
997.3077	2708.6046	1411.2	523.8
997.4299	2709.8331	1414	528
997.552	2711.0609	1416.2	531.45
997.6742	2712.2881	1430	545.35
997.7963	2713.5145	1435.9	548.85
997.9183	2714.7403	1439.85	557.1
998.0403	2715.9654	1439.45	554.2
998.1623	2717.1899	1463.3	563.25
998.2842	2718.4136	1459.7	577.4
998.4062	2719.6367	1463.7	579.2
998.528	2720.8591	1482.8	592.95
998.6498	2722.0809	1481.2	597.05
998.7716	2723.3019	1498	610.8
998.8934	2724.5223	1505.3	619.9
999.0151	2725.7421	1508.8	623.4
999.1368	2726.9611	1509.2	622.35
999.2584	2728.1795	1509.25	621.15
999.38	2729.3972	1500.05	617.4
999.5016	2730.6142	1494.05	599.6
999.6231	2731.8306	1475.8	589.25
999.7446	2733.0462	1469.4	583.5
999.8661	2734.2612	1453.35	564.85
999.9875	2735.4756	1438.85	550.75
1000.1089	2736.6892	1424.1	540.35
1000.2302	2737.9022	1410.3	527.9
1000.3515	2739.1145	1403.05	517.5
1000.4728	2740.3262	1407.8	517.6
1000.594	2741.5372	1388.65	505.3
1000.7152	2742.7475	1383.75	500.85
1000.8363	2743.9571	1369	485.1
1000.9575	2745.1661	1368.15	479.45
1001.0785	2746.3744	1359.65	476.15
1001.1996	2747.582	1344.35	461
1001.3206	2748.7889	1347.6	460.95
1001.4415	2749.9952	1338	456.45
1001.5625	2751.2008	1333.25	447.75
1001.6833	2752.4057	1331.7	446.5
1001.8042	2753.61	1330.3	446.3
1001.925	2754.8136	1329.25	444.95
1002.0458	2756.0165	1324.8	443.6
1002.1665	2757.2188	1318.6	438.4
1002.2872	2758.4204	1314.45	431.75
1002.4078	2759.6213	1324.45	440.8
1002.5285	2760.8215	1328.1	440.95
1002.649	2762.0211	1323.1	439.2
1002.7696	2763.22	1319.95	431.8
1002.8901	2764.4182	1320.15	435.95
1003.0106	2765.6158	1315.4	431.95
1003.131	2766.8127	1308.6	426.75
1003.2514	2768.009	1310.5	430.15
1003.3717	2769.2045	1310.6	428.7
1003.492	2770.3994	1304.55	418.85
1003.6123	2771.5936	1305.75	420.8
1003.7325	2772.7872	1301.2	419.35
1003.8527	2773.9801	1301.6	417.7
1003.9729	2775.1723	1316.5	413
1004.093	2776.3639	1294.15	412.05
1004.2131	2777.5548	1296.2	409.9
1004.3331	2778.745	1295.05	412
1004.4531	2779.9346	1295.75	412.35
1004.5731	2781.1235	1297.95	413.05
1004.693	2782.3117	1298	416.9
1004.8129	2783.4992	1298.5	417
1004.9328	2784.6861	1295.4	412.9
1005.0526	2785.8723	1300.2	418.05
1005.1723	2787.0579	1300.4	417.1
1005.2921	2788.2428	1301.6	418.8
1005.4118	2789.427	1312.45	431.75
1005.5314	2790.6106	1317.15	434.1
1005.651	2791.7935	1317.7	435.9
1005.7706	2792.9757	1324.7	442.35
1005.8902	2794.1573	1328	442.7
1006.0097	2795.3382	1329.65	446.9
1006.1291	2796.5184	1342.05	459.6
1006.2485	2797.698	1347.8	465.2
1006.3679	2798.8769	1356.9	473.9
1006.4873	2800.0551	1362.2	478.1
1006.6066	2801.2327	1372.15	488
1006.7258	2802.4096	1382.45	501.6
1006.8451	2803.5859	1391.25	509.05
1006.9642	2804.7615	1404	519.5
1007.0834	2805.9364	1423.15	541.85
1007.2025	2807.1106	1441.35	559.15
1007.3216	2808.2842	1457.95	573.55
1007.4406	2809.4572	1476.6	594.5
1007.5596	2810.6294	1508.95	626.25
1007.6785	2811.801	1526.05	645.85
1007.7975	2812.972	1557.35	676.3
1007.9163	2814.1423	1583.1	701.4
1008.0352	2815.3119	1623.8	742.95
1008.154	2816.4808	1649.65	769.5
1008.2727	2817.6491	1697.4	814.4
1008.3914	2818.8167	1736.1	854.7
1008.5101	2819.9837	1782.45	896.7
1008.6288	2821.15	1820.75	941.45
1008.7474	2822.3157	1873.6	991.05
1008.8659	2823.4807	1934.25	1051.85
1008.9844	2824.645	1983.4	1100.6
1009.1029	2825.8086	2020.8	1139.2
1009.2214	2826.9716	2069	1187.95
1009.3398	2828.134	2118.95	1239
1009.4581	2829.2957	2155.25	1273.15
1009.5764	2830.4567	2187.9	1306.95
1009.6947	2831.617	2208.75	1327.95
1009.813	2832.7767	2211.25	1330.8
1009.9312	2833.9358	2213.6	1333.75
1010.0493	2835.0941	2210.5	1325.85
1010.1675	2836.2519	2186.9	1305.45
1010.2855	2837.4089	2187.6	1305.95
1010.4036	2838.5653	2169.15	1290.45
1010.5216	2839.7211	2152.8	1273.85
1010.6396	2840.8761	2158.4	1275.85
1010.7575	2842.0306	2143.95	1265.4
1010.8754	2843.1843	2175.1	1293.95
1010.9932	2844.3374	2200.85	1317.6
1011.111	2845.4899	2236.6	1352.4
1011.2288	2846.6417	2265.1	1383.75
1011.3465	2847.7928	2309.65	1429.1
1011.4642	2848.9433	2356.9	1474.95
1011.5818	2850.0931	2404.45	1524.7
1011.6995	2851.2422	2449.75	1566.9
1011.817	2852.3907	2502.65	1619.55
1011.9345	2853.5385	2538.55	1657.45
1012.052	2854.6857	2611.5	1704.5
1012.1695	2855.8323	2624.1	1742.85
1012.2869	2856.9781	2661.5	1778.75
1012.4042	2858.1233	2702	1821.95
1012.5216	2859.2679	2735.25	1853.95
1012.6389	2860.4118	2775.6	1894.1
1012.7561	2861.555	2827.45	1942.1
1012.8733	2862.6976	2855.95	1974
1012.9905	2863.8395	2886.65	2004.85
1013.1076	2864.9808	2916.85	2037.05
1013.2247	2866.1214	2923.4	2043.15
1013.3417	2867.2614	2943.65	2061.35
1013.4587	2868.4007	2962.35	2080.35
1013.5757	2869.5393	2988.2	2106
1013.6926	2870.6773	2969.45	2084.45
1013.8095	2871.8146	2993.8	2108.8
1013.9263	2872.9513	2987.1	2104.1
1014.0431	2874.0874	2977.1	2096.35
1014.1599	2875.2227	2976.7	2094.45
1014.2766	2876.3574	2969.1	2089.95
1014.3933	2877.4915	2949.15	2069.1
1014.51	2878.6249	2907.05	2026.55
1014.6266	2879.7577	2916.3	2035.4
1014.7431	2880.8898	2885	1994.4
1014.8596	2882.0212	2868.3	1988.65
1014.9761	2883.152	2874.4	1993
1015.0925	2884.2821	2859	1979.9
1015.2089	2885.4116	2835.65	1956.95
1015.3253	2886.5405	2840.2	1959.05
1015.4416	2887.6686	2861.4	1977.25
1015.5579	2888.7962	2865.7	1987.4
1015.6741	2889.923	2868.65	1988.85
1015.7903	2891.0493	2875.1	1994.6
1015.9065	2892.1748	2897.2	2014.85
1016.0226	2893.2997	2897.9	2016.3
1016.1387	2894.424	2907.25	2028.55
1016.2547	2895.5476	2919.4	2039.7
1016.3707	2896.6706	2944.6	2065.75
1016.4866	2897.7929	2958.65	2076.55
1016.6025	2898.9145	2960.9	2080.3
1016.7184	2900.0355	2991	2107.55
1016.8342	2901.1559	3006.7	2124.7
1016.95	2902.2756	3030.85	2145.15
1017.0658	2903.3946	3052.85	2175.15
1017.1815	2904.513	3090.05	2207.05
1017.2971	2905.6308	3101.1	2221.5
1017.4127	2906.7479	3113.75	2235.3
1017.5283	2907.8643	3148.15	2268.65
1017.6439	2908.9801	3151.65	2273
1017.7594	2910.0953	3158	2278.75
1017.8748	2911.2098	3153.2	2270.85
1017.9902	2912.3236	3152.85	2263.45
1018.1056	2913.4368	3147.2	2263.1
1018.2209	2914.5494	3125.7	2247.15
1018.3362	2915.6613	3096.7	2210.35
1018.4515	2916.7725	3065.05	2181.15
1018.5667	2917.8831	3052.45	2169.65
1018.6819	2918.9931	3019.95	2136.75
1018.797	2920.1024	3003.3	2121.2
1018.9121	2921.211	2976.45	2096.15
1019.0271	2922.319	2973.5	2092.3
1019.1421	2923.4264	2957.15	2077.65
1019.2571	2924.5331	2953.9	2075.85
1019.372	2925.6391	2953.95	2074.9
1019.4869	2926.7445	2958.85	2081.4
1019.6017	2927.8493	2955.55	2075.8
1019.7165	2928.9534	2954.6	2071.65
1019.8313	2930.0569	2966.45	2085.1
1019.946	2931.1597	2956.8	2076
1020.0606	2932.2619	2959.3	2078.65
1020.1753	2933.3634	2982.55	2104
1020.2899	2934.4643	2975.4	2089.25
1020.4044	2935.5645	2967.45	2082.15
1020.5189	2936.6641	2966.05	2081.6
1020.6334	2937.763	2940.65	2062.85
1020.7478	2938.8613	2908.05	2026.45
1020.8622	2939.959	2870.4	1985
1020.9765	2941.056	2819.9	1941.35
1021.0908	2942.1523	2778.55	1896.45
1021.2051	2943.248	2713.5	1835.7
1021.3193	2944.3431	2632.7	1754.15
1021.4334	2945.4375	2552.95	1672.05
1021.5476	2946.5313	2476.45	1599.5
1021.6617	2947.6244	2401.3	1519.6
1021.7757	2948.7169	2325.4	1443.45
1021.8897	2949.8087	2254.25	1374.75
1022.0037	2950.8999	2186.55	1304.25
1022.1176	2951.9904	2119.5	1238.95
1022.2315	2953.0803	2063.25	1184.3
1022.3453	2954.1696	2000.85	1120
1022.4591	2955.2582	1968.9	1092.6
1022.5728	2956.3462	1931.45	1051.45
1022.6865	2957.4335	1900.4	1020.25
1022.8002	2958.5202	1871.35	988.75
1022.9138	2959.6062	1848.2	970.45
1023.0274	2960.6916	1831.9	952.85
1023.141	2961.7764	1813.8	932.95
1023.2545	2962.8605	1801.45	921.15
1023.3679	2963.9439	1788.4	909.75
1023.4813	2965.0267	1777.9	896.4
1023.5947	2966.1089	1797.9	896.5
1023.708	2967.1905	1780.3	899.55
1023.8213	2968.2714	1770.9	893.2
1023.9346	2969.3516	1770.15	890.5
1024.0478	2970.4312	1780.7	896
1024.1609	2971.5102	1780.45	904.25
1024.274	2972.5885	1779.6	900.35
1024.3871	2973.6662	1795.45	911
1024.5002	2974.7432	1777.65	898.5
1024.6132	2975.8196	1781.65	902.35
1024.7261	2976.8954	1783.5	904.55
1024.839	2977.9705	1771.5	889.75
1024.9519	2979.045	1763.25	883.8
1025.0647	2980.1188	1755.9	877.4
1025.1775	2981.192	1731.8	854.35
1025.2902	2982.2645	1708.05	829.15
1025.4029	2983.3364	1706.5	827.2
1025.5156	2984.4077	1688.95	809.8
1025.6282	2985.4783	1673.15	785.9
1025.7407	2986.5483	1642.45	766.8
1025.8532	2987.6177	1613.25	733.65
1025.9657	2988.6864	1591.45	713.1
1026.0782	2989.7545	1572.75	691
1026.1906	2990.8219	1532.35	655.9
1026.3029	2991.8887	1508.6	626.85
1026.4152	2992.9548	1487.5	608.1
1026.5275	2994.0204	1456.1	577.1
1026.6397	2995.0852	1435.25	558.05
1026.7519	2996.1495	1406.75	525.75
1026.864	2997.2131	1392.25	513.1
1026.9761	2998.276	1365.55	488.65
1027.0882	2999.3383	1345.5	466
1027.2002	3000.4	1336	455.85
1027.3122	3001.4611	1321.65	444.6
1027.4241	3002.5215	1308.7	428.9
1027.536	3003.5812	1291.1	410.6
1027.6478	3004.6404	1284.85	404.3
1027.7596	3005.6989	1267.15	384.4
1027.8714	3006.7567	1260.25	381.95
1027.9831	3007.8139	1282.65	374.4
1028.0947	3008.8705	1243.35	364.95
1028.2064	3009.9264	1233.1	351.6
1028.3179	3010.9818	1231.55	353.9
1028.4295	3012.0364	1224.5	344.55
1028.541	3013.0905	1217.2	339.5
1028.6524	3014.1439	1214.1	334.6
1028.7638	3015.1966	1210.9	332.15
1028.8752	3016.2487	1206.9	328.85
1028.9865	3017.3002	1212.3	327.1
1029.0978	3018.3511	1191	314.05
1029.209	3019.4013	1195.3	315.95
1029.3202	3020.4509	1195.7	317.9
1029.4314	3021.4998	1193.15	311.95
1029.5425	3022.5481	1189.3	310.3
1029.6535	3023.5958	1190.4	313.1
1029.7645	3024.6428	1185.45	304.6
1029.8755	3025.6892	1186.3	310.45
1029.9864	3026.735	1178.45	298.3
1030.0973	3027.7802	1184.1	306.1
1030.2082	3028.8247	1185.55	306.5
1030.319	3029.8685	1190.35	311.1
1030.4297	3030.9118	1185.05	307.1
1030.5404	3031.9544	1180.15	301.85
1030.6511	3032.9963	1187.6	309.25
1030.7617	3034.0376	1191.25	314.5
1030.8723	3035.0783	1199.05	318.65
1030.9829	3036.1184	1198	318.95
1031.0934	3037.1578	1194.8	315.15
1031.2038	3038.1966	1196.1	316.45
1031.3142	3039.2348	1191.45	313.85
1031.4246	3040.2723	1201.45	314.65
1031.5349	3041.3092	1195.05	317.9
1031.6452	3042.3455	1198.25	320.45
1031.7554	3043.3811	1202.95	324
1031.8656	3044.4161	1194.8	317.65
1031.9758	3045.4505	1186.85	310.6
1032.0859	3046.4842	1192.25	313.5
1032.1959	3047.5173	1188.6	309.5
1032.3059	3048.5498	1192.8	314
1032.4159	3049.5816	1187.95	307.3
1032.5258	3050.6128	1187.8	308.05
1032.6357	3051.6434	1182	302.15
1032.7455	3052.6734	1183.2	303.8
1032.8553	3053.7027	1179.4	302.05
1032.9651	3054.7314	1174.4	297.05
1033.0748	3055.7594	1168.7	289.2
1033.1845	3056.7868	1177.9	298.95
1033.2941	3057.8136	1170.3	293.7
1033.4037	3058.8398	1166.75	291.75
1033.5132	3059.8653	1169.25	290.1
1033.6227	3060.8902	1166.4	289.55
1033.7321	3061.9145	1162.6	283.15
1033.8415	3062.9381	1158.4	280.45
1033.9509	3063.9612	1174.45	279.05
1034.0602	3064.9835	1158.45	280.15
1034.1694	3066.0053	1157.05	276.65
1034.2787	3067.0264	1154.05	278.05
1034.3878	3068.0469	1155.65	276
1034.497	3069.0668	1150.8	270.8
1034.6061	3070.086	1145.15	268.65
1034.7151	3071.1046	1142.15	263.65
1034.8241	3072.1226	1132.55	255.35
1034.9331	3073.1399	1134.05	253.9
1035.042	3074.1567	1127	247.55
1035.1508	3075.1727	1122.95	244.15
1035.2597	3076.1882	1113.2	235.55
1035.3684	3077.203	1111.25	232.65
1035.4772	3078.2173	1113.8	233.75
1035.5859	3079.2308	1104.55	224.1
1035.6945	3080.2438	1100.95	220.4
1035.8031	3081.2561	1094.05	216.15
1035.9117	3082.2678	1090.35	212.7
1036.0202	3083.2789	1081.8	202.55
1036.1286	3084.2893	1079.65	202.35
1036.2371	3085.2991	1074.1	195.65
1036.3454	3086.3083	1073.1	191.65
1036.4538	3087.3169	1072.3	192.5
1036.562	3088.3248	1061.95	183.45
1036.6703	3089.3321	1061.3	183.05
1036.7785	3090.3388	1055.6	177.7
1036.8866	3091.3449	1050.3	172.4
1036.9948	3092.3503	1052.6	172.65
1037.1028	3093.3551	1050.05	173.25
1037.2108	3094.3593	1044.15	167.3
1037.3188	3095.3629	1040.6	164
1037.4267	3096.3658	1045.9	167.7
1037.5346	3097.3681	1040.65	162.35
1037.6425	3098.3698	1040.7	158.75
1037.7503	3099.3708	1039.5	157.2
1037.858	3100.3713	1028.6	153.05
1037.9657	3101.3711	1031.6	152.9
1038.0734	3102.3702	1143.4	149.55
1038.181	3103.3688	1028.25	149.25
1038.2886	3104.3667	1021.45	146
1038.3961	3105.364	1025	149.4
1038.5036	3106.3607	1018.75	139.9
1038.611	3107.3568	1019.85	142.05
1038.7184	3108.3522	1014.35	136.3
1038.8257	3109.347	1015.2	134.85
1038.933	3110.3412	1018.55	137.95
1039.0403	3111.3348	1011.15	132.4
1039.1475	3112.3277	1006	127.35
1039.2547	3113.32	1010.45	134.45
1039.3618	3114.3117	1005.1	127.15
1039.4689	3115.3028	1007.45	130.4
1039.5759	3116.2932	1005.8	126.35
1039.6829	3117.2831	1007	124.3
1039.7898	3118.2723	1002.7	125.2
1039.8967	3119.2608	1001.6	122.6
1040.0035	3120.2488	1001.2	121.6
1040.1103	3121.2361	998.3	120.4
1040.2171	3122.2229	993.65	117.7
1040.3238	3123.209	995.75	116.15
1040.4305	3124.1944	994.35	118
1040.5371	3125.1793	993.3	116.35
1040.6437	3126.1635	989.35	111.9
1040.7502	3127.1471	989.8	111
1040.8567	3128.1301	986.4	108.35
1040.9631	3129.1125	989.35	112.3
1041.0695	3130.0942	992.4	115.3
1041.1759	3131.0753	997.9	110.9
1041.2822	3132.0558	987.3	108.95
1041.3884	3133.0357	981.25	104.1
1041.4946	3134.015	988.25	108.6
1041.6008	3134.9936	984.95	106.8
1041.7069	3135.9716	1000.9	102.7
1041.813	3136.949	983.15	106.75
1041.919	3137.9258	999.9	103.7
1042.025	3138.902	984.7	100.35
1042.1309	3139.8775	979.15	101.55
1042.2368	3140.8524	980.3	103.15
1042.3427	3141.8267	977.65	97.9
1042.4485	3142.8004	975.4	97.3
1042.5542	3143.7735	976.3	93.25
1042.6599	3144.7459	974.85	93.65
1042.7656	3145.7178	975.65	97.6
1042.8712	3146.689	969.35	91.3
1042.9768	3147.6596	972.3	93.35
1043.0823	3148.6295	968.25	88.95
1043.1878	3149.5989	968.95	92.75
1043.2932	3150.5676	968.15	91.2
1043.3986	3151.5357	967.15	91.6
1043.5039	3152.5032	969.6	92.8
1043.6092	3153.4701	966.05	88.65
1043.7145	3154.4364	970.3	90.55
1043.8197	3155.402	963.15	84.95
1043.9248	3156.367	968.5	90.3
1044.03	3157.3315	1001.25	88.85
1044.135	3158.2952	963	86.95
1044.24	3159.2584	964.5	86.15
1044.345	3160.221	962.85	85.8
1044.4499	3161.1829	962	84.25
1044.5548	3162.1442	963.5	86.55
1044.6596	3163.105	959.9	82.3
1044.7644	3164.065	960.15	82.85
1044.8692	3165.0245	962.1	82.05
1044.9739	3165.9834	959.2	82.2
1045.0785	3166.9416	960.8	84.1
1045.1831	3167.8993	960.15	82.4
1045.2877	3168.8563	958	80.9
1045.3922	3169.8127	959.9	84.1
1045.4966	3170.7684	957.1	79
1045.6011	3171.7236	955.75	77.3
1045.7054	3172.6782	956.35	78
1045.8098	3173.6321	955.95	77.55
1045.914	3174.5854	957.25	76.3
1046.0183	3175.5381	954.15	74.55
1046.1224	3176.4902	952.55	74.95
1046.2266	3177.4417	951.8	75.25
1046.3307	3178.3926	955.25	77.9
1046.4347	3179.3428	952.6	78.75
1046.5387	3180.2924	951.9	75.15
1046.6427	3181.2415	953.1	76.2
1046.7466	3182.1899	951.85	72.9
1046.8504	3183.1377	948.15	72.35
1046.9542	3184.0848	953.35	73.95
1047.058	3185.0314	948.15	71.65
1047.1617	3185.9773	950.5	75.15
1047.2654	3186.9227	946.65	70.3
1047.369	3187.8674	948.15	69.7
1047.4726	3188.8115	950.3	69.25
1047.5761	3189.755	950.1	76.55
1047.6796	3190.6979	945.55	70.3
1047.783	3191.6402	942.95	66.05
1047.8864	3192.5818	943.3	64.5
1047.9898	3193.5229	953.2	68.9
1048.0931	3194.4633	943.5	67.85
1048.1963	3195.4031	944.5	66.2
1048.2995	3196.3423	941	62.9
1048.4027	3197.2809	942.75	63.15
1048.5058	3198.2189	945.65	67.85
1048.6089	3199.1563	957.05	63.05
1048.7119	3200.0931	944.1	69.15
1048.8148	3201.0292	940.4	63.6
1048.9178	3201.9648	940.35	62.85
1049.0206	3202.8997	944.65	64.9
1049.1235	3203.834	939.95	61.5
1049.2262	3204.7677	938.35	61.1
1049.329	3205.7008	943.5	66.1
1049.4317	3206.6333	941.05	66.85
1049.5343	3207.5652	941.1	63.35
1049.6369	3208.4964	938.5	62.55
1049.7394	3209.4271	939.2	62.6
1049.8419	3210.3571	938	61.6
1049.9444	3211.2865	938.9	61.4
1050.0468	3212.2154	934.45	55.85
1050.1491	3213.1436	943	63.1
1050.2514	3214.0712	944.25	60.55
1050.3537	3214.9982	937.35	61.5
1050.4559	3215.9246	938.05	59.9
1050.5581	3216.8503	936.15	60.45
1050.6602	3217.7755	933.8	56.85
1050.7623	3218.7001	933.4	55.25
1050.8643	3219.624	935.95	59.3
1050.9663	3220.5473	934.35	56.65
1051.0682	3221.4701	935.8	57.45
1051.1701	3222.3922	934.55	54.15
1051.2719	3223.3137	932.35	56.8
1051.3737	3224.2346	935.5	59.75
1051.4754	3225.1549	930.2	54.45
1051.5771	3226.0746	932.35	54.7
1051.6788	3226.9937	930.7	54.3
1051.7804	3227.9121	929.4	54.05
1051.8819	3228.83	933.7	57.4
1051.9834	3229.7473	930.3	52.05
1052.0849	3230.6639	932.8	57.3
1052.1863	3231.5799	932.2	54.55
1052.2876	3232.4954	930.5	53
1052.3889	3233.4102	927	51.4
1052.4902	3234.3244	927.4	51.7
1052.5914	3235.238	928.7	53.45
1052.6926	3236.151	951.25	52
1052.7937	3237.0634	926.4	51.8
1052.8948	3237.9752	928	50.75
1052.9958	3238.8864	927.75	50.55
1053.0968	3239.797	927.8	51.55
1053.1977	3240.7069	927.75	50.35
1053.2986	3241.6163	927.7	47.85
1053.3994	3242.5251	924.4	47.8
1053.5002	3243.4332	924	47.75
1053.6009	3244.3408	923.55	46.75
1053.7016	3245.2477	922	46.95
1053.8022	3246.154	923	45.1
1053.9028	3247.0598	926.65	51.65
1054.0034	3247.9649	924.45	48.1
1054.1039	3248.8694	925.6	51.95
1054.2043	3249.7733	922.2	44.9
1054.3047	3250.6766	924	46
1054.4051	3251.5793	920.85	43.65
1054.5054	3252.4814	922.4	44.45
1054.6056	3253.3829	917.45	41
1054.7058	3254.2838	924.8	49.35
1054.806	3255.1841	921.05	44.15
1054.9061	3256.0838	917.25	39.3
1055.0061	3256.9829	921	46.95
1055.1062	3257.8814	921.5	43.05
1055.2061	3258.7792	921.3	42.45
1055.306	3259.6765	921.9	43.4
1055.4059	3260.5731	918.5	42.15
1055.5057	3261.4692	916.75	38
1055.6055	3262.3647	918	42.4
1055.7052	3263.2595	915.7	39.15
1055.8049	3264.1538	915.1	40.75
1055.9045	3265.0474	916.9	40.55
1056.0041	3265.9404	915.8	42.35
1056.1036	3266.8329	911.1	34.2
1056.2031	3267.7247	922.25	35.05
1056.3025	3268.616	910.25	34.4
1056.4019	3269.5066	911.85	35.1
1056.5013	3270.3966	911.4	33.75
1056.6005	3271.286	905.3	29.8
