Software Version:	3.9.2.0
Unit SN:	10000200
Spectrometer SN:	6960
Date:	3/8/2024 2:01:11 PM
Data Line Index:	25
Spectral Points:	2048
Integration time (ms):	125
Averages:	20
Delay (ms):	30000
Sequence Number:	1
Processing:	dark subtract
Laser Power (mW):	305
Laser Current (mA):	823
Laser Diode Temp (C):	25
Laser Case Temp (C):	26.2
System Temp (C):	26.2
Spectrometer Temp (C):	24.1
CCD Temp (C):	0.009
Secondary Temp (C):	20.011
Heatsink Temp (C):	20.15
CCDPCB Temp (C):	36.285
SecondaryPCB Temp (C):	30.349

Wavelength	RamanShift	Raw Counts	Dark Subtracted
787.061	30.1047	463.15	56.05
787.2016	32.3739	464.8	59.6
787.3422	34.6426	470.1	61.9
787.4828	36.9109	476.65	67.95
787.6235	39.1787	483.6	71.45
787.7642	41.4461	493.95	77.2
787.9049	43.7131	501.35	83.6
788.0456	45.9796	514.15	92
788.1863	48.2456	518.7	92.2
788.3271	50.5112	527.15	96.25
788.4679	52.7764	541.2	104.15
788.6087	55.0411	553.65	115.1
788.7496	57.3054	563.55	118.2
788.8904	59.5692	573.4	128.4
789.0313	61.8326	588.75	141.35
789.1722	64.0955	598.5	147.2
789.3132	66.3579	617.25	159.45
789.4541	68.6199	635.3	173.85
789.5951	70.8815	670.2	204.4
789.7361	73.1426	754.3	285.45
789.8771	75.4032	970.05	496.9
790.0181	77.6634	1496.1	1020.2
790.1592	79.9231	2713	2226.6
790.3003	82.1824	5395.3	4893.95
790.4414	84.4412	10187.3	9656.85
790.5825	86.6995	16785.75	16213.65
790.7237	88.9574	23237.55	22636.1
790.8648	91.2148	27678.5	27055.8
791.006	93.4717	29813.15	29176.25
791.1472	95.7282	30289.35	29644.7
791.2885	97.9842	30258.3	29610.05
791.4297	100.2398	29716.45	29064.65
791.571	102.4949	29162.45	28510.2
791.7123	104.7495	28468.65	27810.55
791.8536	107.0036	27699.6	27042.35
791.9949	109.2573	26942.7	26281.45
792.1363	111.5105	26238.35	25576.4
792.2777	113.7632	25532.15	24868.25
792.4191	116.0154	24970.25	24294.15
792.5605	118.2672	24523.05	23854.5
792.7019	120.5185	24048.1	23381
792.8434	122.7693	23712.7	23041.65
792.9849	125.0197	23409.4	22731.95
793.1264	127.2696	23195.4	22513.2
793.2679	129.519	23069.95	22385.65
793.4094	131.7679	22846.95	22157
793.551	134.0163	22697.25	22007.55
793.6926	136.2642	22541.25	21847.6
793.8342	138.5117	22343.1	21647.1
793.9758	140.7587	22124.2	21429.45
794.1175	143.0052	21918.25	21214.8
794.2591	145.2512	21710.4	21009.75
794.4008	147.4967	21520.65	20821.4
794.5425	149.7417	21361.7	20656.3
794.6842	151.9863	21259.45	20553.1
794.826	154.2304	21234.95	20521.7
794.9677	156.4739	21098.1	20380.7
795.1095	158.717	21012.5	20292.05
795.2513	160.9596	20892.95	20168.05
795.3931	163.2017	20682.4	19959.95
795.535	165.4433	20375.85	19649.65
795.6768	167.6844	20033.5	19303.35
795.8187	169.925	19779.9	19049.75
795.9606	172.1651	19437.9	18709.8
796.1025	174.4047	19175.7	18440.85
796.2445	176.6439	18939.75	18205.3
796.3864	178.8825	18699.2	17959.15
796.5284	181.1206	18550.1	17801.55
796.6704	183.3582	18399.4	17645.15
796.8124	185.5954	18281.45	17531.05
796.9544	187.832	18236.35	17477.8
797.0965	190.0681	18212.1	17455.9
797.2386	192.3037	18211.45	17447.45
797.3806	194.5388	18200.75	17435.05
797.5228	196.7734	18283.2	17516.5
797.6649	199.0075	18362.95	17595.75
797.807	201.2411	18516.6	17748.25
797.9492	203.4742	18589.3	17819.65
798.0914	205.7068	18789.1	18012.95
798.2336	207.9389	18875.2	18098.75
798.3758	210.1704	19063.45	18296.5
798.518	212.4015	19171.35	18419.55
798.6603	214.632	19338.95	18589.6
798.8025	216.862	19562.3	18808.8
798.9448	219.0915	19715.05	18963.55
799.0871	221.3205	19952.9	19196.45
799.2294	223.549	20233.55	19482.85
799.3718	225.777	20554.7	19800.3
799.5141	228.0044	20903.2	20141.35
799.6565	230.2314	21422.3	20657.7
799.7989	232.4578	21842.4	21076.2
799.9413	234.6837	22191.4	21421.3
800.0837	236.909	22446.6	21673.15
800.2262	239.1339	22466.55	21665.45
800.3687	241.3582	22242.45	21455.4
800.5111	243.582	21924.8	21110.45
800.6536	245.8053	21592.25	20791.7
800.7961	248.0281	21271.1	20477.45
800.9387	250.2503	21042.85	20243.1
801.0812	252.472	20909.75	20108.5
801.2238	254.6932	20853.5	20054.35
801.3664	256.9139	20810.95	20011.2
801.509	259.134	20832.25	20024.05
801.6516	261.3536	20818.25	20013.15
801.7942	263.5727	20881.3	20074.8
801.9369	265.7912	20829.4	20023.7
802.0795	268.0092	20883.95	20077.25
802.2222	270.2267	20847.5	20042
802.3649	272.4436	20828.6	20023.25
802.5076	274.6601	20764	19943.6
802.6504	276.8759	20705	19892.9
802.7931	279.0913	20704.05	19895.7
802.9359	281.3061	20690.35	19874.3
803.0787	283.5204	20756.65	19937.15
803.2215	285.7341	20872.65	20052.8
803.3643	287.9473	21048.4	20218.45
803.5071	290.16	21288.15	20460.35
803.6499	292.3721	21574.8	20759.15
803.7928	294.5837	21989.8	21166.65
803.9357	296.7947	22349.3	21528.65
804.0786	299.0052	22591.4	21768.95
804.2215	301.2152	22475.4	21652.75
804.3644	303.4246	22149.05	21329.5
804.5074	305.6334	21634.75	20818.8
804.6503	307.8418	21119.35	20298.5
804.7933	310.0495	20724.25	19902.35
804.9363	312.2568	20429.75	19602.7
805.0793	314.4635	20186.35	19356.5
805.2223	316.6696	20129.5	19299.1
805.3653	318.8752	20097.7	19256.6
805.5084	321.0802	20142.85	19307.4
805.6514	323.2847	20253.1	19414.45
805.7945	325.4887	20324.65	19489.6
805.9376	327.692	20266.7	19426.3
806.0807	329.8949	20187.45	19349.5
806.2238	332.0972	19934.75	19090.8
806.367	334.2989	19715.3	18871.7
806.5101	336.5001	19426.85	18585.45
806.6533	338.7007	19241.2	18395.9
806.7965	340.9008	19137.45	18292.9
806.9397	343.1003	19048.05	18203.65
807.0829	345.2992	19030.8	18181.55
807.2261	347.4976	18969.75	18119.55
807.3693	349.6955	18979.35	18128.15
807.5126	351.8927	19070.1	18216.65
807.6559	354.0895	19093.65	18227.35
807.7991	356.2856	19139.9	18281.1
807.9424	358.4812	19092.5	18238.55
808.0857	360.6763	19178.5	18322.55
808.2291	362.8707	19139.55	18278.65
808.3724	365.0646	19214.65	18354.55
808.5158	367.258	19233.6	18371.65
808.6591	369.4508	19295.05	18432.1
808.8025	371.643	19389.8	18522.5
808.9459	373.8346	19356.5	18490.7
809.0893	376.0257	19347	18479.55
809.2327	378.2162	19281.85	18412.75
809.3762	380.4062	19217.9	18352.9
809.5196	382.5956	19064.95	18197.75
809.6631	384.7844	18969.55	18111.25
809.8066	386.9726	18880.05	18021.7
809.9501	389.1603	18831.35	17974.55
810.0936	391.3474	18825.25	17929.15
810.2371	393.5339	18821.6	17959.05
810.3806	395.7199	18764	17903.75
810.5241	397.9052	18803.65	17944.5
810.6677	400.09	18829.45	17967.35
810.8113	402.2743	18893.1	18031.1
810.9548	404.4579	19003.7	18140.1
811.0984	406.641	19196.8	18332.55
811.2421	408.8235	19422.1	18559.15
811.3857	411.0054	19727.15	18863.25
811.5293	413.1868	20187.6	19317.35
811.673	415.3675	20495.85	19617.25
811.8166	417.5477	20714.65	19841.8
811.9603	419.7273	20779.45	19907.05
812.104	421.9064	20704.8	19827.4
812.2477	424.0848	20537.6	19660.55
812.3914	426.2627	20346.8	19474.45
812.5351	428.4399	20086.5	19210.45
812.6788	430.6166	19694	18810.2
812.8226	432.7928	19356.4	18475.3
812.9663	434.9683	19069	18189.45
813.1101	437.1432	18817.8	17939.1
813.2539	439.3176	18705.45	17832.45
813.3977	441.4914	18576	17708.3
813.5415	443.6645	18575.9	17703.95
813.6853	445.8371	18545.95	17674.05
813.8291	448.0091	18463.65	17585.45
813.973	450.1806	18403.2	17528.7
814.1168	452.3514	18351.3	17475.85
814.2607	454.5216	18400.7	17514.45
814.4046	456.6913	18318.4	17441.85
814.5485	458.8603	18373.15	17493.9
814.6924	461.0288	18428.5	17556.2
814.8363	463.1967	18422.25	17551.55
814.9802	465.3639	18594.55	17720.35
815.1241	467.5306	18718.3	17839.9
815.2681	469.6967	18882.45	18012.85
815.412	471.8622	19004.2	18134.3
815.556	474.0271	19174.35	18302.4
815.7	476.1914	19247.75	18368.65
815.844	478.3551	19269.15	18389.75
815.988	480.5182	19264.2	18390
816.132	482.6807	19253.35	18385.7
816.276	484.8426	19379.4	18516.5
816.4201	487.0039	19657.75	18788.3
816.5641	489.1647	20094.35	19214.3
816.7082	491.3248	20521.05	19638.95
816.8522	493.4843	20730.7	19858.5
816.9963	495.6432	20694.35	19820.05
817.1404	497.8015	20635.35	19752.65
817.2845	499.9592	20704.7	19816.25
817.4286	502.1163	20637	19745.9
817.5727	504.2728	20393.3	19513.75
817.7168	506.4287	20150	19280.5
817.861	508.5839	19686.3	18815.2
818.0051	510.7386	19369.8	18490.4
818.1493	512.8927	19210.85	18325.85
818.2935	515.0461	19140.8	18251.1
818.4377	517.199	19098	18211.95
818.5818	519.3512	19085.6	18196.3
818.726	521.5029	19173.35	18279.8
818.8703	523.6539	19251.9	18364.9
819.0145	525.8043	19320	18432.15
819.1587	527.9541	19359.05	18464.85
819.303	530.1033	19369.85	18479
819.4472	532.2519	19416.85	18524.25
819.5915	534.3999	19517.6	18622.75
819.7357	536.5472	19830.65	18937.5
819.88	538.694	20309.65	19423.1
820.0243	540.8401	20890.85	19997.35
820.1686	542.9856	21390.85	20489.4
820.3129	545.1305	21561.7	20654.5
820.4572	547.2748	21452	20540.85
820.6016	549.4185	21124.55	20212.45
820.7459	551.5615	20764.65	19859.15
820.8902	553.704	20653.05	19745.5
821.0346	555.8458	20572.4	19673.7
821.1789	557.987	20628.25	19733.6
821.3233	560.1276	20585.45	19682.6
821.4677	562.2675	20678.9	19775.3
821.6121	564.4069	20692.85	19791.15
821.7565	566.5456	20694.7	19795.2
821.9009	568.6837	20667.65	19771.7
822.0453	570.8212	20343.2	19443.9
822.1897	572.958	20058.9	19156.3
822.3342	575.0942	19750.8	18857.25
822.4786	577.2299	19627.9	18738.85
822.6231	579.3648	19551.1	18673.8
822.7675	581.4992	19633.7	18760.8
822.912	583.6329	19795.25	18921.5
823.0565	585.766	20060.15	19182.5
823.201	587.8985	20189.4	19308.85
823.3454	590.0304	20203.45	19301.35
823.4899	592.1616	20200.75	19298.35
823.6345	594.2922	20116.7	19212.5
823.779	596.4222	19932.75	19024.85
823.9235	598.5515	19779.95	18871.7
824.068	600.6802	19607.95	18701.85
824.2126	602.8083	19416	18513
824.3571	604.9358	19390.85	18485.85
824.5017	607.0626	19344.4	18436.35
824.6462	609.1888	19342.65	18428.9
824.7908	611.3144	19322.05	18407.7
824.9354	613.4393	19199.4	18290.45
825.08	615.5636	19134.95	18222.4
825.2246	617.6873	19057.8	18148.2
825.3692	619.8103	18992.95	18080.7
825.5138	621.9327	18888.2	17978.95
825.6584	624.0544	18897.1	17991.6
825.803	626.1756	18889	17983.9
825.9477	628.2961	18875.7	17965.05
826.0923	630.4159	18822.55	17912.6
826.237	632.5351	18779.75	17866.7
826.3816	634.6537	18729.55	17817.8
826.5263	636.7716	18764.35	17844.6
826.6709	638.8889	18765.7	17845.3
826.8156	641.0056	18808	17885.65
826.9603	643.1216	18825.55	17906.85
827.105	645.237	18843.75	17926.75
827.2497	647.3518	18856.4	17948
827.3944	649.4659	18867.1	17965.35
827.5391	651.5793	18886.7	17984.15
827.6838	653.6922	18844.15	17936
827.8285	655.8043	18870.25	17961.85
827.9733	657.9159	18867.15	17956.3
828.118	660.0268	18823.1	17914.7
828.2627	662.137	18756.75	17845.4
828.4075	664.2466	18798.15	17874.95
828.5522	666.3556	18768.35	17848.7
828.697	668.4639	18752.95	17836.8
828.8418	670.5716	18843.75	17937.75
828.9865	672.6786	18898.85	17983.65
829.1313	674.785	18941.65	18019.7
829.2761	676.8907	19051.85	18138.8
829.4209	678.9958	19138.6	18229.6
829.5657	681.1002	19080.3	18163.45
829.7105	683.204	19123.3	18197.55
829.8553	685.3072	19062.2	18139.1
830.0001	687.4097	18994.9	18077.05
830.1449	689.5115	18983.1	18062.1
830.2898	691.6127	18965.3	18045.95
830.4346	693.7132	18882.55	17971.3
830.5794	695.8131	18896.65	17957.45
830.7243	697.9123	18870.35	17946.05
830.8691	700.0109	18864	17938.85
831.014	702.1089	18884.45	17966.4
831.1588	704.2061	18875.45	17957.4
831.3037	706.3028	18957.45	18035.55
831.4486	708.3987	18987.65	18061.95
831.5935	710.4941	19103.25	18180
831.7383	712.5887	19297.65	18376.5
831.8832	714.6827	19553.2	18632.5
832.0281	716.7761	19876.9	18962.45
832.173	718.8688	20278.5	19357.5
832.3179	720.9608	20479.25	19552
832.4628	723.0522	20596.95	19662.45
832.6077	725.1429	20384.95	19459.9
832.7527	727.233	20145.35	19219.85
832.8976	729.3224	19936.15	19011.1
833.0425	731.4112	19626.85	18702.4
833.1874	733.4993	19461.15	18536.45
833.3324	735.5867	19291.65	18368.25
833.4773	737.6735	19216.4	18288.15
833.6222	739.7596	19155.4	18228.15
833.7672	741.845	19142.1	18214.55
833.9122	743.9298	19082.75	18157
834.0571	746.014	19117.2	18195.15
834.2021	748.0974	19171.65	18238.7
834.347	750.1802	19108	18178.45
834.492	752.2624	19120.6	18192.15
834.637	754.3439	19167.75	18236.55
834.782	756.4247	19251.8	18311.8
834.9269	758.5048	19331.5	18400.1
835.0719	760.5843	19579.2	18646.8
835.2169	762.6631	19871.3	18940.9
835.3619	764.7413	20342.55	19410.9
835.5069	766.8188	20907.85	19974.35
835.6519	768.8956	21354.6	20423.4
835.7969	770.9718	21686.3	20754.8
835.9419	773.0473	21556.05	20624.95
836.0869	775.1221	21232.25	20302.55
836.232	777.1962	20850.5	19918.85
836.377	779.2697	20713.5	19779.4
836.522	781.3426	20755.95	19807.7
836.667	783.4147	21019.05	20083.5
836.8121	785.4862	21362.1	20428.55
836.9571	787.557	21381.3	20448
837.1021	789.6271	21009.15	20070.95
837.2472	791.6966	20477.85	19544.1
837.3922	793.7654	19977.95	19043.6
837.5373	795.8335	19686.4	18755.95
837.6823	797.901	19494.45	18558.6
837.8274	799.9678	19456.3	18522.3
837.9724	802.0339	19467.2	18532.3
838.1175	804.0993	19524.15	18580.35
838.2626	806.1641	19510.5	18572.15
838.4076	808.2282	19455.4	18519.6
838.5527	810.2916	19355.75	18421
838.6978	812.3544	19341.05	18410
838.8428	814.4164	19234.75	18298.95
838.9879	816.4778	19280.05	18338.9
839.133	818.5385	19259	18319
839.2781	820.5986	19356.65	18420.6
839.4232	822.658	19483.95	18544.85
839.5682	824.7166	19565	18625.55
839.7133	826.7747	19881.4	18943.8
839.8584	828.832	20030.75	19095.9
840.0035	830.8886	20168	19226.6
840.1486	832.9446	20318.15	19374.6
840.2937	834.9999	20306.65	19369.1
840.4388	837.0545	20388.3	19445.45
840.5839	839.1085	20385.8	19445.1
840.729	841.1618	20371.25	19425.95
840.8741	843.2143	20374.55	19436.45
841.0192	845.2662	20237.75	19300.8
841.1643	847.3175	20195.35	19256.3
841.3095	849.368	20083.6	19141.1
841.4546	851.4179	19972.9	19035
841.5997	853.467	19819.65	18883.55
841.7448	855.5155	19724.4	18782.4
841.8899	857.5633	19650	18710.1
842.0351	859.6105	19570.8	18630.7
842.1802	861.6569	19488.55	18548.65
842.3253	863.7027	19471.45	18529.95
842.4704	865.7478	19465.75	18528.15
842.6156	867.7922	19496.65	18557.25
842.7607	869.8359	19532.3	18590.65
842.9058	871.8789	19676.95	18736.2
843.0509	873.9212	19842.7	18868.8
843.1961	875.9629	20015.25	19073.3
843.3412	878.0039	20209.25	19266.3
843.4863	880.0441	20346.7	19409.6
843.6315	882.0837	20352.6	19408.25
843.7766	884.1226	20252.15	19309.25
843.9218	886.1609	20155.75	19216.2
844.0669	888.1984	20109.95	19170.75
844.212	890.2352	20149.55	19209
844.3572	892.2714	20093.4	19146.65
844.5023	894.3069	20089	19149.75
844.6475	896.3416	20006.1	19063.25
844.7926	898.3757	20024.05	19079.3
844.9377	900.4091	19985.1	19040.75
845.0829	902.4418	20031.25	19080.35
845.228	904.4739	20059.9	19114.2
845.3732	906.5052	20074.85	19130.1
845.5183	908.5358	19958.5	19010.9
845.6635	910.5658	19829.75	18882.65
845.8086	912.595	19681.9	18732.4
845.9538	914.6236	19538.9	18594.4
846.0989	916.6515	19475.2	18529.85
846.2441	918.6786	19488.3	18539.65
846.3892	920.7051	19601.4	18651.15
846.5344	922.7309	19707.2	18763.75
846.6795	924.756	19757.55	18814.75
846.8246	926.7804	19859.05	18914.1
846.9698	928.8041	19767.2	18822.85
847.1149	930.8272	19841.7	18896.25
847.2601	932.8495	19766.1	18822.75
847.4052	934.8711	19741.15	18793.85
847.5504	936.892	19579.9	18632.8
847.6955	938.9123	19450.95	18502.2
847.8407	940.9318	19354.7	18407.7
847.9858	942.9506	19220.65	18274.9
848.131	944.9688	19111.55	18169.25
848.2761	946.9862	19082.1	18134.15
848.4213	949.003	18991.95	18043.6
848.5664	951.019	18990.35	18042.7
848.7115	953.0344	18997.8	18055
848.8567	955.0491	19061.4	18115.1
849.0018	957.063	19152.4	18206.15
849.147	959.0763	19297.1	18354.7
849.2921	961.0888	19332.15	18387.5
849.4373	963.1007	19451.1	18510
849.5824	965.1119	19493.95	18559.65
849.7275	967.1223	19525.3	18593.65
849.8727	969.1321	19500.4	18570.5
850.0178	971.1412	19586.4	18651.6
850.1629	973.1495	19610.65	18669.75
850.3081	975.1572	19672.2	18683.5
850.4532	977.1641	19699.2	18753.45
850.5983	979.1704	19680.95	18735.75
850.7435	981.1759	19657.5	18711.4
850.8886	983.1808	19770.65	18821.05
851.0337	985.1849	19830.95	18874.9
851.1788	987.1884	19986.25	19042.8
851.324	989.1911	20172.05	19227.45
851.4691	991.1932	20311.8	19369.9
851.6142	993.1945	20277.15	19335.75
851.7593	995.1951	20195.75	19251.35
851.9045	997.1951	20227.2	19274.75
852.0496	999.1943	20151.55	19205.3
852.1947	1001.1928	20094.2	19147.5
852.3398	1003.1906	20076.1	19131.05
852.4849	1005.1877	20132.2	19184.65
852.63	1007.1841	20109.7	19162.95
852.7751	1009.1798	20035.6	19092.85
852.9202	1011.1748	19873.5	18929.05
853.0653	1013.1691	19645.35	18698
853.2104	1015.1627	19422.7	18476.7
853.3555	1017.1556	19201.95	18261.25
853.5006	1019.1477	19101.6	18160.75
853.6457	1021.1392	19012.35	18078
853.7908	1023.1299	18997.2	18067.45
853.9359	1025.12	19016.85	18087.05
854.081	1027.1093	19044.25	18129.3
854.2261	1029.0979	19089.8	18179.05
854.3712	1031.0859	19166.9	18245.35
854.5163	1033.0731	19171.9	18241.65
854.6613	1035.0596	19118.8	18183.3
854.8064	1037.0454	18948.4	18008.55
854.9515	1039.0304	18840.35	17899.95
855.0965	1041.0148	18734.9	17791.8
855.2416	1042.9985	18661.6	17718.8
855.3867	1044.9814	18629.2	17687.5
855.5317	1046.9636	18520.8	17578.15
855.6768	1048.9452	18519.9	17580
855.8219	1050.926	18552.75	17610.65
855.9669	1052.9061	18533.4	17591.5
856.112	1054.8855	18541.45	17597.2
856.257	1056.8642	18560.1	17615.25
856.4021	1058.8421	18644.2	17697.4
856.5471	1060.8194	18653.85	17708.15
856.6921	1062.7959	18685.95	17742.8
856.8372	1064.7717	18722.3	17778.65
856.9822	1066.7469	18758.1	17815
857.1272	1068.7213	18754.95	17809.2
857.2723	1070.695	18731.75	17791.2
857.4173	1072.6679	18656	17711.25
857.5623	1074.6402	18641.35	17693.8
857.7073	1076.6117	18664.95	17714.65
857.8523	1078.5826	18653.55	17710
857.9973	1080.5527	18652.8	17706.1
858.1423	1082.5221	18707.35	17764.75
858.2873	1084.4908	18874.65	17931.75
858.4323	1086.4587	19073.75	18128.75
858.5773	1088.426	19199	18254.15
858.7223	1090.3925	19173.45	18225.8
858.8673	1092.3584	19149.15	18203.7
859.0123	1094.3235	18981.8	18041.8
859.1573	1096.2879	18957.25	18014.25
859.3022	1098.2515	18963.5	18022.4
859.4472	1100.2145	19006.25	18066.45
859.5922	1102.1767	19082.55	18136.75
859.7371	1104.1382	19241.7	18299.45
859.8821	1106.099	19424.1	18477.8
860.027	1108.0591	19663.05	18720.3
860.172	1110.0185	19752.5	18809.45
860.3169	1111.9771	19840.1	18897.4
860.4619	1113.9351	19618.6	18676.75
860.6068	1115.8923	19309.1	18365.5
860.7517	1117.8488	19040.4	18097.5
860.8967	1119.8045	18731.25	17792.05
861.0416	1121.7596	18640.15	17695.1
861.1865	1123.7139	18564.45	17625.9
861.3314	1125.6675	18564.15	17623.4
861.4763	1127.6204	18642.8	17704
861.6212	1129.5726	18590.4	17650.8
861.7661	1131.524	18627.25	17688
861.911	1133.4748	18591.4	17650.9
862.0559	1135.4248	18556.4	17615.15
862.2008	1137.3741	18566.7	17625.7
862.3457	1139.3226	18510.75	17571.45
862.4905	1141.2705	18483.05	17539.3
862.6354	1143.2176	18369.55	17419.7
862.7803	1145.164	18415.45	17470.45
862.9251	1147.1097	18400.1	17458.55
863.07	1149.0546	18401.05	17457.5
863.2148	1150.9989	18327.25	17386.35
863.3597	1152.9424	18197.35	17253.75
863.5045	1154.8852	18013.45	17070.8
863.6493	1156.8272	17892.25	16949.45
863.7942	1158.7686	17885.55	16939.15
863.939	1160.7092	17827.3	16883.2
864.0838	1162.6491	17822.5	16878.5
864.2286	1164.5883	17890.6	16946.75
864.3734	1166.5267	17955.9	17016.6
864.5182	1168.4644	18143.55	17201.6
864.663	1170.4014	18315.9	17373.15
864.8078	1172.3377	18541.7	17603.3
864.9526	1174.2732	18785.85	17846.4
865.0974	1176.2081	19024.7	18085.8
865.2421	1178.1421	19261.45	18319.6
865.3869	1180.0755	19492.8	18551.9
865.5317	1182.0082	19538.7	18602.25
865.6764	1183.9401	19555.65	18615.4
865.8212	1185.8713	19415.5	18481.9
865.9659	1187.8017	19171.95	18246
866.1106	1189.7315	18895.65	17978.5
866.2554	1191.6605	18613.15	17695.95
866.4001	1193.5888	18382.6	17459.6
866.5448	1195.5163	18275.05	17344.4
866.6895	1197.4432	18222.9	17286.65
866.8342	1199.3693	18112.2	17176.15
866.9789	1201.2947	18079.05	17132.4
867.1236	1203.2193	18061.1	17125.35
867.2683	1205.1432	18077.5	17137.6
867.413	1207.0664	18089	17150.95
867.5576	1208.9889	18130.8	17192.15
867.7023	1210.9106	18154.85	17213.6
867.847	1212.8316	18174.15	17240.65
867.9916	1214.7519	18227.65	17284.1
868.1363	1216.6715	18243.75	17306.75
868.2809	1218.5903	18198.8	17261.6
868.4255	1220.5084	18168.8	17230.3
868.5701	1222.4257	18199.1	17260.95
868.7148	1224.3424	18115.75	17181.8
868.8594	1226.2583	18178.45	17242
869.004	1228.1735	18295.55	17359
869.1486	1230.0879	18331.8	17395.25
869.2932	1232.0016	18444.8	17508.7
869.4377	1233.9146	18472.4	17532.3
869.5823	1235.8269	18394.35	17458.95
869.7269	1237.7384	18263.5	17326.25
869.8715	1239.6492	18050.3	17117.85
870.016	1241.5592	17971.25	17036.15
870.1606	1243.4686	17896.15	16960.65
870.3051	1245.3772	17857.85	16921.15
870.4496	1247.285	17846.5	16908.05
870.5941	1249.1922	17790.3	16853.6
870.7387	1251.0986	17800.45	16866.25
870.8832	1253.0042	17773.85	16839.6
871.0277	1254.9092	17845.55	16912.15
871.1722	1256.8134	17907.2	16975.1
871.3167	1258.7169	18011.4	17074.25
871.4611	1260.6196	18181	17246.5
871.6056	1262.5216	18386.95	17450
871.7501	1264.4229	18531.85	17597.45
871.8945	1266.3234	18683.2	17747.9
872.039	1268.2232	18724.75	17789
872.1834	1270.1223	18713.7	17779.95
872.3278	1272.0207	18737.85	17803
872.4723	1273.9183	18700.2	17759.55
872.6167	1275.8151	18596.1	17660.65
872.7611	1277.7113	18504.35	17569.2
872.9055	1279.6067	18375	17439.7
873.0499	1281.5014	18277.95	17341.1
873.1943	1283.3953	18263.45	17325.2
873.3386	1285.2885	18270.6	17339.65
873.483	1287.181	18339	17406.75
873.6274	1289.0727	18446.35	17515.45
873.7717	1290.9637	18444.85	17511.35
873.9161	1292.854	18657.05	17724.85
874.0604	1294.7435	18746.65	17811.6
874.2047	1296.6323	18912.2	17977
874.349	1298.5204	19112.2	18175.4
874.4933	1300.4077	19326	18391.6
874.6376	1302.2943	19454.6	18522.85
874.7819	1304.1802	19496.75	18562.35
874.9262	1306.0653	19365.55	18432.5
875.0705	1307.9497	19132	18199
875.2147	1309.8333	18980.65	18048.45
875.359	1311.7162	18900.95	17966.15
875.5032	1313.5984	18927.75	17991.3
875.6475	1315.4798	18913.85	17964.55
875.7917	1317.3605	19015.4	18064.85
875.9359	1319.2405	19049.85	18115.1
876.0801	1321.1197	18979.35	18042.95
876.2243	1322.9982	18846.25	17908.7
876.3685	1324.876	18779.8	17844.85
876.5127	1326.753	18681.9	17750.5
876.6569	1328.6293	18653.35	17719.55
876.801	1330.5048	18656.55	17721.35
876.9452	1332.3796	18593.25	17657.2
877.0893	1334.2537	18584.5	17627.6
877.2335	1336.127	18493.15	17559.55
877.3776	1337.9996	18480.95	17548.4
877.5217	1339.8714	18430.55	17496.85
877.6658	1341.7426	18394.25	17416.75
877.8099	1343.6129	18321.25	17385.45
877.954	1345.4826	18283.05	17346.15
878.0981	1347.3515	18263.9	17326.3
878.2422	1349.2196	18185.35	17248.6
878.3862	1351.087	18223.2	17284.45
878.5303	1352.9537	18243.05	17310.05
878.6743	1354.8197	18349.35	17414.75
878.8184	1356.6849	18514.65	17578
878.9624	1358.5493	18611.1	17674.5
879.1064	1360.4131	18636.55	17699.05
879.2504	1362.276	18575.1	17639.1
879.3944	1364.1383	18433.4	17502.7
879.5384	1365.9998	18165.9	17224.8
879.6823	1367.8606	17834.25	16898.85
879.8263	1369.7206	17565.15	16631.8
879.9702	1371.5799	17337.95	16402.85
880.1142	1373.4384	17129.3	16195.35
880.2581	1375.2962	16995.4	16057.45
880.402	1377.1533	16687.75	15756.95
880.5459	1379.0096	16364.6	15436.15
880.6898	1380.8652	16103.55	15174.5
880.8337	1382.7201	15856.2	14926.6
880.9776	1384.5742	15604.75	14671.75
881.1215	1386.4275	15404.6	14472.85
881.2653	1388.2802	15266.45	14334.65
881.4092	1390.132	15181.15	14247.8
881.553	1391.9832	15101.6	14161.4
881.6968	1393.8336	14985.05	14054.15
881.8406	1395.6832	14932.35	13995.95
881.9844	1397.5322	14874.3	13941.8
882.1282	1399.3803	14832.4	13895.9
882.272	1401.2278	14777.95	13845.9
882.4158	1403.0745	14735.8	13804.05
882.5595	1404.9204	14697.35	13768.45
882.7033	1406.7656	14716.4	13782.45
882.847	1408.6101	14704.45	13774.55
882.9908	1410.4538	14701.95	13768.2
883.1345	1412.2968	14727.65	13798.3
883.2782	1414.139	14735	13803.45
883.4219	1415.9805	14824.35	13893.25
883.5656	1417.8213	14868.7	13931.7
883.7092	1419.6613	14983.3	14050.4
883.8529	1421.5006	15165.5	14232.55
883.9965	1423.3391	15371.7	14439.55
884.1402	1425.1769	15682.2	14749.6
884.2838	1427.0139	16163.4	15231.55
884.4274	1428.8502	16678.05	15748.7
884.571	1430.6858	17224.7	16295.5
884.7146	1432.5206	17584.05	16654.35
884.8582	1434.3547	17868.8	16937.75
885.0018	1436.188	17861.8	16932.4
885.1453	1438.0206	17779.55	16847.75
885.2889	1439.8524	17605.55	16675.5
885.4324	1441.6835	17473.4	16540.4
885.5759	1443.5139	17416.8	16481.3
885.7194	1445.3435	17328.55	16400.15
885.8629	1447.1724	17255.15	16327.6
886.0064	1449.0005	17197	16268.95
886.1499	1450.8279	17090.9	16161.3
886.2933	1452.6545	17061.5	16134
886.4368	1454.4804	17081.25	16155.6
886.5802	1456.3056	17047.25	16112.3
886.7237	1458.13	16899.45	15971.55
886.8671	1459.9536	16682.5	15752.1
887.0105	1461.7766	16378.55	15450.05
887.1539	1463.5987	15958.05	15028.35
887.2972	1465.4202	15560	14630.3
887.4406	1467.2409	15231.75	14301.4
887.584	1469.0608	14955.4	14025.25
887.7273	1470.88	14693.45	13765.75
887.8706	1472.6984	14441.3	13515.55
888.0139	1474.5161	14233.05	13300.3
888.1572	1476.3331	14054.8	13125.5
888.3005	1478.1493	13929.5	13000.8
888.4438	1479.9648	13826.9	12897
888.5871	1481.7795	13734.25	12803.35
888.7303	1483.5935	13641.2	12712.3
888.8736	1485.4067	13580.45	12653.45
889.0168	1487.2192	13539.45	12609.85
889.16	1489.031	13482.15	12549.7
889.3032	1490.842	13397.65	12469
889.4464	1492.6522	13381.25	12455.6
889.5896	1494.4618	13302.75	12373.15
889.7327	1496.2705	13313.7	12386.15
889.8759	1498.0785	13232.25	12302.95
890.019	1499.8858	13186.05	12258.85
890.1622	1501.6924	13144.95	12219.5
890.3053	1503.4981	13134.05	12207.75
890.4484	1505.3032	13103.8	12175.65
890.5914	1507.1075	13050.75	12122.95
890.7345	1508.911	13016.95	12087.85
890.8776	1510.7138	12964	12036.45
891.0206	1512.5159	12898.9	11973.7
891.1637	1514.3172	12829.9	11904.65
891.3067	1516.1178	12807.05	11880.4
891.4497	1517.9176	12735.75	11808.05
891.5927	1519.7166	12671.15	11746.6
891.7357	1521.515	12644.2	11713.8
891.8786	1523.3126	12621.4	11698.8
892.0216	1525.1094	12565.65	11637.05
892.1645	1526.9055	12511.75	11588.55
892.3074	1528.7008	12450.45	11526.4
892.4503	1530.4954	12405.25	11481.7
892.5932	1532.2893	12353.85	11431.1
892.7361	1534.0824	12289.6	11364.65
892.879	1535.8747	12324.85	11406.3
893.0218	1537.6663	12287.05	11365.9
893.1647	1539.4572	12249.1	11325.1
893.3075	1541.2473	12258.2	11333.95
893.4503	1543.0367	12221.35	11299.25
893.5931	1544.8253	12208.85	11283.65
893.7359	1546.6132	12182.8	11257.5
893.8787	1548.4003	12132.9	11200
894.0214	1550.1867	12189.15	11261.3
894.1642	1551.9723	12206.1	11285.5
894.3069	1553.7572	12225.6	11304.85
894.4496	1555.5414	12248.75	11332.15
894.5923	1557.3247	12241.95	11325.25
894.735	1559.1074	12336.05	11420.7
894.8777	1560.8893	12347.8	11434.3
895.0204	1562.6705	12415.1	11500.4
895.163	1564.4509	12481.6	11565.35
895.3056	1566.2305	12521.65	11610.6
895.4482	1568.0094	12571.85	11662.15
895.5908	1569.7876	12628.25	11714.45
895.7334	1571.565	12679.25	11765.85
895.876	1573.3417	12663.2	11750.1
896.0186	1575.1176	12614.25	11700.7
896.1611	1576.8928	12559.25	11649.8
896.3036	1578.6672	12422.5	11515.65
896.4461	1580.4409	12347.35	11444.6
896.5886	1582.2138	12249.9	11341.45
896.7311	1583.986	12130.9	11220
896.8736	1585.7575	12050.95	11140.4
897.0161	1587.5282	11966.45	11062.35
897.1585	1589.2981	11940.8	11036.65
897.3009	1591.0673	11880.05	10971.6
897.4433	1592.8358	11898.3	10992.7
897.5857	1594.6035	11933.85	11022.8
897.7281	1596.3704	11887.1	10977.05
897.8705	1598.1366	11923.65	11012.85
898.0128	1599.9021	11947.6	11041.55
898.1551	1601.6668	11986.05	11077.95
898.2975	1603.4308	12038.25	11127.45
898.4398	1605.194	12138.5	11226
898.5821	1606.9564	12203.1	11301.75
898.7243	1608.7182	12338.7	11439.5
898.8666	1610.4791	12502.35	11609.45
899.0088	1612.2394	12650.85	11757
899.1511	1613.9988	12817.15	11923.15
899.2933	1615.7576	13010.05	12108.45
899.4355	1617.5156	13235.45	12322.1
899.5776	1619.2728	13400.4	12487.8
899.7198	1621.0293	13496.4	12588.7
899.862	1622.785	13523.55	12616.7
900.0041	1624.54	13393.05	12491
900.1462	1626.2942	13244.1	12341.45
900.2883	1628.0477	12953.65	12047.7
900.4304	1629.8005	12738.2	11833.95
900.5725	1631.5525	12496.2	11595.7
900.7145	1633.3037	12301.65	11400.5
900.8566	1635.0542	12177.2	11277.3
900.9986	1636.804	12072.3	11171.3
901.1406	1638.553	12030.45	11069
901.2826	1640.3013	11895.1	10994.2
901.4245	1642.0488	11870.95	10965.6
901.5665	1643.7955	11912.2	11014.4
901.7085	1645.5416	11950.25	11051.4
901.8504	1647.2868	12023.1	11124.55
901.9923	1649.0313	12082.65	11180.75
902.1342	1650.7751	12244.8	11343.85
902.2761	1652.5181	12377.55	11479.4
902.4179	1654.2604	12545.35	11647.8
902.5598	1656.0019	12796	11898.25
902.7016	1657.7427	13103.1	12202.15
902.8434	1659.4828	13392.05	12487.3
902.9852	1661.222	13559.25	12652.65
903.127	1662.9606	13525.45	12622.85
903.2687	1664.6984	13340.45	12433.9
903.4105	1666.4354	12939.15	12033.65
903.5522	1668.1717	12464.3	11558.8
903.6939	1669.9072	11934.25	11028.55
903.8356	1671.642	11492.35	10585.65
903.9773	1673.3761	11152.25	10248.05
904.119	1675.1094	10871.05	9969.05
904.2606	1676.8419	10599.75	9698.35
904.4022	1678.5737	10430.5	9530.05
904.5439	1680.3048	10322.45	9418.35
904.6855	1682.0351	10201.1	9294.6
904.827	1683.7646	10097	9192.65
904.9686	1685.4934	9993.45	9091.45
905.1101	1687.2215	9930.8	9030.45
905.2517	1688.9488	9833.3	8935.8
905.3932	1690.6754	9761.35	8863.25
905.5347	1692.4012	9753	8852.25
905.6761	1694.1263	9679.7	8778.7
905.8176	1695.8506	9654.1	8752.6
905.9591	1697.5742	9608.35	8709.15
906.1005	1699.297	9550.6	8653.25
906.2419	1701.0191	9489.35	8595.05
906.3833	1702.7404	9441.7	8549
906.5246	1704.461	9381.25	8485.05
906.666	1706.1808	9339.1	8439.55
906.8073	1707.8999	9322.75	8424.1
906.9487	1709.6182	9291.15	8398.05
907.09	1711.3358	9242.3	8349.8
907.2313	1713.0527	9220.85	8330.95
907.3725	1714.7688	9177.1	8278.85
907.5138	1716.4841	9140.75	8241.45
907.655	1718.1987	9129.8	8226.3
907.7962	1719.9126	9065.55	8173.2
907.9374	1721.6257	9033.25	8140.5
908.0786	1723.338	9013.45	8123.4
908.2198	1725.0496	8968.05	8073.35
908.3609	1726.7605	8965.9	8068.4
908.502	1728.4706	8922.7	8026.5
908.6431	1730.18	8869.1	7973.8
908.7842	1731.8886	8848.95	7956.55
908.9253	1733.5964	8834.45	7920.7
909.0664	1735.3036	8813.15	7918.05
909.2074	1737.0099	8795.55	7903.45
909.3484	1738.7156	8765.4	7876.15
909.4894	1740.4204	8715.6	7820.85
909.6304	1742.1246	8681	7786.85
909.7714	1743.8279	8649.85	7757.4
909.9123	1745.5306	8635.85	7741.75
910.0532	1747.2325	8601.95	7709.2
910.1941	1748.9336	8590.65	7696.9
910.335	1750.634	8558.5	7662
910.4759	1752.3336	8521.35	7630.25
910.6168	1754.0325	8505.8	7617.65
910.7576	1755.7307	8465.05	7575.6
910.8984	1757.4281	8466.75	7574.15
911.0392	1759.1247	8452.15	7549.95
911.18	1760.8206	8432.55	7533.45
911.3208	1762.5158	8423.2	7522.35
911.4615	1764.2102	8390.4	7495.8
911.6022	1765.9039	8335.7	7442.6
911.7429	1767.5968	8333.35	7443.9
911.8836	1769.289	8299.2	7409.15
912.0243	1770.9804	8284.75	7390.8
912.1649	1772.6711	8258.7	7363.85
912.3056	1774.361	8252.2	7354.25
912.4462	1776.0502	8215.4	7317.85
912.5868	1777.7386	8218.1	7320.5
912.7274	1779.4263	8187.15	7293
912.8679	1781.1132	8181.2	7293.05
913.0084	1782.7994	8162.8	7275.25
913.149	1784.4849	8121.7	7231.7
913.2895	1786.1696	8075.8	7179.4
913.4299	1787.8535	8100.25	7209.45
913.5704	1789.5367	8055.7	7167.85
913.7108	1791.2192	8038.6	7148.9
913.8513	1792.9009	8037.05	7119.9
913.9917	1794.5818	8017.8	7122.25
914.132	1796.2621	7965.75	7075.6
914.2724	1797.9415	7967.4	7073.7
914.4128	1799.6202	7939.95	7046.55
914.5531	1801.2982	7929.4	7036.5
914.6934	1802.9755	7906.3	7011.8
914.8337	1804.6519	7905.7	7014.1
914.9739	1806.3277	7857.7	6965.3
915.1142	1808.0027	7844.05	6956.25
915.2544	1809.6769	7829.95	6943.6
915.3946	1811.3504	7797.95	6910.05
915.5348	1813.0231	7777.2	6890.45
915.675	1814.6951	7760.7	6870.05
915.8151	1816.3664	7790.7	6897.95
915.9553	1818.0369	7761.1	6868.6
916.0954	1819.7067	7709.35	6819.2
916.2355	1821.3757	7706.35	6811.2
916.3755	1823.044	7688.65	6795.95
916.5156	1824.7115	7668.95	6774.95
916.6556	1826.3783	7640.6	6746.3
916.7956	1828.0443	7612.05	6720.15
916.9356	1829.7096	7591.95	6699.7
917.0756	1831.3741	7587.6	6694.75
917.2155	1833.0379	7583.75	6696.25
917.3555	1834.701	7535.7	6644.05
917.4954	1836.3633	7512.15	6624.85
917.6353	1838.0248	7493	6602.35
917.7751	1839.6856	7503.2	6613.1
917.915	1841.3457	7488.25	6599.55
918.0548	1843.005	7475.2	6583.55
918.1946	1844.6636	7455.3	6565.15
918.3344	1846.3214	7424.9	6531.75
918.4742	1847.9785	7424.9	6535
918.6139	1849.6349	7425.5	6531.5
918.7537	1851.2904	7393.3	6488.3
918.8934	1852.9453	7379.9	6487.5
919.0331	1854.5994	7373	6479.25
919.1727	1856.2528	7360.15	6462.35
919.3124	1857.9054	7348.35	6456.15
919.452	1859.5572	7325.2	6434.5
919.5916	1861.2083	7329.45	6438.3
919.7312	1862.8587	7313.9	6422.5
919.8708	1864.5084	7273.4	6380.1
920.0103	1866.1572	7269	6377.4
920.1498	1867.8054	7239.85	6345.9
920.2893	1869.4528	7213.95	6317.4
920.4288	1871.0994	7195.1	6302.5
920.5683	1872.7453	7181.5	6287.95
920.7077	1874.3905	7191	6282
920.8471	1876.0349	7143	6250.75
920.9865	1877.6786	7141.05	6250.85
921.1259	1879.3215	7142.6	6252.7
921.2653	1880.9637	7117.85	6225.75
921.4046	1882.6051	7098.55	6209.5
921.5439	1884.2458	7081.95	6189.65
921.6832	1885.8858	7049.4	6156.95
921.8225	1887.525	7041.95	6150.75
921.9617	1889.1634	7005.7	6112.1
922.101	1890.8011	6983.35	6090.8
922.2402	1892.4381	6979.7	6088.6
922.3794	1894.0743	6983.2	6091.85
922.5185	1895.7098	6950.15	6060.1
922.6577	1897.3446	6923	6034.45
922.7968	1898.9786	6913.6	6015.65
922.9359	1900.6118	6902.65	6012.05
923.075	1902.2443	6896.35	6005.15
923.214	1903.8761	6856.2	5967.3
923.3531	1905.5071	6826.95	5934.4
923.4921	1907.1374	6814.55	5924.5
923.6311	1908.7669	6793.45	5905.25
923.77	1910.3957	6787.65	5899.5
923.909	1912.0237	6746.4	5856.3
924.0479	1913.651	6732.8	5841.8
924.1868	1915.2776	6740.1	5852.3
924.3257	1916.9034	6694.75	5806.45
924.4646	1918.5285	6664.85	5776.7
924.6034	1920.1528	6631.6	5740.95
924.7422	1921.7764	6637.2	5747.7
924.881	1923.3992	6622.75	5731.5
925.0198	1925.0213	6543.2	5650.9
925.1586	1926.6427	6543.65	5656.3
925.2973	1928.2633	6603.3	5614.85
925.436	1929.8832	6530.7	5636.55
925.5747	1931.5023	6491.7	5600.8
925.7134	1933.1207	6460.1	5570.3
925.852	1934.7383	6466.45	5576.7
925.9906	1936.3552	6424.35	5536.3
926.1292	1937.9714	6436.65	5549.25
926.2678	1939.5868	6375.45	5485.3
926.4064	1941.2015	6382.1	5490.8
926.5449	1942.8154	6342.9	5450.15
926.6834	1944.4286	6329.95	5439.5
926.8219	1946.041	6308.55	5390.75
926.9604	1947.6528	6276.15	5382.75
927.0988	1949.2637	6246.85	5359.7
927.2372	1950.8739	6231.65	5342.35
927.3756	1952.4834	6229.25	5341.55
927.514	1954.0921	6226.9	5337.2
927.6523	1955.7001	6205.3	5312.2
927.7907	1957.3074	6185.5	5300.8
927.929	1958.9139	6149.05	5263.05
928.0673	1960.5197	6143.9	5255.6
928.2055	1962.1247	6130.55	5241.4
928.3438	1963.729	6088.5	5199.25
928.482	1965.3325	6058.1	5169.8
928.6202	1966.9353	6038.45	5154.3
928.7584	1968.5374	6028.55	5139
928.8965	1970.1387	6010.25	5123.1
929.0346	1971.7393	5978.4	5091.4
929.1727	1973.3392	5990.65	5104.2
929.3108	1974.9383	5967.05	5082.85
929.4489	1976.5366	5919.9	5037.6
929.5869	1978.1342	5916.65	5032.25
929.7249	1979.7311	5905.75	5020.8
929.8629	1981.3273	5889.5	5006.7
930.0009	1982.9227	5881.4	4996.55
930.1388	1984.5173	5852.9	4970.45
930.2767	1986.1112	5817.2	4935.75
930.4146	1987.7044	5815.2	4930
930.5525	1989.2968	5803.95	4917.95
930.6904	1990.8885	5788.9	4903.1
930.8282	1992.4795	5756.1	4874.2
930.966	1994.0697	5744.1	4862.8
931.1038	1995.6592	5716.2	4833.4
931.2415	1997.2479	5725.35	4842.2
931.3793	1998.8359	5686.65	4804.65
931.517	2000.4232	5678.2	4799.05
931.6547	2002.0097	5669.15	4793.65
931.7923	2003.5955	5647.15	4769.25
931.93	2005.1805	5637.45	4756.8
932.0676	2006.7648	5624.85	4744.9
932.2052	2008.3484	5595.75	4714.1
932.3427	2009.9312	5610.2	4730.2
932.4803	2011.5133	5565.25	4688.65
932.6178	2013.0946	5564.15	4687.4
932.7553	2014.6752	5548.75	4669
932.8928	2016.2551	5526.9	4644.3
933.0302	2017.8342	5512.75	4631.7
933.1676	2019.4126	5522.6	4644
933.305	2020.9902	5482.65	4606.7
933.4424	2022.5672	5472.05	4594.25
933.5798	2024.1433	5476.05	4591.5
933.7171	2025.7188	5451.55	4575.45
933.8544	2027.2935	5427.75	4549.4
933.9917	2028.8674	5399.15	4521.95
934.129	2030.4406	5384.55	4510.55
934.2662	2032.0131	5377.1	4501.65
934.4034	2033.5849	5358.05	4475.95
934.5406	2035.1559	5338.4	4462.1
934.6778	2036.7261	5345.15	4466.8
934.8149	2038.2957	5341.55	4461.05
934.952	2039.8645	5329.9	4448.3
935.0891	2041.4325	5318.35	4434.55
935.2262	2042.9998	5304	4424.2
935.3632	2044.5664	5278.2	4397.35
935.5002	2046.1323	5264.45	4388.5
935.6372	2047.6974	5264.85	4387.35
935.7742	2049.2617	5230.7	4354.75
935.9111	2050.8254	5225.65	4343.8
936.048	2052.3883	5225.75	4343.5
936.1849	2053.9504	5205.75	4323.75
936.3218	2055.5118	5192.45	4310.1
936.4586	2057.0725	5184.65	4301.1
936.5955	2058.6325	5158.15	4278.75
936.7323	2060.1917	5135.3	4256.9
936.869	2061.7502	5137.25	4258.55
937.0058	2063.3079	5105.3	4226.65
937.1425	2064.8649	5116.95	4238.05
937.2792	2066.4212	5085.15	4206.45
937.4159	2067.9767	5088.15	4208.6
937.5525	2069.5315	5073.85	4195.6
937.6891	2071.0856	5037.4	4158.45
937.8257	2072.6389	5028.75	4148.8
937.9623	2074.1915	5009.1	4133.85
938.0989	2075.7433	4986.15	4106.85
938.2354	2077.2945	4993.4	4114.75
938.3719	2078.8448	4975.05	4093.1
938.5084	2080.3945	4970.15	4086.85
938.6448	2081.9434	4940.6	4060.65
938.7812	2083.4916	4929.1	4045.65
938.9176	2085.039	4913.15	4027.05
939.054	2086.5857	4916.35	4028.25
939.1903	2088.1317	4884.4	3997.35
939.3267	2089.677	4882.5	3993.85
939.463	2091.2215	4875.3	3988.4
939.5992	2092.7652	4874.75	3983.7
939.7355	2094.3083	4861.35	3974.45
939.8717	2095.8506	4844.3	3959.6
940.0079	2097.3921	4850.85	3968.65
940.1441	2098.933	4803.6	3919.35
940.2802	2100.4731	4811.15	3926.05
940.4163	2102.0124	4828.55	3927.95
940.5524	2103.5511	4793.45	3908.6
940.6885	2105.089	4791.2	3906.55
940.8245	2106.6261	4763.25	3878.75
940.9606	2108.1626	4759.35	3876.25
941.0965	2109.6983	4765.05	3851.7
941.2325	2111.2332	4752.4	3866.15
941.3684	2112.7675	4728.3	3844.6
941.5044	2114.301	4716.65	3828.6
941.6403	2115.8337	4710.9	3824.05
941.7761	2117.3657	4687.7	3803.6
941.912	2118.897	4689.05	3802.9
942.0478	2120.4276	4685.2	3792.8
942.1835	2121.9575	4638.1	3750.45
942.3193	2123.4866	4666.9	3768.75
942.455	2125.0149	4635.65	3749.35
942.5907	2126.5426	4614.35	3733.1
942.7264	2128.0695	4608.65	3725.55
942.8621	2129.5956	4604.3	3728.1
942.9977	2131.1211	4585.7	3699.7
943.1333	2132.6458	4582.95	3701
943.2689	2134.1698	4563.95	3677.1
943.4044	2135.693	4569.5	3680.45
943.54	2137.2155	4557.65	3669.9
943.6755	2138.7373	4542.55	3659.5
943.8109	2140.2584	4533.05	3652.8
943.9464	2141.7787	4518.05	3633.6
944.0818	2143.2983	4499.45	3623.55
944.2172	2144.8171	4486.65	3610.5
944.3526	2146.3353	4475.9	3593.6
944.4879	2147.8527	4451.25	3571.8
944.6232	2149.3693	4460.2	3576.85
944.7585	2150.8853	4446.6	3561.6
944.8938	2152.4005	4430.65	3546.3
945.029	2153.9149	4416.45	3531.05
945.1642	2155.4287	4402.8	3518.85
945.2994	2156.9417	4408.55	3523.8
945.4346	2158.454	4381.95	3498.15
945.5697	2159.9655	4382	3503
945.7048	2161.4764	4370.15	3487.6
945.8399	2162.9865	4371.25	3489.6
945.9749	2164.4958	4352.7	3470.8
946.1099	2166.0045	4329.15	3444.6
946.2449	2167.5124	4338.35	3454.8
946.3799	2169.0195	4327.6	3444.15
946.5148	2170.526	4317.1	3431.9
946.6498	2172.0317	4310.9	3427.25
946.7846	2173.5367	4278.8	3395
946.9195	2175.0409	4276.5	3395.05
947.0543	2176.5445	4281.5	3398
947.1891	2178.0473	4256.6	3369.35
947.3239	2179.5494	4258.45	3370.25
947.4587	2181.0507	4240.7	3356.95
947.5934	2182.5513	4228.7	3345.2
947.7281	2184.0512	4214.55	3326.75
947.8628	2185.5504	4208.15	3326.1
947.9974	2187.0488	4185.45	3303.25
948.132	2188.5465	4184.9	3304.55
948.2666	2190.0435	4158.85	3278.3
948.4012	2191.5397	4153.15	3268.7
948.5357	2193.0353	4150.6	3264.85
948.6702	2194.5301	4127.9	3239.85
948.8047	2196.0241	4117.55	3226.7
948.9392	2197.5175	4126.35	3237.2
949.0736	2199.0101	4105.85	3213.3
949.208	2200.502	4076.1	3191.3
949.3424	2201.9931	4066.9	3184.85
949.4767	2203.4835	4054	3172.25
949.611	2204.9733	4046.6	3158.65
949.7453	2206.4622	4044	3164.05
949.8796	2207.9505	4029.8	3146.95
950.0138	2209.438	4010.35	3133.7
950.148	2210.9248	3987.75	3107.3
950.2822	2212.4109	3996.8	3112.8
950.4164	2213.8962	3984.45	3097.7
950.5505	2215.3809	3986.4	3098.25
950.6846	2216.8648	3954.85	3063.25
950.8186	2218.3479	3975.7	3079.5
950.9527	2219.8304	3938.15	3045.8
951.0867	2221.3121	3923.15	3033.45
951.2207	2222.7931	3921.75	3034.05
951.3546	2224.2733	3909.55	3024.4
951.4886	2225.7529	3894.55	3008.4
951.6225	2227.2317	3889.35	3004.15
951.7563	2228.7098	3875.65	2994.7
951.8902	2230.1872	3859.85	2978.4
952.024	2231.6638	3859.75	2979.7
952.1578	2233.1397	3849.55	2965.55
952.2916	2234.6149	3839	2959
952.4253	2236.0894	3825	2939.9
952.559	2237.5632	3841.15	2946.7
952.6927	2239.0362	3800.9	2918.9
952.8263	2240.5085	3798.5	2916.4
952.9599	2241.9801	3783.7	2899.85
953.0935	2243.4509	3776.45	2891.25
953.2271	2244.921	3767.55	2879.2
953.3606	2246.3904	3737.95	2850.4
953.4941	2247.8591	3759.85	2874.35
953.6276	2249.3271	3749.2	2861.85
953.7611	2250.7943	3737.5	2851.25
953.8945	2252.2608	3724.65	2837.8
954.0279	2253.7266	3702.4	2816.75
954.1612	2255.1917	3705.95	2820.25
954.2946	2256.656	3694.75	2812.15
954.4279	2258.1197	3671.4	2791.4
954.5612	2259.5826	3666.05	2781.95
954.6944	2261.0447	3656.55	2770.1
954.8276	2262.5062	3656.75	2768.45
954.9608	2263.9669	3652.25	2764.5
955.094	2265.4269	3652.2	2766.45
955.2271	2266.8862	3627.35	2743.7
955.3602	2268.3448	3622.5	2737.85
955.4933	2269.8026	3616.15	2733.8
955.6264	2271.2598	3620.5	2738.15
955.7594	2272.7162	3590.55	2708.1
955.8924	2274.1719	3594.1	2707.3
956.0253	2275.6268	3585.45	2699.95
956.1583	2277.0811	3572.1	2683.15
956.2912	2278.5346	3565.75	2682
956.4241	2279.9874	3584	2702
956.5569	2281.4395	3548.8	2667.95
956.6897	2282.8908	3541.65	2654.85
956.8225	2284.3414	3560.45	2675.8
956.9553	2285.7914	3520.75	2634.65
957.088	2287.2406	3512.4	2623.35
957.2207	2288.689	3535.35	2646.95
957.3534	2290.1368	3516.65	2626.9
957.486	2291.5838	3506.05	2612.45
957.6186	2293.0302	3499.55	2607.85
957.7512	2294.4758	3485.9	2596.55
957.8838	2295.9206	3472.25	2584.05
958.0163	2297.3648	3467.05	2582.2
958.1488	2298.8082	3458.95	2574.25
958.2813	2300.251	3447.1	2560.45
958.4137	2301.693	3448.15	2557.9
958.5461	2303.1343	3440.8	2551.25
958.6785	2304.5748	3429.6	2543.65
958.8108	2306.0147	3419.6	2535.6
958.9432	2307.4538	3406.55	2520.7
959.0754	2308.8922	3403	2523.9
959.2077	2310.3299	3401.15	2519.95
959.3399	2311.7669	3379.7	2498.65
959.4721	2313.2031	3368.8	2485.7
959.6043	2314.6387	3359.75	2473.65
959.7365	2316.0735	3357.2	2472.1
959.8686	2317.5076	3349.2	2464.3
960.0006	2318.941	3344.15	2456.55
960.1327	2320.3737	3328.8	2440.6
960.2647	2321.8056	3343.65	2452.4
960.3967	2323.2369	3310.85	2424.35
960.5287	2324.6674	3325.15	2437.3
960.6606	2326.0972	3311.1	2425.2
960.7925	2327.5263	3282.05	2397.35
960.9244	2328.9547	3285.3	2398.3
961.0562	2330.3823	3294.7	2406.8
961.1881	2331.8092	3285.2	2393.35
961.3198	2333.2355	3266.1	2377.95
961.4516	2334.661	3261	2373.9
961.5833	2336.0858	3268.95	2380.25
961.715	2337.5098	3257.9	2371.95
961.8467	2338.9332	3253.95	2366.15
961.9783	2340.3558	3235	2346.5
962.1099	2341.7778	3223.85	2339.75
962.2415	2343.199	3208.3	2321.65
962.373	2344.6195	3204.85	2321.15
962.5045	2346.0393	3210.85	2327.5
962.636	2347.4583	3194.2	2309.85
962.7675	2348.8767	3188.65	2301.85
962.8989	2350.2943	3184.1	2297.8
963.0303	2351.7113	3186.25	2293.3
963.1617	2353.1275	3182.05	2290.95
963.293	2354.543	3193.9	2296
963.4243	2355.9578	3163.4	2276.1
963.5556	2357.3718	3159.05	2275.55
963.6868	2358.7852	3137.7	2252.45
963.818	2360.1978	3134.25	2252.2
963.9492	2361.6098	3126.6	2243.55
964.0803	2363.021	3125.9	2239.65
964.2114	2364.4315	3132.15	2247.75
964.3425	2365.8413	3110	2225.85
964.4736	2367.2504	3101.7	2216.65
964.6046	2368.6587	3067.55	2185.95
964.7356	2370.0664	3074.75	2191.5
964.8666	2371.4733	3067.2	2183.55
964.9975	2372.8795	3063.25	2180.8
965.1284	2374.285	3062.75	2179.45
965.2593	2375.6899	3042.2	2160.05
965.3901	2377.0939	3022.85	2140.2
965.5209	2378.4973	3023.8	2142.7
965.6517	2379.9	3026.8	2145.15
965.7825	2381.3019	3013.85	2132.85
965.9132	2382.7032	3008.8	2127.1
966.0439	2384.1037	3001	2120.35
966.1745	2385.5035	2983	2103.6
966.3051	2386.9027	2974	2095.35
966.4357	2388.3011	2975.75	2094.35
966.5663	2389.6987	2969.15	2088.25
966.6968	2391.0957	2944.8	2064.05
966.8273	2392.492	2940.2	2061.75
966.9578	2393.8876	2942.4	2062.5
967.0882	2395.2824	2927	2046.05
967.2186	2396.6765	2912.55	2031.9
967.349	2398.07	2900.75	2023.35
967.4793	2399.4627	2909.1	2026.4
967.6097	2400.8547	2897.7	2017
967.7399	2402.246	2892.45	2006.65
967.8702	2403.6366	2889.05	2008.65
968.0004	2405.0265	2871.85	1993.45
968.1306	2406.4156	2865.95	1980.55
968.2607	2407.8041	2860.5	1974.65
968.3909	2409.1918	2851.45	1968.35
968.521	2410.5789	2844.7	1962.25
968.651	2411.9652	2856.3	1971.85
968.781	2413.3508	2837.8	1953.9
968.911	2414.7358	2824.3	1940.4
969.041	2416.12	2827.9	1947.55
969.1709	2417.5035	2828.3	1947.55
969.3008	2418.8863	2804.8	1923.2
969.4307	2420.2684	2813.45	1931.85
969.5606	2421.6497	2801.5	1918.2
969.6904	2423.0304	2784.65	1904.9
969.8201	2424.4104	2774.15	1890.95
969.9499	2425.7896	2771.35	1887.65
970.0796	2427.1682	2767.8	1887
970.2093	2428.546	2761.95	1878.65
970.3389	2429.9232	2767.05	1884.05
970.4685	2431.2996	2747.55	1866.15
970.5981	2432.6753	2754.55	1872.9
970.7277	2434.0503	2736.65	1852.45
970.8572	2435.4246	2732.2	1852
970.9867	2436.7982	2724.8	1839.9
971.1161	2438.1711	2715.6	1832.05
971.2456	2439.5433	2706.35	1823.1
971.375	2440.9148	2705.35	1819.8
971.5043	2442.2856	2684.9	1801
971.6336	2443.6557	2682.3	1796.75
971.7629	2445.025	2668.95	1786.8
971.8922	2446.3937	2692.55	1809.9
972.0214	2447.7617	2683.8	1800.2
972.1506	2449.1289	2678.65	1795.75
972.2798	2450.4955	2665.65	1782.9
972.4089	2451.8613	2646.55	1764.15
972.538	2453.2265	2656.8	1776.2
972.6671	2454.5909	2647.45	1764.5
972.7961	2455.9546	2656.1	1773.45
972.9251	2457.3177	2641	1758.85
973.0541	2458.68	2632.1	1746.75
973.1831	2460.0416	2642.1	1759.2
973.312	2461.4025	2636.8	1753.35
973.4408	2462.7627	2631.45	1739.3
973.5697	2464.1222	2607.65	1729.8
973.6985	2465.4811	2622	1739.75
973.8273	2466.8392	2607.35	1726.4
973.956	2468.1966	2605.2	1721.45
974.0847	2469.5533	2615.55	1729.25
974.2134	2470.9093	2597.35	1714.75
974.3421	2472.2645	2597	1714.3
974.4707	2473.6191	2580.05	1697.15
974.5993	2474.973	2575.65	1693
974.7278	2476.3262	2576.65	1693.8
974.8563	2477.6787	2566.95	1682.9
974.9848	2479.0305	2547.4	1666.75
975.1132	2480.3816	2551.4	1666.45
975.2417	2481.7319	2550.45	1668.85
975.37	2483.0816	2541.85	1657.25
975.4984	2484.4306	2532.1	1648.65
975.6267	2485.7789	2521.2	1639.2
975.755	2487.1264	2519.05	1635.85
975.8833	2488.4733	2503.5	1623.35
976.0115	2489.8195	2514.95	1627.55
976.1397	2491.165	2502.1	1618.2
976.2678	2492.5097	2485.2	1601.6
976.3959	2493.8538	2466.25	1584.6
976.524	2495.1972	2473.65	1593.1
976.6521	2496.5398	2472.65	1589.15
976.7801	2497.8818	2462.55	1575.9
976.9081	2499.2231	2460.5	1576.8
977.036	2500.5637	2471.15	1584.15
977.164	2501.9035	2453.7	1570.3
977.2918	2503.2427	2444.6	1556.3
977.4197	2504.5812	2451.2	1570
977.5475	2505.919	2437.05	1550.45
977.6753	2507.256	2438.05	1555.7
977.8031	2508.5924	2423.35	1540.55
977.9308	2509.9281	2425.95	1535.65
978.0585	2511.2631	2418.75	1535.95
978.1861	2512.5974	2409.85	1528.2
978.3137	2513.9309	2412.1	1528.35
978.4413	2515.2638	2426.6	1517.6
978.5689	2516.596	2393.95	1510.6
978.6964	2517.9275	2392.45	1507.4
978.8239	2519.2583	2380.1	1497.9
978.9513	2520.5884	2391.95	1507.9
979.0788	2521.9178	2380	1497.75
979.2062	2523.2465	2367.75	1486.8
979.3335	2524.5745	2357.45	1475.7
979.4608	2525.9018	2357.5	1475.6
979.5881	2527.2284	2357.2	1474.55
979.7154	2528.5543	2352.65	1470.85
979.8426	2529.8796	2346.7	1463.15
979.9698	2531.2041	2341.55	1458.65
980.0969	2532.5279	2334.9	1454.6
980.224	2533.851	2332.5	1451.25
980.3511	2535.1735	2338	1458.2
980.4781	2536.4952	2332.15	1449.05
980.6052	2537.8163	2319.95	1435.45
980.7321	2539.1366	2322.7	1440.6
980.8591	2540.4562	2323.6	1437
980.986	2541.7752	2325.2	1441.35
981.1129	2543.0935	2311.2	1426.6
981.2397	2544.411	2321.75	1438.55
981.3665	2545.7279	2315.3	1431.95
981.4933	2547.0441	2307	1424.4
981.62	2548.3596	2300.8	1416.55
981.7467	2549.6744	2292.55	1409.7
981.8734	2550.9885	2301.3	1409.35
982.0001	2552.3019	2282.4	1399.15
982.1267	2553.6146	2283.2	1401.1
982.2532	2554.9266	2269.75	1385.45
982.3798	2556.2379	2256.9	1371.8
982.5063	2557.5485	2258.85	1377.3
982.6327	2558.8585	2271.25	1383.25
982.7592	2560.1677	2270.95	1382.45
982.8856	2561.4762	2261.6	1378.45
983.0119	2562.7841	2266.35	1380.35
983.1383	2564.0913	2257.9	1374.75
983.2646	2565.3977	2252.45	1369.3
983.3908	2566.7035	2249.75	1368.35
983.517	2568.0086	2250.25	1362.2
983.6432	2569.313	2238.4	1353.45
983.7694	2570.6167	2237.7	1350.2
983.8955	2571.9197	2229.4	1345.4
984.0216	2573.222	2229.65	1345.55
984.1476	2574.5236	2222.6	1337.1
984.2737	2575.8246	2220	1333.15
984.3996	2577.1248	2219.95	1333.65
984.5256	2578.4244	2222.75	1338
984.6515	2579.7232	2230.65	1346.9
984.7774	2581.0214	2238.65	1326.35
984.9032	2582.3189	2214.55	1332.9
985.029	2583.6157	2218.65	1329.95
985.1548	2584.9118	2205.55	1321.6
985.2806	2586.2072	2209.9	1328.6
985.4063	2587.5019	2199.35	1315.8
985.5319	2588.7959	2205.4	1321.4
985.6576	2590.0893	2212.2	1326.5
985.7832	2591.3819	2196.9	1313.05
985.9087	2592.6739	2200.75	1319.2
986.0343	2593.9652	2205.65	1321.1
986.1597	2595.2557	2195.65	1312.95
986.2852	2596.5456	2189.7	1303.45
986.4106	2597.8348	2173.6	1287.15
986.536	2599.1234	2179.15	1297.3
986.6614	2600.4112	2172.5	1289.55
986.7867	2601.6983	2183.55	1297.3
986.912	2602.9848	2175.95	1290.75
987.0372	2604.2705	2180.7	1291.95
987.1624	2605.5556	2172.85	1291.25
987.2876	2606.84	2157	1275.1
987.4128	2608.1237	2164.4	1280.95
987.5379	2609.4067	2150.35	1266.55
987.6629	2610.689	2159.1	1266.6
987.788	2611.9707	2147.65	1259.05
987.913	2613.2516	2140.25	1251.8
988.0379	2614.5319	2135.6	1252.1
988.1629	2615.8115	2124.8	1241.1
988.2878	2617.0903	2126.3	1243.1
988.4126	2618.3685	2112.5	1229
988.5375	2619.6461	2108.55	1223.15
988.6622	2620.9229	2115.2	1233.9
988.787	2622.199	2122.6	1239.25
988.9117	2623.4745	2112.3	1227.2
989.0364	2624.7493	2105.95	1221.4
989.161	2626.0234	2111.8	1230.85
989.2857	2627.2968	2092.65	1208.4
989.4102	2628.5695	2094.85	1211.6
989.5348	2629.8415	2087.35	1205.8
989.6593	2631.1128	2085.95	1200.65
989.7837	2632.3835	2082.95	1198.95
989.9082	2633.6535	2084	1200.75
990.0326	2634.9228	2073.9	1190.75
990.1569	2636.1914	2079.1	1196.6
990.2812	2637.4593	2068.95	1183
990.4055	2638.7265	2068.65	1185.9
990.5298	2639.9931	2054.8	1170.25
990.654	2641.259	2069	1184.75
990.7782	2642.5242	2054.85	1172.15
990.9023	2643.7887	2050.25	1168.5
991.0264	2645.0525	2044.5	1160.35
991.1505	2646.3156	2034.55	1152.9
991.2745	2647.5781	2036.25	1153.2
991.3985	2648.8398	2034.15	1152.85
991.5225	2650.1009	2038.9	1147.4
991.6464	2651.3613	2032.9	1150.95
991.7703	2652.6211	2030.7	1146.6
991.8942	2653.8801	2013.9	1131.6
992.018	2655.1385	2020.25	1134.6
992.1418	2656.3961	2019.55	1135.35
992.2655	2657.6531	2014.9	1132.5
992.3892	2658.9094	2014	1130.1
992.5129	2660.1651	2010.25	1126.8
992.6366	2661.42	2015.8	1133.1
992.7602	2662.6743	2003.5	1119.2
992.8837	2663.9279	2004.2	1119.85
993.0073	2665.1808	1999.05	1116.5
993.1307	2666.433	2006.15	1123.05
993.2542	2667.6846	1998.45	1116.05
993.3776	2668.9354	2019.75	1136
993.501	2670.1856	2008.5	1123.15
993.6244	2671.4351	2006.25	1123.3
993.7477	2672.6839	1998.75	1113.15
993.8709	2673.9321	2008.55	1125.8
993.9942	2675.1795	2000.35	1118.4
994.1174	2676.4263	1987.2	1103.15
994.2405	2677.6724	1995.55	1114.85
994.3637	2678.9179	2002.1	1117.65
994.4868	2680.1626	1996.9	1115.8
994.6098	2681.4067	1993.2	1109.35
994.7328	2682.6501	1990.7	1110.45
994.8558	2683.8928	1985.9	1102.95
994.9788	2685.1348	1980.45	1097.35
995.1017	2686.3761	1973.4	1092.15
995.2245	2687.6168	1968.95	1087.3
995.3474	2688.8568	1960.25	1075.95
995.4702	2690.0961	1960.7	1080
995.5929	2691.3348	1952.95	1070.5
995.7156	2692.5727	1948.5	1064.85
995.8383	2693.81	1944.4	1062.75
995.961	2695.0466	1944.55	1063.55
996.0836	2696.2826	1940.05	1055.15
996.2062	2697.5178	1950.75	1064.5
996.3287	2698.7524	1924.35	1043.2
996.4512	2699.9863	1936.35	1052.3
996.5737	2701.2195	1936.4	1055.1
996.6961	2702.452	1947.45	1062.3
996.8185	2703.6839	1943.35	1058
996.9408	2704.9151	1935.05	1051.75
997.0631	2706.1456	1948.8	1065.65
997.1854	2707.3755	1941.1	1059.3
997.3077	2708.6046	1949.2	1062.75
997.4299	2709.8331	1955.85	1074.15
997.552	2711.0609	1950.85	1070.3
997.6742	2712.2881	1968.3	1089.25
997.7963	2713.5145	1965.1	1080.95
997.9183	2714.7403	1980.65	1098.4
998.0403	2715.9654	1988.1	1104.2
998.1623	2717.1899	2000.45	1103.95
998.2842	2718.4136	2001.35	1119.2
998.4062	2719.6367	2004.55	1122.2
998.528	2720.8591	2018.4	1128
998.6498	2722.0809	2025.3	1142.95
998.7716	2723.3019	2040.35	1156.8
998.8934	2724.5223	2043.45	1160.95
999.0151	2725.7421	2040.65	1157.85
999.1368	2726.9611	2042.35	1156.7
999.2584	2728.1795	2030.1	1144.25
999.38	2729.3972	2030.6	1149.1
999.5016	2730.6142	2033.05	1137.85
999.6231	2731.8306	2008.95	1125.1
999.7446	2733.0462	1984.35	1101.1
999.8661	2734.2612	1971.45	1084.2
999.9875	2735.4756	1947.95	1064.8
1000.1089	2736.6892	1932.45	1049.7
1000.2302	2737.9022	1907.55	1027.75
1000.3515	2739.1145	1902.5	1021
1000.4728	2740.3262	1894.75	1005.9
1000.594	2741.5372	1868.3	987.35
1000.7152	2742.7475	1860.75	977.55
1000.8363	2743.9571	1852.35	967.3
1000.9575	2745.1661	1839.85	953.15
1001.0785	2746.3744	1836	954.05
1001.1996	2747.582	1818.35	936.45
1001.3206	2748.7889	1806.35	921.7
1001.4415	2749.9952	1805.55	924.85
1001.5625	2751.2008	1801.15	918.75
1001.6833	2752.4057	1796.65	914.3
1001.8042	2753.61	1788.95	906.85
1001.925	2754.8136	1783.6	899.4
1002.0458	2756.0165	1778.9	899.1
1002.1665	2757.2188	1777.25	896.85
1002.2872	2758.4204	1778.05	895.55
1002.4078	2759.6213	1770.95	888.05
1002.5285	2760.8215	1776.85	891.6
1002.649	2762.0211	1762.55	878.95
1002.7696	2763.22	1764.1	877.4
1002.8901	2764.4182	1753.25	868.35
1003.0106	2765.6158	1754.9	873.9
1003.131	2766.8127	1751.65	870.55
1003.2514	2768.009	1744.3	861.7
1003.3717	2769.2045	1741.1	859.1
1003.492	2770.3994	1736.75	851.75
1003.6123	2771.5936	1732.55	851.4
1003.7325	2772.7872	1728.55	846.95
1003.8527	2773.9801	1733.9	850.6
1003.9729	2775.1723	1736.35	838.4
1004.093	2776.3639	1709.6	831.25
1004.2131	2777.5548	1719.25	835.2
1004.3331	2778.745	1718.45	838.4
1004.4531	2779.9346	1711.6	831.75
1004.5731	2781.1235	1723.95	842.4
1004.693	2782.3117	1721.8	842.2
1004.8129	2783.4992	1725.05	844.95
1004.9328	2784.6861	1729.95	850.85
1005.0526	2785.8723	1734.6	852.7
1005.1723	2787.0579	1737.35	856.15
1005.2921	2788.2428	1739.05	858.7
1005.4118	2789.427	1743.4	863.45
1005.5314	2790.6106	1747.9	868.1
1005.651	2791.7935	1759.75	877.25
1005.7706	2792.9757	1775.05	895.15
1005.8902	2794.1573	1773	888.9
1006.0097	2795.3382	1790.6	908.9
1006.1291	2796.5184	1802.45	923.1
1006.2485	2797.698	1803.05	919.95
1006.3679	2798.8769	1823.9	943.45
1006.4873	2800.0551	1837.9	958.05
1006.6066	2801.2327	1855.85	974.8
1006.7258	2802.4096	1867.5	987.5
1006.8451	2803.5859	1881.3	998.9
1006.9642	2804.7615	1900.7	1020.25
1007.0834	2805.9364	1931.7	1053.45
1007.2025	2807.1106	1948.5	1069.7
1007.3216	2808.2842	1977.45	1097.9
1007.4406	2809.4572	2011.85	1131.15
1007.5596	2810.6294	2043.4	1163.55
1007.6785	2811.801	2083.25	1205.15
1007.7975	2812.972	2123.95	1247.35
1007.9163	2814.1423	2164.2	1284.4
1008.0352	2815.3119	2208.95	1327.65
1008.154	2816.4808	2244.85	1363.05
1008.2727	2817.6491	2290.65	1410.45
1008.3914	2818.8167	2337.35	1460
1008.5101	2819.9837	2394.55	1510.35
1008.6288	2821.15	2448.7	1568.75
1008.7474	2822.3157	2494.3	1615.15
1008.8659	2823.4807	2522.2	1643
1008.9844	2824.645	2566.95	1684.2
1009.1029	2825.8086	2613.1	1733.75
1009.2214	2826.9716	2653.4	1774
1009.3398	2828.134	2697.15	1818.35
1009.4581	2829.2957	2735.9	1856.25
1009.5764	2830.4567	2765.95	1888.05
1009.6947	2831.617	2777.15	1896.05
1009.813	2832.7767	2793.6	1916.35
1009.9312	2833.9358	2800.8	1922.15
1010.0493	2835.0941	2788.4	1907.75
1010.1675	2836.2519	2773.45	1893
1010.2855	2837.4089	2768.3	1885.9
1010.4036	2838.5653	2759	1878.65
1010.5216	2839.7211	2768.8	1892.25
1010.6396	2840.8761	2760.55	1878.85
1010.7575	2842.0306	2785.35	1906.15
1010.8754	2843.1843	2821.95	1941.15
1010.9932	2844.3374	2864.95	1986.6
1011.111	2845.4899	2922	2041
1011.2288	2846.6417	3004.25	2124.95
1011.3465	2847.7928	3061.85	2182.1
1011.4642	2848.9433	3127.95	2249.65
1011.5818	2850.0931	3200.7	2321.1
1011.6995	2851.2422	3279.15	2397.65
1011.817	2852.3907	3339.5	2458.8
1011.9345	2853.5385	3410.7	2531.05
1012.052	2854.6857	3476.95	2570.7
1012.1695	2855.8323	3516.5	2638.7
1012.2869	2856.9781	3552.25	2671.5
1012.4042	2858.1233	3597.25	2717.6
1012.5216	2859.2679	3644.1	2765.25
1012.6389	2860.4118	3685.15	2804.05
1012.7561	2861.555	3736.15	2852.2
1012.8733	2862.6976	3763.3	2884.6
1012.9905	2863.8395	3793.65	2914.2
1013.1076	2864.9808	3814.2	2936.5
1013.2247	2866.1214	3832.55	2952.35
1013.3417	2867.2614	3844	2965.6
1013.4587	2868.4007	3878.05	2996.25
1013.5757	2869.5393	3885.85	3005.45
1013.6926	2870.6773	3889.2	3007.25
1013.8095	2871.8146	3896.55	3013.6
1013.9263	2872.9513	3908.35	3026.7
1014.0431	2874.0874	3892.5	3013.9
1014.1599	2875.2227	3874.25	2994.2
1014.2766	2876.3574	3873	2992.95
1014.3933	2877.4915	3839.75	2960.1
1014.51	2878.6249	3817.1	2940.25
1014.6266	2879.7577	3773.8	2894.05
1014.7431	2880.8898	3776	2886.95
1014.8596	2882.0212	3742.15	2864.35
1014.9761	2883.152	3739.05	2859.55
1015.0925	2884.2821	3729.05	2853
1015.2089	2885.4116	3739.75	2862.1
1015.3253	2886.5405	3720.7	2842.25
1015.4416	2887.6686	3736.15	2853.15
1015.5579	2888.7962	3737.2	2860.85
1015.6741	2889.923	3736.05	2858.1
1015.7903	2891.0493	3750.1	2874
1015.9065	2892.1748	3771.4	2891.55
1016.0226	2893.2997	3765.8	2887.5
1016.1387	2894.424	3782.35	2906.15
1016.2547	2895.5476	3798.35	2921.55
1016.3707	2896.6706	3815.7	2938.8
1016.4866	2897.7929	3862.85	2984.15
1016.6025	2898.9145	3873.3	2993.05
1016.7184	2900.0355	3895.9	3018.9
1016.8342	2901.1559	3921.1	3041.85
1016.95	2902.2756	3950.45	3072.85
1017.0658	2903.3946	3985.8	3106.35
1017.1815	2904.513	4028.9	3149.6
1017.2971	2905.6308	4038.35	3161.65
1017.4127	2906.7479	4059.35	3181.3
1017.5283	2907.8643	4085.65	3205.55
1017.6439	2908.9801	4101.65	3224.75
1017.7594	2910.0953	4117.25	3238.5
1017.8748	2911.2098	4090.4	3209.85
1017.9902	2912.3236	4106.55	3221.9
1018.1056	2913.4368	4087.65	3205.1
1018.2209	2914.5494	4075.6	3197.75
1018.3362	2915.6613	4056.85	3172.5
1018.4515	2916.7725	4019.65	3140.55
1018.5667	2917.8831	3974.4	3094.7
1018.6819	2918.9931	3948.35	3068.6
1018.797	2920.1024	3910.5	3030.25
1018.9121	2921.211	3908.2	3030.85
1019.0271	2922.319	3877.9	2999.75
1019.1421	2923.4264	3872	2994.35
1019.2571	2924.5331	3861.4	2983.55
1019.372	2925.6391	3830.4	2953.6
1019.4869	2926.7445	3823.6	2945.35
1019.6017	2927.8493	3809.6	2930.85
1019.7165	2928.9534	3821.95	2940.25
1019.8313	2930.0569	3807.8	2927.75
1019.946	2931.1597	3812.1	2933.25
1020.0606	2932.2619	3792.9	2916.45
1020.1753	2933.3634	3802.85	2925.6
1020.2899	2934.4643	3780.9	2895
1020.4044	2935.5645	3775.85	2894.55
1020.5189	2936.6641	3745.15	2862.9
1020.6334	2937.763	3695.25	2817.85
1020.7478	2938.8613	3648.5	2771.2
1020.8622	2939.959	3590.9	2707.85
1020.9765	2941.056	3511.35	2636.4
1021.0908	2942.1523	3430.85	2551.85
1021.2051	2943.248	3343.1	2464.95
1021.3193	2944.3431	3249.35	2372.85
1021.4334	2945.4375	3135.4	2257.45
1021.5476	2946.5313	3060.3	2184.1
1021.6617	2947.6244	2955.85	2076.9
1021.7757	2948.7169	2836.45	1958.5
1021.8897	2949.8087	2755.85	1877.05
1022.0037	2950.8999	2670.25	1792.3
1022.1176	2951.9904	2583.1	1705.5
1022.2315	2953.0803	2504.7	1626.9
1022.3453	2954.1696	2447.1	1571.3
1022.4591	2955.2582	2400.55	1524.05
1022.5728	2956.3462	2359.95	1481.95
1022.6865	2957.4335	2315.2	1436.25
1022.8002	2958.5202	2289.45	1408.35
1022.9138	2959.6062	2254.65	1375.55
1023.0274	2960.6916	2229.2	1353.3
1023.141	2961.7764	2211.15	1333.6
1023.2545	2962.8605	2190	1312.7
1023.3679	2963.9439	2175.2	1297.75
1023.4813	2965.0267	2167.1	1286.65
1023.5947	2966.1089	2184.4	1284.55
1023.708	2967.1905	2147	1269.4
1023.8213	2968.2714	2140.65	1264.95
1023.9346	2969.3516	2148	1271.3
1024.0478	2970.4312	2155.75	1273.4
1024.1609	2971.5102	2144.4	1267.7
1024.274	2972.5885	2142.7	1265.45
1024.3871	2973.6662	2149.85	1268.15
1024.5002	2974.7432	2138	1261.2
1024.6132	2975.8196	2132.15	1255.1
1024.7261	2976.8954	2124.9	1248.5
1024.839	2977.9705	2112.25	1234.55
1024.9519	2979.045	2103.85	1226.75
1025.0647	2980.1188	2078.5	1202.1
1025.1775	2981.192	2068.15	1193.6
1025.2902	2982.2645	2041.05	1162.55
1025.4029	2983.3364	2007.75	1130.85
1025.5156	2984.4077	1977.05	1100.9
1025.6282	2985.4783	1965.8	1081.6
1025.7407	2986.5483	1928.6	1051.6
1025.8532	2987.6177	1881.6	1004.1
1025.9657	2988.6864	1857.1	979.15
1026.0782	2989.7545	1818.6	941.65
1026.1906	2990.8219	1780.65	902.8
1026.3029	2991.8887	1762.45	884.45
1026.4152	2992.9548	1725.05	849.3
1026.5275	2994.0204	1692.9	817.5
1026.6397	2995.0852	1658	782.95
1026.7519	2996.1495	1639.15	762.2
1026.864	2997.2131	1615	738.75
1026.9761	2998.276	1593.55	717.3
1027.0882	2999.3383	1569.15	689.95
1027.2002	3000.4	1552.65	675.85
1027.3122	3001.4611	1536.3	657.55
1027.4241	3002.5215	1525.35	649.1
1027.536	3003.5812	1504.4	629.85
1027.6478	3004.6404	1502.9	626.45
1027.7596	3005.6989	1488.6	609.25
1027.8714	3006.7567	1473.2	597.4
1027.9831	3007.8139	1493.9	584.6
1028.0947	3008.8705	1462.1	586.4
1028.2064	3009.9264	1455.05	574.3
1028.3179	3010.9818	1449.35	573.95
1028.4295	3012.0364	1448.5	571.25
1028.541	3013.0905	1439.15	564.7
1028.6524	3014.1439	1438.3	560.15
1028.7638	3015.1966	1433.35	557.3
1028.8752	3016.2487	1428.4	552.85
1028.9865	3017.3002	1429.25	549.55
1029.0978	3018.3511	1428.1	552.05
1029.209	3019.4013	1422.35	545.5
1029.3202	3020.4509	1425.45	548.2
1029.4314	3021.4998	1426.7	551.15
1029.5425	3022.5481	1423.45	545.25
1029.6535	3023.5958	1421.1	545.5
1029.7645	3024.6428	1427.95	550.05
1029.8755	3025.6892	1419.4	542.55
1029.9864	3026.735	1426.25	549
1030.0973	3027.7802	1427.55	551.95
1030.2082	3028.8247	1421.35	544.35
1030.319	3029.8685	1426.65	550.3
1030.4297	3030.9118	1432.35	555.35
1030.5404	3031.9544	1430	554.6
1030.6511	3032.9963	1439.35	564.15
1030.7617	3034.0376	1433.2	555.9
1030.8723	3035.0783	1445.35	567.05
1030.9829	3036.1184	1448.75	571.55
1031.0934	3037.1578	1454.8	577.3
1031.2038	3038.1966	1451.25	574.45
1031.3142	3039.2348	1452.4	578.1
1031.4246	3040.2723	1460.05	575.55
1031.5349	3041.3092	1451.2	575.45
1031.6452	3042.3455	1454.7	578.05
1031.7554	3043.3811	1454.15	578.6
1031.8656	3044.4161	1443.9	567.6
1031.9758	3045.4505	1432.6	557.9
1032.0859	3046.4842	1430.5	553.2
1032.1959	3047.5173	1419.35	545.95
1032.3059	3048.5498	1419.5	543.65
1032.4159	3049.5816	1413.25	536.75
1032.5258	3050.6128	1406.75	531.1
1032.6357	3051.6434	1399.05	519.75
1032.7455	3052.6734	1392.3	514.8
1032.8553	3053.7027	1395.25	520.25
1032.9651	3054.7314	1388.15	512.05
1033.0748	3055.7594	1383.35	506.3
1033.1845	3056.7868	1368.7	491.9
1033.2941	3057.8136	1367.5	492.5
1033.4037	3058.8398	1356.4	480.75
1033.5132	3059.8653	1355.15	479.15
1033.6227	3060.8902	1345.25	469.2
1033.7321	3061.9145	1344.95	467.3
1033.8415	3062.9381	1340.7	461.55
1033.9509	3063.9612	1350.2	456.8
1034.0602	3064.9835	1329.45	453.8
1034.1694	3066.0053	1325.75	444.9
1034.2787	3067.0264	1318.8	444.35
1034.3878	3068.0469	1316.35	441.45
1034.497	3069.0668	1303.2	424.25
1034.6061	3070.086	1297.45	424
1034.7151	3071.1046	1286.45	409.7
1034.8241	3072.1226	1283.1	407.9
1034.9331	3073.1399	1273.55	397.8
1035.042	3074.1567	1266.3	389.85
1035.1508	3075.1727	1254.75	377.6
1035.2597	3076.1882	1240.1	364.3
1035.3684	3077.203	1239.6	361.1
1035.4772	3078.2173	1228.1	352.3
1035.5859	3079.2308	1218.05	342.15
1035.6945	3080.2438	1214	335.6
1035.8031	3081.2561	1204.55	329.25
1035.9117	3082.2678	1197.4	321.75
1036.0202	3083.2789	1193.15	317.35
1036.1286	3084.2893	1191.15	316.5
1036.2371	3085.2991	1182.35	305.6
1036.3454	3086.3083	1178.9	300.35
1036.4538	3087.3169	1169.8	291.4
1036.562	3088.3248	1165.75	289.2
1036.6703	3089.3321	1158.7	281.5
1036.7785	3090.3388	1155.6	280.25
1036.8866	3091.3449	1148.85	273.3
1036.9948	3092.3503	1149.15	271.1
1037.1028	3093.3551	1140.4	267.05
1037.2108	3094.3593	1136.3	263.05
1037.3188	3095.3629	1135.75	261.8
1037.4267	3096.3658	1131.35	253.9
1037.5346	3097.3681	1131.8	257.35
1037.6425	3098.3698	1130.55	254.35
1037.7503	3099.3708	1132.35	249.5
1037.858	3100.3713	1120	246.45
1037.9657	3101.3711	1123.65	248
1038.0734	3102.3702	1252	235.55
1038.181	3103.3688	1115.45	239
1038.2886	3104.3667	1106.5	231.25
1038.3961	3105.364	1106.65	232.2
1038.5036	3106.3607	1102.5	225.4
1038.611	3107.3568	1103.05	224.85
1038.7184	3108.3522	1097.4	221
1038.8257	3109.347	1093.65	218.05
1038.933	3110.3412	1106.5	226.95
1039.0403	3111.3348	1099.15	224.1
1039.1475	3112.3277	1089.35	214.65
1039.2547	3113.32	1088.7	215.35
1039.3618	3114.3117	1089.65	215.05
1039.4689	3115.3028	1089.05	214.2
1039.5759	3116.2932	1085.5	209.1
1039.6829	3117.2831	1087.6	206.15
1039.7898	3118.2723	1081.25	207.25
1039.8967	3119.2608	1081.6	206.8
1040.0035	3120.2488	1078	200.4
1040.1103	3121.2361	1074.35	197.75
1040.2171	3122.2229	1076.4	201.9
1040.3238	3123.209	1075.95	201.2
1040.4305	3124.1944	1073.7	199.6
1040.5371	3125.1793	1073	196.75
1040.6437	3126.1635	1068.35	194.9
1040.7502	3127.1471	1072.5	198.45
1040.8567	3128.1301	1068.45	193.85
1040.9631	3129.1125	1067.7	194.05
1041.0695	3130.0942	1060	186.1
1041.1759	3131.0753	1073.15	188.05
1041.2822	3132.0558	1065.65	189.85
1041.3884	3133.0357	1062.6	187
1041.4946	3134.015	1058.4	182.45
1041.6008	3134.9936	1062.7	186.4
1041.7069	3135.9716	1079.65	180.75
1041.813	3136.949	1055.55	181.75
1041.919	3137.9258	1072.25	178.1
1042.025	3138.902	1057.4	176.4
1042.1309	3139.8775	1047.4	174.4
1042.2368	3140.8524	1048.05	173.3
1042.3427	3141.8267	1048.5	170.7
1042.4485	3142.8004	1047.35	172.75
1042.5542	3143.7735	1053.2	171.45
1042.6599	3144.7459	1046.05	170.45
1042.7656	3145.7178	1045.75	171.6
1042.8712	3146.689	1039.3	167.05
1042.9768	3147.6596	1045.85	168.4
1043.0823	3148.6295	1043.45	166.05
1043.1878	3149.5989	1036.35	162.2
1043.2932	3150.5676	1034.15	160.2
1043.3986	3151.5357	1033.15	161.8
1043.5039	3152.5032	1033.65	160.5
1043.6092	3153.4701	1033.35	158.2
1043.7145	3154.4364	1031.55	153.05
1043.8197	3155.402	1027.6	151.85
1043.9248	3156.367	1032.75	156.35
1044.03	3157.3315	1055.1	153.1
1044.135	3158.2952	1029.1	155.55
1044.24	3159.2584	1027.55	151.55
1044.345	3160.221	1027.25	152.95
1044.4499	3161.1829	1023.7	149.5
1044.5548	3162.1442	1019.55	144.2
1044.6596	3163.105	1018.55	143.65
1044.7644	3164.065	1024.7	150.6
1044.8692	3165.0245	1021.1	144.35
1044.9739	3165.9834	1017.25	143.4
1045.0785	3166.9416	1020.65	146.2
1045.1831	3167.8993	1018.3	142.2
1045.2877	3168.8563	1014.2	139.15
1045.3922	3169.8127	1018.75	145.15
1045.4966	3170.7684	1009.75	135.6
1045.6011	3171.7236	1015.25	138.75
1045.7054	3172.6782	1010.25	135.35
1045.8098	3173.6321	1015.1	140.9
1045.914	3174.5854	1014.65	136.1
1046.0183	3175.5381	1012.7	139.1
1046.1224	3176.4902	1008.6	136.7
1046.2266	3177.4417	1012	139.05
1046.3307	3178.3926	1007.75	134.35
1046.4347	3179.3428	1005.35	130.55
1046.5387	3180.2924	1004.35	131.35
1046.6427	3181.2415	1001	124.45
1046.7466	3182.1899	1006.4	129.45
1046.8504	3183.1377	1002.5	130.1
1046.9542	3184.0848	1008.4	130.8
1047.058	3185.0314	1003.7	129.4
1047.1617	3185.9773	999.3	124.3
1047.2654	3186.9227	1001.15	127.9
1047.369	3187.8674	998.8	126.35
1047.4726	3188.8115	1000.2	122.9
1047.5761	3189.755	994.8	119.8
1047.6796	3190.6979	996.6	120.35
1047.783	3191.6402	996.05	123
1047.8864	3192.5818	996.55	123.4
1047.9898	3193.5229	1003.25	124.1
1048.0931	3194.4633	994.1	121.05
1048.1963	3195.4031	994.05	119.1
1048.2995	3196.3423	989.55	114.6
1048.4027	3197.2809	996.05	122.1
1048.5058	3198.2189	988.2	116.45
1048.6089	3199.1563	1004.35	113.55
1048.7119	3200.0931	992.4	118.8
1048.8148	3201.0292	986.35	113.75
1048.9178	3201.9648	988.3	115.65
1049.0206	3202.8997	990.9	113.75
1049.1235	3203.834	987.95	115.2
1049.2262	3204.7677	989.25	115.7
1049.329	3205.7008	991.3	116.7
1049.4317	3206.6333	982.35	111.45
1049.5343	3207.5652	988.2	113.6
1049.6369	3208.4964	985.2	110.35
1049.7394	3209.4271	985.7	113.85
1049.8419	3210.3571	983.9	108.35
1049.9444	3211.2865	982.9	106.7
1050.0468	3212.2154	982.3	107.9
1050.1491	3213.1436	980.45	104.1
1050.2514	3214.0712	990.2	110.95
1050.3537	3214.9982	979.7	107
1050.4559	3215.9246	980.8	106.3
1050.5581	3216.8503	977	104.15
1050.6602	3217.7755	977.4	104.85
1050.7623	3218.7001	979.8	106.45
1050.8643	3219.624	978.85	104
1050.9663	3220.5473	978.8	104.25
1051.0682	3221.4701	979.05	104.3
1051.1701	3222.3922	976.6	102.3
1051.2719	3223.3137	974.65	101.9
1051.3737	3224.2346	974.35	102.1
1051.4754	3225.1549	973.55	100.6
1051.5771	3226.0746	969.1	96.75
1051.6788	3226.9937	974.6	100.05
1051.7804	3227.9121	971.55	99.25
1051.8819	3228.83	974.85	102.4
1051.9834	3229.7473	969.75	95.9
1052.0849	3230.6639	972.55	99.45
1052.1863	3231.5799	969.9	96.2
1052.2876	3232.4954	970.7	96.6
1052.3889	3233.4102	968.9	95.05
1052.4902	3234.3244	970.3	97.1
1052.5914	3235.238	970.45	96.65
1052.6926	3236.151	989.6	90.4
1052.7937	3237.0634	965.35	93.9
1052.8948	3237.9752	963.15	89.85
1052.9958	3238.8864	967.1	91.6
1053.0968	3239.797	965.95	89.65
1053.1977	3240.7069	962.5	88.2
1053.2986	3241.6163	963.4	89
1053.3994	3242.5251	964.15	94.9
1053.5002	3243.4332	960	89.25
1053.6009	3244.3408	962.35	88.2
1053.7016	3245.2477	960.75	88.95
1053.8022	3246.154	960.65	87.45
1053.9028	3247.0598	963.15	90.6
1054.0034	3247.9649	958.15	83
1054.1039	3248.8694	961.35	88.45
1054.2043	3249.7733	956.4	83.7
1054.3047	3250.6766	958.3	84.75
1054.4051	3251.5793	957.75	84.25
1054.5054	3252.4814	956.9	81.35
1054.6056	3253.3829	955.65	81.9
1054.7058	3254.2838	954.9	82.95
1054.806	3255.1841	952.3	80.05
1054.9061	3256.0838	951.55	79
1055.0061	3256.9829	951.05	78.55
1055.1062	3257.8814	954.6	80.2
1055.2061	3258.7792	953.1	78.25
1055.306	3259.6765	950.9	77.4
1055.4059	3260.5731	947.3	74.6
1055.5057	3261.4692	948.8	74.8
1055.6055	3262.3647	948.15	75.85
1055.7052	3263.2595	947.15	72.1
1055.8049	3264.1538	943.6	69.7
1055.9045	3265.0474	944.7	72
1056.0041	3265.9404	940.85	66.7
1056.1036	3266.8329	941.7	67.75
1056.2031	3267.7247	949.3	65.3
1056.3025	3268.616	936.05	63.65
1056.4019	3269.5066	935.85	62.55
1056.5013	3270.3966	935.9	62.75
1056.6005	3271.286	933	62.35
