Software Version:	3.9.2.0
Unit SN:	10000200
Spectrometer SN:	6960
Date:	3/8/2024 1:13:06 PM
Data Line Index:	25
Spectral Points:	2048
Integration time (ms):	125
Averages:	20
Delay (ms):	30000
Sequence Number:	1
Processing:	dark subtract
Laser Power (mW):	305
Laser Current (mA):	823
Laser Diode Temp (C):	25
Laser Case Temp (C):	26.2
System Temp (C):	26.2
Spectrometer Temp (C):	24.1
CCD Temp (C):	0.007
Secondary Temp (C):	20.004
Heatsink Temp (C):	20.531
CCDPCB Temp (C):	36.285
SecondaryPCB Temp (C):	30.382

Wavelength	RamanShift	Raw Counts	Dark Subtracted
787.061	30.1047	454.25	48.1
787.2016	32.3739	454.5	47.9
787.3422	34.6426	461.75	55.8
787.4828	36.9109	465.25	56.75
787.6235	39.1787	474.5	60.9
787.7642	41.4461	484.1	64.6
787.9049	43.7131	495.2	75.2
788.0456	45.9796	501	79.1
788.1863	48.2456	506.45	79.5
788.3271	50.5112	518	87.3
788.4679	52.7764	528.25	91.25
788.6087	55.0411	539	96.4
788.7496	57.3054	553.55	108.55
788.8904	59.5692	561	113.85
789.0313	61.8326	570.5	121.95
789.1722	64.0955	581.4	129
789.3132	66.3579	597.15	139.65
789.4541	68.6199	615.85	154.2
789.5951	70.8815	653.65	186.6
789.7361	73.1426	736.65	268.7
789.8771	75.4032	940.3	465.1
790.0181	77.6634	1437.75	959.9
790.1592	79.9231	2622.75	2134.7
790.3003	82.1824	5169.05	4663.9
790.4414	84.4412	9772.75	9234.6
790.5825	86.6995	16063.65	15488.15
790.7237	88.9574	22251.25	21639.25
790.8648	91.2148	26485.4	25855.75
791.006	93.4717	28411.9	27761.5
791.1472	95.7282	28711.1	28057.45
791.2885	97.9842	28529.75	27865.8
791.4297	100.2398	27830.45	27164.25
791.571	102.4949	27144.75	26476.75
791.7123	104.7495	26294.75	25624
791.8536	107.0036	25461.3	24792.6
791.9949	109.2573	24626.6	23960.3
792.1363	111.5105	23868.3	23192.65
792.2777	113.7632	23137.1	22460.25
792.4191	116.0154	22555.95	21874.35
792.5605	118.2672	22128.7	21447.05
792.7019	120.5185	21650.7	20969
792.8434	122.7693	21340.75	20655.7
792.9849	125.0197	21053.85	20367.3
793.1264	127.2696	20725.8	20035.3
793.2679	129.519	20558.1	19861
793.4094	131.7679	20294.2	19593.35
793.551	134.0163	20102.9	19401.35
793.6926	136.2642	19837.45	19132.6
793.8342	138.5117	19559.45	18843.6
793.9758	140.7587	19225.45	18517.3
794.1175	143.0052	18946.75	18233.65
794.2591	145.2512	18682.25	17972.75
794.4008	147.4967	18391.6	17675.6
794.5425	149.7417	18207.85	17492.55
794.6842	151.9863	18054.1	17332.1
794.826	154.2304	17961.85	17240.6
794.9677	156.4739	17832.3	17104.45
795.1095	158.717	17749.85	17017.5
795.2513	160.9596	17589.7	16853.8
795.3931	163.2017	17330.35	16592.5
795.535	165.4433	17020.8	16279.9
795.6768	167.6844	16706.35	15964.55
795.8187	169.925	16368.6	15626.8
795.9606	172.1651	16001.5	15258.9
796.1025	174.4047	15732.4	14984.45
796.2445	176.6439	15471.4	14722.3
796.3864	178.8825	15243.05	14489.05
796.5284	181.1206	15091.3	14332.5
796.6704	183.3582	14942.3	14176.55
796.8124	185.5954	14829.5	14067.55
796.9544	187.832	14728.75	13960.3
797.0965	190.0681	14687	13916.8
797.2386	192.3037	14717.95	13946.25
797.3806	194.5388	14717.95	13939.35
797.5228	196.7734	14770.95	13992.1
797.6649	199.0075	14826.8	14050.5
797.807	201.2411	14959.1	14178.5
797.9492	203.4742	15045.75	14262.8
798.0914	205.7068	15167.3	14376.35
798.2336	207.9389	15294.15	14506.3
798.3758	210.1704	15429	14650.5
798.518	212.4015	15543.4	14773.3
798.6603	214.632	15739.4	14973.85
798.8025	216.862	15910.35	15149.75
798.9448	219.0915	16060.45	15292.35
799.0871	221.3205	16188.6	15419.1
799.2294	223.549	16407.6	15642.15
799.3718	225.777	16596.55	15825.6
799.5141	228.0044	16873.25	16098.45
799.6565	230.2314	17193.1	16420
799.7989	232.4578	17471.55	16694.6
799.9413	234.6837	17766	16982.9
800.0837	236.909	17970.3	17182.4
800.2262	239.1339	17937.05	17125.8
800.3687	241.3582	17781.4	16983.6
800.5111	243.582	17534.6	16706.3
800.6536	245.8053	17281.05	16467.2
800.7961	248.0281	17115.95	16307.3
800.9387	250.2503	16946.7	16130.6
801.0812	252.472	16907	16093.95
801.2238	254.6932	16915.85	16104.1
801.3664	256.9139	16917.85	16103.8
801.509	259.134	17004.3	16183.75
801.6516	261.3536	17103.2	16285.9
801.7942	263.5727	17305.1	16482.95
801.9369	265.7912	17400.35	16582.65
802.0795	268.0092	17546.25	16727.95
802.2222	270.2267	17636.5	16817.45
802.3649	272.4436	17641.9	16819.8
802.5076	274.6601	17622.6	16792.05
802.6504	276.8759	17532.1	16706.95
802.7931	279.0913	17458.6	16633
802.9359	281.3061	17364.95	16539.25
803.0787	283.5204	17359.1	16528.85
803.2215	285.7341	17389.25	16557.1
803.3643	287.9473	17490.85	16647.9
803.5071	290.16	17681.7	16847.7
803.6499	292.3721	17883.6	17049.8
803.7928	294.5837	18245.35	17408.05
803.9357	296.7947	18526.7	17694.7
804.0786	299.0052	18691.7	17860.8
804.2215	301.2152	18650.4	17811.85
804.3644	303.4246	18366.45	17534.15
804.5074	305.6334	17890.35	17059.4
804.6503	307.8418	17393.75	16562.15
804.7933	310.0495	16996.85	16157.35
804.9363	312.2568	16605.9	15763.85
805.0793	314.4635	16328.5	15489.9
805.2223	316.6696	16137.55	15294.05
805.3653	318.8752	16017.85	15164.95
805.5084	321.0802	16006.5	15160.2
805.6514	323.2847	16066.85	15221.15
805.7945	325.4887	16122.5	15276.6
805.9376	327.692	16110.2	15264.95
806.0807	329.8949	16036.95	15190.6
806.2238	332.0972	15794.35	14942
806.367	334.2989	15528.05	14672.15
806.5101	336.5001	15259.95	14400.95
806.6533	338.7007	15074.75	14220.5
806.7965	340.9008	14943	14086.2
806.9397	343.1003	14786.95	13928.85
807.0829	345.2992	14748.2	13888.2
807.2261	347.4976	14721.25	13861.75
807.3693	349.6955	14667.95	13802.95
807.5126	351.8927	14691.5	13825.7
807.6559	354.0895	14644.8	13769.5
807.7991	356.2856	14678.85	13810.8
807.9424	358.4812	14624.55	13756.25
808.0857	360.6763	14668.95	13798.8
808.2291	362.8707	14659.55	13790.75
808.3724	365.0646	14714.3	13843.15
808.5158	367.258	14737.95	13866.7
808.6591	369.4508	14802.7	13927.25
808.8025	371.643	14886.55	14009.55
808.9459	373.8346	14926.1	14049.2
809.0893	376.0257	14952	14069.5
809.2327	378.2162	14911.9	14036.05
809.3762	380.4062	14863.05	13983.6
809.5196	382.5956	14730.95	13854.35
809.6631	384.7844	14611.2	13740.8
809.8066	386.9726	14477.85	13611.95
809.9501	389.1603	14428.3	13559.45
810.0936	391.3474	14386.45	13485.75
810.2371	393.5339	14361.8	13487.3
810.3806	395.7199	14322.05	13452.2
810.5241	397.9052	14330.25	13459.25
810.6677	400.09	14375.4	13499.95
810.8113	402.2743	14511.55	13638.25
810.9548	404.4579	14614.2	13741.55
811.0984	406.641	14809.25	13934.2
811.2421	408.8235	15009.15	14136.2
811.3857	411.0054	15259.05	14378.6
811.5293	413.1868	15610.7	14727.6
811.673	415.3675	15818.1	14932.35
811.8166	417.5477	15954.6	15070.75
811.9603	419.7273	15966.45	15080
812.104	421.9064	15879.4	14989.65
812.2477	424.0848	15755.75	14872.4
812.3914	426.2627	15590.8	14707.95
812.5351	428.4399	15328.25	14440.65
812.6788	430.6166	14983.7	14092
812.8226	432.7928	14624.65	13732.65
812.9663	434.9683	14278.25	13390.6
813.1101	437.1432	14056.7	13168.8
813.2539	439.3176	13859.7	12979.6
813.3977	441.4914	13788.65	12915.2
813.5415	443.6645	13777.65	12891.65
813.6853	445.8371	13701.9	12814.35
813.8291	448.0091	13654.6	12772.4
813.973	450.1806	13663.25	12777.65
814.1168	452.3514	13617.85	12737.05
814.2607	454.5216	13656.9	12764.05
814.4046	456.6913	13586.3	12697.7
814.5485	458.8603	13629.9	12745.4
814.6924	461.0288	13710.55	12829.85
814.8363	463.1967	13675.35	12798.9
814.9802	465.3639	13767.25	12887.8
815.1241	467.5306	13825.45	12938.2
815.2681	469.6967	13904.25	13021.2
815.412	471.8622	13997.05	13114.55
815.556	474.0271	14113.55	13227.9
815.7	476.1914	14175.05	13282.25
815.844	478.3551	14229.6	13342.85
815.988	480.5182	14198.7	13315.45
816.132	482.6807	14236.3	13356.35
816.276	484.8426	14388.3	13517.5
816.4201	487.0039	14684.65	13803.6
816.5641	489.1647	15081	14196.05
816.7082	491.3248	15451.1	14562.95
816.8522	493.4843	15634.1	14750.6
816.9963	495.6432	15631.3	14748.05
817.1404	497.8015	15520.05	14622.9
817.2845	499.9592	15481.6	14577.8
817.4286	502.1163	15352.2	14452.8
817.5727	504.2728	15085.9	14193.05
817.7168	506.4287	14774.65	13893.65
817.861	508.5839	14401.2	13517.15
818.0051	510.7386	14125.8	13238.9
818.1493	512.8927	13991.15	13085.15
818.2935	515.0461	13931.15	13036.5
818.4377	517.199	13933.65	13037.9
818.5818	519.3512	14039.15	13139.85
818.726	521.5029	14194.45	13289.5
818.8703	523.6539	14328.85	13430.4
819.0145	525.8043	14418	13521.5
819.1587	527.9541	14396.3	13494.95
819.303	530.1033	14313.35	13414.85
819.4472	532.2519	14239.15	13339.15
819.5915	534.3999	14316.3	13412.4
819.7357	536.5472	14464.45	13567.9
819.88	538.694	14820.85	13925.15
820.0243	540.8401	15295.45	14396
820.1686	542.9856	15676.2	14769.4
820.3129	545.1305	15788.95	14870.35
820.4572	547.2748	15712.05	14794.55
820.6016	549.4185	15429.55	14512.85
820.7459	551.5615	15170.65	14257.5
820.8902	553.704	15074.65	14156.8
821.0346	555.8458	15072.4	14161.95
821.1789	557.987	15173.35	14265.45
821.3233	560.1276	15281.3	14372.9
821.4677	562.2675	15470.05	14556.1
821.6121	564.4069	15695.95	14784.6
821.7565	566.5456	15935.5	15023.85
821.9009	568.6837	15923.85	15018.4
822.0453	570.8212	15594.95	14686.25
822.1897	572.958	15132.7	14221.85
822.3342	575.0942	14679.2	13773
822.4786	577.2299	14345.8	13441.3
822.6231	579.3648	14249.7	13359.95
822.7675	581.4992	14253.3	13373.65
822.912	583.6329	14406.55	13526.7
823.0565	585.766	14626.9	13740.75
823.201	587.8985	14711.5	13818.35
823.3454	590.0304	14800.25	13867.8
823.4899	592.1616	14723.75	13809.7
823.6345	594.2922	14625.8	13710.15
823.779	596.4222	14471.7	13558.75
823.9235	598.5515	14268.5	13350.05
824.068	600.6802	14122.9	13208.6
824.2126	602.8083	13938.6	13027.75
824.3571	604.9358	13912.1	12997.45
824.5017	607.0626	13871.8	12950.95
824.6462	609.1888	13907.6	12987.55
824.7908	611.3144	13962.15	13035.9
824.9354	613.4393	13972.35	13053.6
825.08	615.5636	13955.05	13029.6
825.2246	617.6873	13942	13016.85
825.3692	619.8103	13862.35	12941.85
825.5138	621.9327	13707.4	12788.65
825.6584	624.0544	13612.6	12697.15
825.803	626.1756	13509.45	12598.6
825.9477	628.2961	13431.05	12516.2
826.0923	630.4159	13372	12452.25
826.237	632.5351	13340.3	12419.4
826.3816	634.6537	13306.6	12384.7
826.5263	636.7716	13292.65	12365.35
826.6709	638.8889	13301.45	12372
826.8156	641.0056	13331.25	12399.5
826.9603	643.1216	13298	12371
827.105	645.237	13320.4	12397.25
827.2497	647.3518	13254.85	12335.2
827.3944	649.4659	13259.9	12345.3
827.5391	651.5793	13232.4	12318.25
827.6838	653.6922	13229.35	12313.1
827.8285	655.8043	13184.5	12266.5
827.9733	657.9159	13166.2	12248.75
828.118	660.0268	13142.15	12221.9
828.2627	662.137	13132.75	12213.7
828.4075	664.2466	13132.85	12200.5
828.5522	666.3556	13099.5	12173.85
828.697	668.4639	13078.8	12157.8
828.8418	670.5716	13059.05	12145.1
828.9865	672.6786	13119	12198.25
829.1313	674.785	13136.55	12206.85
829.2761	676.8907	13162.35	12237.7
829.4209	678.9958	13236.35	12317.95
829.5657	681.1002	13179.6	12260.95
829.7105	683.204	13187.95	12253.3
829.8553	685.3072	13147	12215.25
830.0001	687.4097	13094.05	12166
830.1449	689.5115	13060.4	12129.2
830.2898	691.6127	13088	12167
830.4346	693.7132	13015.5	12092.25
830.5794	695.8131	12995.4	12065.15
830.7243	697.9123	13017.35	12084.65
830.8691	700.0109	12996.75	12065.95
831.014	702.1089	13013.85	12084.2
831.1588	704.2061	13017.35	12090.8
831.3037	706.3028	13073.2	12141.45
831.4486	708.3987	13127.25	12196.55
831.5935	710.4941	13188.3	12259.5
831.7383	712.5887	13307.2	12382.05
831.8832	714.6827	13484.15	12554.7
832.0281	716.7761	13736.15	12810.9
832.173	718.8688	14037.05	13106.85
832.3179	720.9608	14212.9	13275.45
832.4628	723.0522	14348.1	13407.45
832.6077	725.1429	14266.95	13330.35
832.7527	727.233	14132.2	13197.05
832.8976	729.3224	14038.55	13106
833.0425	731.4112	13852.55	12918.15
833.1874	733.4993	13664.65	12729.3
833.3324	735.5867	13496.15	12562.4
833.4773	737.6735	13340.4	12406.3
833.6222	739.7596	13204.8	12273.8
833.7672	741.845	13130.3	12200.3
833.9122	743.9298	13069.2	12134.15
834.0571	746.014	13070.95	12136.45
834.2021	748.0974	13070.7	12134.65
834.347	750.1802	13054.8	12113.1
834.492	752.2624	13094.95	12155.95
834.637	754.3439	13104.2	12166.5
834.782	756.4247	13217.05	12271.25
834.9269	758.5048	13379.75	12444.65
835.0719	760.5843	13624.35	12686.55
835.2169	762.6631	14016.9	13073
835.3619	764.7413	14530.05	13591.35
835.5069	766.8188	15152.8	14214.4
835.6519	768.8956	15690.15	14748.9
835.7969	770.9718	16006.7	15068.1
835.9419	773.0473	15871.1	14933.6
836.0869	775.1221	15577.5	14639.2
836.232	777.1962	15238.35	14300.75
836.377	779.2697	15087.7	14149.3
836.522	781.3426	15141.8	14189.2
836.667	783.4147	15318.85	14378.55
836.8121	785.4862	15546.15	14608.45
836.9571	787.557	15519.2	14580.2
837.1021	789.6271	15121.75	14177.4
837.2472	791.6966	14518.75	13577.5
837.3922	793.7654	13947.55	13003.95
837.5373	795.8335	13568.95	12629.1
837.6823	797.901	13356.35	12417.3
837.8274	799.9678	13224.85	12281.4
837.9724	802.0339	13204.9	12261.5
838.1175	804.0993	13212.4	12261.55
838.2626	806.1641	13177.4	12231.05
838.4076	808.2282	13105.65	12166.9
838.5527	810.2916	13038.25	12097.2
838.6978	812.3544	12941.45	12004.25
838.8428	814.4164	12893.6	11956.8
838.9879	816.4778	12893.25	11946.85
839.133	818.5385	12910.2	11961.7
839.2781	820.5986	13030.45	12084.7
839.4232	822.658	13200.45	12252.2
839.5682	824.7166	13401.35	12459.15
839.7133	826.7747	13789.05	12844.75
839.8584	828.832	14147.95	13203.2
840.0035	830.8886	14397.35	13450.5
840.1486	832.9446	14561.2	13613.8
840.2937	834.9999	14506.1	13561.7
840.4388	837.0545	14364.4	13414
840.5839	839.1085	14198.4	13253.15
840.729	841.1618	14061.25	13112.6
840.8741	843.2143	13947.05	13003.25
841.0192	845.2662	13763.4	12818.7
841.1643	847.3175	13698.7	12753.8
841.3095	849.368	13579.4	12632.55
841.4546	851.4179	13491.65	12545.2
841.5997	853.467	13364.55	12418.9
841.7448	855.5155	13282.55	12340.35
841.8899	857.5633	13150.05	12202.35
842.0351	859.6105	13088.8	12140.55
842.1802	861.6569	13026.9	12077.75
842.3253	863.7027	12965.4	12016.85
842.4704	865.7478	12930.7	11982.75
842.6156	867.7922	12924.55	11973.65
842.7607	869.8359	12924.55	11975.75
842.9058	871.8789	13041.9	12092.6
843.0509	873.9212	13168.65	12186.8
843.1961	875.9629	13279.45	12332.95
843.3412	878.0039	13444.8	12498
843.4863	880.0441	13516.45	12570.35
843.6315	882.0837	13569.85	12623.1
843.7766	884.1226	13542.5	12590.95
843.9218	886.1609	13502.65	12557.45
844.0669	888.1984	13513.7	12570
844.212	890.2352	13570.15	12623.8
844.3572	892.2714	13530.15	12576
844.5023	894.3069	13549.6	12598.75
844.6475	896.3416	13397.75	12447.2
844.7926	898.3757	13319.25	12369.05
844.9377	900.4091	13318.45	12366.8
845.0829	902.4418	13278.35	12321.9
845.228	904.4739	13325.45	12369.25
845.3732	906.5052	13357.75	12408.85
845.5183	908.5358	13278.35	12328.5
845.6635	910.5658	13149.05	12196.15
845.8086	912.595	12942.95	11990.75
845.9538	914.6236	12772.75	11820.5
846.0989	916.6515	12672.2	11718.95
846.2441	918.6786	12627.45	11671.35
846.3892	920.7051	12658.45	11704.95
846.5344	922.7309	12767.85	11813.2
846.6795	924.756	12807.85	11858.3
846.8246	926.7804	12898.25	11946.5
846.9698	928.8041	12854.55	11901.65
847.1149	930.8272	12933.2	11979.65
847.2601	932.8495	12877.9	11923.6
847.4052	934.8711	12840.25	11889.45
847.5504	936.892	12743.1	11790.5
847.6955	938.9123	12662.45	11712.9
847.8407	940.9318	12620.1	11666.45
847.9858	942.9506	12561.7	11609.5
848.131	944.9688	12482.35	11531.8
848.2761	946.9862	12397.7	11449
848.4213	949.003	12309.45	11357.55
848.5664	951.019	12281.1	11328.55
848.7115	953.0344	12233.3	11280.15
848.8567	955.0491	12244.85	11291.25
849.0018	957.063	12338	11386.05
849.147	959.0763	12411.5	11462.65
849.2921	961.0888	12442	11490.25
849.4373	963.1007	12524.4	11578.05
849.5824	965.1119	12554.5	11617.15
849.7275	967.1223	12575.35	11639.4
849.8727	969.1321	12575.95	11641.85
850.0178	971.1412	12603.8	11659
850.1629	973.1495	12578.8	11629.25
850.3081	975.1572	12683.95	11675.3
850.4532	977.1641	12639.7	11686.25
850.5983	979.1704	12660.8	11709.65
850.7435	981.1759	12630.9	11675.5
850.8886	983.1808	12658.8	11705.4
851.0337	985.1849	12750.2	11786.95
851.1788	987.1884	12847.9	11895.5
851.324	989.1911	12982.1	12029.65
851.4691	991.1932	13081.95	12132.55
851.6142	993.1945	13121.95	12173.5
851.7593	995.1951	13074.5	12125.55
851.9045	997.1951	13074.1	12116.4
852.0496	999.1943	12993.25	12039.1
852.1947	1001.1928	12974	12017.15
852.3398	1003.1906	12978.05	12025.8
852.4849	1005.1877	13077.2	12128
852.63	1007.1841	13093.95	12145.35
852.7751	1009.1798	13073.6	12124.85
852.9202	1011.1748	12914.85	11961.5
853.0653	1013.1691	12754.95	11809.8
853.2104	1015.1627	12530.45	11580.75
853.3555	1017.1556	12336.85	11391.75
853.5006	1019.1477	12232.95	11289.15
853.6457	1021.1392	12130.3	11189.2
853.7908	1023.1299	12128.15	11189.95
853.9359	1025.12	12119.9	11190.55
854.081	1027.1093	12175.15	11254.4
854.2261	1029.0979	12295.95	11377.5
854.3712	1031.0859	12351.5	11427.5
854.5163	1033.0731	12377.25	11442.75
854.6613	1035.0596	12351.9	11410.35
854.8064	1037.0454	12194	11253.3
854.9515	1039.0304	12095.2	11150.3
855.0965	1041.0148	11982.7	11034.2
855.2416	1042.9985	11872.5	10921.2
855.3867	1044.9814	11836.85	10890.9
855.5317	1046.9636	11804.35	10857.6
855.6768	1048.9452	11771.5	10830
855.8219	1050.926	11830	10887.1
855.9669	1052.9061	11811.8	10863.2
856.112	1054.8855	11827.1	10881
856.257	1056.8642	11871.6	10923.25
856.4021	1058.8421	11948.45	11002.4
856.5471	1060.8194	11953.55	11003.25
856.6921	1062.7959	12001.45	11051.55
856.8372	1064.7717	12035.4	11088.45
856.9822	1066.7469	12064.65	11116.05
857.1272	1068.7213	12144.65	11194.45
857.2723	1070.695	12161.1	11214.4
857.4173	1072.6679	12104.1	11154.6
857.5623	1074.6402	12130.6	11181.95
857.7073	1076.6117	12074.25	11118.45
857.8523	1078.5826	12057.05	11106.6
857.9973	1080.5527	11977.15	11027.95
858.1423	1082.5221	11982.6	11036.25
858.2873	1084.4908	12074.6	11128.25
858.4323	1086.4587	12193.45	11244.35
858.5773	1088.426	12291.65	11341.2
858.7223	1090.3925	12320.8	11367.5
858.8673	1092.3584	12303.35	11352.65
859.0123	1094.3235	12217.95	11271.1
859.1573	1096.2879	12208.7	11262.8
859.3022	1098.2515	12270.65	11323.8
859.4472	1100.2145	12390.6	11445.25
859.5922	1102.1767	12516.5	11564.8
859.7371	1104.1382	12713.25	11768.5
859.8821	1106.099	12954.15	12003.9
860.027	1108.0591	13166.9	12219.75
860.172	1110.0185	13313.15	12365.8
860.3169	1111.9771	13361.25	12412.85
860.4619	1113.9351	13206.4	12259.45
860.6068	1115.8923	12981.55	12039.8
860.7517	1117.8488	12749.65	11793.95
860.8967	1119.8045	12523.5	11578.35
861.0416	1121.7596	12392.25	11446.05
861.1865	1123.7139	12319.95	11374.25
861.3314	1125.6675	12295.55	11352.8
861.4763	1127.6204	12336.15	11390.5
861.6212	1129.5726	12302.85	11356.45
861.7661	1131.524	12266.05	11317.6
861.911	1133.4748	12189.05	11244.9
862.0559	1135.4248	12105.2	11154.5
862.2008	1137.3741	11999.9	11055.4
862.3457	1139.3226	11945.1	10998.75
862.4905	1141.2705	11900.15	10952.95
862.6354	1143.2176	11811	10855.95
862.7803	1145.164	11770	10820.1
862.9251	1147.1097	11739.4	10790.15
863.07	1149.0546	11710.55	10759.5
863.2148	1150.9989	11623.1	10675.35
863.3597	1152.9424	11526.3	10574.65
863.5045	1154.8852	11415.45	10467.95
863.6493	1156.8272	11298.6	10352.4
863.7942	1158.7686	11280.6	10321.05
863.939	1160.7092	11264.15	10315.8
864.0838	1162.6491	11284.45	10333.6
864.2286	1164.5883	11394.35	10449.75
864.3734	1166.5267	11454.5	10503.3
864.5182	1168.4644	11659.15	10718.15
864.663	1170.4014	11799.1	10851.8
864.8078	1172.3377	12073.35	11130.15
864.9526	1174.2732	12339.3	11396
865.0974	1176.2081	12657.35	11712.65
865.2421	1178.1421	13020.3	12068.3
865.3869	1180.0755	13396.95	12451
865.5317	1182.0082	13603.7	12659.2
865.6764	1183.9401	13719.15	12773.75
865.8212	1185.8713	13587.1	12648.5
865.9659	1187.8017	13324.35	12391.8
866.1106	1189.7315	13005.35	12081.7
866.2554	1191.6605	12641.65	11718.45
866.4001	1193.5888	12438.75	11509.55
866.5448	1195.5163	12296.3	11359.35
866.6895	1197.4432	12213.15	11268.6
866.8342	1199.3693	12176.7	11231.8
866.9789	1201.2947	12158.45	11217.8
867.1236	1203.2193	12112.85	11171.05
867.2683	1205.1432	12141.1	11196.3
867.413	1207.0664	12145.2	11205.4
867.5576	1208.9889	12123.25	11176.8
867.7023	1210.9106	12119.85	11178.1
867.847	1212.8316	12136.05	11194.75
867.9916	1214.7519	12207	11255.5
868.1363	1216.6715	12227.8	11287.8
868.2809	1218.5903	12268.6	11324.7
868.4255	1220.5084	12276.85	11332.8
868.5701	1222.4257	12333.1	11388.75
868.7148	1224.3424	12312.05	11372.05
868.8594	1226.2583	12419.7	11475.45
869.004	1228.1735	12505	11565.4
869.1486	1230.0879	12619.9	11675.2
869.2932	1232.0016	12740.8	11799.1
869.4377	1233.9146	12825.05	11881.05
869.5823	1235.8269	12775.75	11833.95
869.7269	1237.7384	12691.9	11751.25
869.8715	1239.6492	12523.45	11581.8
870.016	1241.5592	12450.95	11510.05
870.1606	1243.4686	12384.3	11442.9
870.3051	1245.3772	12451.75	11512
870.4496	1247.285	12543.15	11601.25
870.5941	1249.1922	12645.9	11707.05
870.7387	1251.0986	12667.45	11727.55
870.8832	1253.0042	12709.3	11769.4
871.0277	1254.9092	12752.05	11811.4
871.1722	1256.8134	12813.15	11877.25
871.3167	1258.7169	12996.55	12053.65
871.4611	1260.6196	13128.85	12189.1
871.6056	1262.5216	13353.2	12413.9
871.7501	1264.4229	13549.85	12610.35
871.8945	1266.3234	13756.3	12819
872.039	1268.2232	13861.9	12919.5
872.1834	1270.1223	13864.4	12921.75
872.3278	1272.0207	13865.75	12924.55
872.4723	1273.9183	13839.05	12888.95
872.6167	1275.8151	13773.2	12833.15
872.7611	1277.7113	13734.95	12797.35
872.9055	1279.6067	13726.75	12786.9
873.0499	1281.5014	13764.55	12823.9
873.1943	1283.3953	13910.45	12967.7
873.3386	1285.2885	14137.65	13200.3
873.483	1287.181	14379.1	13439.8
873.6274	1289.0727	14661.7	13721.4
873.7717	1290.9637	14844.15	13904.9
873.9161	1292.854	15006.8	14068.25
874.0604	1294.7435	15050.9	14114.25
874.2047	1296.6323	15081.3	14141.5
874.349	1298.5204	15145.6	14202.85
874.4933	1300.4077	15161.5	14221.3
874.6376	1302.2943	15165.2	14226.85
874.7819	1304.1802	15063.1	14125.35
874.9262	1306.0653	14798.6	13859.85
875.0705	1307.9497	14460.85	13524.95
875.2147	1309.8333	14203.3	13269.55
875.359	1311.7162	14008.9	13069.9
875.5032	1313.5984	13877.95	12935.65
875.6475	1315.4798	13832.9	12890.35
875.7917	1317.3605	13873.5	12920.35
875.9359	1319.2405	13865.9	12926.45
876.0801	1321.1197	13689.6	12747.65
876.2243	1322.9982	13511.3	12565.35
876.3685	1324.876	13337.75	12400.35
876.5127	1326.753	13133.8	12194.9
876.6569	1328.6293	13027.25	12087.3
876.801	1330.5048	13002.1	12059.6
876.9452	1332.3796	12860.9	11923.15
877.0893	1334.2537	12845.35	11880.1
877.2335	1336.127	12772.75	11833.2
877.3776	1337.9996	12714.05	11773.9
877.5217	1339.8714	12727.05	11787.65
877.6658	1341.7426	12749	11766.85
877.8099	1343.6129	12713.05	11770.35
877.954	1345.4826	12687.4	11747.65
878.0981	1347.3515	12691.55	11748.3
878.2422	1349.2196	12639.2	11699.4
878.3862	1351.087	12680.4	11740.8
878.5303	1352.9537	12732.05	11791.1
878.6743	1354.8197	12853.4	11912.65
878.8184	1356.6849	13005.95	12066.3
878.9624	1358.5493	13128.95	12189.9
879.1064	1360.4131	13230.25	12292.95
879.2504	1362.276	13248.2	12312.15
879.3944	1364.1383	13190.1	12253.35
879.5384	1365.9998	12976.3	12034.45
879.6823	1367.8606	12642.25	11702.9
879.8263	1369.7206	12315.65	11375.85
879.9702	1371.5799	12015.6	11074.7
880.1142	1373.4384	11813.95	10873.2
880.2581	1375.2962	11609.7	10670.1
880.402	1377.1533	11296.25	10361.05
880.5459	1379.0096	10961.15	10026.6
880.6898	1380.8652	10643.6	9710.8
880.8337	1382.7201	10364.75	9428.45
880.9776	1384.5742	10136.95	9202.35
881.1215	1386.4275	9935.55	8996.05
881.2653	1388.2802	9801.9	8862.3
881.4092	1390.132	9676.75	8736.6
881.553	1391.9832	9619.55	8682.5
881.6968	1393.8336	9521.3	8584.55
881.8406	1395.6832	9482.6	8543.4
881.9844	1397.5322	9460	8522.7
882.1282	1399.3803	9407.65	8465.25
882.272	1401.2278	9373.5	8437.6
882.4158	1403.0745	9380.3	8445
882.5595	1404.9204	9375.3	8438.35
882.7033	1406.7656	9380.65	8446.5
882.847	1408.6101	9409.2	8472.75
882.9908	1410.4538	9437.4	8497.75
883.1345	1412.2968	9459.55	8525.55
883.2782	1414.139	9494.85	8557.9
883.4219	1415.9805	9604.3	8669.8
883.5656	1417.8213	9675.25	8730.15
883.7092	1419.6613	9758.8	8823.85
883.8529	1421.5006	9937.6	8999.25
883.9965	1423.3391	10137.65	9202.85
884.1402	1425.1769	10425.6	9490.15
884.2838	1427.0139	10891.75	9957.3
884.4274	1428.8502	11449.4	10510.65
884.571	1430.6858	11997.2	11060.95
884.7146	1432.5206	12408.75	11470.6
884.8582	1434.3547	12627.7	11692.05
885.0018	1436.188	12669.65	11735.15
885.1453	1438.0206	12563.5	11625.45
885.2889	1439.8524	12412.75	11475.95
885.4324	1441.6835	12308.5	11372.85
885.5759	1443.5139	12223.75	11285.6
885.7194	1445.3435	12142.8	11210.15
885.8629	1447.1724	12069.85	11136.8
886.0064	1449.0005	12009.9	11075.7
886.1499	1450.8279	11928.65	10997.4
886.2933	1452.6545	11899.9	10968.9
886.4368	1454.4804	11917.3	10986.95
886.5802	1456.3056	11926.25	10988.25
886.7237	1458.13	11831.9	10900.8
886.8671	1459.9536	11658.45	10724.5
887.0105	1461.7766	11344	10411
887.1539	1463.5987	10976.8	10041.3
887.2972	1465.4202	10646.45	9713.55
887.4406	1467.2409	10282.65	9351
887.584	1469.0608	10003.75	9071.7
887.7273	1470.88	9713.95	8778.05
887.8706	1472.6984	9484.05	8549.3
888.0139	1474.5161	9302.4	8366.7
888.1572	1476.3331	9112.95	8182.85
888.3005	1478.1493	9015.2	8085.05
888.4438	1479.9648	8919.2	7985.55
888.5871	1481.7795	8826.05	7890.7
888.7303	1483.5935	8737.8	7804.3
888.8736	1485.4067	8669.05	7737
889.0168	1487.2192	8630.85	7697.5
889.16	1489.031	8583.4	7647.3
889.3032	1490.842	8533.85	7599.25
889.4464	1492.6522	8510.6	7575.8
889.5896	1494.4618	8466.95	7533.65
889.7327	1496.2705	8423.55	7493.75
889.8759	1498.0785	8403.65	7473.15
890.019	1499.8858	8362.05	7428
890.1622	1501.6924	8311.3	7384.2
890.3053	1503.4981	8279.35	7349.3
890.4484	1505.3032	8258.1	7326.9
890.5914	1507.1075	8207.6	7274.8
890.7345	1508.911	8189.1	7259.8
890.8776	1510.7138	8131.75	7200.55
891.0206	1512.5159	8078.65	7145.25
891.1637	1514.3172	8019.45	7092.25
891.3067	1516.1178	7982.9	7054.9
891.4497	1517.9176	7976.65	7041
891.5927	1519.7166	7925.9	6997.35
891.7357	1521.515	7899.2	6967.7
891.8786	1523.3126	7862.05	6932
892.0216	1525.1094	7851.2	6917.85
892.1645	1526.9055	7812.05	6882.95
892.3074	1528.7008	7782.5	6854.95
892.4503	1530.4954	7736.4	6808.6
892.5932	1532.2893	7739.2	6812.7
892.7361	1534.0824	7679.55	6749.7
892.879	1535.8747	7693.8	6773.5
893.0218	1537.6663	7668.6	6742.85
893.1647	1539.4572	7655.15	6729.25
893.3075	1541.2473	7666.4	6740.25
893.4503	1543.0367	7647.55	6721.05
893.5931	1544.8253	7646.9	6716.35
893.7359	1546.6132	7676.5	6746.85
893.8787	1548.4003	7653.75	6720.9
894.0214	1550.1867	7725.35	6793.15
894.1642	1551.9723	7765.85	6837.7
894.3069	1553.7572	7833.35	6907.95
894.4496	1555.5414	7894.05	6973.6
894.5923	1557.3247	7968.3	7046
894.735	1559.1074	8089.05	7171
894.8777	1560.8893	8217.2	7297.45
895.0204	1562.6705	8324.7	7406.6
895.163	1564.4509	8402.05	7486.45
895.3056	1566.2305	8459.95	7544.25
895.4482	1568.0094	8530.2	7615.55
895.5908	1569.7876	8539.95	7623.95
895.7334	1571.565	8507.8	7588.2
895.876	1573.3417	8489.85	7569.65
896.0186	1575.1176	8465.9	7549.55
896.1611	1576.8928	8452	7536.7
896.3036	1578.6672	8398	7488.95
896.4461	1580.4409	8353.5	7444.35
896.5886	1582.2138	8293.4	7381.95
896.7311	1583.986	8275.6	7360.45
896.8736	1585.7575	8278.2	7365.4
897.0161	1587.5282	8270.2	7361.4
897.1585	1589.2981	8298.3	7389.55
897.3009	1591.0673	8297.55	7388.65
897.4433	1592.8358	8382.1	7473.4
897.5857	1594.6035	8444.6	7532.65
897.7281	1596.3704	8489.15	7572.1
897.8705	1598.1366	8563.05	7651.95
898.0128	1599.9021	8628	7717.15
898.1551	1601.6668	8679.25	7761.35
898.2975	1603.4308	8790	7875.1
898.4398	1605.194	8928.35	8012.15
898.5821	1606.9564	9105.2	8201.25
898.7243	1608.7182	9297.5	8397.2
898.8666	1610.4791	9514.9	8620.2
899.0088	1612.2394	9757.65	8859.95
899.1511	1613.9988	9993.7	9093.7
899.2933	1615.7576	10229.8	9325.6
899.4355	1617.5156	10428.45	9515.85
899.5776	1619.2728	10562.75	9647.55
899.7198	1621.0293	10606	9696.25
899.862	1622.785	10512.25	9600.75
900.0041	1624.54	10319.75	9414.55
900.1462	1626.2942	10085.1	9181.95
900.2883	1628.0477	9761.7	8854.85
900.4304	1629.8005	9505.8	8597.75
900.5725	1631.5525	9244.95	8339.5
900.7145	1633.3037	8983.2	8077.65
900.8566	1635.0542	8854.85	7954.55
900.9986	1636.804	8731.5	7826.55
901.1406	1638.553	8728	7726.55
901.2826	1640.3013	8601.1	7697.9
901.4245	1642.0488	8560.65	7655.05
901.5665	1643.7955	8624.5	7722.65
901.7085	1645.5416	8682.7	7781.5
901.8504	1647.2868	8773.05	7869.15
901.9923	1649.0313	8874.4	7967.35
902.1342	1650.7751	9028.3	8120.05
902.2761	1652.5181	9177.4	8274.5
902.4179	1654.2604	9344.85	8444.95
902.5598	1656.0019	9587.2	8684.8
902.7016	1657.7427	9850.95	8945.45
902.8434	1659.4828	10124.9	9219.7
902.9852	1661.222	10303.7	9397.1
903.127	1662.9606	10276.95	9372.4
903.2687	1664.6984	10054.85	9146.75
903.4105	1666.4354	9637.6	8727.35
903.5522	1668.1717	9115.6	8208.2
903.6939	1669.9072	8546.15	7636.25
903.8356	1671.642	8078.4	7165.35
903.9773	1673.3761	7683.7	6776.95
904.119	1675.1094	7389.4	6484.15
904.2606	1676.8419	7162	6255.7
904.4022	1678.5737	6955.7	6051.7
904.5439	1680.3048	6815.25	5911.15
904.6855	1682.0351	6698.6	5790.95
904.827	1683.7646	6573.45	5664.55
904.9686	1685.4934	6510.55	5604.6
905.1101	1687.2215	6424	5516.95
905.2517	1688.9488	6350.5	5449.1
905.3932	1690.6754	6275.25	5372.15
905.5347	1692.4012	6240.35	5336.7
905.6761	1694.1263	6190.5	5286.1
905.8176	1695.8506	6153.15	5248
905.9591	1697.5742	6127.8	5227.05
906.1005	1699.297	6096.35	5198
906.2419	1701.0191	6034.65	5137
906.3833	1702.7404	6010.75	5111.5
906.5246	1704.461	5957	5055.05
906.666	1706.1808	5933.9	5031.5
906.8073	1707.8999	5915.8	5017.3
906.9487	1709.6182	5849.25	4952.95
907.09	1711.3358	5846.8	4952.7
907.2313	1713.0527	5808.05	4912.55
907.3725	1714.7688	5783.15	4882.5
907.5138	1716.4841	5760.25	4858.95
907.655	1718.1987	5753.3	4845.95
907.7962	1719.9126	5724.85	4827.1
907.9374	1721.6257	5688.5	4794.15
908.0786	1723.338	5694.3	4798.65
908.2198	1725.0496	5644.3	4745.65
908.3609	1726.7605	5638.85	4736.15
908.502	1728.4706	5629.4	4733.05
908.6431	1730.18	5595.65	4698.15
908.7842	1731.8886	5577.65	4684.95
908.9253	1733.5964	5578.45	4662.3
909.0664	1735.3036	5548.7	4648.7
909.2074	1737.0099	5528.7	4633.55
909.3484	1738.7156	5499.45	4606.1
909.4894	1740.4204	5471.5	4572.5
909.6304	1742.1246	5476.45	4579.05
909.7714	1743.8279	5441.8	4545.4
909.9123	1745.5306	5414.9	4523.05
910.0532	1747.2325	5402.7	4507.25
910.1941	1748.9336	5387	4492.55
910.335	1750.634	5345.9	4449.15
910.4759	1752.3336	5347.85	4453
910.6168	1754.0325	5326.05	4434.75
910.7576	1755.7307	5300.6	4407.25
910.8984	1757.4281	5316.75	4418.75
911.0392	1759.1247	5313.15	4405.2
911.18	1760.8206	5292.5	4387.15
911.3208	1762.5158	5264.9	4362.3
911.4615	1764.2102	5246.6	4349.2
911.6022	1765.9039	5227.85	4333.7
911.7429	1767.5968	5207.8	4314.55
911.8836	1769.289	5204.15	4309.05
912.0243	1770.9804	5185.65	4289.25
912.1649	1772.6711	5186.1	4288.55
912.3056	1774.361	5178.8	4279.85
912.4462	1776.0502	5163.95	4267.45
912.5868	1777.7386	5177.55	4275.85
912.7274	1779.4263	5141.6	4245.7
912.8679	1781.1132	5120.2	4224.2
913.0084	1782.7994	5109.35	4216.25
913.149	1784.4849	5086.8	4194.3
913.2895	1786.1696	5074.35	4175.2
913.4299	1787.8535	5067.55	4178.3
913.5704	1789.5367	5036.05	4145
913.7108	1791.2192	5059.4	4167.8
913.8513	1792.9009	5039.95	4120.45
913.9917	1794.5818	5040.05	4140
914.132	1796.2621	5001.15	4104.2
914.2724	1797.9415	5002.7	4108.55
914.4128	1799.6202	4993.9	4098.05
914.5531	1801.2982	4975.2	4080.4
914.6934	1802.9755	4967.6	4067.5
914.8337	1804.6519	4964.9	4069.15
914.9739	1806.3277	4952.15	4057.75
915.1142	1808.0027	4908.95	4018.1
915.2544	1809.6769	4914.8	4024.75
915.3946	1811.3504	4912.35	4022.2
915.5348	1813.0231	4896.3	4006.2
915.675	1814.6951	4886.7	3996.6
915.8151	1816.3664	4889.75	3993.8
915.9553	1818.0369	4867.75	3973.7
916.0954	1819.7067	4864.7	3970.55
916.2355	1821.3757	4851.2	3954.6
916.3755	1823.044	4855.8	3960.5
916.5156	1824.7115	4834.2	3939.35
916.6556	1826.3783	4824.2	3930.2
916.7956	1828.0443	4796.15	3902.75
916.9356	1829.7096	4810.8	3915.3
917.0756	1831.3741	4797.35	3902.8
917.2155	1833.0379	4786.5	3896.65
917.3555	1834.701	4749.25	3859
917.4954	1836.3633	4760.4	3869.8
917.6353	1838.0248	4739.5	3846.4
917.7751	1839.6856	4740.25	3845.55
917.915	1841.3457	4727.1	3831.5
918.0548	1843.005	4743.8	3849.75
918.1946	1844.6636	4731.2	3835.75
918.3344	1846.3214	4729.45	3837.55
918.4742	1847.9785	4713.95	3821.55
918.6139	1849.6349	4705.5	3809
918.7537	1851.2904	4698.3	3792.1
918.8934	1852.9453	4665.85	3768.3
919.0331	1854.5994	4676.2	3776.45
919.1727	1856.2528	4664.7	3766.35
919.3124	1857.9054	4648.55	3754.2
919.452	1859.5572	4656.25	3762
919.5916	1861.2083	4633.2	3738.65
919.7312	1862.8587	4634.75	3740.65
919.8708	1864.5084	4635.5	3738.8
920.0103	1866.1572	4604.05	3706.1
920.1498	1867.8054	4598.65	3701.3
920.2893	1869.4528	4597.1	3699.3
920.4288	1871.0994	4582.85	3688.05
920.5683	1872.7453	4557.9	3660.7
920.7077	1874.3905	4564.5	3654.15
920.8471	1876.0349	4547.85	3654
920.9865	1877.6786	4556.2	3660.95
921.1259	1879.3215	4549.4	3655.7
921.2653	1880.9637	4537.35	3642.9
921.4046	1882.6051	4530.6	3639.35
921.5439	1884.2458	4495.15	3600.9
921.6832	1885.8858	4502.4	3609.2
921.8225	1887.525	4488.3	3594.5
921.9617	1889.1634	4466.1	3572.1
922.101	1890.8011	4459.7	3565.35
922.2402	1892.4381	4444.15	3550.3
922.3794	1894.0743	4448	3552.5
922.5185	1895.7098	4442.8	3549.6
922.6577	1897.3446	4437.95	3541.85
922.7968	1898.9786	4436.25	3537.75
922.9359	1900.6118	4406.35	3513.1
923.075	1902.2443	4384.9	3494.3
923.214	1903.8761	4365.6	3471.75
923.3531	1905.5071	4358.85	3464.9
923.4921	1907.1374	4341.95	3449.2
923.6311	1908.7669	4337.75	3445.95
923.77	1910.3957	4335.35	3440.6
923.909	1912.0237	4322.35	3428.7
924.0479	1913.651	4315.55	3421.85
924.1868	1915.2776	4313.9	3420.45
924.3257	1916.9034	4274.05	3384.4
924.4646	1918.5285	4274.55	3383.65
924.6034	1920.1528	4262.5	3369.15
924.7422	1921.7764	4253.55	3359.3
924.881	1923.3992	4240.4	3345.8
925.0198	1925.0213	4209.4	3316.1
925.1586	1926.6427	4192.8	3302.3
925.2973	1928.2633	4369.05	3274.15
925.436	1929.8832	4219.35	3321.1
925.5747	1931.5023	4180.05	3284.2
925.7134	1933.1207	4146.65	3253.3
925.852	1934.7383	4161.55	3268.25
925.9906	1936.3552	4142.15	3249.85
926.1292	1937.9714	4116.95	3226.5
926.2678	1939.5868	4111.75	3218.6
926.4064	1941.2015	4095.35	3200.15
926.5449	1942.8154	4089.45	3193.5
926.6834	1944.4286	4088.55	3193.6
926.8219	1946.041	4081	3164.35
926.9604	1947.6528	4055.2	3157.45
927.0988	1949.2637	4048.5	3156.5
927.2372	1950.8739	4027.55	3137.9
927.3756	1952.4834	4034	3142.55
927.514	1954.0921	4030.15	3139.6
927.6523	1955.7001	4011.9	3116.95
927.7907	1957.3074	3996.6	3108.85
927.929	1958.9139	3986	3099.7
928.0673	1960.5197	3965	3073.25
928.2055	1962.1247	3971	3079.65
928.3438	1963.729	3944.2	3056.15
928.482	1965.3325	3928.2	3032.65
928.6202	1966.9353	3934.85	3048.85
928.7584	1968.5374	3917.55	3030.25
928.8965	1970.1387	3899.45	3012.7
929.0346	1971.7393	3888	2998.45
929.1727	1973.3392	3885.2	2998
929.3108	1974.9383	3843.8	2956.75
929.4489	1976.5366	3840.75	2951.35
929.5869	1978.1342	3834.65	2946.95
929.7249	1979.7311	3840.85	2955.4
929.8629	1981.3273	3831.2	2943.75
930.0009	1982.9227	3812.85	2929.65
930.1388	1984.5173	3811.75	2926.1
930.2767	1986.1112	3804.15	2918.8
930.4146	1987.7044	3780.85	2895.4
930.5525	1989.2968	3771.45	2883.8
930.6904	1990.8885	3766.1	2879.8
930.8282	1992.4795	3772.45	2883.75
930.966	1994.0697	3761.35	2877.75
931.1038	1995.6592	3749.2	2865.9
931.2415	1997.2479	3728.45	2841.75
931.3793	1998.8359	3718.6	2836
931.517	2000.4232	3690.25	2809.75
931.6547	2002.0097	3688.85	2811.5
931.7923	2003.5955	3682.15	2800.3
931.93	2005.1805	3688.2	2803.65
932.0676	2006.7648	3691.45	2808.7
932.2052	2008.3484	3671.35	2787.85
932.3427	2009.9312	3666.35	2784.35
932.4803	2011.5133	3659.2	2780.9
932.6178	2013.0946	3645.1	2763
932.7553	2014.6752	3637.95	2758.5
932.8928	2016.2551	3633.05	2749.95
933.0302	2017.8342	3616.1	2737.5
933.1676	2019.4126	3611.55	2730.2
933.305	2020.9902	3575.2	2696.1
933.4424	2022.5672	3590.55	2710.5
933.5798	2024.1433	3584.15	2698.9
933.7171	2025.7188	3570.15	2694.05
933.8544	2027.2935	3574.15	2695.05
933.9917	2028.8674	3557.65	2679.6
934.129	2030.4406	3546.05	2667.2
934.2662	2032.0131	3530.95	2656.85
934.4034	2033.5849	3529.2	2648.15
934.5406	2035.1559	3535.5	2657.35
934.6778	2036.7261	3533.35	2649.4
934.8149	2038.2957	3522.55	2638.05
934.952	2039.8645	3506.5	2622.2
935.0891	2041.4325	3527.35	2642.15
935.2262	2042.9998	3490.05	2608.7
935.3632	2044.5664	3475.85	2595.05
935.5002	2046.1323	3468.55	2590.85
935.6372	2047.6974	3467.25	2588
935.7742	2049.2617	3454.25	2575.2
935.9111	2050.8254	3480.85	2576.65
936.048	2052.3883	3459.4	2575.9
936.1849	2053.9504	3447.8	2564.2
936.3218	2055.5118	3434.8	2550.3
936.4586	2057.0725	3429.5	2543.4
936.5955	2058.6325	3409.4	2530.85
936.7323	2060.1917	3409.95	2530.75
936.869	2061.7502	3399.2	2515.9
937.0058	2063.3079	3388	2509.05
937.1425	2064.8649	3379.75	2497.6
937.2792	2066.4212	3374	2493.4
937.4159	2067.9767	3376.8	2494.4
937.5525	2069.5315	3365.6	2484.3
937.6891	2071.0856	3343.5	2466.05
937.8257	2072.6389	3335.75	2455
937.9623	2074.1915	3333.9	2456.3
938.0989	2075.7433	3314.35	2432.7
938.2354	2077.2945	3328.7	2448.85
938.3719	2078.8448	3312.2	2428.2
938.5084	2080.3945	3306.55	2422.3
938.6448	2081.9434	3301.9	2418.95
938.7812	2083.4916	3290.25	2404.15
938.9176	2085.039	3279.9	2390.8
939.054	2086.5857	3288.5	2397.8
939.1903	2088.1317	3272.85	2383.8
939.3267	2089.677	3264.25	2372.95
939.463	2091.2215	3270.4	2380.1
939.5992	2092.7652	3256	2362.95
939.7355	2094.3083	3250.95	2359.25
939.8717	2095.8506	3248.9	2361.8
940.0079	2097.3921	3227.4	2342.95
940.1441	2098.933	3226.55	2341.7
940.2802	2100.4731	3227.15	2340.3
940.4163	2102.0124	3219.35	2324.65
940.5524	2103.5511	3221.8	2334.75
940.6885	2105.089	3203.5	2317.05
940.8245	2106.6261	3204.7	2319.25
940.9606	2108.1626	3195.25	2307.05
941.0965	2109.6983	3211.3	2297.85
941.2325	2111.2332	3200.05	2311.45
941.3684	2112.7675	3180.8	2292.05
941.5044	2114.301	3169.1	2281.15
941.6403	2115.8337	3174.6	2288.6
941.7761	2117.3657	3158.6	2272.7
941.912	2118.897	3168.8	2282.5
942.0478	2120.4276	3148.35	2256.65
942.1835	2121.9575	3138.8	2252.15
942.3193	2123.4866	3143.6	2254.65
942.455	2125.0149	3135.9	2246.9
942.5907	2126.5426	3121.95	2239.5
942.7264	2128.0695	3114.9	2231
942.8621	2129.5956	3096.8	2218.6
942.9977	2131.1211	3107.3	2222.25
943.1333	2132.6458	3090.5	2206.05
943.2689	2134.1698	3096.05	2209.65
943.4044	2135.693	3083.6	2192.85
943.54	2137.2155	3080.4	2188.95
943.6755	2138.7373	3080.85	2194.5
943.8109	2140.2584	3062.1	2180.55
943.9464	2141.7787	3067.65	2180.35
944.0818	2143.2983	3040.1	2163.05
944.2172	2144.8171	3029.1	2151.65
944.3526	2146.3353	3030.6	2145.4
944.4879	2147.8527	3025.3	2141.85
944.6232	2149.3693	3024.9	2138.25
944.7585	2150.8853	3018.45	2132.25
944.8938	2152.4005	3014.2	2126.25
945.029	2153.9149	3012.75	2122.75
945.1642	2155.4287	2995.3	2107.25
945.2994	2156.9417	2999.9	2111.55
945.4346	2158.454	2987.6	2101.95
945.5697	2159.9655	2973.75	2091.9
945.7048	2161.4764	2973.95	2091.25
945.8399	2162.9865	2956.5	2071.65
945.9749	2164.4958	2952.5	2070.45
946.1099	2166.0045	2955.15	2069.4
946.2449	2167.5124	2949.95	2064.7
946.3799	2169.0195	2942.75	2057.8
946.5148	2170.526	2951.1	2062.3
946.6498	2172.0317	2943.9	2058.3
946.7846	2173.5367	2920.8	2034.15
946.9195	2175.0409	2924.1	2040.55
947.0543	2176.5445	2936.3	2049.75
947.1891	2178.0473	2906.35	2015.65
947.3239	2179.5494	2910.1	2018.95
947.4587	2181.0507	2899.9	2015.2
947.5934	2182.5513	2896.35	2011.25
947.7281	2184.0512	2890.55	2003.25
947.8628	2185.5504	2871.65	1986.45
947.9974	2187.0488	2876.05	1993.35
948.132	2188.5465	2862.55	1979.95
948.2666	2190.0435	2867.1	1981.7
948.4012	2191.5397	2848.55	1961.8
948.5357	2193.0353	2850.4	1962.95
948.6702	2194.5301	2838.95	1950
948.8047	2196.0241	2842.75	1949.55
948.9392	2197.5175	2837.8	1946.05
949.0736	2199.0101	2831.95	1936.45
949.208	2200.502	2822.35	1936.45
949.3424	2201.9931	2798.1	1914.05
949.4767	2203.4835	2795.85	1912.9
949.611	2204.9733	2807.3	1919.8
949.7453	2206.4622	2792.3	1911.95
949.8796	2207.9505	2779	1895.05
950.0138	2209.438	2775.95	1897.9
950.148	2210.9248	2762.35	1877.6
950.2822	2212.4109	2754.9	1868.25
950.4164	2213.8962	2751.55	1859.85
950.5505	2215.3809	2762.7	1870.7
950.6846	2216.8648	2751.5	1859.95
950.8186	2218.3479	2760.95	1864.3
950.9527	2219.8304	2749.75	1854.25
951.0867	2221.3121	2724.1	1829.2
951.2207	2222.7931	2732.45	1842.65
951.3546	2224.2733	2721.25	1832.25
951.4886	2225.7529	2704.8	1816.8
951.6225	2227.2317	2702.95	1812.4
951.7563	2228.7098	2712.85	1830
951.8902	2230.1872	2693.05	1809.85
952.024	2231.6638	2686	1805.35
952.1578	2233.1397	2677.5	1790.5
952.2916	2234.6149	2679.6	1795.7
952.4253	2236.0894	2668.8	1783.5
952.559	2237.5632	2668.15	1772.35
952.6927	2239.0362	2660.35	1775.3
952.8263	2240.5085	2645.5	1759.1
952.9599	2241.9801	2646.9	1760.15
953.0935	2243.4509	2643.65	1754.85
953.2271	2244.921	2618.85	1727.7
953.3606	2246.3904	2634.95	1743.9
953.4941	2247.8591	2613.8	1725.7
953.6276	2249.3271	2612.8	1724.4
953.7611	2250.7943	2608.85	1721.55
953.8945	2252.2608	2599.6	1710.4
954.0279	2253.7266	2597.05	1708.9
954.1612	2255.1917	2583.4	1697
954.2946	2256.656	2582.8	1696.1
954.4279	2258.1197	2567.35	1684.65
954.5612	2259.5826	2561.75	1676.1
954.6944	2261.0447	2580.6	1693.75
954.8276	2262.5062	2571.35	1681.1
954.9608	2263.9669	2565.75	1675.15
955.094	2265.4269	2555.85	1670.5
955.2271	2266.8862	2544.8	1656.8
955.3602	2268.3448	2549.35	1663.85
955.4933	2269.8026	2547.55	1661.75
955.6264	2271.2598	2538.35	1653.45
955.7594	2272.7162	2525.45	1638.9
955.8924	2274.1719	2529.3	1643.65
956.0253	2275.6268	2526.45	1636.7
956.1583	2277.0811	2535.3	1648.3
956.2912	2278.5346	2520.15	1634.4
956.4241	2279.9874	2514.4	1630.15
956.5569	2281.4395	2511.1	1628.45
956.6897	2282.8908	2509.6	1619.25
956.8225	2284.3414	2502.65	1614.55
956.9553	2285.7914	2504.85	1620.1
957.088	2287.2406	2490	1598.7
957.2207	2288.689	2489.5	1598
957.3534	2290.1368	2478.75	1585.5
957.486	2291.5838	2486.05	1591.65
957.6186	2293.0302	2480.45	1586.35
957.7512	2294.4758	2471.95	1580.95
957.8838	2295.9206	2465.7	1573.15
958.0163	2297.3648	2462.1	1577.35
958.1488	2298.8082	2459.75	1571.2
958.2813	2300.251	2453.2	1564.15
958.4137	2301.693	2451.55	1559
958.5461	2303.1343	2449.8	1559.95
958.6785	2304.5748	2445.6	1559.45
958.8108	2306.0147	2424.2	1540.35
958.9432	2307.4538	2430.4	1542.2
959.0754	2308.8922	2421.95	1540.55
959.2077	2310.3299	2428.15	1544.15
959.3399	2311.7669	2404.75	1520.75
959.4721	2313.2031	2406.5	1519.65
959.6043	2314.6387	2406.35	1518.75
959.7365	2316.0735	2387.55	1500.5
959.8686	2317.5076	2404.15	1515.15
960.0006	2318.941	2393.85	1504
960.1327	2320.3737	2390.6	1499.65
960.2647	2321.8056	2394.85	1503.55
960.3967	2323.2369	2379.4	1491.35
960.5287	2324.6674	2381.6	1490.1
960.6606	2326.0972	2362.55	1474.35
960.7925	2327.5263	2360.8	1472.8
960.9244	2328.9547	2356.6	1467.85
961.0562	2330.3823	2353.2	1462.6
961.1881	2331.8092	2353.9	1460.75
961.3198	2333.2355	2338.85	1449.3
961.4516	2334.661	2340.75	1448.85
961.5833	2336.0858	2335	1441.3
961.715	2337.5098	2334.85	1444.4
961.8467	2338.9332	2342.85	1455.25
961.9783	2340.3558	2336.7	1446.75
962.1099	2341.7778	2325.75	1441.45
962.2415	2343.199	2315.6	1429.25
962.373	2344.6195	2320.1	1433.95
962.5045	2346.0393	2318.7	1432.25
962.636	2347.4583	2323.95	1437.1
962.7675	2348.8767	2320.2	1431.6
962.8989	2350.2943	2310.65	1420.65
963.0303	2351.7113	2318.5	1425.2
963.1617	2353.1275	2298.45	1408.2
963.293	2354.543	2294.5	1393.65
963.4243	2355.9578	2295.1	1405.2
963.5556	2357.3718	2274.6	1387.2
963.6868	2358.7852	2276.75	1389.6
963.818	2360.1978	2275.55	1392.25
963.9492	2361.6098	2267.15	1380.2
964.0803	2363.021	2270.5	1380.5
964.2114	2364.4315	2269.5	1380.55
964.3425	2365.8413	2257.8	1368.45
964.4736	2367.2504	2252.65	1367.9
964.6046	2368.6587	2239.9	1354.2
964.7356	2370.0664	2242.75	1357.7
964.8666	2371.4733	2239.3	1352.55
964.9975	2372.8795	2234.6	1346.95
965.1284	2374.285	2229.3	1342.75
965.2593	2375.6899	2225.45	1341.85
965.3901	2377.0939	2203	1317.45
965.5209	2378.4973	2202.95	1318.2
965.6517	2379.9	2213.35	1323.95
965.7825	2381.3019	2209.8	1324.7
965.9132	2382.7032	2197.75	1314.3
966.0439	2384.1037	2186.05	1303.45
966.1745	2385.5035	2189.9	1309.15
966.3051	2386.9027	2182.25	1300.9
966.4357	2388.3011	2184.45	1298.85
966.5663	2389.6987	2177.8	1295.5
966.6968	2391.0957	2174.7	1290.35
966.8273	2392.492	2174.25	1291.65
966.9578	2393.8876	2158.85	1273.7
967.0882	2395.2824	2147.25	1262.6
967.2186	2396.6765	2161.1	1276.9
967.349	2398.07	2146.05	1260.9
967.4793	2399.4627	2146.85	1260.75
967.6097	2400.8547	2143.05	1256.55
967.7399	2402.246	2134.75	1244.9
967.8702	2403.6366	2137	1252.15
968.0004	2405.0265	2126.7	1243
968.1306	2406.4156	2124.3	1235.4
968.2607	2407.8041	2126.8	1238.25
968.3909	2409.1918	2114.75	1226.95
968.521	2410.5789	2116.35	1231.8
968.651	2411.9652	2117	1228.3
968.781	2413.3508	2098.6	1210.9
968.911	2414.7358	2095.8	1208.95
969.041	2416.12	2091.25	1206.7
969.1709	2417.5035	2092.5	1207.4
969.3008	2418.8863	2092.55	1208.5
969.4307	2420.2684	2078.65	1195.95
969.5606	2421.6497	2086.35	1199.9
969.6904	2423.0304	2070.9	1187.65
969.8201	2424.4104	2079.1	1191.9
969.9499	2425.7896	2075.5	1188.75
970.0796	2427.1682	2066.85	1182.2
970.2093	2428.546	2057.55	1172.25
970.3389	2429.9232	2054.65	1168.7
970.4685	2431.2996	2061.1	1175.9
970.5981	2432.6753	2051.95	1166.25
970.7277	2434.0503	2049.65	1165.25
970.8572	2435.4246	2043.55	1157.45
970.9867	2436.7982	2039.9	1152.35
971.1161	2438.1711	2041.15	1157.7
971.2456	2439.5433	2033.4	1148.55
971.375	2440.9148	2030.65	1138.35
971.5043	2442.2856	2027.25	1142.5
971.6336	2443.6557	2021	1135.45
971.7629	2445.025	2018.45	1132.45
971.8922	2446.3937	2016.85	1129.55
972.0214	2447.7617	2005.7	1117.6
972.1506	2449.1289	2019.35	1131.15
972.2798	2450.4955	2011	1122.35
972.4089	2451.8613	1995.9	1111.8
972.538	2453.2265	1997.1	1113.65
972.6671	2454.5909	1999.35	1114.1
972.7961	2455.9546	1993.85	1109.4
972.9251	2457.3177	1988	1103.6
973.0541	2458.68	1983.25	1095.8
973.1831	2460.0416	1982.05	1095.5
973.312	2461.4025	1984.55	1095.8
973.4408	2462.7627	1992.8	1097.45
973.5697	2464.1222	1972.4	1089.9
973.6985	2465.4811	1968.3	1085.3
973.8273	2466.8392	1970.55	1086.25
973.956	2468.1966	1966.95	1079.3
974.0847	2469.5533	1974.45	1087.15
974.2134	2470.9093	1955.45	1070.7
974.3421	2472.2645	1964.9	1078.5
974.4707	2473.6191	1958.3	1074
974.5993	2474.973	1962.2	1075.2
974.7278	2476.3262	1962.65	1076.75
974.8563	2477.6787	1948.65	1065.15
974.9848	2479.0305	1940.8	1056.8
975.1132	2480.3816	1944.7	1057.65
975.2417	2481.7319	1943.1	1060
975.37	2483.0816	1935.85	1049.9
975.4984	2484.4306	1934.75	1048.05
975.6267	2485.7789	1922.05	1037.1
975.755	2487.1264	1917.35	1032.45
975.8833	2488.4733	1923.4	1040.35
976.0115	2489.8195	1927.2	1034.8
976.1397	2491.165	1912	1024.15
976.2678	2492.5097	1911.1	1024.6
976.3959	2493.8538	1908.25	1025.7
976.524	2495.1972	1904.7	1017.65
976.6521	2496.5398	1902.35	1015.05
976.7801	2497.8818	1891.4	1003.6
976.9081	2499.2231	1896	1010
977.036	2500.5637	1886.15	996.5
977.164	2501.9035	1885.9	995.75
977.2918	2503.2427	1884.9	992.3
977.4197	2504.5812	1876.9	992
977.5475	2505.919	1873.25	986.35
977.6753	2507.256	1882.15	996
977.8031	2508.5924	1878.55	991.8
977.9308	2509.9281	1867.15	975.35
978.0585	2511.2631	1875.6	990.15
978.1861	2512.5974	1869.8	987.1
978.3137	2513.9309	1866.75	979.55
978.4413	2515.2638	1879.35	964.9
978.5689	2516.596	1866.75	981.9
978.6964	2517.9275	1848.3	962.65
978.8239	2519.2583	1844.4	956.15
978.9513	2520.5884	1840.35	952.4
979.0788	2521.9178	1842.1	957.75
979.2062	2523.2465	1835.8	951.1
979.3335	2524.5745	1825.15	939.4
979.4608	2525.9018	1822.5	936.1
979.5881	2527.2284	1830.25	945.8
979.7154	2528.5543	1828.25	943.55
979.8426	2529.8796	1816	929.55
979.9698	2531.2041	1818.05	934.45
980.0969	2532.5279	1819.4	936.3
980.224	2533.851	1822.2	936.55
980.3511	2535.1735	1813	929.45
980.4781	2536.4952	1817.5	932
980.6052	2537.8163	1821.75	932.35
980.7321	2539.1366	1809.15	921.45
980.8591	2540.4562	1799.95	911
980.986	2541.7752	1814.1	929.15
981.1129	2543.0935	1798.25	912
981.2397	2544.411	1807.85	919.4
981.3665	2545.7279	1795.15	906.7
981.4933	2547.0441	1797.75	911.15
981.62	2548.3596	1812.5	924.15
981.7467	2549.6744	1794.45	907.55
981.8734	2550.9885	1794.35	906.1
982.0001	2552.3019	1788.65	901.4
982.1267	2553.6146	1786.25	896.7
982.2532	2554.9266	1782.25	895.95
982.3798	2556.2379	1786.4	899.1
982.5063	2557.5485	1779.95	894.7
982.6327	2558.8585	1779.85	886.7
982.7592	2560.1677	1782.35	892.15
982.8856	2561.4762	1775.85	889.1
983.0119	2562.7841	1778.45	888.8
983.1383	2564.0913	1770.65	884.5
983.2646	2565.3977	1765.85	882
983.3908	2566.7035	1765.95	878.35
983.517	2568.0086	1772.65	884.7
983.6432	2569.313	1767.5	879.3
983.7694	2570.6167	1771.75	880.2
983.8955	2571.9197	1763.1	879.1
984.0216	2573.222	1765.95	875.4
984.1476	2574.5236	1756.9	870.8
984.2737	2575.8246	1762.3	872.1
984.3996	2577.1248	1762.45	872.6
984.5256	2578.4244	1753.95	869.05
984.6515	2579.7232	1755.15	870.95
984.7774	2581.0214	1773.95	859.85
984.9032	2582.3189	1758.05	873.4
985.029	2583.6157	1757.9	868.05
985.1548	2584.9118	1747.4	861
985.2806	2586.2072	1748.95	863.25
985.4063	2587.5019	1751.5	866.7
985.5319	2588.7959	1743.4	858.05
985.6576	2590.0893	1757.7	869.75
985.7832	2591.3819	1747.85	861.5
985.9087	2592.6739	1745.6	857.8
986.0343	2593.9652	1747.5	860.8
986.1597	2595.2557	1752.95	866.5
986.2852	2596.5456	1746.8	857.15
986.4106	2597.8348	1741.55	857.6
986.536	2599.1234	1743.15	856.65
986.6614	2600.4112	1738.9	852.55
986.7867	2601.6983	1753.1	864.6
986.912	2602.9848	1736.85	850.2
987.0372	2604.2705	1735	841.75
987.1624	2605.5556	1741.55	857.65
987.2876	2606.84	1733	848.15
987.4128	2608.1237	1730.25	846.25
987.5379	2609.4067	1727.85	839.5
987.6629	2610.689	1730.65	836.6
987.788	2611.9707	1717.1	827.8
987.913	2613.2516	1715.3	825.65
988.0379	2614.5319	1705.15	819
988.1629	2615.8115	1703.6	820.5
988.2878	2617.0903	1712.7	826.9
988.4126	2618.3685	1699.9	812.85
988.5375	2619.6461	1701.85	815.65
988.6622	2620.9229	1694.3	807.9
988.787	2622.199	1701.9	814.85
988.9117	2623.4745	1699.35	813.85
989.0364	2624.7493	1694.15	809.15
989.161	2626.0234	1694.55	808.65
989.2857	2627.2968	1684.85	801.35
989.4102	2628.5695	1686.55	802.45
989.5348	2629.8415	1685.4	801.05
989.6593	2631.1128	1684.25	797.75
989.7837	2632.3835	1674.15	787.9
989.9082	2633.6535	1681.7	797.85
990.0326	2634.9228	1680.85	797.45
990.1569	2636.1914	1677.4	791.3
990.2812	2637.4593	1670.35	785.35
990.4055	2638.7265	1672.8	784.85
990.5298	2639.9931	1667.95	782.55
990.654	2641.259	1668.9	784.05
990.7782	2642.5242	1670.05	784.3
990.9023	2643.7887	1659.1	773.45
991.0264	2645.0525	1655.55	772.6
991.1505	2646.3156	1660.95	774.55
991.2745	2647.5781	1656.05	771.8
991.3985	2648.8398	1648.95	765.05
991.5225	2650.1009	1681.35	761.1
991.6464	2651.3613	1651.8	765.25
991.7703	2652.6211	1652.6	767.95
991.8942	2653.8801	1647.9	767.45
992.018	2655.1385	1649.85	762.7
992.1418	2656.3961	1640	754.8
992.2655	2657.6531	1645.5	759.6
992.3892	2658.9094	1646.75	763.05
992.5129	2660.1651	1640.2	755.5
992.6366	2661.42	1637.8	753.45
992.7602	2662.6743	1645	758.5
992.8837	2663.9279	1646.7	762.5
993.0073	2665.1808	1642.35	758.7
993.1307	2666.433	1645.75	762.75
993.2542	2667.6846	1639.35	755.7
993.3776	2668.9354	1648.55	761.3
993.501	2670.1856	1647.4	760.2
993.6244	2671.4351	1644.75	759.55
993.7477	2672.6839	1642.9	756.3
993.8709	2673.9321	1649.4	766.35
993.9942	2675.1795	1652.05	769.35
994.1174	2676.4263	1647.65	763.4
994.2405	2677.6724	1658.45	774.8
994.3637	2678.9179	1643.15	759.2
994.4868	2680.1626	1656.1	772.8
994.6098	2681.4067	1654.2	769.7
994.7328	2682.6501	1648.75	765.2
994.8558	2683.8928	1645.85	760.55
994.9788	2685.1348	1644.5	761.9
995.1017	2686.3761	1631.35	746.75
995.2245	2687.6168	1634.05	749.8
995.3474	2688.8568	1629.75	746
995.4702	2690.0961	1628.35	744.25
995.5929	2691.3348	1618	735.45
995.7156	2692.5727	1615.55	730.75
995.8383	2693.81	1617.9	735.35
995.961	2695.0466	1608	725.9
996.0836	2696.2826	1612.95	726.45
996.2062	2697.5178	1631.75	726.45
996.3287	2698.7524	1615.5	731.2
996.4512	2699.9863	1612.5	726.4
996.5737	2701.2195	1615.65	733.05
996.6961	2702.452	1613.05	726.35
996.8185	2703.6839	1617.4	729.35
996.9408	2704.9151	1618.75	735.5
997.0631	2706.1456	1626.6	741.9
997.1854	2707.3755	1630.1	747.4
997.3077	2708.6046	1637.65	751.65
997.4299	2709.8331	1640.9	757.5
997.552	2711.0609	1651.9	768.9
997.6742	2712.2881	1657.75	774.3
997.7963	2713.5145	1662.2	777.65
997.9183	2714.7403	1673.25	790.95
998.0403	2715.9654	1676.25	790.25
998.1623	2717.1899	1694.5	797.45
998.2842	2718.4136	1704.55	820.9
998.4062	2719.6367	1710.3	825.3
998.528	2720.8591	1729.65	839.9
998.6498	2722.0809	1730.8	848.15
998.7716	2723.3019	1744.75	857.25
998.8934	2724.5223	1751.6	867.4
999.0151	2725.7421	1757.6	873
999.1368	2726.9611	1757.1	873.15
999.2584	2728.1795	1746.7	857.65
999.38	2729.3972	1733.95	850.1
999.5016	2730.6142	1741.8	848.35
999.6231	2731.8306	1718.55	833.05
999.7446	2733.0462	1709.5	821.9
999.8661	2734.2612	1688.75	800.65
999.9875	2735.4756	1664.05	778.5
1000.1089	2736.6892	1646.35	763.25
1000.2302	2737.9022	1631.8	749.05
1000.3515	2739.1145	1628.6	744.65
1000.4728	2740.3262	1623.2	730.5
1000.594	2741.5372	1596.05	711.85
1000.7152	2742.7475	1587.65	704.8
1000.8363	2743.9571	1580.25	696.85
1000.9575	2745.1661	1567.55	680.45
1001.0785	2746.3744	1556.3	672.15
1001.1996	2747.582	1547.85	661.3
1001.3206	2748.7889	1540.55	654.9
1001.4415	2749.9952	1539.7	656
1001.5625	2751.2008	1526.25	640.65
1001.6833	2752.4057	1524.75	638.5
1001.8042	2753.61	1526	641.95
1001.925	2754.8136	1513.25	629.85
1002.0458	2756.0165	1513.35	631.05
1002.1665	2757.2188	1506.45	626
1002.2872	2758.4204	1515.7	631.9
1002.4078	2759.6213	1500.05	615.9
1002.5285	2760.8215	1512.75	626.1
1002.649	2762.0211	1509.8	624.7
1002.7696	2763.22	1510.85	626.45
1002.8901	2764.4182	1505.25	619.5
1003.0106	2765.6158	1495.35	611.5
1003.131	2766.8127	1496.05	612.35
1003.2514	2768.009	1499.85	617
1003.3717	2769.2045	1498.75	617.2
1003.492	2770.3994	1485.3	600.8
1003.6123	2771.5936	1484.25	599.8
1003.7325	2772.7872	1479	598.95
1003.8527	2773.9801	1483.55	598.25
1003.9729	2775.1723	1490.55	594.75
1004.093	2776.3639	1476.25	595.75
1004.2131	2777.5548	1477	590.95
1004.3331	2778.745	1480.6	598.15
1004.4531	2779.9346	1473.55	590.05
1004.5731	2781.1235	1477.65	595.4
1004.693	2782.3117	1477.3	595.4
1004.8129	2783.4992	1490.3	609.55
1004.9328	2784.6861	1480.9	599.35
1005.0526	2785.8723	1491.85	610.2
1005.1723	2787.0579	1490.65	606.6
1005.2921	2788.2428	1495.55	616.8
1005.4118	2789.427	1505	623.95
1005.5314	2790.6106	1503.45	623.4
1005.651	2791.7935	1522.25	641.4
1005.7706	2792.9757	1520.3	639
1005.8902	2794.1573	1534.2	650.9
1006.0097	2795.3382	1545.85	664.25
1006.1291	2796.5184	1551.1	671
1006.2485	2797.698	1573	689.75
1006.3679	2798.8769	1586.85	705.9
1006.4873	2800.0551	1596.9	711.35
1006.6066	2801.2327	1610.55	726.05
1006.7258	2802.4096	1623.35	742.15
1006.8451	2803.5859	1638.95	756.5
1006.9642	2804.7615	1654.35	770.55
1007.0834	2805.9364	1683.3	802.15
1007.2025	2807.1106	1701.7	818.85
1007.3216	2808.2842	1724.2	842.95
1007.4406	2809.4572	1759.8	878.75
1007.5596	2810.6294	1794.9	912.4
1007.6785	2811.801	1824.5	943.25
1007.7975	2812.972	1857.55	976.1
1007.9163	2814.1423	1904.25	1022.55
1008.0352	2815.3119	1941.75	1059.65
1008.154	2816.4808	1995.6	1115.55
1008.2727	2817.6491	2037.9	1156.35
1008.3914	2818.8167	2093.8	1215.7
1008.5101	2819.9837	2145.7	1259.05
1008.6288	2821.15	2189.55	1311.45
1008.7474	2822.3157	2241.3	1360.8
1008.8659	2823.4807	2288.15	1407.65
1008.9844	2824.645	2353.7	1472
1009.1029	2825.8086	2396.25	1516.5
1009.2214	2826.9716	2456	1575.1
1009.3398	2828.134	2496.05	1614.6
1009.4581	2829.2957	2531.05	1651.9
1009.5764	2830.4567	2563.8	1683.05
1009.6947	2831.617	2601.9	1720.15
1009.813	2832.7767	2602.45	1719.95
1009.9312	2833.9358	2604.25	1723.9
1010.0493	2835.0941	2591.75	1708.55
1010.1675	2836.2519	2588.05	1710.05
1010.2855	2837.4089	2559.55	1677.55
1010.4036	2838.5653	2555.4	1674.65
1010.5216	2839.7211	2550.4	1671.5
1010.6396	2840.8761	2545.75	1662.45
1010.7575	2842.0306	2577.45	1698.5
1010.8754	2843.1843	2593.8	1714.55
1010.9932	2844.3374	2628.05	1745.8
1011.111	2845.4899	2685.2	1802.95
1011.2288	2846.6417	2744.35	1862.7
1011.3465	2847.7928	2811.25	1930.95
1011.4642	2848.9433	2878.4	1997.35
1011.5818	2850.0931	2949.55	2069.05
1011.6995	2851.2422	3013.9	2132.95
1011.817	2852.3907	3087	2206.1
1011.9345	2853.5385	3137.45	2257
1012.052	2854.6857	3196.6	2303.1
1012.1695	2855.8323	3242.95	2362.6
1012.2869	2856.9781	3294.65	2414.7
1012.4042	2858.1233	3338.65	2459.75
1012.5216	2859.2679	3387.1	2506.3
1012.6389	2860.4118	3422.95	2544.45
1012.7561	2861.555	3487.45	2603
1012.8733	2862.6976	3517.25	2633.75
1012.9905	2863.8395	3545.95	2668.3
1013.1076	2864.9808	3580.75	2699.25
1013.2247	2866.1214	3599.7	2719.8
1013.3417	2867.2614	3620.75	2739.85
1013.4587	2868.4007	3623.15	2743.05
1013.5757	2869.5393	3641	2758.1
1013.6926	2870.6773	3665.6	2782.75
1013.8095	2871.8146	3670.25	2785.2
1013.9263	2872.9513	3664.9	2781.3
1014.0431	2874.0874	3657.55	2776.95
1014.1599	2875.2227	3653.7	2772
1014.2766	2876.3574	3625.55	2746.75
1014.3933	2877.4915	3606.45	2725.05
1014.51	2878.6249	3573.95	2696.35
1014.6266	2879.7577	3555.35	2674.95
1014.7431	2880.8898	3547.3	2657.35
1014.8596	2882.0212	3516	2637.85
1014.9761	2883.152	3513.8	2633.15
1015.0925	2884.2821	3490.7	2610.4
1015.2089	2885.4116	3484.3	2604.5
1015.3253	2886.5405	3500.3	2620.9
1015.4416	2887.6686	3507.9	2624.7
1015.5579	2888.7962	3510.45	2633.1
1015.6741	2889.923	3503.55	2626.7
1015.7903	2891.0493	3527.2	2649.6
1015.9065	2892.1748	3538.25	2659.85
1016.0226	2893.2997	3546.2	2666.85
1016.1387	2894.424	3563.75	2684.7
1016.2547	2895.5476	3565.2	2684.6
1016.3707	2896.6706	3583.1	2704.35
1016.4866	2897.7929	3625.6	2745.4
1016.6025	2898.9145	3644.5	2765.1
1016.7184	2900.0355	3676.55	2796.95
1016.8342	2901.1559	3708.25	2828.85
1016.95	2902.2756	3742.35	2862.5
1017.0658	2903.3946	3764.75	2884.15
1017.1815	2904.513	3805.7	2922.55
1017.2971	2905.6308	3831.5	2953.9
1017.4127	2906.7479	3856.15	2975.5
1017.5283	2907.8643	3872.4	2992.2
1017.6439	2908.9801	3871.7	2990.9
1017.7594	2910.0953	3878.75	3001.7
1017.8748	2911.2098	3893.7	3011.2
1017.9902	2912.3236	3891.3	3006.45
1018.1056	2913.4368	3872.35	2990.65
1018.2209	2914.5494	3853.95	2975.4
1018.3362	2915.6613	3836.95	2950.8
1018.4515	2916.7725	3803.95	2921.25
1018.5667	2917.8831	3783.9	2903.05
1018.6819	2918.9931	3746.85	2866.15
1018.797	2920.1024	3715.3	2837.75
1018.9121	2921.211	3696.2	2816.65
1019.0271	2922.319	3666.8	2786.9
1019.1421	2923.4264	3659.6	2782.95
1019.2571	2924.5331	3640.45	2763.75
1019.372	2925.6391	3625.9	2746.65
1019.4869	2926.7445	3624.05	2745.45
1019.6017	2927.8493	3620.95	2741.4
1019.7165	2928.9534	3620.5	2742.35
1019.8313	2930.0569	3634.3	2752.8
1019.946	2931.1597	3616.9	2738.2
1020.0606	2932.2619	3616.95	2739.25
1020.1753	2933.3634	3610.4	2730.35
1020.2899	2934.4643	3601.8	2715.35
1020.4044	2935.5645	3604.4	2718.8
1020.5189	2936.6641	3573	2690.85
1020.6334	2937.763	3538.8	2662.7
1020.7478	2938.8613	3505.85	2626.75
1020.8622	2939.959	3453.8	2571.6
1020.9765	2941.056	3398.15	2519.3
1021.0908	2942.1523	3306.9	2426.05
1021.2051	2943.248	3222.45	2342.45
1021.3193	2944.3431	3133.8	2257.05
1021.4334	2945.4375	3043.65	2164.05
1021.5476	2946.5313	2929	2050.35
1021.6617	2947.6244	2823.15	1945.3
1021.7757	2948.7169	2720.65	1842.35
1021.8897	2949.8087	2638.1	1758
1022.0037	2950.8999	2548.55	1670.9
1022.1176	2951.9904	2474.65	1598.7
1022.2315	2953.0803	2402.1	1524.75
1022.3453	2954.1696	2326.2	1449.05
1022.4591	2955.2582	2285.6	1407.4
1022.5728	2956.3462	2226.4	1348.25
1022.6865	2957.4335	2196.25	1316.35
1022.8002	2958.5202	2161.45	1280.65
1022.9138	2959.6062	2140.9	1264.3
1023.0274	2960.6916	2110.25	1232.35
1023.141	2961.7764	2093.8	1213.75
1023.2545	2962.8605	2073.2	1195.9
1023.3679	2963.9439	2056.45	1178.8
1023.4813	2965.0267	2047.35	1169.65
1023.5947	2966.1089	2064.75	1164.85
1023.708	2967.1905	2041.75	1164.7
1023.8213	2968.2714	2031.5	1155.25
1023.9346	2969.3516	2038.15	1159.2
1024.0478	2970.4312	2042.15	1155.85
1024.1609	2971.5102	2045.85	1169.15
1024.274	2972.5885	2047.25	1170.65
1024.3871	2973.6662	2045	1163.4
1024.5002	2974.7432	2032	1154.9
1024.6132	2975.8196	2023.2	1146.6
1024.7261	2976.8954	2023.5	1146.55
1024.839	2977.9705	2013	1135.55
1024.9519	2979.045	2005.35	1128.55
1025.0647	2980.1188	1991	1112.2
1025.1775	2981.192	1964.45	1089.3
1025.2902	2982.2645	1953.15	1073.75
1025.4029	2983.3364	1919	1041.95
1025.5156	2984.4077	1897.45	1021.6
1025.6282	2985.4783	1875.25	992.15
1025.7407	2986.5483	1842.25	965.2
1025.8532	2987.6177	1806.3	928.6
1025.9657	2988.6864	1773.35	895.95
1026.0782	2989.7545	1733	853.05
1026.1906	2990.8219	1700.45	822.85
1026.3029	2991.8887	1677.15	798.65
1026.4152	2992.9548	1640.7	761.1
1026.5275	2994.0204	1603.35	727.6
1026.6397	2995.0852	1582.55	708.05
1026.7519	2996.1495	1558.85	680.6
1026.864	2997.2131	1529.5	651.5
1026.9761	2998.276	1503.1	623.45
1027.0882	2999.3383	1485.75	607.35
1027.2002	3000.4	1474.2	596.3
1027.3122	3001.4611	1447.25	569.65
1027.4241	3002.5215	1435.4	556.6
1027.536	3003.5812	1419.15	542.1
1027.6478	3004.6404	1406.05	528.85
1027.7596	3005.6989	1398.2	518.8
1027.8714	3006.7567	1385.45	508.25
1027.9831	3007.8139	1395.4	491.1
1028.0947	3008.8705	1364.75	488.7
1028.2064	3009.9264	1373.9	480.35
1028.3179	3010.9818	1348.5	470.4
1028.4295	3012.0364	1344.45	467.55
1028.541	3013.0905	1339.55	462.9
1028.6524	3014.1439	1337.85	459
1028.7638	3015.1966	1333.8	456.3
1028.8752	3016.2487	1326.45	449.5
1028.9865	3017.3002	1333.25	450
1029.0978	3018.3511	1322.2	446.9
1029.209	3019.4013	1326.65	449.85
1029.3202	3020.4509	1329.6	451.5
1029.4314	3021.4998	1321.25	443.45
1029.5425	3022.5481	1326.4	449.85
1029.6535	3023.5958	1323	444.85
1029.7645	3024.6428	1320.55	442.2
1029.8755	3025.6892	1318	440
1029.9864	3026.735	1318.95	440.95
1030.0973	3027.7802	1322.7	445.35
1030.2082	3028.8247	1316.3	440.35
1030.319	3029.8685	1316.9	440.6
1030.4297	3030.9118	1331.9	452.05
1030.5404	3031.9544	1322.45	447.25
1030.6511	3032.9963	1330.5	454.05
1030.7617	3034.0376	1334	456.8
1030.8723	3035.0783	1337.3	459.05
1030.9829	3036.1184	1342.75	463.95
1031.0934	3037.1578	1340.25	462.9
1031.2038	3038.1966	1348.25	469.85
1031.3142	3039.2348	1347.25	470.9
1031.4246	3040.2723	1356.1	469.4
1031.5349	3041.3092	1347.05	470.55
1031.6452	3042.3455	1338.9	461.6
1031.7554	3043.3811	1344.35	467.05
1031.8656	3044.4161	1333.9	454.35
1031.9758	3045.4505	1327.45	451.75
1032.0859	3046.4842	1327.65	449
1032.1959	3047.5173	1325.1	448.05
1032.3059	3048.5498	1319.3	442.3
1032.4159	3049.5816	1315.05	438.85
1032.5258	3050.6128	1316.15	439.25
1032.6357	3051.6434	1309	430.95
1032.7455	3052.6734	1304.5	426.55
1032.8553	3053.7027	1295.7	418.05
1032.9651	3054.7314	1299.2	420.75
1033.0748	3055.7594	1286.2	410.7
1033.1845	3056.7868	1287.75	409.7
1033.2941	3057.8136	1280.55	403.55
1033.4037	3058.8398	1281.7	406.4
1033.5132	3059.8653	1276.5	399.85
1033.6227	3060.8902	1270.1	396.25
1033.7321	3061.9145	1271.9	395.9
1033.8415	3062.9381	1262	387.1
1033.9509	3063.9612	1278.5	384.75
1034.0602	3064.9835	1255.45	378.05
1034.1694	3066.0053	1247.6	368.95
1034.2787	3067.0264	1246	369.25
1034.3878	3068.0469	1242.7	364.2
1034.497	3069.0668	1234.7	356.35
1034.6061	3070.086	1225	349.4
1034.7151	3071.1046	1221.8	345.9
1034.8241	3072.1226	1214.2	336.35
1034.9331	3073.1399	1200.1	324.65
1035.042	3074.1567	1201.6	325.4
1035.1508	3075.1727	1194.35	315.75
1035.2597	3076.1882	1182.05	305.7
1035.3684	3077.203	1174.05	296.6
1035.4772	3078.2173	1169.4	290.8
1035.5859	3079.2308	1159.45	282
1035.6945	3080.2438	1157.05	277.95
1035.8031	3081.2561	1143.7	268.8
1035.9117	3082.2678	1136.45	261.65
1036.0202	3083.2789	1131.1	254.4
1036.1286	3084.2893	1130	256.5
1036.2371	3085.2991	1122.3	244.6
1036.3454	3086.3083	1129.9	249.5
1036.4538	3087.3169	1113.45	234.7
1036.562	3088.3248	1114.9	237.6
1036.6703	3089.3321	1109.55	232.7
1036.7785	3090.3388	1104.5	226.95
1036.8866	3091.3449	1092.4	215.4
1036.9948	3092.3503	1091.6	211.6
1037.1028	3093.3551	1092.2	217.25
1037.2108	3094.3593	1085.4	211.5
1037.3188	3095.3629	1083.65	208.2
1037.4267	3096.3658	1078.9	201.05
1037.5346	3097.3681	1082.55	208.45
1037.6425	3098.3698	1080.65	200.8
1037.7503	3099.3708	1080.05	197.05
1037.858	3100.3713	1069.6	194
1037.9657	3101.3711	1068	189.6
1038.0734	3102.3702	1204.9	192.65
1038.181	3103.3688	1065	186.9
1038.2886	3104.3667	1058.8	183.2
1038.3961	3105.364	1055.5	179.3
1038.5036	3106.3607	1056.75	178.4
1038.611	3107.3568	1059.6	184.6
1038.7184	3108.3522	1051.7	176.65
1038.8257	3109.347	1050.05	172.9
1038.933	3110.3412	1053.05	173.65
1039.0403	3111.3348	1048.55	171.75
1039.1475	3112.3277	1041.9	165.75
1039.2547	3113.32	1045.35	168.85
1039.3618	3114.3117	1038.4	162.95
1039.4689	3115.3028	1043.45	166.6
1039.5759	3116.2932	1043.8	164.6
1039.6829	3117.2831	1037.65	157.65
1039.7898	3118.2723	1030.2	153.4
1039.8967	3119.2608	1035.5	159.75
1040.0035	3120.2488	1036.8	160.15
1040.1103	3121.2361	1033.75	157.65
1040.2171	3122.2229	1025.6	148.9
1040.3238	3123.209	1028.85	152.3
1040.4305	3124.1944	1027.5	150.7
1040.5371	3125.1793	1026.15	150.1
1040.6437	3126.1635	1025.3	150.55
1040.7502	3127.1471	1024.05	148.55
1040.8567	3128.1301	1018.6	142.75
1040.9631	3129.1125	1018.65	142.2
1041.0695	3130.0942	1015.5	139.65
1041.1759	3131.0753	1025.1	140.9
1041.2822	3132.0558	1019.55	142.55
1041.3884	3133.0357	1016.25	139.6
1041.4946	3134.015	1014.2	137.7
1041.6008	3134.9936	1020.15	144.5
1041.7069	3135.9716	1032.15	134.2
1041.813	3136.949	1010.9	135.8
1041.919	3137.9258	1027.4	135.05
1042.025	3138.902	1012.8	131.4
1042.1309	3139.8775	1005.55	129.4
1042.2368	3140.8524	1005.15	126.95
1042.3427	3141.8267	1006.55	130.25
1042.4485	3142.8004	1004.65	126.75
1042.5542	3143.7735	1010.8	127.4
1042.6599	3144.7459	1006.1	129.9
1042.7656	3145.7178	1002.25	126.55
1042.8712	3146.689	1003.85	129.8
1042.9768	3147.6596	1007.1	128.9
1043.0823	3148.6295	999.1	122.05
1043.1878	3149.5989	1000.1	123.9
1043.2932	3150.5676	996.5	121.85
1043.3986	3151.5357	997.95	122.6
1043.5039	3152.5032	993.25	117.3
1043.6092	3153.4701	995.05	121.15
1043.7145	3154.4364	996.85	121.75
1043.8197	3155.402	993.65	118.45
1043.9248	3156.367	993.85	115.8
1044.03	3157.3315	1018.75	111.4
1044.135	3158.2952	988.7	112.65
1044.24	3159.2584	986	109.25
1044.345	3160.221	990.85	113.25
1044.4499	3161.1829	989.75	115
1044.5548	3162.1442	987.65	113.25
1044.6596	3163.105	984.3	109.15
1044.7644	3164.065	985.65	111.7
1044.8692	3165.0245	982.15	103.35
1044.9739	3165.9834	982.2	109.5
1045.0785	3166.9416	982.7	109.1
1045.1831	3167.8993	980.2	104.25
1045.2877	3168.8563	982.8	109.75
1045.3922	3169.8127	977.05	100.8
1045.4966	3170.7684	982.15	106.85
1045.6011	3171.7236	981.4	103.9
1045.7054	3172.6782	976	104.65
1045.8098	3173.6321	976.75	102.55
1045.914	3174.5854	981.8	101.5
1046.0183	3175.5381	976.45	101.8
1046.1224	3176.4902	975.2	99.65
1046.2266	3177.4417	977.05	103.2
1046.3307	3178.3926	973.4	99.45
1046.4347	3179.3428	969.4	95.95
1046.5387	3180.2924	971.6	97.15
1046.6427	3181.2415	973.65	98.4
1046.7466	3182.1899	973.55	96.8
1046.8504	3183.1377	970.9	97.75
1046.9542	3184.0848	972.9	95.8
1047.058	3185.0314	968.2	94.4
1047.1617	3185.9773	969.45	93.9
1047.2654	3186.9227	966.6	91.75
1047.369	3187.8674	967.75	90.95
1047.4726	3188.8115	970.95	91.35
1047.5761	3189.755	966.65	91.65
1047.6796	3190.6979	963.9	91.4
1047.783	3191.6402	962.6	87.5
1047.8864	3192.5818	963.3	88.9
1047.9898	3193.5229	983.05	90
1048.0931	3194.4633	965.95	92.45
1048.1963	3195.4031	963.1	87.25
1048.2995	3196.3423	965.1	89.9
1048.4027	3197.2809	962.75	88.05
1048.5058	3198.2189	960.7	84.6
1048.6089	3199.1563	966	85.5
1048.7119	3200.0931	959.15	86.25
1048.8148	3201.0292	959.35	84.25
1048.9178	3201.9648	957.05	82.4
1049.0206	3202.8997	959.15	80.4
1049.1235	3203.834	957.85	82.25
1049.2262	3204.7677	956.2	82.65
1049.329	3205.7008	962.35	85
1049.4317	3206.6333	955.15	80.9
1049.5343	3207.5652	960.95	83.3
1049.6369	3208.4964	957.65	82.9
1049.7394	3209.4271	954.8	80.2
1049.8419	3210.3571	956.2	83.45
1049.9444	3211.2865	956.6	80.05
1050.0468	3212.2154	954.9	80.05
1050.1491	3213.1436	959.15	81.75
1050.2514	3214.0712	960.2	80.45
1050.3537	3214.9982	957.8	80.65
1050.4559	3215.9246	954.5	81.05
1050.5581	3216.8503	954	80.45
1050.6602	3217.7755	951.75	76.95
1050.7623	3218.7001	952.2	78.4
1050.8643	3219.624	949.15	74.75
1050.9663	3220.5473	948.2	73.4
1051.0682	3221.4701	952.2	75.3
1051.1701	3222.3922	949.55	72.45
1051.2719	3223.3137	950.7	76.1
1051.3737	3224.2346	948.7	75.15
1051.4754	3225.1549	950.5	76.6
1051.5771	3226.0746	951.35	77.25
1051.6788	3226.9937	946.05	70.95
1051.7804	3227.9121	947.15	74.1
1051.8819	3228.83	948.3	74.55
1051.9834	3229.7473	944.8	71.4
1052.0849	3230.6639	948.85	74.4
1052.1863	3231.5799	944.45	69.85
1052.2876	3232.4954	944.55	70.65
1052.3889	3233.4102	943.5	68.5
1052.4902	3234.3244	942	67.1
1052.5914	3235.238	939.95	66.3
1052.6926	3236.151	968.95	72.8
1052.7937	3237.0634	943.2	70.25
1052.8948	3237.9752	943.65	71.75
1052.9958	3238.8864	943.25	68
1053.0968	3239.797	942.7	67.9
1053.1977	3240.7069	942.7	67.35
1053.2986	3241.6163	942.05	66.8
1053.3994	3242.5251	940.55	68.65
1053.5002	3243.4332	941.95	68.6
1053.6009	3244.3408	940.05	64.55
1053.7016	3245.2477	939.95	64.4
1053.8022	3246.154	939.15	63.05
1053.9028	3247.0598	939.4	64.1
1054.0034	3247.9649	937.65	64
1054.1039	3248.8694	935.35	61.7
1054.2043	3249.7733	935.4	62.8
1054.3047	3250.6766	938.45	63.9
1054.4051	3251.5793	936	60.65
1054.5054	3252.4814	935.65	62.5
1054.6056	3253.3829	934	60.7
1054.7058	3254.2838	936.15	61.5
1054.806	3255.1841	932.8	59.1
1054.9061	3256.0838	933.8	61.45
1055.0061	3256.9829	932.55	58.85
1055.1062	3257.8814	932.6	57.15
1055.2061	3258.7792	933.9	57.6
1055.306	3259.6765	929.4	53.15
1055.4059	3260.5731	928.1	55.55
1055.5057	3261.4692	929.6	54.2
1055.6055	3262.3647	927.35	53.1
1055.7052	3263.2595	925.45	50.35
1055.8049	3264.1538	926.85	54.85
1055.9045	3265.0474	929.85	54.85
1056.0041	3265.9404	927.2	52.4
1056.1036	3266.8329	921.7	47.75
1056.2031	3267.7247	934.3	48.95
1056.3025	3268.616	922.05	50.05
1056.4019	3269.5066	917.55	44.05
1056.5013	3270.3966	920.55	44.95
1056.6005	3271.286	916.45	43.8
