Software Version:	3.9.2.0
Unit SN:	10000200
Spectrometer SN:	6960
Date:	3/8/2024 1:58:50 PM
Data Line Index:	25
Spectral Points:	2048
Integration time (ms):	125
Averages:	20
Delay (ms):	30000
Sequence Number:	1
Processing:	dark subtract
Laser Power (mW):	305
Laser Current (mA):	823
Laser Diode Temp (C):	25.1
Laser Case Temp (C):	26.3
System Temp (C):	26.2
Spectrometer Temp (C):	24.2
CCD Temp (C):	0.008
Secondary Temp (C):	20.004
Heatsink Temp (C):	20.334
CCDPCB Temp (C):	36.262
SecondaryPCB Temp (C):	30.504

Wavelength	RamanShift	Raw Counts	Dark Subtracted
787.061	30.1047	465.05	57.55
787.2016	32.3739	465.6	59.4
787.3422	34.6426	473.15	66.45
787.4828	36.9109	479.95	70.85
787.6235	39.1787	488.3	76
787.7642	41.4461	496.8	80.75
787.9049	43.7131	508.9	91.05
788.0456	45.9796	514.75	91.4
788.1863	48.2456	524.45	99.55
788.3271	50.5112	536.75	104.45
788.4679	52.7764	548.6	114.2
788.6087	55.0411	557.1	118.1
788.7496	57.3054	570.8	126.65
788.8904	59.5692	581.15	136.05
789.0313	61.8326	589.75	142.05
789.1722	64.0955	600.2	148.7
789.3132	66.3579	620.45	164.55
789.4541	68.6199	645.35	183.15
789.5951	70.8815	681.2	215.55
789.7361	73.1426	762.6	293.55
789.8771	75.4032	979.95	506.2
790.0181	77.6634	1508.65	1030.65
790.1592	79.9231	2763	2278.85
790.3003	82.1824	5516.8	5011.45
790.4414	84.4412	10451.75	9918.9
790.5825	86.6995	17262.6	16689.6
790.7237	88.9574	23894.15	23288.25
790.8648	91.2148	28499	27871.85
791.006	93.4717	30623.1	29979.95
791.1472	95.7282	31127.3	30476.5
791.2885	97.9842	31140.3	30487.05
791.4297	100.2398	30637	29983.3
791.571	102.4949	30061.3	29402.35
791.7123	104.7495	29356.7	28700.15
791.8536	107.0036	28536.45	27875.1
791.9949	109.2573	27814.95	27156.2
792.1363	111.5105	27069.7	26403
792.2777	113.7632	26372.55	25707.45
792.4191	116.0154	25781.25	25104.05
792.5605	118.2672	25386.15	24712.8
792.7019	120.5185	24925.1	24251.75
792.8434	122.7693	24546.85	23872.7
792.9849	125.0197	24280.55	23601.1
793.1264	127.2696	24003.3	23320.25
793.2679	129.519	23890.45	23199.3
793.4094	131.7679	23691.85	22999.2
793.551	134.0163	23583	22890.9
793.6926	136.2642	23359.15	22664.35
793.8342	138.5117	23160.55	22463.25
793.9758	140.7587	22973.25	22276.05
794.1175	143.0052	22773.3	22067.35
794.2591	145.2512	22536	21837.5
794.4008	147.4967	22324.8	21620.2
794.5425	149.7417	22190.8	21486
794.6842	151.9863	22081.15	21372.45
794.826	154.2304	22094.8	21378.6
794.9677	156.4739	21950.6	21230.15
795.1095	158.717	21886.8	21165.15
795.2513	160.9596	21728.75	21002.05
795.3931	163.2017	21483.35	20752.2
795.535	165.4433	21213.65	20484.4
795.6768	167.6844	20897.15	20163.55
795.8187	169.925	20589.9	19854.25
795.9606	172.1651	20225.4	19492.8
796.1025	174.4047	19986.4	19247.75
796.2445	176.6439	19724.75	18985.9
796.3864	178.8825	19509	18763.8
796.5284	181.1206	19335.65	18585.25
796.6704	183.3582	19189.9	18437.35
796.8124	185.5954	19132.1	18378.25
796.9544	187.832	19048.1	18287.75
797.0965	190.0681	19039.85	18279.7
797.2386	192.3037	19039.1	18273.3
797.3806	194.5388	19012.85	18242.85
797.5228	196.7734	19094.85	18324.25
797.6649	199.0075	19159.55	18385.9
797.807	201.2411	19369.45	18594.5
797.9492	203.4742	19451.65	18675.85
798.0914	205.7068	19620.3	18841.75
798.2336	207.9389	19702.6	18927.35
798.3758	210.1704	19925.6	19154.95
798.518	212.4015	20022.25	19257.85
798.6603	214.632	20225.25	19464.15
798.8025	216.862	20429.8	19672.75
798.9448	219.0915	20610	19853.85
799.0871	221.3205	20833.85	20068.15
799.2294	223.549	21118.5	20364.65
799.3718	225.777	21435.15	20676.05
799.5141	228.0044	21804.45	21039.95
799.6565	230.2314	22290.45	21522
799.7989	232.4578	22722.5	21954.55
799.9413	234.6837	23045	22267.95
800.0837	236.909	23319.8	22540.25
800.2262	239.1339	23336	22532.95
800.3687	241.3582	23135.35	22344.7
800.5111	243.582	22809.6	21988.65
800.6536	245.8053	22520.2	21714
800.7961	248.0281	22179.6	21379.3
800.9387	250.2503	21935.85	21129.85
801.0812	252.472	21838.4	21034.55
801.2238	254.6932	21788.65	20983.65
801.3664	256.9139	21728.9	20921.15
801.509	259.134	21743.75	20932.45
801.6516	261.3536	21735.1	20922.7
801.7942	263.5727	21828.85	21017.65
801.9369	265.7912	21794.05	20982.8
802.0795	268.0092	21845.9	21033.85
802.2222	270.2267	21796.4	20983.55
802.3649	272.4436	21812.4	20998.05
802.5076	274.6601	21744.25	20922.6
802.6504	276.8759	21686.4	20871.65
802.7931	279.0913	21638.6	20823.9
802.9359	281.3061	21663.95	20848.75
803.0787	283.5204	21728.65	20902.15
803.2215	285.7341	21826.45	21004.55
803.3643	287.9473	21987.7	21153.1
803.5071	290.16	22213.45	21381.35
803.6499	292.3721	22554.55	21727.55
803.7928	294.5837	22998.55	22168.05
803.9357	296.7947	23367.75	22541.05
804.0786	299.0052	23559.4	22733.5
804.2215	301.2152	23432.65	22604.75
804.3644	303.4246	23135.7	22312.35
804.5074	305.6334	22576.05	21752.3
804.6503	307.8418	22084.85	21257.85
804.7933	310.0495	21709.9	20882.35
804.9363	312.2568	21441.95	20611.65
805.0793	314.4635	21199	20365.25
805.2223	316.6696	21119.4	20283.35
805.3653	318.8752	21039.8	20194.85
805.5084	321.0802	21147.7	20311
805.6514	323.2847	21267.5	20427.8
805.7945	325.4887	21314.5	20473.9
805.9376	327.692	21235.25	20389.05
806.0807	329.8949	21163.8	20324.95
806.2238	332.0972	20886.45	20042.7
806.367	334.2989	20680.15	19835.05
806.5101	336.5001	20422.5	19576.95
806.6533	338.7007	20219	19369.65
806.7965	340.9008	20113.1	19265.15
806.9397	343.1003	20000.25	19147.2
807.0829	345.2992	19971.75	19115.5
807.2261	347.4976	19974.8	19121.9
807.3693	349.6955	19950.55	19092.95
807.5126	351.8927	20057.7	19198.7
807.6559	354.0895	20048.65	19178.25
807.7991	356.2856	20109.15	19247.15
807.9424	358.4812	20122.6	19264.55
808.0857	360.6763	20187.4	19323.25
808.2291	362.8707	20145.75	19281.1
808.3724	365.0646	20207.15	19346.05
808.5158	367.258	20224.4	19356.35
808.6591	369.4508	20269.55	19400.55
808.8025	371.643	20370.5	19500
808.9459	373.8346	20378.9	19505.2
809.0893	376.0257	20358.2	19486.3
809.2327	378.2162	20286.8	19413.1
809.3762	380.4062	20222.45	19352.75
809.5196	382.5956	20052.55	19183.15
809.6631	384.7844	19999.4	19132.3
809.8066	386.9726	19896.55	19035.05
809.9501	389.1603	19830.75	18970.95
810.0936	391.3474	19820.4	18926.4
810.2371	393.5339	19808.65	18940.15
810.3806	395.7199	19792.65	18928.5
810.5241	397.9052	19814.95	18954.5
810.6677	400.09	19834.75	18968.25
810.8113	402.2743	19932.8	19069.35
810.9548	404.4579	20031.75	19169.5
811.0984	406.641	20205.1	19337.15
811.2421	408.8235	20430.5	19564.65
811.3857	411.0054	20749.6	19877.6
811.5293	413.1868	21217.7	20342.7
811.673	415.3675	21561.2	20686.5
811.8166	417.5477	21721.55	20842.05
811.9603	419.7273	21804.2	20924.3
812.104	421.9064	21719.05	20836.1
812.2477	424.0848	21566.5	20690.4
812.3914	426.2627	21364.4	20485.25
812.5351	428.4399	21093.45	20214.2
812.6788	430.6166	20749.6	19864.8
812.8226	432.7928	20412.3	19529.15
812.9663	434.9683	20083.8	19201.85
813.1101	437.1432	19885.3	19008.25
813.2539	439.3176	19717.5	18843.5
813.3977	441.4914	19630.3	18756.9
813.5415	443.6645	19603.65	18728.3
813.6853	445.8371	19519.25	18635.05
813.8291	448.0091	19481.45	18601.75
813.973	450.1806	19453.45	18574.9
814.1168	452.3514	19372.15	18494.2
814.2607	454.5216	19451.9	18561.35
814.4046	456.6913	19373.5	18491.45
814.5485	458.8603	19385	18507.55
814.6924	461.0288	19484.8	18608.3
814.8363	463.1967	19469.7	18596.15
814.9802	465.3639	19633.25	18754.8
815.1241	467.5306	19739.15	18859.25
815.2681	469.6967	19897.55	19026.55
815.412	471.8622	20064.5	19190.35
815.556	474.0271	20209.15	19332.1
815.7	476.1914	20309.7	19424.7
815.844	478.3551	20301.9	19420
815.988	480.5182	20302.8	19429.9
816.132	482.6807	20325.55	19451.2
816.276	484.8426	20445.35	19581.3
816.4201	487.0039	20743.6	19867.5
816.5641	489.1647	21124.45	20239.35
816.7082	491.3248	21619.1	20737.7
816.8522	493.4843	21796	20920.95
816.9963	495.6432	21816.05	20940.3
817.1404	497.8015	21781.3	20891.5
817.2845	499.9592	21767.8	20872.4
817.4286	502.1163	21724.15	20832.7
817.5727	504.2728	21471.6	20580.45
817.7168	506.4287	21192	20317.05
817.861	508.5839	20767.35	19890.35
818.0051	510.7386	20473.65	19593.5
818.1493	512.8927	20302.25	19410.9
818.2935	515.0461	20192	19302.95
818.4377	517.199	20190.25	19298.35
818.5818	519.3512	20224.55	19331.85
818.726	521.5029	20313.75	19415.5
818.8703	523.6539	20381.3	19489.85
819.0145	525.8043	20437.05	19543.2
819.1587	527.9541	20461.9	19567.55
819.303	530.1033	20456.45	19564.75
819.4472	532.2519	20500.2	19606.05
819.5915	534.3999	20638.75	19743.15
819.7357	536.5472	20936.55	20043.45
819.88	538.694	21380.75	20492.2
820.0243	540.8401	22015.25	21123.45
820.1686	542.9856	22503.8	21598.4
820.3129	545.1305	22718.65	21812.45
820.4572	547.2748	22588.55	21678.1
820.6016	549.4185	22260.8	21348.6
820.7459	551.5615	21907.1	20997.05
820.8902	553.704	21817.4	20906.2
821.0346	555.8458	21716.85	20814.35
821.1789	557.987	21771	20870.7
821.3233	560.1276	21734.5	20826.65
821.4677	562.2675	21816.55	20909.2
821.6121	564.4069	21838.45	20928.6
821.7565	566.5456	21866.3	20960.75
821.9009	568.6837	21815.75	20911.6
822.0453	570.8212	21517	20616.3
822.1897	572.958	21182.4	20276.85
822.3342	575.0942	20925.7	20025.55
822.4786	577.2299	20733.3	19840.6
822.6231	579.3648	20708.55	19825.85
822.7675	581.4992	20751.2	19875.35
822.912	583.6329	20931.85	20058.25
823.0565	585.766	21223.45	20340.65
823.201	587.8985	21356.5	20472.15
823.3454	590.0304	21396.9	20488.65
823.4899	592.1616	21327.55	20423.5
823.6345	594.2922	21219.7	20311.35
823.779	596.4222	21095.15	20183.7
823.9235	598.5515	20889.6	19979.7
824.068	600.6802	20746.55	19838.25
824.2126	602.8083	20556.2	19648.7
824.3571	604.9358	20552.5	19646.9
824.5017	607.0626	20478.9	19568.45
824.6462	609.1888	20504.75	19588.35
824.7908	611.3144	20438.5	19524.8
824.9354	613.4393	20356.9	19438.85
825.08	615.5636	20287.85	19372.65
825.2246	617.6873	20216.05	19298.7
825.3692	619.8103	20178.4	19260.15
825.5138	621.9327	20093.4	19181.2
825.6584	624.0544	20060.4	19152.65
825.803	626.1756	20034.55	19130.6
825.9477	628.2961	19994.45	19085.85
826.0923	630.4159	19937	19021.2
826.237	632.5351	19937.9	19022.25
826.3816	634.6537	19877.45	18959.85
826.5263	636.7716	19907.05	18985.95
826.6709	638.8889	19914.6	18993.85
826.8156	641.0056	20007	19084.15
826.9603	643.1216	19952.05	19029.5
827.105	645.237	20020.45	19099.3
827.2497	647.3518	20013.4	19100.35
827.3944	649.4659	20021.6	19114.4
827.5391	651.5793	20058.35	19152.55
827.6838	653.6922	20049	19141.75
827.8285	655.8043	20022.85	19112.6
827.9733	657.9159	20042.9	19128.65
828.118	660.0268	19976.05	19059.35
828.2627	662.137	19926.45	19010.35
828.4075	664.2466	19934.9	19015.5
828.5522	666.3556	19947.35	19029.05
828.697	668.4639	19919	19001.15
828.8418	670.5716	19994.5	19083.55
828.9865	672.6786	20073.75	19153.65
829.1313	674.785	20150.05	19226.95
829.2761	676.8907	20170.7	19251.4
829.4209	678.9958	20273.9	19357.6
829.5657	681.1002	20269.7	19351.95
829.7105	683.204	20282.4	19354.95
829.8553	685.3072	20253.75	19328.85
830.0001	687.4097	20201.95	19279
830.1449	689.5115	20153.95	19228.35
830.2898	691.6127	20098.3	19180.15
830.4346	693.7132	20080.5	19163.2
830.5794	695.8131	20059.85	19121.4
830.7243	697.9123	20101.25	19178.9
830.8691	700.0109	20046.7	19115.8
831.014	702.1089	20038.65	19112.15
831.1588	704.2061	20084.35	19158.65
831.3037	706.3028	20150.6	19223.9
831.4486	708.3987	20207.3	19282.05
831.5935	710.4941	20292.4	19370.75
831.7383	712.5887	20484.55	19560.7
831.8832	714.6827	20762.35	19835.2
832.0281	716.7761	21122.9	20202.35
832.173	718.8688	21505.35	20583.75
832.3179	720.9608	21714.15	20778.4
832.4628	723.0522	21803.05	20866.8
832.6077	725.1429	21612.6	20683.3
832.7527	727.233	21372.15	20445.75
832.8976	729.3224	21158.3	20230.1
833.0425	731.4112	20859.05	19930.1
833.1874	733.4993	20685.15	19756.2
833.3324	735.5867	20498.45	19571.1
833.4773	737.6735	20436.35	19508.75
833.6222	739.7596	20360.4	19430.8
833.7672	741.845	20333.9	19407.45
833.9122	743.9298	20293.2	19364.6
834.0571	746.014	20310.55	19382.55
834.2021	748.0974	20352.3	19414.5
834.347	750.1802	20357.7	19425.05
834.492	752.2624	20354.5	19421.15
834.637	754.3439	20393.85	19455.25
834.782	756.4247	20477.55	19535.5
834.9269	758.5048	20571.6	19636.7
835.0719	760.5843	20808.85	19873.3
835.2169	762.6631	21115.8	20176.7
835.3619	764.7413	21588.9	20656.45
835.5069	766.8188	22196.05	21261.35
835.6519	768.8956	22636.5	21699.4
835.7969	770.9718	22971.5	22040.25
835.9419	773.0473	22857.1	21922.55
836.0869	775.1221	22529.05	21595.7
836.232	777.1962	22184.05	21247.8
836.377	779.2697	21972.3	21035.55
836.522	781.3426	22035.95	21079.9
836.667	783.4147	22233.55	21295.7
836.8121	785.4862	22592.8	21661.95
836.9571	787.557	22597.3	21658.55
837.1021	789.6271	22289.65	21349.85
837.2472	791.6966	21744.8	20805.85
837.3922	793.7654	21242.3	20307.2
837.5373	795.8335	20932.35	19997.1
837.6823	797.901	20738.55	19802.15
837.8274	799.9678	20704.55	19764.75
837.9724	802.0339	20707.5	19769.85
838.1175	804.0993	20772.85	19825.6
838.2626	806.1641	20752.15	19811.85
838.4076	808.2282	20717	19781.25
838.5527	810.2916	20646.05	19707.55
838.6978	812.3544	20570.25	19634.25
838.8428	814.4164	20492.55	19559.45
838.9879	816.4778	20552.95	19611.1
839.133	818.5385	20518.65	19575.55
839.2781	820.5986	20594.75	19654.95
839.4232	822.658	20728.9	19786.2
839.5682	824.7166	20829.9	19891.5
839.7133	826.7747	21119	20181.3
839.8584	828.832	21306.7	20366.85
840.0035	830.8886	21458.15	20514.9
840.1486	832.9446	21661.55	20717.9
840.2937	834.9999	21660.45	20721.25
840.4388	837.0545	21653.1	20708.85
840.5839	839.1085	21656.9	20713.55
840.729	841.1618	21641.35	20698.5
840.8741	843.2143	21600.9	20657.35
841.0192	845.2662	21527.8	20584.25
841.1643	847.3175	21483.45	20540.3
841.3095	849.368	21349.55	20408.2
841.4546	851.4179	21268.55	20326.45
841.5997	853.467	21080.7	20139.3
841.7448	855.5155	21019.25	20077.85
841.8899	857.5633	20967.85	20024.85
842.0351	859.6105	20834.45	19891.45
842.1802	861.6569	20783.05	19839.25
842.3253	863.7027	20717.55	19776.3
842.4704	865.7478	20773.8	19831.8
842.6156	867.7922	20772.55	19825.85
842.7607	869.8359	20827.35	19880.55
842.9058	871.8789	20937.65	19993.65
843.0509	873.9212	21182.6	20207.3
843.1961	875.9629	21309.95	20363.65
843.3412	878.0039	21482.9	20537.45
843.4863	880.0441	21620.25	20683
843.6315	882.0837	21632.75	20689.85
843.7766	884.1226	21557.9	20611.1
843.9218	886.1609	21449.6	20502.8
844.0669	888.1984	21406.35	20460.9
844.212	890.2352	21467.6	20522.35
844.3572	892.2714	21400.8	20454.7
844.5023	894.3069	21408.35	20464.95
844.6475	896.3416	21343.35	20397.85
844.7926	898.3757	21287.3	20341.8
844.9377	900.4091	21287.35	20340.65
845.0829	902.4418	21332.3	20382.8
845.228	904.4739	21336.15	20386.4
845.3732	906.5052	21334.8	20384.55
845.5183	908.5358	21244.6	20294.35
845.6635	910.5658	21110	20158.85
845.8086	912.595	20962.05	20011.65
845.9538	914.6236	20779.85	19833.2
846.0989	916.6515	20785.2	19838.85
846.2441	918.6786	20774.5	19821.9
846.3892	920.7051	20845.8	19896.85
846.5344	922.7309	21011.95	20064.45
846.6795	924.756	21069.1	20122.35
846.8246	926.7804	21148.25	20200.55
846.9698	928.8041	21089.85	20142.85
847.1149	930.8272	21119	20172.65
847.2601	932.8495	21069	20119
847.4052	934.8711	21046.35	20095.65
847.5504	936.892	20866.05	19919.25
847.6955	938.9123	20756.6	19805.3
847.8407	940.9318	20637.7	19689.9
847.9858	942.9506	20502.4	19556.55
848.131	944.9688	20425.15	19479.45
848.2761	946.9862	20389.75	19444.15
848.4213	949.003	20315.65	19367.9
848.5664	951.019	20306.85	19356.45
848.7115	953.0344	20328.85	19378.25
848.8567	955.0491	20355.55	19406.35
849.0018	957.063	20432.7	19482.25
849.147	959.0763	20568.85	19622
849.2921	961.0888	20654.2	19705.5
849.4373	963.1007	20744.8	19801.65
849.5824	965.1119	20791.7	19853.8
849.7275	967.1223	20829.75	19898.7
849.8727	969.1321	20839.3	19906.5
850.0178	971.1412	20874.65	19935.2
850.1629	973.1495	20889.35	19948.15
850.3081	975.1572	20989.35	19995.95
850.4532	977.1641	21019.9	20075
850.5983	979.1704	20990.05	20038.4
850.7435	981.1759	20958.5	20008.35
850.8886	983.1808	21076.7	20122.15
851.0337	985.1849	21139.6	20173.05
851.1788	987.1884	21265.85	20317.85
851.324	989.1911	21452.95	20501.65
851.4691	991.1932	21582.3	20634.35
851.6142	993.1945	21640.15	20694.85
851.7593	995.1951	21549.75	20601.8
851.9045	997.1951	21519	20562.85
852.0496	999.1943	21446.9	20500.45
852.1947	1001.1928	21396.8	20448.9
852.3398	1003.1906	21356.6	20407.65
852.4849	1005.1877	21445.4	20494.9
852.63	1007.1841	21390.1	20445.15
852.7751	1009.1798	21335.3	20391.35
852.9202	1011.1748	21122.05	20177.85
853.0653	1013.1691	20921.1	19972.7
853.2104	1015.1627	20709.85	19761.95
853.3555	1017.1556	20460.05	19513.15
853.5006	1019.1477	20426.1	19480.9
853.6457	1021.1392	20329.5	19391.25
853.7908	1023.1299	20303.6	19366.15
853.9359	1025.12	20286.55	19355.65
854.081	1027.1093	20298.35	19381.05
854.2261	1029.0979	20418.05	19503.25
854.3712	1031.0859	20443.9	19519
854.5163	1033.0731	20426.75	19493.35
854.6613	1035.0596	20369.65	19430.8
854.8064	1037.0454	20208.8	19269.2
854.9515	1039.0304	20119.05	19175.45
855.0965	1041.0148	19968.05	19027.35
855.2416	1042.9985	19892.8	18944.75
855.3867	1044.9814	19903.7	18958.35
855.5317	1046.9636	19767.1	18823.85
855.6768	1048.9452	19779	18838.2
855.8219	1050.926	19823.4	18878.8
855.9669	1052.9061	19808.3	18863.9
856.112	1054.8855	19820	18876.2
856.257	1056.8642	19818.05	18871
856.4021	1058.8421	19906.7	18958.75
856.5471	1060.8194	19911.9	18967.1
856.6921	1062.7959	19936.15	18990.85
856.8372	1064.7717	19959.85	19014.9
856.9822	1066.7469	19970.95	19021.2
857.1272	1068.7213	19978.25	19025.7
857.2723	1070.695	20001.6	19059.15
857.4173	1072.6679	19898.1	18949.6
857.5623	1074.6402	19933.5	18989.45
857.7073	1076.6117	19916.25	18962.15
857.8523	1078.5826	19913.25	18967.2
857.9973	1080.5527	19892	18943.8
858.1423	1082.5221	19966.3	19019.75
858.2873	1084.4908	20139.6	19192.55
858.4323	1086.4587	20309.45	19358.15
858.5773	1088.426	20443	19497.6
858.7223	1090.3925	20444.75	19492.3
858.8673	1092.3584	20407.35	19459.9
859.0123	1094.3235	20238.55	19295.05
859.1573	1096.2879	20207.25	19258
859.3022	1098.2515	20212.5	19271.3
859.4472	1100.2145	20268.8	19323.7
859.5922	1102.1767	20346.3	19400.5
859.7371	1104.1382	20511.7	19569.85
859.8821	1106.099	20689.1	19739.35
860.027	1108.0591	20916.55	19975.3
860.172	1110.0185	21058.8	20111.1
860.3169	1111.9771	21102.25	20159.65
860.4619	1113.9351	20882.45	19935.5
860.6068	1115.8923	20588.65	19645.65
860.7517	1117.8488	20247.4	19303.55
860.8967	1119.8045	19961.7	19018.25
861.0416	1121.7596	19874.5	18929.45
861.1865	1123.7139	19809.8	18865.1
861.3314	1125.6675	19810	18864.6
861.4763	1127.6204	19850.4	18910.05
861.6212	1129.5726	19860.55	18915.3
861.7661	1131.524	19857.55	18916.65
861.911	1133.4748	19821.6	18875
862.0559	1135.4248	19795.8	18850.65
862.2008	1137.3741	19790.9	18845.45
862.3457	1139.3226	19750.35	18807.1
862.4905	1141.2705	19727.5	18783.55
862.6354	1143.2176	19590.55	18640.9
862.7803	1145.164	19620.25	18674.9
862.9251	1147.1097	19635.85	18690.6
863.07	1149.0546	19604.6	18657.9
863.2148	1150.9989	19527.25	18585.75
863.3597	1152.9424	19400.35	18457.35
863.5045	1154.8852	19238.4	18293.7
863.6493	1156.8272	19129.6	18185.55
863.7942	1158.7686	19120.5	18167.4
863.939	1160.7092	19073.45	18127.3
864.0838	1162.6491	19003.85	18057.5
864.2286	1164.5883	19098.75	18158.55
864.3734	1166.5267	19189.7	18249.1
864.5182	1168.4644	19357.55	18413.8
864.663	1170.4014	19516.4	18573.35
864.8078	1172.3377	19768.15	18830.25
864.9526	1174.2732	20018.75	19076.9
865.0974	1176.2081	20269.4	19327.45
865.2421	1178.1421	20526.6	19582.8
865.3869	1180.0755	20793.5	19851.1
865.5317	1182.0082	20818	19878.35
865.6764	1183.9401	20848.35	19907.25
865.8212	1185.8713	20688.3	19750.15
865.9659	1187.8017	20418.4	19487.25
866.1106	1189.7315	20144.75	19225.6
866.2554	1191.6605	19831.65	18909.5
866.4001	1193.5888	19636	18714.15
866.5448	1195.5163	19536.1	18602.4
866.6895	1197.4432	19436.75	18499.45
866.8342	1199.3693	19370.9	18431.8
866.9789	1201.2947	19332.4	18385.35
867.1236	1203.2193	19272.75	18331.1
867.2683	1205.1432	19320.3	18381.9
867.413	1207.0664	19303.2	18364.4
867.5576	1208.9889	19329.05	18387.75
867.7023	1210.9106	19348.05	18409.1
867.847	1212.8316	19388.25	18451.65
867.9916	1214.7519	19464.9	18519.9
868.1363	1216.6715	19440.85	18497.6
868.2809	1218.5903	19415.8	18478.15
868.4255	1220.5084	19445.05	18505.8
868.5701	1222.4257	19422.3	18483.2
868.7148	1224.3424	19331.45	18394.9
868.8594	1226.2583	19388.9	18443.95
869.004	1228.1735	19465.9	18528.15
869.1486	1230.0879	19550.3	18608.3
869.2932	1232.0016	19652.05	18715.1
869.4377	1233.9146	19682.95	18739.5
869.5823	1235.8269	19563.45	18624.65
869.7269	1237.7384	19471.1	18532.8
869.8715	1239.6492	19247.8	18311.4
870.016	1241.5592	19176.15	18239.65
870.1606	1243.4686	19067.55	18128.45
870.3051	1245.3772	19061.95	18122.55
870.4496	1247.285	19033.9	18096.3
870.5941	1249.1922	18997.75	18058.45
870.7387	1251.0986	19007.55	18070.55
870.8832	1253.0042	18968.25	18028.05
871.0277	1254.9092	19032.7	18096.75
871.1722	1256.8134	19083.6	18146.1
871.3167	1258.7169	19274.45	18334.1
871.4611	1260.6196	19353.4	18416.85
871.6056	1262.5216	19541.05	18600
871.7501	1264.4229	19690.4	18755.3
871.8945	1266.3234	19900.7	18965.25
872.039	1268.2232	19964.65	19026.7
872.1834	1270.1223	19961.35	19022.1
872.3278	1272.0207	19952.9	19013.95
872.4723	1273.9183	19893.5	18950.3
872.6167	1275.8151	19772	18835
872.7611	1277.7113	19705.4	18769.9
872.9055	1279.6067	19584.75	18650.45
873.0499	1281.5014	19496.45	18559.3
873.1943	1283.3953	19467.15	18530.45
873.3386	1285.2885	19454.9	18519.85
873.483	1287.181	19531.65	18595.85
873.6274	1289.0727	19642.75	18710.45
873.7717	1290.9637	19679.55	18743.55
873.9161	1292.854	19825.85	18888.1
874.0604	1294.7435	19944	19006.1
874.2047	1296.6323	20133.5	19200.35
874.349	1298.5204	20324.95	19386.25
874.4933	1300.4077	20546	19606.95
874.6376	1302.2943	20634.5	19696.45
874.7819	1304.1802	20717.45	19779
874.9262	1306.0653	20543.95	19607.2
875.0705	1307.9497	20357.15	19421.45
875.2147	1309.8333	20211.25	19274.65
875.359	1311.7162	20086.9	19150.8
875.5032	1313.5984	20071.15	19134.15
875.6475	1315.4798	20124.7	19176.7
875.7917	1317.3605	20172.65	19222.2
875.9359	1319.2405	20214.75	19275.9
876.0801	1321.1197	20180.1	19242.1
876.2243	1322.9982	20034.6	19092.75
876.3685	1324.876	19968.95	19033.15
876.5127	1326.753	19859.6	18922.4
876.6569	1328.6293	19834.1	18895.7
876.801	1330.5048	19823.45	18886
876.9452	1332.3796	19748.75	18813
877.0893	1334.2537	19693.8	18732.85
877.2335	1336.127	19625.95	18690.3
877.3776	1337.9996	19589.6	18655.25
877.5217	1339.8714	19554.65	18620.65
877.6658	1341.7426	19580.5	18599.7
877.8099	1343.6129	19502.8	18563.5
877.954	1345.4826	19430.55	18491.35
878.0981	1347.3515	19430.7	18490.7
878.2422	1349.2196	19323.4	18384
878.3862	1351.087	19350.6	18414.6
878.5303	1352.9537	19398.7	18457.05
878.6743	1354.8197	19547.4	18610.35
878.8184	1356.6849	19658.2	18722.8
878.9624	1358.5493	19728.5	18793.15
879.1064	1360.4131	19735.7	18799.15
879.2504	1362.276	19693.9	18758.4
879.3944	1364.1383	19539.35	18605.15
879.5384	1365.9998	19323.45	18378.95
879.6823	1367.8606	18987.3	18050.5
879.8263	1369.7206	18727.05	17790.25
879.9702	1371.5799	18456.6	17516.45
880.1142	1373.4384	18236.65	17297.8
880.2581	1375.2962	18123.65	17187.85
880.402	1377.1533	17821.45	16887.05
880.5459	1379.0096	17493.3	16564.25
880.6898	1380.8652	17170.05	16239.3
880.8337	1382.7201	16911.45	15979.35
880.9776	1384.5742	16664	15729.4
881.1215	1386.4275	16457.35	15521.1
881.2653	1388.2802	16306.2	15369.85
881.4092	1390.132	16181.3	15244.45
881.553	1391.9832	16134.05	15196.5
881.6968	1393.8336	16034.8	15096.8
881.8406	1395.6832	15941.5	15004.2
881.9844	1397.5322	15896.9	14960.25
882.1282	1399.3803	15848.05	14907.4
882.272	1401.2278	15815.5	14881.5
882.4158	1403.0745	15781.65	14849.05
882.5595	1404.9204	15711.15	14778.65
882.7033	1406.7656	15724.95	14794.3
882.847	1408.6101	15733.25	14799.9
882.9908	1410.4538	15719.05	14783.6
883.1345	1412.2968	15735.7	14802.85
883.2782	1414.139	15764.55	14829.1
883.4219	1415.9805	15814.9	14879.65
883.5656	1417.8213	15859.1	14917.9
883.7092	1419.6613	15991.65	15061.95
883.8529	1421.5006	16141.65	15205.95
883.9965	1423.3391	16399.3	15467.85
884.1402	1425.1769	16686.1	15752.9
884.2838	1427.0139	17132.3	16197.75
884.4274	1428.8502	17710.3	16777.7
884.571	1430.6858	18247.4	17315.85
884.7146	1432.5206	18623.2	17691.2
884.8582	1434.3547	18885.25	17951.75
885.0018	1436.188	18894.25	17958.5
885.1453	1438.0206	18842.85	17912.2
885.2889	1439.8524	18641.55	17711.65
885.4324	1441.6835	18527.8	17594.65
885.5759	1443.5139	18405.75	17470.6
885.7194	1445.3435	18312.45	17379.95
885.8629	1447.1724	18254.8	17321.8
886.0064	1449.0005	18186.5	17259.15
886.1499	1450.8279	18106.5	17178
886.2933	1452.6545	18052.95	17124.4
886.4368	1454.4804	18047.8	17119.05
886.5802	1456.3056	18050.75	17115.5
886.7237	1458.13	17954.25	17025.9
886.8671	1459.9536	17731.1	16796.95
887.0105	1461.7766	17351.8	16419.95
887.1539	1463.5987	16963.05	16029.4
887.2972	1465.4202	16538.8	15608
887.4406	1467.2409	16170.75	15242.55
887.584	1469.0608	15887.4	14954.2
887.7273	1470.88	15684.15	14754.4
887.8706	1472.6984	15406.9	14477.35
888.0139	1474.5161	15167.05	14233
888.1572	1476.3331	14992.3	14061.05
888.3005	1478.1493	14848.45	13916.75
888.4438	1479.9648	14765.75	13836.2
888.5871	1481.7795	14666.65	13735.7
888.7303	1483.5935	14582.45	13652.05
888.8736	1485.4067	14529.55	13599.8
889.0168	1487.2192	14452.95	13525.2
889.16	1489.031	14395.65	13463.2
889.3032	1490.842	14327.55	13395.05
889.4464	1492.6522	14294.9	13363.55
889.5896	1494.4618	14257.15	13324.55
889.7327	1496.2705	14221.05	13290.75
889.8759	1498.0785	14186.6	13257.5
890.019	1499.8858	14147.7	13218.55
890.1622	1501.6924	14068.75	13138.5
890.3053	1503.4981	14034.35	13107.45
890.4484	1505.3032	14002.55	13071
890.5914	1507.1075	13950.65	13020.3
890.7345	1508.911	13912.15	12981.65
890.8776	1510.7138	13871.2	12940.3
891.0206	1512.5159	13788.15	12859
891.1637	1514.3172	13730.3	12797.95
891.3067	1516.1178	13663.3	12737.85
891.4497	1517.9176	13648.45	12721.5
891.5927	1519.7166	13603.6	12676.6
891.7357	1521.515	13537.25	12602.5
891.8786	1523.3126	13497.6	12572.3
892.0216	1525.1094	13458.1	12528.4
892.1645	1526.9055	13410.35	12484.75
892.3074	1528.7008	13377.7	12452.55
892.4503	1530.4954	13292.85	12366.4
892.5932	1532.2893	13242.3	12321.55
892.7361	1534.0824	13169.05	12243.65
892.879	1535.8747	13174.95	12253.3
893.0218	1537.6663	13170.2	12243.35
893.1647	1539.4572	13114.9	12192.65
893.3075	1541.2473	13104.4	12181.8
893.4503	1543.0367	13082.25	12158.85
893.5931	1544.8253	13015.95	12088.3
893.7359	1546.6132	13053.9	12126.2
893.8787	1548.4003	13042.1	12106.95
894.0214	1550.1867	13019.75	12087.5
894.1642	1551.9723	13030.45	12104.2
894.3069	1553.7572	13073.55	12155.1
894.4496	1555.5414	13086.5	12166.4
894.5923	1557.3247	13133.8	12214.6
894.735	1559.1074	13175	12260
894.8777	1560.8893	13204.75	12287.95
895.0204	1562.6705	13256.9	12341.9
895.163	1564.4509	13301.1	12385.8
895.3056	1566.2305	13359.75	12449.15
895.4482	1568.0094	13441.2	12529.6
895.5908	1569.7876	13468.95	12554.1
895.7334	1571.565	13481.55	12564.45
895.876	1573.3417	13455.5	12539.75
896.0186	1575.1176	13432.9	12519.85
896.1611	1576.8928	13393.5	12481.8
896.3036	1578.6672	13307.5	12400.1
896.4461	1580.4409	13176.6	12271.75
896.5886	1582.2138	13098.35	12186.95
896.7311	1583.986	12980.65	12067.35
896.8736	1585.7575	12886.8	11974.9
897.0161	1587.5282	12815.5	11906.25
897.1585	1589.2981	12771.55	11864.6
897.3009	1591.0673	12715.35	11810.95
897.4433	1592.8358	12731.5	11825.7
897.5857	1594.6035	12739.8	11829.25
897.7281	1596.3704	12698.45	11785.95
897.8705	1598.1366	12740.85	11831.95
898.0128	1599.9021	12765.2	11857.25
898.1551	1601.6668	12791.05	11880.6
898.2975	1603.4308	12858.05	11945.25
898.4398	1605.194	12963.5	12049.45
898.5821	1606.9564	13050.2	12147.2
898.7243	1608.7182	13198.35	12296.35
898.8666	1610.4791	13327.1	12432.4
899.0088	1612.2394	13459.45	12565.65
899.1511	1613.9988	13632.7	12732.8
899.2933	1615.7576	13858.45	12956.4
899.4355	1617.5156	14043.85	13133.15
899.5776	1619.2728	14216.65	13305.75
899.7198	1621.0293	14350.15	13442.3
899.862	1622.785	14331.65	13421.15
900.0041	1624.54	14208.85	13304.3
900.1462	1626.2942	14029.6	13129.25
900.2883	1628.0477	13771.05	12864.35
900.4304	1629.8005	13530.25	12624.6
900.5725	1631.5525	13313.55	12410.8
900.7145	1633.3037	13111.9	12208.4
900.8566	1635.0542	12971.55	12069.4
900.9986	1636.804	12845.95	11943.75
901.1406	1638.553	12775.2	11814.2
901.2826	1640.3013	12690.35	11788.65
901.4245	1642.0488	12661.8	11757.85
901.5665	1643.7955	12697.45	11796.05
901.7085	1645.5416	12721.35	11822.55
901.8504	1647.2868	12776.65	11873.9
901.9923	1649.0313	12874.95	11970.1
902.1342	1650.7751	13005.95	12100.7
902.2761	1652.5181	13154	12250.15
902.4179	1654.2604	13323.15	12424.05
902.5598	1656.0019	13573.05	12672.8
902.7016	1657.7427	13888.3	12987.9
902.8434	1659.4828	14168.85	13266.9
902.9852	1661.222	14306.6	13403.8
903.127	1662.9606	14316.3	13412.3
903.2687	1664.6984	14107.8	13202.5
903.4105	1666.4354	13709.85	12801.8
903.5522	1668.1717	13210.25	12301.9
903.6939	1669.9072	12688.15	11780.2
903.8356	1671.642	12233.35	11323.25
903.9773	1673.3761	11900.2	10995.2
904.119	1675.1094	11587.25	10686.5
904.2606	1676.8419	11343.35	10439.65
904.4022	1678.5737	11177.7	10272.1
904.5439	1680.3048	11021.6	10117.3
904.6855	1682.0351	10870.65	9967.95
904.827	1683.7646	10757.95	9850.1
904.9686	1685.4934	10706.2	9804.55
905.1101	1687.2215	10584.6	9683
905.2517	1688.9488	10511.25	9610.85
905.3932	1690.6754	10435.15	9532.65
905.5347	1692.4012	10405.15	9501.2
905.6761	1694.1263	10356.7	9449.8
905.8176	1695.8506	10311.75	9406.4
905.9591	1697.5742	10290.9	9391.2
906.1005	1699.297	10226.15	9330.35
906.2419	1701.0191	10141.3	9247.4
906.3833	1702.7404	10121.05	9226.3
906.5246	1704.461	10033.9	9132.65
906.666	1706.1808	9992.75	9092.3
906.8073	1707.8999	9961.65	9062.45
906.9487	1709.6182	9925.1	9031.25
907.09	1711.3358	9876.3	8983.8
907.2313	1713.0527	9831.5	8940.25
907.3725	1714.7688	9802.8	8903.6
907.5138	1716.4841	9793.5	8892.85
907.655	1718.1987	9758.55	8860
907.7962	1719.9126	9703.25	8808.75
907.9374	1721.6257	9672.95	8780.75
908.0786	1723.338	9633.65	8742.6
908.2198	1725.0496	9566.8	8671.4
908.3609	1726.7605	9544.35	8647.1
908.502	1728.4706	9533	8637.5
908.6431	1730.18	9476.25	8578.35
908.7842	1731.8886	9455.6	8562.9
908.9253	1733.5964	9453.85	8540.9
909.0664	1735.3036	9404.45	8507.3
909.2074	1737.0099	9379.55	8485.5
909.3484	1738.7156	9378.35	8486.4
909.4894	1740.4204	9300.8	8407.25
909.6304	1742.1246	9300.2	8402.55
909.7714	1743.8279	9259.15	8363.35
909.9123	1745.5306	9225.1	8333.55
910.0532	1747.2325	9198.55	8305.75
910.1941	1748.9336	9162.05	8266.85
910.335	1750.634	9124.7	8231
910.4759	1752.3336	9103.45	8210.2
910.6168	1754.0325	9078.5	8190.9
910.7576	1755.7307	9078.8	8186.7
910.8984	1757.4281	9058.45	8164.8
911.0392	1759.1247	9052.15	8148.15
911.18	1760.8206	9019.3	8120.25
911.3208	1762.5158	9007.75	8105.2
911.4615	1764.2102	8943.8	8047.75
911.6022	1765.9039	8915.6	8022.95
911.7429	1767.5968	8903.55	8011.95
911.8836	1769.289	8874.4	7983.25
912.0243	1770.9804	8859.55	7964.95
912.1649	1772.6711	8857.55	7962.9
912.3056	1774.361	8828.05	7930.95
912.4462	1776.0502	8817.6	7923.4
912.5868	1777.7386	8775.4	7878.55
912.7274	1779.4263	8758.25	7864.65
912.8679	1781.1132	8734.75	7844.15
913.0084	1782.7994	8685.95	7797.35
913.149	1784.4849	8694.95	7803.35
913.2895	1786.1696	8656.85	7761.55
913.4299	1787.8535	8620.9	7732.25
913.5704	1789.5367	8618.2	7729.35
913.7108	1791.2192	8620.35	7733.2
913.8513	1792.9009	8583.4	7664.85
913.9917	1794.5818	8572.75	7675.75
914.132	1796.2621	8531.55	7638.3
914.2724	1797.9415	8518.8	7622.55
914.4128	1799.6202	8479	7584.1
914.5531	1801.2982	8466.55	7571.25
914.6934	1802.9755	8460.15	7562.95
914.8337	1804.6519	8442.75	7549.55
914.9739	1806.3277	8402.7	7512.4
915.1142	1808.0027	8367.35	7480.8
915.2544	1809.6769	8364.8	7477.9
915.3946	1811.3504	8316.95	7430.2
915.5348	1813.0231	8306.7	7418.4
915.675	1814.6951	8296.75	7406
915.8151	1816.3664	8316.3	7421.45
915.9553	1818.0369	8274.85	7381.75
916.0954	1819.7067	8222.8	7332.95
916.2355	1821.3757	8220.2	7322.25
916.3755	1823.044	8222.95	7329.55
916.5156	1824.7115	8185.15	7292
916.6556	1826.3783	8164.3	7273.5
916.7956	1828.0443	8137.5	7245.15
916.9356	1829.7096	8115.95	7222.95
917.0756	1831.3741	8110.6	7216.15
917.2155	1833.0379	8091.75	7199.8
917.3555	1834.701	8080.45	7190.35
917.4954	1836.3633	8047.6	7158.6
917.6353	1838.0248	8018.5	7130.7
917.7751	1839.6856	8005.9	7115
917.915	1841.3457	8001.7	7113.9
918.0548	1843.005	7989.1	7093.8
918.1946	1844.6636	7977.4	7082.45
918.3344	1846.3214	7958.15	7065.6
918.4742	1847.9785	7961.45	7069.85
918.6139	1849.6349	7931.1	7037.45
918.7537	1851.2904	7932.05	7027.7
918.8934	1852.9453	7881.8	6985.7
919.0331	1854.5994	7854.15	6957
919.1727	1856.2528	7862.45	6963.6
919.3124	1857.9054	7846.8	6953.2
919.452	1859.5572	7826.7	6935.05
919.5916	1861.2083	7812.5	6919.2
919.7312	1862.8587	7798.55	6905.7
919.8708	1864.5084	7786.4	6892.9
920.0103	1866.1572	7763.7	6870.05
920.1498	1867.8054	7717.25	6823.55
920.2893	1869.4528	7713.75	6817.45
920.4288	1871.0994	7700.7	6807.3
920.5683	1872.7453	7679.6	6784.6
920.7077	1874.3905	7676	6764.1
920.8471	1876.0349	7645.3	6750
920.9865	1877.6786	7633.3	6738.45
921.1259	1879.3215	7596.5	6704.85
921.2653	1880.9637	7592	6699.15
921.4046	1882.6051	7575.95	6684.15
921.5439	1884.2458	7566.55	6673.4
921.6832	1885.8858	7530.65	6640.5
921.8225	1887.525	7521.8	6630.8
921.9617	1889.1634	7510.55	6616.6
922.101	1890.8011	7485.15	6591.9
922.2402	1892.4381	7457.35	6565.15
922.3794	1894.0743	7424.45	6533.3
922.5185	1895.7098	7418.85	6526.75
922.6577	1897.3446	7412.45	6520
922.7968	1898.9786	7383.45	6488.35
922.9359	1900.6118	7367.1	6475.75
923.075	1902.2443	7328.55	6436.95
923.214	1903.8761	7312.7	6422.1
923.3531	1905.5071	7286.35	6393.9
923.4921	1907.1374	7263.9	6372.95
923.6311	1908.7669	7271.3	6381.55
923.77	1910.3957	7236.55	6346.8
923.909	1912.0237	7187.7	6296.35
924.0479	1913.651	7199.45	6306.35
924.1868	1915.2776	7192.8	6305
924.3257	1916.9034	7133.5	6243.65
924.4646	1918.5285	7116.15	6229.1
924.6034	1920.1528	7067.3	6176.55
924.7422	1921.7764	7070.1	6178.15
924.881	1923.3992	7060.95	6169.1
925.0198	1925.0213	6990.85	6102.15
925.1586	1926.6427	6968.05	6077.85
925.2973	1928.2633	7046.25	6057.3
925.436	1929.8832	6972.3	6078.8
925.5747	1931.5023	6934.1	6044.25
925.7134	1933.1207	6902.15	6012.05
925.852	1934.7383	6894.85	6006.8
925.9906	1936.3552	6877.75	5987.55
926.1292	1937.9714	6851.4	5960.85
926.2678	1939.5868	6816.75	5922.75
926.4064	1941.2015	6792	5900.2
926.5449	1942.8154	6766.35	5873.45
926.6834	1944.4286	6777.1	5883.4
926.8219	1946.041	6735	5822.8
926.9604	1947.6528	6707.45	5810.2
927.0988	1949.2637	6685.6	5794.95
927.2372	1950.8739	6675.15	5785.55
927.3756	1952.4834	6650.5	5761.8
927.514	1954.0921	6652.8	5763.1
927.6523	1955.7001	6610.7	5716.7
927.7907	1957.3074	6575.4	5688.5
927.929	1958.9139	6546.3	5661.5
928.0673	1960.5197	6543.3	5653.85
928.2055	1962.1247	6517.75	5630.95
928.3438	1963.729	6476.2	5591.5
928.482	1965.3325	6452.9	5561.5
928.6202	1966.9353	6431	5543.5
928.7584	1968.5374	6421.45	5534.35
928.8965	1970.1387	6387.7	5500.25
929.0346	1971.7393	6372.35	5486.4
929.1727	1973.3392	6363.5	5477.3
929.3108	1974.9383	6324.2	5440.05
929.4489	1976.5366	6301.55	5417.85
929.5869	1978.1342	6305.25	5419.1
929.7249	1979.7311	6296.8	5410.15
929.8629	1981.3273	6248.2	5364.7
930.0009	1982.9227	6248.8	5362.3
930.1388	1984.5173	6228.6	5347.15
930.2767	1986.1112	6203.3	5318.1
930.4146	1987.7044	6187.15	5305.3
930.5525	1989.2968	6165.55	5279.95
930.6904	1990.8885	6166.75	5281.95
930.8282	1992.4795	6151.3	5269.7
930.966	1994.0697	6122.2	5240.95
931.1038	1995.6592	6115	5232.65
931.2415	1997.2479	6093.1	5208.4
931.3793	1998.8359	6078.55	5196.75
931.517	2000.4232	6068.2	5188.5
931.6547	2002.0097	6021.65	5141.2
931.7923	2003.5955	5996.3	5116.65
931.93	2005.1805	5994.85	5113.5
932.0676	2006.7648	5990.3	5111.5
932.2052	2008.3484	5974.95	5094.15
932.3427	2009.9312	5970.6	5090.9
932.4803	2011.5133	5925.9	5046.95
932.6178	2013.0946	5936.3	5057.2
932.7553	2014.6752	5911.85	5032.2
932.8928	2016.2551	5883.05	4999.45
933.0302	2017.8342	5858.2	4978.05
933.1676	2019.4126	5869.35	4988.9
933.305	2020.9902	5833.9	4955
933.4424	2022.5672	5829.85	4953.55
933.5798	2024.1433	5816.85	4934.1
933.7171	2025.7188	5783.9	4907.95
933.8544	2027.2935	5781.75	4903.4
933.9917	2028.8674	5762.45	4885.8
934.129	2030.4406	5740.1	4863.55
934.2662	2032.0131	5726.85	4850.9
934.4034	2033.5849	5717.25	4836.3
934.5406	2035.1559	5681.9	4804.65
934.6778	2036.7261	5676.35	4796.4
934.8149	2038.2957	5671.1	4789.35
934.952	2039.8645	5669.4	4787.3
935.0891	2041.4325	5681.45	4796.3
935.2262	2042.9998	5627.05	4748.65
935.3632	2044.5664	5637.75	4755.05
935.5002	2046.1323	5605.2	4727.2
935.6372	2047.6974	5593.05	4717.75
935.7742	2049.2617	5578.85	4702.45
935.9111	2050.8254	5601.2	4687.7
936.048	2052.3883	5573.1	4690.95
936.1849	2053.9504	5524.45	4641.25
936.3218	2055.5118	5525.95	4642.35
936.4586	2057.0725	5506.15	4623.5
936.5955	2058.6325	5501.25	4620.25
936.7323	2060.1917	5481.55	4603.95
936.869	2061.7502	5467.6	4585.85
937.0058	2063.3079	5429.7	4553.75
937.1425	2064.8649	5439.95	4557.95
937.2792	2066.4212	5410.85	4530.65
937.4159	2067.9767	5405.35	4527.1
937.5525	2069.5315	5383.6	4502
937.6891	2071.0856	5363.75	4483.75
937.8257	2072.6389	5350.9	4471.9
937.9623	2074.1915	5325.8	4448.55
938.0989	2075.7433	5306.45	4425.8
938.2354	2077.2945	5287.4	4409
938.3719	2078.8448	5262.95	4382
938.5084	2080.3945	5270.2	4386.05
938.6448	2081.9434	5247.4	4365.2
938.7812	2083.4916	5225.65	4343.6
938.9176	2085.039	5212	4323.6
939.054	2086.5857	5212.75	4324.35
939.1903	2088.1317	5211.55	4324.45
939.3267	2089.677	5184.95	4296.4
939.463	2091.2215	5176.85	4288.7
939.5992	2092.7652	5167.2	4276.9
939.7355	2094.3083	5157.2	4267.25
939.8717	2095.8506	5140.35	4254.1
940.0079	2097.3921	5151.9	4266.75
940.1441	2098.933	5122.5	4239.05
940.2802	2100.4731	5110	4227.4
940.4163	2102.0124	5102.75	4211.1
940.5524	2103.5511	5089.3	4202.85
940.6885	2105.089	5084.45	4197.05
940.8245	2106.6261	5076.15	4192.4
940.9606	2108.1626	5060.85	4178.55
941.0965	2109.6983	5077.75	4165
941.2325	2111.2332	5044.7	4160
941.3684	2112.7675	5023	4134.05
941.5044	2114.301	5019.75	4132.55
941.6403	2115.8337	4998.45	4113.65
941.7761	2117.3657	4988.35	4103.7
941.912	2118.897	5007.2	4119.3
942.0478	2120.4276	4972.1	4077.6
942.1835	2121.9575	4954	4067.8
942.3193	2123.4866	4964.2	4063.25
942.455	2125.0149	4949.95	4062.45
942.5907	2126.5426	4901.3	4019.55
942.7264	2128.0695	4901.95	4018.75
942.8621	2129.5956	4868.1	3990.85
942.9977	2131.1211	4867.2	3981.6
943.1333	2132.6458	4874.3	3992
943.2689	2134.1698	4849.05	3960.9
943.4044	2135.693	4839.55	3948.5
943.54	2137.2155	4846.1	3955.8
943.6755	2138.7373	4824.4	3940.35
943.8109	2140.2584	4796.45	3913.95
943.9464	2141.7787	4796.75	3909.95
944.0818	2143.2983	4764.45	3888.45
944.2172	2144.8171	4765.75	3888.7
944.3526	2146.3353	4756.55	3876.7
944.4879	2147.8527	4726.2	3846
944.6232	2149.3693	4732.1	3848.85
944.7585	2150.8853	4709.7	3824.6
944.8938	2152.4005	4695.95	3810.55
945.029	2153.9149	4690.6	3803.85
945.1642	2155.4287	4673.85	3786.65
945.2994	2156.9417	4667.1	3779.9
945.4346	2158.454	4658.65	3774.1
945.5697	2159.9655	4623.15	3743.3
945.7048	2161.4764	4628.4	3746.1
945.8399	2162.9865	4635.6	3753.6
945.9749	2164.4958	4619.2	3736.3
946.1099	2166.0045	4602.9	3717.55
946.2449	2167.5124	4594.75	3711
946.3799	2169.0195	4576.55	3690.15
946.5148	2170.526	4582.8	3696.65
946.6498	2172.0317	4562.45	3678.05
946.7846	2173.5367	4558.7	3676.45
946.9195	2175.0409	4526.25	3643.3
947.0543	2176.5445	4533.25	3647.7
947.1891	2178.0473	4524.65	3637.7
947.3239	2179.5494	4510.85	3621
947.4587	2181.0507	4489.05	3605
947.5934	2182.5513	4490.55	3604
947.7281	2184.0512	4473.2	3588.75
947.8628	2185.5504	4462.3	3576.4
947.9974	2187.0488	4436.9	3555.5
948.132	2188.5465	4424.1	3543.45
948.2666	2190.0435	4414.85	3531.35
948.4012	2191.5397	4410.4	3525.45
948.5357	2193.0353	4399.3	3513.8
948.6702	2194.5301	4387.4	3497.45
948.8047	2196.0241	4369.6	3480.05
948.9392	2197.5175	4357.8	3467.9
949.0736	2199.0101	4354.7	3462.45
949.208	2200.502	4320.35	3435.85
949.3424	2201.9931	4315.25	3432.25
949.4767	2203.4835	4306.1	3424.45
949.611	2204.9733	4303.1	3415.9
949.7453	2206.4622	4282.05	3401.65
949.8796	2207.9505	4257.1	3372.2
950.0138	2209.438	4238.4	3358.9
950.148	2210.9248	4247.35	3364.8
950.2822	2212.4109	4230.95	3346.35
950.4164	2213.8962	4223.65	3335.25
950.5505	2215.3809	4214.55	3324.65
950.6846	2216.8648	4199.6	3307.95
950.8186	2218.3479	4189.55	3294.7
950.9527	2219.8304	4186.55	3291.6
951.0867	2221.3121	4183.2	3288.75
951.2207	2222.7931	4150.5	3263.35
951.3546	2224.2733	4140.2	3251.3
951.4886	2225.7529	4116.85	3229.9
951.6225	2227.2317	4122.4	3236.45
951.7563	2228.7098	4113.35	3232.55
951.8902	2230.1872	4096.1	3215.65
952.024	2231.6638	4068.15	3186.1
952.1578	2233.1397	4066.3	3180.45
952.2916	2234.6149	4076.1	3195.05
952.4253	2236.0894	4043.7	3159.3
952.559	2237.5632	4049.55	3157.45
952.6927	2239.0362	4043.3	3158.45
952.8263	2240.5085	4023.55	3138.9
952.9599	2241.9801	4021.35	3135
953.0935	2243.4509	3993.9	3106.3
953.2271	2244.921	3997.75	3108.4
953.3606	2246.3904	3971.55	3079.4
953.4941	2247.8591	3956.05	3067.65
953.6276	2249.3271	3957.7	3070.3
953.7611	2250.7943	3930.05	3040.9
953.8945	2252.2608	3924.9	3037.3
954.0279	2253.7266	3923.45	3037.6
954.1612	2255.1917	3908.65	3023.45
954.2946	2256.656	3897.15	3013.5
954.4279	2258.1197	3892.1	3008.5
954.5612	2259.5826	3875.15	2988.75
954.6944	2261.0447	3877.85	2992.35
954.8276	2262.5062	3868	2975.85
954.9608	2263.9669	3862	2974.1
955.094	2265.4269	3855.45	2969.85
955.2271	2266.8862	3841.6	2957
955.3602	2268.3448	3821.9	2934.15
955.4933	2269.8026	3827.55	2944.65
955.6264	2271.2598	3826.7	2945.45
955.7594	2272.7162	3813.25	2927.55
955.8924	2274.1719	3796.7	2909.8
956.0253	2275.6268	3796.25	2907.45
956.1583	2277.0811	3773.7	2887.2
956.2912	2278.5346	3768.65	2883.2
956.4241	2279.9874	3767.4	2885.9
956.5569	2281.4395	3759.55	2878.15
956.6897	2282.8908	3741.1	2852.15
956.8225	2284.3414	3740.3	2854.3
956.9553	2285.7914	3727.6	2844.65
957.088	2287.2406	3731.8	2840.9
957.2207	2288.689	3717.95	2827.75
957.3534	2290.1368	3716.95	2823.85
957.486	2291.5838	3707.55	2812.4
957.6186	2293.0302	3689.95	2799.25
957.7512	2294.4758	3666.1	2777.05
957.8838	2295.9206	3666.2	2777.1
958.0163	2297.3648	3665.25	2780.25
958.1488	2298.8082	3663.2	2778.9
958.2813	2300.251	3639.1	2751.4
958.4137	2301.693	3640.35	2751.2
958.5461	2303.1343	3647.5	2758.65
958.6785	2304.5748	3620.45	2734.1
958.8108	2306.0147	3602.3	2717.45
958.9432	2307.4538	3602.9	2718.45
959.0754	2308.8922	3584.3	2704.6
959.2077	2310.3299	3575.4	2692.45
959.3399	2311.7669	3567.7	2685.45
959.4721	2313.2031	3565.4	2680.45
959.6043	2314.6387	3557.7	2671.65
959.7365	2316.0735	3546.15	2658.45
959.8686	2317.5076	3534.7	2645.9
960.0006	2318.941	3544.95	2658.45
960.1327	2320.3737	3535.9	2647.75
960.2647	2321.8056	3520.9	2631.4
960.3967	2323.2369	3503.45	2614.8
960.5287	2324.6674	3490.95	2602.45
960.6606	2326.0972	3487.15	2597.05
960.7925	2327.5263	3474.05	2586.7
960.9244	2328.9547	3482.3	2596.4
961.0562	2330.3823	3464.5	2574.5
961.1881	2331.8092	3466.05	2573.35
961.3198	2333.2355	3456.1	2565.15
961.4516	2334.661	3441.9	2553.25
961.5833	2336.0858	3432.05	2542.95
961.715	2337.5098	3432.3	2546.6
961.8467	2338.9332	3424.75	2537.9
961.9783	2340.3558	3424.35	2535.85
962.1099	2341.7778	3403.55	2519
962.2415	2343.199	3381.55	2495.5
962.373	2344.6195	3383.45	2498.3
962.5045	2346.0393	3373.9	2489.05
962.636	2347.4583	3368.8	2482.3
962.7675	2348.8767	3367.75	2480.85
962.8989	2350.2943	3380.95	2490.95
963.0303	2351.7113	3375.5	2485.8
963.1617	2353.1275	3354.45	2464.35
963.293	2354.543	3350.45	2455.25
963.4243	2355.9578	3336.65	2448.3
963.5556	2357.3718	3308.6	2423.95
963.6868	2358.7852	3307.95	2422.55
963.818	2360.1978	3306.35	2420.8
963.9492	2361.6098	3294.55	2412.1
964.0803	2363.021	3293.2	2403.45
964.2114	2364.4315	3282.65	2395.5
964.3425	2365.8413	3267.2	2382.6
964.4736	2367.2504	3272.05	2390.35
964.6046	2368.6587	3251.95	2368.3
964.7356	2370.0664	3238.45	2355.35
964.8666	2371.4733	3236.7	2352.05
964.9975	2372.8795	3230.1	2346.45
965.1284	2374.285	3209.05	2326.9
965.2593	2375.6899	3217.15	2334.65
965.3901	2377.0939	3195.7	2310.9
965.5209	2378.4973	3177.1	2296.05
965.6517	2379.9	3169.85	2286.25
965.7825	2381.3019	3168.75	2289.55
965.9132	2382.7032	3172.3	2291.3
966.0439	2384.1037	3170.45	2290.55
966.1745	2385.5035	3140.8	2259.8
966.3051	2386.9027	3151.45	2273.5
966.4357	2388.3011	3134.55	2250.05
966.5663	2389.6987	3129.15	2248.5
966.6968	2391.0957	3112.1	2232.15
966.8273	2392.492	3098.85	2219.2
966.9578	2393.8876	3086.5	2205.55
967.0882	2395.2824	3090.1	2208.05
967.2186	2396.6765	3075.45	2194.7
967.349	2398.07	3065.9	2184
967.4793	2399.4627	3061.45	2175.9
967.6097	2400.8547	3055.15	2171.7
967.7399	2402.246	3052.3	2164.25
967.8702	2403.6366	3033.5	2151
968.0004	2405.0265	3020.35	2141.05
968.1306	2406.4156	3018.5	2132.75
968.2607	2407.8041	3012.4	2127.15
968.3909	2409.1918	3008.3	2122.85
968.521	2410.5789	2996.4	2112.7
968.651	2411.9652	2999.65	2113.8
968.781	2413.3508	2985.6	2103.1
968.911	2414.7358	2982.75	2098.9
969.041	2416.12	2956.2	2074.4
969.1709	2417.5035	2959	2077.8
969.3008	2418.8863	2953.55	2069.6
969.4307	2420.2684	2935.45	2052.75
969.5606	2421.6497	2927.9	2045.45
969.6904	2423.0304	2929.8	2048.95
969.8201	2424.4104	2927.8	2043.85
969.9499	2425.7896	2903.3	2017.25
970.0796	2427.1682	2907.75	2023.2
970.2093	2428.546	2899.75	2017.75
970.3389	2429.9232	2894.4	2008.3
970.4685	2431.2996	2891.05	2008.1
970.5981	2432.6753	2890.25	2006.8
970.7277	2434.0503	2882.65	1995.75
970.8572	2435.4246	2871.7	1991.45
970.9867	2436.7982	2866.95	1984.1
971.1161	2438.1711	2860.55	1978
971.2456	2439.5433	2847.1	1961.4
971.375	2440.9148	2841.25	1953.5
971.5043	2442.2856	2835.85	1953.2
971.6336	2443.6557	2829.65	1945.2
971.7629	2445.025	2815.55	1933.2
971.8922	2446.3937	2811.25	1926.7
972.0214	2447.7617	2802.95	1918.65
972.1506	2449.1289	2807	1923.1
972.2798	2450.4955	2794.9	1911.9
972.4089	2451.8613	2783.3	1901.1
972.538	2453.2265	2787.4	1903.85
972.6671	2454.5909	2782.5	1897.4
972.7961	2455.9546	2780.75	1899.7
972.9251	2457.3177	2757.7	1877.1
973.0541	2458.68	2759.1	1874.75
973.1831	2460.0416	2753.35	1870
973.312	2461.4025	2755.7	1868.2
973.4408	2462.7627	2762.05	1867.9
973.5697	2464.1222	2744.1	1864.4
973.6985	2465.4811	2746.95	1863.35
973.8273	2466.8392	2729.95	1847.2
973.956	2468.1966	2730.25	1844.5
974.0847	2469.5533	2730.75	1845.2
974.2134	2470.9093	2733.55	1850.25
974.3421	2472.2645	2721.6	1836.3
974.4707	2473.6191	2714.65	1832.1
974.5993	2474.973	2689.1	1804.95
974.7278	2476.3262	2693.3	1809.85
974.8563	2477.6787	2694.2	1813.15
974.9848	2479.0305	2680.1	1797.6
975.1132	2480.3816	2684.65	1799.6
975.2417	2481.7319	2673.05	1789.6
975.37	2483.0816	2664.45	1782.9
975.4984	2484.4306	2652.6	1769.3
975.6267	2485.7789	2642	1759.25
975.755	2487.1264	2629.8	1744.85
975.8833	2488.4733	2627.05	1745.25
976.0115	2489.8195	2616.85	1726.65
976.1397	2491.165	2624.1	1739.85
976.2678	2492.5097	2610.4	1727.75
976.3959	2493.8538	2598.8	1717.9
976.524	2495.1972	2604.25	1720.9
976.6521	2496.5398	2590.5	1705.6
976.7801	2497.8818	2593.4	1705.55
976.9081	2499.2231	2571.4	1686.5
977.036	2500.5637	2574.6	1688.75
977.164	2501.9035	2576.65	1692.7
977.2918	2503.2427	2568.35	1678.25
977.4197	2504.5812	2552	1668.95
977.5475	2505.919	2562.05	1674.8
977.6753	2507.256	2564.9	1682.9
977.8031	2508.5924	2546.2	1660.25
977.9308	2509.9281	2539.7	1651.6
978.0585	2511.2631	2536.25	1653
978.1861	2512.5974	2534.95	1652.8
978.3137	2513.9309	2527.05	1645.45
978.4413	2515.2638	2537.05	1627.3
978.5689	2516.596	2509.7	1624.7
978.6964	2517.9275	2500.05	1615.55
978.8239	2519.2583	2487.55	1603
978.9513	2520.5884	2490.4	1605.5
979.0788	2521.9178	2472.3	1587.35
979.2062	2523.2465	2463.45	1583.3
979.3335	2524.5745	2462.45	1579.95
979.4608	2525.9018	2478.75	1596.85
979.5881	2527.2284	2467.6	1584.05
979.7154	2528.5543	2457.1	1575.35
979.8426	2529.8796	2452	1567.15
979.9698	2531.2041	2453.65	1570.65
980.0969	2532.5279	2457.05	1575.25
980.224	2533.851	2439.35	1554.65
980.3511	2535.1735	2444.3	1561.75
980.4781	2536.4952	2433.75	1551
980.6052	2537.8163	2430.5	1545.6
980.7321	2539.1366	2431.3	1546.7
980.8591	2540.4562	2419.5	1532.35
980.986	2541.7752	2426.4	1541
981.1129	2543.0935	2419.55	1536.7
981.2397	2544.411	2409.3	1524.1
981.3665	2545.7279	2412.2	1527.6
981.4933	2547.0441	2405.3	1522.2
981.62	2548.3596	2391.6	1504.3
981.7467	2549.6744	2406.1	1521.65
981.8734	2550.9885	2392.3	1498.55
982.0001	2552.3019	2388.55	1506.4
982.1267	2553.6146	2382.4	1496.8
982.2532	2554.9266	2375.65	1491.9
982.3798	2556.2379	2367.05	1480.25
982.5063	2557.5485	2368.1	1484.75
982.6327	2558.8585	2370.65	1479.95
982.7592	2560.1677	2361.5	1472.15
982.8856	2561.4762	2368.3	1484.2
983.0119	2562.7841	2359.6	1471.6
983.1383	2564.0913	2356.85	1473.25
983.2646	2565.3977	2333.15	1448.55
983.3908	2566.7035	2338.25	1452.3
983.517	2568.0086	2347.8	1461.85
983.6432	2569.313	2335.55	1450.15
983.7694	2570.6167	2336	1447.25
983.8955	2571.9197	2338.35	1454.1
984.0216	2573.222	2327.15	1440.55
984.1476	2574.5236	2328.85	1444.05
984.2737	2575.8246	2329.85	1442.55
984.3996	2577.1248	2319.45	1431.7
984.5256	2578.4244	2310.05	1425.4
984.6515	2579.7232	2314.25	1431.6
984.7774	2581.0214	2338.8	1427.5
984.9032	2582.3189	2312.45	1429.4
985.029	2583.6157	2309.05	1420.55
985.1548	2584.9118	2298.8	1414.25
985.2806	2586.2072	2301.65	1415.6
985.4063	2587.5019	2296.85	1411.35
985.5319	2588.7959	2303.75	1416.1
985.6576	2590.0893	2311.95	1425.95
985.7832	2591.3819	2292.45	1406.9
985.9087	2592.6739	2283.15	1397.8
986.0343	2593.9652	2297.75	1410.85
986.1597	2595.2557	2283.8	1398
986.2852	2596.5456	2282.25	1396.8
986.4106	2597.8348	2275.9	1391.85
986.536	2599.1234	2268	1383.7
986.6614	2600.4112	2267.2	1383.7
986.7867	2601.6983	2283.15	1396.3
986.912	2602.9848	2266.5	1381.45
987.0372	2604.2705	2265.7	1375.85
987.1624	2605.5556	2255.3	1370.75
987.2876	2606.84	2251.1	1368.9
987.4128	2608.1237	2252.3	1367.6
987.5379	2609.4067	2246	1361.6
987.6629	2610.689	2244.3	1351.95
987.788	2611.9707	2238.2	1350.6
987.913	2613.2516	2223.75	1334.2
988.0379	2614.5319	2218.85	1334.05
988.1629	2615.8115	2203.95	1318.8
988.2878	2617.0903	2221	1335.95
988.4126	2618.3685	2204	1317.85
988.5375	2619.6461	2201.8	1315.8
988.6622	2620.9229	2197.5	1314.1
988.787	2622.199	2189.5	1303.65
988.9117	2623.4745	2191.15	1307.85
989.0364	2624.7493	2179	1295.75
989.161	2626.0234	2178.15	1294.35
989.2857	2627.2968	2186.65	1302.95
989.4102	2628.5695	2168.25	1281.9
989.5348	2629.8415	2175.25	1290.2
989.6593	2631.1128	2166.5	1281.65
989.7837	2632.3835	2153.85	1270.8
989.9082	2633.6535	2153.3	1269.15
990.0326	2634.9228	2151.8	1268.7
990.1569	2636.1914	2154.3	1271.85
990.2812	2637.4593	2147.65	1262.65
990.4055	2638.7265	2136	1251.25
990.5298	2639.9931	2137.8	1253.65
990.654	2641.259	2136.4	1249.25
990.7782	2642.5242	2141.75	1259.75
990.9023	2643.7887	2130.2	1246.15
991.0264	2645.0525	2129.25	1246.3
991.1505	2646.3156	2117.65	1234.15
991.2745	2647.5781	2114.5	1233.5
991.3985	2648.8398	2100	1215.25
991.5225	2650.1009	2120.4	1227.7
991.6464	2651.3613	2101.35	1219.1
991.7703	2652.6211	2097.45	1212.95
991.8942	2653.8801	2095.65	1213.65
992.018	2655.1385	2095.25	1207.65
992.1418	2656.3961	2094.2	1211.6
992.2655	2657.6531	2083.65	1200.1
992.3892	2658.9094	2086.45	1201.55
992.5129	2660.1651	2088.1	1204.1
992.6366	2661.42	2083.15	1198.25
992.7602	2662.6743	2089.85	1205.6
992.8837	2663.9279	2080.5	1198.05
993.0073	2665.1808	2077.3	1192.3
993.1307	2666.433	2086.1	1200.2
993.2542	2667.6846	2082.35	1198.8
993.3776	2668.9354	2069.9	1183.35
993.501	2670.1856	2087.4	1203.85
993.6244	2671.4351	2071.65	1191
993.7477	2672.6839	2073.95	1189.05
993.8709	2673.9321	2071.35	1187.85
993.9942	2675.1795	2074.2	1191.6
994.1174	2676.4263	2076.6	1192.8
994.2405	2677.6724	2073.25	1190.6
994.3637	2678.9179	2079.9	1196.35
994.4868	2680.1626	2068.5	1186.45
994.6098	2681.4067	2078.5	1195.8
994.7328	2682.6501	2066.6	1182.55
994.8558	2683.8928	2060.9	1177.85
994.9788	2685.1348	2052.75	1170.25
995.1017	2686.3761	2047.9	1165.75
995.2245	2687.6168	2036.55	1155.5
995.3474	2688.8568	2029.65	1145.5
995.4702	2690.0961	2029.2	1145.9
995.5929	2691.3348	2025.05	1142.75
995.7156	2692.5727	2020.75	1138.3
995.8383	2693.81	2021.55	1139.45
995.961	2695.0466	2014.55	1133.3
996.0836	2696.2826	2012.4	1126.9
996.2062	2697.5178	2018.8	1131.35
996.3287	2698.7524	2007.1	1123
996.4512	2699.9863	2004.5	1119.35
996.5737	2701.2195	2009.65	1130.2
996.6961	2702.452	2007.1	1125
996.8185	2703.6839	2009.75	1128.15
996.9408	2704.9151	2011	1129.5
997.0631	2706.1456	2012.5	1130.2
997.1854	2707.3755	2014.15	1128.35
997.3077	2708.6046	2017.9	1132.35
997.4299	2709.8331	2022.35	1141.05
997.552	2711.0609	2017.45	1133
997.6742	2712.2881	2045.55	1165.45
997.7963	2713.5145	2035.35	1149.9
997.9183	2714.7403	2050.7	1170.05
998.0403	2715.9654	2066.3	1185.2
998.1623	2717.1899	2069.9	1173.45
998.2842	2718.4136	2066.25	1183.85
998.4062	2719.6367	2080.2	1195.9
998.528	2720.8591	2086.05	1196.45
998.6498	2722.0809	2094.95	1211.15
998.7716	2723.3019	2104.35	1215.8
998.8934	2724.5223	2104.3	1221.5
999.0151	2725.7421	2114.85	1231.8
999.1368	2726.9611	2115.25	1230.55
999.2584	2728.1795	2110.1	1222.9
999.38	2729.3972	2104.6	1221.25
999.5016	2730.6142	2091.55	1194.45
999.6231	2731.8306	2063.3	1178.5
999.7446	2733.0462	2045.75	1160.1
999.8661	2734.2612	2033	1145.55
999.9875	2735.4756	2002.75	1118.05
1000.1089	2736.6892	1991.6	1108.15
1000.2302	2737.9022	1968.1	1085.7
1000.3515	2739.1145	1957.4	1075.15
1000.4728	2740.3262	1952.1	1061.9
1000.594	2741.5372	1929.4	1047.2
1000.7152	2742.7475	1918.9	1035.05
1000.8363	2743.9571	1917.6	1031.55
1000.9575	2745.1661	1900.35	1012.9
1001.0785	2746.3744	1885.2	1002.65
1001.1996	2747.582	1866.45	984.3
1001.3206	2748.7889	1867.5	983.45
1001.4415	2749.9952	1860.75	977.65
1001.5625	2751.2008	1848	966
1001.6833	2752.4057	1843.65	959.25
1001.8042	2753.61	1837.1	954.8
1001.925	2754.8136	1843.1	959.05
1002.0458	2756.0165	1820.6	938.15
1002.1665	2757.2188	1832.2	951.6
1002.2872	2758.4204	1827.45	944.45
1002.4078	2759.6213	1832.75	948.2
1002.5285	2760.8215	1827.85	941.65
1002.649	2762.0211	1820.9	938.3
1002.7696	2763.22	1816.4	931.85
1002.8901	2764.4182	1818.55	934.15
1003.0106	2765.6158	1806.95	925.5
1003.131	2766.8127	1804.85	924.1
1003.2514	2768.009	1800.85	917.9
1003.3717	2769.2045	1807.05	925.1
1003.492	2770.3994	1791.4	906.7
1003.6123	2771.5936	1794.15	910.4
1003.7325	2772.7872	1786.4	902.75
1003.8527	2773.9801	1784.65	901.1
1003.9729	2775.1723	1792.9	891.9
1004.093	2776.3639	1770.05	888
1004.2131	2777.5548	1770.9	886.65
1004.3331	2778.745	1768.75	885.4
1004.4531	2779.9346	1768.85	886.05
1004.5731	2781.1235	1777.25	896.35
1004.693	2782.3117	1781.3	901.4
1004.8129	2783.4992	1781.95	900
1004.9328	2784.6861	1772.75	893.75
1005.0526	2785.8723	1783.25	900.1
1005.1723	2787.0579	1797.2	913.65
1005.2921	2788.2428	1791.7	910.4
1005.4118	2789.427	1798.4	916.6
1005.5314	2790.6106	1799.5	919.35
1005.651	2791.7935	1810.55	926
1005.7706	2792.9757	1816.7	935.75
1005.8902	2794.1573	1823.45	939.35
1006.0097	2795.3382	1831.6	950.85
1006.1291	2796.5184	1853.7	973.8
1006.2485	2797.698	1860.2	977.65
1006.3679	2798.8769	1882.5	1000.9
1006.4873	2800.0551	1884.2	1002.85
1006.6066	2801.2327	1907.7	1024
1006.7258	2802.4096	1919.4	1040.4
1006.8451	2803.5859	1937.6	1055.9
1006.9642	2804.7615	1947.3	1065.3
1007.0834	2805.9364	1967.95	1088.05
1007.2025	2807.1106	1995.7	1117.8
1007.3216	2808.2842	2026	1144.75
1007.4406	2809.4572	2063.25	1182.35
1007.5596	2810.6294	2088.8	1207.3
1007.6785	2811.801	2128.85	1249.9
1007.7975	2812.972	2169.5	1289.45
1007.9163	2814.1423	2211.8	1330.9
1008.0352	2815.3119	2260	1380
1008.154	2816.4808	2301.9	1423.35
1008.2727	2817.6491	2344.35	1461.7
1008.3914	2818.8167	2394.1	1514.55
1008.5101	2819.9837	2441.85	1556.1
1008.6288	2821.15	2486.35	1606.55
1008.7474	2822.3157	2541.45	1662.35
1008.8659	2823.4807	2580.4	1699.45
1008.9844	2824.645	2636.8	1755.15
1009.1029	2825.8086	2667.05	1785.7
1009.2214	2826.9716	2701.95	1821.7
1009.3398	2828.134	2764.95	1883.4
1009.4581	2829.2957	2810.3	1929.55
1009.5764	2830.4567	2821.8	1944.55
1009.6947	2831.617	2849.55	1968.45
1009.813	2832.7767	2860	1980.95
1009.9312	2833.9358	2857.85	1978
1010.0493	2835.0941	2850.2	1968.6
1010.1675	2836.2519	2840.75	1960.8
1010.2855	2837.4089	2825.7	1943.6
1010.4036	2838.5653	2820.15	1940.45
1010.5216	2839.7211	2816.45	1938.55
1010.6396	2840.8761	2828.05	1944.8
1010.7575	2842.0306	2855.4	1976.45
1010.8754	2843.1843	2876.55	1997.05
1010.9932	2844.3374	2921.25	2041.1
1011.111	2845.4899	2975.45	2094.9
1011.2288	2846.6417	3033.75	2155.7
1011.3465	2847.7928	3124.1	2244.9
1011.4642	2848.9433	3193.45	2314.65
1011.5818	2850.0931	3278.6	2400.2
1011.6995	2851.2422	3339.05	2456.35
1011.817	2852.3907	3421.05	2540.7
1011.9345	2853.5385	3474.15	2593.05
1012.052	2854.6857	3543.85	2637.8
1012.1695	2855.8323	3583.7	2704.85
1012.2869	2856.9781	3622.8	2743.5
1012.4042	2858.1233	3671.9	2792.25
1012.5216	2859.2679	3725	2845.2
1012.6389	2860.4118	3762.15	2880.85
1012.7561	2861.555	3817.8	2933.25
1012.8733	2862.6976	3836.4	2956.05
1012.9905	2863.8395	3867.45	2988
1013.1076	2864.9808	3882.85	3001.75
1013.2247	2866.1214	3909.4	3030.5
1013.3417	2867.2614	3911.8	3032.75
1013.4587	2868.4007	3944.7	3064.2
1013.5757	2869.5393	3942.65	3060.35
1013.6926	2870.6773	3964.25	3084
1013.8095	2871.8146	3987.35	3102.8
1013.9263	2872.9513	3989.4	3106.4
1014.0431	2874.0874	3969.6	3087.55
1014.1599	2875.2227	3974	3094.05
1014.2766	2876.3574	3947.2	3068.35
1014.3933	2877.4915	3916.1	3038.9
1014.51	2878.6249	3891.2	3011.75
1014.6266	2879.7577	3873.95	2994.25
1014.7431	2880.8898	3864.3	2970.95
1014.8596	2882.0212	3834.75	2955.5
1014.9761	2883.152	3806.2	2925.65
1015.0925	2884.2821	3788.35	2910.35
1015.2089	2885.4116	3802.35	2925.4
1015.3253	2886.5405	3788.95	2910.55
1015.4416	2887.6686	3802.1	2920.3
1015.5579	2888.7962	3803.6	2926.1
1015.6741	2889.923	3810.15	2929.65
1015.7903	2891.0493	3824.15	2949.25
1015.9065	2892.1748	3829.35	2949.1
1016.0226	2893.2997	3841.95	2962.25
1016.1387	2894.424	3849.15	2970.1
1016.2547	2895.5476	3863.8	2984.95
1016.3707	2896.6706	3878.45	3000.15
1016.4866	2897.7929	3905.45	3025.4
1016.6025	2898.9145	3936.15	3058.3
1016.7184	2900.0355	3971.35	3093.05
1016.8342	2901.1559	4011.95	3131.55
1016.95	2902.2756	4050.1	3172.3
1017.0658	2903.3946	4072.75	3191.5
1017.1815	2904.513	4102.2	3221.8
1017.2971	2905.6308	4113.3	3236.6
1017.4127	2906.7479	4133.25	3252.4
1017.5283	2907.8643	4171.95	3293.45
1017.6439	2908.9801	4177.6	3300.1
1017.7594	2910.0953	4186.6	3309.05
1017.8748	2911.2098	4193.85	3312.5
1017.9902	2912.3236	4176.95	3290
1018.1056	2913.4368	4166.8	3283.8
1018.2209	2914.5494	4148.35	3268.9
1018.3362	2915.6613	4127.2	3241.95
1018.4515	2916.7725	4092.45	3212.4
1018.5667	2917.8831	4065.35	3185.75
1018.6819	2918.9931	4015.75	3134.35
1018.797	2920.1024	4006.65	3130
1018.9121	2921.211	3976.95	3098.5
1019.0271	2922.319	3956.8	3080.2
1019.1421	2923.4264	3929.6	3053.25
1019.2571	2924.5331	3909.8	3033.75
1019.372	2925.6391	3898.95	3021.6
1019.4869	2926.7445	3892.15	3013.6
1019.6017	2927.8493	3887.95	3008.65
1019.7165	2928.9534	3887.3	3006.55
1019.8313	2930.0569	3888.85	3007.75
1019.946	2931.1597	3879.75	2997.5
1020.0606	2932.2619	3863.45	2984.1
1020.1753	2933.3634	3863.9	2986.65
1020.2899	2934.4643	3848.8	2961.65
1020.4044	2935.5645	3847.05	2964.95
1020.5189	2936.6641	3805.6	2924.35
1020.6334	2937.763	3764.2	2884.55
1020.7478	2938.8613	3709.95	2828.1
1020.8622	2939.959	3665.3	2780.6
1020.9765	2941.056	3578.5	2703.35
1021.0908	2942.1523	3493.95	2616.7
1021.2051	2943.248	3406.25	2526.85
1021.3193	2944.3431	3313.85	2438.25
1021.4334	2945.4375	3227.4	2349.05
1021.5476	2946.5313	3108	2231.85
1021.6617	2947.6244	2992.1	2114.05
1021.7757	2948.7169	2910.15	2032.25
1021.8897	2949.8087	2812.3	1931.75
1022.0037	2950.8999	2719.7	1840.9
1022.1176	2951.9904	2618.95	1740.6
1022.2315	2953.0803	2563.95	1685.75
1022.3453	2954.1696	2507.15	1630.8
1022.4591	2955.2582	2441.7	1564.9
1022.5728	2956.3462	2397.05	1520.05
1022.6865	2957.4335	2353.15	1474.9
1022.8002	2958.5202	2318.5	1439.15
1022.9138	2959.6062	2291.6	1413.85
1023.0274	2960.6916	2268.6	1392.25
1023.141	2961.7764	2243.35	1364.6
1023.2545	2962.8605	2228.5	1350
1023.3679	2963.9439	2223.9	1344.45
1023.4813	2965.0267	2201.45	1322.9
1023.5947	2966.1089	2210.65	1308.65
1023.708	2967.1905	2181.8	1307.25
1023.8213	2968.2714	2184.4	1306.6
1023.9346	2969.3516	2185.85	1308.85
1024.0478	2970.4312	2185.2	1300.95
1024.1609	2971.5102	2183.4	1306.5
1024.274	2972.5885	2182.15	1305.35
1024.3871	2973.6662	2192.65	1309.95
1024.5002	2974.7432	2180.3	1303.75
1024.6132	2975.8196	2175.05	1296.9
1024.7261	2976.8954	2155.2	1279.2
1024.839	2977.9705	2144.2	1268.35
1024.9519	2979.045	2146.15	1271
1025.0647	2980.1188	2115.75	1238.8
1025.1775	2981.192	2099.55	1224.15
1025.2902	2982.2645	2073	1195.3
1025.4029	2983.3364	2047.95	1170.15
1025.5156	2984.4077	2018.45	1140.8
1025.6282	2985.4783	2002.75	1119.2
1025.7407	2986.5483	1966.5	1087.5
1025.8532	2987.6177	1928	1051.75
1025.9657	2988.6864	1889.9	1013.5
1026.0782	2989.7545	1853.75	974.85
1026.1906	2990.8219	1817.3	941.3
1026.3029	2991.8887	1781.4	902.4
1026.4152	2992.9548	1757.4	878.8
1026.5275	2994.0204	1731.15	855.15
1026.6397	2995.0852	1694.9	819.45
1026.7519	2996.1495	1667.9	790.25
1026.864	2997.2131	1633.15	754.15
1026.9761	2998.276	1619.5	744.7
1027.0882	2999.3383	1606.4	730.35
1027.2002	3000.4	1582.45	704.2
1027.3122	3001.4611	1561.4	683.95
1027.4241	3002.5215	1553.25	676.3
1027.536	3003.5812	1532.55	655.05
1027.6478	3004.6404	1526.1	650.4
1027.7596	3005.6989	1513.95	633
1027.8714	3006.7567	1504.9	629.75
1027.9831	3007.8139	1524.3	617.6
1028.0947	3008.8705	1488.25	611.6
1028.2064	3009.9264	1484.05	602.65
1028.3179	3010.9818	1476.05	598.15
1028.4295	3012.0364	1467.4	587.15
1028.541	3013.0905	1462.25	586.3
1028.6524	3014.1439	1459.55	581.05
1028.7638	3015.1966	1457.2	580.55
1028.8752	3016.2487	1451.25	574.8
1028.9865	3017.3002	1452.85	569.85
1029.0978	3018.3511	1446.65	572.65
1029.209	3019.4013	1451.55	572.3
1029.3202	3020.4509	1449.5	572.4
1029.4314	3021.4998	1443.35	566.3
1029.5425	3022.5481	1449.6	573.3
1029.6535	3023.5958	1445.2	567.3
1029.7645	3024.6428	1449.9	574.35
1029.8755	3025.6892	1447.3	573.1
1029.9864	3026.735	1453.4	578.95
1030.0973	3027.7802	1445.3	567.5
1030.2082	3028.8247	1450.95	575.55
1030.319	3029.8685	1454.15	575.3
1030.4297	3030.9118	1455.2	578.95
1030.5404	3031.9544	1454.7	577.6
1030.6511	3032.9963	1463.05	586.25
1030.7617	3034.0376	1470.75	595.1
1030.8723	3035.0783	1477.15	596.35
1030.9829	3036.1184	1475.6	597.3
1031.0934	3037.1578	1473.45	599.35
1031.2038	3038.1966	1472.1	593.95
1031.3142	3039.2348	1475.85	599.9
1031.4246	3040.2723	1470.65	587.9
1031.5349	3041.3092	1472.65	598.5
1031.6452	3042.3455	1468.9	594.7
1031.7554	3043.3811	1459.4	580.9
1031.8656	3044.4161	1458.95	582.35
1031.9758	3045.4505	1450.05	574.65
1032.0859	3046.4842	1452.75	574.35
1032.1959	3047.5173	1441.2	566.75
1032.3059	3048.5498	1442.15	563.5
1032.4159	3049.5816	1436.25	560.95
1032.5258	3050.6128	1428.2	550.15
1032.6357	3051.6434	1419.1	541.6
1032.7455	3052.6734	1415.95	536.65
1032.8553	3053.7027	1405.65	531.85
1032.9651	3054.7314	1408.1	531.55
1033.0748	3055.7594	1389.05	514.1
1033.1845	3056.7868	1394.4	515.85
1033.2941	3057.8136	1382.1	507.5
1033.4037	3058.8398	1387.2	510.25
1033.5132	3059.8653	1373.85	497.8
1033.6227	3060.8902	1374.85	498.8
1033.7321	3061.9145	1371.05	494.55
1033.8415	3062.9381	1358.3	481.8
1033.9509	3063.9612	1370.25	477.55
1034.0602	3064.9835	1351.2	475.7
1034.1694	3066.0053	1343.65	466.25
1034.2787	3067.0264	1339.4	464.9
1034.3878	3068.0469	1332.2	455
1034.497	3069.0668	1321.45	442.85
1034.6061	3070.086	1312.3	435.85
1034.7151	3071.1046	1302	424.3
1034.8241	3072.1226	1301.8	423.5
1034.9331	3073.1399	1288.65	413.05
1035.042	3074.1567	1283.95	407.2
1035.1508	3075.1727	1275.4	396.3
1035.2597	3076.1882	1256.05	379.15
1035.3684	3077.203	1252	374.5
1035.4772	3078.2173	1249.5	375.65
1035.5859	3079.2308	1239.4	358.75
1035.6945	3080.2438	1232	354.3
1035.8031	3081.2561	1218.2	342.05
1035.9117	3082.2678	1216.85	340.45
1036.0202	3083.2789	1211.1	337.6
1036.1286	3084.2893	1200.05	324.35
1036.2371	3085.2991	1197.65	320.3
1036.3454	3086.3083	1192.5	313.65
1036.4538	3087.3169	1188.45	308.95
1036.562	3088.3248	1180.95	305.45
1036.6703	3089.3321	1174.65	296.8
1036.7785	3090.3388	1166.45	291.05
1036.8866	3091.3449	1170.35	294.85
1036.9948	3092.3503	1163.45	284.2
1037.1028	3093.3551	1155.5	283.05
1037.2108	3094.3593	1153.6	278.8
1037.3188	3095.3629	1143.25	268.55
1037.4267	3096.3658	1145.85	268.5
1037.5346	3097.3681	1145.4	272.6
1037.6425	3098.3698	1141.25	266.35
1037.7503	3099.3708	1146.85	264.3
1037.858	3100.3713	1135.85	261
1037.9657	3101.3711	1127.85	253.25
1038.0734	3102.3702	1266.3	250.25
1038.181	3103.3688	1122.95	246.9
1038.2886	3104.3667	1124.65	250.1
1038.3961	3105.364	1121	244.05
1038.5036	3106.3607	1123.7	248.75
1038.611	3107.3568	1116.2	240.1
1038.7184	3108.3522	1113.65	239.05
1038.8257	3109.347	1113.15	237.8
1038.933	3110.3412	1106.7	226.85
1039.0403	3111.3348	1109.65	234.1
1039.1475	3112.3277	1105.15	228.55
1039.2547	3113.32	1103.85	228.65
1039.3618	3114.3117	1103.55	228.2
1039.4689	3115.3028	1104.9	229.15
1039.5759	3116.2932	1101.4	226.25
1039.6829	3117.2831	1095.3	213.55
1039.7898	3118.2723	1096.45	222.5
1039.8967	3119.2608	1088.25	214.5
1040.0035	3120.2488	1093.5	217.55
1040.1103	3121.2361	1086.3	211.75
1040.2171	3122.2229	1087.4	210.65
1040.3238	3123.209	1089.75	212.75
1040.4305	3124.1944	1088.8	214.35
1040.5371	3125.1793	1087.8	209.9
1040.6437	3126.1635	1082.65	210.3
1040.7502	3127.1471	1078.5	203.8
1040.8567	3128.1301	1076.85	201.95
1040.9631	3129.1125	1076.2	200.2
1041.0695	3130.0942	1074.95	200
1041.1759	3131.0753	1080.6	196.2
1041.2822	3132.0558	1075.45	197.75
1041.3884	3133.0357	1069.75	193.5
1041.4946	3134.015	1074.1	197.65
1041.6008	3134.9936	1072.45	196.45
1041.7069	3135.9716	1088.3	192.6
1041.813	3136.949	1060.75	186.1
1041.919	3137.9258	1078.45	183.3
1042.025	3138.902	1071.85	190
1042.1309	3139.8775	1062.55	187
1042.2368	3140.8524	1060.1	186.45
1042.3427	3141.8267	1057.45	178.7
1042.4485	3142.8004	1053.45	177.6
1042.5542	3143.7735	1065.5	185.05
1042.6599	3144.7459	1057.1	180.3
1042.7656	3145.7178	1056.4	179.9
1042.8712	3146.689	1054.45	179.55
1042.9768	3147.6596	1052.8	175.95
1043.0823	3148.6295	1047.8	173.3
1043.1878	3149.5989	1044.5	169.65
1043.2932	3150.5676	1047.05	172.85
1043.3986	3151.5357	1044.35	171.3
1043.5039	3152.5032	1044.4	169.35
1043.6092	3153.4701	1041.45	168.85
1043.7145	3154.4364	1046	168.7
1043.8197	3155.402	1035.1	161
1043.9248	3156.367	1040.8	162.9
1044.03	3157.3315	1059.1	158.85
1044.135	3158.2952	1037.85	164.85
1044.24	3159.2584	1038.9	161.55
1044.345	3160.221	1032.1	157.95
1044.4499	3161.1829	1037.15	164.5
1044.5548	3162.1442	1031	154.85
1044.6596	3163.105	1032.4	158.8
1044.7644	3164.065	1025.35	148.5
1044.8692	3165.0245	1032.2	156.95
1044.9739	3165.9834	1026.15	150.75
1045.0785	3166.9416	1026.35	151.9
1045.1831	3167.8993	1025.35	151.65
1045.2877	3168.8563	1024.4	149.45
1045.3922	3169.8127	1026.1	152.95
1045.4966	3170.7684	1026.05	152.25
1045.6011	3171.7236	1023.8	147.5
1045.7054	3172.6782	1021.45	147.4
1045.8098	3173.6321	1022.2	147.55
1045.914	3174.5854	1021.3	141.8
1046.0183	3175.5381	1020.45	147.6
1046.1224	3176.4902	1017.85	142.35
1046.2266	3177.4417	1014	140.9
1046.3307	3178.3926	1018	145.3
1046.4347	3179.3428	1014.8	140.25
1046.5387	3180.2924	1010.95	136.65
1046.6427	3181.2415	1013.3	140.2
1046.7466	3182.1899	1010.45	134.25
1046.8504	3183.1377	1011.75	139.65
1046.9542	3184.0848	1012.1	134.8
1047.058	3185.0314	1011.85	138.3
1047.1617	3185.9773	1012.8	138.05
1047.2654	3186.9227	1009.7	133.65
1047.369	3187.8674	1008.1	133
1047.4726	3188.8115	1009.5	129.4
1047.5761	3189.755	1005.35	132.55
1047.6796	3190.6979	1004.55	131.65
1047.783	3191.6402	1002	128.5
1047.8864	3192.5818	1002.15	127.55
1047.9898	3193.5229	1010.75	132.35
1048.0931	3194.4633	1001.8	128.15
1048.1963	3195.4031	1000.55	124.85
1048.2995	3196.3423	1000.85	125.5
1048.4027	3197.2809	1000.95	127.35
1048.5058	3198.2189	998.2	123.7
1048.6089	3199.1563	1012.6	124.25
1048.7119	3200.0931	996.3	122.85
1048.8148	3201.0292	993.2	121.2
1048.9178	3201.9648	995.4	120.3
1049.0206	3202.8997	999.5	120.7
1049.1235	3203.834	995.55	121.9
1049.2262	3204.7677	994.55	119.2
1049.329	3205.7008	995.5	120.45
1049.4317	3206.6333	995.8	121.65
1049.5343	3207.5652	996	120.2
1049.6369	3208.4964	990.65	118.25
1049.7394	3209.4271	991.5	117.75
1049.8419	3210.3571	991.8	118.1
1049.9444	3211.2865	987.4	111.35
1050.0468	3212.2154	990.4	114.65
1050.1491	3213.1436	988.1	109.45
1050.2514	3214.0712	993.75	112.7
1050.3537	3214.9982	988.5	114.35
1050.4559	3215.9246	986.75	112.75
1050.5581	3216.8503	985.65	112.3
1050.6602	3217.7755	981.25	105.45
1050.7623	3218.7001	985	112.2
1050.8643	3219.624	986.95	111.6
1050.9663	3220.5473	980.65	106.55
1051.0682	3221.4701	982.9	106.45
1051.1701	3222.3922	980.7	102.25
1051.2719	3223.3137	983.9	111
1051.3737	3224.2346	981.95	106.9
1051.4754	3225.1549	977.1	103.8
1051.5771	3226.0746	976.8	102.3
1051.6788	3226.9937	982.25	106.95
1051.7804	3227.9121	977.6	104.7
1051.8819	3228.83	979.65	104.5
1051.9834	3229.7473	974.8	99.65
1052.0849	3230.6639	977.45	102.3
1052.1863	3231.5799	975.05	101.75
1052.2876	3232.4954	975.6	102.05
1052.3889	3233.4102	972.2	97.65
1052.4902	3234.3244	976.3	103.25
1052.5914	3235.238	971.7	98.1
1052.6926	3236.151	994.75	96.3
1052.7937	3237.0634	970.75	100.55
1052.8948	3237.9752	972.85	97.25
1052.9958	3238.8864	971.9	97.6
1053.0968	3239.797	972.15	97.6
1053.1977	3240.7069	968.9	91.75
1053.2986	3241.6163	969.6	95.6
1053.3994	3242.5251	970.15	96.75
1053.5002	3243.4332	966.1	96
1053.6009	3244.3408	966.95	91.25
1053.7016	3245.2477	967.1	94.8
1053.8022	3246.154	966.25	92.7
1053.9028	3247.0598	965.75	90.9
1054.0034	3247.9649	964.5	90.7
1054.1039	3248.8694	965.85	93
1054.2043	3249.7733	966.95	93.45
1054.3047	3250.6766	962.75	89.75
1054.4051	3251.5793	963.75	87.5
1054.5054	3252.4814	960.6	87.9
1054.6056	3253.3829	959.5	87.7
1054.7058	3254.2838	957.2	83.85
1054.806	3255.1841	957.3	83.9
1054.9061	3256.0838	958.75	87.2
1055.0061	3256.9829	953.8	82
1055.1062	3257.8814	958.85	82.2
1055.2061	3258.7792	958	81.6
1055.306	3259.6765	956.8	82.75
1055.4059	3260.5731	953.3	81.05
1055.5057	3261.4692	954.75	82.5
1055.6055	3262.3647	949.9	77.5
1055.7052	3263.2595	950.5	77.35
1055.8049	3264.1538	947.55	75.35
1055.9045	3265.0474	947.6	73.85
1056.0041	3265.9404	946.15	74.8
1056.1036	3266.8329	944.75	71
1056.2031	3267.7247	953.05	70.7
1056.3025	3268.616	939.3	66.6
1056.4019	3269.5066	942.6	69.1
1056.5013	3270.3966	943.6	69.55
1056.6005	3271.286	932.9	61
