Software Version:	3.9.2.0
Unit SN:	10000200
Spectrometer SN:	6960
Date:	3/8/2024 2:15:31 PM
Data Line Index:	25
Spectral Points:	2048
Integration time (ms):	125
Averages:	20
Delay (ms):	30000
Sequence Number:	1
Processing:	dark subtract
Laser Power (mW):	300
Laser Current (mA):	823
Laser Diode Temp (C):	25
Laser Case Temp (C):	26.3
System Temp (C):	26.3
Spectrometer Temp (C):	24.2
CCD Temp (C):	0.001
Secondary Temp (C):	20.008
Heatsink Temp (C):	20.815
CCDPCB Temp (C):	36.151
SecondaryPCB Temp (C):	31.638

Wavelength	RamanShift	Raw Counts	Dark Subtracted
787.061	30.1047	461.7	51.5
787.2016	32.3739	461.65	55.05
787.3422	34.6426	468.45	60.25
787.4828	36.9109	474.5	65.6
787.6235	39.1787	484.3	70.55
787.7642	41.4461	496.5	78.1
787.9049	43.7131	500.5	81.3
788.0456	45.9796	510.45	88.4
788.1863	48.2456	523.15	98.05
788.3271	50.5112	530.4	98.3
788.4679	52.7764	540.3	105.35
788.6087	55.0411	553.35	113.85
788.7496	57.3054	564.45	118.15
788.8904	59.5692	574.7	129.75
789.0313	61.8326	585.05	137.5
789.1722	64.0955	598.75	147.35
789.3132	66.3579	615	157.05
789.4541	68.6199	636.2	174.4
789.5951	70.8815	676.1	208.7
789.7361	73.1426	756.5	287.15
789.8771	75.4032	969.1	496.35
790.0181	77.6634	1494.95	1015.95
790.1592	79.9231	2720.55	2233.8
790.3003	82.1824	5398.35	4892.1
790.4414	84.4412	10228.85	9690
790.5825	86.6995	16829.5	16248.1
790.7237	88.9574	23236.9	22617.95
790.8648	91.2148	27687.3	27044.4
791.006	93.4717	29764.15	29104.75
791.1472	95.7282	30261.65	29596.2
791.2885	97.9842	30260.85	29592.45
791.4297	100.2398	29777	29109.05
791.571	102.4949	29225.95	28555.85
791.7123	104.7495	28468.85	27796.1
791.8536	107.0036	27727.6	27053.1
791.9949	109.2573	26985.05	26308.5
792.1363	111.5105	26261.4	25584.45
792.2777	113.7632	25579.85	24899.7
792.4191	116.0154	24996.1	24302.45
792.5605	118.2672	24554.85	23870.4
792.7019	120.5185	24065.5	23376.7
792.8434	122.7693	23708.2	23019.55
792.9849	125.0197	23424.45	22727.75
793.1264	127.2696	23171.15	22472.15
793.2679	129.519	23038.8	22336.1
793.4094	131.7679	22877.7	22170.3
793.551	134.0163	22756.05	22047.9
793.6926	136.2642	22581.9	21871.3
793.8342	138.5117	22421.65	21703.2
793.9758	140.7587	22212.55	21499.55
794.1175	143.0052	22023.8	21301.15
794.2591	145.2512	21816	21096.25
794.4008	147.4967	21597	20877.7
794.5425	149.7417	21492.65	20771.35
794.6842	151.9863	21370.1	20641.05
794.826	154.2304	21295.9	20558.55
794.9677	156.4739	21176.45	20437.95
795.1095	158.717	21141.15	20402.25
795.2513	160.9596	21029	20284.4
795.3931	163.2017	20766.15	20023.05
795.535	165.4433	20517.25	19771.2
795.6768	167.6844	20177.9	19429.4
795.8187	169.925	19853.45	19100.45
795.9606	172.1651	19520.05	18770.65
796.1025	174.4047	19238.15	18489.9
796.2445	176.6439	18998.95	18245
796.3864	178.8825	18742.4	17983.5
796.5284	181.1206	18623.05	17863.5
796.6704	183.3582	18474.9	17707.35
796.8124	185.5954	18382.4	17610.8
796.9544	187.832	18303.5	17531.1
797.0965	190.0681	18295.1	17514.65
797.2386	192.3037	18289.25	17505.4
797.3806	194.5388	18323.15	17534.85
797.5228	196.7734	18368.8	17581.05
797.6649	199.0075	18458.75	17666.15
797.807	201.2411	18609.85	17818.35
797.9492	203.4742	18708.6	17920.45
798.0914	205.7068	18874.45	18079.75
798.2336	207.9389	18963.1	18164.3
798.3758	210.1704	19144.45	18355.8
798.518	212.4015	19262.45	18486.55
798.6603	214.632	19439.65	18664
798.8025	216.862	19639.65	18866.6
798.9448	219.0915	19810.05	19031.2
799.0871	221.3205	20071.45	19295.4
799.2294	223.549	20335.5	19557.45
799.3718	225.777	20665.2	19888.85
799.5141	228.0044	21082.2	20306.4
799.6565	230.2314	21525.4	20740.05
799.7989	232.4578	22004.1	21221.45
799.9413	234.6837	22363.5	21572.2
800.0837	236.909	22621	21826.25
800.2262	239.1339	22596.2	21777.35
800.3687	241.3582	22397.9	21591.35
800.5111	243.582	22057.3	21224.4
800.6536	245.8053	21697.8	20876.1
800.7961	248.0281	21359.15	20540.95
800.9387	250.2503	21144.5	20321.4
801.0812	252.472	21017.2	20191.85
801.2238	254.6932	20942.95	20118.85
801.3664	256.9139	20821.75	19999.95
801.509	259.134	20850.9	20021.2
801.6516	261.3536	20823.15	19994.9
801.7942	263.5727	20862	20030.9
801.9369	265.7912	20798.8	19968.15
802.0795	268.0092	20855.4	20027
802.2222	270.2267	20796.85	19968.4
802.3649	272.4436	20785.65	19955.85
802.5076	274.6601	20700.65	19859.95
802.6504	276.8759	20619.35	19792.55
802.7931	279.0913	20619.2	19785.1
802.9359	281.3061	20648	19812.2
803.0787	283.5204	20741.05	19898.8
803.2215	285.7341	20871	20025.95
803.3643	287.9473	21054.9	20204.1
803.5071	290.16	21280.25	20435.55
803.6499	292.3721	21568.75	20730.6
803.7928	294.5837	22047.95	21203.4
803.9357	296.7947	22407.15	21563.6
804.0786	299.0052	22584.55	21741.6
804.2215	301.2152	22472.95	21627.25
804.3644	303.4246	22142.7	21300.35
804.5074	305.6334	21641.5	20801.5
804.6503	307.8418	21099.45	20258.3
804.7933	310.0495	20688.35	19840.9
804.9363	312.2568	20414.75	19567.05
805.0793	314.4635	20195.35	19342.5
805.2223	316.6696	20079.35	19224.85
805.3653	318.8752	20120.95	19258.1
805.5084	321.0802	20154.65	19296.95
805.6514	323.2847	20290.8	19433.5
805.7945	325.4887	20359.5	19502.1
805.9376	327.692	20319.35	19457.25
806.0807	329.8949	20234.25	19375.55
806.2238	332.0972	19945.95	19081.95
806.367	334.2989	19723.9	18858.85
806.5101	336.5001	19424.3	18555.9
806.6533	338.7007	19257.9	18391.35
806.7965	340.9008	19172.5	18303.35
806.9397	343.1003	19061.25	18193.7
807.0829	345.2992	18985.4	18116.75
807.2261	347.4976	18985.35	18111.8
807.3693	349.6955	18957.3	18084.3
807.5126	351.8927	19087.9	18209.8
807.6559	354.0895	19054.2	18170.7
807.7991	356.2856	19138.95	18262.6
807.9424	358.4812	19128.1	18249.75
808.0857	360.6763	19165.35	18281.2
808.2291	362.8707	19186.65	18307.55
808.3724	365.0646	19241.8	18361.25
808.5158	367.258	19253.9	18371.9
808.6591	369.4508	19242.7	18351
808.8025	371.643	19348.1	18457.9
808.9459	373.8346	19323.2	18433.25
809.0893	376.0257	19341.35	18447.95
809.2327	378.2162	19299.15	18413.6
809.3762	380.4062	19199.1	18310.7
809.5196	382.5956	19031.15	18151.6
809.6631	384.7844	18962.85	18082.25
809.8066	386.9726	18841.7	17962.25
809.9501	389.1603	18833.5	17956.3
810.0936	391.3474	18800.25	17897.1
810.2371	393.5339	18791.8	17907.45
810.3806	395.7199	18736.4	17856.7
810.5241	397.9052	18766.45	17884.2
810.6677	400.09	18792.2	17912.95
810.8113	402.2743	18855.35	17974.45
810.9548	404.4579	18933.05	18049.3
811.0984	406.641	19130	18243.9
811.2421	408.8235	19385.8	18502.4
811.3857	411.0054	19701.5	18816.05
811.5293	413.1868	20150.3	19260.3
811.673	415.3675	20494.6	19593
811.8166	417.5477	20736.85	19839.85
811.9603	419.7273	20795.1	19901.3
812.104	421.9064	20659.95	19763.9
812.2477	424.0848	20534.25	19640.15
812.3914	426.2627	20323.45	19428.8
812.5351	428.4399	20037.35	19142.2
812.6788	430.6166	19699.7	18797.5
812.8226	432.7928	19340.3	18437.45
812.9663	434.9683	19037.6	18139.4
813.1101	437.1432	18827.6	17931.5
813.2539	439.3176	18651.05	17766.05
813.3977	441.4914	18539.8	17658
813.5415	443.6645	18511.65	17619.65
813.6853	445.8371	18442.85	17548.05
813.8291	448.0091	18426.05	17529.6
813.973	450.1806	18385.35	17494.3
814.1168	452.3514	18333.15	17441
814.2607	454.5216	18367.1	17466.65
814.4046	456.6913	18304.6	17406.4
814.5485	458.8603	18337.1	17444.95
814.6924	461.0288	18407.65	17520.55
814.8363	463.1967	18425.75	17543.55
814.9802	465.3639	18585.55	17694.6
815.1241	467.5306	18674.3	17779.25
815.2681	469.6967	18831.2	17944.8
815.412	471.8622	18977.4	18092.3
815.556	474.0271	19151.45	18260.1
815.7	476.1914	19272.75	18376.7
815.844	478.3551	19270.25	18378.25
815.988	480.5182	19229.25	18336
816.132	482.6807	19215.8	18333.95
816.276	484.8426	19311.45	18435.1
816.4201	487.0039	19585.95	18707.8
816.5641	489.1647	20031.6	19134.25
816.7082	491.3248	20487.5	19590.5
816.8522	493.4843	20707.8	19818.15
816.9963	495.6432	20699.05	19809.15
817.1404	497.8015	20632.85	19731
817.2845	499.9592	20673.65	19761.9
817.4286	502.1163	20629.95	19720.7
817.5727	504.2728	20403.45	19505.9
817.7168	506.4287	20098.05	19217.65
817.861	508.5839	19653.1	18766.7
818.0051	510.7386	19368.25	18473.45
818.1493	512.8927	19209.65	18309.3
818.2935	515.0461	19108.25	18201.65
818.4377	517.199	19064	18159.5
818.5818	519.3512	19013.35	18105.2
818.726	521.5029	19111.65	18203.9
818.8703	523.6539	19172.6	18272.1
819.0145	525.8043	19279.75	18378.15
819.1587	527.9541	19261.95	18353.35
819.303	530.1033	19253.8	18348.05
819.4472	532.2519	19324.45	18416.6
819.5915	534.3999	19452.15	18541
819.7357	536.5472	19735.9	18829.45
819.88	538.694	20230.45	19332.9
820.0243	540.8401	20874.1	19968.05
820.1686	542.9856	21389.15	20473.3
820.3129	545.1305	21594.4	20668.35
820.4572	547.2748	21486	20558.45
820.6016	549.4185	21092.95	20164.65
820.7459	551.5615	20709.8	19785.25
820.8902	553.704	20583.7	19659.9
821.0346	555.8458	20532.8	19615.05
821.1789	557.987	20545	19628
821.3233	560.1276	20517.6	19598.1
821.4677	562.2675	20534.95	19612.05
821.6121	564.4069	20548.7	19631.05
821.7565	566.5456	20559.35	19643.8
821.9009	568.6837	20477.7	19563.7
822.0453	570.8212	20199.2	19280.6
822.1897	572.958	19891.25	18977.45
822.3342	575.0942	19648.3	18740.25
822.4786	577.2299	19482.35	18575.5
822.6231	579.3648	19444.4	18549.75
822.7675	581.4992	19533.3	18653.3
822.912	583.6329	19701.5	18820.7
823.0565	585.766	19970.1	19081.55
823.201	587.8985	20136.55	19244.1
823.3454	590.0304	20140.7	19219.55
823.4899	592.1616	20085.5	19165.15
823.6345	594.2922	20005.15	19079.1
823.779	596.4222	19826.2	18904
823.9235	598.5515	19693.35	18767.9
824.068	600.6802	19531.85	18610.25
824.2126	602.8083	19369.05	18447.7
824.3571	604.9358	19341.3	18420.8
824.5017	607.0626	19269.25	18344.4
824.6462	609.1888	19251.4	18316.95
824.7908	611.3144	19205.45	18269.9
824.9354	613.4393	19082.4	18154.6
825.08	615.5636	19001.1	18068.65
825.2246	617.6873	18883.85	17956.9
825.3692	619.8103	18864.35	17931.1
825.5138	621.9327	18761	17832.65
825.6584	624.0544	18754.25	17835.45
825.803	626.1756	18732.85	17811.1
825.9477	628.2961	18725.75	17798.85
826.0923	630.4159	18646.2	17715.85
826.237	632.5351	18663.1	17732.3
826.3816	634.6537	18585.45	17651.4
826.5263	636.7716	18590.2	17654.55
826.6709	638.8889	18617.05	17677.7
826.8156	641.0056	18686.75	17747.85
826.9603	643.1216	18665.3	17725.75
827.105	645.237	18751.7	17819.55
827.2497	647.3518	18714.2	17792.8
827.3944	649.4659	18734.85	17815.3
827.5391	651.5793	18760.8	17841.35
827.6838	653.6922	18758.4	17831.25
827.8285	655.8043	18761.3	17834
827.9733	657.9159	18750.95	17826.4
828.118	660.0268	18659.9	17732.25
828.2627	662.137	18654.75	17722.55
828.4075	664.2466	18604	17665.3
828.5522	666.3556	18627.9	17688.7
828.697	668.4639	18635.3	17704.95
828.8418	670.5716	18690	17766.3
828.9865	672.6786	18771	17837.1
829.1313	674.785	18820.1	17884.35
829.2761	676.8907	18895.9	17965.15
829.4209	678.9958	18994.65	18068.7
829.5657	681.1002	18999.9	18069.55
829.7105	683.204	19001.75	18056.65
829.8553	685.3072	18966.85	18029.05
830.0001	687.4097	18871.8	17931.9
830.1449	689.5115	18840.45	17900.85
830.2898	691.6127	18787.2	17851.7
830.4346	693.7132	18753.4	17820
830.5794	695.8131	18768.45	17815.3
830.7243	697.9123	18743.8	17803.15
830.8691	700.0109	18709.4	17762.35
831.014	702.1089	18711.25	17772.95
831.1588	704.2061	18757.85	17818.85
831.3037	706.3028	18819.75	17879.1
831.4486	708.3987	18843.85	17900.35
831.5935	710.4941	18951.95	18008.7
831.7383	712.5887	19124	18186
831.8832	714.6827	19438.9	18498.8
832.0281	716.7761	19811.2	18876.3
832.173	718.8688	20153.45	19216.65
832.3179	720.9608	20370.2	19420.9
832.4628	723.0522	20483.15	19531.3
832.6077	725.1429	20254	19307.4
832.7527	727.233	19979.3	19033.5
832.8976	729.3224	19773.2	18829.95
833.0425	731.4112	19499.5	18556.8
833.1874	733.4993	19254	18310.65
833.3324	735.5867	19102.45	18160.8
833.4773	737.6735	19014.95	18075.3
833.6222	739.7596	18975.6	18033.35
833.7672	741.845	18970.85	18027.15
833.9122	743.9298	18926.8	17983.2
834.0571	746.014	18947.25	18001.1
834.2021	748.0974	18982.85	18032.7
834.347	750.1802	18996.55	18046.15
834.492	752.2624	18992.2	18040.6
834.637	754.3439	19033.8	18083.05
834.782	756.4247	19096.65	18137.95
834.9269	758.5048	19210.55	18263.15
835.0719	760.5843	19409.05	18455
835.2169	762.6631	19695.2	18742.35
835.3619	764.7413	20133.2	19181.5
835.5069	766.8188	20727.7	19775.7
835.6519	768.8956	21233.45	20282.2
835.7969	770.9718	21522.7	20571.15
835.9419	773.0473	21361.95	20413.05
836.0869	775.1221	21075.6	20126.35
836.232	777.1962	20696.25	19744.6
836.377	779.2697	20543	19589.7
836.522	781.3426	20559.4	19593.85
836.667	783.4147	20803.55	19853.45
836.8121	785.4862	21140	20185.55
836.9571	787.557	21163.45	20209.15
837.1021	789.6271	20880.9	19925.35
837.2472	791.6966	20312.55	19361.7
837.3922	793.7654	19822.1	18867.3
837.5373	795.8335	19500.65	18549.5
837.6823	797.901	19301.25	18349.6
837.8274	799.9678	19304.25	18348.65
837.9724	802.0339	19314.45	18358.95
838.1175	804.0993	19411.4	18446.75
838.2626	806.1641	19387.5	18433.55
838.4076	808.2282	19331.95	18377.9
838.5527	810.2916	19253.05	18299.35
838.6978	812.3544	19216.15	18265.25
838.8428	814.4164	19074.05	18121.15
838.9879	816.4778	19133.05	18176.7
839.133	818.5385	19118.65	18158.85
839.2781	820.5986	19196.65	18237.65
839.4232	822.658	19322.65	18366.3
839.5682	824.7166	19394.8	18440.85
839.7133	826.7747	19656.2	18698.15
839.8584	828.832	19843.5	18887.25
840.0035	830.8886	19956.8	18994.3
840.1486	832.9446	20092.05	19129.85
840.2937	834.9999	20144.1	19182.9
840.4388	837.0545	20222.95	19258.5
840.5839	839.1085	20206.6	19245.9
840.729	841.1618	20194.3	19232.95
840.8741	843.2143	20177.45	19216.25
841.0192	845.2662	20081.55	19119.65
841.1643	847.3175	20042.75	19081.15
841.3095	849.368	19948.35	18988.55
841.4546	851.4179	19849.05	18889.9
841.5997	853.467	19710.4	18750.7
841.7448	855.5155	19620.8	18663.35
841.8899	857.5633	19519.5	18559.7
842.0351	859.6105	19383.9	18423.4
842.1802	861.6569	19401.65	18437.75
842.3253	863.7027	19372.9	18412.65
842.4704	865.7478	19325.95	18364.45
842.6156	867.7922	19321.9	18359.3
842.7607	869.8359	19390.15	18427.7
842.9058	871.8789	19540.9	18582.35
843.0509	873.9212	19746.1	18755.3
843.1961	875.9629	19850.7	18892.85
843.3412	878.0039	20056.1	19090.1
843.4863	880.0441	20184	19225.05
843.6315	882.0837	20220.3	19260.1
843.7766	884.1226	20154.25	19197.05
843.9218	886.1609	20013.35	19056.3
844.0669	888.1984	19951.9	18992.7
844.212	890.2352	19977.65	19018.45
844.3572	892.2714	19920.95	18950.8
844.5023	894.3069	19909.7	18945.55
844.6475	896.3416	19856.85	18894.15
844.7926	898.3757	19853.1	18886.55
844.9377	900.4091	19876.35	18916.3
845.0829	902.4418	19869.5	18902.6
845.228	904.4739	19862.3	18893.75
845.3732	906.5052	19874.3	18905.35
845.5183	908.5358	19805.1	18841.55
845.6635	910.5658	19655.4	18690.3
845.8086	912.595	19505.6	18536.7
845.9538	914.6236	19368.25	18401.4
846.0989	916.6515	19344.75	18384.05
846.2441	918.6786	19361.35	18396.45
846.3892	920.7051	19442.5	18476.2
846.5344	922.7309	19594.25	18626
846.6795	924.756	19613.1	18650.2
846.8246	926.7804	19708.95	18741.7
846.9698	928.8041	19634.85	18672.05
847.1149	930.8272	19722.15	18756.55
847.2601	932.8495	19617.1	18651.2
847.4052	934.8711	19599.3	18632.3
847.5504	936.892	19407.7	18442.4
847.6955	938.9123	19255.35	18289.75
847.8407	940.9318	19145.7	18181.05
847.9858	942.9506	19045.55	18079.55
848.131	944.9688	18935.6	17970.4
848.2761	946.9862	18916.6	17947.15
848.4213	949.003	18847.2	17881.55
848.5664	951.019	18825.5	17859.25
848.7115	953.0344	18851.55	17886.05
848.8567	955.0491	18901.35	17934.35
849.0018	957.063	19030.4	18065.15
849.147	959.0763	19156.45	18192.7
849.2921	961.0888	19176.75	18215.75
849.4373	963.1007	19296.05	18333.7
849.5824	965.1119	19361.65	18410.8
849.7275	967.1223	19370.7	18429.2
849.8727	969.1321	19405.75	18457.85
850.0178	971.1412	19448.45	18494.35
850.1629	973.1495	19493.95	18533.25
850.3081	975.1572	19573.75	18572.2
850.4532	977.1641	19560.65	18597.1
850.5983	979.1704	19527.85	18558.3
850.7435	981.1759	19541.05	18571.75
850.8886	983.1808	19613.7	18650.75
851.0337	985.1849	19667.8	18690.15
851.1788	987.1884	19845.05	18878
851.324	989.1911	20031.05	19067.9
851.4691	991.1932	20125.3	19161.95
851.6142	993.1945	20201.35	19239.05
851.7593	995.1951	20135.25	19174.05
851.9045	997.1951	20088.9	19120.75
852.0496	999.1943	20054.05	19088.75
852.1947	1001.1928	20003.55	19036.9
852.3398	1003.1906	19929.65	18967.5
852.4849	1005.1877	20017.1	19054.15
852.63	1007.1841	19985.95	19023.35
852.7751	1009.1798	19909.9	18948.45
852.9202	1011.1748	19699.6	18731.65
853.0653	1013.1691	19521.35	18557.3
853.2104	1015.1627	19303.8	18341.45
853.3555	1017.1556	19065.35	18106.5
853.5006	1019.1477	18994.6	18035.25
853.6457	1021.1392	18879.7	17926.95
853.7908	1023.1299	18850.9	17905.65
853.9359	1025.12	18875.2	17933.7
854.081	1027.1093	18861.05	17934.05
854.2261	1029.0979	19014.85	18087.9
854.3712	1031.0859	19066.35	18132.6
854.5163	1033.0731	19037.05	18092.45
854.6613	1035.0596	18999.4	18045.2
854.8064	1037.0454	18799.6	17845.35
854.9515	1039.0304	18731.2	17775.55
855.0965	1041.0148	18564.1	17605.75
855.2416	1042.9985	18490.1	17527.3
855.3867	1044.9814	18488.2	17527.95
855.5317	1046.9636	18428.4	17469.35
855.6768	1048.9452	18411.75	17457.15
855.8219	1050.926	18424.2	17466.55
855.9669	1052.9061	18409.3	17451.2
856.112	1054.8855	18381.6	17422.55
856.257	1056.8642	18460.1	17498.1
856.4021	1058.8421	18520.45	17555.65
856.5471	1060.8194	18587.6	17625.6
856.6921	1062.7959	18589.55	17627.25
856.8372	1064.7717	18597.1	17633.9
856.9822	1066.7469	18587.55	17625.4
857.1272	1068.7213	18609.4	17645.35
857.2723	1070.695	18615.65	17655.45
857.4173	1072.6679	18493.2	17529.3
857.5623	1074.6402	18449.6	17485.2
857.7073	1076.6117	18480.65	17514.45
857.8523	1078.5826	18490.9	17526.25
857.9973	1080.5527	18477.75	17513.3
858.1423	1082.5221	18566.7	17606.65
858.2873	1084.4908	18762.15	17801.4
858.4323	1086.4587	18973.8	18012
858.5773	1088.426	19107.2	18143.6
858.7223	1090.3925	19068.3	18098.7
858.8673	1092.3584	19069.6	18113.3
859.0123	1094.3235	18901.65	17944
859.1573	1096.2879	18783.95	17821.75
859.3022	1098.2515	18789.05	17829.65
859.4472	1100.2145	18870.4	17910
859.5922	1102.1767	18954.85	17993.4
859.7371	1104.1382	19069.35	18108.8
859.8821	1106.099	19285.45	18324.75
860.027	1108.0591	19512.9	18551.1
860.172	1110.0185	19659.9	18696.95
860.3169	1111.9771	19646.7	18684.4
860.4619	1113.9351	19428.5	18465.25
860.6068	1115.8923	19148.75	18186.9
860.7517	1117.8488	18830.55	17867.75
860.8967	1119.8045	18504	17547.6
861.0416	1121.7596	18446.5	17487.4
861.1865	1123.7139	18373.55	17415.6
861.3314	1125.6675	18359.6	17402.9
861.4763	1127.6204	18453.6	17496.95
861.6212	1129.5726	18413.25	17452.45
861.7661	1131.524	18434.75	17475.8
861.911	1133.4748	18412	17451.4
862.0559	1135.4248	18377.1	17415.45
862.2008	1137.3741	18390.15	17429.6
862.3457	1139.3226	18353.85	17395.5
862.4905	1141.2705	18349.4	17387.95
862.6354	1143.2176	18237.2	17269.95
862.7803	1145.164	18248.15	17284.05
862.9251	1147.1097	18265	17304.65
863.07	1149.0546	18262.6	17298.05
863.2148	1150.9989	18199.3	17237.9
863.3597	1152.9424	18046.7	17085.6
863.5045	1154.8852	17875.6	16914.5
863.6493	1156.8272	17776.85	16814.9
863.7942	1158.7686	17749	16780.95
863.939	1160.7092	17691.25	16731.9
864.0838	1162.6491	17665.85	16704.2
864.2286	1164.5883	17730.4	16770.25
864.3734	1166.5267	17826.7	16864.6
864.5182	1168.4644	17959.4	17000.3
864.663	1170.4014	18130.65	17168.4
864.8078	1172.3377	18384.15	17428.95
864.9526	1174.2732	18607	17650.7
865.0974	1176.2081	18839.2	17884
865.2421	1178.1421	19066.85	18104.95
865.3869	1180.0755	19272.25	18315.2
865.5317	1182.0082	19333.2	18376.25
865.6764	1183.9401	19321.7	18369.65
865.8212	1185.8713	19207.65	18261
865.9659	1187.8017	18907.6	17969.7
866.1106	1189.7315	18677.05	17748.3
866.2554	1191.6605	18354	17421.15
866.4001	1193.5888	18133.35	17196.1
866.5448	1195.5163	18038.4	17093.05
866.6895	1197.4432	17929	16980.95
866.8342	1199.3693	17886.7	16932.55
866.9789	1201.2947	17862.45	16902.9
867.1236	1203.2193	17796.15	16839.8
867.2683	1205.1432	17820.25	16864.15
867.413	1207.0664	17840.95	16891.7
867.5576	1208.9889	17856.3	16898.35
867.7023	1210.9106	17925.3	16970.45
867.847	1212.8316	17967	17012.95
867.9916	1214.7519	18044.65	17080.9
868.1363	1216.6715	18032.2	17078.85
868.2809	1218.5903	18054.35	17099
868.4255	1220.5084	17979.15	17025.4
868.5701	1222.4257	17988.6	17035.4
868.7148	1224.3424	17903.2	16951.1
868.8594	1226.2583	17905.05	16952.2
869.004	1228.1735	18013.6	17062.75
869.1486	1230.0879	18112.3	17159.55
869.2932	1232.0016	18209.6	17256.5
869.4377	1233.9146	18227.6	17267
869.5823	1235.8269	18146.55	17195.65
869.7269	1237.7384	18033.95	17080.8
869.8715	1239.6492	17810.05	16855.8
870.016	1241.5592	17725.9	16771.95
870.1606	1243.4686	17610.25	16659.8
870.3051	1245.3772	17607.7	16654.3
870.4496	1247.285	17574.6	16622.55
870.5941	1249.1922	17523.4	16571.7
870.7387	1251.0986	17504.3	16555.7
870.8832	1253.0042	17520.1	16572.65
871.0277	1254.9092	17535.55	16584.7
871.1722	1256.8134	17615	16667.8
871.3167	1258.7169	17753.9	16803.5
871.4611	1260.6196	17914.7	16966.55
871.6056	1262.5216	18129.65	17177.85
871.7501	1264.4229	18248.05	17298.45
871.8945	1266.3234	18387.9	17435.7
872.039	1268.2232	18463	17509.65
872.1834	1270.1223	18457.5	17506.55
872.3278	1272.0207	18397.95	17442.5
872.4723	1273.9183	18399.5	17441.9
872.6167	1275.8151	18329.65	17378.75
872.7611	1277.7113	18239.3	17292.2
872.9055	1279.6067	18106.2	17159.05
873.0499	1281.5014	17980.5	17027.9
873.1943	1283.3953	17915.7	16966.6
873.3386	1285.2885	17897.5	16949.1
873.483	1287.181	17909.65	16962.65
873.6274	1289.0727	17989.2	17043.35
873.7717	1290.9637	18033.7	17086.15
873.9161	1292.854	18191.45	17240.35
874.0604	1294.7435	18303.15	17356.55
874.2047	1296.6323	18479.85	17529
874.349	1298.5204	18740.9	17788.15
874.4933	1300.4077	18959.45	18010.05
874.6376	1302.2943	19156.45	18205.95
874.7819	1304.1802	19194.35	18248
874.9262	1306.0653	19001.4	18053.55
875.0705	1307.9497	18850.4	17904.05
875.2147	1309.8333	18749.35	17801.05
875.359	1311.7162	18637.9	17689.15
875.5032	1313.5984	18641.45	17689.6
875.6475	1315.4798	18684.75	17726.4
875.7917	1317.3605	18779.6	17812.45
875.9359	1319.2405	18837.9	17885
876.0801	1321.1197	18803.8	17854.3
876.2243	1322.9982	18663.1	17707.8
876.3685	1324.876	18604.3	17656.15
876.5127	1326.753	18506.45	17559.4
876.6569	1328.6293	18509.6	17555.35
876.801	1330.5048	18490.8	17540.8
876.9452	1332.3796	18426.55	17476.3
877.0893	1334.2537	18416.1	17442.65
877.2335	1336.127	18327.05	17380.65
877.3776	1337.9996	18287.05	17337.55
877.5217	1339.8714	18218.45	17267.95
877.6658	1341.7426	18214.85	17217.75
877.8099	1343.6129	18187.7	17234.3
877.954	1345.4826	18107.65	17154.95
878.0981	1347.3515	18080.6	17126.4
878.2422	1349.2196	18035.35	17086.3
878.3862	1351.087	18015.05	17065
878.5303	1352.9537	18054.55	17105.95
878.6743	1354.8197	18176.65	17224.45
878.8184	1356.6849	18324.15	17372.55
878.9624	1358.5493	18416.45	17465.35
879.1064	1360.4131	18425.25	17476.55
879.2504	1362.276	18339.5	17389.25
879.3944	1364.1383	18220.7	17271.6
879.5384	1365.9998	17972.8	17020.05
879.6823	1367.8606	17661.2	16708.4
879.8263	1369.7206	17339.05	16391.1
879.9702	1371.5799	17110.85	16156.45
880.1142	1373.4384	16960.5	16013.1
880.2581	1375.2962	16816.75	15866.8
880.402	1377.1533	16542.85	15597.45
880.5459	1379.0096	16201.6	15257.05
880.6898	1380.8652	15924.05	14983.85
880.8337	1382.7201	15689.95	14743.95
880.9776	1384.5742	15441.6	14497.25
881.1215	1386.4275	15272.55	14327.6
881.2653	1388.2802	15136.05	14189.7
881.4092	1390.132	14958.75	14009.4
881.553	1391.9832	14943.6	13996.65
881.6968	1393.8336	14834.3	13886.85
881.8406	1395.6832	14808.65	13858.9
881.9844	1397.5322	14704.1	13758.75
882.1282	1399.3803	14700.65	13749.45
882.272	1401.2278	14617.4	13669.05
882.4158	1403.0745	14607.85	13665.1
882.5595	1404.9204	14555.85	13614.55
882.7033	1406.7656	14559.45	13612.95
882.847	1408.6101	14528.55	13581.4
882.9908	1410.4538	14552.25	13601.7
883.1345	1412.2968	14604	13658.15
883.2782	1414.139	14616	13670.2
883.4219	1415.9805	14697.8	13752.4
883.5656	1417.8213	14740.9	13789.3
883.7092	1419.6613	14837.4	13894.05
883.8529	1421.5006	14999.45	14055.45
883.9965	1423.3391	15247.4	14303.65
884.1402	1425.1769	15552.85	14606.85
884.2838	1427.0139	16004.7	15055.4
884.4274	1428.8502	16574.4	15628.8
884.571	1430.6858	17133.35	16186.55
884.7146	1432.5206	17493.35	16546.7
884.8582	1434.3547	17792.15	16845.3
885.0018	1436.188	17774.3	16827.75
885.1453	1438.0206	17671.6	16726.35
885.2889	1439.8524	17523.7	16579.55
885.4324	1441.6835	17401.9	16459.15
885.5759	1443.5139	17319.25	16372.7
885.7194	1445.3435	17202.55	16262.45
885.8629	1447.1724	17127.65	16187.1
886.0064	1449.0005	17060.2	16116.5
886.1499	1450.8279	16975.7	16032.95
886.2933	1452.6545	16929.65	15985.65
886.4368	1454.4804	16917.55	15979.75
886.5802	1456.3056	16909.55	15963.65
886.7237	1458.13	16797.65	15856.4
886.8671	1459.9536	16618.6	15679.15
887.0105	1461.7766	16281	15340.05
887.1539	1463.5987	15864.2	14920.3
887.2972	1465.4202	15464.8	14518.75
887.4406	1467.2409	15090.15	14145.95
887.584	1469.0608	14812.35	13867.85
887.7273	1470.88	14530.4	13587.9
887.8706	1472.6984	14308.95	13367.95
888.0139	1474.5161	14089.75	13147.55
888.1572	1476.3331	13920.5	12976.6
888.3005	1478.1493	13816.3	12871.25
888.4438	1479.9648	13705.55	12762.35
888.5871	1481.7795	13623	12681.1
888.7303	1483.5935	13520.5	12576.3
888.8736	1485.4067	13408.05	12464.35
889.0168	1487.2192	13371.4	12428.05
889.16	1489.031	13339.15	12391
889.3032	1490.842	13273.3	12334
889.4464	1492.6522	13245.9	12306.6
889.5896	1494.4618	13210.85	12267.9
889.7327	1496.2705	13148.8	12207.55
889.8759	1498.0785	13113.85	12173.65
890.019	1499.8858	13086.55	12142
890.1622	1501.6924	13060.6	12120.55
890.3053	1503.4981	13015.5	12072
890.4484	1505.3032	12977.35	12036.1
890.5914	1507.1075	12924.85	11984.5
890.7345	1508.911	12871.6	11932.35
890.8776	1510.7138	12857.8	11918.6
891.0206	1512.5159	12773.1	11832.05
891.1637	1514.3172	12733.8	11795.3
891.3067	1516.1178	12665.05	11726.25
891.4497	1517.9176	12649.2	11706.95
891.5927	1519.7166	12572.8	11634.55
891.7357	1521.515	12534.3	11591.4
891.8786	1523.3126	12502.95	11564.7
892.0216	1525.1094	12451.1	11511.65
892.1645	1526.9055	12391.95	11457.25
892.3074	1528.7008	12352.3	11413.05
892.4503	1530.4954	12258.75	11321.35
892.5932	1532.2893	12267.35	11334.5
892.7361	1534.0824	12197.6	11262.6
892.879	1535.8747	12179.2	11246.8
893.0218	1537.6663	12163.2	11232.55
893.1647	1539.4572	12128.55	11197.15
893.3075	1541.2473	12136.8	11205.25
893.4503	1543.0367	12109.15	11176.15
893.5931	1544.8253	12071	11129.8
893.7359	1546.6132	12089.05	11151
893.8787	1548.4003	12040.75	11096.3
894.0214	1550.1867	12048.7	11108.6
894.1642	1551.9723	12067.4	11134.65
894.3069	1553.7572	12093.1	11165.15
894.4496	1555.5414	12097.55	11170.55
894.5923	1557.3247	12134.15	11207.65
894.735	1559.1074	12173.8	11250.45
894.8777	1560.8893	12215.8	11291.8
895.0204	1562.6705	12296.65	11370.35
895.163	1564.4509	12339.55	11417.05
895.3056	1566.2305	12363.45	11443.8
895.4482	1568.0094	12450.5	11529.15
895.5908	1569.7876	12483.5	11563.25
895.7334	1571.565	12480.2	11554.95
895.876	1573.3417	12548.65	11623.45
896.0186	1575.1176	12515.3	11594.05
896.1611	1576.8928	12443.5	11523.95
896.3036	1578.6672	12331.7	11421.65
896.4461	1580.4409	12225.15	11315.65
896.5886	1582.2138	12106.95	11189.75
896.7311	1583.986	11984.4	11065.8
896.8736	1585.7575	11922.75	11002.9
897.0161	1587.5282	11811.9	10896.7
897.1585	1589.2981	11787.4	10878
897.3009	1591.0673	11699.25	10787.3
897.4433	1592.8358	11705.4	10792.9
897.5857	1594.6035	11721.65	10803.5
897.7281	1596.3704	11732.65	10810.4
897.8705	1598.1366	11748.25	10831.4
898.0128	1599.9021	11755.8	10840.35
898.1551	1601.6668	11794.2	10874.5
898.2975	1603.4308	11866.65	10946.1
898.4398	1605.194	11938.05	11015.55
898.5821	1606.9564	12033.4	11125.4
898.7243	1608.7182	12145.7	11242.05
898.8666	1610.4791	12273.6	11377.05
899.0088	1612.2394	12397.35	11500.05
899.1511	1613.9988	12567.25	11667.95
899.2933	1615.7576	12775.05	11867.05
899.4355	1617.5156	13001.6	12081.15
899.5776	1619.2728	13163.6	12242.9
899.7198	1621.0293	13275	12357.9
899.862	1622.785	13307.95	12392.35
900.0041	1624.54	13194.7	12287.35
900.1462	1626.2942	13034.25	12127.05
900.2883	1628.0477	12777.15	11866.95
900.4304	1629.8005	12541.8	11629.7
900.5725	1631.5525	12327.4	11420.25
900.7145	1633.3037	12125.3	11219.85
900.8566	1635.0542	11990.8	11083.95
900.9986	1636.804	11855	10947.2
901.1406	1638.553	11873.4	10874.8
901.2826	1640.3013	11752.1	10841.25
901.4245	1642.0488	11684	10774
901.5665	1643.7955	11713.45	10811.5
901.7085	1645.5416	11755.5	10849.45
901.8504	1647.2868	11786.8	10880.5
901.9923	1649.0313	11875.25	10967.35
902.1342	1650.7751	12033.95	11124.35
902.2761	1652.5181	12166.9	11264.1
902.4179	1654.2604	12324.45	11418.9
902.5598	1656.0019	12587.75	11684.65
902.7016	1657.7427	12880.05	11974.1
902.8434	1659.4828	13207.9	12300.75
902.9852	1661.222	13393.45	12482.95
903.127	1662.9606	13354.15	12443.9
903.2687	1664.6984	13173.6	12259.8
903.4105	1666.4354	12795.4	11881.8
903.5522	1668.1717	12291.35	11376.2
903.6939	1669.9072	11790.65	10879.45
903.8356	1671.642	11342.7	10428.55
903.9773	1673.3761	10999.8	10089.1
904.119	1675.1094	10725.35	9815.3
904.2606	1676.8419	10515.4	9607.1
904.4022	1678.5737	10346.9	9435.45
904.5439	1680.3048	10189.4	9279.45
904.6855	1682.0351	10058.4	9149.05
904.827	1683.7646	9953.25	9039.45
904.9686	1685.4934	9906.45	8996.6
905.1101	1687.2215	9831.95	8925.3
905.2517	1688.9488	9741.15	8834.85
905.3932	1690.6754	9667.4	8760.95
905.5347	1692.4012	9651.6	8741
905.6761	1694.1263	9611.7	8699.7
905.8176	1695.8506	9545.55	8636.7
905.9591	1697.5742	9504.55	8600.55
906.1005	1699.297	9453.45	8552.15
906.2419	1701.0191	9390	8488.2
906.3833	1702.7404	9344.85	8445.5
906.5246	1704.461	9316.9	8412.6
906.666	1706.1808	9244.1	8338.75
906.8073	1707.8999	9208.35	8303.5
906.9487	1709.6182	9192	8293.95
907.09	1711.3358	9160.25	8262.4
907.2313	1713.0527	9104.05	8209
907.3725	1714.7688	9088.4	8183.4
907.5138	1716.4841	9037.3	8131.75
907.655	1718.1987	9028.15	8121.05
907.7962	1719.9126	8993.05	8095.15
907.9374	1721.6257	8940.6	8041.9
908.0786	1723.338	8937	8040.25
908.2198	1725.0496	8890	7988.85
908.3609	1726.7605	8870.6	7971.25
908.502	1728.4706	8828.45	7928.55
908.6431	1730.18	8791.85	7895.7
908.7842	1731.8886	8758.45	7865.2
908.9253	1733.5964	8761.9	7845
909.0664	1735.3036	8723.15	7821.45
909.2074	1737.0099	8708.8	7810.9
909.3484	1738.7156	8677.55	7781.8
909.4894	1740.4204	8614.45	7713.45
909.6304	1742.1246	8577.8	7676.2
909.7714	1743.8279	8571.6	7674.35
909.9123	1745.5306	8547.3	7652.5
910.0532	1747.2325	8518.6	7621.85
910.1941	1748.9336	8517.05	7620.95
910.335	1750.634	8472.9	7571.4
910.4759	1752.3336	8425	7526.45
910.6168	1754.0325	8430.25	7536.1
910.7576	1755.7307	8421.35	7526
910.8984	1757.4281	8388.95	7491.6
911.0392	1759.1247	8387.4	7477.1
911.18	1760.8206	8366.95	7460.75
911.3208	1762.5158	8359.75	7453.5
911.4615	1764.2102	8315.55	7416.1
911.6022	1765.9039	8284.3	7387.7
911.7429	1767.5968	8251.65	7357.6
911.8836	1769.289	8225.2	7330.4
912.0243	1770.9804	8216.05	7317
912.1649	1772.6711	8213.3	7310.85
912.3056	1774.361	8157.4	7251.8
912.4462	1776.0502	8141.8	7240.4
912.5868	1777.7386	8130.55	7227.85
912.7274	1779.4263	8110.15	7209.85
912.8679	1781.1132	8110	7217.6
913.0084	1782.7994	8068.55	7178.75
913.149	1784.4849	8091.8	7199.6
913.2895	1786.1696	8018.75	7119.25
913.4299	1787.8535	8002.85	7109.3
913.5704	1789.5367	7980.7	7088.1
913.7108	1791.2192	7960.25	7068.7
913.8513	1792.9009	7954.55	7033.3
913.9917	1794.5818	7919.55	7019.5
914.132	1796.2621	7924.05	7028.2
914.2724	1797.9415	7912.45	7011.65
914.4128	1799.6202	7882.1	6983.9
914.5531	1801.2982	7870.9	6973.75
914.6934	1802.9755	7846.85	6945.5
914.8337	1804.6519	7853.5	6954.95
914.9739	1806.3277	7804.1	6907.6
915.1142	1808.0027	7769.85	6877.4
915.2544	1809.6769	7750.25	6861.4
915.3946	1811.3504	7719.75	6827.45
915.5348	1813.0231	7710.6	6821.65
915.675	1814.6951	7703.5	6809.65
915.8151	1816.3664	7709.25	6812.75
915.9553	1818.0369	7681	6782
916.0954	1819.7067	7645.75	6749
916.2355	1821.3757	7643.85	6745.95
916.3755	1823.044	7613.6	6717.15
916.5156	1824.7115	7622.35	6723.4
916.6556	1826.3783	7579.75	6684.2
916.7956	1828.0443	7564.5	6669.3
916.9356	1829.7096	7528.25	6634
917.0756	1831.3741	7538.3	6639.75
917.2155	1833.0379	7514.95	6621.7
917.3555	1834.701	7457.9	6566.1
917.4954	1836.3633	7462.25	6574.2
917.6353	1838.0248	7462.95	6569.15
917.7751	1839.6856	7440.3	6547.1
917.915	1841.3457	7431.5	6535.75
918.0548	1843.005	7417.2	6521.15
918.1946	1844.6636	7411.25	6515.15
918.3344	1846.3214	7384.35	6489
918.4742	1847.9785	7391.45	6499.05
918.6139	1849.6349	7363.5	6467.15
918.7537	1851.2904	7389.1	6484
918.8934	1852.9453	7323.9	6425.75
919.0331	1854.5994	7306.25	6404.1
919.1727	1856.2528	7307.45	6403.35
919.3124	1857.9054	7293	6393.8
919.452	1859.5572	7266.7	6373.7
919.5916	1861.2083	7256.05	6359.05
919.7312	1862.8587	7251.55	6357.5
919.8708	1864.5084	7242.85	6344.95
920.0103	1866.1572	7201.05	6303.4
920.1498	1867.8054	7191.65	6291.6
920.2893	1869.4528	7172.75	6272.25
920.4288	1871.0994	7135.8	6236.7
920.5683	1872.7453	7132.1	6235.2
920.7077	1874.3905	7117.85	6203.95
920.8471	1876.0349	7086.65	6186.15
920.9865	1877.6786	7078.2	6179.05
921.1259	1879.3215	7080.65	6185.45
921.2653	1880.9637	7073.75	6177.2
921.4046	1882.6051	7040.6	6148
921.5439	1884.2458	6995.95	6098.95
921.6832	1885.8858	6985.75	6091.95
921.8225	1887.525	6973.4	6075.8
921.9617	1889.1634	6951.5	6053.8
922.101	1890.8011	6938.5	6039.9
922.2402	1892.4381	6925.95	6027.55
922.3794	1894.0743	6930.95	6034.5
922.5185	1895.7098	6898.5	6000.8
922.6577	1897.3446	6894.6	5997.8
922.7968	1898.9786	6859	5957.3
922.9359	1900.6118	6826.95	5932.4
923.075	1902.2443	6813.2	5918.25
923.214	1903.8761	6802.25	5909
923.3531	1905.5071	6783.65	5888
923.4921	1907.1374	6760.25	5865.85
923.6311	1908.7669	6731.45	5835.5
923.77	1910.3957	6736.9	5844.1
923.909	1912.0237	6691.15	5797.8
924.0479	1913.651	6688.3	5792.2
924.1868	1915.2776	6681.7	5788.8
924.3257	1916.9034	6659.9	5768.55
924.4646	1918.5285	6630.05	5738.4
924.6034	1920.1528	6592.75	5699.25
924.7422	1921.7764	6582.2	5686.1
924.881	1923.3992	6539.1	5645.55
925.0198	1925.0213	6512.2	5618.65
925.1586	1926.6427	6479.15	5586.95
925.2973	1928.2633	6562.8	5570.6
925.436	1929.8832	6493.45	5595.15
925.5747	1931.5023	6456.85	5564.05
925.7134	1933.1207	6445.4	5550.9
925.852	1934.7383	6415.25	5522.95
925.9906	1936.3552	6400.6	5509.3
926.1292	1937.9714	6383.2	5488.1
926.2678	1939.5868	6360.15	5465.75
926.4064	1941.2015	6323.3	5427.35
926.5449	1942.8154	6302.1	5407.45
926.6834	1944.4286	6292.55	5395.2
926.8219	1946.041	6268.8	5348.3
926.9604	1947.6528	6235.9	5335.1
927.0988	1949.2637	6221.1	5326.85
927.2372	1950.8739	6194.55	5301.1
927.3756	1952.4834	6181.6	5287.95
927.514	1954.0921	6190.75	5297.45
927.6523	1955.7001	6163.15	5265.9
927.7907	1957.3074	6122.55	5232.25
927.929	1958.9139	6102.1	5215.45
928.0673	1960.5197	6095.45	5203.5
928.2055	1962.1247	6062.1	5169.85
928.3438	1963.729	6039.5	5149.1
928.482	1965.3325	6026.9	5134.75
928.6202	1966.9353	5998.35	5111.15
928.7584	1968.5374	6005.45	5114.85
928.8965	1970.1387	5969.1	5079.1
929.0346	1971.7393	5950.5	5062.35
929.1727	1973.3392	5912.05	5023.1
929.3108	1974.9383	5897.5	5010.35
929.4489	1976.5366	5867.05	4979.4
929.5869	1978.1342	5855.4	4969.85
929.7249	1979.7311	5871.95	4985.05
929.8629	1981.3273	5854.15	4969.5
930.0009	1982.9227	5813.65	4929.45
930.1388	1984.5173	5814.15	4930.3
930.2767	1986.1112	5791.95	4906.4
930.4146	1987.7044	5778.2	4892.85
930.5525	1989.2968	5761.75	4873.1
930.6904	1990.8885	5746.8	4859
930.8282	1992.4795	5740.65	4856.05
930.966	1994.0697	5712.35	4829.3
931.1038	1995.6592	5678.55	4793.2
931.2415	1997.2479	5670.3	4785.05
931.3793	1998.8359	5668	4783.1
931.517	2000.4232	5642.9	4763.25
931.6547	2002.0097	5634.75	4759.5
931.7923	2003.5955	5596.15	4716.05
931.93	2005.1805	5595.05	4713.7
932.0676	2006.7648	5586.15	4706.45
932.2052	2008.3484	5572.2	4688.85
932.3427	2009.9312	5579.85	4701.15
932.4803	2011.5133	5554.55	4677.85
932.6178	2013.0946	5532.75	4652.65
932.7553	2014.6752	5513.5	4633.65
932.8928	2016.2551	5497.85	4613.65
933.0302	2017.8342	5479.9	4601.35
933.1676	2019.4126	5451.95	4572.5
933.305	2020.9902	5433.1	4554.8
933.4424	2022.5672	5434.6	4554.5
933.5798	2024.1433	5420.55	4537.85
933.7171	2025.7188	5393.5	4517.6
933.8544	2027.2935	5383.55	4505.85
933.9917	2028.8674	5374.7	4498
934.129	2030.4406	5340.9	4466.7
934.2662	2032.0131	5321.95	4447.45
934.4034	2033.5849	5306.15	4426.3
934.5406	2035.1559	5313.7	4438.1
934.6778	2036.7261	5306.05	4424.65
934.8149	2038.2957	5285.45	4402.75
934.952	2039.8645	5275.2	4390.75
935.0891	2041.4325	5289.4	4403.55
935.2262	2042.9998	5258.8	4376.85
935.3632	2044.5664	5255.5	4372.95
935.5002	2046.1323	5212.9	4335.6
935.6372	2047.6974	5204.1	4325.35
935.7742	2049.2617	5201.7	4324.5
935.9111	2050.8254	5189.45	4303.85
936.048	2052.3883	5196	4314.35
936.1849	2053.9504	5186.15	4303
936.3218	2055.5118	5174.1	4290.9
936.4586	2057.0725	5154.3	4268.6
936.5955	2058.6325	5128.4	4249.3
936.7323	2060.1917	5107.35	4227.95
936.869	2061.7502	5104.75	4223.05
937.0058	2063.3079	5080.35	4203.5
937.1425	2064.8649	5069.75	4187.2
937.2792	2066.4212	5036.1	4154.95
937.4159	2067.9767	5045.8	4165.7
937.5525	2069.5315	5044.4	4162.85
937.6891	2071.0856	5011.55	4131.15
937.8257	2072.6389	4998.2	4120.55
937.9623	2074.1915	4988.1	4111.35
938.0989	2075.7433	4942.7	4061.1
938.2354	2077.2945	4946.6	4067.9
938.3719	2078.8448	4926.9	4043.75
938.5084	2080.3945	4930.1	4047.7
938.6448	2081.9434	4909.1	4025.75
938.7812	2083.4916	4900.45	4015.35
938.9176	2085.039	4878	3987.25
939.054	2086.5857	4865.75	3974.45
939.1903	2088.1317	4874.1	3983.1
939.3267	2089.677	4862.3	3969.65
939.463	2091.2215	4839.5	3947.95
939.5992	2092.7652	4836.65	3942.95
939.7355	2094.3083	4813.6	3924.6
939.8717	2095.8506	4816	3929.25
940.0079	2097.3921	4796.2	3912.05
940.1441	2098.933	4787.9	3903.15
940.2802	2100.4731	4786.05	3899.4
940.4163	2102.0124	4777.75	3873.15
940.5524	2103.5511	4771.9	3884.1
940.6885	2105.089	4758.95	3871.2
940.8245	2106.6261	4735.4	3849.95
940.9606	2108.1626	4741.3	3855.95
941.0965	2109.6983	4741.3	3828.35
941.2325	2111.2332	4720.7	3833.25
941.3684	2112.7675	4692.45	3803.45
941.5044	2114.301	4688.75	3800.25
941.6403	2115.8337	4672.15	3783.3
941.7761	2117.3657	4675.7	3789.35
941.912	2118.897	4665.35	3776.5
942.0478	2120.4276	4650.55	3759.35
942.1835	2121.9575	4637	3748.05
942.3193	2123.4866	4641.45	3740.1
942.455	2125.0149	4610.25	3720.7
942.5907	2126.5426	4575.55	3692.05
942.7264	2128.0695	4592.55	3709.05
942.8621	2129.5956	4562.65	3685.8
942.9977	2131.1211	4569.25	3682.65
943.1333	2132.6458	4549.3	3665.6
943.2689	2134.1698	4540.35	3651.65
943.4044	2135.693	4539.25	3645.7
943.54	2137.2155	4531.6	3641.25
943.6755	2138.7373	4521.55	3633.95
943.8109	2140.2584	4492.55	3611.1
943.9464	2141.7787	4479.65	3595.15
944.0818	2143.2983	4465.25	3588.65
944.2172	2144.8171	4454.1	3575.95
944.3526	2146.3353	4453.45	3571.25
944.4879	2147.8527	4429.3	3548.45
944.6232	2149.3693	4428.5	3542.75
944.7585	2150.8853	4421.6	3533.9
944.8938	2152.4005	4404.15	3517.05
945.029	2153.9149	4412.95	3524.2
945.1642	2155.4287	4378.55	3488.45
945.2994	2156.9417	4368.4	3479.8
945.4346	2158.454	4370.5	3484.35
945.5697	2159.9655	4347.25	3465.8
945.7048	2161.4764	4346.7	3463.85
945.8399	2162.9865	4332.25	3448.95
945.9749	2164.4958	4329.05	3446.95
946.1099	2166.0045	4311.1	3425.7
946.2449	2167.5124	4301.5	3417.65
946.3799	2169.0195	4285.35	3398.3
946.5148	2170.526	4295.9	3407.9
946.6498	2172.0317	4288.2	3402
946.7846	2173.5367	4250.25	3366
946.9195	2175.0409	4245.3	3362
947.0543	2176.5445	4234.05	3348.6
947.1891	2178.0473	4249.8	3361.45
947.3239	2179.5494	4218.1	3326.65
947.4587	2181.0507	4210.65	3324.4
947.5934	2182.5513	4194.05	3307
947.7281	2184.0512	4206.95	3320.1
947.8628	2185.5504	4177.85	3292.4
947.9974	2187.0488	4162.6	3280.5
948.132	2188.5465	4140.75	3258.45
948.2666	2190.0435	4139.65	3253.4
948.4012	2191.5397	4119.05	3230.05
948.5357	2193.0353	4128.75	3241.75
948.6702	2194.5301	4102.5	3211.15
948.8047	2196.0241	4106.3	3212.55
948.9392	2197.5175	4096.25	3201.3
949.0736	2199.0101	4082.15	3185
949.208	2200.502	4059.55	3170.05
949.3424	2201.9931	4041.55	3158.1
949.4767	2203.4835	4039.05	3155.25
949.611	2204.9733	4029.55	3142.95
949.7453	2206.4622	4013.35	3133.85
949.8796	2207.9505	4003.9	3119.65
950.0138	2209.438	3976.4	3098.35
950.148	2210.9248	3979.25	3095.05
950.2822	2212.4109	3957.85	3073.2
950.4164	2213.8962	3958.2	3067.45
950.5505	2215.3809	3964.6	3072.75
950.6846	2216.8648	3944	3049
950.8186	2218.3479	3945.5	3046.95
950.9527	2219.8304	3938.7	3040.95
951.0867	2221.3121	3908.3	3012.75
951.2207	2222.7931	3912.15	3021.05
951.3546	2224.2733	3897.95	3006.65
951.4886	2225.7529	3875.45	2988.55
951.6225	2227.2317	3862.3	2974.4
951.7563	2228.7098	3860.6	2976.4
951.8902	2230.1872	3849.7	2966.6
952.024	2231.6638	3843.95	2961.35
952.1578	2233.1397	3821	2932.85
952.2916	2234.6149	3825.05	2943.65
952.4253	2236.0894	3810.1	2924.05
952.559	2237.5632	3820.5	2925.85
952.6927	2239.0362	3785.8	2898.8
952.8263	2240.5085	3776.2	2891.35
952.9599	2241.9801	3762.8	2877.15
953.0935	2243.4509	3774.85	2883.75
953.2271	2244.921	3742.1	2849.95
953.3606	2246.3904	3752.15	2856.25
953.4941	2247.8591	3737.5	2846.3
953.6276	2249.3271	3729.3	2841.3
953.7611	2250.7943	3712.85	2822.7
953.8945	2252.2608	3698.15	2808.85
954.0279	2253.7266	3684.95	2794.7
954.1612	2255.1917	3687.2	2800.75
954.2946	2256.656	3663.5	2777.1
954.4279	2258.1197	3662.6	2779.05
954.5612	2259.5826	3648.5	2761.1
954.6944	2261.0447	3648.7	2761.95
954.8276	2262.5062	3642.6	2750.3
954.9608	2263.9669	3624.3	2732.4
955.094	2265.4269	3631.3	2740.95
955.2271	2266.8862	3603.25	2716.1
955.3602	2268.3448	3587.75	2702.35
955.4933	2269.8026	3590.55	2706.3
955.6264	2271.2598	3594.05	2708.95
955.7594	2272.7162	3591	2704.25
955.8924	2274.1719	3572.4	2682.65
956.0253	2275.6268	3572.35	2681.35
956.1583	2277.0811	3558.55	2667.55
956.2912	2278.5346	3551.85	2665.45
956.4241	2279.9874	3544.4	2658.9
956.5569	2281.4395	3547.45	2664.2
956.6897	2282.8908	3528.6	2638
956.8225	2284.3414	3513.45	2625.85
956.9553	2285.7914	3527.3	2640.7
957.088	2287.2406	3512.65	2623.5
957.2207	2288.689	3505.5	2612.3
957.3534	2290.1368	3496.55	2602.5
957.486	2291.5838	3488.9	2591.75
957.6186	2293.0302	3494.95	2600.1
957.7512	2294.4758	3469.25	2576.8
957.8838	2295.9206	3455.8	2564.7
958.0163	2297.3648	3445.9	2558.7
958.1488	2298.8082	3446.15	2557
958.2813	2300.251	3432.7	2542.35
958.4137	2301.693	3425.4	2530.5
958.5461	2303.1343	3433.7	2542.05
958.6785	2304.5748	3422	2532.55
958.8108	2306.0147	3395.05	2507.4
958.9432	2307.4538	3388.85	2502.8
959.0754	2308.8922	3385.8	2504.8
959.2077	2310.3299	3384.9	2500.5
959.3399	2311.7669	3372.25	2486.65
959.4721	2313.2031	3348.15	2460.15
959.6043	2314.6387	3339.45	2451.35
959.7365	2316.0735	3330.4	2443.2
959.8686	2317.5076	3337.65	2449.25
960.0006	2318.941	3324.8	2433.85
960.1327	2320.3737	3308.45	2415.1
960.2647	2321.8056	3321.95	2426.9
960.3967	2323.2369	3301.55	2410.05
960.5287	2324.6674	3291.05	2400.4
960.6606	2326.0972	3305.65	2415.95
960.7925	2327.5263	3301.5	2415.6
960.9244	2328.9547	3278.9	2390.15
961.0562	2330.3823	3258.35	2367.1
961.1881	2331.8092	3262.6	2368.45
961.3198	2333.2355	3246.35	2354.6
961.4516	2334.661	3245.7	2355.25
961.5833	2336.0858	3247.6	2353.5
961.715	2337.5098	3237.65	2347.4
961.8467	2338.9332	3245.65	2354.85
961.9783	2340.3558	3217.1	2325.7
962.1099	2341.7778	3227.5	2341.25
962.2415	2343.199	3205.6	2316
962.373	2344.6195	3201.2	2316.75
962.5045	2346.0393	3187.9	2300.75
962.636	2347.4583	3186.85	2297.2
962.7675	2348.8767	3178.35	2289.2
962.8989	2350.2943	3192.3	2298.45
963.0303	2351.7113	3186.85	2292.9
963.1617	2353.1275	3157.45	2262.85
963.293	2354.543	3188.45	2271
963.4243	2355.9578	3162.3	2273.2
963.5556	2357.3718	3138.25	2253.35
963.6868	2358.7852	3142.1	2254.65
963.818	2360.1978	3118.05	2233.9
963.9492	2361.6098	3105.95	2219.45
964.0803	2363.021	3102.8	2210.45
964.2114	2364.4315	3095.15	2206.35
964.3425	2365.8413	3091.25	2205.8
964.4736	2367.2504	3089.9	2204.75
964.6046	2368.6587	3060.05	2175.25
964.7356	2370.0664	3058.55	2172.85
964.8666	2371.4733	3052.1	2165.5
964.9975	2372.8795	3047.5	2162.15
965.1284	2374.285	3040.45	2154.35
965.2593	2375.6899	3029.05	2144.25
965.3901	2377.0939	3005.75	2120.6
965.5209	2378.4973	3006	2123.45
965.6517	2379.9	3005.35	2119.7
965.7825	2381.3019	2997.25	2113.25
965.9132	2382.7032	2987.9	2105.15
966.0439	2384.1037	2981.85	2101.95
966.1745	2385.5035	2975.3	2095.05
966.3051	2386.9027	2969.45	2090
966.4357	2388.3011	2965.65	2083
966.5663	2389.6987	2955.8	2073.85
966.6968	2391.0957	2947.85	2065.4
966.8273	2392.492	2938.2	2054.65
966.9578	2393.8876	2923.55	2041.65
967.0882	2395.2824	2913.2	2029.65
967.2186	2396.6765	2913.95	2031.6
967.349	2398.07	2913	2027.8
967.4793	2399.4627	2902.1	2015.5
967.6097	2400.8547	2875.55	1991.15
967.7399	2402.246	2892.8	2001.65
967.8702	2403.6366	2877	1994.2
968.0004	2405.0265	2862.65	1981.25
968.1306	2406.4156	2846.9	1958.55
968.2607	2407.8041	2852.05	1966.05
968.3909	2409.1918	2841.5	1956.3
968.521	2410.5789	2851.9	1967
968.651	2411.9652	2839.25	1951.95
968.781	2413.3508	2822.3	1937.95
968.911	2414.7358	2823	1941.2
969.041	2416.12	2812.15	1929.75
969.1709	2417.5035	2800.1	1916.6
969.3008	2418.8863	2807.35	1923.6
969.4307	2420.2684	2798.4	1914.9
969.5606	2421.6497	2787.7	1902.3
969.6904	2423.0304	2770.5	1886.6
969.8201	2424.4104	2779.25	1895.8
969.9499	2425.7896	2763.6	1878.55
970.0796	2427.1682	2749.7	1868.65
970.2093	2428.546	2745.95	1861.75
970.3389	2429.9232	2743.55	1862.6
970.4685	2431.2996	2737.4	1852.65
970.5981	2432.6753	2730.55	1844.9
970.7277	2434.0503	2722.25	1836.65
970.8572	2435.4246	2711.25	1825.7
970.9867	2436.7982	2715.35	1828.55
971.1161	2438.1711	2708.5	1823.65
971.2456	2439.5433	2696.4	1808.6
971.375	2440.9148	2688.3	1798.75
971.5043	2442.2856	2685.1	1801.75
971.6336	2443.6557	2682.15	1797.65
971.7629	2445.025	2671.65	1785
971.8922	2446.3937	2678	1791.75
972.0214	2447.7617	2670.2	1783.05
972.1506	2449.1289	2656.25	1771.6
972.2798	2450.4955	2649.4	1760.45
972.4089	2451.8613	2662.9	1779.55
972.538	2453.2265	2652.05	1769.6
972.6671	2454.5909	2637	1752.25
972.7961	2455.9546	2633.25	1749.5
972.9251	2457.3177	2622.1	1737.2
973.0541	2458.68	2627.95	1740.4
973.1831	2460.0416	2630.4	1743.2
973.312	2461.4025	2620.05	1735.6
973.4408	2462.7627	2618	1723.55
973.5697	2464.1222	2601	1719.9
973.6985	2465.4811	2591.5	1708.85
973.8273	2466.8392	2600.35	1718.5
973.956	2468.1966	2598.4	1712
974.0847	2469.5533	2588.15	1701.4
974.2134	2470.9093	2589.65	1706.8
974.3421	2472.2645	2574.3	1689.55
974.4707	2473.6191	2574.8	1692.25
974.5993	2474.973	2573.65	1689.3
974.7278	2476.3262	2563.6	1676.85
974.8563	2477.6787	2560.25	1675.25
974.9848	2479.0305	2538.2	1653.4
975.1132	2480.3816	2537.1	1649.55
975.2417	2481.7319	2537.8	1653.25
975.37	2483.0816	2525.05	1638.9
975.4984	2484.4306	2515.35	1628.75
975.6267	2485.7789	2507.65	1624.6
975.755	2487.1264	2520.45	1635.55
975.8833	2488.4733	2506.95	1623.85
976.0115	2489.8195	2515.85	1614.35
976.1397	2491.165	2497.55	1609.35
976.2678	2492.5097	2479.35	1595.25
976.3959	2493.8538	2477.95	1594.85
976.524	2495.1972	2474.45	1590.45
976.6521	2496.5398	2463.75	1577.55
976.7801	2497.8818	2454.45	1566.95
976.9081	2499.2231	2451.1	1561
977.036	2500.5637	2450.45	1561.8
977.164	2501.9035	2441.75	1554.4
977.2918	2503.2427	2446.9	1558.25
977.4197	2504.5812	2435.3	1552.35
977.5475	2505.919	2431.1	1544.25
977.6753	2507.256	2430.95	1545.55
977.8031	2508.5924	2428.75	1545
977.9308	2509.9281	2416.1	1524.4
978.0585	2511.2631	2409.15	1523.6
978.1861	2512.5974	2404.6	1519.2
978.3137	2513.9309	2412.05	1527.65
978.4413	2515.2638	2425.25	1508.25
978.5689	2516.596	2409.45	1522.65
978.6964	2517.9275	2386.55	1502.6
978.8239	2519.2583	2376.85	1489.05
978.9513	2520.5884	2370.5	1481.1
979.0788	2521.9178	2364.6	1478.9
979.2062	2523.2465	2361.1	1476.85
979.3335	2524.5745	2351.65	1464.3
979.4608	2525.9018	2347.95	1461.9
979.5881	2527.2284	2349.6	1466.3
979.7154	2528.5543	2350.3	1466.85
979.8426	2529.8796	2339.4	1453.6
979.9698	2531.2041	2344.35	1459.9
980.0969	2532.5279	2338.45	1455.9
980.224	2533.851	2330	1443.25
980.3511	2535.1735	2325.8	1439.3
980.4781	2536.4952	2330.25	1443.95
980.6052	2537.8163	2322.6	1436.1
980.7321	2539.1366	2322.5	1435.1
980.8591	2540.4562	2315	1426.3
980.986	2541.7752	2307.3	1420.6
981.1129	2543.0935	2305.35	1417.15
981.2397	2544.411	2297.3	1410.5
981.3665	2545.7279	2303.05	1417
981.4933	2547.0441	2300.9	1413.1
981.62	2548.3596	2303.1	1412.05
981.7467	2549.6744	2294.45	1409.15
981.8734	2550.9885	2293.65	1401
982.0001	2552.3019	2268.15	1380.25
982.1267	2553.6146	2283.05	1395.85
982.2532	2554.9266	2273.45	1385.9
982.3798	2556.2379	2266.65	1379.75
982.5063	2557.5485	2259.55	1373
982.6327	2558.8585	2260.75	1368.65
982.7592	2560.1677	2270.3	1380.35
982.8856	2561.4762	2264.3	1376.1
983.0119	2562.7841	2253	1362.5
983.1383	2564.0913	2243.95	1358.1
983.2646	2565.3977	2238.6	1352.2
983.3908	2566.7035	2245.9	1356.55
983.517	2568.0086	2242.6	1354.7
983.6432	2569.313	2239.4	1349.55
983.7694	2570.6167	2243.25	1350.5
983.8955	2571.9197	2229.65	1344.75
984.0216	2573.222	2229.2	1338.3
984.1476	2574.5236	2219.95	1332.9
984.2737	2575.8246	2214.75	1326.15
984.3996	2577.1248	2221.85	1331.2
984.5256	2578.4244	2210.35	1324.5
984.6515	2579.7232	2216.85	1330.7
984.7774	2581.0214	2244.05	1325.6
984.9032	2582.3189	2215.45	1331.7
985.029	2583.6157	2202.75	1311.4
985.1548	2584.9118	2212.3	1323.9
985.2806	2586.2072	2197.5	1308.7
985.4063	2587.5019	2197.95	1311.65
985.5319	2588.7959	2194.75	1305.2
985.6576	2590.0893	2199.45	1311.05
985.7832	2591.3819	2204.55	1318.55
985.9087	2592.6739	2193.05	1305.85
986.0343	2593.9652	2191.3	1301.25
986.1597	2595.2557	2195.8	1310.4
986.2852	2596.5456	2189.35	1299.35
986.4106	2597.8348	2183.2	1295.9
986.536	2599.1234	2171.35	1284.45
986.6614	2600.4112	2175.95	1291.95
986.7867	2601.6983	2169.9	1278.95
986.912	2602.9848	2168.25	1280.35
987.0372	2604.2705	2169.2	1276.4
987.1624	2605.5556	2158.45	1271.45
987.2876	2606.84	2151.25	1264.9
987.4128	2608.1237	2148.15	1259.4
987.5379	2609.4067	2151.15	1264.85
987.6629	2610.689	2149.15	1253.15
987.788	2611.9707	2145.6	1255.5
987.913	2613.2516	2138.45	1248.1
988.0379	2614.5319	2125.65	1239.45
988.1629	2615.8115	2128.2	1238.45
988.2878	2617.0903	2121.95	1234.6
988.4126	2618.3685	2113.2	1226.45
988.5375	2619.6461	2114.35	1225.2
988.6622	2620.9229	2106.95	1222.15
988.787	2622.199	2108.55	1221.3
988.9117	2623.4745	2100.6	1214.6
989.0364	2624.7493	2090.6	1206.35
989.161	2626.0234	2094.05	1208.55
989.2857	2627.2968	2096.65	1210.85
989.4102	2628.5695	2088.55	1199.6
989.5348	2629.8415	2072.85	1186.75
989.6593	2631.1128	2088	1200.25
989.7837	2632.3835	2091.3	1205.95
989.9082	2633.6535	2068.1	1183.35
990.0326	2634.9228	2069.05	1182.15
990.1569	2636.1914	2065	1180.5
990.2812	2637.4593	2071.5	1186.2
990.4055	2638.7265	2064.9	1176.6
990.5298	2639.9931	2052.9	1166.8
990.654	2641.259	2055.35	1165.85
990.7782	2642.5242	2048.75	1161
990.9023	2643.7887	2046.2	1159.1
991.0264	2645.0525	2039.55	1153.3
991.1505	2646.3156	2037.3	1149.2
991.2745	2647.5781	2031.95	1148.2
991.3985	2648.8398	2034.95	1149.35
991.5225	2650.1009	2031.45	1137.65
991.6464	2651.3613	2018	1130.6
991.7703	2652.6211	2008.75	1123.5
991.8942	2653.8801	2016.5	1134.55
992.018	2655.1385	2017.55	1128.15
992.1418	2656.3961	2007.7	1122
992.2655	2657.6531	2009.8	1121.35
992.3892	2658.9094	2010.2	1124.45
992.5129	2660.1651	2004.4	1121.2
992.6366	2661.42	2001.45	1114.15
992.7602	2662.6743	1999.85	1111.6
992.8837	2663.9279	2000.85	1116.4
993.0073	2665.1808	1998.05	1111.25
993.1307	2666.433	2007.6	1121.65
993.2542	2667.6846	2005.75	1121.55
993.3776	2668.9354	2006.7	1118.7
993.501	2670.1856	1988.2	1100.55
993.6244	2671.4351	1996.55	1110.4
993.7477	2672.6839	2015.25	1130.4
993.8709	2673.9321	2001.75	1115.8
993.9942	2675.1795	2001	1116.2
994.1174	2676.4263	2010.3	1123.55
994.2405	2677.6724	1993.35	1108.2
994.3637	2678.9179	1983.45	1096.5
994.4868	2680.1626	1991.15	1105.05
994.6098	2681.4067	1993.9	1108.1
994.7328	2682.6501	1982.4	1097.1
994.8558	2683.8928	1972.4	1087.2
994.9788	2685.1348	1978	1095.3
995.1017	2686.3761	1973.05	1088.85
995.2245	2687.6168	1970.5	1086.2
995.3474	2688.8568	1956.7	1069.95
995.4702	2690.0961	1958.95	1074
995.5929	2691.3348	1951.55	1068.2
995.7156	2692.5727	1951.6	1067.2
995.8383	2693.81	1944.1	1059.55
995.961	2695.0466	1936.6	1051.9
996.0836	2696.2826	1933.55	1043.4
996.2062	2697.5178	1936.35	1044.7
996.3287	2698.7524	1931.45	1047.1
996.4512	2699.9863	1950.45	1063.05
996.5737	2701.2195	1933.7	1047.4
996.6961	2702.452	1952.3	1065.9
996.8185	2703.6839	1931.45	1043.6
996.9408	2704.9151	1937.4	1053.3
997.0631	2706.1456	1935.45	1051.9
997.1854	2707.3755	1948.05	1062.6
997.3077	2708.6046	1951.55	1062.55
997.4299	2709.8331	1956.4	1070.2
997.552	2711.0609	1952.55	1067.6
997.6742	2712.2881	1967.8	1081.9
997.7963	2713.5145	1966.15	1079.55
997.9183	2714.7403	1987.4	1103.15
998.0403	2715.9654	1979	1094.55
998.1623	2717.1899	2007.75	1107.75
998.2842	2718.4136	2009.45	1124.55
998.4062	2719.6367	2005.05	1120.35
998.528	2720.8591	2023.25	1130.7
998.6498	2722.0809	2033.6	1149.35
998.7716	2723.3019	2030.15	1140.1
998.8934	2724.5223	2045.85	1160.35
999.0151	2725.7421	2041.1	1153.8
999.1368	2726.9611	2041.45	1156
999.2584	2728.1795	2044.15	1154.25
999.38	2729.3972	2036.1	1151.5
999.5016	2730.6142	2026.65	1128.05
999.6231	2731.8306	1999.55	1115.7
999.7446	2733.0462	1988.35	1100.95
999.8661	2734.2612	1962.2	1072.75
999.9875	2735.4756	1940.75	1058.8
1000.1089	2736.6892	1935.3	1049.45
1000.2302	2737.9022	1912	1027.75
1000.3515	2739.1145	1903.75	1018.1
1000.4728	2740.3262	1883.15	987.85
1000.594	2741.5372	1868.85	985.55
1000.7152	2742.7475	1856.5	971.8
1000.8363	2743.9571	1851.65	964.65
1000.9575	2745.1661	1842.4	952.75
1001.0785	2746.3744	1832.35	948.8
1001.1996	2747.582	1806.55	921.4
1001.3206	2748.7889	1806.4	919.85
1001.4415	2749.9952	1796.05	912.45
1001.5625	2751.2008	1786.35	902.05
1001.6833	2752.4057	1788.8	902.65
1001.8042	2753.61	1793.75	907.45
1001.925	2754.8136	1781.35	898.05
1002.0458	2756.0165	1776.3	889.85
1002.1665	2757.2188	1775.5	892.35
1002.2872	2758.4204	1770.9	887.35
1002.4078	2759.6213	1769.1	881.05
1002.5285	2760.8215	1763.6	873.7
1002.649	2762.0211	1771.25	887.2
1002.7696	2763.22	1756.9	869.55
1002.8901	2764.4182	1761.85	877.95
1003.0106	2765.6158	1753.4	869.55
1003.131	2766.8127	1749	865.6
1003.2514	2768.009	1737.65	854.75
1003.3717	2769.2045	1738.5	854.55
1003.492	2770.3994	1734.55	849.1
1003.6123	2771.5936	1740.8	855.8
1003.7325	2772.7872	1731.4	850.45
1003.8527	2773.9801	1734.85	851.45
1003.9729	2775.1723	1738.8	836.5
1004.093	2776.3639	1719.45	837.2
1004.2131	2777.5548	1719.95	833
1004.3331	2778.745	1721.2	835.85
1004.4531	2779.9346	1715.8	830.55
1004.5731	2781.1235	1729	847.7
1004.693	2782.3117	1718.6	836.1
1004.8129	2783.4992	1718.95	839.05
1004.9328	2784.6861	1727.7	845.65
1005.0526	2785.8723	1731.65	848.3
1005.1723	2787.0579	1740.75	859.2
1005.2921	2788.2428	1734.05	850.85
1005.4118	2789.427	1752.55	868.25
1005.5314	2790.6106	1756.9	872.8
1005.651	2791.7935	1762.6	878.65
1005.7706	2792.9757	1766.35	886.4
1005.8902	2794.1573	1783.55	895.5
1006.0097	2795.3382	1784.35	900.95
1006.1291	2796.5184	1801.1	920.1
1006.2485	2797.698	1808.75	923.2
1006.3679	2798.8769	1830.15	947.15
1006.4873	2800.0551	1840	958.2
1006.6066	2801.2327	1866.85	982.15
1006.7258	2802.4096	1872.05	989.6
1006.8451	2803.5859	1887.8	1004.25
1006.9642	2804.7615	1912.55	1027.95
1007.0834	2805.9364	1922.75	1041.4
1007.2025	2807.1106	1956.45	1074.8
1007.3216	2808.2842	1992.8	1106.8
1007.4406	2809.4572	2014.5	1130.65
1007.5596	2810.6294	2059.15	1176.3
1007.6785	2811.801	2087.25	1206.6
1007.7975	2812.972	2138.2	1256.7
1007.9163	2814.1423	2167.3	1287.2
1008.0352	2815.3119	2208.4	1323.95
1008.154	2816.4808	2246.55	1365.45
1008.2727	2817.6491	2297.05	1413.6
1008.3914	2818.8167	2340.05	1460.05
1008.5101	2819.9837	2394.1	1506.45
1008.6288	2821.15	2449.75	1570.6
1008.7474	2822.3157	2484.95	1605.15
1008.8659	2823.4807	2539.9	1655.9
1008.9844	2824.645	2572.85	1689.65
1009.1029	2825.8086	2611.85	1728.7
1009.2214	2826.9716	2661.5	1779.55
1009.3398	2828.134	2711.4	1830.95
1009.4581	2829.2957	2759.05	1875.95
1009.5764	2830.4567	2763.8	1882.45
1009.6947	2831.617	2796.5	1914.9
1009.813	2832.7767	2811.65	1931.4
1009.9312	2833.9358	2805.6	1926.65
1010.0493	2835.0941	2788.6	1904.7
1010.1675	2836.2519	2791.5	1908.95
1010.2855	2837.4089	2772.55	1888.35
1010.4036	2838.5653	2772.6	1890.3
1010.5216	2839.7211	2761.2	1882.25
1010.6396	2840.8761	2763.9	1879.75
1010.7575	2842.0306	2793.3	1912.5
1010.8754	2843.1843	2838.55	1956.75
1010.9932	2844.3374	2878.5	1996.3
1011.111	2845.4899	2933.55	2051.65
1011.2288	2846.6417	2981.4	2098.6
1011.3465	2847.7928	3075.5	2196.4
1011.4642	2848.9433	3142.85	2258.9
1011.5818	2850.0931	3220.35	2337.9
1011.6995	2851.2422	3293	2408.55
1011.817	2852.3907	3366.05	2483.85
1011.9345	2853.5385	3422.35	2541.8
1012.052	2854.6857	3516.75	2607.2
1012.1695	2855.8323	3535.1	2656.35
1012.2869	2856.9781	3579.65	2698.85
1012.4042	2858.1233	3628.3	2745.75
1012.5216	2859.2679	3653.25	2773.7
1012.6389	2860.4118	3719.9	2838.1
1012.7561	2861.555	3757.5	2871
1012.8733	2862.6976	3801.05	2920.75
1012.9905	2863.8395	3822.85	2941.45
1013.1076	2864.9808	3848.7	2967.5
1013.2247	2866.1214	3849	2969.5
1013.3417	2867.2614	3852.15	2971.35
1013.4587	2868.4007	3865.25	2984.7
1013.5757	2869.5393	3885.75	3002.9
1013.6926	2870.6773	3906.1	3022.4
1013.8095	2871.8146	3925	3038.6
1013.9263	2872.9513	3918.8	3035.15
1014.0431	2874.0874	3895.15	3013.7
1014.1599	2875.2227	3900.55	3018.65
1014.2766	2876.3574	3874.95	2993.45
1014.3933	2877.4915	3844.95	2963.25
1014.51	2878.6249	3824	2944.2
1014.6266	2879.7577	3801.05	2919.4
1014.7431	2880.8898	3790.95	2901.85
1014.8596	2882.0212	3762.85	2885.1
1014.9761	2883.152	3757.35	2875.25
1015.0925	2884.2821	3745	2865.9
1015.2089	2885.4116	3725.6	2846.55
1015.3253	2886.5405	3714.7	2834.65
1015.4416	2887.6686	3727.65	2842.85
1015.5579	2888.7962	3740.5	2863.1
1015.6741	2889.923	3735.75	2854.6
1015.7903	2891.0493	3754.05	2876.3
1015.9065	2892.1748	3767.85	2888.25
1016.0226	2893.2997	3771.35	2888.5
1016.1387	2894.424	3800.3	2921.15
1016.2547	2895.5476	3812.45	2932.25
1016.3707	2896.6706	3843.95	2964.6
1016.4866	2897.7929	3865.6	2983.2
1016.6025	2898.9145	3892.65	3012.15
1016.7184	2900.0355	3920.35	3040.8
1016.8342	2901.1559	3954	3073.4
1016.95	2902.2756	3982.4	3105.25
1017.0658	2903.3946	4017.25	3137.8
1017.1815	2904.513	4023.95	3139.35
1017.2971	2905.6308	4064.75	3186.75
1017.4127	2906.7479	4089.75	3209.2
1017.5283	2907.8643	4110	3228.8
1017.6439	2908.9801	4117.8	3236.65
1017.7594	2910.0953	4130.15	3249.7
1017.8748	2911.2098	4130.05	3246.85
1017.9902	2912.3236	4145.25	3258.35
1018.1056	2913.4368	4108.3	3226.65
1018.2209	2914.5494	4083.3	3204.55
1018.3362	2915.6613	4062.65	3177.45
1018.4515	2916.7725	4033.2	3147.55
1018.5667	2917.8831	4005.75	3123.95
1018.6819	2918.9931	3979.3	3096.5
1018.797	2920.1024	3932.15	3050.75
1018.9121	2921.211	3923.65	3043.75
1019.0271	2922.319	3896.5	3016.05
1019.1421	2923.4264	3890.75	3014.1
1019.2571	2924.5331	3879.35	3001.1
1019.372	2925.6391	3864.85	2987.65
1019.4869	2926.7445	3848.95	2971.1
1019.6017	2927.8493	3841.6	2961.8
1019.7165	2928.9534	3844.05	2964.55
1019.8313	2930.0569	3836.8	2955.65
1019.946	2931.1597	3822.8	2941.05
1020.0606	2932.2619	3816.7	2938.25
1020.1753	2933.3634	3798.6	2918.65
1020.2899	2934.4643	3798.25	2912.95
1020.4044	2935.5645	3761.1	2877.2
1020.5189	2936.6641	3755.2	2872.25
1020.6334	2937.763	3696.55	2818.8
1020.7478	2938.8613	3652.8	2773.7
1020.8622	2939.959	3595.45	2710.35
1020.9765	2941.056	3526.75	2652.25
1021.0908	2942.1523	3439.3	2558.75
1021.2051	2943.248	3347.15	2467.15
1021.3193	2944.3431	3246.25	2367.5
1021.4334	2945.4375	3163.95	2282.9
1021.5476	2946.5313	3049.15	2171.6
1021.6617	2947.6244	2957.35	2079.55
1021.7757	2948.7169	2849.6	1968.6
1021.8897	2949.8087	2760.2	1880.45
1022.0037	2950.8999	2657.35	1778.55
1022.1176	2951.9904	2580.9	1703.5
1022.2315	2953.0803	2516.95	1635
1022.3453	2954.1696	2462.7	1582.4
1022.4591	2955.2582	2400.3	1521.15
1022.5728	2956.3462	2349.9	1468.65
1022.6865	2957.4335	2315	1435.8
1022.8002	2958.5202	2283.4	1402.2
1022.9138	2959.6062	2249.95	1371.55
1023.0274	2960.6916	2228.2	1347.75
1023.141	2961.7764	2217.75	1339.3
1023.2545	2962.8605	2192.1	1313.75
1023.3679	2963.9439	2182.95	1304.35
1023.4813	2965.0267	2165.2	1285.65
1023.5947	2966.1089	2175.8	1273.9
1023.708	2967.1905	2154	1276.3
1023.8213	2968.2714	2150.5	1271.1
1023.9346	2969.3516	2149.9	1273.3
1024.0478	2970.4312	2153.5	1266.85
1024.1609	2971.5102	2148.3	1269.55
1024.274	2972.5885	2143.1	1265.8
1024.3871	2973.6662	2148.25	1265.75
1024.5002	2974.7432	2145.2	1268.05
1024.6132	2975.8196	2137.45	1258.05
1024.7261	2976.8954	2122.6	1246.95
1024.839	2977.9705	2110.15	1231.8
1024.9519	2979.045	2096.65	1216.7
1025.0647	2980.1188	2081.15	1203.9
1025.1775	2981.192	2074.4	1194.85
1025.2902	2982.2645	2039.85	1161.8
1025.4029	2983.3364	2014.6	1136.75
1025.5156	2984.4077	1981	1101.65
1025.6282	2985.4783	1958.55	1076.25
1025.7407	2986.5483	1920.55	1044.15
1025.8532	2987.6177	1886.25	1009.4
1025.9657	2988.6864	1853.4	974.8
1026.0782	2989.7545	1825.15	946.4
1026.1906	2990.8219	1785.65	909.8
1026.3029	2991.8887	1756.3	876.35
1026.4152	2992.9548	1727.8	851.55
1026.5275	2994.0204	1698.7	821.5
1026.6397	2995.0852	1669.15	791.5
1026.7519	2996.1495	1640.25	762.1
1026.864	2997.2131	1610.6	732.05
1026.9761	2998.276	1593.15	718.65
1027.0882	2999.3383	1575.4	694.1
1027.2002	3000.4	1561.35	682.6
1027.3122	3001.4611	1540.5	663.6
1027.4241	3002.5215	1522.6	644.3
1027.536	3003.5812	1507.3	632.35
1027.6478	3004.6404	1495.05	616.6
1027.7596	3005.6989	1496.65	617.15
1027.8714	3006.7567	1476.25	598
1027.9831	3007.8139	1497.55	589.4
1028.0947	3008.8705	1456.35	579.6
1028.2064	3009.9264	1454.35	574.2
1028.3179	3010.9818	1448.15	569.65
1028.4295	3012.0364	1442.45	563.95
1028.541	3013.0905	1438.4	560.7
1028.6524	3014.1439	1437.15	560.2
1028.7638	3015.1966	1438.6	561.85
1028.8752	3016.2487	1428.9	551.45
1028.9865	3017.3002	1435.85	553.85
1029.0978	3018.3511	1430.55	554.35
1029.209	3019.4013	1429.8	550.8
1029.3202	3020.4509	1424.7	546.65
1029.4314	3021.4998	1426.95	549.3
1029.5425	3022.5481	1428.55	550.65
1029.6535	3023.5958	1431.35	554
1029.7645	3024.6428	1427.55	548.45
1029.8755	3025.6892	1426.55	547.6
1029.9864	3026.735	1427.75	549.85
1030.0973	3027.7802	1432.25	554.65
1030.2082	3028.8247	1429.2	553.1
1030.319	3029.8685	1429.55	550.05
1030.4297	3030.9118	1444.25	567.4
1030.5404	3031.9544	1439.6	563
1030.6511	3032.9963	1444.25	568.3
1030.7617	3034.0376	1445.3	570.35
1030.8723	3035.0783	1450	569.9
1030.9829	3036.1184	1451.65	573.9
1031.0934	3037.1578	1450.1	572.4
1031.2038	3038.1966	1462.7	584.5
1031.3142	3039.2348	1450.7	574.2
1031.4246	3040.2723	1461.4	573.5
1031.5349	3041.3092	1453.45	578.5
1031.6452	3042.3455	1457.2	579.9
1031.7554	3043.3811	1453.9	576.55
1031.8656	3044.4161	1438.25	561.05
1031.9758	3045.4505	1447.5	571.05
1032.0859	3046.4842	1430.85	552.4
1032.1959	3047.5173	1422.35	546.2
1032.3059	3048.5498	1427.35	551.5
1032.4159	3049.5816	1419.95	542.9
1032.5258	3050.6128	1413	533.3
1032.6357	3051.6434	1405.95	527.45
1032.7455	3052.6734	1397.05	519.1
1032.8553	3053.7027	1391.75	513.8
1032.9651	3054.7314	1381.85	503.95
1033.0748	3055.7594	1374.75	497.85
1033.1845	3056.7868	1370.6	492.35
1033.2941	3057.8136	1368.05	492
1033.4037	3058.8398	1366.75	491.95
1033.5132	3059.8653	1358.4	480.9
1033.6227	3060.8902	1347.05	471.1
1033.7321	3061.9145	1341.95	465.4
1033.8415	3062.9381	1340.95	464.35
1033.9509	3063.9612	1357	464.7
1034.0602	3064.9835	1334.05	457.7
1034.1694	3066.0053	1322.35	442.3
1034.2787	3067.0264	1317	442.9
1034.3878	3068.0469	1313.95	434.8
1034.497	3069.0668	1305.4	427.25
1034.6061	3070.086	1290.7	415.65
1034.7151	3071.1046	1290.75	413.3
1034.8241	3072.1226	1286	409.55
1034.9331	3073.1399	1270.95	395.85
1035.042	3074.1567	1262.7	384.95
1035.1508	3075.1727	1255.95	380.55
1035.2597	3076.1882	1238.85	362.15
1035.3684	3077.203	1239.15	363.35
1035.4772	3078.2173	1229.2	352.4
1035.5859	3079.2308	1225.7	345.6
1035.6945	3080.2438	1213	333.15
1035.8031	3081.2561	1207.45	330.15
1035.9117	3082.2678	1195.45	319.5
1036.0202	3083.2789	1191.15	315.2
1036.1286	3084.2893	1185.1	307.65
1036.2371	3085.2991	1181.15	304.25
1036.3454	3086.3083	1180.35	298.1
1036.4538	3087.3169	1169.55	289.65
1036.562	3088.3248	1164.2	286
1036.6703	3089.3321	1157.35	279.75
1036.7785	3090.3388	1152.65	278.5
1036.8866	3091.3449	1146.4	270.35
1036.9948	3092.3503	1147.45	269.1
1037.1028	3093.3551	1137.25	263.2
1037.2108	3094.3593	1133.5	258.65
1037.3188	3095.3629	1131.25	256.7
1037.4267	3096.3658	1131.2	253.05
1037.5346	3097.3681	1128.95	252.65
1037.6425	3098.3698	1126.5	249.15
1037.7503	3099.3708	1126.2	243.8
1037.858	3100.3713	1113.5	240.45
1037.9657	3101.3711	1115.4	239.5
1038.0734	3102.3702	1235	238.15
1038.181	3103.3688	1114	236.5
1038.2886	3104.3667	1110.65	236.15
1038.3961	3105.364	1111.45	234.95
1038.5036	3106.3607	1103.2	226.45
1038.611	3107.3568	1102.1	224.1
1038.7184	3108.3522	1101.8	227.75
1038.8257	3109.347	1100.25	224.4
1038.933	3110.3412	1097.7	216.7
1039.0403	3111.3348	1088.55	211.45
1039.1475	3112.3277	1090	214.25
1039.2547	3113.32	1088.6	213.15
1039.3618	3114.3117	1090.4	214.55
1039.4689	3115.3028	1086.9	211.65
1039.5759	3116.2932	1085.45	206.65
1039.6829	3117.2831	1091.6	213.3
1039.7898	3118.2723	1082.7	206.15
1039.8967	3119.2608	1080.3	203.45
1040.0035	3120.2488	1075.2	200.9
1040.1103	3121.2361	1079.35	203.05
1040.2171	3122.2229	1072.35	196.4
1040.3238	3123.209	1072.35	196.5
1040.4305	3124.1944	1072.1	197.05
1040.5371	3125.1793	1073.9	195.7
1040.6437	3126.1635	1071.1	196.1
1040.7502	3127.1471	1065.95	188.1
1040.8567	3128.1301	1067	194.15
1040.9631	3129.1125	1060.85	185.6
1041.0695	3130.0942	1058.35	181.15
1041.1759	3131.0753	1069.4	185.55
1041.2822	3132.0558	1064.45	186.35
1041.3884	3133.0357	1059.6	186.35
1041.4946	3134.015	1058.1	180.85
1041.6008	3134.9936	1053	177.95
1041.7069	3135.9716	1071.7	176.25
1041.813	3136.949	1055.55	182.75
1041.919	3137.9258	1067.35	176.1
1042.025	3138.902	1054.65	174.35
1042.1309	3139.8775	1047.1	170.8
1042.2368	3140.8524	1043.8	167.15
1042.3427	3141.8267	1044.4	164.65
1042.4485	3142.8004	1048.6	171.55
1042.5542	3143.7735	1047.05	164.35
1042.6599	3144.7459	1050.2	172.8
1042.7656	3145.7178	1043.05	169.1
1042.8712	3146.689	1038.1	163.05
1042.9768	3147.6596	1039.2	162.25
1043.0823	3148.6295	1039.1	163.6
1043.1878	3149.5989	1039.05	164.8
1043.2932	3150.5676	1033	158.95
1043.3986	3151.5357	1033.55	162.05
1043.5039	3152.5032	1031.1	155.9
1043.6092	3153.4701	1031.2	157
1043.7145	3154.4364	1036.65	158.7
1043.8197	3155.402	1030.65	156.35
1043.9248	3156.367	1031.65	153.55
1044.03	3157.3315	1055	152.65
1044.135	3158.2952	1026.2	151.8
1044.24	3159.2584	1021.8	148
1044.345	3160.221	1027.45	153.3
1044.4499	3161.1829	1022.2	147.2
1044.5548	3162.1442	1022.2	146.3
1044.6596	3163.105	1020.4	144.2
1044.7644	3164.065	1019.3	141.5
1044.8692	3165.0245	1019.35	141.85
1044.9739	3165.9834	1013.65	140.75
1045.0785	3166.9416	1017.85	144.15
1045.1831	3167.8993	1012.6	136.75
1045.2877	3168.8563	1011.75	134.05
1045.3922	3169.8127	1014.1	139.15
1045.4966	3170.7684	1014.1	140.3
1045.6011	3171.7236	1012.6	137.8
1045.7054	3172.6782	1007.15	130.7
1045.8098	3173.6321	1011.25	137.2
1045.914	3174.5854	1010.95	133.6
1046.0183	3175.5381	1010.55	134.75
1046.1224	3176.4902	1007.7	134.25
1046.2266	3177.4417	1006.05	132.45
1046.3307	3178.3926	1006.05	131.95
1046.4347	3179.3428	1004.6	130.7
1046.5387	3180.2924	1003.25	127.9
1046.6427	3181.2415	1004.45	127.95
1046.7466	3182.1899	1005.5	130.1
1046.8504	3183.1377	1002.6	127
1046.9542	3184.0848	1003.05	126.15
1047.058	3185.0314	998.8	123.25
1047.1617	3185.9773	998.85	123.55
1047.2654	3186.9227	999.25	123.4
1047.369	3187.8674	995.75	121.1
1047.4726	3188.8115	1001.05	121.7
1047.5761	3189.755	998.3	126
1047.6796	3190.6979	996.75	122.15
1047.783	3191.6402	998.1	122.6
1047.8864	3192.5818	997.5	122.25
1047.9898	3193.5229	999.75	120.85
1048.0931	3194.4633	994.25	120.9
1048.1963	3195.4031	993.85	117.5
1048.2995	3196.3423	992.1	119
1048.4027	3197.2809	993.35	118.65
1048.5058	3198.2189	991.75	117.4
1048.6089	3199.1563	1006.55	117.6
1048.7119	3200.0931	988.45	115.05
1048.8148	3201.0292	988.4	115.4
1048.9178	3201.9648	986.75	111.55
1049.0206	3202.8997	989.75	112.75
1049.1235	3203.834	986.85	111.6
1049.2262	3204.7677	985.7	110.25
1049.329	3205.7008	985.95	111.6
1049.4317	3206.6333	982.25	109.5
1049.5343	3207.5652	987.75	112.25
1049.6369	3208.4964	982.65	109.6
1049.7394	3209.4271	984.4	111.5
1049.8419	3210.3571	981.3	107.9
1049.9444	3211.2865	982.65	110
1050.0468	3212.2154	985.6	110.7
1050.1491	3213.1436	984	106.25
1050.2514	3214.0712	989.45	106.9
1050.3537	3214.9982	978.7	104.45
1050.4559	3215.9246	977.15	100.2
1050.5581	3216.8503	980	107
1050.6602	3217.7755	975.45	99.7
1050.7623	3218.7001	973.25	98.3
1050.8643	3219.624	977.2	104.05
1050.9663	3220.5473	977.5	103.65
1051.0682	3221.4701	975.1	100.55
1051.1701	3222.3922	976.7	100.7
1051.2719	3223.3137	973.35	100.45
1051.3737	3224.2346	975.2	100.9
1051.4754	3225.1549	974.4	100.2
1051.5771	3226.0746	972.15	97.15
1051.6788	3226.9937	973.8	100.35
1051.7804	3227.9121	972.55	100.1
1051.8819	3228.83	967.65	94.05
1051.9834	3229.7473	972.5	100.9
1052.0849	3230.6639	970.25	96.05
1052.1863	3231.5799	970.55	97.85
1052.2876	3232.4954	968.55	93.2
1052.3889	3233.4102	969.35	95.95
1052.4902	3234.3244	966.9	91.65
1052.5914	3235.238	966.95	94.9
1052.6926	3236.151	979.25	92.55
1052.7937	3237.0634	966.35	95.15
1052.8948	3237.9752	963.1	88.2
1052.9958	3238.8864	964.35	91.05
1053.0968	3239.797	963.05	89.15
1053.1977	3240.7069	966.3	92.45
1053.2986	3241.6163	965.2	88.35
1053.3994	3242.5251	961.55	89.5
1053.5002	3243.4332	960.4	89.4
1053.6009	3244.3408	962.8	89.8
1053.7016	3245.2477	953.2	80
1053.8022	3246.154	961.7	89.45
1053.9028	3247.0598	960.45	85.45
1054.0034	3247.9649	953.95	79.4
1054.1039	3248.8694	956	81.15
1054.2043	3249.7733	956.9	83.55
1054.3047	3250.6766	956.4	81.75
1054.4051	3251.5793	955.35	81.2
1054.5054	3252.4814	950.9	77.2
1054.6056	3253.3829	954.7	83.6
1054.7058	3254.2838	951.15	77.7
1054.806	3255.1841	951.2	78.1
1054.9061	3256.0838	952	79
1055.0061	3256.9829	950.65	77.7
1055.1062	3257.8814	953.15	77.3
1055.2061	3258.7792	953.45	76.55
1055.306	3259.6765	953.1	80.15
1055.4059	3260.5731	948	74.95
1055.5057	3261.4692	948.4	75.15
1055.6055	3262.3647	945.65	73
1055.7052	3263.2595	943.3	72.85
1055.8049	3264.1538	941.55	69.45
1055.9045	3265.0474	944.4	70.7
1056.0041	3265.9404	939.4	68.6
1056.1036	3266.8329	940.55	67.75
1056.2031	3267.7247	947.05	64.95
1056.3025	3268.616	935.75	64.95
1056.4019	3269.5066	935.05	60.2
1056.5013	3270.3966	935.45	60.15
1056.6005	3271.286	932.6	59.9
