Software Version:	3.9.2.0
Unit SN:	10000200
Spectrometer SN:	6960
Date:	3/8/2024 11:20:37 AM
Data Line Index:	25
Spectral Points:	2048
Integration time (ms):	125
Averages:	20
Delay (ms):	30000
Sequence Number:	1
Processing:	dark subtract
Laser Power (mW):	300
Laser Current (mA):	823
Laser Diode Temp (C):	25
Laser Case Temp (C):	24.8
System Temp (C):	24.8
Spectrometer Temp (C):	22.7
CCD Temp (C):	0.005
Secondary Temp (C):	20.007
Heatsink Temp (C):	19.555
CCDPCB Temp (C):	32.772
SecondaryPCB Temp (C):	26.503

Wavelength	RamanShift	Raw Counts	Dark Subtracted
787.061	30.1047	416.9	8.75
787.2016	32.3739	416.5	8.75
787.3422	34.6426	417	9.95
787.4828	36.9109	419.25	7.15
787.6235	39.1787	423.75	10.05
787.7642	41.4461	428.65	11
787.9049	43.7131	432.95	10.2
788.0456	45.9796	437	12.05
788.1863	48.2456	440.25	10.25
788.3271	50.5112	446.65	11.95
788.4679	52.7764	448.4	14.8
788.6087	55.0411	455.9	17.25
788.7496	57.3054	461.4	16.6
788.8904	59.5692	463.65	17.15
789.0313	61.8326	469.85	21.55
789.1722	64.0955	474.65	23.6
789.3132	66.3579	482.2	24.1
789.4541	68.6199	488.5	26.45
789.5951	70.8815	498.25	32.5
789.7361	73.1426	522.75	52.95
789.8771	75.4032	563.55	91.75
790.0181	77.6634	659.95	184.2
790.1592	79.9231	885.5	405.35
790.3003	82.1824	1347.9	861
790.4414	84.4412	2103.25	1603.8
790.5825	86.6995	3085.5	2571.65
790.7237	88.9574	4023.45	3497.3
790.8648	91.2148	4657.75	4123.75
791.006	93.4717	4953	4412.6
791.1472	95.7282	5003.5	4459.15
791.2885	97.9842	4980.25	4433.35
791.4297	100.2398	4916.2	4367.3
791.571	102.4949	4860.5	4309.4
791.7123	104.7495	4811.05	4255
791.8536	107.0036	4757.05	4199.35
791.9949	109.2573	4669.1	4113.15
792.1363	111.5105	4571.45	4014.05
792.2777	113.7632	4461.9	3902.3
792.4191	116.0154	4325.4	3755.85
792.5605	118.2672	4195.45	3629.4
792.7019	120.5185	4061.4	3495.1
792.8434	122.7693	3921.35	3351.1
792.9849	125.0197	3812.05	3239.65
793.1264	127.2696	3720.85	3139.8
793.2679	129.519	3651.2	3069.3
793.4094	131.7679	3608.55	3026.1
793.551	134.0163	3586.3	3000.45
793.6926	136.2642	3566.5	2978.8
793.8342	138.5117	3554.1	2960.85
793.9758	140.7587	3510.7	2919.5
794.1175	143.0052	3472.15	2879.05
794.2591	145.2512	3400.9	2806.75
794.4008	147.4967	3331.75	2729.7
794.5425	149.7417	3274.25	2672.75
794.6842	151.9863	3243.7	2637.55
794.826	154.2304	3214.85	2607.45
794.9677	156.4739	3219.35	2606.05
795.1095	158.717	3217.6	2602.65
795.2513	160.9596	3265	2646.9
795.3931	163.2017	3288.8	2668.95
795.535	165.4433	3318.65	2696.55
795.6768	167.6844	3322.9	2697.55
795.8187	169.925	3278.05	2648.2
795.9606	172.1651	3213.8	2584
796.1025	174.4047	3158.5	2520.1
796.2445	176.6439	3096.3	2459.55
796.3864	178.8825	3050.85	2411.45
796.5284	181.1206	3029.95	2387.55
796.6704	183.3582	3014.75	2369.35
796.8124	185.5954	3020.45	2372.05
796.9544	187.832	3010.85	2355.45
797.0965	190.0681	3015.5	2356.6
797.2386	192.3037	3017.3	2357.8
797.3806	194.5388	3011.5	2351.15
797.5228	196.7734	3040.6	2378.6
797.6649	199.0075	3059.5	2395.75
797.807	201.2411	3087.65	2421.5
797.9492	203.4742	3123.5	2455.65
798.0914	205.7068	3159.25	2486.6
798.2336	207.9389	3186.8	2517.55
798.3758	210.1704	3199.25	2534.95
798.518	212.4015	3189.2	2537.25
798.6603	214.632	3203.5	2554.15
798.8025	216.862	3208.8	2557.95
798.9448	219.0915	3221.75	2569.15
799.0871	221.3205	3238.5	2585.7
799.2294	223.549	3265.35	2612.9
799.3718	225.777	3248.6	2594.95
799.5141	228.0044	3242.9	2582.4
799.6565	230.2314	3228.4	2563.85
799.7989	232.4578	3217.95	2551.8
799.9413	234.6837	3220.1	2546.25
800.0837	236.909	3197.4	2519.55
800.2262	239.1339	3204.3	2502.7
800.3687	241.3582	3180.3	2493.95
800.5111	243.582	3206.15	2488.65
800.6536	245.8053	3199.9	2496.5
800.7961	248.0281	3194.5	2496.5
800.9387	250.2503	3206.1	2505.55
801.0812	252.472	3215.2	2513.3
801.2238	254.6932	3225.1	2525.65
801.3664	256.9139	3234.85	2531.1
801.509	259.134	3244	2535.05
801.6516	261.3536	3283.95	2577.65
801.7942	263.5727	3325.35	2616.5
801.9369	265.7912	3377.3	2672.4
802.0795	268.0092	3463.6	2760.5
802.2222	270.2267	3541.35	2831.45
802.3649	272.4436	3615.45	2903.75
802.5076	274.6601	3656.05	2933.2
802.6504	276.8759	3697.9	2983.55
802.7931	279.0913	3731.35	3015.5
802.9359	281.3061	3761.15	3044.95
803.0787	283.5204	3785.75	3063.9
803.2215	285.7341	3801.5	3079.25
803.3643	287.9473	3854.85	3130.85
803.5071	290.16	3844.6	3120.35
803.6499	292.3721	3795.45	3073.75
803.7928	294.5837	3736.3	3013.15
803.9357	296.7947	3669.4	2945.2
804.0786	299.0052	3639.5	2915.8
804.2215	301.2152	3639.95	2913.7
804.3644	303.4246	3620.75	2898.9
804.5074	305.6334	3602.85	2879.9
804.6503	307.8418	3571.75	2845.15
804.7933	310.0495	3551.3	2824
804.9363	312.2568	3504.7	2775.9
805.0793	314.4635	3457.5	2725.1
805.2223	316.6696	3390.45	2654.55
805.3653	318.8752	3334.2	2591.8
805.5084	321.0802	3278.65	2540.45
805.6514	323.2847	3258.85	2519.25
805.7945	325.4887	3255.3	2514.5
805.9376	327.692	3287.2	2545.3
806.0807	329.8949	3348.7	2606.45
806.2238	332.0972	3411.9	2668.8
806.367	334.2989	3464.95	2717.9
806.5101	336.5001	3476.05	2729.75
806.6533	338.7007	3444.85	2694.35
806.7965	340.9008	3366.85	2616.25
806.9397	343.1003	3290.45	2538.2
807.0829	345.2992	3220.2	2467.15
807.2261	347.4976	3157.3	2404.65
807.3693	349.6955	3110.1	2353.35
807.5126	351.8927	3080.7	2320.7
807.6559	354.0895	3059.05	2291.1
807.7991	356.2856	3054.15	2290.8
807.9424	358.4812	3026.15	2264.7
808.0857	360.6763	3017.55	2253.35
808.2291	362.8707	3024.1	2258.9
808.3724	365.0646	3018.25	2250.15
808.5158	367.258	3029.1	2256.5
808.6591	369.4508	3035.45	2261.4
808.8025	371.643	3080.2	2306.35
808.9459	373.8346	3129.25	2357.2
809.0893	376.0257	3181.45	2406.9
809.2327	378.2162	3214.55	2440.1
809.3762	380.4062	3227.45	2448.7
809.5196	382.5956	3208.3	2433.3
809.6631	384.7844	3157.35	2391.1
809.8066	386.9726	3082.45	2316.6
809.9501	389.1603	3034.2	2266.75
810.0936	391.3474	3051.7	2250.8
810.2371	393.5339	3016.4	2248
810.3806	395.7199	3017.8	2249.1
810.5241	397.9052	3061.25	2292.5
810.6677	400.09	3116.45	2346.35
810.8113	402.2743	3181.65	2410.2
810.9548	404.4579	3211.9	2440.05
811.0984	406.641	3283.15	2507.15
811.2421	408.8235	3335.85	2561.65
811.3857	411.0054	3398.3	2622.1
811.5293	413.1868	3458.45	2676.55
811.673	415.3675	3506.8	2724.15
811.8166	417.5477	3517.85	2730.6
811.9603	419.7273	3461.05	2671.6
812.104	421.9064	3380.35	2583.65
812.2477	424.0848	3295.4	2504.55
812.3914	426.2627	3205.7	2416.05
812.5351	428.4399	3115.8	2326.25
812.6788	430.6166	3033.8	2239.55
812.8226	432.7928	2978.05	2181.85
812.9663	434.9683	2920.6	2125.1
813.1101	437.1432	2888.75	2092.15
813.2539	439.3176	2853.35	2058.95
813.3977	441.4914	2833.6	2041.65
813.5415	443.6645	2834.45	2037.9
813.6853	445.8371	2831.7	2035.55
813.8291	448.0091	2825.8	2028.2
813.973	450.1806	2829.75	2032.35
814.1168	452.3514	2801.8	2001.4
814.2607	454.5216	2824.7	2016.8
814.4046	456.6913	2817.75	2017.1
814.5485	458.8603	2818.55	2020.15
814.6924	461.0288	2826.9	2027.6
814.8363	463.1967	2828	2029.5
814.9802	465.3639	2827.3	2027
815.1241	467.5306	2819.95	2018.65
815.2681	469.6967	2804.15	2001.9
815.412	471.8622	2802.85	2002.35
815.556	474.0271	2785.2	1984.55
815.7	476.1914	2796.65	1991.7
815.844	478.3551	2780.55	1978.35
815.988	480.5182	2790.95	1985.6
816.132	482.6807	2792.25	1986
816.276	484.8426	2812.4	2011.3
816.4201	487.0039	2859.05	2051.7
816.5641	489.1647	2926.45	2119.1
816.7082	491.3248	3001.4	2193.1
816.8522	493.4843	3038.95	2233.5
816.9963	495.6432	3015.35	2208.15
817.1404	497.8015	2968.05	2156.1
817.2845	499.9592	2928.2	2116.85
817.4286	502.1163	2840.85	2029
817.5727	504.2728	2779.7	1967.15
817.7168	506.4287	2755.95	1948.25
817.861	508.5839	2713.05	1903.95
818.0051	510.7386	2712.55	1899.4
818.1493	512.8927	2726.45	1903.35
818.2935	515.0461	2723.8	1909.1
818.4377	517.199	2745.8	1930.7
818.5818	519.3512	2799	1983.25
818.726	521.5029	2894.3	2073.2
818.8703	523.6539	2979.7	2161.45
819.0145	525.8043	3002.05	2185.45
819.1587	527.9541	2942.9	2122.3
819.303	530.1033	2840.1	2020.1
819.4472	532.2519	2761.2	1941.65
819.5915	534.3999	2719.55	1896.9
819.7357	536.5472	2701.6	1882.85
819.88	538.694	2709.6	1888.9
820.0243	540.8401	2726.45	1901.6
820.1686	542.9856	2753.1	1929.25
820.3129	545.1305	2783.85	1955.65
820.4572	547.2748	2785.35	1956.55
820.6016	549.4185	2794.35	1966.3
820.7459	551.5615	2817.8	1993.45
820.8902	553.704	2840	2016.2
821.0346	555.8458	2858.4	2035.95
821.1789	557.987	2880.35	2058.15
821.3233	560.1276	2918.7	2095.1
821.4677	562.2675	3011.2	2186.05
821.6121	564.4069	3103	2276.35
821.7565	566.5456	3159.9	2333.1
821.9009	568.6837	3137.6	2310.95
822.0453	570.8212	3029.9	2204.15
822.1897	572.958	2896.9	2067.9
822.3342	575.0942	2807.95	1982.45
822.4786	577.2299	2758	1933
822.6231	579.3648	2726.85	1902.1
822.7675	581.4992	2707.3	1885.75
822.912	583.6329	2720.85	1897.05
823.0565	585.766	2752.85	1926.05
823.201	587.8985	2819.95	1992.25
823.3454	590.0304	2896.85	2054.6
823.4899	592.1616	2942.5	2107.25
823.6345	594.2922	2948.6	2114.5
823.779	596.4222	2900.75	2063.75
823.9235	598.5515	2836.9	2003.55
824.068	600.6802	2743.6	1909.5
824.2126	602.8083	2669.5	1833.3
824.3571	604.9358	2660.6	1824.5
824.5017	607.0626	2650.4	1813.85
824.6462	609.1888	2642	1803.4
824.7908	611.3144	2678.3	1838
824.9354	613.4393	2738.5	1901.7
825.08	615.5636	2811.4	1971.45
825.2246	617.6873	2884.8	2047.65
825.3692	619.8103	2947.7	2106.85
825.5138	621.9327	2940.3	2100.6
825.6584	624.0544	2887.1	2049.1
825.803	626.1756	2791.45	1953.7
825.9477	628.2961	2723.85	1885.15
826.0923	630.4159	2686.7	1846.4
826.237	632.5351	2679.45	1839
826.3816	634.6537	2658.2	1814.9
826.5263	636.7716	2656	1811.7
826.6709	638.8889	2660.3	1816.5
826.8156	641.0056	2646.45	1802.05
826.9603	643.1216	2658.5	1814.6
827.105	645.237	2673.95	1828.25
827.2497	647.3518	2649.15	1806.25
827.3944	649.4659	2602.1	1760.95
827.5391	651.5793	2572.8	1727.95
827.6838	653.6922	2564.45	1721.15
827.8285	655.8043	2531.15	1686.95
827.9733	657.9159	2527.85	1683.05
828.118	660.0268	2511.05	1665.65
828.2627	662.137	2510.1	1665.2
828.4075	664.2466	2504.45	1654.15
828.5522	666.3556	2510.05	1660.55
828.697	668.4639	2502.65	1651.85
828.8418	670.5716	2494.7	1649.4
828.9865	672.6786	2484.7	1635.6
829.1313	674.785	2465.75	1614.8
829.2761	676.8907	2462.35	1613.35
829.4209	678.9958	2459.9	1614.7
829.5657	681.1002	2451.95	1602.1
829.7105	683.204	2460.9	1604.2
829.8553	685.3072	2459	1603.8
830.0001	687.4097	2467.3	1617.7
830.1449	689.5115	2453.3	1600.2
830.2898	691.6127	2451.95	1599.4
830.4346	693.7132	2450.9	1600.2
830.5794	695.8131	2455.15	1593.1
830.7243	697.9123	2450.95	1595.6
830.8691	700.0109	2457.25	1604.1
831.014	702.1089	2470.3	1616.25
831.1588	704.2061	2484.4	1629.8
831.3037	706.3028	2515.35	1661
831.4486	708.3987	2561.75	1703.95
831.5935	710.4941	2574.05	1721.3
831.7383	712.5887	2590.2	1733.6
831.8832	714.6827	2579.95	1720.75
832.0281	716.7761	2563.35	1708.75
832.173	718.8688	2565.75	1709.65
832.3179	720.9608	2551.65	1689
832.4628	723.0522	2576.3	1714.1
832.6077	725.1429	2592.1	1735.2
832.7527	727.233	2649.75	1788.75
832.8976	729.3224	2738.5	1880.15
833.0425	731.4112	2814.7	1956.5
833.1874	733.4993	2849.65	1988.75
833.3324	735.5867	2782.8	1923.75
833.4773	737.6735	2688.15	1828
833.6222	739.7596	2585.1	1726.2
833.7672	741.845	2531.6	1672.2
833.9122	743.9298	2519.5	1658.55
834.0571	746.014	2524	1665.15
834.2021	748.0974	2522.1	1659.6
834.347	750.1802	2529.7	1668.1
834.492	752.2624	2520.25	1658.55
834.637	754.3439	2515.55	1651.8
834.782	756.4247	2517.95	1646.1
834.9269	758.5048	2515.65	1654.2
835.0719	760.5843	2540.85	1676.45
835.2169	762.6631	2579.15	1714
835.3619	764.7413	2659.15	1796.7
835.5069	766.8188	2776	1911.15
835.6519	768.8956	2895.85	2030.95
835.7969	770.9718	2981.2	2117.15
835.9419	773.0473	2969.15	2105.5
836.0869	775.1221	2923.8	2060.75
836.232	777.1962	2887.05	2021.8
836.377	779.2697	2965.7	2099.05
836.522	781.3426	3125.35	2240.3
836.667	783.4147	3225.7	2361
836.8121	785.4862	3237.1	2374.95
836.9571	787.557	3103.8	2237.9
837.1021	789.6271	2924.35	2058.45
837.2472	791.6966	2740.65	1875.2
837.3922	793.7654	2584.9	1717.55
837.5373	795.8335	2498.15	1634
837.6823	797.901	2456	1589.6
837.8274	799.9678	2435.3	1564.65
837.9724	802.0339	2429.75	1565.5
838.1175	804.0993	2455.8	1578.2
838.2626	806.1641	2443.8	1575.25
838.4076	808.2282	2413.45	1545.85
838.5527	810.2916	2400.6	1529.5
838.6978	812.3544	2375.65	1508.15
838.8428	814.4164	2356.4	1489.05
838.9879	816.4778	2363.75	1494.25
839.133	818.5385	2384.9	1517
839.2781	820.5986	2433.3	1565.4
839.4232	822.658	2503	1633.4
839.5682	824.7166	2585.4	1716.3
839.7133	826.7747	2714.4	1846.2
839.8584	828.832	2842.3	1973.4
840.0035	830.8886	2901.5	2027.35
840.1486	832.9446	2960.3	2089.7
840.2937	834.9999	2928.7	2058.4
840.4388	837.0545	2814.1	1939.3
840.5839	839.1085	2690.9	1819
840.729	841.1618	2595.5	1720.25
840.8741	843.2143	2499.25	1626.1
841.0192	845.2662	2461.4	1589.25
841.1643	847.3175	2425.65	1553.45
841.3095	849.368	2402.25	1530.25
841.4546	851.4179	2398.3	1528.7
841.5997	853.467	2414.55	1542.05
841.7448	855.5155	2403.6	1531.3
841.8899	857.5633	2409.45	1537.65
842.0351	859.6105	2403.35	1530.7
842.1802	861.6569	2405.15	1533.5
842.3253	863.7027	2370.9	1497.9
842.4704	865.7478	2360.6	1487.75
842.6156	867.7922	2339.65	1463.85
842.7607	869.8359	2326.1	1452.6
842.9058	871.8789	2320.05	1444.65
843.0509	873.9212	2346.75	1440.45
843.1961	875.9629	2328.85	1453.75
843.3412	878.0039	2336.45	1458.7
843.4863	880.0441	2352.7	1479.1
843.6315	882.0837	2385.35	1511.3
843.7766	884.1226	2417.7	1539.8
843.9218	886.1609	2474.4	1600.95
844.0669	888.1984	2535.85	1659.5
844.212	890.2352	2613.35	1739.4
844.3572	892.2714	2636.45	1754.75
844.5023	894.3069	2592.45	1715.85
844.6475	896.3416	2507	1631.7
844.7926	898.3757	2460.35	1582.9
844.9377	900.4091	2407	1529.25
845.0829	902.4418	2419.45	1536.15
845.228	904.4739	2449.5	1571.1
845.3732	906.5052	2478.75	1600.45
845.5183	908.5358	2468.95	1592.95
845.6635	910.5658	2450.05	1571.45
845.8086	912.595	2398.55	1522.55
845.9538	914.6236	2340.6	1462.1
846.0989	916.6515	2305.8	1430.6
846.2441	918.6786	2278.9	1400.9
846.3892	920.7051	2268.75	1389.7
846.5344	922.7309	2263	1382.65
846.6795	924.756	2269.6	1391.55
846.8246	926.7804	2277.35	1397.4
846.9698	928.8041	2285.15	1404.9
847.1149	930.8272	2309.8	1432.2
847.2601	932.8495	2322.85	1443.8
847.4052	934.8711	2337.45	1455.55
847.5504	936.892	2343.3	1464.2
847.6955	938.9123	2370.15	1490.15
847.8407	940.9318	2403.5	1525.65
847.9858	942.9506	2440.1	1556.15
848.131	944.9688	2425.6	1544.8
848.2761	946.9862	2391.35	1512.4
848.4213	949.003	2335.6	1456.6
848.5664	951.019	2299.7	1420.15
848.7115	953.0344	2289.05	1407.2
848.8567	955.0491	2261.55	1381.85
849.0018	957.063	2253.7	1375.5
849.147	959.0763	2239.65	1359.35
849.2921	961.0888	2237.3	1354.55
849.4373	963.1007	2238.05	1357.95
849.5824	965.1119	2229.3	1349.25
849.7275	967.1223	2218.55	1342.45
849.8727	969.1321	2210.5	1335.85
850.0178	971.1412	2199.95	1322.15
850.1629	973.1495	2198.1	1320.3
850.3081	975.1572	2214.15	1301.15
850.4532	977.1641	2213.85	1333.15
850.5983	979.1704	2209.8	1329.85
850.7435	981.1759	2194.9	1311.65
850.8886	983.1808	2188.4	1304.05
851.0337	985.1849	2189.65	1296.8
851.1788	987.1884	2177	1292.5
851.324	989.1911	2170.45	1286.6
851.4691	991.1932	2194.35	1311.8
851.6142	993.1945	2184.8	1304.7
851.7593	995.1951	2193.4	1307.75
851.9045	997.1951	2185.35	1296.55
852.0496	999.1943	2188.55	1310.6
852.1947	1001.1928	2182.25	1298.5
852.3398	1003.1906	2198.75	1316.2
852.4849	1005.1877	2233.45	1352.1
852.63	1007.1841	2268.85	1385.2
852.7751	1009.1798	2284.6	1404.2
852.9202	1011.1748	2284.95	1402.15
853.0653	1013.1691	2246.4	1364
853.2104	1015.1627	2199.05	1315.25
853.3555	1017.1556	2153.9	1270.5
853.5006	1019.1477	2123.55	1240.75
853.6457	1021.1392	2102.9	1221.75
853.7908	1023.1299	2074.65	1193.15
853.9359	1025.12	2088.15	1208.1
854.081	1027.1093	2089.3	1213.35
854.2261	1029.0979	2115	1241.9
854.3712	1031.0859	2147.1	1269.45
854.5163	1033.0731	2173.1	1291.55
854.6613	1035.0596	2171.75	1291.2
854.8064	1037.0454	2160.9	1278.2
854.9515	1039.0304	2152.6	1270.25
855.0965	1041.0148	2112.3	1230.65
855.2416	1042.9985	2088.3	1203.45
855.3867	1044.9814	2064.8	1182.65
855.5317	1046.9636	2070.65	1184.6
855.6768	1048.9452	2063.7	1183.15
855.8219	1050.926	2091.25	1208.25
855.9669	1052.9061	2119.75	1236.3
856.112	1054.8855	2130.5	1245.15
856.257	1056.8642	2133.8	1249.8
856.4021	1058.8421	2138.1	1250.65
856.5471	1060.8194	2127.15	1240.7
856.6921	1062.7959	2121.6	1236.6
856.8372	1064.7717	2112.35	1227.9
856.9822	1066.7469	2109.6	1222.6
857.1272	1068.7213	2116.5	1230.9
857.2723	1070.695	2136.55	1251.9
857.4173	1072.6679	2168.65	1283.1
857.5623	1074.6402	2205.4	1323.7
857.7073	1076.6117	2228.5	1336.35
857.8523	1078.5826	2203.25	1318.1
857.9973	1080.5527	2151.55	1262.1
858.1423	1082.5221	2088.95	1203.9
858.2873	1084.4908	2058.6	1175.35
858.4323	1086.4587	2038.3	1150.65
858.5773	1088.426	2021.1	1134.95
858.7223	1090.3925	2014	1122.35
858.8673	1092.3584	2022.85	1136.25
859.0123	1094.3235	2020.1	1137.5
859.1573	1096.2879	2048.95	1161.05
859.3022	1098.2515	2092.45	1207.85
859.4472	1100.2145	2130.7	1243.9
859.5922	1102.1767	2171.8	1284.3
859.7371	1104.1382	2223.7	1338.75
859.8821	1106.099	2305.65	1415.65
860.027	1108.0591	2382.5	1497.55
860.172	1110.0185	2427.35	1540.25
860.3169	1111.9771	2476.5	1592
860.4619	1113.9351	2554.45	1667.45
860.6068	1115.8923	2643.05	1757.35
860.7517	1117.8488	2683.15	1794.35
860.8967	1119.8045	2646.6	1760.55
861.0416	1121.7596	2508.3	1619.5
861.1865	1123.7139	2349.3	1464.95
861.3314	1125.6675	2268.6	1383.8
861.4763	1127.6204	2262.8	1378.65
861.6212	1129.5726	2289.3	1401.7
861.7661	1131.524	2294.65	1409.2
861.911	1133.4748	2240.35	1354.2
862.0559	1135.4248	2161.75	1272.5
862.2008	1137.3741	2088.5	1202.55
862.3457	1139.3226	2037.4	1148.2
862.4905	1141.2705	2044.2	1158.65
862.6354	1143.2176	2046	1152.95
862.7803	1145.164	2082.05	1192.15
862.9251	1147.1097	2068.15	1180.7
863.07	1149.0546	2037.55	1147.75
863.2148	1150.9989	2008.8	1120.35
863.3597	1152.9424	1978.7	1092.1
863.5045	1154.8852	1962.5	1073.1
863.6493	1156.8272	1947.4	1061.85
863.7942	1158.7686	1944.05	1048.55
863.939	1160.7092	1938.75	1047.85
864.0838	1162.6491	1949.55	1060.75
864.2286	1164.5883	1958.25	1072.4
864.3734	1166.5267	1987.55	1098.2
864.5182	1168.4644	2013.3	1125.75
864.663	1170.4014	2054.2	1163.15
864.8078	1172.3377	2112.1	1225.55
864.9526	1174.2732	2177.5	1290.75
865.0974	1176.2081	2299.65	1411
865.2421	1178.1421	2463.4	1572.2
865.3869	1180.0755	2652.05	1765
865.5317	1182.0082	2764.7	1879.15
865.6764	1183.9401	2748.35	1857.75
865.8212	1185.8713	2631.5	1743.1
865.9659	1187.8017	2435.05	1548.55
866.1106	1189.7315	2279.65	1397.25
866.2554	1191.6605	2176.1	1267.2
866.4001	1193.5888	2088.25	1201.85
866.5448	1195.5163	2042.7	1157.75
866.6895	1197.4432	2008.7	1119
866.8342	1199.3693	1986.7	1101.55
866.9789	1201.2947	1975.05	1084.3
867.1236	1203.2193	1951.6	1063.4
867.2683	1205.1432	1955.2	1067.95
867.413	1207.0664	1939.1	1050.5
867.5576	1208.9889	1948.2	1058.1
867.7023	1210.9106	1953.15	1063
867.847	1212.8316	1958.45	1068.4
867.9916	1214.7519	1976.6	1078.5
868.1363	1216.6715	1975.05	1086.35
868.2809	1218.5903	1996.2	1109.2
868.4255	1220.5084	2015.4	1125.4
868.5701	1222.4257	2038.15	1149.15
868.7148	1224.3424	2048.55	1163.55
868.8594	1226.2583	2073.45	1180.15
869.004	1228.1735	2119.05	1226.7
869.1486	1230.0879	2174.15	1285.2
869.2932	1232.0016	2224.7	1336.25
869.4377	1233.9146	2272.7	1382.9
869.5823	1235.8269	2293.15	1406.2
869.7269	1237.7384	2289.3	1401.7
869.8715	1239.6492	2290.25	1402.05
870.016	1241.5592	2318.4	1427.7
870.1606	1243.4686	2372.75	1483.7
870.3051	1245.3772	2475.3	1585.7
870.4496	1247.285	2583.5	1694.7
870.5941	1249.1922	2710.75	1822.55
870.7387	1251.0986	2813.95	1925.75
870.8832	1253.0042	2907.85	2018.35
871.0277	1254.9092	3027.55	2136.25
871.1722	1256.8134	3165.8	2276.7
871.3167	1258.7169	3295.4	2404.7
871.4611	1260.6196	3380.2	2492.1
871.6056	1262.5216	3447.15	2554.45
871.7501	1264.4229	3425.65	2536.9
871.8945	1266.3234	3382.6	2491.5
872.039	1268.2232	3297.9	2408.55
872.1834	1270.1223	3212.8	2322.5
872.3278	1272.0207	3153.7	2263.95
872.4723	1273.9183	3130.1	2233.2
872.6167	1275.8151	3126.65	2236.35
872.7611	1277.7113	3144.7	2254.95
872.9055	1279.6067	3279.2	2388.75
873.0499	1281.5014	3469.85	2577.15
873.1943	1283.3953	3743.15	2853.45
873.3386	1285.2885	4015.9	3127.65
873.483	1287.181	4231.25	3342.8
873.6274	1289.0727	4367.8	3480.9
873.7717	1290.9637	4294	3403.2
873.9161	1292.854	4148.25	3258
874.0604	1294.7435	3929.25	3040.25
874.2047	1296.6323	3771.75	2880.3
874.349	1298.5204	3604.55	2711.7
874.4933	1300.4077	3467.15	2576.5
874.6376	1302.2943	3399.25	2511.45
874.7819	1304.1802	3338.5	2449
874.9262	1306.0653	3292.2	2400.8
875.0705	1307.9497	3232.8	2344.2
875.2147	1309.8333	3205.1	2314.65
875.359	1311.7162	3163.2	2273.25
875.5032	1313.5984	3133.3	2240.55
875.6475	1315.4798	3096	2194.15
875.7917	1317.3605	3106.35	2212
875.9359	1319.2405	3108.8	2217.1
876.0801	1321.1197	3095.65	2203.5
876.2243	1322.9982	3067.55	2171.9
876.3685	1324.876	2952.6	2064.4
876.5127	1326.753	2829.45	1940.7
876.6569	1328.6293	2704.3	1811.3
876.801	1330.5048	2581.1	1685.3
876.9452	1332.3796	2455.35	1564.1
877.0893	1334.2537	2376.35	1457.25
877.2335	1336.127	2292.3	1399.65
877.3776	1337.9996	2248.15	1358
877.5217	1339.8714	2209.85	1316.8
877.6658	1341.7426	2239.95	1305.15
877.8099	1343.6129	2161.45	1267.95
877.954	1345.4826	2144.55	1253.85
878.0981	1347.3515	2125.05	1231.8
878.2422	1349.2196	2097.8	1205.5
878.3862	1351.087	2090.8	1200.15
878.5303	1352.9537	2073.2	1180.95
878.6743	1354.8197	2079.05	1186.25
878.8184	1356.6849	2086.8	1194.35
878.9624	1358.5493	2113	1222.75
879.1064	1360.4131	2153.7	1263.75
879.2504	1362.276	2184.7	1294.1
879.3944	1364.1383	2246.9	1358.5
879.5384	1365.9998	2278	1382.4
879.6823	1367.8606	2253.1	1362.45
879.8263	1369.7206	2245.8	1355.8
879.9702	1371.5799	2247.1	1352.3
880.1142	1373.4384	2245.25	1353.3
880.2581	1375.2962	2207.5	1316.35
880.402	1377.1533	2145	1256.35
880.5459	1379.0096	2076	1187.25
880.6898	1380.8652	2026.15	1136.05
880.8337	1382.7201	1973.65	1084.65
880.9776	1384.5742	1930.7	1037.65
881.1215	1386.4275	1910.9	1019.15
881.2653	1388.2802	1886.95	996.9
881.4092	1390.132	1864.95	973.6
881.553	1391.9832	1857.4	963.5
881.6968	1393.8336	1836.75	944.55
881.8406	1395.6832	1832.1	938.3
881.9844	1397.5322	1823.2	933.2
882.1282	1399.3803	1818.2	920.05
882.272	1401.2278	1801.5	909.4
882.4158	1403.0745	1782.1	890.65
882.5595	1404.9204	1775.35	885
882.7033	1406.7656	1770.6	878.4
882.847	1408.6101	1753.55	859.3
882.9908	1410.4538	1754.05	861.5
883.1345	1412.2968	1756.2	865.75
883.2782	1414.139	1764.55	872.55
883.4219	1415.9805	1773.05	883.9
883.5656	1417.8213	1790.2	893.1
883.7092	1419.6613	1803.1	911.35
883.8529	1421.5006	1845.6	954.65
883.9965	1423.3391	1894.15	1002.6
884.1402	1425.1769	1965.25	1071.7
884.2838	1427.0139	2080.15	1190.05
884.4274	1428.8502	2222.5	1330.8
884.571	1430.6858	2305.7	1415.15
884.7146	1432.5206	2342	1452.2
884.8582	1434.3547	2332.3	1442.55
885.0018	1436.188	2306.25	1415.1
885.1453	1438.0206	2282.65	1390.4
885.2889	1439.8524	2282.35	1391.1
885.4324	1441.6835	2267.1	1375.2
885.5759	1443.5139	2270	1374.45
885.7194	1445.3435	2284.9	1394.9
885.8629	1447.1724	2284.5	1395.95
886.0064	1449.0005	2276.45	1387.6
886.1499	1450.8279	2267.55	1375.6
886.2933	1452.6545	2247.4	1358.95
886.4368	1454.4804	2254.9	1365.65
886.5802	1456.3056	2247.7	1350.05
886.7237	1458.13	2208.7	1319.8
886.8671	1459.9536	2187.55	1295.95
887.0105	1461.7766	2136.15	1246.75
887.1539	1463.5987	2089.1	1195.75
887.2972	1465.4202	2028.45	1136.45
887.4406	1467.2409	1971.05	1080.75
887.584	1469.0608	1913.55	1023.35
887.7273	1470.88	1875.25	983.25
887.8706	1472.6984	1833.95	943.2
888.0139	1474.5161	1810.1	915.7
888.1572	1476.3331	1783.15	889.35
888.3005	1478.1493	1771	880.45
888.4438	1479.9648	1757.05	866.65
888.5871	1481.7795	1760.4	869.6
888.7303	1483.5935	1767.05	876.2
888.8736	1485.4067	1758.9	866.8
889.0168	1487.2192	1768.6	876.75
889.16	1489.031	1774	879.8
889.3032	1490.842	1767	875.4
889.4464	1492.6522	1756.1	865.2
889.5896	1494.4618	1761.4	872.25
889.7327	1496.2705	1757.2	867.55
889.8759	1498.0785	1746.05	853.95
890.019	1499.8858	1735.85	844
890.1622	1501.6924	1739.15	847.3
890.3053	1503.4981	1722.15	830.65
890.4484	1505.3032	1715.65	823.65
890.5914	1507.1075	1711.7	820.2
890.7345	1508.911	1702.35	812.2
890.8776	1510.7138	1692.15	799.55
891.0206	1512.5159	1681.6	793.95
891.1637	1514.3172	1675.6	786.1
891.3067	1516.1178	1664.25	773.55
891.4497	1517.9176	1659.9	765.65
891.5927	1519.7166	1644.95	753.3
891.7357	1521.515	1647.95	751.75
891.8786	1523.3126	1636.15	744.85
892.0216	1525.1094	1634.45	741.4
892.1645	1526.9055	1627.3	738.95
892.3074	1528.7008	1615.45	724.8
892.4503	1530.4954	1609.7	713.4
892.5932	1532.2893	1603.7	714.6
892.7361	1534.0824	1603.75	708.3
892.879	1535.8747	1605.5	717.15
893.0218	1537.6663	1592.5	699.7
893.1647	1539.4572	1598.45	707.75
893.3075	1541.2473	1600.55	709.5
893.4503	1543.0367	1601.8	714.5
893.5931	1544.8253	1600.35	705.1
893.7359	1546.6132	1604.45	712.8
893.8787	1548.4003	1621.45	723.7
894.0214	1550.1867	1634.2	736.95
894.1642	1551.9723	1636.2	744.65
894.3069	1553.7572	1649.75	759.1
894.4496	1555.5414	1668.95	778.7
894.5923	1557.3247	1713.95	825.25
894.735	1559.1074	1764.8	877
894.8777	1560.8893	1812.4	924.35
895.0204	1562.6705	1870.75	982.15
895.163	1564.4509	1915.65	1027.85
895.3056	1566.2305	1932.1	1044.25
895.4482	1568.0094	1935.65	1049.65
895.5908	1569.7876	1929.3	1039.8
895.7334	1571.565	1931.95	1045.05
895.876	1573.3417	1928.8	1041.4
896.0186	1575.1176	1943.85	1056.2
896.1611	1576.8928	1961.25	1074.4
896.3036	1578.6672	1980.65	1094.45
896.4461	1580.4409	2034.6	1150.35
896.5886	1582.2138	2082.85	1193.05
896.7311	1583.986	2138.05	1249.6
896.8736	1585.7575	2195.05	1306.1
897.0161	1587.5282	2253.95	1368.2
897.1585	1589.2981	2281.7	1394.2
897.3009	1591.0673	2304.6	1418.15
897.4433	1592.8358	2319.35	1432.2
897.5857	1594.6035	2317.9	1429.15
897.7281	1596.3704	2289.15	1401.05
897.8705	1598.1366	2267.55	1380.7
898.0128	1599.9021	2240.1	1356.25
898.1551	1601.6668	2196.3	1306.35
898.2975	1603.4308	2174.55	1283.7
898.4398	1605.194	2177.4	1285.55
898.5821	1606.9564	2202.6	1315.7
898.7243	1608.7182	2273.2	1384.55
898.8666	1610.4791	2378.85	1494
899.0088	1612.2394	2522.35	1639.55
899.1511	1613.9988	2672.75	1787.05
899.2933	1615.7576	2801.75	1915.9
899.4355	1617.5156	2885.05	1991.2
899.5776	1619.2728	2851.5	1963.05
899.7198	1621.0293	2728.1	1840.4
899.862	1622.785	2570.8	1683.15
900.0041	1624.54	2402.05	1513.6
900.1462	1626.2942	2215.4	1329.1
900.2883	1628.0477	2075.1	1184.65
900.4304	1629.8005	1947.5	1058.3
900.5725	1631.5525	1840.8	955.15
900.7145	1633.3037	1776.7	893.05
900.8566	1635.0542	1706.1	820.45
900.9986	1636.804	1655.8	770.15
901.1406	1638.553	1684.2	735.6
901.2826	1640.3013	1598.5	712.15
901.4245	1642.0488	1581	692.25
901.5665	1643.7955	1541.55	656.2
901.7085	1645.5416	1538.95	652.55
901.8504	1647.2868	1514.55	628.1
901.9923	1649.0313	1508.45	621.8
902.1342	1650.7751	1498.55	607
902.2761	1652.5181	1490.95	605
902.4179	1654.2604	1494.35	606.25
902.5598	1656.0019	1500.6	617.5
902.7016	1657.7427	1516	630.3
902.8434	1659.4828	1544.15	656.6
902.9852	1661.222	1582.7	695.9
903.127	1662.9606	1635.65	749.05
903.2687	1664.6984	1677.7	789.25
903.4105	1666.4354	1693.7	805.8
903.5522	1668.1717	1681	791.8
903.6939	1669.9072	1626.9	739.3
903.8356	1671.642	1568.75	678.85
903.9773	1673.3761	1502.85	615.4
904.119	1675.1094	1463.5	576.45
904.2606	1676.8419	1435.8	550.75
904.4022	1678.5737	1412.95	527.65
904.5439	1680.3048	1394.15	503.95
904.6855	1682.0351	1378.7	490.15
904.827	1683.7646	1370.7	484.1
904.9686	1685.4934	1364.95	477.7
905.1101	1687.2215	1365.7	478.75
905.2517	1688.9488	1348.05	461.5
905.3932	1690.6754	1342	454.6
905.5347	1692.4012	1342.55	453.95
905.6761	1694.1263	1338.7	450.35
905.8176	1695.8506	1335.6	448.15
905.9591	1697.5742	1328.7	441.55
906.1005	1699.297	1325.95	440.45
906.2419	1701.0191	1317.6	431.7
906.3833	1702.7404	1316.35	431.4
906.5246	1704.461	1318.3	429.25
906.666	1706.1808	1309.2	420.2
906.8073	1707.8999	1304.1	416.6
906.9487	1709.6182	1305.05	417.8
907.09	1711.3358	1296.1	410.55
907.2313	1713.0527	1300.35	417.9
907.3725	1714.7688	1309.15	417.5
907.5138	1716.4841	1301.55	412.85
907.655	1718.1987	1299.1	406.95
907.7962	1719.9126	1289.75	405.65
907.9374	1721.6257	1291.15	403.5
908.0786	1723.338	1282.6	396.75
908.2198	1725.0496	1288.45	401.2
908.3609	1726.7605	1288.9	402.3
908.502	1728.4706	1284.3	397
908.6431	1730.18	1275.3	388.6
908.7842	1731.8886	1281.5	397.85
908.9253	1733.5964	1290.85	386.5
909.0664	1735.3036	1285.5	397.95
909.2074	1737.0099	1280.2	395.45
909.3484	1738.7156	1269.75	385.2
909.4894	1740.4204	1275.5	386.45
909.6304	1742.1246	1275.2	387.6
909.7714	1743.8279	1270.25	383.05
909.9123	1745.5306	1264.8	379.4
910.0532	1747.2325	1263.85	378.1
910.1941	1748.9336	1267.9	382.9
910.335	1750.634	1265.05	377.55
910.4759	1752.3336	1259.95	375.25
910.6168	1754.0325	1260.55	377.95
910.7576	1755.7307	1260.7	375.6
910.8984	1757.4281	1262	375.55
911.0392	1759.1247	1269.45	373.75
911.18	1760.8206	1265.1	372.65
911.3208	1762.5158	1261.5	371.75
911.4615	1764.2102	1260.4	375.15
911.6022	1765.9039	1260.2	373.4
911.7429	1767.5968	1255.8	371.9
911.8836	1769.289	1253	368.25
912.0243	1770.9804	1252	365.4
912.1649	1772.6711	1252.45	365.35
912.3056	1774.361	1252.15	363.55
912.4462	1776.0502	1250.5	364.9
912.5868	1777.7386	1248.3	358.3
912.7274	1779.4263	1248.9	362.05
912.8679	1781.1132	1240.55	354.15
913.0084	1782.7994	1248.85	362.15
913.149	1784.4849	1248.65	365
913.2895	1786.1696	1263.05	356.1
913.4299	1787.8535	1238.95	353.8
913.5704	1789.5367	1241.45	358.6
913.7108	1791.2192	1239.35	354.05
913.8513	1792.9009	1251.95	351.75
913.9917	1794.5818	1237.35	349.15
914.132	1796.2621	1236.8	351.05
914.2724	1797.9415	1239.15	354.25
914.4128	1799.6202	1232.05	346.7
914.5531	1801.2982	1234.9	346.35
914.6934	1802.9755	1231.05	344.95
914.8337	1804.6519	1227.9	341.95
914.9739	1806.3277	1229.8	345.85
915.1142	1808.0027	1222.65	339.3
915.2544	1809.6769	1228.2	342.65
915.3946	1811.3504	1224.55	337.55
915.5348	1813.0231	1221.4	335.55
915.675	1814.6951	1226.85	343.65
915.8151	1816.3664	1224.6	336.7
915.9553	1818.0369	1226.75	341.3
916.0954	1819.7067	1223	336.45
916.2355	1821.3757	1219.6	330.05
916.3755	1823.044	1222.5	337.85
916.5156	1824.7115	1221.3	335.7
916.6556	1826.3783	1221.35	336.05
916.7956	1828.0443	1212.85	327.5
916.9356	1829.7096	1213.55	326.9
917.0756	1831.3741	1218.4	330.75
917.2155	1833.0379	1212.55	327.3
917.3555	1834.701	1217.85	331.3
917.4954	1836.3633	1211.65	326.2
917.6353	1838.0248	1213.45	327.1
917.7751	1839.6856	1214.1	328
917.915	1841.3457	1215.05	331.45
918.0548	1843.005	1215.65	327.15
918.1946	1844.6636	1213.4	329.45
918.3344	1846.3214	1208.1	321.8
918.4742	1847.9785	1208.2	323.65
918.6139	1849.6349	1206.55	320.8
918.7537	1851.2904	1218.5	323.1
918.8934	1852.9453	1210.6	324
919.0331	1854.5994	1205.85	317.35
919.1727	1856.2528	1210	319.95
919.3124	1857.9054	1203.9	317.3
919.452	1859.5572	1204.5	320.25
919.5916	1861.2083	1199.95	313.35
919.7312	1862.8587	1202.65	319.75
919.8708	1864.5084	1202.5	316.2
920.0103	1866.1572	1197.6	311.75
920.1498	1867.8054	1208.55	321.65
920.2893	1869.4528	1197.95	309.7
920.4288	1871.0994	1201.65	315.5
920.5683	1872.7453	1201.15	314.25
920.7077	1874.3905	1206.35	314.3
920.8471	1876.0349	1200.05	311.6
920.9865	1877.6786	1195.8	309.95
921.1259	1879.3215	1192.6	307.5
921.2653	1880.9637	1197.3	310.55
921.4046	1882.6051	1196.65	310.25
921.5439	1884.2458	1195.05	309
921.6832	1885.8858	1189.2	303.5
921.8225	1887.525	1185.5	297.2
921.9617	1889.1634	1192.55	308
922.101	1890.8011	1186.4	299.1
922.2402	1892.4381	1184	297.25
922.3794	1894.0743	1187.8	303.9
922.5185	1895.7098	1183.85	298
922.6577	1897.3446	1185.75	298.8
922.7968	1898.9786	1189.7	300.95
922.9359	1900.6118	1182.15	297.35
923.075	1902.2443	1184.1	295.25
923.214	1903.8761	1184.7	299.55
923.3531	1905.5071	1178.75	289.35
923.4921	1907.1374	1174.8	289.1
923.6311	1908.7669	1174	287.8
923.77	1910.3957	1177.5	291.8
923.909	1912.0237	1180	294.15
924.0479	1913.651	1178.9	293.2
924.1868	1915.2776	1172.9	288.15
924.3257	1916.9034	1173.25	288.95
924.4646	1918.5285	1173	288
924.6034	1920.1528	1167.6	281.2
924.7422	1921.7764	1171.65	285.35
924.881	1923.3992	1170.25	282.7
925.0198	1925.0213	1172.5	287.55
925.1586	1926.6427	1165.1	281.25
925.2973	1928.2633	1376.45	280.4
925.436	1929.8832	1171.85	282.6
925.5747	1931.5023	1160.7	275.65
925.7134	1933.1207	1159.15	272.6
925.852	1934.7383	1167.2	280.55
925.9906	1936.3552	1163.05	278.9
926.1292	1937.9714	1162.35	275.5
926.2678	1939.5868	1162.35	273.85
926.4064	1941.2015	1159.8	273.3
926.5449	1942.8154	1161.6	273.9
926.6834	1944.4286	1158.8	272.6
926.8219	1946.041	1175.65	268.05
926.9604	1947.6528	1164.8	275.25
927.0988	1949.2637	1151.45	266.25
927.2372	1950.8739	1156.85	270.4
927.3756	1952.4834	1152.6	267.3
927.514	1954.0921	1153.9	269.3
927.6523	1955.7001	1156.75	269
927.7907	1957.3074	1153.55	268.05
927.929	1958.9139	1142.1	258.25
928.0673	1960.5197	1145.3	259.35
928.2055	1962.1247	1141.7	257.55
928.3438	1963.729	1146.45	260.7
928.482	1965.3325	1169.5	261.6
928.6202	1966.9353	1142.8	261.5
928.7584	1968.5374	1142.3	257.2
928.8965	1970.1387	1140.15	257.25
929.0346	1971.7393	1144.6	262.05
929.1727	1973.3392	1139.85	255.95
929.3108	1974.9383	1139.65	255.55
929.4489	1976.5366	1132.2	246.9
929.5869	1978.1342	1137.15	251.95
929.7249	1979.7311	1135.85	251.65
929.8629	1981.3273	1136.55	252.05
930.0009	1982.9227	1134.2	249.5
930.1388	1984.5173	1132.1	251.2
930.2767	1986.1112	1135.25	253.5
930.4146	1987.7044	1129.3	247.05
930.5525	1989.2968	1133.8	249.55
930.6904	1990.8885	1133.7	247.3
930.8282	1992.4795	1131.95	248.8
930.966	1994.0697	1129.15	246.7
931.1038	1995.6592	1130.6	248.85
931.2415	1997.2479	1126	242.15
931.3793	1998.8359	1124.2	241.65
931.517	2000.4232	1124.1	241.65
931.6547	2002.0097	1126.25	247
931.7923	2003.5955	1123.2	240
931.93	2005.1805	1128.75	245.1
932.0676	2006.7648	1120.15	237.7
932.2052	2008.3484	1120	236.9
932.3427	2009.9312	1125.55	241.7
932.4803	2011.5133	1119.5	240.3
932.6178	2013.0946	1120.8	238.8
932.7553	2014.6752	1119.85	238.1
932.8928	2016.2551	1121.15	240.4
933.0302	2017.8342	1121.5	239.25
933.1676	2019.4126	1117.35	237.4
933.305	2020.9902	1117.05	235.25
933.4424	2022.5672	1117.3	235.95
933.5798	2024.1433	1120.55	235.6
933.7171	2025.7188	1114.35	235.6
933.8544	2027.2935	1114.8	231.55
933.9917	2028.8674	1110.95	233.7
934.129	2030.4406	1112.65	235.1
934.2662	2032.0131	1111	231.65
934.4034	2033.5849	1115.6	232.65
934.5406	2035.1559	1112	232.3
934.6778	2036.7261	1113.7	233.5
934.8149	2038.2957	1106.35	225
934.952	2039.8645	1112.4	230.5
935.0891	2041.4325	1112.75	226.1
935.2262	2042.9998	1115.55	233.25
935.3632	2044.5664	1110.2	228.4
935.5002	2046.1323	1108.05	226.95
935.6372	2047.6974	1109	228.5
935.7742	2049.2617	1104.15	223.5
935.9111	2050.8254	1143.65	230.25
936.048	2052.3883	1111.1	229.4
936.1849	2053.9504	1106.4	225.95
936.3218	2055.5118	1107.55	224
936.4586	2057.0725	1108.95	223.3
936.5955	2058.6325	1110.55	229.95
936.7323	2060.1917	1110.6	230.1
936.869	2061.7502	1104.85	219.3
937.0058	2063.3079	1106.4	227.35
937.1425	2064.8649	1107.85	224.3
937.2792	2066.4212	1110.5	228.65
937.4159	2067.9767	1104.9	224.6
937.5525	2069.5315	1105.3	224
937.6891	2071.0856	1103.65	222.45
937.8257	2072.6389	1098.5	216.8
937.9623	2074.1915	1097.3	218.55
938.0989	2075.7433	1099.5	216.85
938.2354	2077.2945	1095.2	215.65
938.3719	2078.8448	1102.4	221.3
938.5084	2080.3945	1101.95	221.35
938.6448	2081.9434	1102.2	221.2
938.7812	2083.4916	1101.2	218.65
938.9176	2085.039	1103.75	218.55
939.054	2086.5857	1102.7	219.6
939.1903	2088.1317	1100.1	216.2
939.3267	2089.677	1100.4	214.8
939.463	2091.2215	1100.5	217.6
939.5992	2092.7652	1100.9	215.85
939.7355	2094.3083	1100.15	213.8
939.8717	2095.8506	1092.6	211.5
940.0079	2097.3921	1093.05	211.95
940.1441	2098.933	1098	214.7
940.2802	2100.4731	1095.75	212.25
940.4163	2102.0124	1114.15	216.2
940.5524	2103.5511	1095.5	214.55
940.6885	2105.089	1098.1	215
940.8245	2106.6261	1092.65	210.8
940.9606	2108.1626	1095.65	213.25
941.0965	2109.6983	1125.35	213.85
941.2325	2111.2332	1095.25	211.65
941.3684	2112.7675	1097.95	215.4
941.5044	2114.301	1095.25	208.6
941.6403	2115.8337	1095.8	214.85
941.7761	2117.3657	1091.35	208.05
941.912	2118.897	1091.85	210.8
942.0478	2120.4276	1094.2	205.7
942.1835	2121.9575	1094.5	212.6
942.3193	2123.4866	1103.65	207.6
942.455	2125.0149	1092.7	207.75
942.5907	2126.5426	1086.7	205.35
942.7264	2128.0695	1094.25	207.55
942.8621	2129.5956	1089	209.25
942.9977	2131.1211	1090.95	204.6
943.1333	2132.6458	1088.75	207.25
943.2689	2134.1698	1086.1	203.35
943.4044	2135.693	1090.7	204.8
943.54	2137.2155	1089.4	204.8
943.6755	2138.7373	1088.95	206.35
943.8109	2140.2584	1085.25	205.3
943.9464	2141.7787	1093	207.35
944.0818	2143.2983	1083.5	204.65
944.2172	2144.8171	1081.5	200.8
944.3526	2146.3353	1084	200.7
944.4879	2147.8527	1082.75	203.05
944.6232	2149.3693	1081.5	198.55
944.7585	2150.8853	1085.2	203.65
944.8938	2152.4005	1081.85	200.5
945.029	2153.9149	1084.6	201.9
945.1642	2155.4287	1080.3	196.35
945.2994	2156.9417	1084.5	200.8
945.4346	2158.454	1081.75	197.85
945.5697	2159.9655	1079.8	196.7
945.7048	2161.4764	1080.2	200.55
945.8399	2162.9865	1076.1	192.15
945.9749	2164.4958	1080.15	197.55
946.1099	2166.0045	1077.45	193.1
946.2449	2167.5124	1080	198.3
946.3799	2169.0195	1080.55	198.35
946.5148	2170.526	1073.95	191.4
946.6498	2172.0317	1078.35	196.15
946.7846	2173.5367	1074	189.6
946.9195	2175.0409	1074.95	192.4
947.0543	2176.5445	1078.2	197.4
947.1891	2178.0473	1073.45	189.8
947.3239	2179.5494	1079.05	192.65
947.4587	2181.0507	1071.65	186.35
947.5934	2182.5513	1077.45	198.5
947.7281	2184.0512	1077.8	196.2
947.8628	2185.5504	1071.15	189.95
947.9974	2187.0488	1070.9	189.2
948.132	2188.5465	1069.2	189.2
948.2666	2190.0435	1071.5	190.8
948.4012	2191.5397	1072.2	190.9
948.5357	2193.0353	1076.1	195.25
948.6702	2194.5301	1069.4	185.8
948.8047	2196.0241	1068.75	184.7
948.9392	2197.5175	1070.7	188.2
949.0736	2199.0101	1075.65	190.45
949.208	2200.502	1065.05	183.15
949.3424	2201.9931	1065.05	182.8
949.4767	2203.4835	1065.65	182.5
949.611	2204.9733	1085.1	187.9
949.7453	2206.4622	1066.6	186.5
949.8796	2207.9505	1068.55	186.3
950.0138	2209.438	1065.5	187.85
950.148	2210.9248	1061.8	178.3
950.2822	2212.4109	1061.35	181.4
950.4164	2213.8962	1067.6	183.9
950.5505	2215.3809	1067.05	183.4
950.6846	2216.8648	1066.7	184.85
950.8186	2218.3479	1069.2	180.9
950.9527	2219.8304	1065.2	178.35
951.0867	2221.3121	1064.8	178.65
951.2207	2222.7931	1064.35	181.3
951.3546	2224.2733	1058.8	177.65
951.4886	2225.7529	1059.4	177.5
951.6225	2227.2317	1058.75	174.95
951.7563	2228.7098	1057.9	179.05
951.8902	2230.1872	1053	172.65
952.024	2231.6638	1059	179.05
952.1578	2233.1397	1059.05	172.2
952.2916	2234.6149	1052.2	172.85
952.4253	2236.0894	1058.6	175.65
952.559	2237.5632	1065.55	173.65
952.6927	2239.0362	1056.4	174.95
952.8263	2240.5085	1049.2	167.75
952.9599	2241.9801	1053	169.25
953.0935	2243.4509	1052.05	171.65
953.2271	2244.921	1054	168.65
953.3606	2246.3904	1055.9	171.95
953.4941	2247.8591	1044.7	164.15
953.6276	2249.3271	1050.4	166.6
953.7611	2250.7943	1050	167.5
953.8945	2252.2608	1053.1	171.15
954.0279	2253.7266	1049.75	167.6
954.1612	2255.1917	1052.25	171.8
954.2946	2256.656	1047.6	166.65
954.4279	2258.1197	1042.1	162.35
954.5612	2259.5826	1050.45	166.8
954.6944	2261.0447	1050.5	165.95
954.8276	2262.5062	1046.45	161.2
954.9608	2263.9669	1049	164.7
955.094	2265.4269	1044.25	162.1
955.2271	2266.8862	1045.3	163.65
955.3602	2268.3448	1047.3	165.5
955.4933	2269.8026	1042.75	159.75
955.6264	2271.2598	1046.6	165.45
955.7594	2272.7162	1045.15	162.45
955.8924	2274.1719	1044.05	161.7
956.0253	2275.6268	1044.15	161.2
956.1583	2277.0811	1045.05	162.1
956.2912	2278.5346	1039.9	160.35
956.4241	2279.9874	1044.35	163.75
956.5569	2281.4395	1045.6	164.7
956.6897	2282.8908	1049.25	161.85
956.8225	2284.3414	1043.1	159.4
956.9553	2285.7914	1040.6	159.05
957.088	2287.2406	1037.25	154.15
957.2207	2288.689	1037.75	154.55
957.3534	2290.1368	1039.85	157
957.486	2291.5838	1046.15	159.25
957.6186	2293.0302	1043.8	160.2
957.7512	2294.4758	1040.3	157
957.8838	2295.9206	1042.9	158.6
958.0163	2297.3648	1037.05	155.05
958.1488	2298.8082	1039.7	155.85
958.2813	2300.251	1038.85	156.55
958.4137	2301.693	1038.1	153.4
958.5461	2303.1343	1038.75	155.8
958.6785	2304.5748	1037.3	155.25
958.8108	2306.0147	1035.8	153.9
958.9432	2307.4538	1044.15	158.7
959.0754	2308.8922	1033	153.95
959.2077	2310.3299	1036.1	154.85
959.3399	2311.7669	1033.25	152.7
959.4721	2313.2031	1033	152.1
959.6043	2314.6387	1032.85	150.75
959.7365	2316.0735	1032.2	148.05
959.8686	2317.5076	1031.8	151
960.0006	2318.941	1036.25	153.65
960.1327	2320.3737	1035.45	149.3
960.2647	2321.8056	1037.75	155.4
960.3967	2323.2369	1035.35	152.85
960.5287	2324.6674	1036.55	151.35
960.6606	2326.0972	1040.3	157.8
960.7925	2327.5263	1045.7	164.4
960.9244	2328.9547	1044.05	163
961.0562	2330.3823	1041.1	156.9
961.1881	2331.8092	1034.7	148
961.3198	2333.2355	1034.2	149.6
961.4516	2334.661	1032.5	149.2
961.5833	2336.0858	1029.7	144.15
961.715	2337.5098	1026.25	143.75
961.8467	2338.9332	1031.4	146.4
961.9783	2340.3558	1034.25	150.65
962.1099	2341.7778	1025.55	140.6
962.2415	2343.199	1026.25	142.55
962.373	2344.6195	1024.3	142
962.5045	2346.0393	1023.7	140.55
962.636	2347.4583	1024	141.3
962.7675	2348.8767	1025.15	140.35
962.8989	2350.2943	1027.25	143.35
963.0303	2351.7113	1026.7	142.3
963.1617	2353.1275	1026.3	143.05
963.293	2354.543	1049.5	141.35
963.4243	2355.9578	1029.05	145.1
963.5556	2357.3718	1021.25	138.55
963.6868	2358.7852	1027.6	142.5
963.818	2360.1978	1025.7	143.2
963.9492	2361.6098	1021.75	139.2
964.0803	2363.021	1023.7	133.9
964.2114	2364.4315	1025.2	142.2
964.3425	2365.8413	1022.55	137.55
964.4736	2367.2504	1021.3	138.75
964.6046	2368.6587	1017.15	136.05
964.7356	2370.0664	1023.4	139.95
964.8666	2371.4733	1016.7	133.25
964.9975	2372.8795	1021.2	139.15
965.1284	2374.285	1020.75	136.5
965.2593	2375.6899	1016.6	134.4
965.3901	2377.0939	1019.65	135.3
965.5209	2378.4973	1018.4	136.2
965.6517	2379.9	1020.9	137.45
965.7825	2381.3019	1016.65	132.6
965.9132	2382.7032	1017.65	134
966.0439	2384.1037	1017.95	135
966.1745	2385.5035	1016.25	132.75
966.3051	2386.9027	1011.5	128.25
966.4357	2388.3011	1016.75	131.25
966.5663	2389.6987	1011.7	127.7
966.6968	2391.0957	1015.4	131.45
966.8273	2392.492	1015.55	133.2
966.9578	2393.8876	1012.3	127.35
967.0882	2395.2824	1015.95	132.35
967.2186	2396.6765	1009.5	127.75
967.349	2398.07	1011	128.5
967.4793	2399.4627	1016.35	131.2
967.6097	2400.8547	1012.25	127.1
967.7399	2402.246	1018.7	128
967.8702	2403.6366	1014.1	128.8
968.0004	2405.0265	1012.2	127.25
968.1306	2406.4156	1013.65	126.75
968.2607	2407.8041	1010.85	121.9
968.3909	2409.1918	1010.65	125.2
968.521	2410.5789	1010.8	125.9
968.651	2411.9652	1013.95	127.35
968.781	2413.3508	1008.1	123.95
968.911	2414.7358	1004.45	118.15
969.041	2416.12	1008.85	125.8
969.1709	2417.5035	1009.7	125
969.3008	2418.8863	1005.1	121.1
969.4307	2420.2684	1006.65	121.05
969.5606	2421.6497	1007.45	122.25
969.6904	2423.0304	1008.5	125.45
969.8201	2424.4104	1004.8	119.6
969.9499	2425.7896	1009.85	124.85
970.0796	2427.1682	1003.85	119.35
970.2093	2428.546	1005.15	121.35
970.3389	2429.9232	1008.55	125.05
970.4685	2431.2996	1006.35	124.25
970.5981	2432.6753	999.95	114.65
970.7277	2434.0503	1004.15	120.25
970.8572	2435.4246	1004.3	123.2
970.9867	2436.7982	1004.35	117.4
971.1161	2438.1711	998.95	116.6
971.2456	2439.5433	1004.65	119.6
971.375	2440.9148	1004.5	118.5
971.5043	2442.2856	1001.5	118.05
971.6336	2443.6557	1000.4	117.7
971.7629	2445.025	1003.35	120.3
971.8922	2446.3937	999.15	115.1
972.0214	2447.7617	1004.1	120.05
972.1506	2449.1289	1002.45	120.8
972.2798	2450.4955	1003.7	116.1
972.4089	2451.8613	1000.35	117.5
972.538	2453.2265	999.9	117.2
972.6671	2454.5909	998.5	113.5
972.7961	2455.9546	999.55	118.1
972.9251	2457.3177	999.75	115.75
973.0541	2458.68	996.85	110.6
973.1831	2460.0416	998.8	113.85
973.312	2461.4025	999.9	116.1
973.4408	2462.7627	1011.35	116.2
973.5697	2464.1222	997.4	116.15
973.6985	2465.4811	997.6	113.55
973.8273	2466.8392	995.9	112.9
973.956	2468.1966	997.05	111.05
974.0847	2469.5533	997.7	112.8
974.2134	2470.9093	995.75	112.85
974.3421	2472.2645	998.25	113.85
974.4707	2473.6191	996.8	111.85
974.5993	2474.973	997.4	113.8
974.7278	2476.3262	996.3	110.95
974.8563	2477.6787	995.4	113.65
974.9848	2479.0305	995.7	111.15
975.1132	2480.3816	991.85	105.65
975.2417	2481.7319	994.1	114.05
975.37	2483.0816	991.15	106.1
975.4984	2484.4306	991.6	106.55
975.6267	2485.7789	993.1	110.8
975.755	2487.1264	993.9	109.1
975.8833	2488.4733	993.05	111.1
976.0115	2489.8195	996.95	106.5
976.1397	2491.165	995.7	109.05
976.2678	2492.5097	993.6	109.45
976.3959	2493.8538	991.35	106.4
976.524	2495.1972	992.45	109.1
976.6521	2496.5398	996.45	110.85
976.7801	2497.8818	997.1	112.25
976.9081	2499.2231	991.45	107.7
977.036	2500.5637	991.45	106.85
977.164	2501.9035	993.8	110.8
977.2918	2503.2427	994.45	106.9
977.4197	2504.5812	989.85	107.05
977.5475	2505.919	993.85	107.05
977.6753	2507.256	988.5	103.6
977.8031	2508.5924	991.05	108.35
977.9308	2509.9281	991.5	101.5
978.0585	2511.2631	989.1	107.35
978.1861	2512.5974	991.15	108.1
978.3137	2513.9309	984.8	100.4
978.4413	2515.2638	1015.45	102.85
978.5689	2516.596	987.3	106.6
978.6964	2517.9275	987.85	101.95
978.8239	2519.2583	990.15	108.25
978.9513	2520.5884	984.85	97.4
979.0788	2521.9178	988.4	105.65
979.2062	2523.2465	984.4	102.8
979.3335	2524.5745	983.85	100.4
979.4608	2525.9018	984.45	100.75
979.5881	2527.2284	981.75	99.4
979.7154	2528.5543	981.7	99.55
979.8426	2529.8796	983	99.5
979.9698	2531.2041	983.4	100.25
980.0969	2532.5279	981.65	101.45
980.224	2533.851	984.25	100.35
980.3511	2535.1735	983.65	101.05
980.4781	2536.4952	982.8	99.5
980.6052	2537.8163	986.85	102.9
980.7321	2539.1366	982.55	101.2
980.8591	2540.4562	980.25	96.25
980.986	2541.7752	986.3	105.55
981.1129	2543.0935	981.8	101
981.2397	2544.411	983.9	98.5
981.3665	2545.7279	979.1	94.95
981.4933	2547.0441	981.05	98.35
981.62	2548.3596	983.75	98.75
981.7467	2549.6744	980.6	97.55
981.8734	2550.9885	986.35	97.2
982.0001	2552.3019	978.95	98.05
982.1267	2553.6146	979.05	94.1
982.2532	2554.9266	979.3	96.15
982.3798	2556.2379	982.8	96.4
982.5063	2557.5485	979.7	99.05
982.6327	2558.8585	985.05	94.15
982.7592	2560.1677	984.1	97.7
982.8856	2561.4762	980.7	98.05
983.0119	2562.7841	983.25	97.5
983.1383	2564.0913	976.85	95.95
983.2646	2565.3977	980.7	96.65
983.3908	2566.7035	978.85	96.15
983.517	2568.0086	978.2	92.65
983.6432	2569.313	978.15	94.6
983.7694	2570.6167	985.5	98.5
983.8955	2571.9197	976.15	94.65
984.0216	2573.222	981.25	95.55
984.1476	2574.5236	978	93.5
984.2737	2575.8246	978.6	92.25
984.3996	2577.1248	976.4	89.3
984.5256	2578.4244	971.6	89.65
984.6515	2579.7232	976.15	93.35
984.7774	2581.0214	1002	90.1
984.9032	2582.3189	977.2	96.8
985.029	2583.6157	981.2	93
985.1548	2584.9118	973.95	89.85
985.2806	2586.2072	975.8	92.8
985.4063	2587.5019	978.85	93.85
985.5319	2588.7959	980.2	96.45
985.6576	2590.0893	978.95	95.1
985.7832	2591.3819	976.4	95.35
985.9087	2592.6739	974.5	90.85
986.0343	2593.9652	975.5	91.9
986.1597	2595.2557	979	96.4
986.2852	2596.5456	977.6	92.25
986.4106	2597.8348	974.3	92.6
986.536	2599.1234	976.35	94.55
986.6614	2600.4112	977.55	94.5
986.7867	2601.6983	979.55	92.85
986.912	2602.9848	975.15	92.55
987.0372	2604.2705	984.5	93.25
987.1624	2605.5556	978.95	96.5
987.2876	2606.84	978	94.25
987.4128	2608.1237	978.15	92.9
987.5379	2609.4067	974.3	92.05
987.6629	2610.689	982.15	89.1
987.788	2611.9707	976.3	89.25
987.913	2613.2516	981.35	94.7
988.0379	2614.5319	973.65	91.45
988.1629	2615.8115	975.05	90.5
988.2878	2617.0903	971.6	88.45
988.4126	2618.3685	972.2	86.7
988.5375	2619.6461	973.2	89.7
988.6622	2620.9229	971.75	89.35
988.787	2622.199	970.4	87.75
988.9117	2623.4745	971.85	87.55
989.0364	2624.7493	974.8	93.55
989.161	2626.0234	966.05	83.85
989.2857	2627.2968	968.4	85.1
989.4102	2628.5695	969.85	86.35
989.5348	2629.8415	968.95	86.2
989.6593	2631.1128	968.6	83.85
989.7837	2632.3835	967.7	84.1
989.9082	2633.6535	969.65	86.4
990.0326	2634.9228	970.25	89.55
990.1569	2636.1914	967.55	85.5
990.2812	2637.4593	967.9	84.25
990.4055	2638.7265	966.85	83.8
990.5298	2639.9931	971.25	87.4
990.654	2641.259	966.5	83.15
990.7782	2642.5242	968.7	86.3
990.9023	2643.7887	967.55	85
991.0264	2645.0525	967.9	84.6
991.1505	2646.3156	964.5	81.8
991.2745	2647.5781	968.5	85.4
991.3985	2648.8398	964.25	84.05
991.5225	2650.1009	998.9	78.25
991.6464	2651.3613	966.4	84.15
991.7703	2652.6211	961.1	78.05
991.8942	2653.8801	960.75	78.75
992.018	2655.1385	966	81.75
992.1418	2656.3961	962.85	80
992.2655	2657.6531	961.45	77.9
992.3892	2658.9094	959.95	77.4
992.5129	2660.1651	961.95	80.45
992.6366	2661.42	960.25	78.25
992.7602	2662.6743	966.35	84.05
992.8837	2663.9279	959.6	78.15
993.0073	2665.1808	963.1	78.5
993.1307	2666.433	964.7	82.4
993.2542	2667.6846	963.5	81.65
993.3776	2668.9354	967.4	82.4
993.501	2670.1856	963.5	81.25
993.6244	2671.4351	960.9	78.7
993.7477	2672.6839	968.9	85.6
993.8709	2673.9321	966.65	86.05
993.9942	2675.1795	964.2	80.15
994.1174	2676.4263	963.3	80.4
994.2405	2677.6724	964.85	83.1
994.3637	2678.9179	966.2	81
994.4868	2680.1626	964.35	81.9
994.6098	2681.4067	965.25	83.75
994.7328	2682.6501	962.1	79.5
994.8558	2683.8928	965.7	84.75
994.9788	2685.1348	960.35	79.4
995.1017	2686.3761	961.05	77.95
995.2245	2687.6168	959.2	75.45
995.3474	2688.8568	958.8	77
995.4702	2690.0961	958.3	79.15
995.5929	2691.3348	960.8	77.35
995.7156	2692.5727	957.7	75.05
995.8383	2693.81	956.25	74.5
995.961	2695.0466	957.95	76.9
996.0836	2696.2826	958.9	77.55
996.2062	2697.5178	962.8	76.5
996.3287	2698.7524	957.75	75.35
996.4512	2699.9863	958.85	76.7
996.5737	2701.2195	956.6	76.15
996.6961	2702.452	960.35	75.35
996.8185	2703.6839	963.3	79.9
996.9408	2704.9151	962.9	83.25
997.0631	2706.1456	961.2	78.1
997.1854	2707.3755	963.7	81.2
997.3077	2708.6046	962.6	78.9
997.4299	2709.8331	962.75	80.8
997.552	2711.0609	962.2	79.15
997.6742	2712.2881	960.25	78.05
997.7963	2713.5145	964.35	80.65
997.9183	2714.7403	963.3	81.45
998.0403	2715.9654	965.8	82.9
998.1623	2717.1899	980.85	83.25
998.2842	2718.4136	968.95	88.5
998.4062	2719.6367	969.7	87.9
998.528	2720.8591	978.9	90.85
998.6498	2722.0809	974.15	91.35
998.7716	2723.3019	979.1	95.2
998.8934	2724.5223	973.75	90.75
999.0151	2725.7421	975.55	92.55
999.1368	2726.9611	976.5	94.25
999.2584	2728.1795	975	86.65
999.38	2729.3972	968.55	87.7
999.5016	2730.6142	970.6	81.75
999.6231	2731.8306	963.2	80.4
999.7446	2733.0462	964.4	80.35
999.8661	2734.2612	965.6	78.5
999.9875	2735.4756	962.8	78.2
1000.1089	2736.6892	961.65	79.25
1000.2302	2737.9022	957.6	76.2
1000.3515	2739.1145	959.2	77.6
1000.4728	2740.3262	964.35	74.8
1000.594	2741.5372	954.6	74.7
1000.7152	2742.7475	958.35	75
1000.8363	2743.9571	959.2	75.5
1000.9575	2745.1661	955.45	68.6
1001.0785	2746.3744	952.3	69.15
1001.1996	2747.582	951	68.65
1001.3206	2748.7889	952.7	70.25
1001.4415	2749.9952	946.9	65.7
1001.5625	2751.2008	948.4	66.45
1001.6833	2752.4057	947.85	64.15
1001.8042	2753.61	949.05	69.2
1001.925	2754.8136	951.15	65.2
1002.0458	2756.0165	948.2	68.2
1002.1665	2757.2188	947.5	67.25
1002.2872	2758.4204	943.5	62.55
1002.4078	2759.6213	947.85	66.2
1002.5285	2760.8215	947.65	61.85
1002.649	2762.0211	948.45	66.4
1002.7696	2763.22	950	63.9
1002.8901	2764.4182	949.5	65.25
1003.0106	2765.6158	947.65	65.15
1003.131	2766.8127	948.65	65.25
1003.2514	2768.009	945.2	64.7
1003.3717	2769.2045	946.1	63.2
1003.492	2770.3994	946.45	65.1
1003.6123	2771.5936	945.05	63.7
1003.7325	2772.7872	940.6	60.15
1003.8527	2773.9801	941.6	58.4
1003.9729	2775.1723	960.1	61.45
1004.093	2776.3639	940.6	61.1
1004.2131	2777.5548	944.65	63.55
1004.3331	2778.745	943.75	62.4
1004.4531	2779.9346	942.35	61.7
1004.5731	2781.1235	941.5	58.1
1004.693	2782.3117	938.35	58.85
1004.8129	2783.4992	941.55	60.8
1004.9328	2784.6861	942.95	60.05
1005.0526	2785.8723	943.8	61.05
1005.1723	2787.0579	941.4	59.6
1005.2921	2788.2428	940.25	60.7
1005.4118	2789.427	938.3	58.05
1005.5314	2790.6106	941.8	60.7
1005.651	2791.7935	942.75	60.85
1005.7706	2792.9757	942.1	62.65
1005.8902	2794.1573	944.4	60.9
1006.0097	2795.3382	943.1	60.9
1006.1291	2796.5184	938.3	57.05
1006.2485	2797.698	945.45	62.65
1006.3679	2798.8769	945.25	64.5
1006.4873	2800.0551	945.35	61.6
1006.6066	2801.2327	949.8	64.3
1006.7258	2802.4096	945.5	64.2
1006.8451	2803.5859	946.95	65.1
1006.9642	2804.7615	946.5	63.45
1007.0834	2805.9364	949.4	69.25
1007.2025	2807.1106	945.05	64.25
1007.3216	2808.2842	950.05	69.4
1007.4406	2809.4572	953.5	72.3
1007.5596	2810.6294	954.3	72.5
1007.6785	2811.801	951.55	69.65
1007.7975	2812.972	955.7	75.05
1007.9163	2814.1423	959.5	77.55
1008.0352	2815.3119	960.6	79
1008.154	2816.4808	960.35	79
1008.2727	2817.6491	969.75	87.55
1008.3914	2818.8167	971.5	91.7
1008.5101	2819.9837	984.2	98
1008.6288	2821.15	989.05	107.15
1008.7474	2822.3157	995.95	114.9
1008.8659	2823.4807	1011.15	128.5
1008.9844	2824.645	1014.35	130.9
1009.1029	2825.8086	1026.6	146.05
1009.2214	2826.9716	1041.15	162.5
1009.3398	2828.134	1052	171.9
1009.4581	2829.2957	1061.8	181
1009.5764	2830.4567	1070.25	191.1
1009.6947	2831.617	1074.7	194.45
1009.813	2832.7767	1079.3	197.05
1009.9312	2833.9358	1082.6	203.15
1010.0493	2835.0941	1080.3	197.05
1010.1675	2836.2519	1072.2	192.65
1010.2855	2837.4089	1068.5	188.1
1010.4036	2838.5653	1063.1	182.6
1010.5216	2839.7211	1055.4	175.6
1010.6396	2840.8761	1054.25	169.9
1010.7575	2842.0306	1053.8	175
1010.8754	2843.1843	1055.75	174.9
1010.9932	2844.3374	1053.6	172.25
1011.111	2845.4899	1055.05	173.15
1011.2288	2846.6417	1058.7	176.75
1011.3465	2847.7928	1058.7	176.2
1011.4642	2848.9433	1061.85	180.7
1011.5818	2850.0931	1064.5	182.45
1011.6995	2851.2422	1065.05	181.95
1011.817	2852.3907	1065.4	185.05
1011.9345	2853.5385	1072.15	189.8
1012.052	2854.6857	1097.35	189.95
1012.1695	2855.8323	1075.15	195
1012.2869	2856.9781	1076.8	197.6
1012.4042	2858.1233	1078.7	198.55
1012.5216	2859.2679	1084.15	203.95
1012.6389	2860.4118	1090.7	210
1012.7561	2861.555	1108.85	223.2
1012.8733	2862.6976	1105.05	222.75
1012.9905	2863.8395	1099.1	219.65
1013.1076	2864.9808	1104.55	222.7
1013.2247	2866.1214	1107.35	228.25
1013.3417	2867.2614	1112.9	230.7
1013.4587	2868.4007	1112.85	230.6
1013.5757	2869.5393	1118.45	232.65
1013.6926	2870.6773	1119.55	235.55
1013.8095	2871.8146	1129.8	244.7
1013.9263	2872.9513	1124	240.65
1014.0431	2874.0874	1126.35	243.9
1014.1599	2875.2227	1134.15	253.95
1014.2766	2876.3574	1138.9	258.8
1014.3933	2877.4915	1141.35	261.6
1014.51	2878.6249	1138.75	258.9
1014.6266	2879.7577	1140.05	258.95
1014.7431	2880.8898	1155.05	262.5
1014.8596	2882.0212	1153.6	273.85
1014.9761	2883.152	1152.65	271.9
1015.0925	2884.2821	1152.65	273.25
1015.2089	2885.4116	1161.1	279.2
1015.3253	2886.5405	1160.2	281.8
1015.4416	2887.6686	1165.05	282.4
1015.5579	2888.7962	1161.8	282.75
1015.6741	2889.923	1166.15	284.6
1015.7903	2891.0493	1166.95	288.9
1015.9065	2892.1748	1163.8	283.8
1016.0226	2893.2997	1161.2	277.7
1016.1387	2894.424	1162.65	286.25
1016.2547	2895.5476	1167.65	287.05
1016.3707	2896.6706	1167.2	286.35
1016.4866	2897.7929	1166.8	285.9
1016.6025	2898.9145	1162.2	281.2
1016.7184	2900.0355	1164.75	283.05
1016.8342	2901.1559	1165.2	284.2
1016.95	2902.2756	1165.05	277.8
1017.0658	2903.3946	1159.3	279.55
1017.1815	2904.513	1157.6	275.05
1017.2971	2905.6308	1152.4	270.85
1017.4127	2906.7479	1159.2	276.8
1017.5283	2907.8643	1159.1	277.35
1017.6439	2908.9801	1156.3	277.2
1017.7594	2910.0953	1157.45	277.5
1017.8748	2911.2098	1157.15	274.25
1017.9902	2912.3236	1156.55	269.8
1018.1056	2913.4368	1155.5	273.35
1018.2209	2914.5494	1153.1	272
1018.3362	2915.6613	1151.75	263.9
1018.4515	2916.7725	1148.45	264.6
1018.5667	2917.8831	1142.4	261.65
1018.6819	2918.9931	1142.25	258.75
1018.797	2920.1024	1140.8	261.8
1018.9121	2921.211	1132.05	249.95
1019.0271	2922.319	1128.7	248.65
1019.1421	2923.4264	1121.9	240.8
1019.2571	2924.5331	1120.35	240.4
1019.372	2925.6391	1121.25	239.9
1019.4869	2926.7445	1123.8	243.35
1019.6017	2927.8493	1128.2	246.95
1019.7165	2928.9534	1125.25	243.8
1019.8313	2930.0569	1126.55	243.3
1019.946	2931.1597	1129.25	247.1
1020.0606	2932.2619	1129.45	248.75
1020.1753	2933.3634	1134.3	254.15
1020.2899	2934.4643	1142.35	255.55
1020.4044	2935.5645	1140.75	254.2
1020.5189	2936.6641	1142.85	259.6
1020.6334	2937.763	1137.9	258.4
1020.7478	2938.8613	1137.7	256.65
1020.8622	2939.959	1140.2	254.35
1020.9765	2941.056	1132.15	252.6
1021.0908	2942.1523	1121.7	240.9
1021.2051	2943.248	1110.9	228.1
1021.3193	2944.3431	1093.2	212.05
1021.4334	2945.4375	1090.75	209.7
1021.5476	2946.5313	1078.4	200.25
1021.6617	2947.6244	1063.7	183.45
1021.7757	2948.7169	1056.6	175.65
1021.8897	2949.8087	1045.2	164.95
1022.0037	2950.8999	1041.4	160.5
1022.1176	2951.9904	1030	152.2
1022.2315	2953.0803	1025.25	142.9
1022.3453	2954.1696	1019.1	139.75
1022.4591	2955.2582	1014.3	134.65
1022.5728	2956.3462	1011.6	131.1
1022.6865	2957.4335	1011.2	129.5
1022.8002	2958.5202	1007.4	125.35
1022.9138	2959.6062	1006.35	126.15
1023.0274	2960.6916	1007	127.05
1023.141	2961.7764	1009.65	127.1
1023.2545	2962.8605	1007.4	126.35
1023.3679	2963.9439	1008.75	129
1023.4813	2965.0267	1010.3	128.95
1023.5947	2966.1089	1030.55	128
1023.708	2967.1905	1005.7	126.25
1023.8213	2968.2714	1004.3	123.8
1023.9346	2969.3516	1001.6	121.2
1024.0478	2970.4312	1009.8	120.75
1024.1609	2971.5102	1002.2	122.8
1024.274	2972.5885	999.75	119.55
1024.3871	2973.6662	1005.45	119.8
1024.5002	2974.7432	1001.15	121.05
1024.6132	2975.8196	1002.85	123.2
1024.7261	2976.8954	1007.85	128.35
1024.839	2977.9705	1005.05	127.65
1024.9519	2979.045	999.25	120.6
1025.0647	2980.1188	1000.1	121.05
1025.1775	2981.192	999.25	118.9
1025.2902	2982.2645	1000.1	119.65
1025.4029	2983.3364	998	120.1
1025.5156	2984.4077	994.3	115
1025.6282	2985.4783	996.2	110.45
1025.7407	2986.5483	986.9	107.6
1025.8532	2987.6177	983.85	104.05
1025.9657	2988.6864	978.45	96.75
1026.0782	2989.7545	978.6	95.55
1026.1906	2990.8219	974.6	95.6
1026.3029	2991.8887	978.3	96.95
1026.4152	2992.9548	967.45	86.95
1026.5275	2994.0204	962.8	83.15
1026.6397	2995.0852	957.75	78.9
1026.7519	2996.1495	953.1	71.8
1026.864	2997.2131	950	68.85
1026.9761	2998.276	948	67.75
1027.0882	2999.3383	942.1	62.25
1027.2002	3000.4	943.15	61.2
1027.3122	3001.4611	939.3	62.25
1027.4241	3002.5215	940.6	60.5
1027.536	3003.5812	932.3	51.9
1027.6478	3004.6404	932.3	52.3
1027.7596	3005.6989	932.95	51.05
1027.8714	3006.7567	927.45	47.3
1027.9831	3007.8139	956.4	52.35
1028.0947	3008.8705	928.4	47.5
1028.2064	3009.9264	944.85	51
1028.3179	3010.9818	925.8	45.9
1028.4295	3012.0364	924.75	42.45
1028.541	3013.0905	924.7	44.2
1028.6524	3014.1439	922.1	40.55
1028.7638	3015.1966	921.6	40.9
1028.8752	3016.2487	922.8	41.95
1028.9865	3017.3002	924.2	40.5
1029.0978	3018.3511	920.3	41.2
1029.209	3019.4013	921.8	41.55
1029.3202	3020.4509	921	42.95
1029.4314	3021.4998	920.3	40.85
1029.5425	3022.5481	920.05	41.4
1029.6535	3023.5958	919.2	39.8
1029.7645	3024.6428	922.7	42.95
1029.8755	3025.6892	915.8	36.85
1029.9864	3026.735	919.05	39.75
1030.0973	3027.7802	918.55	38
1030.2082	3028.8247	918.35	39
1030.319	3029.8685	919.4	39.3
1030.4297	3030.9118	918.95	36.95
1030.5404	3031.9544	916.8	37.2
1030.6511	3032.9963	918.2	38.35
1030.7617	3034.0376	914.35	34.9
1030.8723	3035.0783	921.4	37.3
1030.9829	3036.1184	918.45	38.15
1031.0934	3037.1578	919.4	42.85
1031.2038	3038.1966	919.9	37.6
1031.3142	3039.2348	916.75	35.45
1031.4246	3040.2723	925.1	34.7
1031.5349	3041.3092	916.5	39.35
1031.6452	3042.3455	917.7	37.95
1031.7554	3043.3811	918.75	38.55
1031.8656	3044.4161	918.55	38.85
1031.9758	3045.4505	917.45	38.75
1032.0859	3046.4842	920.75	40.95
1032.1959	3047.5173	917.15	37.8
1032.3059	3048.5498	915.85	35.8
1032.4159	3049.5816	919.3	42.7
1032.5258	3050.6128	921.8	40.3
1032.6357	3051.6434	922.35	42
1032.7455	3052.6734	919.7	40.15
1032.8553	3053.7027	917.55	37.15
1032.9651	3054.7314	917.45	37.6
1033.0748	3055.7594	917.25	38.65
1033.1845	3056.7868	918.6	37.15
1033.2941	3057.8136	919.7	41.15
1033.4037	3058.8398	920.3	41.9
1033.5132	3059.8653	918.05	40.3
1033.6227	3060.8902	921.3	43.45
1033.7321	3061.9145	919.7	40.2
1033.8415	3062.9381	922.05	42.3
1033.9509	3063.9612	940.6	44.25
1034.0602	3064.9835	921.4	41.05
1034.1694	3066.0053	924.9	43
1034.2787	3067.0264	920.15	38.85
1034.3878	3068.0469	922.7	41.65
1034.497	3069.0668	922.25	39
1034.6061	3070.086	920.4	44.55
1034.7151	3071.1046	919.2	39.9
1034.8241	3072.1226	921.25	40.8
1034.9331	3073.1399	920.15	40.95
1035.042	3074.1567	918.6	38.6
1035.1508	3075.1727	917.25	38.2
1035.2597	3076.1882	916.95	36.45
1035.3684	3077.203	913.95	31.95
1035.4772	3078.2173	918	37.5
1035.5859	3079.2308	916.5	33.5
1035.6945	3080.2438	914.05	32.85
1035.8031	3081.2561	914.5	35.95
1035.9117	3082.2678	910.35	30.45
1036.0202	3083.2789	913.6	36.25
1036.1286	3084.2893	910.9	31.15
1036.2371	3085.2991	912.05	31.3
1036.3454	3086.3083	913.9	28.2
1036.4538	3087.3169	910.5	28.95
1036.562	3088.3248	910.25	28.7
1036.6703	3089.3321	909.55	30
1036.7785	3090.3388	908.65	29.4
1036.8866	3091.3449	907.45	28.4
1036.9948	3092.3503	909.75	27.4
1037.1028	3093.3551	906.15	29.35
1037.2108	3094.3593	904.75	27.45
1037.3188	3095.3629	904.2	25.5
1037.4267	3096.3658	907.5	27.15
1037.5346	3097.3681	906.5	26.65
1037.6425	3098.3698	907.25	26.75
1037.7503	3099.3708	908.2	28.85
1037.858	3100.3713	903.1	23.5
1037.9657	3101.3711	907.15	27.45
1038.0734	3102.3702	1043.05	22.25
1038.181	3103.3688	907.1	27.65
1038.2886	3104.3667	903.15	24.95
1038.3961	3105.364	901.95	22.9
1038.5036	3106.3607	905.7	24.25
1038.611	3107.3568	906.9	25.5
1038.7184	3108.3522	902.75	25.45
1038.8257	3109.347	903.05	24.25
1038.933	3110.3412	906.05	22.2
1039.0403	3111.3348	902.3	22.15
1039.1475	3112.3277	899.4	17.45
1039.2547	3113.32	899.5	20.25
1039.3618	3114.3117	903.5	21.25
1039.4689	3115.3028	901.15	22.45
1039.5759	3116.2932	903.8	22.7
1039.6829	3117.2831	906.05	19.3
1039.7898	3118.2723	901.85	22.35
1039.8967	3119.2608	899.7	21.3
1040.0035	3120.2488	899.4	16.3
1040.1103	3121.2361	898.3	20.15
1040.2171	3122.2229	899.55	19.4
1040.3238	3123.209	897.55	18.25
1040.4305	3124.1944	898.95	20.1
1040.5371	3125.1793	899.2	17.85
1040.6437	3126.1635	896.25	18.75
1040.7502	3127.1471	898.55	18.95
1040.8567	3128.1301	895.5	17.6
1040.9631	3129.1125	897.85	18.65
1041.0695	3130.0942	898.2	17.95
1041.1759	3131.0753	905.2	15.75
1041.2822	3132.0558	899.65	17.3
1041.3884	3133.0357	897.9	17.45
1041.4946	3134.015	899.7	21.05
1041.6008	3134.9936	897.5	17.1
1041.7069	3135.9716	918.5	18.25
1041.813	3136.949	897.05	19.2
1041.919	3137.9258	913.65	17.25
1042.025	3138.902	898.85	14.7
1042.1309	3139.8775	894.85	15.05
1042.2368	3140.8524	894.15	15.05
1042.3427	3141.8267	897.85	16.4
1042.4485	3142.8004	895.8	16.3
1042.5542	3143.7735	900.9	14.85
1042.6599	3144.7459	894.45	14.2
1042.7656	3145.7178	895	16.4
1042.8712	3146.689	893.6	15.65
1042.9768	3147.6596	894.65	13.3
1043.0823	3148.6295	896.3	16.3
1043.1878	3149.5989	893.65	13.5
1043.2932	3150.5676	891.15	13.65
1043.3986	3151.5357	893.55	15.35
1043.5039	3152.5032	892.95	12.95
1043.6092	3153.4701	896.4	18.5
1043.7145	3154.4364	897.3	14.6
1043.8197	3155.402	894.6	18.4
1043.9248	3156.367	896.55	16.45
1044.03	3157.3315	926.5	11.75
1044.135	3158.2952	894.2	15.35
1044.24	3159.2584	891.25	12.15
1044.345	3160.221	892.6	12.8
1044.4499	3161.1829	894.75	16.6
1044.5548	3162.1442	892.15	12.55
1044.6596	3163.105	892.3	13.7
1044.7644	3164.065	893.95	15.15
1044.8692	3165.0245	895.2	13.1
1044.9739	3165.9834	891.9	17.2
1045.0785	3166.9416	891.1	10.9
1045.1831	3167.8993	892.7	10.8
1045.2877	3168.8563	893.3	15.85
1045.3922	3169.8127	890.35	12
1045.4966	3170.7684	892.5	13.9
1045.6011	3171.7236	892.65	11.45
1045.7054	3172.6782	891.95	13.75
1045.8098	3173.6321	894.1	13.5
1045.914	3174.5854	894.5	9.7
1046.0183	3175.5381	892.95	14.2
1046.1224	3176.4902	891.05	12.35
1046.2266	3177.4417	890.15	12.35
1046.3307	3178.3926	892.05	15.75
1046.4347	3179.3428	890.5	12.3
1046.5387	3180.2924	892.35	14.8
1046.6427	3181.2415	892.1	12.45
1046.7466	3182.1899	893.5	14.1
1046.8504	3183.1377	891.85	12.9
1046.9542	3184.0848	895.15	13.2
1047.058	3185.0314	889.75	9.7
1047.1617	3185.9773	891.2	8.7
1047.2654	3186.9227	890.95	10.3
1047.369	3187.8674	891	13.1
1047.4726	3188.8115	894.55	10.6
1047.5761	3189.755	887.8	8.85
1047.6796	3190.6979	891.1	11.25
1047.783	3191.6402	889.2	9.7
1047.8864	3192.5818	889.2	13.3
1047.9898	3193.5229	914.1	7.6
1048.0931	3194.4633	891	13.3
1048.1963	3195.4031	890.35	10.25
1048.2995	3196.3423	888.3	10.3
1048.4027	3197.2809	893.3	15.7
1048.5058	3198.2189	890.35	11.4
1048.6089	3199.1563	898.2	14
1048.7119	3200.0931	889.9	11.4
1048.8148	3201.0292	888.8	9.4
1048.9178	3201.9648	887.95	7
1049.0206	3202.8997	889.4	7.55
1049.1235	3203.834	887.5	7.35
1049.2262	3204.7677	888.6	9.5
1049.329	3205.7008	888.45	7.85
1049.4317	3206.6333	888.6	11
1049.5343	3207.5652	889.5	7.45
1049.6369	3208.4964	889.25	12.25
1049.7394	3209.4271	891.35	12.7
1049.8419	3210.3571	888.45	11.15
1049.9444	3211.2865	888.65	6.5
1050.0468	3212.2154	890.8	10.45
1050.1491	3213.1436	891.2	11.2
1050.2514	3214.0712	896.25	8.75
1050.3537	3214.9982	889.35	9.3
1050.4559	3215.9246	888.65	8.5
1050.5581	3216.8503	888.25	10.4
1050.6602	3217.7755	886.65	9
1050.7623	3218.7001	889.55	11.35
1050.8643	3219.624	887.85	7.3
1050.9663	3220.5473	888.95	8.45
1051.0682	3221.4701	891.1	8.35
1051.1701	3222.3922	889.85	8.25
1051.2719	3223.3137	888.5	9.5
1051.3737	3224.2346	890.55	11.55
1051.4754	3225.1549	886.2	7.15
1051.5771	3226.0746	886.5	7.95
1051.6788	3226.9937	888.8	10.3
1051.7804	3227.9121	887.25	7.45
1051.8819	3228.83	888.25	10.2
1051.9834	3229.7473	890.3	10.3
1052.0849	3230.6639	888.2	9.35
1052.1863	3231.5799	886.8	9.2
1052.2876	3232.4954	888.45	7.95
1052.3889	3233.4102	887.55	10.8
1052.4902	3234.3244	888.5	8.8
1052.5914	3235.238	885.55	5.75
1052.6926	3236.151	910.95	8.1
1052.7937	3237.0634	885.8	8.15
1052.8948	3237.9752	887.3	8.95
1052.9958	3238.8864	886	7.45
1053.0968	3239.797	888.4	10.85
1053.1977	3240.7069	888.4	9.65
1053.2986	3241.6163	889.35	10.1
1053.3994	3242.5251	886.85	8.35
1053.5002	3243.4332	886.05	8.35
1053.6009	3244.3408	887.45	6.75
1053.7016	3245.2477	885.05	5.85
1053.8022	3246.154	890.25	11.15
1053.9028	3247.0598	886.7	7.6
1054.0034	3247.9649	884.85	6.35
1054.1039	3248.8694	885.5	7.95
1054.2043	3249.7733	884.65	3.55
1054.3047	3250.6766	887.65	9.35
1054.4051	3251.5793	889	8
1054.5054	3252.4814	885.75	7
1054.6056	3253.3829	885.35	6.85
1054.7058	3254.2838	885.5	6.55
1054.806	3255.1841	885.3	7.5
1054.9061	3256.0838	888	9
1055.0061	3256.9829	883.8	6.6
1055.1062	3257.8814	886.75	5.65
1055.2061	3258.7792	888.95	8.85
1055.306	3259.6765	887.25	8
1055.4059	3260.5731	884.85	7.55
1055.5057	3261.4692	885.5	4.8
1055.6055	3262.3647	888.55	8.1
1055.7052	3263.2595	884.1	5.55
1055.8049	3264.1538	886.85	8.5
1055.9045	3265.0474	885.75	5.7
1056.0041	3265.9404	884.25	6.4
1056.1036	3266.8329	885.7	9.15
1056.2031	3267.7247	893.1	5.05
1056.3025	3268.616	884.25	7.25
1056.4019	3269.5066	884.4	3.75
1056.5013	3270.3966	884.95	3.45
1056.6005	3271.286	882.65	4.1
