Software Version:	3.9.2.0
Unit SN:	10000200
Spectrometer SN:	6960
Date:	3/8/2024 1:37:32 PM
Data Line Index:	25
Spectral Points:	2048
Integration time (ms):	125
Averages:	20
Delay (ms):	30000
Sequence Number:	1
Processing:	dark subtract
Laser Power (mW):	300
Laser Current (mA):	823
Laser Diode Temp (C):	25.1
Laser Case Temp (C):	26.3
System Temp (C):	26.2
Spectrometer Temp (C):	24.1
CCD Temp (C):	0.013
Secondary Temp (C):	20.01
Heatsink Temp (C):	20.4
CCDPCB Temp (C):	35.94
SecondaryPCB Temp (C):	29.571

Wavelength	RamanShift	Raw Counts	Dark Subtracted
787.061	30.1047	457.85	50.6
787.2016	32.3739	456.75	51.95
787.3422	34.6426	467.1	60.3
787.4828	36.9109	468	58.65
787.6235	39.1787	482.8	71.25
787.7642	41.4461	491	72.75
787.9049	43.7131	500.2	79.5
788.0456	45.9796	508.05	84.6
788.1863	48.2456	516.3	88.3
788.3271	50.5112	526.25	94.75
788.4679	52.7764	532.85	97.8
788.6087	55.0411	544.95	105
788.7496	57.3054	560.25	114.75
788.8904	59.5692	567.35	120.65
789.0313	61.8326	583.75	136.55
789.1722	64.0955	593.45	141.85
789.3132	66.3579	606.6	150.5
789.4541	68.6199	633.1	171.65
789.5951	70.8815	663.4	196.75
789.7361	73.1426	750.15	280.85
789.8771	75.4032	948.35	475.3
790.0181	77.6634	1458.8	979.75
790.1592	79.9231	2670.4	2184.3
790.3003	82.1824	5292.65	4786.85
790.4414	84.4412	10006.6	9468.6
790.5825	86.6995	16518.8	15942
790.7237	88.9574	22821.2	22210.85
790.8648	91.2148	27289.35	26655.55
791.006	93.4717	29321.55	28672.65
791.1472	95.7282	29766.95	29110.35
791.2885	97.9842	29649.45	28986.2
791.4297	100.2398	29112.85	28448.5
791.571	102.4949	28514.95	27850.4
791.7123	104.7495	27702	27035.5
791.8536	107.0036	26940.3	26273.25
791.9949	109.2573	26160.95	25495.6
792.1363	111.5105	25458.85	24787.4
792.2777	113.7632	24756.85	24085.9
792.4191	116.0154	24204.2	23519.45
792.5605	118.2672	23760.25	23083.8
792.7019	120.5185	23293.05	22608.6
792.8434	122.7693	22901.3	22216.9
792.9849	125.0197	22626.4	21939.1
793.1264	127.2696	22389.05	21698.55
793.2679	129.519	22275.85	21579.75
793.4094	131.7679	22051.4	21356.45
793.551	134.0163	21876.25	21178.85
793.6926	136.2642	21678.15	20971.65
793.8342	138.5117	21429.75	20726.55
793.9758	140.7587	21189.3	20479.25
794.1175	143.0052	20977.65	20265.6
794.2591	145.2512	20733.3	20022.35
794.4008	147.4967	20490.95	19780.6
794.5425	149.7417	20310.8	19597.05
794.6842	151.9863	20203.25	19489.7
794.826	154.2304	20154.35	19428.25
794.9677	156.4739	20011.4	19279.95
795.1095	158.717	19943.4	19216.6
795.2513	160.9596	19805.4	19065.25
795.3931	163.2017	19556.25	18819.8
795.535	165.4433	19261.9	18519.8
795.6768	167.6844	18916.6	18180.15
795.8187	169.925	18602.1	17860.2
795.9606	172.1651	18268.65	17524.15
796.1025	174.4047	17967	17221.2
796.2445	176.6439	17748.2	17000.85
796.3864	178.8825	17540.4	16788.45
796.5284	181.1206	17365.7	16609.45
796.6704	183.3582	17241	16480.5
796.8124	185.5954	17135.6	16373.3
796.9544	187.832	17039.1	16270.95
797.0965	190.0681	17039.5	16271.4
797.2386	192.3037	17058.4	16288.1
797.3806	194.5388	17051.55	16277.65
797.5228	196.7734	17105	16331.1
797.6649	199.0075	17165.6	16387.95
797.807	201.2411	17321.05	16541.8
797.9492	203.4742	17389.05	16609.2
798.0914	205.7068	17544.05	16756.6
798.2336	207.9389	17640.9	16855.9
798.3758	210.1704	17802.85	17023.3
798.518	212.4015	17936	17169.25
798.6603	214.632	18114.95	17355.9
798.8025	216.862	18298.15	17535.8
798.9448	219.0915	18430	17665.1
799.0871	221.3205	18651.1	17882.3
799.2294	223.549	18871.9	18107.45
799.3718	225.777	19169.45	18406
799.5141	228.0044	19503.25	18730.85
799.6565	230.2314	19946.1	19174.65
799.7989	232.4578	20288.8	19517
799.9413	234.6837	20637.9	19856.15
800.0837	236.909	20840.1	20052.4
800.2262	239.1339	20861.55	20048.25
800.3687	241.3582	20642.05	19846.85
800.5111	243.582	20384.15	19556.35
800.6536	245.8053	20082.4	19267.05
800.7961	248.0281	19813.05	19005.8
800.9387	250.2503	19603.1	18793.1
801.0812	252.472	19479.15	18665
801.2238	254.6932	19485.3	18675.5
801.3664	256.9139	19429.1	18614.9
801.509	259.134	19465.25	18644
801.6516	261.3536	19481	18664.1
801.7942	263.5727	19572.5	18753.25
801.9369	265.7912	19621.2	18805.9
802.0795	268.0092	19699.65	18882.1
802.2222	270.2267	19705.5	18889.9
802.3649	272.4436	19690.95	18869.2
802.5076	274.6601	19657.6	18828.2
802.6504	276.8759	19564.05	18744.8
802.7931	279.0913	19524.25	18702.55
802.9359	281.3061	19452.75	18628.3
803.0787	283.5204	19501.85	18669.55
803.2215	285.7341	19559.8	18725.75
803.3643	287.9473	19741.4	18898.4
803.5071	290.16	19926.55	19091.55
803.6499	292.3721	20221.7	19394.65
803.7928	294.5837	20620.8	19787.9
803.9357	296.7947	20948.7	20116.9
804.0786	299.0052	21140.65	20306.05
804.2215	301.2152	20989.65	20154.1
804.3644	303.4246	20718.8	19886.8
804.5074	305.6334	20207.55	19375.7
804.6503	307.8418	19735	18905.6
804.7933	310.0495	19324.6	18486.2
804.9363	312.2568	19024.7	18181.3
805.0793	314.4635	18730.75	17887.9
805.2223	316.6696	18596	17754.55
805.3653	318.8752	18565.95	17712.1
805.5084	321.0802	18601.95	17757.55
805.6514	323.2847	18691.45	17847.95
805.7945	325.4887	18725.65	17882.95
805.9376	327.692	18704.3	17856.35
806.0807	329.8949	18625.55	17776
806.2238	332.0972	18390.6	17543.35
806.367	334.2989	18081.85	17228.3
806.5101	336.5001	17818.9	16963.85
806.6533	338.7007	17646.05	16793.15
806.7965	340.9008	17513.3	16654.1
806.9397	343.1003	17410.1	16554.9
807.0829	345.2992	17371.5	16514.9
807.2261	347.4976	17333.25	16477.75
807.3693	349.6955	17303.65	16441.85
807.5126	351.8927	17405.45	16541.2
807.6559	354.0895	17391.75	16516.15
807.7991	356.2856	17434.6	16567.4
807.9424	358.4812	17401.3	16534
808.0857	360.6763	17430.75	16561.95
808.2291	362.8707	17427.1	16555.8
808.3724	365.0646	17475.4	16602.7
808.5158	367.258	17460.2	16589.05
808.6591	369.4508	17538.95	16663.4
808.8025	371.643	17601.85	16724.4
808.9459	373.8346	17614.6	16734.85
809.0893	376.0257	17626.2	16747.05
809.2327	378.2162	17531.55	16655.15
809.3762	380.4062	17463.2	16585.5
809.5196	382.5956	17338.35	16466.5
809.6631	384.7844	17230.2	16361.95
809.8066	386.9726	17112.25	16243.4
809.9501	389.1603	17082	16215.8
810.0936	391.3474	17061.5	16158.95
810.2371	393.5339	17052.3	16182.9
810.3806	395.7199	16981.15	16111.95
810.5241	397.9052	17023.5	16152.05
810.6677	400.09	17047.8	16179.85
810.8113	402.2743	17130.6	16261.55
810.9548	404.4579	17233.9	16365.75
811.0984	406.641	17424.85	16554
811.2421	408.8235	17618.55	16747.3
811.3857	411.0054	17935.55	17061.2
811.5293	413.1868	18320.8	17439.65
811.673	415.3675	18628.6	17745.5
811.8166	417.5477	18810.5	17925.45
811.9603	419.7273	18819.4	17932.2
812.104	421.9064	18692.45	17801.45
812.2477	424.0848	18602.95	17719.25
812.3914	426.2627	18426.05	17540.6
812.5351	428.4399	18140.6	17253.3
812.6788	430.6166	17776.05	16882.8
812.8226	432.7928	17395.7	16501.2
812.9663	434.9683	17117.5	16228.65
813.1101	437.1432	16897.2	16012.75
813.2539	439.3176	16721.95	15840.95
813.3977	441.4914	16600.6	15725.55
813.5415	443.6645	16583.75	15702.5
813.6853	445.8371	16502.85	15617.1
813.8291	448.0091	16463.5	15576.8
813.973	450.1806	16443.5	15561.65
814.1168	452.3514	16363.35	15481.85
814.2607	454.5216	16390.9	15497.05
814.4046	456.6913	16369.6	15480.8
814.5485	458.8603	16388.4	15503.25
814.6924	461.0288	16444.05	15569.15
814.8363	463.1967	16440.7	15564.75
814.9802	465.3639	16562.85	15683.1
815.1241	467.5306	16655.3	15771.4
815.2681	469.6967	16815.9	15932
815.412	471.8622	16904	16025.3
815.556	474.0271	17051.25	16168.3
815.7	476.1914	17123.6	16234.7
815.844	478.3551	17155	16266.7
815.988	480.5182	17147.4	16261.95
816.132	482.6807	17138.05	16264.45
816.276	484.8426	17243.55	16376.1
816.4201	487.0039	17517.35	16641.05
816.5641	489.1647	17959.35	17071.55
816.7082	491.3248	18382.3	17493.6
816.8522	493.4843	18567.25	17685.55
816.9963	495.6432	18533.3	17649.25
817.1404	497.8015	18453.5	17560.85
817.2845	499.9592	18419.35	17519.3
817.4286	502.1163	18354.1	17452.9
817.5727	504.2728	18091.2	17200.05
817.7168	506.4287	17807.8	16926.1
817.861	508.5839	17420.85	16540.45
818.0051	510.7386	17109.05	16223.8
818.1493	512.8927	16957	16060.9
818.2935	515.0461	16887.6	15990.85
818.4377	517.199	16858.8	15958.25
818.5818	519.3512	16873.95	15976.2
818.726	521.5029	16967.75	16069.5
818.8703	523.6539	17070.95	16173.8
819.0145	525.8043	17147.65	16251.2
819.1587	527.9541	17171.1	16269.45
819.303	530.1033	17109.95	16211.5
819.4472	532.2519	17118.75	16222.5
819.5915	534.3999	17244.8	16345.1
819.7357	536.5472	17441.8	16542.35
819.88	538.694	17882.3	16988.4
820.0243	540.8401	18451.7	17550.4
820.1686	542.9856	18885.6	17977.2
820.3129	545.1305	19030.7	18114.2
820.4572	547.2748	18936.1	18023.35
820.6016	549.4185	18599.25	17685.45
820.7459	551.5615	18266.05	17352.5
820.8902	553.704	18151.05	17239.3
821.0346	555.8458	18101.8	17193.3
821.1789	557.987	18140.9	17234.95
821.3233	560.1276	18193.5	17285.6
821.4677	562.2675	18300	17387.35
821.6121	564.4069	18414.1	17500.5
821.7565	566.5456	18445.9	17535.45
821.9009	568.6837	18424.85	17517.55
822.0453	570.8212	18129.55	17221.9
822.1897	572.958	17735.65	16826.4
822.3342	575.0942	17404.85	16503.5
822.4786	577.2299	17191.05	16290.65
822.6231	579.3648	17156.05	16267.65
822.7675	581.4992	17177.7	16298.7
822.912	583.6329	17354.4	16473.7
823.0565	585.766	17567.05	16678.9
823.201	587.8985	17690.7	16798.05
823.3454	590.0304	17727.7	16802.75
823.4899	592.1616	17658.75	16747.25
823.6345	594.2922	17547.6	16634.75
823.779	596.4222	17381.6	16465.55
823.9235	598.5515	17232	16318.3
824.068	600.6802	17062.8	16156
824.2126	602.8083	16879.65	15970.95
824.3571	604.9358	16836.6	15928.75
824.5017	607.0626	16800.8	15888.75
824.6462	609.1888	16831.6	15910.4
824.7908	611.3144	16772.05	15853.9
824.9354	613.4393	16693.3	15772.5
825.08	615.5636	16641.95	15717.45
825.2246	617.6873	16601.05	15678.7
825.3692	619.8103	16552.5	15630.9
825.5138	621.9327	16442.2	15526.4
825.6584	624.0544	16354.95	15441.7
825.803	626.1756	16322.45	15411.45
825.9477	628.2961	16252.55	15337.65
826.0923	630.4159	16228.3	15313.2
826.237	632.5351	16213.15	15292.2
826.3816	634.6537	16149.65	15231.4
826.5263	636.7716	16136.75	15206.75
826.6709	638.8889	16145.7	15217.45
826.8156	641.0056	16193.5	15264.1
826.9603	643.1216	16153.55	15226.85
827.105	645.237	16173.35	15250
827.2497	647.3518	16170.8	15255.65
827.3944	649.4659	16195.05	15281.6
827.5391	651.5793	16167.55	15257.35
827.6838	653.6922	16145.35	15232.45
827.8285	655.8043	16169.35	15251.2
827.9733	657.9159	16138.4	15218.1
828.118	660.0268	16063.25	15147.6
828.2627	662.137	16038.25	15118.3
828.4075	664.2466	16044.95	15117.3
828.5522	666.3556	16027.15	15104.25
828.697	668.4639	15981.65	15061.65
828.8418	670.5716	16047.75	15131.1
828.9865	672.6786	16133.95	15208.5
829.1313	674.785	16144.2	15216.3
829.2761	676.8907	16166.85	15239.95
829.4209	678.9958	16241.1	15322.65
829.5657	681.1002	16204.1	15279.45
829.7105	683.204	16228	15297.3
829.8553	685.3072	16186.8	15260.5
830.0001	687.4097	16132.5	15203.2
830.1449	689.5115	16098.95	15172.45
830.2898	691.6127	16062.65	15139.6
830.4346	693.7132	16002.9	15077.8
830.5794	695.8131	15989.8	15058.95
830.7243	697.9123	15967	15033.3
830.8691	700.0109	15947.75	15015.75
831.014	702.1089	15948.35	15019.45
831.1588	704.2061	15984.15	15057.4
831.3037	706.3028	16026.05	15093.9
831.4486	708.3987	16071.35	15141.45
831.5935	710.4941	16154.7	15226.25
831.7383	712.5887	16321.35	15391.75
831.8832	714.6827	16566.2	15635.1
832.0281	716.7761	16848.15	15924.6
832.173	718.8688	17203.2	16275.95
832.3179	720.9608	17402.25	16468.75
832.4628	723.0522	17477.75	16535.65
832.6077	725.1429	17315.25	16380.75
832.7527	727.233	17142.6	16213
832.8976	729.3224	16944.15	16014.65
833.0425	731.4112	16691.5	15760.55
833.1874	733.4993	16521.9	15591.45
833.3324	735.5867	16341.9	15411.5
833.4773	737.6735	16198.85	15263.05
833.6222	739.7596	16145.05	15211.95
833.7672	741.845	16068.2	15136.05
833.9122	743.9298	16038.6	15102.1
834.0571	746.014	16078.9	15145.4
834.2021	748.0974	16068.6	15128.65
834.347	750.1802	16027.65	15090.05
834.492	752.2624	16058.3	15117.1
834.637	754.3439	16108.6	15167.35
834.782	756.4247	16184.5	15241.35
834.9269	758.5048	16294.05	15354.25
835.0719	760.5843	16530.5	15588.7
835.2169	762.6631	16865.3	15927.05
835.3619	764.7413	17366.85	16430.25
835.5069	766.8188	17927.75	16987.75
835.6519	768.8956	18407.15	17468.1
835.7969	770.9718	18700.85	17763.4
835.9419	773.0473	18555.8	17620.7
836.0869	775.1221	18276.15	17336.85
836.232	777.1962	17911.55	16974.35
836.377	779.2697	17709.2	16768.8
836.522	781.3426	17764.2	16806.2
836.667	783.4147	17963.15	17024.25
836.8121	785.4862	18255.8	17316.8
836.9571	787.557	18268	17325.55
837.1021	789.6271	17867.7	16927.2
837.2472	791.6966	17350.45	16410.35
837.3922	793.7654	16822.9	15881.25
837.5373	795.8335	16537.45	15599.2
837.6823	797.901	16307.05	15367.5
837.8274	799.9678	16264.75	15322.35
837.9724	802.0339	16227.4	15289.35
838.1175	804.0993	16246.2	15294.05
838.2626	806.1641	16230.95	15288.7
838.4076	808.2282	16168.9	15228.2
838.5527	810.2916	16073	15131.2
838.6978	812.3544	16019.65	15083.05
838.8428	814.4164	15938.1	15001.3
838.9879	816.4778	15975.05	15027.5
839.133	818.5385	15993.85	15049.35
839.2781	820.5986	16067.7	15121.95
839.4232	822.658	16192.95	15247.3
839.5682	824.7166	16342.2	15401.55
839.7133	826.7747	16616.5	15671.5
839.8584	828.832	16869.7	15923.85
840.0035	830.8886	17041.05	16091.45
840.1486	832.9446	17184.4	16235.8
840.2937	834.9999	17187.4	16244.6
840.4388	837.0545	17135	16184.6
840.5839	839.1085	17059.65	16114.2
840.729	841.1618	17019.55	16073
840.8741	843.2143	16929.35	15985.95
841.0192	845.2662	16817.45	15870.85
841.1643	847.3175	16777.9	15832.05
841.3095	849.368	16656.25	15712.3
841.4546	851.4179	16541.65	15598.95
841.5997	853.467	16391	15446.75
841.7448	855.5155	16324.1	15377.15
841.8899	857.5633	16226.5	15282.5
842.0351	859.6105	16131.75	15182.15
842.1802	861.6569	16080.35	15136.75
842.3253	863.7027	16057.7	15109.7
842.4704	865.7478	16030.4	15083.75
842.6156	867.7922	16035.4	15089.1
842.7607	869.8359	16071.15	15122.35
842.9058	871.8789	16178.4	15230
843.0509	873.9212	16335.7	15355.3
843.1961	875.9629	16449.8	15501.65
843.3412	878.0039	16630.6	15682.75
843.4863	880.0441	16741.9	15797.55
843.6315	882.0837	16768.25	15825.7
843.7766	884.1226	16705.4	15759.85
843.9218	886.1609	16609.9	15661.35
844.0669	888.1984	16588.7	15639.45
844.212	890.2352	16587.75	15640.1
844.3572	892.2714	16555.6	15604.2
844.5023	894.3069	16552.75	15606.25
844.6475	896.3416	16457.55	15511.4
844.7926	898.3757	16424.3	15477.75
844.9377	900.4091	16383.35	15430.7
845.0829	902.4418	16383.2	15424.95
845.228	904.4739	16396.7	15443.3
845.3732	906.5052	16443.35	15491.05
845.5183	908.5358	16372.1	15422.45
845.6635	910.5658	16220.75	15265.95
845.8086	912.595	16050.85	15102.2
845.9538	914.6236	15882.3	14933.4
846.0989	916.6515	15819	14869.45
846.2441	918.6786	15791.4	14841.4
846.3892	920.7051	15864.3	14912.3
846.5344	922.7309	15958.95	15006.25
846.6795	924.756	16046.5	15099.15
846.8246	926.7804	16164.05	15212.6
846.9698	928.8041	16101	15149.3
847.1149	930.8272	16148.1	15198.1
847.2601	932.8495	16037.65	15086.95
847.4052	934.8711	15985.55	15033.7
847.5504	936.892	15872.75	14919.95
847.6955	938.9123	15756.35	14806.6
847.8407	940.9318	15632.65	14679.6
847.9858	942.9506	15575.85	14624.3
848.131	944.9688	15520.95	14571.5
848.2761	946.9862	15449.05	14496.55
848.4213	949.003	15336.3	14386.8
848.5664	951.019	15330.85	14379.15
848.7115	953.0344	15337.35	14386.35
848.8567	955.0491	15388.85	14433.9
849.0018	957.063	15450.3	14496.05
849.147	959.0763	15591.65	14642.25
849.2921	961.0888	15583.3	14634.25
849.4373	963.1007	15717.8	14767.15
849.5824	965.1119	15734.9	14796.1
849.7275	967.1223	15766.1	14832.2
849.8727	969.1321	15762.05	14827.1
850.0178	971.1412	15794.1	14852.05
850.1629	973.1495	15801.1	14855.75
850.3081	975.1572	15878.6	14875.25
850.4532	977.1641	15900.65	14947.95
850.5983	979.1704	15859.45	14909.3
850.7435	981.1759	15859.9	14906.95
850.8886	983.1808	15900.65	14945.5
851.0337	985.1849	15985.25	15023.75
851.1788	987.1884	16117.2	15167.55
851.324	989.1911	16256.5	15307.6
851.4691	991.1932	16402.1	15453.15
851.6142	993.1945	16419.35	15468.4
851.7593	995.1951	16375.65	15424.05
851.9045	997.1951	16313	15357.7
852.0496	999.1943	16254.6	15303.55
852.1947	1001.1928	16245.8	15293.2
852.3398	1003.1906	16230.6	15281.7
852.4849	1005.1877	16305.5	15354.2
852.63	1007.1841	16294.25	15343.75
852.7751	1009.1798	16228.2	15280.7
852.9202	1011.1748	16057.05	15108.95
853.0653	1013.1691	15884.1	14936.25
853.2104	1015.1627	15661.8	14708.55
853.3555	1017.1556	15466.1	14517.8
853.5006	1019.1477	15368.15	14420.9
853.6457	1021.1392	15266.6	14324.4
853.7908	1023.1299	15258.35	14319.3
853.9359	1025.12	15231.8	14301.1
854.081	1027.1093	15288.8	14368.8
854.2261	1029.0979	15382.05	14463.75
854.3712	1031.0859	15436.5	14514.35
854.5163	1033.0731	15451.75	14516.85
854.6613	1035.0596	15426.2	14485.95
854.8064	1037.0454	15256.7	14314.5
854.9515	1039.0304	15121.75	14176.3
855.0965	1041.0148	15011.5	14067
855.2416	1042.9985	14900.05	13949.25
855.3867	1044.9814	14886.55	13940
855.5317	1046.9636	14836.15	13889.1
855.6768	1048.9452	14818.05	13875.05
855.8219	1050.926	14846.7	13899.1
855.9669	1052.9061	14834.7	13887.95
856.112	1054.8855	14827.45	13881.1
856.257	1056.8642	14874.6	13927.6
856.4021	1058.8421	14918.45	13964.9
856.5471	1060.8194	14943.6	13993.5
856.6921	1062.7959	14996.65	14049.65
856.8372	1064.7717	15040.95	14089.6
856.9822	1066.7469	15078.35	14127.6
857.1272	1068.7213	15060.7	14111.5
857.2723	1070.695	15076.5	14127.8
857.4173	1072.6679	15016.75	14068.4
857.5623	1074.6402	14980.9	14033.3
857.7073	1076.6117	14996.95	14043.75
857.8523	1078.5826	14959.1	14008
857.9973	1080.5527	14939.9	13990.75
858.1423	1082.5221	14977	14025.5
858.2873	1084.4908	15122.85	14174.65
858.4323	1086.4587	15270.55	14321.6
858.5773	1088.426	15403.35	14456.6
858.7223	1090.3925	15397.05	14448.05
858.8673	1092.3584	15370.35	14421.65
859.0123	1094.3235	15256.75	14312.4
859.1573	1096.2879	15223	14275.4
859.3022	1098.2515	15236.55	14288
859.4472	1100.2145	15303.15	14355.6
859.5922	1102.1767	15440.55	14489
859.7371	1104.1382	15584.9	14636.05
859.8821	1106.099	15801.8	14853.6
860.027	1108.0591	16003.6	15053.1
860.172	1110.0185	16130.05	15180.7
860.3169	1111.9771	16166.8	15221.9
860.4619	1113.9351	15979.8	15032
860.6068	1115.8923	15710.95	14764.85
860.7517	1117.8488	15484.4	14534.1
860.8967	1119.8045	15217.55	14270
861.0416	1121.7596	15048.65	14100.7
861.1865	1123.7139	14973.3	14029.6
861.3314	1125.6675	14971.95	14025.25
861.4763	1127.6204	15060.65	14117.05
861.6212	1129.5726	15036.6	14088.05
861.7661	1131.524	15028	14084.25
861.911	1133.4748	14963.7	14017.65
862.0559	1135.4248	14920.1	13974.3
862.2008	1137.3741	14897.1	13952.65
862.3457	1139.3226	14842.35	13893.4
862.4905	1141.2705	14798.95	13850.65
862.6354	1143.2176	14701.4	13749.4
862.7803	1145.164	14666.5	13717.75
862.9251	1147.1097	14657.95	13712.5
863.07	1149.0546	14668.55	13719.75
863.2148	1150.9989	14591.5	13642.7
863.3597	1152.9424	14462.2	13513.75
863.5045	1154.8852	14327.25	13379
863.6493	1156.8272	14244.7	13297.7
863.7942	1158.7686	14215.15	13263.15
863.939	1160.7092	14174.05	13225.7
864.0838	1162.6491	14168.55	13218.15
864.2286	1164.5883	14248.6	13302.45
864.3734	1166.5267	14350.9	13402.6
864.5182	1168.4644	14473.2	13525.7
864.663	1170.4014	14645.15	13698
864.8078	1172.3377	14910.15	13966.4
864.9526	1174.2732	15100.9	14159.4
865.0974	1176.2081	15389.75	14444.8
865.2421	1178.1421	15684.15	14736
865.3869	1180.0755	15954.45	15011.75
865.5317	1182.0082	16085.5	15141.8
865.6764	1183.9401	16145.4	15201
865.8212	1185.8713	15981.15	15046.15
865.9659	1187.8017	15732.5	14803.15
866.1106	1189.7315	15487.95	14568.2
866.2554	1191.6605	15135.55	14215.35
866.4001	1193.5888	14947.85	14016.15
866.5448	1195.5163	14846.15	13908.95
866.6895	1197.4432	14745.8	13803.8
866.8342	1199.3693	14717.35	13775.5
866.9789	1201.2947	14658.25	13713
867.1236	1203.2193	14645.55	13704.6
867.2683	1205.1432	14656.65	13715.65
867.413	1207.0664	14651.6	13709.25
867.5576	1208.9889	14669.55	13723.15
867.7023	1210.9106	14685.05	13742.85
867.847	1212.8316	14699.6	13761.2
867.9916	1214.7519	14775.3	13826.6
868.1363	1216.6715	14757.25	13816.6
868.2809	1218.5903	14800.55	13857.9
868.4255	1220.5084	14777.6	13833
868.5701	1222.4257	14813	13868.8
868.7148	1224.3424	14742.55	13804.15
868.8594	1226.2583	14832.9	13890.7
869.004	1228.1735	14941.3	14000.45
869.1486	1230.0879	14996.95	14054.85
869.2932	1232.0016	15125.75	14183.75
869.4377	1233.9146	15176.45	14231.7
869.5823	1235.8269	15067.65	14125.8
869.7269	1237.7384	14981.85	14039.1
869.8715	1239.6492	14800.75	13861.8
870.016	1241.5592	14710	13770
870.1606	1243.4686	14621.25	13680.65
870.3051	1245.3772	14607.4	13668.1
870.4496	1247.285	14620.85	13680.85
870.5941	1249.1922	14636.65	13698.15
870.7387	1251.0986	14667.65	13726.1
870.8832	1253.0042	14675.75	13735.3
871.0277	1254.9092	14700	13760.4
871.1722	1256.8134	14746.2	13808.15
871.3167	1258.7169	14895.7	13954.75
871.4611	1260.6196	15057.2	14117.2
871.6056	1262.5216	15274.35	14334.65
871.7501	1264.4229	15437.65	14501
871.8945	1266.3234	15609.9	14669.3
872.039	1268.2232	15681.75	14740.75
872.1834	1270.1223	15686.8	14745.25
872.3278	1272.0207	15678	14738.65
872.4723	1273.9183	15640.55	14692.9
872.6167	1275.8151	15583.85	14647.85
872.7611	1277.7113	15496.55	14559.2
872.9055	1279.6067	15413.45	14475.7
873.0499	1281.5014	15377.85	14436.7
873.1943	1283.3953	15399.2	14457.7
873.3386	1285.2885	15496.7	14559
873.483	1287.181	15582.85	14647
873.6274	1289.0727	15746.6	14811.25
873.7717	1290.9637	15814.55	14875.4
873.9161	1292.854	15981.3	15043.2
874.0604	1294.7435	16063.7	15123.4
874.2047	1296.6323	16228.1	15288.85
874.349	1298.5204	16361.35	15421.3
874.4933	1300.4077	16514.95	15575.15
874.6376	1302.2943	16608.8	15669.6
874.7819	1304.1802	16616.15	15678.15
874.9262	1306.0653	16390.35	15447.35
875.0705	1307.9497	16194.85	15256.25
875.2147	1309.8333	15971.2	15036
875.359	1311.7162	15860.9	14924.55
875.5032	1313.5984	15821.15	14879.7
875.6475	1315.4798	15836.5	14898.75
875.7917	1317.3605	15881.3	14935.95
875.9359	1319.2405	15915.05	14974.75
876.0801	1321.1197	15829.05	14886.8
876.2243	1322.9982	15658.05	14715.35
876.3685	1324.876	15579.1	14641.15
876.5127	1326.753	15449.95	14513.05
876.6569	1328.6293	15408.25	14469.5
876.801	1330.5048	15397.3	14456.9
876.9452	1332.3796	15264.45	14326.05
877.0893	1334.2537	15280.95	14313.4
877.2335	1336.127	15178.3	14241.75
877.3776	1337.9996	15173.3	14236.05
877.5217	1339.8714	15133.75	14194.85
877.6658	1341.7426	15126.25	14145.5
877.8099	1343.6129	15117.2	14177.15
877.954	1345.4826	15054.3	14114.85
878.0981	1347.3515	15055.3	14113.45
878.2422	1349.2196	14989.3	14047.6
878.3862	1351.087	15022.95	14085.55
878.5303	1352.9537	15079.6	14137.95
878.6743	1354.8197	15185.6	14245.6
878.8184	1356.6849	15336.9	14395.15
878.9624	1358.5493	15375.2	14436.85
879.1064	1360.4131	15478.35	14543.1
879.2504	1362.276	15486.9	14546.55
879.3944	1364.1383	15337.9	14399.9
879.5384	1365.9998	15124.5	14178.6
879.6823	1367.8606	14768.75	13830.9
879.8263	1369.7206	14478.25	13538.5
879.9702	1371.5799	14232.2	13293.65
880.1142	1373.4384	14037.55	13100.55
880.2581	1375.2962	13881.5	12942.05
880.402	1377.1533	13617.1	12682.1
880.5459	1379.0096	13269.15	12334.5
880.6898	1380.8652	12974.45	12041.15
880.8337	1382.7201	12720.6	11788.05
880.9776	1384.5742	12491.4	11553.9
881.1215	1386.4275	12290.3	11351.8
881.2653	1388.2802	12141.3	11203.25
881.4092	1390.132	12023.95	11083
881.553	1391.9832	11969.3	11029.9
881.6968	1393.8336	11868.65	10931.15
881.8406	1395.6832	11810.15	10870.55
881.9844	1397.5322	11795.45	10858.25
882.1282	1399.3803	11757.75	10818.2
882.272	1401.2278	11699.3	10764.4
882.4158	1403.0745	11672.85	10737.05
882.5595	1404.9204	11655.5	10721.6
882.7033	1406.7656	11691	10756.2
882.847	1408.6101	11716.95	10782.35
882.9908	1410.4538	11701.35	10766.75
883.1345	1412.2968	11739.45	10804.2
883.2782	1414.139	11770.35	10834.9
883.4219	1415.9805	11846.6	10911.5
883.5656	1417.8213	11911	10970.75
883.7092	1419.6613	12026.25	11092.55
883.8529	1421.5006	12166.65	11231.95
883.9965	1423.3391	12411.65	11473.85
884.1402	1425.1769	12714.2	11776.7
884.2838	1427.0139	13172.8	12237.1
884.4274	1428.8502	13750.75	12810.45
884.571	1430.6858	14304.1	13371.2
884.7146	1432.5206	14650.75	13718.7
884.8582	1434.3547	14911.4	13977.8
885.0018	1436.188	14922	13987.3
885.1453	1438.0206	14842	13909.6
885.2889	1439.8524	14652.7	13719.35
885.4324	1441.6835	14558.1	13625.35
885.5759	1443.5139	14447.15	13509.6
885.7194	1445.3435	14364.7	13434.7
885.8629	1447.1724	14329.6	13396.75
886.0064	1449.0005	14276.75	13344.05
886.1499	1450.8279	14160.3	13226.8
886.2933	1452.6545	14113	13182.45
886.4368	1454.4804	14162.9	13230.9
886.5802	1456.3056	14146.95	13207.05
886.7237	1458.13	14041.75	13111.55
886.8671	1459.9536	13845.55	12914.7
887.0105	1461.7766	13508.5	12577.45
887.1539	1463.5987	13125.7	12192.55
887.2972	1465.4202	12753.1	11816.75
887.4406	1467.2409	12405.15	11470.95
887.584	1469.0608	12131.45	11197.6
887.7273	1470.88	11875.35	10941.85
887.8706	1472.6984	11631.9	10699.2
888.0139	1474.5161	11443.1	10508.6
888.1572	1476.3331	11248.85	10317.05
888.3005	1478.1493	11149.55	10214.05
888.4438	1479.9648	11019.65	10087.05
888.5871	1481.7795	10923.75	9989.05
888.7303	1483.5935	10891.35	9958.45
888.8736	1485.4067	10810.8	9876.8
889.0168	1487.2192	10728.9	9795
889.16	1489.031	10691.75	9757.25
889.3032	1490.842	10641.1	9708.8
889.4464	1492.6522	10635.15	9703.4
889.5896	1494.4618	10604.2	9668.15
889.7327	1496.2705	10538.25	9608.75
889.8759	1498.0785	10517.35	9584.55
890.019	1499.8858	10468.05	9536.2
890.1622	1501.6924	10430.35	9498.95
890.3053	1503.4981	10400.8	9472.1
890.4484	1505.3032	10357.6	9427.4
890.5914	1507.1075	10350.3	9418.85
890.7345	1508.911	10263.95	9331.9
890.8776	1510.7138	10258.5	9326.4
891.0206	1512.5159	10166.55	9238.25
891.1637	1514.3172	10137.85	9208.4
891.3067	1516.1178	10069.35	9139.15
891.4497	1517.9176	10059.05	9124.55
891.5927	1519.7166	9997	9067.9
891.7357	1521.515	9973.7	9037.8
891.8786	1523.3126	9950.25	9023.85
892.0216	1525.1094	9914.6	8983.5
892.1645	1526.9055	9871.7	8943.45
892.3074	1528.7008	9828.7	8900.95
892.4503	1530.4954	9780.95	8851.5
892.5932	1532.2893	9787.8	8861.55
892.7361	1534.0824	9726	8798.5
892.879	1535.8747	9739.95	8818.25
893.0218	1537.6663	9697.2	8772.05
893.1647	1539.4572	9677.95	8754.1
893.3075	1541.2473	9660.85	8735.55
893.4503	1543.0367	9654.5	8728.1
893.5931	1544.8253	9623.6	8691.9
893.7359	1546.6132	9637.5	8709.8
893.8787	1548.4003	9628.45	8693.3
894.0214	1550.1867	9668.25	8735.1
894.1642	1551.9723	9670.65	8746.25
894.3069	1553.7572	9720.8	8796.85
894.4496	1555.5414	9763.55	8840.15
894.5923	1557.3247	9828.6	8912.1
894.735	1559.1074	9906.75	8987.9
894.8777	1560.8893	9963.2	9047.45
895.0204	1562.6705	10047.15	9128.65
895.163	1564.4509	10133	9214.85
895.3056	1566.2305	10155.5	9241.25
895.4482	1568.0094	10212.9	9298.1
895.5908	1569.7876	10273.35	9358.3
895.7334	1571.565	10265.55	9349.7
895.876	1573.3417	10259.2	9342.45
896.0186	1575.1176	10254.1	9336.8
896.1611	1576.8928	10202.4	9287.25
896.3036	1578.6672	10119.25	9212.35
896.4461	1580.4409	10025.65	9119.45
896.5886	1582.2138	9944.6	9031.45
896.7311	1583.986	9873.1	8957.95
896.8736	1585.7575	9834.55	8921.75
897.0161	1587.5282	9753.95	8844.1
897.1585	1589.2981	9751.55	8843.65
897.3009	1591.0673	9731.55	8822.05
897.4433	1592.8358	9737	8826.25
897.5857	1594.6035	9795.1	8880.75
897.7281	1596.3704	9808.45	8894.2
897.8705	1598.1366	9841	8927.25
898.0128	1599.9021	9869.05	8956.7
898.1551	1601.6668	9921.25	9008.9
898.2975	1603.4308	10012	9098.65
898.4398	1605.194	10153.85	9234.6
898.5821	1606.9564	10263.3	9356.05
898.7243	1608.7182	10404.55	9500.85
898.8666	1610.4791	10563.55	9665.6
899.0088	1612.2394	10746	9850.55
899.1511	1613.9988	10916.2	10017.05
899.2933	1615.7576	11140.5	10231.65
899.4355	1617.5156	11364.3	10449.25
899.5776	1619.2728	11521.75	10605.4
899.7198	1621.0293	11590.5	10678.2
899.862	1622.785	11575.3	10665.65
900.0041	1624.54	11445.8	10539.05
900.1462	1626.2942	11273.95	10371.25
900.2883	1628.0477	11005.35	10097.8
900.4304	1629.8005	10754.15	9846.75
900.5725	1631.5525	10545.6	9642.6
900.7145	1633.3037	10358.85	9456.3
900.8566	1635.0542	10215.1	9313.3
900.9986	1636.804	10099.45	9195.75
901.1406	1638.553	10067.6	9102.7
901.2826	1640.3013	9999.35	9096.05
901.4245	1642.0488	9967.25	9060.85
901.5665	1643.7955	9978.9	9078.75
901.7085	1645.5416	10021.9	9117.9
901.8504	1647.2868	10108.05	9206.65
901.9923	1649.0313	10194.65	9286.05
902.1342	1650.7751	10366.95	9459.55
902.2761	1652.5181	10525.45	9622.95
902.4179	1654.2604	10675.05	9775.95
902.5598	1656.0019	10919.1	10018
902.7016	1657.7427	11202.85	10300.55
902.8434	1659.4828	11487.05	10582.35
902.9852	1661.222	11664.25	10758
903.127	1662.9606	11645.2	10740
903.2687	1664.6984	11431.95	10526
903.4105	1666.4354	11035.3	10125.5
903.5522	1668.1717	10533.05	9622.65
903.6939	1669.9072	9969.9	9061.35
903.8356	1671.642	9562.9	8652.4
903.9773	1673.3761	9181.75	8276.6
904.119	1675.1094	8878.85	7975.4
904.2606	1676.8419	8666.85	7764.45
904.4022	1678.5737	8496.15	7590.9
904.5439	1680.3048	8345.65	7439.1
904.6855	1682.0351	8240	7333.9
904.827	1683.7646	8124.9	7215.55
904.9686	1685.4934	8022.8	7117.4
905.1101	1687.2215	7977	7073.35
905.2517	1688.9488	7880.75	6976.55
905.3932	1690.6754	7816.75	6914
905.5347	1692.4012	7801.8	6895.2
905.6761	1694.1263	7731.2	6826.85
905.8176	1695.8506	7716	6810.65
905.9591	1697.5742	7677.6	6778.15
906.1005	1699.297	7629.35	6731.7
906.2419	1701.0191	7572.6	6675.1
906.3833	1702.7404	7549.25	6652.2
906.5246	1704.461	7493	6590.05
906.666	1706.1808	7454.2	6552.2
906.8073	1707.8999	7450.55	6549.6
906.9487	1709.6182	7391.4	6493.5
907.09	1711.3358	7358.15	6464.35
907.2313	1713.0527	7337.55	6443.3
907.3725	1714.7688	7292.15	6391.15
907.5138	1716.4841	7291.15	6390.75
907.655	1718.1987	7264.6	6361.5
907.7962	1719.9126	7222.55	6326.45
907.9374	1721.6257	7218.6	6321.65
908.0786	1723.338	7192.15	6299.15
908.2198	1725.0496	7148.8	6252.9
908.3609	1726.7605	7134.45	6238.25
908.502	1728.4706	7114.65	6215.4
908.6431	1730.18	7086.7	6190.1
908.7842	1731.8886	7056.2	6163.5
908.9253	1733.5964	7052.45	6137.55
909.0664	1735.3036	7018.15	6118.6
909.2074	1737.0099	7007.65	6112.4
909.3484	1738.7156	6959.4	6066.6
909.4894	1740.4204	6929.85	6032.1
909.6304	1742.1246	6903.55	6005.4
909.7714	1743.8279	6904.4	6007.3
909.9123	1745.5306	6872.45	5978.15
910.0532	1747.2325	6846.05	5952.5
910.1941	1748.9336	6812.25	5917.3
910.335	1750.634	6802.15	5905.05
910.4759	1752.3336	6790.75	5896.35
910.6168	1754.0325	6761.65	5873.75
910.7576	1755.7307	6756.1	5864.15
910.8984	1757.4281	6752.1	5859.3
911.0392	1759.1247	6736.05	5830.75
911.18	1760.8206	6725.65	5824.45
911.3208	1762.5158	6695	5792.3
911.4615	1764.2102	6665.95	5768.95
911.6022	1765.9039	6622.4	5726.7
911.7429	1767.5968	6609.35	5718.9
911.8836	1769.289	6603.15	5710.95
912.0243	1770.9804	6589.75	5693.95
912.1649	1772.6711	6586.55	5688.15
912.3056	1774.361	6573.9	5675.9
912.4462	1776.0502	6550.85	5653.8
912.5868	1777.7386	6546.3	5645.15
912.7274	1779.4263	6526.15	5630.75
912.8679	1781.1132	6509.85	5616.8
913.0084	1782.7994	6492.6	5601.2
913.149	1784.4849	6472.05	5581.45
913.2895	1786.1696	6473.15	5575.45
913.4299	1787.8535	6452.25	5561.4
913.5704	1789.5367	6425.75	5534.8
913.7108	1791.2192	6431.65	5539.5
913.8513	1792.9009	6401.25	5482.35
913.9917	1794.5818	6392.4	5496.6
914.132	1796.2621	6354.75	5460.05
914.2724	1797.9415	6350.4	5453.25
914.4128	1799.6202	6348.1	5451.75
914.5531	1801.2982	6327.4	5430.1
914.6934	1802.9755	6321.1	5425.7
914.8337	1804.6519	6307.6	5414.95
914.9739	1806.3277	6267.9	5374.95
915.1142	1808.0027	6239.95	5349.7
915.2544	1809.6769	6223.9	5335.5
915.3946	1811.3504	6213.45	5323.75
915.5348	1813.0231	6201	5311.9
915.675	1814.6951	6196.4	5306.6
915.8151	1816.3664	6186.65	5291.75
915.9553	1818.0369	6174.3	5283.65
916.0954	1819.7067	6175.5	5280.65
916.2355	1821.3757	6173.35	5279.7
916.3755	1823.044	6143.45	5250.2
916.5156	1824.7115	6124.6	5229.7
916.6556	1826.3783	6097.55	5205.15
916.7956	1828.0443	6090.25	5197.65
916.9356	1829.7096	6094	5200.25
917.0756	1831.3741	6084.65	5188.65
917.2155	1833.0379	6061.05	5169.7
917.3555	1834.701	6040.35	5150.45
917.4954	1836.3633	6033.15	5140.8
917.6353	1838.0248	6012.65	5122.45
917.7751	1839.6856	5989.95	5099.1
917.915	1841.3457	5996.05	5104.3
918.0548	1843.005	6005.65	5111.4
918.1946	1844.6636	5984.9	5090.9
918.3344	1846.3214	5969.9	5077.75
918.4742	1847.9785	5943.05	5052
918.6139	1849.6349	5956.5	5059.7
918.7537	1851.2904	5952.9	5047.1
918.8934	1852.9453	5910.45	5014.95
919.0331	1854.5994	5897.65	5001.6
919.1727	1856.2528	5922.1	5023.55
919.3124	1857.9054	5889.55	4996.05
919.452	1859.5572	5863.65	4974.1
919.5916	1861.2083	5865.8	4971.7
919.7312	1862.8587	5866.85	4972.25
919.8708	1864.5084	5840.4	4944.9
920.0103	1866.1572	5827.9	4931.6
920.1498	1867.8054	5798	4904.1
920.2893	1869.4528	5788.15	4894.1
920.4288	1871.0994	5782.95	4885.7
920.5683	1872.7453	5767.05	4871.95
920.7077	1874.3905	5769.2	4858.3
920.8471	1876.0349	5759.35	4867.1
920.9865	1877.6786	5739.1	4846.7
921.1259	1879.3215	5727.65	4834.25
921.2653	1880.9637	5733	4838.85
921.4046	1882.6051	5710.4	4819.55
921.5439	1884.2458	5690.15	4796.05
921.6832	1885.8858	5669.95	4777.1
921.8225	1887.525	5657.45	4762.75
921.9617	1889.1634	5631.65	4737.85
922.101	1890.8011	5638.2	4743.35
922.2402	1892.4381	5619.6	4725.7
922.3794	1894.0743	5603.85	4711.7
922.5185	1895.7098	5560.6	4666.9
922.6577	1897.3446	5588.05	4693.55
922.7968	1898.9786	5555.5	4659.6
922.9359	1900.6118	5538.7	4646.95
923.075	1902.2443	5536.2	4641.5
923.214	1903.8761	5531.35	4637.85
923.3531	1905.5071	5509.75	4615.65
923.4921	1907.1374	5485	4593
923.6311	1908.7669	5482.3	4588.25
923.77	1910.3957	5473.7	4581.8
923.909	1912.0237	5427.1	4537.4
924.0479	1913.651	5423.9	4533.6
924.1868	1915.2776	5432.3	4541
924.3257	1916.9034	5387.35	4500
924.4646	1918.5285	5363.3	4472.8
924.6034	1920.1528	5344.6	4453.85
924.7422	1921.7764	5347.05	4454.45
924.881	1923.3992	5336.1	4444.5
925.0198	1925.0213	5300.8	4410.65
925.1586	1926.6427	5280	4389.75
925.2973	1928.2633	5433.6	4339.6
925.436	1929.8832	5288.8	4393.1
925.5747	1931.5023	5246.8	4352.8
925.7134	1933.1207	5229.05	4337.15
925.852	1934.7383	5225.85	4334.1
925.9906	1936.3552	5206.2	4315.35
926.1292	1937.9714	5185.9	4294.4
926.2678	1939.5868	5180.6	4285.95
926.4064	1941.2015	5158.25	4263.4
926.5449	1942.8154	5136.05	4245.15
926.6834	1944.4286	5116.5	4224.95
926.8219	1946.041	5113.95	4198.75
926.9604	1947.6528	5086.15	4186.05
927.0988	1949.2637	5092.55	4202.5
927.2372	1950.8739	5068.3	4175.7
927.3756	1952.4834	5055.3	4164.7
927.514	1954.0921	5036.25	4144.25
927.6523	1955.7001	5005.8	4110.9
927.7907	1957.3074	5002	4116.65
927.929	1958.9139	4979.7	4093.8
928.0673	1960.5197	4971.1	4083.25
928.2055	1962.1247	4944.75	4056.65
928.3438	1963.729	4918.85	4031.95
928.482	1965.3325	4907.05	4013
928.6202	1966.9353	4902.5	4018.65
928.7584	1968.5374	4893.95	4004.6
928.8965	1970.1387	4878.6	3991.8
929.0346	1971.7393	4845.35	3958.15
929.1727	1973.3392	4855.6	3968.8
929.3108	1974.9383	4832.25	3945.5
929.4489	1976.5366	4808.1	3921.9
929.5869	1978.1342	4789.15	3902.35
929.7249	1979.7311	4787.75	3902.35
929.8629	1981.3273	4772.55	3887.25
930.0009	1982.9227	4755.35	3870.4
930.1388	1984.5173	4754.75	3871.7
930.2767	1986.1112	4721.45	3837
930.4146	1987.7044	4726.6	3842.8
930.5525	1989.2968	4706.9	3821
930.6904	1990.8885	4710.05	3821.7
930.8282	1992.4795	4678.65	3795.8
930.966	1994.0697	4674.8	3793.55
931.1038	1995.6592	4661.4	3776.8
931.2415	1997.2479	4653.35	3768.7
931.3793	1998.8359	4634.65	3752.45
931.517	2000.4232	4619.75	3739.15
931.6547	2002.0097	4609.95	3732.35
931.7923	2003.5955	4599.15	3719.25
931.93	2005.1805	4585.5	3702.15
932.0676	2006.7648	4578.2	3696.95
932.2052	2008.3484	4567.35	3683
932.3427	2009.9312	4572.95	3690.8
932.4803	2011.5133	4542.9	3664.95
932.6178	2013.0946	4523.65	3642.2
932.7553	2014.6752	4519.4	3641.4
932.8928	2016.2551	4492.55	3608.1
933.0302	2017.8342	4494.25	3610.95
933.1676	2019.4126	4488.85	3609.45
933.305	2020.9902	4471.55	3592.1
933.4424	2022.5672	4455.85	3578.05
933.5798	2024.1433	4444.65	3563.35
933.7171	2025.7188	4438.65	3561.85
933.8544	2027.2935	4428.65	3551.2
933.9917	2028.8674	4424.5	3544.2
934.129	2030.4406	4397.85	3521.4
934.2662	2032.0131	4382.75	3506.5
934.4034	2033.5849	4367.75	3483.95
934.5406	2035.1559	4368.85	3492.25
934.6778	2036.7261	4360.3	3480.25
934.8149	2038.2957	4363.65	3480.95
934.952	2039.8645	4341.25	3456.75
935.0891	2041.4325	4338.95	3452.5
935.2262	2042.9998	4318.85	3439.1
935.3632	2044.5664	4323.35	3441.75
935.5002	2046.1323	4326.85	3448.55
935.6372	2047.6974	4297.95	3419.65
935.7742	2049.2617	4280.75	3401.8
935.9111	2050.8254	4301.3	3388.9
936.048	2052.3883	4276	3389.9
936.1849	2053.9504	4263.1	3378.05
936.3218	2055.5118	4264.1	3378.6
936.4586	2057.0725	4238.9	3353
936.5955	2058.6325	4239.05	3354.8
936.7323	2060.1917	4235.85	3354.1
936.869	2061.7502	4231	3345.65
937.0058	2063.3079	4188.75	3309.1
937.1425	2064.8649	4186.55	3300.35
937.2792	2066.4212	4177.55	3294.8
937.4159	2067.9767	4168.05	3286.05
937.5525	2069.5315	4163.95	3280.85
937.6891	2071.0856	4145.35	3265.2
937.8257	2072.6389	4112.95	3230.55
937.9623	2074.1915	4103.85	3227.25
938.0989	2075.7433	4087.3	3205.7
938.2354	2077.2945	4081.6	3202.4
938.3719	2078.8448	4071.85	3189.65
938.5084	2080.3945	4060.65	3177.3
938.6448	2081.9434	4063.05	3180.8
938.7812	2083.4916	4052.9	3168
938.9176	2085.039	4041.2	3152.15
939.054	2086.5857	4041.15	3149.65
939.1903	2088.1317	4032.25	3142.5
939.3267	2089.677	4017.15	3128.3
939.463	2091.2215	4006.6	3117.7
939.5992	2092.7652	4005.5	3111.7
939.7355	2094.3083	3994.25	3105.4
939.8717	2095.8506	3981	3094.5
940.0079	2097.3921	3981.45	3097.35
940.1441	2098.933	3974.35	3089.25
940.2802	2100.4731	3951.35	3066.85
940.4163	2102.0124	3965.75	3072.2
940.5524	2103.5511	3958.15	3069.95
940.6885	2105.089	3963.45	3077.85
940.8245	2106.6261	3935.95	3050.55
940.9606	2108.1626	3928.55	3043.25
941.0965	2109.6983	3938.9	3026.7
941.2325	2111.2332	3922.8	3037.05
941.3684	2112.7675	3896.2	3009.85
941.5044	2114.301	3880.5	2992.1
941.6403	2115.8337	3880.15	2992.6
941.7761	2117.3657	3887.45	3004.85
941.912	2118.897	3876.1	2989.5
942.0478	2120.4276	3867.2	2973.95
942.1835	2121.9575	3855	2967.45
942.3193	2123.4866	3842.55	2953.05
942.455	2125.0149	3845.95	2958.6
942.5907	2126.5426	3796.65	2913.15
942.7264	2128.0695	3801.9	2917.8
942.8621	2129.5956	3791.2	2912.6
942.9977	2131.1211	3796.4	2910.25
943.1333	2132.6458	3786.85	2904.45
943.2689	2134.1698	3774.5	2887.25
943.4044	2135.693	3776.9	2885.9
943.54	2137.2155	3755.85	2863.05
943.6755	2138.7373	3759.35	2873.15
943.8109	2140.2584	3736.05	2853.8
943.9464	2141.7787	3737.8	2851.05
944.0818	2143.2983	3716.7	2838.8
944.2172	2144.8171	3695.35	2816.15
944.3526	2146.3353	3698.45	2814.55
944.4879	2147.8527	3686.2	2806.95
944.6232	2149.3693	3692.1	2803.4
944.7585	2150.8853	3685.05	2796.15
944.8938	2152.4005	3661.75	2774.95
945.029	2153.9149	3676.8	2786.85
945.1642	2155.4287	3651.35	2765.25
945.2994	2156.9417	3652.1	2764.15
945.4346	2158.454	3635.6	2748.3
945.5697	2159.9655	3621.55	2740
945.7048	2161.4764	3625.8	2743
945.8399	2162.9865	3611.05	2728.65
945.9749	2164.4958	3611.3	2729
946.1099	2166.0045	3596.3	2712.2
946.2449	2167.5124	3577.45	2694.5
946.3799	2169.0195	3594.75	2708.1
946.5148	2170.526	3591.35	2704
946.6498	2172.0317	3568.8	2681.55
946.7846	2173.5367	3567.6	2682.85
946.9195	2175.0409	3555.9	2671.15
947.0543	2176.5445	3559.6	2675.1
947.1891	2178.0473	3557.15	2667.5
947.3239	2179.5494	3529.65	2639.45
947.4587	2181.0507	3529.45	2642.25
947.5934	2182.5513	3522	2636.9
947.7281	2184.0512	3528.5	2641.2
947.8628	2185.5504	3486.65	2601
947.9974	2187.0488	3489.15	2603.55
948.132	2188.5465	3481.7	2599.45
948.2666	2190.0435	3476.75	2592.7
948.4012	2191.5397	3468.05	2580.3
948.5357	2193.0353	3459.35	2573.7
948.6702	2194.5301	3434.35	2545.55
948.8047	2196.0241	3423.65	2531.35
948.9392	2197.5175	3430.45	2539.3
949.0736	2199.0101	3423.7	2531.1
949.208	2200.502	3405.85	2517.45
949.3424	2201.9931	3407.95	2525.8
949.4767	2203.4835	3384.85	2500.3
949.611	2204.9733	3394.85	2505.8
949.7453	2206.4622	3375.4	2491.4
949.8796	2207.9505	3365.35	2481.1
950.0138	2209.438	3347.45	2470.15
950.148	2210.9248	3334.95	2451.35
950.2822	2212.4109	3339.8	2455.8
950.4164	2213.8962	3323.3	2433.4
950.5505	2215.3809	3337.75	2447.6
950.6846	2216.8648	3322.45	2432.05
950.8186	2218.3479	3312.75	2415.45
950.9527	2219.8304	3305.65	2408.55
951.0867	2221.3121	3287.55	2393.45
951.2207	2222.7931	3277.1	2388.1
951.3546	2224.2733	3274.55	2386.65
951.4886	2225.7529	3261.45	2372.7
951.6225	2227.2317	3251.5	2365.25
951.7563	2228.7098	3258.15	2373.5
951.8902	2230.1872	3242.65	2361.1
952.024	2231.6638	3241.05	2360
952.1578	2233.1397	3244.35	2355
952.2916	2234.6149	3224.85	2341.75
952.4253	2236.0894	3205.95	2322.1
952.559	2237.5632	3222.65	2328.25
952.6927	2239.0362	3195.6	2311.1
952.8263	2240.5085	3190.55	2305.95
952.9599	2241.9801	3186.75	2300.45
953.0935	2243.4509	3167.7	2279.75
953.2271	2244.921	3163.55	2271.95
953.3606	2246.3904	3156.75	2265.55
953.4941	2247.8591	3148.15	2260.65
953.6276	2249.3271	3132.25	2243.95
953.7611	2250.7943	3128.6	2239.35
953.8945	2252.2608	3121.85	2232.9
954.0279	2253.7266	3114.6	2226.45
954.1612	2255.1917	3115.25	2227.45
954.2946	2256.656	3103.35	2214.55
954.4279	2258.1197	3090.75	2208
954.5612	2259.5826	3079.15	2189.8
954.6944	2261.0447	3089.15	2202.45
954.8276	2262.5062	3075.95	2186.55
954.9608	2263.9669	3065.9	2174.45
955.094	2265.4269	3078.95	2191.75
955.2271	2266.8862	3053.8	2167.8
955.3602	2268.3448	3057.4	2171.65
955.4933	2269.8026	3042.75	2158.15
955.6264	2271.2598	3036.2	2150.4
955.7594	2272.7162	3020	2135.9
955.8924	2274.1719	3019.4	2133.65
956.0253	2275.6268	3034.35	2145.1
956.1583	2277.0811	3026.65	2137.3
956.2912	2278.5346	3010.05	2124.3
956.4241	2279.9874	3006.4	2123.1
956.5569	2281.4395	2999.7	2117.65
956.6897	2282.8908	3007.15	2117.6
956.8225	2284.3414	3000.45	2110.95
956.9553	2285.7914	2981.15	2095.8
957.088	2287.2406	2972.95	2083.55
957.2207	2288.689	2970	2079.2
957.3534	2290.1368	2970.25	2076.4
957.486	2291.5838	2965.35	2069.7
957.6186	2293.0302	2969.15	2074.35
957.7512	2294.4758	2942.6	2052.2
957.8838	2295.9206	2945.2	2055.4
958.0163	2297.3648	2936.55	2053.4
958.1488	2298.8082	2927.5	2040.3
958.2813	2300.251	2915.3	2027.9
958.4137	2301.693	2931.95	2039.75
958.5461	2303.1343	2916.35	2023.8
958.6785	2304.5748	2906.05	2017.65
958.8108	2306.0147	2897.5	2011.2
958.9432	2307.4538	2892.5	2007.3
959.0754	2308.8922	2886.55	2008.4
959.2077	2310.3299	2871.45	1985.95
959.3399	2311.7669	2877.1	1992.75
959.4721	2313.2031	2859.45	1973.6
959.6043	2314.6387	2856.3	1968.05
959.7365	2316.0735	2852.7	1964.75
959.8686	2317.5076	2844.05	1955.35
960.0006	2318.941	2842.05	1953.85
960.1327	2320.3737	2844.5	1954.6
960.2647	2321.8056	2826.65	1932.9
960.3967	2323.2369	2816.5	1929.45
960.5287	2324.6674	2820.15	1930.7
960.6606	2326.0972	2807.25	1919.35
960.7925	2327.5263	2803.65	1918.1
960.9244	2328.9547	2801.95	1914.5
961.0562	2330.3823	2797.75	1907.9
961.1881	2331.8092	2794.95	1901.55
961.3198	2333.2355	2783.25	1890.95
961.4516	2334.661	2787.65	1899.3
961.5833	2336.0858	2780.55	1888.05
961.715	2337.5098	2777.85	1889.75
961.8467	2338.9332	2761.15	1872.65
961.9783	2340.3558	2748.95	1857.6
962.1099	2341.7778	2754.1	1870.15
962.2415	2343.199	2734.8	1847.4
962.373	2344.6195	2748.05	1862.05
962.5045	2346.0393	2737.15	1849.35
962.636	2347.4583	2725.85	1838.8
962.7675	2348.8767	2726.2	1836.9
962.8989	2350.2943	2724.75	1833.85
963.0303	2351.7113	2716.9	1825
963.1617	2353.1275	2727.1	1835.1
963.293	2354.543	2725.55	1827.6
963.4243	2355.9578	2708.2	1819.3
963.5556	2357.3718	2694.1	1807.5
963.6868	2358.7852	2681.5	1795.4
963.818	2360.1978	2666.55	1780.6
963.9492	2361.6098	2659.55	1774.2
964.0803	2363.021	2663.25	1772.1
964.2114	2364.4315	2663.65	1775.35
964.3425	2365.8413	2653.5	1767.45
964.4736	2367.2504	2656.05	1772.05
964.6046	2368.6587	2637.85	1754.3
964.7356	2370.0664	2632.2	1747.5
964.8666	2371.4733	2631.2	1744.75
964.9975	2372.8795	2639.3	1754.3
965.1284	2374.285	2616.7	1731.95
965.2593	2375.6899	2597.55	1714.3
965.3901	2377.0939	2596.9	1713.5
965.5209	2378.4973	2579.85	1695.55
965.6517	2379.9	2581.3	1696.2
965.7825	2381.3019	2584.65	1702.35
965.9132	2382.7032	2566.75	1684.7
966.0439	2384.1037	2566.25	1686.85
966.1745	2385.5035	2564.55	1682.8
966.3051	2386.9027	2552	1673.35
966.4357	2388.3011	2561.15	1673.15
966.5663	2389.6987	2552.4	1669.05
966.6968	2391.0957	2548.95	1665.6
966.8273	2392.492	2543.75	1660.75
966.9578	2393.8876	2535.85	1651.3
967.0882	2395.2824	2523.55	1640.85
967.2186	2396.6765	2512.8	1629.2
967.349	2398.07	2507.5	1623.4
967.4793	2399.4627	2505.8	1620.9
967.6097	2400.8547	2510.35	1625.4
967.7399	2402.246	2492.55	1602
967.8702	2403.6366	2476.25	1590.65
968.0004	2405.0265	2471.85	1591.9
968.1306	2406.4156	2476.4	1590.6
968.2607	2407.8041	2461.2	1575.65
968.3909	2409.1918	2461.75	1574.8
968.521	2410.5789	2460.1	1577.4
968.651	2411.9652	2460.4	1572.95
968.781	2413.3508	2449.05	1564.1
968.911	2414.7358	2441	1556.75
969.041	2416.12	2432.65	1552.45
969.1709	2417.5035	2441.9	1557.35
969.3008	2418.8863	2429.75	1549
969.4307	2420.2684	2425.15	1541.85
969.5606	2421.6497	2413.4	1528.15
969.6904	2423.0304	2397.5	1514.9
969.8201	2424.4104	2394.65	1509.15
969.9499	2425.7896	2402.3	1512.05
970.0796	2427.1682	2395.6	1513.5
970.2093	2428.546	2387.9	1502.25
970.3389	2429.9232	2386	1499.55
970.4685	2431.2996	2383.35	1500
970.5981	2432.6753	2375.9	1493.8
970.7277	2434.0503	2371.2	1486.3
970.8572	2435.4246	2358.55	1473.1
970.9867	2436.7982	2351.25	1465.15
971.1161	2438.1711	2360.7	1476.75
971.2456	2439.5433	2359.1	1473.55
971.375	2440.9148	2345.6	1455.3
971.5043	2442.2856	2335.7	1451.25
971.6336	2443.6557	2336.75	1452.2
971.7629	2445.025	2334.35	1450.55
971.8922	2446.3937	2327.9	1443.55
972.0214	2447.7617	2328.65	1444.85
972.1506	2449.1289	2327.4	1442.1
972.2798	2450.4955	2324.9	1436.2
972.4089	2451.8613	2309.95	1425.15
972.538	2453.2265	2306.5	1424.15
972.6671	2454.5909	2300.9	1415.8
972.7961	2455.9546	2295.2	1411.35
972.9251	2457.3177	2290.4	1407.35
973.0541	2458.68	2294.45	1406.35
973.1831	2460.0416	2287.55	1403
973.312	2461.4025	2291.1	1405.6
973.4408	2462.7627	2295.9	1400.85
973.5697	2464.1222	2272.65	1389.2
973.6985	2465.4811	2272.85	1391.25
973.8273	2466.8392	2257.05	1372.65
973.956	2468.1966	2273.1	1387.3
974.0847	2469.5533	2261.75	1373.05
974.2134	2470.9093	2260.05	1375.35
974.3421	2472.2645	2244.85	1360.2
974.4707	2473.6191	2250.85	1365.85
974.5993	2474.973	2245.4	1360.95
974.7278	2476.3262	2246.1	1359.15
974.8563	2477.6787	2243.75	1358.15
974.9848	2479.0305	2232.35	1350.6
975.1132	2480.3816	2227.05	1338.85
975.2417	2481.7319	2216	1333.05
975.37	2483.0816	2203.5	1314
975.4984	2484.4306	2221.65	1334.05
975.6267	2485.7789	2212.95	1330
975.755	2487.1264	2210.85	1324.6
975.8833	2488.4733	2189.15	1308.8
976.0115	2489.8195	2198.15	1307.3
976.1397	2491.165	2192.75	1306.5
976.2678	2492.5097	2181.2	1297.5
976.3959	2493.8538	2186.1	1303.6
976.524	2495.1972	2168.45	1281.7
976.6521	2496.5398	2163.15	1274.85
976.7801	2497.8818	2161.95	1272.55
976.9081	2499.2231	2161.7	1274.8
977.036	2500.5637	2167.4	1280.05
977.164	2501.9035	2150.65	1263.4
977.2918	2503.2427	2146.3	1258.8
977.4197	2504.5812	2146.75	1260.45
977.5475	2505.919	2144.8	1257.95
977.6753	2507.256	2137.4	1249.45
977.8031	2508.5924	2129.1	1245
977.9308	2509.9281	2126.15	1234.95
978.0585	2511.2631	2125.6	1241
978.1861	2512.5974	2128.45	1243.85
978.3137	2513.9309	2124.6	1239.95
978.4413	2515.2638	2137.45	1222.3
978.5689	2516.596	2114.4	1229.8
978.6964	2517.9275	2107.3	1218.65
978.8239	2519.2583	2100.7	1218.05
978.9513	2520.5884	2096.4	1209.15
979.0788	2521.9178	2083.65	1196.45
979.2062	2523.2465	2078.75	1196.1
979.3335	2524.5745	2076.35	1191.55
979.4608	2525.9018	2085.5	1201.05
979.5881	2527.2284	2076.95	1193
979.7154	2528.5543	2075.65	1190.85
979.8426	2529.8796	2063.35	1178.7
979.9698	2531.2041	2066.5	1180.4
980.0969	2532.5279	2065.3	1182.75
980.224	2533.851	2068.8	1185.35
980.3511	2535.1735	2065.55	1181.75
980.4781	2536.4952	2062.85	1176.75
980.6052	2537.8163	2056.7	1170.55
980.7321	2539.1366	2051.15	1167.5
980.8591	2540.4562	2046.9	1159.3
980.986	2541.7752	2050.05	1165.6
981.1129	2543.0935	2048.65	1162.45
981.2397	2544.411	2044.45	1156.8
981.3665	2545.7279	2042.35	1157.35
981.4933	2547.0441	2039.3	1154.75
981.62	2548.3596	2044.05	1155.45
981.7467	2549.6744	2028.8	1145.2
981.8734	2550.9885	2016.95	1128.55
982.0001	2552.3019	2024.55	1138.15
982.1267	2553.6146	2013.8	1129.95
982.2532	2554.9266	2017.1	1129.4
982.3798	2556.2379	2016.55	1129.95
982.5063	2557.5485	2009.35	1126.05
982.6327	2558.8585	2011.85	1117.45
982.7592	2560.1677	2004.1	1115.55
982.8856	2561.4762	1998.75	1111.95
983.0119	2562.7841	2004.6	1117.55
983.1383	2564.0913	1990.85	1105.6
983.2646	2565.3977	1986.2	1100.9
983.3908	2566.7035	1988.65	1102.85
983.517	2568.0086	1996.65	1106.95
983.6432	2569.313	1983.05	1095.3
983.7694	2570.6167	1989.3	1101.15
983.8955	2571.9197	1979.1	1091.15
984.0216	2573.222	1978.8	1090.45
984.1476	2574.5236	1979.7	1093.6
984.2737	2575.8246	1979.25	1093.15
984.3996	2577.1248	1986.35	1098.75
984.5256	2578.4244	1969.6	1084.25
984.6515	2579.7232	1974	1088.15
984.7774	2581.0214	2010.55	1090.9
984.9032	2582.3189	1969.7	1084.3
985.029	2583.6157	1975.15	1083.45
985.1548	2584.9118	1964.35	1077.55
985.2806	2586.2072	1956.45	1071.55
985.4063	2587.5019	1958.25	1071.6
985.5319	2588.7959	1952.95	1068.65
985.6576	2590.0893	1975.2	1088.45
985.7832	2591.3819	1957.1	1072.5
985.9087	2592.6739	1954.8	1070.95
986.0343	2593.9652	1953.95	1065.3
986.1597	2595.2557	1955.5	1071.6
986.2852	2596.5456	1955.65	1068.05
986.4106	2597.8348	1953.25	1066.1
986.536	2599.1234	1944.05	1059.25
986.6614	2600.4112	1952.15	1067.2
986.7867	2601.6983	1952.95	1065.05
986.912	2602.9848	1946.1	1059.3
987.0372	2604.2705	1938.75	1045.15
987.1624	2605.5556	1936.4	1050.15
987.2876	2606.84	1936.35	1050.95
987.4128	2608.1237	1929.45	1043.1
987.5379	2609.4067	1922.05	1036.65
987.6629	2610.689	1930.9	1037.7
987.788	2611.9707	1922.6	1034
987.913	2613.2516	1913.55	1023.8
988.0379	2614.5319	1904.8	1019.35
988.1629	2615.8115	1897.55	1011.2
988.2878	2617.0903	1902.05	1013.65
988.4126	2618.3685	1893.65	1008.95
988.5375	2619.6461	1895.15	1010.65
988.6622	2620.9229	1898.75	1014.1
988.787	2622.199	1894.45	1006.9
988.9117	2623.4745	1883.1	997.4
989.0364	2624.7493	1888.35	1002
989.161	2626.0234	1877.85	995.9
989.2857	2627.2968	1884.15	998.9
989.4102	2628.5695	1886.25	1000.1
989.5348	2629.8415	1869.6	985.95
989.6593	2631.1128	1877.25	991.45
989.7837	2632.3835	1876.35	989.85
989.9082	2633.6535	1863.55	981.05
990.0326	2634.9228	1857.1	971.9
990.1569	2636.1914	1863	979.9
990.2812	2637.4593	1866.85	980.15
990.4055	2638.7265	1858.15	972.1
990.5298	2639.9931	1856.05	972.2
990.654	2641.259	1854.95	970.25
990.7782	2642.5242	1852.25	965.7
990.9023	2643.7887	1850.8	966.35
991.0264	2645.0525	1839.05	954.1
991.1505	2646.3156	1839.75	953.55
991.2745	2647.5781	1828.8	946.55
991.3985	2648.8398	1827.35	943.5
991.5225	2650.1009	1831.95	938.5
991.6464	2651.3613	1831.55	947.7
991.7703	2652.6211	1823.75	938.6
991.8942	2653.8801	1822.1	940.25
992.018	2655.1385	1823.6	935.65
992.1418	2656.3961	1820.8	937.35
992.2655	2657.6531	1816.8	934.7
992.3892	2658.9094	1816.35	930.35
992.5129	2660.1651	1819.75	935.1
992.6366	2661.42	1808.9	924.15
992.7602	2662.6743	1810.5	924.75
992.8837	2663.9279	1808.45	926.1
993.0073	2665.1808	1812.3	925.55
993.1307	2666.433	1807.25	922.8
993.2542	2667.6846	1814.05	928.95
993.3776	2668.9354	1814.45	927.5
993.501	2670.1856	1806.85	920.25
993.6244	2671.4351	1808.25	922.8
993.7477	2672.6839	1821.75	935.15
993.8709	2673.9321	1809.4	923.9
993.9942	2675.1795	1812.35	925.8
994.1174	2676.4263	1807.75	923.9
994.2405	2677.6724	1811.5	929.05
994.3637	2678.9179	1811.05	928.05
994.4868	2680.1626	1809.95	926
994.6098	2681.4067	1811.05	925.6
994.7328	2682.6501	1807.75	925.2
994.8558	2683.8928	1813.15	927.85
994.9788	2685.1348	1801.75	918.4
995.1017	2686.3761	1795.35	909.6
995.2245	2687.6168	1789.35	903.5
995.3474	2688.8568	1787.3	902.15
995.4702	2690.0961	1776.95	895
995.5929	2691.3348	1781.35	895.55
995.7156	2692.5727	1778.15	895.2
995.8383	2693.81	1763.45	879.5
995.961	2695.0466	1760.15	878.75
996.0836	2696.2826	1764.65	880.7
996.2062	2697.5178	1768.1	879.85
996.3287	2698.7524	1769.45	883
996.4512	2699.9863	1776.7	891.35
996.5737	2701.2195	1766.25	883.2
996.6961	2702.452	1756.1	872.6
996.8185	2703.6839	1779.2	892.65
996.9408	2704.9151	1775.4	892.4
997.0631	2706.1456	1771.9	888.05
997.1854	2707.3755	1788.1	905.5
997.3077	2708.6046	1801.6	916.2
997.4299	2709.8331	1791.2	906.8
997.552	2711.0609	1800.3	915.15
997.6742	2712.2881	1796.55	909.3
997.7963	2713.5145	1808.1	921.15
997.9183	2714.7403	1814.65	929.95
998.0403	2715.9654	1825.35	941.95
998.1623	2717.1899	1847.9	950.7
998.2842	2718.4136	1841.2	958.6
998.4062	2719.6367	1848.35	964
998.528	2720.8591	1862.5	971.55
998.6498	2722.0809	1877.35	995.6
998.7716	2723.3019	1876.1	990.85
998.8934	2724.5223	1889	1003.85
999.0151	2725.7421	1888.15	1001.7
999.1368	2726.9611	1892.55	1006.2
999.2584	2728.1795	1889.4	1000.6
999.38	2729.3972	1874.8	991.6
999.5016	2730.6142	1876.25	982.8
999.6231	2731.8306	1844.9	961.85
999.7446	2733.0462	1827.85	942.65
999.8661	2734.2612	1818.15	929.7
999.9875	2735.4756	1791.85	907.05
1000.1089	2736.6892	1776.35	893.35
1000.2302	2737.9022	1756.65	874.05
1000.3515	2739.1145	1751.35	869.3
1000.4728	2740.3262	1748.65	855.9
1000.594	2741.5372	1734.35	851.7
1000.7152	2742.7475	1719.45	834.15
1000.8363	2743.9571	1705.65	820.35
1000.9575	2745.1661	1708.6	819.9
1001.0785	2746.3744	1693.5	809.45
1001.1996	2747.582	1677.5	794.9
1001.3206	2748.7889	1666.2	781.45
1001.4415	2749.9952	1669.15	785.3
1001.5625	2751.2008	1653.1	767.75
1001.6833	2752.4057	1654.4	767.2
1001.8042	2753.61	1640.15	756.75
1001.925	2754.8136	1641.1	756.4
1002.0458	2756.0165	1641.65	759.2
1002.1665	2757.2188	1638.85	759.15
1002.2872	2758.4204	1629.9	746.9
1002.4078	2759.6213	1639.1	754.05
1002.5285	2760.8215	1641.55	754.3
1002.649	2762.0211	1635.5	753.1
1002.7696	2763.22	1630.1	744.55
1002.8901	2764.4182	1623.6	738.95
1003.0106	2765.6158	1619	735
1003.131	2766.8127	1615.9	731.3
1003.2514	2768.009	1611.55	728.05
1003.3717	2769.2045	1609.7	728.55
1003.492	2770.3994	1602	717.2
1003.6123	2771.5936	1603.75	720.7
1003.7325	2772.7872	1601.65	718.9
1003.8527	2773.9801	1597.2	712.6
1003.9729	2775.1723	1610.05	710.5
1004.093	2776.3639	1592.55	710.7
1004.2131	2777.5548	1594.3	709.2
1004.3331	2778.745	1597.35	713.05
1004.4531	2779.9346	1590.6	710
1004.5731	2781.1235	1594.6	710.05
1004.693	2782.3117	1600.7	720.55
1004.8129	2783.4992	1592.55	711
1004.9328	2784.6861	1597.75	718
1005.0526	2785.8723	1607.9	725
1005.1723	2787.0579	1614.4	732.7
1005.2921	2788.2428	1613.15	731.8
1005.4118	2789.427	1621.4	739.85
1005.5314	2790.6106	1628	746.3
1005.651	2791.7935	1634.45	750.4
1005.7706	2792.9757	1636.4	756.25
1005.8902	2794.1573	1650.05	766.15
1006.0097	2795.3382	1653.25	772
1006.1291	2796.5184	1668.6	789.8
1006.2485	2797.698	1684.1	803.55
1006.3679	2798.8769	1695.9	814.55
1006.4873	2800.0551	1713	831.35
1006.6066	2801.2327	1723.85	838.3
1006.7258	2802.4096	1741.9	860.65
1006.8451	2803.5859	1767.3	887.2
1006.9642	2804.7615	1779.25	895.7
1007.0834	2805.9364	1795.2	915.3
1007.2025	2807.1106	1819.25	938.7
1007.3216	2808.2842	1848.55	968.25
1007.4406	2809.4572	1882.9	999.4
1007.5596	2810.6294	1917.7	1034.75
1007.6785	2811.801	1948.4	1069.75
1007.7975	2812.972	1989.3	1108.55
1007.9163	2814.1423	2033.05	1151.75
1008.0352	2815.3119	2078.35	1195.85
1008.154	2816.4808	2125.15	1245.85
1008.2727	2817.6491	2170.05	1289.25
1008.3914	2818.8167	2212.7	1331.1
1008.5101	2819.9837	2266.8	1382.2
1008.6288	2821.15	2303.15	1420.75
1008.7474	2822.3157	2359.75	1480.7
1008.8659	2823.4807	2399.45	1517.95
1008.9844	2824.645	2459.95	1579.6
1009.1029	2825.8086	2501.65	1620.55
1009.2214	2826.9716	2537.3	1657.05
1009.3398	2828.134	2584.6	1705.1
1009.4581	2829.2957	2635.65	1756
1009.5764	2830.4567	2655.95	1776.3
1009.6947	2831.617	2671.35	1788.55
1009.813	2832.7767	2678.25	1799.9
1009.9312	2833.9358	2688.8	1807.05
1010.0493	2835.0941	2676.35	1796.15
1010.1675	2836.2519	2666.4	1784.75
1010.2855	2837.4089	2657.25	1778.55
1010.4036	2838.5653	2645.2	1762.25
1010.5216	2839.7211	2649.45	1771.1
1010.6396	2840.8761	2653.2	1770.6
1010.7575	2842.0306	2657	1778.35
1010.8754	2843.1843	2713.85	1834.6
1010.9932	2844.3374	2747.25	1868.05
1011.111	2845.4899	2799.2	1919.25
1011.2288	2846.6417	2872.75	1993.85
1011.3465	2847.7928	2922.35	2043.05
1011.4642	2848.9433	3002.35	2120.05
1011.5818	2850.0931	3076.65	2195
1011.6995	2851.2422	3137.4	2254.15
1011.817	2852.3907	3214.7	2334.25
1011.9345	2853.5385	3263.95	2379.35
1012.052	2854.6857	3336.95	2429.25
1012.1695	2855.8323	3375.8	2496.05
1012.2869	2856.9781	3418.6	2539.75
1012.4042	2858.1233	3470.5	2590.55
1012.5216	2859.2679	3504.65	2624.9
1012.6389	2860.4118	3551.7	2668.75
1012.7561	2861.555	3604.3	2720.85
1012.8733	2862.6976	3634.85	2752.75
1012.9905	2863.8395	3654.25	2773.4
1013.1076	2864.9808	3693.85	2813.35
1013.2247	2866.1214	3703.1	2823.45
1013.3417	2867.2614	3724.25	2845.15
1013.4587	2868.4007	3726.3	2843.75
1013.5757	2869.5393	3743	2861.35
1013.6926	2870.6773	3755.15	2871.9
1013.8095	2871.8146	3773.9	2887.55
1013.9263	2872.9513	3780.4	2895.25
1014.0431	2874.0874	3769.45	2888.75
1014.1599	2875.2227	3752.65	2869.8
1014.2766	2876.3574	3748.5	2868.35
1014.3933	2877.4915	3728.1	2849.1
1014.51	2878.6249	3696.25	2819.4
1014.6266	2879.7577	3677.1	2797.35
1014.7431	2880.8898	3652.05	2762.75
1014.8596	2882.0212	3613.85	2734.85
1014.9761	2883.152	3605.55	2726.4
1015.0925	2884.2821	3597.95	2719.35
1015.2089	2885.4116	3590.7	2711.1
1015.3253	2886.5405	3598.5	2719.7
1015.4416	2887.6686	3604.2	2721.6
1015.5579	2888.7962	3610.9	2733.7
1015.6741	2889.923	3613.4	2734.15
1015.7903	2891.0493	3626.05	2746.25
1015.9065	2892.1748	3643.5	2763.9
1016.0226	2893.2997	3645.35	2764.95
1016.1387	2894.424	3668.45	2792.15
1016.2547	2895.5476	3678.4	2799.3
1016.3707	2896.6706	3715.45	2835.85
1016.4866	2897.7929	3728.4	2845.3
1016.6025	2898.9145	3755.8	2875.85
1016.7184	2900.0355	3790.95	2909.2
1016.8342	2901.1559	3830.45	2950.2
1016.95	2902.2756	3845.35	2966.3
1017.0658	2903.3946	3880.55	2999.35
1017.1815	2904.513	3907.4	3026.4
1017.2971	2905.6308	3934.1	3058.55
1017.4127	2906.7479	3945.8	3066.25
1017.5283	2907.8643	3993.1	3111.65
1017.6439	2908.9801	3979	3099.65
1017.7594	2910.0953	3987.95	3109.45
1017.8748	2911.2098	4000.65	3115.7
1017.9902	2912.3236	4000.25	3111.3
1018.1056	2913.4368	3981.8	3101
1018.2209	2914.5494	3953.9	3072.8
1018.3362	2915.6613	3921.7	3038.15
1018.4515	2916.7725	3901.95	3018.95
1018.5667	2917.8831	3858.2	2979.6
1018.6819	2918.9931	3855.2	2973.1
1018.797	2920.1024	3808.9	2929.45
1018.9121	2921.211	3782.35	2904.4
1019.0271	2922.319	3779.35	2899.95
1019.1421	2923.4264	3752.3	2875.5
1019.2571	2924.5331	3742.15	2864.5
1019.372	2925.6391	3728.6	2850.45
1019.4869	2926.7445	3726.45	2849.45
1019.6017	2927.8493	3703.75	2822.75
1019.7165	2928.9534	3707.2	2825.7
1019.8313	2930.0569	3719.35	2837.95
1019.946	2931.1597	3710.05	2829.25
1020.0606	2932.2619	3713.65	2832.55
1020.1753	2933.3634	3712.35	2834.65
1020.2899	2934.4643	3706.85	2821.3
1020.4044	2935.5645	3673.75	2788.3
1020.5189	2936.6641	3651.3	2766.9
1020.6334	2937.763	3595.95	2717.8
1020.7478	2938.8613	3557.55	2675.55
1020.8622	2939.959	3509.9	2625.7
1020.9765	2941.056	3430.6	2554.9
1021.0908	2942.1523	3336.55	2457.8
1021.2051	2943.248	3253.35	2373.65
1021.3193	2944.3431	3179.2	2301.45
1021.4334	2945.4375	3074.45	2196.6
1021.5476	2946.5313	2969.3	2090.35
1021.6617	2947.6244	2870.9	1989.75
1021.7757	2948.7169	2777.5	1901
1021.8897	2949.8087	2688.75	1812.6
1022.0037	2950.8999	2598.2	1719.7
1022.1176	2951.9904	2517.5	1637.8
1022.2315	2953.0803	2437.75	1557.45
1022.3453	2954.1696	2374.15	1496.45
1022.4591	2955.2582	2333.85	1455.5
1022.5728	2956.3462	2295.05	1417.6
1022.6865	2957.4335	2246.5	1367.65
1022.8002	2958.5202	2214.7	1333.9
1022.9138	2959.6062	2182.15	1302.85
1023.0274	2960.6916	2165.25	1288.65
1023.141	2961.7764	2139.05	1259.75
1023.2545	2962.8605	2124.05	1244.75
1023.3679	2963.9439	2111.15	1233.75
1023.4813	2965.0267	2100.25	1220.95
1023.5947	2966.1089	2109.6	1208.6
1023.708	2967.1905	2088.8	1213.15
1023.8213	2968.2714	2090.6	1212.4
1023.9346	2969.3516	2083.65	1204.6
1024.0478	2970.4312	2094.5	1205.95
1024.1609	2971.5102	2079.45	1202.15
1024.274	2972.5885	2079.85	1202.6
1024.3871	2973.6662	2086.25	1203.95
1024.5002	2974.7432	2073.7	1195.9
1024.6132	2975.8196	2065.55	1188.5
1024.7261	2976.8954	2056.75	1178.45
1024.839	2977.9705	2057.35	1178.2
1024.9519	2979.045	2046.2	1169.35
1025.0647	2980.1188	2021.25	1143.9
1025.1775	2981.192	1996	1118.7
1025.2902	2982.2645	1991.75	1114.45
1025.4029	2983.3364	1963.7	1085.5
1025.5156	2984.4077	1928.75	1052.65
1025.6282	2985.4783	1912.3	1032.55
1025.7407	2986.5483	1887.25	1010.15
1025.8532	2987.6177	1838.55	960.6
1025.9657	2988.6864	1798.65	919.15
1026.0782	2989.7545	1776.65	896.65
1026.1906	2990.8219	1741.95	864.35
1026.3029	2991.8887	1711	831
1026.4152	2992.9548	1683.65	806.55
1026.5275	2994.0204	1645.7	768.05
1026.6397	2995.0852	1607.35	731.65
1026.7519	2996.1495	1592.85	714.9
1026.864	2997.2131	1565.95	689.85
1026.9761	2998.276	1543.4	665.9
1027.0882	2999.3383	1528.45	646.45
1027.2002	3000.4	1497.85	618.8
1027.3122	3001.4611	1487.05	610.1
1027.4241	3002.5215	1474.35	596.45
1027.536	3003.5812	1462.15	583.75
1027.6478	3004.6404	1450.5	569.4
1027.7596	3005.6989	1437.65	560.2
1027.8714	3006.7567	1426.5	550.6
1027.9831	3007.8139	1456.65	549
1028.0947	3008.8705	1413.5	536.5
1028.2064	3009.9264	1414.6	534.45
1028.3179	3010.9818	1396.9	518.25
1028.4295	3012.0364	1390.1	510.3
1028.541	3013.0905	1389.85	510.3
1028.6524	3014.1439	1385.25	507.45
1028.7638	3015.1966	1374.9	498
1028.8752	3016.2487	1376.8	499.3
1028.9865	3017.3002	1384.85	503.9
1029.0978	3018.3511	1370.4	496.1
1029.209	3019.4013	1370.45	492.2
1029.3202	3020.4509	1371	495.25
1029.4314	3021.4998	1374.95	495.95
1029.5425	3022.5481	1368.9	490.65
1029.6535	3023.5958	1374.95	495.85
1029.7645	3024.6428	1370.65	491.85
1029.8755	3025.6892	1375.05	500.15
1029.9864	3026.735	1373.35	496.7
1030.0973	3027.7802	1376.8	499.3
1030.2082	3028.8247	1374.8	498.6
1030.319	3029.8685	1379.4	502.3
1030.4297	3030.9118	1379.85	503.1
1030.5404	3031.9544	1386.55	508.7
1030.6511	3032.9963	1383.9	504
1030.7617	3034.0376	1382.15	505.9
1030.8723	3035.0783	1393.65	514.5
1030.9829	3036.1184	1392.95	514.8
1031.0934	3037.1578	1399.65	525.2
1031.2038	3038.1966	1396.65	519.6
1031.3142	3039.2348	1404.85	529
1031.4246	3040.2723	1412.35	527.4
1031.5349	3041.3092	1401.65	526.05
1031.6452	3042.3455	1401.9	526.8
1031.7554	3043.3811	1393.15	516.4
1031.8656	3044.4161	1393.9	515.9
1031.9758	3045.4505	1385.65	510.75
1032.0859	3046.4842	1380.7	505.05
1032.1959	3047.5173	1373.9	496.6
1032.3059	3048.5498	1369.9	493.2
1032.4159	3049.5816	1365.85	490
1032.5258	3050.6128	1362	483.7
1032.6357	3051.6434	1349.55	471.95
1032.7455	3052.6734	1346.9	467.3
1032.8553	3053.7027	1345.05	466.75
1032.9651	3054.7314	1333.95	458.85
1033.0748	3055.7594	1335.35	456.95
1033.1845	3056.7868	1327.4	450.05
1033.2941	3057.8136	1336.5	459.95
1033.4037	3058.8398	1323	445.15
1033.5132	3059.8653	1322.05	444.85
1033.6227	3060.8902	1309.25	432.85
1033.7321	3061.9145	1305.6	429.2
1033.8415	3062.9381	1303.15	425.15
1033.9509	3063.9612	1315.8	423.5
1034.0602	3064.9835	1288.1	411.8
1034.1694	3066.0053	1285.05	405.6
1034.2787	3067.0264	1277.25	399.8
1034.3878	3068.0469	1272.15	393.6
1034.497	3069.0668	1270.5	391.9
1034.6061	3070.086	1254.8	378.25
1034.7151	3071.1046	1247.2	370.65
1034.8241	3072.1226	1246.85	368.2
1034.9331	3073.1399	1236.1	360.3
1035.042	3074.1567	1231.4	355.15
1035.1508	3075.1727	1225.1	348.55
1035.2597	3076.1882	1209.45	333.5
1035.3684	3077.203	1205.85	329.85
1035.4772	3078.2173	1201.45	323.6
1035.5859	3079.2308	1190.2	313.25
1035.6945	3080.2438	1182.65	304.65
1035.8031	3081.2561	1169.1	292.3
1035.9117	3082.2678	1167.7	290.7
1036.0202	3083.2789	1162.5	286.15
1036.1286	3084.2893	1153.1	278.35
1036.2371	3085.2991	1152.1	274.5
1036.3454	3086.3083	1144.2	261.3
1036.4538	3087.3169	1139.1	260.95
1036.562	3088.3248	1134.65	256.25
1036.6703	3089.3321	1133.35	254.85
1036.7785	3090.3388	1125.1	248.7
1036.8866	3091.3449	1119.8	242.8
1036.9948	3092.3503	1121.05	241.85
1037.1028	3093.3551	1108.55	234.95
1037.2108	3094.3593	1108.75	235.1
1037.3188	3095.3629	1108.6	234.65
1037.4267	3096.3658	1104.45	226.35
1037.5346	3097.3681	1096.15	221
1037.6425	3098.3698	1099.65	219.45
1037.7503	3099.3708	1099.6	216.3
1037.858	3100.3713	1098.55	223
1037.9657	3101.3711	1091.35	214.5
1038.0734	3102.3702	1220.5	210.05
1038.181	3103.3688	1089.65	212.8
1038.2886	3104.3667	1080.4	207.5
1038.3961	3105.364	1081.65	206
1038.5036	3106.3607	1081.35	202.45
1038.611	3107.3568	1077.75	200.15
1038.7184	3108.3522	1073.35	198.7
1038.8257	3109.347	1069.35	192.25
1038.933	3110.3412	1075.2	195.3
1039.0403	3111.3348	1072.5	198.7
1039.1475	3112.3277	1070.75	195.3
1039.2547	3113.32	1067.95	193.2
1039.3618	3114.3117	1063.55	187
1039.4689	3115.3028	1062.4	187
1039.5759	3116.2932	1057.8	180.75
1039.6829	3117.2831	1062.3	178.85
1039.7898	3118.2723	1056.1	181
1039.8967	3119.2608	1056.55	181.45
1040.0035	3120.2488	1057.35	181.3
1040.1103	3121.2361	1052.15	175.15
1040.2171	3122.2229	1051.35	175.95
1040.3238	3123.209	1050.05	176.25
1040.4305	3124.1944	1051.55	177.8
1040.5371	3125.1793	1045.95	168.35
1040.6437	3126.1635	1045.05	171.75
1040.7502	3127.1471	1044.7	169.25
1040.8567	3128.1301	1038.6	162.65
1040.9631	3129.1125	1039.25	163.65
1041.0695	3130.0942	1042.45	168.05
1041.1759	3131.0753	1049.2	167.35
1041.2822	3132.0558	1042.85	166.7
1041.3884	3133.0357	1036.5	160.65
1041.4946	3134.015	1037.55	161.45
1041.6008	3134.9936	1033.35	154.6
1041.7069	3135.9716	1052.05	155.4
1041.813	3136.949	1037.35	162.15
1041.919	3137.9258	1047.05	154
1042.025	3138.902	1032.2	150.3
1042.1309	3139.8775	1030.9	156.5
1042.2368	3140.8524	1027.1	152.1
1042.3427	3141.8267	1030.2	152.15
1042.4485	3142.8004	1025.45	149.05
1042.5542	3143.7735	1031.25	149.25
1042.6599	3144.7459	1025.85	149.85
1042.7656	3145.7178	1025.25	150.3
1042.8712	3146.689	1024.45	150.4
1042.9768	3147.6596	1020.3	142.5
1043.0823	3148.6295	1014.95	139
1043.1878	3149.5989	1018.15	142.1
1043.2932	3150.5676	1015.3	140.4
1043.3986	3151.5357	1012.3	139
1043.5039	3152.5032	1012.8	137.35
1043.6092	3153.4701	1015.25	141.1
1043.7145	3154.4364	1017.4	139.85
1043.8197	3155.402	1010.4	134.45
1043.9248	3156.367	1012.35	134.55
1044.03	3157.3315	1039.8	133.75
1044.135	3158.2952	1009.9	135.75
1044.24	3159.2584	1001.65	125.95
1044.345	3160.221	1007.85	131.7
1044.4499	3161.1829	1007.35	131.65
1044.5548	3162.1442	1002.9	127.8
1044.6596	3163.105	999.55	124.15
1044.7644	3164.065	1002.35	127.55
1044.8692	3165.0245	1005.05	126.85
1044.9739	3165.9834	1000.65	127.7
1045.0785	3166.9416	998.8	122.35
1045.1831	3167.8993	997.25	122.2
1045.2877	3168.8563	997.65	120.95
1045.3922	3169.8127	995.05	120.1
1045.4966	3170.7684	995.4	119.2
1045.6011	3171.7236	997.9	122.35
1045.7054	3172.6782	993.8	120.85
1045.8098	3173.6321	994.65	118.25
1045.914	3174.5854	996.3	118.05
1046.0183	3175.5381	991.55	115
1046.1224	3176.4902	992.8	117.6
1046.2266	3177.4417	991.1	117.05
1046.3307	3178.3926	992.05	115.9
1046.4347	3179.3428	987.8	113.7
1046.5387	3180.2924	987.9	112.75
1046.6427	3181.2415	987.85	112.8
1046.7466	3182.1899	985.5	105.85
1046.8504	3183.1377	989.2	114.25
1046.9542	3184.0848	990	111.2
1047.058	3185.0314	981.15	105.35
1047.1617	3185.9773	984.9	110.4
1047.2654	3186.9227	984.4	111.75
1047.369	3187.8674	982.65	109.45
1047.4726	3188.8115	988.4	109.7
1047.5761	3189.755	982.4	107.65
1047.6796	3190.6979	980.6	104.1
1047.783	3191.6402	982	109.8
1047.8864	3192.5818	979.2	104.35
1047.9898	3193.5229	995.8	100.5
1048.0931	3194.4633	976.9	104.4
1048.1963	3195.4031	977.8	102.05
1048.2995	3196.3423	975.05	100.75
1048.4027	3197.2809	977.15	100.8
1048.5058	3198.2189	975.6	102.5
1048.6089	3199.1563	980.05	98.05
1048.7119	3200.0931	975.95	103.7
1048.8148	3201.0292	972.6	98.4
1048.9178	3201.9648	974.85	98.75
1049.0206	3202.8997	976.8	98.75
1049.1235	3203.834	973.9	100.9
1049.2262	3204.7677	971.2	99.15
1049.329	3205.7008	973.7	97.55
1049.4317	3206.6333	973.85	99.8
1049.5343	3207.5652	972.15	95.45
1049.6369	3208.4964	974.65	100.35
1049.7394	3209.4271	968.45	94.3
1049.8419	3210.3571	968.5	95.25
1049.9444	3211.2865	971.05	96.15
1050.0468	3212.2154	970.15	97.5
1050.1491	3213.1436	971.4	93.35
1050.2514	3214.0712	972.7	91.6
1050.3537	3214.9982	967.55	93.35
1050.4559	3215.9246	966.8	92.7
1050.5581	3216.8503	964.15	89.5
1050.6602	3217.7755	963.95	90.4
1050.7623	3218.7001	961.6	88.95
1050.8643	3219.624	965.5	90.7
1050.9663	3220.5473	964.45	91
1051.0682	3221.4701	962.8	87
1051.1701	3222.3922	966.25	91
1051.2719	3223.3137	960.15	87.05
1051.3737	3224.2346	960.2	85.7
1051.4754	3225.1549	957.25	84.6
1051.5771	3226.0746	960.45	87.8
1051.6788	3226.9937	960.95	85.65
1051.7804	3227.9121	958.65	84.55
1051.8819	3228.83	959.45	84.35
1051.9834	3229.7473	958	84.5
1052.0849	3230.6639	959.75	83.65
1052.1863	3231.5799	958.6	84.8
1052.2876	3232.4954	958.35	84.4
1052.3889	3233.4102	954.75	82.65
1052.4902	3234.3244	953.5	78.05
1052.5914	3235.238	955.35	80.25
1052.6926	3236.151	980.7	82.35
1052.7937	3237.0634	954.7	82.55
1052.8948	3237.9752	955.05	80.6
1052.9958	3238.8864	955.55	78.6
1053.0968	3239.797	952.05	77.8
1053.1977	3240.7069	950.05	74.1
1053.2986	3241.6163	955.15	78.45
1053.3994	3242.5251	950.25	76.55
1053.5002	3243.4332	947.95	74.95
1053.6009	3244.3408	950.65	76.2
1053.7016	3245.2477	950.15	74.35
1053.8022	3246.154	951.05	76.15
1053.9028	3247.0598	948.4	73.85
1054.0034	3247.9649	949.5	76.35
1054.1039	3248.8694	948.45	74.7
1054.2043	3249.7733	948.15	74.25
1054.3047	3250.6766	945.5	73.15
1054.4051	3251.5793	946.65	71.15
1054.5054	3252.4814	945.75	72.15
1054.6056	3253.3829	944.35	71.65
1054.7058	3254.2838	945.6	71.35
1054.806	3255.1841	942.95	69.15
1054.9061	3256.0838	939.7	63.9
1055.0061	3256.9829	941.65	69.5
1055.1062	3257.8814	945.25	71.1
1055.2061	3258.7792	943.2	68.8
1055.306	3259.6765	941.75	68
1055.4059	3260.5731	936	63
1055.5057	3261.4692	941.75	68.9
1055.6055	3262.3647	939.35	65.55
1055.7052	3263.2595	935.3	62.7
1055.8049	3264.1538	937.25	62.45
1055.9045	3265.0474	936.95	61.6
1056.0041	3265.9404	932.45	59.05
1056.1036	3266.8329	930.6	57.2
1056.2031	3267.7247	940.2	56.25
1056.3025	3268.616	927.9	56.45
1056.4019	3269.5066	923.95	51.15
1056.5013	3270.3966	926.4	51.3
1056.6005	3271.286	924.1	51.7
