Software Version:	3.9.2.0
Unit SN:	10000200
Spectrometer SN:	6960
Date:	3/8/2024 1:22:34 PM
Data Line Index:	25
Spectral Points:	2048
Integration time (ms):	125
Averages:	20
Delay (ms):	30000
Sequence Number:	1
Processing:	dark subtract
Laser Power (mW):	300
Laser Current (mA):	822
Laser Diode Temp (C):	25
Laser Case Temp (C):	26.2
System Temp (C):	26.2
Spectrometer Temp (C):	23.9
CCD Temp (C):	0.013
Secondary Temp (C):	20.014
Heatsink Temp (C):	21.237
CCDPCB Temp (C):	36.274
SecondaryPCB Temp (C):	29.837

Wavelength	RamanShift	Raw Counts	Dark Subtracted
787.061	30.1047	453.35	46.8
787.2016	32.3739	452.75	49.9
787.3422	34.6426	455.45	49.3
787.4828	36.9109	465.6	57.75
787.6235	39.1787	469.05	57.2
787.7642	41.4461	481.05	63.5
787.9049	43.7131	490.7	70.25
788.0456	45.9796	496.15	73.35
788.1863	48.2456	509.1	83.45
788.3271	50.5112	517.65	86.45
788.4679	52.7764	522.7	87.85
788.6087	55.0411	535.75	96.6
788.7496	57.3054	544.75	100.55
788.8904	59.5692	550	102.65
789.0313	61.8326	567.3	117.1
789.1722	64.0955	575.5	122.75
789.3132	66.3579	591.15	132.6
789.4541	68.6199	608.3	145.9
789.5951	70.8815	640.65	173.05
789.7361	73.1426	723.45	252.85
789.8771	75.4032	922.45	449.9
790.0181	77.6634	1409.5	929.55
790.1592	79.9231	2529.45	2040.15
790.3003	82.1824	5004.25	4497.7
790.4414	84.4412	9410.95	8875.25
790.5825	86.6995	15504.2	14925.1
790.7237	88.9574	21427.1	20817.4
790.8648	91.2148	25477.4	24840.4
791.006	93.4717	27316.85	26669
791.1472	95.7282	27627.2	26967.05
791.2885	97.9842	27439.2	26771.45
791.4297	100.2398	26819.3	26148.15
791.571	102.4949	26151.55	25485
791.7123	104.7495	25342.1	24671.65
791.8536	107.0036	24514.85	23843
791.9949	109.2573	23733.95	23060.5
792.1363	111.5105	22968.85	22291.9
792.2777	113.7632	22239.5	21565.8
792.4191	116.0154	21688.25	20999.55
792.5605	118.2672	21202.9	20520.1
792.7019	120.5185	20759.85	20075.75
792.8434	122.7693	20407.15	19715.5
792.9849	125.0197	20110.4	19421.9
793.1264	127.2696	19781.25	19087.65
793.2679	129.519	19663	18964.2
793.4094	131.7679	19405.9	18705.4
793.551	134.0163	19184.8	18475.75
793.6926	136.2642	18969.35	18262.15
793.8342	138.5117	18699.45	17988.1
793.9758	140.7587	18390.2	17677.6
794.1175	143.0052	18135.7	17420.1
794.2591	145.2512	17849.4	17135.65
794.4008	147.4967	17594	16882.85
794.5425	149.7417	17420.6	16703.35
794.6842	151.9863	17284.9	16559.65
794.826	154.2304	17217.9	16487.95
794.9677	156.4739	17058.5	16324.75
795.1095	158.717	16965.5	16234.15
795.2513	160.9596	16821	16086.35
795.3931	163.2017	16576.8	15837.85
795.535	165.4433	16287.15	15546.35
795.6768	167.6844	15953.65	15210.9
795.8187	169.925	15634.1	14887.2
795.9606	172.1651	15265.05	14514.85
796.1025	174.4047	14958.75	14208.2
796.2445	176.6439	14731.75	13977.1
796.3864	178.8825	14486.5	13731.5
796.5284	181.1206	14330.75	13567.75
796.6704	183.3582	14174.45	13408.8
796.8124	185.5954	14051.25	13286.75
796.9544	187.832	13988.85	13216.9
797.0965	190.0681	13941.9	13168.5
797.2386	192.3037	13957.85	13177.15
797.3806	194.5388	13945	13163
797.5228	196.7734	13960.6	13180.9
797.6649	199.0075	14021.8	13237.55
797.807	201.2411	14151.15	13367.4
797.9492	203.4742	14224.1	13439.5
798.0914	205.7068	14397.1	13607.4
798.2336	207.9389	14503.95	13712.75
798.3758	210.1704	14639.9	13854.3
798.518	212.4015	14761.3	13986
798.6603	214.632	14913.15	14145
798.8025	216.862	15068.85	14300.65
798.9448	219.0915	15223.3	14449.15
799.0871	221.3205	15432.75	14657.9
799.2294	223.549	15600.2	14835.55
799.3718	225.777	15856.5	15089.1
799.5141	228.0044	16144.6	15369.3
799.6565	230.2314	16479.7	15698.75
799.7989	232.4578	16803.7	16027.6
799.9413	234.6837	17102.5	16319.75
800.0837	236.909	17265.35	16480.35
800.2262	239.1339	17256.35	16440.15
800.3687	241.3582	17108.4	16309.45
800.5111	243.582	16836.6	16001.45
800.6536	245.8053	16576.5	15757.35
800.7961	248.0281	16293.55	15483.05
800.9387	250.2503	16132.8	15313.4
801.0812	252.472	16041.6	15222.05
801.2238	254.6932	16038.05	15223.9
801.3664	256.9139	16026.2	15210.05
801.509	259.134	16085.7	15265.1
801.6516	261.3536	16144.95	15325.8
801.7942	263.5727	16285.05	15465.15
801.9369	265.7912	16372.1	15550.6
802.0795	268.0092	16475.55	15653.05
802.2222	270.2267	16499.15	15675
802.3649	272.4436	16527.55	15705
802.5076	274.6601	16494.85	15659.8
802.6504	276.8759	16387.6	15562.75
802.7931	279.0913	16282.7	15452.9
802.9359	281.3061	16201.5	15369.8
803.0787	283.5204	16243.55	15408
803.2215	285.7341	16246.9	15410.15
803.3643	287.9473	16385.05	15533.5
803.5071	290.16	16537.65	15696.5
803.6499	292.3721	16816.65	15984.15
803.7928	294.5837	17186.55	16352.5
803.9357	296.7947	17481.1	16643.85
804.0786	299.0052	17695.1	16858.15
804.2215	301.2152	17578.9	16739.85
804.3644	303.4246	17280.2	16447.3
804.5074	305.6334	16801.2	15965.3
804.6503	307.8418	16294.1	15450.75
804.7933	310.0495	15887.8	15046.5
804.9363	312.2568	15525.1	14682.95
805.0793	314.4635	15240.5	14397.8
805.2223	316.6696	15074.3	14224.3
805.3653	318.8752	15004.85	14147.45
805.5084	321.0802	15048.8	14199.65
805.6514	323.2847	15099.4	14246.9
805.7945	325.4887	15163	14309.05
805.9376	327.692	15085.35	14234.25
806.0807	329.8949	15002.75	14148.25
806.2238	332.0972	14742.95	13889.25
806.367	334.2989	14533.9	13673.8
806.5101	336.5001	14251.1	13391
806.6533	338.7007	14054.15	13191.9
806.7965	340.9008	13929.55	13065.2
806.9397	343.1003	13781.9	12923.35
807.0829	345.2992	13707	12842.7
807.2261	347.4976	13662.3	12798.9
807.3693	349.6955	13667.95	12805.1
807.5126	351.8927	13722.45	12854.7
807.6559	354.0895	13659	12774.45
807.7991	356.2856	13678	12806.2
807.9424	358.4812	13668.15	12793.25
808.0857	360.6763	13706.2	12831.95
808.2291	362.8707	13675.35	12803.25
808.3724	365.0646	13723.15	12843.45
808.5158	367.258	13713.95	12836.95
808.6591	369.4508	13753.3	12874.1
808.8025	371.643	13850.2	12967.2
808.9459	373.8346	13881.75	12999.25
809.0893	376.0257	13878.95	12995.7
809.2327	378.2162	13861.95	12983.6
809.3762	380.4062	13742.05	12863.35
809.5196	382.5956	13627.7	12750.25
809.6631	384.7844	13546.95	12674.35
809.8066	386.9726	13404.15	12530.9
809.9501	389.1603	13363.65	12492.65
810.0936	391.3474	13333.4	12424.75
810.2371	393.5339	13298.95	12419.6
810.3806	395.7199	13252.4	12375.5
810.5241	397.9052	13279.95	12406.3
810.6677	400.09	13288.6	12417
810.8113	402.2743	13366.85	12493.05
810.9548	404.4579	13493.45	12616.8
811.0984	406.641	13695.4	12818.7
811.2421	408.8235	13841.85	12963.75
811.3857	411.0054	14104.4	13220.3
811.5293	413.1868	14468.5	13583.6
811.673	415.3675	14753.2	13863.15
811.8166	417.5477	14913.35	14022.2
811.9603	419.7273	14934.95	14046.55
812.104	421.9064	14823.05	13926.45
812.2477	424.0848	14681.55	13792.2
812.3914	426.2627	14519.3	13630.65
812.5351	428.4399	14233.15	13342.6
812.6788	430.6166	13893.5	12999.05
812.8226	432.7928	13579.1	12680.8
812.9663	434.9683	13245.1	12354.55
813.1101	437.1432	13003.05	12112.45
813.2539	439.3176	12850.75	11963.55
813.3977	441.4914	12730.3	11847.25
813.5415	443.6645	12720.2	11834.35
813.6853	445.8371	12670.7	11776.65
813.8291	448.0091	12625.95	11734
813.973	450.1806	12590.3	11700.5
814.1168	452.3514	12518.45	11628.6
814.2607	454.5216	12546.35	11651
814.4046	456.6913	12501.55	11608.95
814.5485	458.8603	12533.15	11644.9
814.6924	461.0288	12595.05	11710.45
814.8363	463.1967	12603.05	11719.65
814.9802	465.3639	12693.35	11804.45
815.1241	467.5306	12772.15	11883.15
815.2681	469.6967	12882.05	11996.85
815.412	471.8622	12949.8	12063.4
815.556	474.0271	13096.4	12210
815.7	476.1914	13159.9	12269.5
815.844	478.3551	13154.95	12261.15
815.988	480.5182	13132.85	12245.9
816.132	482.6807	13160.75	12280.9
816.276	484.8426	13327	12451.2
816.4201	487.0039	13584.35	12700.5
816.5641	489.1647	13988.8	13098.35
816.7082	491.3248	14385.65	13493.5
816.8522	493.4843	14569.05	13682.35
816.9963	495.6432	14505.1	13619.05
817.1404	497.8015	14429.7	13531.7
817.2845	499.9592	14401.3	13494.2
817.4286	502.1163	14301.6	13395.05
817.5727	504.2728	14021.85	13128.45
817.7168	506.4287	13737	12852.55
817.861	508.5839	13348.3	12461.2
818.0051	510.7386	13060	12167.9
818.1493	512.8927	12918.25	12012.45
818.2935	515.0461	12819.4	11915.55
818.4377	517.199	12825.25	11925.4
818.5818	519.3512	12847.9	11946.65
818.726	521.5029	12993.7	12088.4
818.8703	523.6539	13104.45	12205.35
819.0145	525.8043	13222.05	12316.2
819.1587	527.9541	13211.55	12306.55
819.303	530.1033	13110.6	12205.25
819.4472	532.2519	13103.5	12204
819.5915	534.3999	13153.4	12248.65
819.7357	536.5472	13375.2	12473.8
819.88	538.694	13752.6	12858.6
820.0243	540.8401	14229.9	13326.5
820.1686	542.9856	14655.35	13743.1
820.3129	545.1305	14770.85	13854.6
820.4572	547.2748	14667.75	13744.85
820.6016	549.4185	14371.7	13450.3
820.7459	551.5615	14066.35	13147.85
820.8902	553.704	13951.4	13032.35
821.0346	555.8458	13942.3	13031.35
821.1789	557.987	14038.1	13126.25
821.3233	560.1276	14059.35	13146.85
821.4677	562.2675	14215.05	13301.75
821.6121	564.4069	14427.05	13514.6
821.7565	566.5456	14544.75	13627.95
821.9009	568.6837	14525.3	13620.4
822.0453	570.8212	14213.8	13301
822.1897	572.958	13780.2	12867.15
822.3342	575.0942	13369.65	12459.8
822.4786	577.2299	13131.5	12223.05
822.6231	579.3648	13028.5	12135
822.7675	581.4992	13058.45	12176
822.912	583.6329	13224.4	12338.7
823.0565	585.766	13454.75	12565.7
823.201	587.8985	13587.5	12690.4
823.3454	590.0304	13607.7	12678.05
823.4899	592.1616	13547.1	12630.6
823.6345	594.2922	13424.5	12505.65
823.779	596.4222	13250.25	12328.6
823.9235	598.5515	13066.35	12145.6
824.068	600.6802	12943.55	12022.3
824.2126	602.8083	12759.1	11842.5
824.3571	604.9358	12710.5	11792.45
824.5017	607.0626	12691.9	11769.95
824.6462	609.1888	12705.7	11781.75
824.7908	611.3144	12719.1	11790.65
824.9354	613.4393	12664.6	11738.35
825.08	615.5636	12629.5	11703.15
825.2246	617.6873	12579	11650.4
825.3692	619.8103	12538.75	11615.15
825.5138	621.9327	12401.6	11480.4
825.6584	624.0544	12320.8	11405.25
825.803	626.1756	12246.7	11327.95
825.9477	628.2961	12163.75	11236.95
826.0923	630.4159	12118.35	11191.9
826.237	632.5351	12093.8	11167.75
826.3816	634.6537	12025.3	11098.2
826.5263	636.7716	12026.15	11096.25
826.6709	638.8889	12041.2	11107.4
826.8156	641.0056	12070.8	11138.1
826.9603	643.1216	12023.65	11089.05
827.105	645.237	12078.5	11147.8
827.2497	647.3518	12007.45	11086.85
827.3944	649.4659	11994.25	11078.25
827.5391	651.5793	11986.45	11072.85
827.6838	653.6922	11980.5	11060.75
827.8285	655.8043	11949	11026.5
827.9733	657.9159	11940.95	11018.5
828.118	660.0268	11861.45	10937.15
828.2627	662.137	11828.65	10900.1
828.4075	664.2466	11853.25	10918.2
828.5522	666.3556	11825.9	10894.45
828.697	668.4639	11809.7	10883.2
828.8418	670.5716	11826.35	10902.65
828.9865	672.6786	11858.75	10929.9
829.1313	674.785	11903.65	10968.8
829.2761	676.8907	11924.7	10997.85
829.4209	678.9958	11994.65	11072.55
829.5657	681.1002	11968.55	11040.6
829.7105	683.204	11949.65	11008.55
829.8553	685.3072	11912.9	10979.25
830.0001	687.4097	11867.7	10933
830.1449	689.5115	11847.2	10915.15
830.2898	691.6127	11816.55	10887.85
830.4346	693.7132	11731.85	10807.35
830.5794	695.8131	11745	10804.5
830.7243	697.9123	11744	10804.45
830.8691	700.0109	11742.7	10803.4
831.014	702.1089	11714.05	10779.85
831.1588	704.2061	11724.9	10788.85
831.3037	706.3028	11788.45	10848.65
831.4486	708.3987	11813.6	10876.9
831.5935	710.4941	11888.6	10954.2
831.7383	712.5887	12031.95	11098.45
831.8832	714.6827	12212.55	11275.55
832.0281	716.7761	12487.9	11557.8
832.173	718.8688	12783.95	11850.35
832.3179	720.9608	13005.4	12062.65
832.4628	723.0522	13101.55	12154
832.6077	725.1429	12971.7	12033.95
832.7527	727.233	12800.15	11864.65
832.8976	729.3224	12669.8	11728.85
833.0425	731.4112	12452.8	11514.4
833.1874	733.4993	12278.1	11338.85
833.3324	735.5867	12131	11196.05
833.4773	737.6735	11970.8	11032.3
833.6222	739.7596	11851.9	10909.45
833.7672	741.845	11776.65	10836.95
833.9122	743.9298	11772.45	10831.45
834.0571	746.014	11759.6	10822.65
834.2021	748.0974	11751.6	10809.15
834.347	750.1802	11757.9	10811.5
834.492	752.2624	11758.15	10815.05
834.637	754.3439	11806.35	10864.5
834.782	756.4247	11896.8	10939.6
834.9269	758.5048	12023.8	11082.95
835.0719	760.5843	12284.4	11341.2
835.2169	762.6631	12629.35	11686.55
835.3619	764.7413	13112.4	12167.7
835.5069	766.8188	13723.7	12779.8
835.6519	768.8956	14220.35	13275.65
835.7969	770.9718	14545.7	13605.75
835.9419	773.0473	14415.35	13471
836.0869	775.1221	14106.15	13159.7
836.232	777.1962	13798.25	12852.95
836.377	779.2697	13595.7	12648.8
836.522	781.3426	13664.15	12707.05
836.667	783.4147	13861.35	12915.35
836.8121	785.4862	14074.8	13131.15
836.9571	787.557	14057.75	13111.2
837.1021	789.6271	13672.45	12725.45
837.2472	791.6966	13102.8	12157.25
837.3922	793.7654	12546.65	11599.2
837.5373	795.8335	12221.3	11280.2
837.6823	797.901	11992.85	11047.55
837.8274	799.9678	11934.15	10986.35
837.9724	802.0339	11895.85	10947.7
838.1175	804.0993	11899.1	10937.4
838.2626	806.1641	11883.05	10934.75
838.4076	808.2282	11826.15	10877.55
838.5527	810.2916	11728.75	10779.25
838.6978	812.3544	11651.75	10706.3
838.8428	814.4164	11566.45	10619.65
838.9879	816.4778	11593.5	10641.15
839.133	818.5385	11635.55	10684.2
839.2781	820.5986	11713.75	10758.75
839.4232	822.658	11835.6	10885.05
839.5682	824.7166	12046.45	11097.2
839.7133	826.7747	12386.85	11435.9
839.8584	828.832	12643.25	11689.25
840.0035	830.8886	12870.15	11917.65
840.1486	832.9446	13022.3	12070.7
840.2937	834.9999	12998.1	12048.35
840.4388	837.0545	12913.55	11958.35
840.5839	839.1085	12780.1	11830.45
840.729	841.1618	12630.95	11676.25
840.8741	843.2143	12571.25	11617.95
841.0192	845.2662	12443	11489.1
841.1643	847.3175	12372.85	11424.4
841.3095	849.368	12260.3	11307.9
841.4546	851.4179	12147.3	11192.15
841.5997	853.467	12033.8	11079
841.7448	855.5155	11933.95	10982.2
841.8899	857.5633	11869.45	10915.85
842.0351	859.6105	11771.05	10825.6
842.1802	861.6569	11704.3	10751.4
842.3253	863.7027	11639.3	10683.65
842.4704	865.7478	11616.4	10663.6
842.6156	867.7922	11618.55	10662.75
842.7607	869.8359	11626.35	10672.45
842.9058	871.8789	11721.9	10765.3
843.0509	873.9212	11859.8	10873.9
843.1961	875.9629	11953.5	10997.7
843.3412	878.0039	12135.55	11180.35
843.4863	880.0441	12250.4	11301.65
843.6315	882.0837	12272.8	11319.9
843.7766	884.1226	12242.25	11289.05
843.9218	886.1609	12175.05	11222.65
844.0669	888.1984	12160.45	11209.45
844.212	890.2352	12172.3	11218.8
844.3572	892.2714	12173.5	11211.9
844.5023	894.3069	12142.9	11187.05
844.6475	896.3416	12033.75	11078.85
844.7926	898.3757	11969.75	11014.95
844.9377	900.4091	11929.05	10970.25
845.0829	902.4418	11947.5	10987.2
845.228	904.4739	11950.45	10989.6
845.3732	906.5052	11964.15	11005.05
845.5183	908.5358	11902.2	10946.4
845.6635	910.5658	11779.95	10823.75
845.8086	912.595	11607.25	10650.1
845.9538	914.6236	11404.75	10450.7
846.0989	916.6515	11337	10384.7
846.2441	918.6786	11307.5	10350.75
846.3892	920.7051	11341.6	10379.35
846.5344	922.7309	11457.35	10498.2
846.6795	924.756	11518.55	10560.25
846.8246	926.7804	11590.75	10636.45
846.9698	928.8041	11539.4	10584.7
847.1149	930.8272	11600.7	10640.65
847.2601	932.8495	11571.55	10612.05
847.4052	934.8711	11512.05	10552.8
847.5504	936.892	11406.05	10448
847.6955	938.9123	11314.4	10355.75
847.8407	940.9318	11252.55	10296
847.9858	942.9506	11186.45	10229.4
848.131	944.9688	11069.7	10111.7
848.2761	946.9862	10998.9	10043.55
848.4213	949.003	10937.75	9979.25
848.5664	951.019	10911	9953.05
848.7115	953.0344	10890.75	9933.05
848.8567	955.0491	10901.4	9944.7
849.0018	957.063	10969.5	10010.15
849.147	959.0763	11121.3	10164.95
849.2921	961.0888	11154.5	10197.35
849.4373	963.1007	11230.7	10276.65
849.5824	965.1119	11252.65	10307.3
849.7275	967.1223	11266.9	10330.35
849.8727	969.1321	11270.15	10329.25
850.0178	971.1412	11288.15	10341.85
850.1629	973.1495	11286.55	10337
850.3081	975.1572	11360.4	10359.75
850.4532	977.1641	11365.05	10407.15
850.5983	979.1704	11357.35	10395.85
850.7435	981.1759	11381.45	10416.65
850.8886	983.1808	11391.8	10433.4
851.0337	985.1849	11443.75	10477.5
851.1788	987.1884	11560.75	10598.2
851.324	989.1911	11748.8	10790.35
851.4691	991.1932	11845.1	10890.95
851.6142	993.1945	11883.6	10929.65
851.7593	995.1951	11846.7	10890.45
851.9045	997.1951	11811.5	10849.8
852.0496	999.1943	11778.1	10820.45
852.1947	1001.1928	11725.05	10767.3
852.3398	1003.1906	11739.9	10782.2
852.4849	1005.1877	11842.9	10885.15
852.63	1007.1841	11836.6	10882.2
852.7751	1009.1798	11823.3	10869.1
852.9202	1011.1748	11641.3	10687.95
853.0653	1013.1691	11455.7	10497.6
853.2104	1015.1627	11250.85	10294.6
853.3555	1017.1556	11080.6	10125.8
853.5006	1019.1477	10958.5	10010.6
853.6457	1021.1392	10859.05	9912.8
853.7908	1023.1299	10838.6	9893.7
853.9359	1025.12	10890.65	9951.85
854.081	1027.1093	10917.95	9991.65
854.2261	1029.0979	11028.95	10104.75
854.3712	1031.0859	11103.65	10173.75
854.5163	1033.0731	11106.85	10167.5
854.6613	1035.0596	11057.85	10112.8
854.8064	1037.0454	10938.8	9989.55
854.9515	1039.0304	10853.9	9898.55
855.0965	1041.0148	10707.3	9754.9
855.2416	1042.9985	10623.2	9665.5
855.3867	1044.9814	10588.2	9637.85
855.5317	1046.9636	10550.5	9595.05
855.6768	1048.9452	10515.35	9564.95
855.8219	1050.926	10562.55	9612.35
855.9669	1052.9061	10567.5	9615.3
856.112	1054.8855	10581.25	9626.8
856.257	1056.8642	10627.4	9672
856.4021	1058.8421	10702.2	9743.3
856.5471	1060.8194	10708.65	9753.85
856.6921	1062.7959	10734.4	9778.55
856.8372	1064.7717	10781.05	9824.35
856.9822	1066.7469	10808.65	9852.3
857.1272	1068.7213	10867.35	9911.55
857.2723	1070.695	10868.8	9915.15
857.4173	1072.6679	10818.7	9868.4
857.5623	1074.6402	10812.5	9855.95
857.7073	1076.6117	10781.1	9821.25
857.8523	1078.5826	10747	9789.8
857.9973	1080.5527	10703.9	9745.95
858.1423	1082.5221	10737.4	9782.35
858.2873	1084.4908	10859.7	9903.3
858.4323	1086.4587	11009.05	10056.25
858.5773	1088.426	11129.95	10172.5
858.7223	1090.3925	11093.3	10132.25
858.8673	1092.3584	11068.1	10114.4
859.0123	1094.3235	10992.85	10039.75
859.1573	1096.2879	11027.9	10075.05
859.3022	1098.2515	11052.3	10098.2
859.4472	1100.2145	11145.05	10190
859.5922	1102.1767	11257.65	10300.45
859.7371	1104.1382	11428.35	10474.3
859.8821	1106.099	11662.45	10707.6
860.027	1108.0591	11858.85	10906.75
860.172	1110.0185	11999.15	11041.2
860.3169	1111.9771	12083.05	11130.65
860.4619	1113.9351	11928.25	10974.3
860.6068	1115.8923	11685.95	10731.9
860.7517	1117.8488	11410.2	10455.05
860.8967	1119.8045	11185.85	10233.1
861.0416	1121.7596	11055.75	10104.85
861.1865	1123.7139	10952.15	10004.1
861.3314	1125.6675	10974.6	10022.65
861.4763	1127.6204	11024.25	10071.75
861.6212	1129.5726	10987.3	10029.55
861.7661	1131.524	10963.25	10011.55
861.911	1133.4748	10916.95	9960.35
862.0559	1135.4248	10814.4	9858.55
862.2008	1137.3741	10790.65	9840.45
862.3457	1139.3226	10696.9	9744.15
862.4905	1141.2705	10654.7	9699.85
862.6354	1143.2176	10596.75	9634.2
862.7803	1145.164	10549.1	9598.2
862.9251	1147.1097	10552.3	9598.8
863.07	1149.0546	10509.4	9553.55
863.2148	1150.9989	10430.5	9477.5
863.3597	1152.9424	10311.1	9358.4
863.5045	1154.8852	10157.5	9202.3
863.6493	1156.8272	10089.3	9140.4
863.7942	1158.7686	10069.95	9110.65
863.939	1160.7092	10057.8	9101.7
864.0838	1162.6491	10070.75	9115.65
864.2286	1164.5883	10140.8	9188.15
864.3734	1166.5267	10231.8	9279.55
864.5182	1168.4644	10396.35	9444.9
864.663	1170.4014	10579.85	9630.35
864.8078	1172.3377	10814.55	9866.8
864.9526	1174.2732	11052.55	10104.7
865.0974	1176.2081	11375.2	10422.9
865.2421	1178.1421	11700.85	10743.45
865.3869	1180.0755	12005.85	11053.2
865.5317	1182.0082	12212.65	11266.7
865.6764	1183.9401	12281.05	11332.7
865.8212	1185.8713	12137.55	11193.8
865.9659	1187.8017	11883	10945.5
866.1106	1189.7315	11594.55	10667.6
866.2554	1191.6605	11287.3	10362.3
866.4001	1193.5888	11062.6	10126.45
866.5448	1195.5163	10936.95	9996.85
866.6895	1197.4432	10860.85	9915.9
866.8342	1199.3693	10837.4	9887.7
866.9789	1201.2947	10804.2	9852.25
867.1236	1203.2193	10782.7	9836.5
867.2683	1205.1432	10795.45	9846.95
867.413	1207.0664	10793.05	9847.6
867.5576	1208.9889	10806.85	9862.1
867.7023	1210.9106	10839.65	9892.15
867.847	1212.8316	10871.05	9924.6
867.9916	1214.7519	10931.35	9975.5
868.1363	1216.6715	10934.7	9988.25
868.2809	1218.5903	10953	10004.55
868.4255	1220.5084	10946.75	9998.4
868.5701	1222.4257	10998.85	10050.3
868.7148	1224.3424	10983.4	10040.55
868.8594	1226.2583	11055.9	10106.45
869.004	1228.1735	11159	10209.05
869.1486	1230.0879	11286.8	10339.9
869.2932	1232.0016	11385.6	10437.7
869.4377	1233.9146	11440.15	10488.45
869.5823	1235.8269	11406.95	10457.05
869.7269	1237.7384	11315.5	10366.9
869.8715	1239.6492	11146.75	10199.25
870.016	1241.5592	11058.65	10105.75
870.1606	1243.4686	10992.7	10045.8
870.3051	1245.3772	11064.9	10117.95
870.4496	1247.285	11101.05	10154.6
870.5941	1249.1922	11144.1	10197.9
870.7387	1251.0986	11195.45	10249.3
870.8832	1253.0042	11179.2	10233.4
871.0277	1254.9092	11237.45	10292.9
871.1722	1256.8134	11312.8	10370.3
871.3167	1258.7169	11495.65	10546.9
871.4611	1260.6196	11653.85	10710.3
871.6056	1262.5216	11884.3	10937.15
871.7501	1264.4229	12053.05	11109.4
871.8945	1266.3234	12213.8	11269.05
872.039	1268.2232	12302.6	11356.7
872.1834	1270.1223	12329.1	11382.25
872.3278	1272.0207	12320.4	11372.05
872.4723	1273.9183	12306.1	11353.65
872.6167	1275.8151	12246.45	11301.05
872.7611	1277.7113	12199.6	11256
872.9055	1279.6067	12111.25	11169.2
873.0499	1281.5014	12130.4	11183.65
873.1943	1283.3953	12215	11269.25
873.3386	1285.2885	12400.75	11456.9
873.483	1287.181	12571.65	11629.5
873.6274	1289.0727	12774.65	11833.65
873.7717	1290.9637	12891.35	11946.3
873.9161	1292.854	13062.55	12119.3
874.0604	1294.7435	13147.55	12201.5
874.2047	1296.6323	13235.9	12291.5
874.349	1298.5204	13363.8	12415.35
874.4933	1300.4077	13411	12463.1
874.6376	1302.2943	13489.15	12541.6
874.7819	1304.1802	13433.2	12490.45
874.9262	1306.0653	13196.3	12249.45
875.0705	1307.9497	12899.25	11957.6
875.2147	1309.8333	12629.45	11688.1
875.359	1311.7162	12506.9	11565.9
875.5032	1313.5984	12447.2	11496
875.6475	1315.4798	12416.6	11472.65
875.7917	1317.3605	12454.5	11496.75
875.9359	1319.2405	12460.8	11512.05
876.0801	1321.1197	12380.65	11432.45
876.2243	1322.9982	12178.2	11228.05
876.3685	1324.876	12032.35	11087.95
876.5127	1326.753	11914.25	10970.4
876.6569	1328.6293	11835.9	10888.2
876.801	1330.5048	11730.05	10781.6
876.9452	1332.3796	11675.4	10730.05
877.0893	1334.2537	11649.15	10677.8
877.2335	1336.127	11587.6	10642.95
877.3776	1337.9996	11549.65	10604.65
877.5217	1339.8714	11540.25	10591.6
877.6658	1341.7426	11533.9	10547.65
877.8099	1343.6129	11522.65	10576.55
877.954	1345.4826	11500.85	10552.85
878.0981	1347.3515	11504.7	10555.45
878.2422	1349.2196	11483.45	10538.5
878.3862	1351.087	11476.8	10531.35
878.5303	1352.9537	11520	10573.4
878.6743	1354.8197	11630.6	10685.2
878.8184	1356.6849	11799.2	10853.25
878.9624	1358.5493	11915.3	10968.3
879.1064	1360.4131	12024.75	11080.45
879.2504	1362.276	12032.5	11091.25
879.3944	1364.1383	11911.7	10968
879.5384	1365.9998	11715.55	10769.35
879.6823	1367.8606	11357.85	10413.9
879.8263	1369.7206	11069	10122.1
879.9702	1371.5799	10778.8	9830.85
880.1142	1373.4384	10595	9649.95
880.2581	1375.2962	10407.15	9460.95
880.402	1377.1533	10119.5	9178.45
880.5459	1379.0096	9802.35	8863.25
880.6898	1380.8652	9488.45	8549.3
880.8337	1382.7201	9253.05	8316
880.9776	1384.5742	8996.4	8050.3
881.1215	1386.4275	8833.5	7890.55
881.2653	1388.2802	8702.8	7760.35
881.4092	1390.132	8603.45	7658.3
881.553	1391.9832	8534.7	7590
881.6968	1393.8336	8453.2	7507.7
881.8406	1395.6832	8418.85	7472.6
881.9844	1397.5322	8391.55	7447.35
882.1282	1399.3803	8370.9	7425.15
882.272	1401.2278	8339.3	7395.4
882.4158	1403.0745	8349.95	7407.5
882.5595	1404.9204	8336.95	7396.25
882.7033	1406.7656	8353.35	7410.55
882.847	1408.6101	8388.75	7443.85
882.9908	1410.4538	8395	7452.55
883.1345	1412.2968	8440	7496.95
883.2782	1414.139	8480.85	7537.1
883.4219	1415.9805	8560.05	7621.4
883.5656	1417.8213	8651	7701.8
883.7092	1419.6613	8754.15	7815.1
883.8529	1421.5006	8920.75	7978.55
883.9965	1423.3391	9163.25	8221.5
884.1402	1425.1769	9446.45	8503.4
884.2838	1427.0139	9917.95	8975.2
884.4274	1428.8502	10461.2	9517.55
884.571	1430.6858	11016.9	10078.55
884.7146	1432.5206	11411.4	10474.3
884.8582	1434.3547	11641.95	10698.55
885.0018	1436.188	11660.15	10723.15
885.1453	1438.0206	11616.4	10675
885.2889	1439.8524	11438.4	10499.5
885.4324	1441.6835	11318.1	10374.8
885.5759	1443.5139	11233.3	10292.3
885.7194	1445.3435	11129.65	10192.25
885.8629	1447.1724	11097.6	10161.35
886.0064	1449.0005	11044.35	10104
886.1499	1450.8279	10953.3	10011.35
886.2933	1452.6545	10917.95	9979.6
886.4368	1454.4804	10942.8	10005.5
886.5802	1456.3056	10928	9984.1
886.7237	1458.13	10836.15	9899.6
886.8671	1459.9536	10670.95	9731.15
887.0105	1461.7766	10345.8	9409.4
887.1539	1463.5987	9979.25	9039
887.2972	1465.4202	9618.75	8677.6
887.4406	1467.2409	9253.15	8318.45
887.584	1469.0608	8976.35	8036.95
887.7273	1470.88	8740.75	7802.95
887.8706	1472.6984	8498.15	7562.8
888.0139	1474.5161	8306.25	7366.75
888.1572	1476.3331	8171.2	7234.55
888.3005	1478.1493	8029.4	7090.3
888.4438	1479.9648	7924.45	6989.85
888.5871	1481.7795	7850.45	6912.65
888.7303	1483.5935	7780.5	6843.75
888.8736	1485.4067	7714.6	6776.6
889.0168	1487.2192	7685.3	6747.95
889.16	1489.031	7631.85	6690
889.3032	1490.842	7573.2	6637.05
889.4464	1492.6522	7581.15	6644.85
889.5896	1494.4618	7530.55	6592.7
889.7327	1496.2705	7509.35	6573.55
889.8759	1498.0785	7453.55	6514.55
890.019	1499.8858	7425.2	6487.3
890.1622	1501.6924	7412.3	6479.1
890.3053	1503.4981	7387.5	6453.4
890.4484	1505.3032	7332.5	6398.1
890.5914	1507.1075	7286.45	6349.5
890.7345	1508.911	7233.75	6296.35
890.8776	1510.7138	7218.35	6280.5
891.0206	1512.5159	7168.1	6231.95
891.1637	1514.3172	7133.1	6198.05
891.3067	1516.1178	7075.2	6142.25
891.4497	1517.9176	7061.05	6122.6
891.5927	1519.7166	7018.35	6082.05
891.7357	1521.515	6999.05	6059.25
891.8786	1523.3126	6986.75	6051.2
892.0216	1525.1094	6938.8	6003.4
892.1645	1526.9055	6924.2	5994.45
892.3074	1528.7008	6915.05	5983.75
892.4503	1530.4954	6860.85	5926.45
892.5932	1532.2893	6832.55	5901.25
892.7361	1534.0824	6833.3	5897.45
892.879	1535.8747	6834.95	5906.7
893.0218	1537.6663	6824.3	5891.3
893.1647	1539.4572	6800.05	5868.75
893.3075	1541.2473	6798.2	5867.2
893.4503	1543.0367	6783.4	5850.05
893.5931	1544.8253	6777.75	5841.95
893.7359	1546.6132	6793.8	5859.35
893.8787	1548.4003	6828.85	5891.8
894.0214	1550.1867	6862.35	5924.7
894.1642	1551.9723	6888.65	5955.8
894.3069	1553.7572	6933.7	6005.05
894.4496	1555.5414	6997.75	6072.7
894.5923	1557.3247	7071.35	6148.1
894.735	1559.1074	7206.4	6283.6
894.8777	1560.8893	7290.1	6365.05
895.0204	1562.6705	7384.6	6460.55
895.163	1564.4509	7478.05	6557.2
895.3056	1566.2305	7535.25	6616.05
895.4482	1568.0094	7585.55	6665.3
895.5908	1569.7876	7608.6	6688.5
895.7334	1571.565	7594.3	6670.75
895.876	1573.3417	7605.8	6680.95
896.0186	1575.1176	7573.6	6653.65
896.1611	1576.8928	7548.3	6629.2
896.3036	1578.6672	7495.55	6581.4
896.4461	1580.4409	7436.15	6526
896.5886	1582.2138	7368.35	6451.45
896.7311	1583.986	7313.65	6392.5
896.8736	1585.7575	7300.8	6384.25
897.0161	1587.5282	7284.3	6370.5
897.1585	1589.2981	7271.05	6357.05
897.3009	1591.0673	7302.5	6385.95
897.4433	1592.8358	7348.5	6436.6
897.5857	1594.6035	7382.7	6465.6
897.7281	1596.3704	7447.2	6525.95
897.8705	1598.1366	7488.3	6569.65
898.0128	1599.9021	7536.75	6621.55
898.1551	1601.6668	7630.45	6714.95
898.2975	1603.4308	7730.7	6811.2
898.4398	1605.194	7887.15	6964.85
898.5821	1606.9564	8003.7	7092.85
898.7243	1608.7182	8182.7	7277
898.8666	1610.4791	8385.35	7485.1
899.0088	1612.2394	8606.55	7707.1
899.1511	1613.9988	8804.4	7902.4
899.2933	1615.7576	9043.15	8135
899.4355	1617.5156	9242.55	8321.45
899.5776	1619.2728	9389	8468.7
899.7198	1621.0293	9443.1	8526.6
899.862	1622.785	9402.65	8488.45
900.0041	1624.54	9247.65	8338.6
900.1462	1626.2942	9037.85	8129.55
900.2883	1628.0477	8760.45	7848.5
900.4304	1629.8005	8492.7	7580.15
900.5725	1631.5525	8261.9	7354.1
900.7145	1633.3037	8087.5	7183.45
900.8566	1635.0542	7919.05	7011.45
900.9986	1636.804	7812.5	6904.5
901.1406	1638.553	7821.15	6843.75
901.2826	1640.3013	7722.05	6812.25
901.4245	1642.0488	7685.35	6774.95
901.5665	1643.7955	7720.6	6816.75
901.7085	1645.5416	7792.05	6885.05
901.8504	1647.2868	7864.25	6954.3
901.9923	1649.0313	7975.25	7065.05
902.1342	1650.7751	8128	7216.55
902.2761	1652.5181	8271.6	7366.25
902.4179	1654.2604	8459.75	7556.3
902.5598	1656.0019	8708.65	7805.1
902.7016	1657.7427	8989.75	8081.5
902.8434	1659.4828	9274.4	8361.75
902.9852	1661.222	9438.05	8525
903.127	1662.9606	9419.6	8510.55
903.2687	1664.6984	9190.85	8279.45
903.4105	1666.4354	8786.05	7871.3
903.5522	1668.1717	8270.1	7358.8
903.6939	1669.9072	7735.35	6822.7
903.8356	1671.642	7266.2	6349.75
903.9773	1673.3761	6922.5	6009.7
904.119	1675.1094	6620.9	5712.55
904.2606	1676.8419	6396.3	5486.35
904.4022	1678.5737	6204.3	5296
904.5439	1680.3048	6074.55	5162.65
904.6855	1682.0351	5965.75	5057.25
904.827	1683.7646	5876.4	4963.2
904.9686	1685.4934	5799.7	4891.95
905.1101	1687.2215	5715.45	4804.35
905.2517	1688.9488	5654.4	4746.7
905.3932	1690.6754	5590.45	4681.6
905.5347	1692.4012	5563.1	4653.45
905.6761	1694.1263	5519.2	4608.3
905.8176	1695.8506	5478.2	4569.1
905.9591	1697.5742	5464	4560
906.1005	1699.297	5417.45	4516.9
906.2419	1701.0191	5367	4465.3
906.3833	1702.7404	5342.6	4440.7
906.5246	1704.461	5310.6	4403.3
906.666	1706.1808	5289.35	4380.9
906.8073	1707.8999	5277.7	4375.85
906.9487	1709.6182	5243.35	4341.05
907.09	1711.3358	5197.45	4299.2
907.2313	1713.0527	5185.65	4289.65
907.3725	1714.7688	5182.15	4278.6
907.5138	1716.4841	5131.55	4228.3
907.655	1718.1987	5132.25	4221.45
907.7962	1719.9126	5108.45	4209
907.9374	1721.6257	5084.85	4185.7
908.0786	1723.338	5071.95	4172.65
908.2198	1725.0496	5030.15	4129.8
908.3609	1726.7605	5033.3	4131.7
908.502	1728.4706	5002.2	4102.7
908.6431	1730.18	4993.45	4093.45
908.7842	1731.8886	4964.25	4067.9
908.9253	1733.5964	4980.8	4060.6
909.0664	1735.3036	4950	4046.2
909.2074	1737.0099	4946.85	4045.95
909.3484	1738.7156	4902.45	4007.2
909.4894	1740.4204	4871.7	3969.05
909.6304	1742.1246	4854.6	3954.3
909.7714	1743.8279	4841.25	3942.15
909.9123	1745.5306	4828.05	3931.35
910.0532	1747.2325	4806.8	3908.8
910.1941	1748.9336	4783.55	3882.05
910.335	1750.634	4767.7	3864.1
910.4759	1752.3336	4752.05	3855.5
910.6168	1754.0325	4741.4	3845.6
910.7576	1755.7307	4736.5	3841.1
910.8984	1757.4281	4722.45	3819.9
911.0392	1759.1247	4721.45	3811.8
911.18	1760.8206	4717.05	3808.6
911.3208	1762.5158	4694.5	3788.3
911.4615	1764.2102	4676.75	3773.15
911.6022	1765.9039	4659.45	3760.2
911.7429	1767.5968	4645.7	3749.75
911.8836	1769.289	4628.9	3731.15
912.0243	1770.9804	4621.45	3721.8
912.1649	1772.6711	4608.9	3707.3
912.3056	1774.361	4600.45	3696.45
912.4462	1776.0502	4586.05	3680.8
912.5868	1777.7386	4611.7	3708.55
912.7274	1779.4263	4579.75	3682.5
912.8679	1781.1132	4567.9	3672.75
913.0084	1782.7994	4552.1	3659.05
913.149	1784.4849	4544	3647.9
913.2895	1786.1696	4531.75	3628.4
913.4299	1787.8535	4510.95	3615.1
913.5704	1789.5367	4508.3	3614.2
913.7108	1791.2192	4505.5	3612.15
913.8513	1792.9009	4532.5	3608.6
913.9917	1794.5818	4478.95	3576.3
914.132	1796.2621	4478.55	3579.85
914.2724	1797.9415	4455.6	3557.75
914.4128	1799.6202	4472.75	3574.15
914.5531	1801.2982	4463.45	3564.7
914.6934	1802.9755	4428.15	3527.45
914.8337	1804.6519	4438.05	3538.1
914.9739	1806.3277	4419.2	3522.45
915.1142	1808.0027	4389.65	3497
915.2544	1809.6769	4390.3	3497
915.3946	1811.3504	4368.1	3473.35
915.5348	1813.0231	4372.15	3479.9
915.675	1814.6951	4374.35	3479.9
915.8151	1816.3664	4376.25	3477.35
915.9553	1818.0369	4364.3	3462.75
916.0954	1819.7067	4341.8	3443.95
916.2355	1821.3757	4339.7	3441.4
916.3755	1823.044	4339.3	3440.45
916.5156	1824.7115	4318.15	3416.65
916.6556	1826.3783	4300.3	3402.3
916.7956	1828.0443	4291.3	3393.7
916.9356	1829.7096	4283.6	3387.6
917.0756	1831.3741	4289.45	3387.75
917.2155	1833.0379	4273.7	3379.55
917.3555	1834.701	4240.15	3345.9
917.4954	1836.3633	4251.55	3357.9
917.6353	1838.0248	4248.75	3352.05
917.7751	1839.6856	4252.85	3354.75
917.915	1841.3457	4241.2	3345.8
918.0548	1843.005	4222.25	3323
918.1946	1844.6636	4244.75	3347
918.3344	1846.3214	4217	3320.65
918.4742	1847.9785	4208.35	3312.05
918.6139	1849.6349	4202.55	3304.95
918.7537	1851.2904	4217.15	3307.6
918.8934	1852.9453	4189.95	3287.7
919.0331	1854.5994	4189.1	3286.7
919.1727	1856.2528	4194.55	3290.05
919.3124	1857.9054	4183.3	3284.65
919.452	1859.5572	4157.3	3261.45
919.5916	1861.2083	4148.8	3248.9
919.7312	1862.8587	4159.85	3263.3
919.8708	1864.5084	4143.25	3241.7
920.0103	1866.1572	4135.9	3235.4
920.1498	1867.8054	4108.7	3207.85
920.2893	1869.4528	4093.4	3194.9
920.4288	1871.0994	4096.55	3194.15
920.5683	1872.7453	4092.05	3195.1
920.7077	1874.3905	4094.65	3178.85
920.8471	1876.0349	4084.75	3185.15
920.9865	1877.6786	4086.35	3185.65
921.1259	1879.3215	4059.5	3162.5
921.2653	1880.9637	4053.9	3153.6
921.4046	1882.6051	4040.85	3146.5
921.5439	1884.2458	4029.9	3131.65
921.6832	1885.8858	4018.1	3121.85
921.8225	1887.525	4020.3	3123.9
921.9617	1889.1634	4012.75	3114.75
922.101	1890.8011	3988.3	3088.9
922.2402	1892.4381	3997.15	3096.85
922.3794	1894.0743	3988	3091.5
922.5185	1895.7098	3975.3	3078.95
922.6577	1897.3446	3958.35	3059.9
922.7968	1898.9786	3952.9	3051.15
922.9359	1900.6118	3950.55	3054.6
923.075	1902.2443	3940.85	3045.3
923.214	1903.8761	3931.25	3035.3
923.3531	1905.5071	3913.4	3014.6
923.4921	1907.1374	3887.4	2991.85
923.6311	1908.7669	3888.65	2992.45
923.77	1910.3957	3900.5	3004.7
923.909	1912.0237	3874.5	2978.7
924.0479	1913.651	3854.55	2957.2
924.1868	1915.2776	3847.35	2950.55
924.3257	1916.9034	3836.5	2939.8
924.4646	1918.5285	3817.75	2923.2
924.6034	1920.1528	3813.1	2918.45
924.7422	1921.7764	3822.9	2925.95
924.881	1923.3992	3807.7	2912.2
925.0198	1925.0213	3789.75	2892.95
925.1586	1926.6427	3774.8	2879.6
925.2973	1928.2633	3950.9	2848.75
925.436	1929.8832	3795.35	2893.7
925.5747	1931.5023	3760.5	2863.2
925.7134	1933.1207	3737.3	2841.55
925.852	1934.7383	3723.75	2826.55
925.9906	1936.3552	3720.5	2827.15
926.1292	1937.9714	3710.65	2814.8
926.2678	1939.5868	3698	2800.25
926.4064	1941.2015	3699.55	2800.65
926.5449	1942.8154	3688.25	2790.3
926.6834	1944.4286	3677.5	2779.25
926.8219	1946.041	3678.3	2763.45
926.9604	1947.6528	3638	2735.1
927.0988	1949.2637	3635.4	2740.4
927.2372	1950.8739	3615.4	2720.9
927.3756	1952.4834	3610.15	2716.5
927.514	1954.0921	3603	2712.3
927.6523	1955.7001	3601.2	2701.45
927.7907	1957.3074	3592.1	2698.9
927.929	1958.9139	3574.45	2683.35
928.0673	1960.5197	3577.1	2683.7
928.2055	1962.1247	3540.4	2647.05
928.3438	1963.729	3531.7	2640.2
928.482	1965.3325	3543.9	2647.1
928.6202	1966.9353	3525.3	2634.35
928.7584	1968.5374	3528.25	2636.25
928.8965	1970.1387	3509.3	2618.15
929.0346	1971.7393	3501.95	2609.1
929.1727	1973.3392	3483.75	2592.25
929.3108	1974.9383	3469.35	2579.7
929.4489	1976.5366	3458.3	2568.95
929.5869	1978.1342	3464.45	2576.95
929.7249	1979.7311	3444.8	2554.95
929.8629	1981.3273	3436.45	2547.55
930.0009	1982.9227	3440.6	2548.65
930.1388	1984.5173	3414.85	2527.1
930.2767	1986.1112	3423.25	2534.2
930.4146	1987.7044	3397.65	2508.8
930.5525	1989.2968	3396.35	2507.1
930.6904	1990.8885	3392.5	2502.6
930.8282	1992.4795	3385.75	2497.35
930.966	1994.0697	3376.85	2491.55
931.1038	1995.6592	3369.55	2480.45
931.2415	1997.2479	3370.9	2482.05
931.3793	1998.8359	3354.7	2467.6
931.517	2000.4232	3344.85	2459.6
931.6547	2002.0097	3331.6	2449.95
931.7923	2003.5955	3311.75	2428.6
931.93	2005.1805	3317.65	2430.7
932.0676	2006.7648	3314.15	2429.1
932.2052	2008.3484	3320.05	2434.55
932.3427	2009.9312	3316.5	2431.85
932.4803	2011.5133	3289.75	2409
932.6178	2013.0946	3279.65	2396.3
932.7553	2014.6752	3289	2403.45
932.8928	2016.2551	3279.9	2392.9
933.0302	2017.8342	3276.65	2391.95
933.1676	2019.4126	3255.7	2372.65
933.305	2020.9902	3243.15	2360.15
933.4424	2022.5672	3233.45	2350.45
933.5798	2024.1433	3246.05	2356.8
933.7171	2025.7188	3241.35	2362.35
933.8544	2027.2935	3221.55	2340.4
933.9917	2028.8674	3203.6	2321
934.129	2030.4406	3205.45	2325.5
934.2662	2032.0131	3184.35	2303.95
934.4034	2033.5849	3189.15	2302.3
934.5406	2035.1559	3183.95	2302.6
934.6778	2036.7261	3172.3	2289.05
934.8149	2038.2957	3181.1	2295.45
934.952	2039.8645	3170.5	2283.05
935.0891	2041.4325	3175.85	2285.25
935.2262	2042.9998	3156.8	2273.95
935.3632	2044.5664	3141.65	2255.65
935.5002	2046.1323	3143.9	2261.1
935.6372	2047.6974	3128.75	2245.2
935.7742	2049.2617	3132.7	2250.05
935.9111	2050.8254	3144.05	2227.35
936.048	2052.3883	3142	2257.55
936.1849	2053.9504	3109.7	2224.65
936.3218	2055.5118	3113.4	2225
936.4586	2057.0725	3105.1	2214.45
936.5955	2058.6325	3091.75	2207.9
936.7323	2060.1917	3076.4	2193.8
936.869	2061.7502	3080.15	2194.75
937.0058	2063.3079	3060.85	2180.1
937.1425	2064.8649	3062.3	2175.95
937.2792	2066.4212	3070.3	2185.05
937.4159	2067.9767	3053.85	2169.1
937.5525	2069.5315	3039.25	2152.65
937.6891	2071.0856	3023.7	2140.7
937.8257	2072.6389	3032.55	2149.2
937.9623	2074.1915	3016.25	2133
938.0989	2075.7433	3003.4	2116.9
938.2354	2077.2945	2996.65	2112.55
938.3719	2078.8448	3008.45	2120.3
938.5084	2080.3945	2985.1	2096.1
938.6448	2081.9434	2986.85	2098.2
938.7812	2083.4916	2987.05	2097.8
938.9176	2085.039	2988.45	2094.6
939.054	2086.5857	2971.55	2074.2
939.1903	2088.1317	2970.35	2076.85
939.3267	2089.677	2970.25	2075.25
939.463	2091.2215	2952.35	2057.2
939.5992	2092.7652	2955.15	2059.35
939.7355	2094.3083	2952.15	2057.1
939.8717	2095.8506	2932.85	2042.3
940.0079	2097.3921	2925.8	2035.35
940.1441	2098.933	2927.35	2036.35
940.2802	2100.4731	2922.95	2032.85
940.4163	2102.0124	2915.05	2017.3
940.5524	2103.5511	2920.6	2030
940.6885	2105.089	2903	2012.05
940.8245	2106.6261	2910	2019.7
940.9606	2108.1626	2898.7	2010.25
941.0965	2109.6983	2923.7	2010.2
941.2325	2111.2332	2884.55	1993.35
941.3684	2112.7675	2870.3	1979.1
941.5044	2114.301	2874.35	1981.7
941.6403	2115.8337	2875.95	1984.65
941.7761	2117.3657	2865.05	1973.85
941.912	2118.897	2861.9	1967.5
942.0478	2120.4276	2872.9	1974.2
942.1835	2121.9575	2847.85	1955.25
942.3193	2123.4866	2852.55	1957.6
942.455	2125.0149	2852.95	1960.05
942.5907	2126.5426	2839.5	1952.8
942.7264	2128.0695	2808.5	1921.15
942.8621	2129.5956	2806.5	1924.85
942.9977	2131.1211	2810.95	1921.45
943.1333	2132.6458	2803.65	1915.5
943.2689	2134.1698	2807.05	1915.95
943.4044	2135.693	2807.2	1913.3
943.54	2137.2155	2803.4	1909.25
943.6755	2138.7373	2798.95	1910.8
943.8109	2140.2584	2792.8	1906.2
943.9464	2141.7787	2782.35	1893.15
944.0818	2143.2983	2753.05	1871.2
944.2172	2144.8171	2749	1867.95
944.3526	2146.3353	2749.4	1860
944.4879	2147.8527	2754.95	1869.55
944.6232	2149.3693	2760.4	1869.8
944.7585	2150.8853	2742.3	1851.15
944.8938	2152.4005	2739.45	1844.75
945.029	2153.9149	2739.9	1847.3
945.1642	2155.4287	2718.1	1824.05
945.2994	2156.9417	2735.15	1844.05
945.4346	2158.454	2723.35	1833.75
945.5697	2159.9655	2712.1	1824.7
945.7048	2161.4764	2699.25	1813.1
945.8399	2162.9865	2694.35	1806.55
945.9749	2164.4958	2695.35	1809.8
946.1099	2166.0045	2686.75	1797.35
946.2449	2167.5124	2688.65	1800.4
946.3799	2169.0195	2681.6	1789.85
946.5148	2170.526	2687.7	1795.65
946.6498	2172.0317	2674.4	1784.8
946.7846	2173.5367	2672.8	1782.65
946.9195	2175.0409	2671.8	1781.6
947.0543	2176.5445	2669.2	1778.75
947.1891	2178.0473	2654	1761.65
947.3239	2179.5494	2648.2	1752.65
947.4587	2181.0507	2629.65	1739.65
947.5934	2182.5513	2627.9	1737.35
947.7281	2184.0512	2621.35	1731.15
947.8628	2185.5504	2620.2	1731.05
947.9974	2187.0488	2622.4	1732.95
948.132	2188.5465	2606.95	1721.55
948.2666	2190.0435	2607.7	1717.65
948.4012	2191.5397	2599.65	1711.75
948.5357	2193.0353	2600.65	1709.1
948.6702	2194.5301	2597.2	1702.65
948.8047	2196.0241	2591.45	1696.6
948.9392	2197.5175	2592.6	1696.65
949.0736	2199.0101	2585.5	1686.8
949.208	2200.502	2569.95	1680.15
949.3424	2201.9931	2567.7	1679.6
949.4767	2203.4835	2558.05	1670.3
949.611	2204.9733	2547.85	1656.1
949.7453	2206.4622	2548.95	1662.25
949.8796	2207.9505	2537.9	1648.9
950.0138	2209.438	2528.25	1645.85
950.148	2210.9248	2523.85	1635.9
950.2822	2212.4109	2527.75	1638.45
950.4164	2213.8962	2516.85	1619.35
950.5505	2215.3809	2524.9	1629.1
950.6846	2216.8648	2515.05	1619.3
950.8186	2218.3479	2515.9	1613.1
950.9527	2219.8304	2512.55	1612.65
951.0867	2221.3121	2496.75	1597.15
951.2207	2222.7931	2502	1607
951.3546	2224.2733	2488	1593.85
951.4886	2225.7529	2478	1585.8
951.6225	2227.2317	2469.8	1577.95
951.7563	2228.7098	2460.35	1573.6
951.8902	2230.1872	2461.45	1575.55
952.024	2231.6638	2462.1	1575.9
952.1578	2233.1397	2449.15	1556.55
952.2916	2234.6149	2441.8	1553.25
952.4253	2236.0894	2434.05	1546.35
952.559	2237.5632	2439.9	1540.25
952.6927	2239.0362	2426.7	1535.65
952.8263	2240.5085	2439.65	1550.5
952.9599	2241.9801	2417	1526.15
953.0935	2243.4509	2421.45	1528.75
953.2271	2244.921	2413.15	1519.8
953.3606	2246.3904	2413.15	1517.1
953.4941	2247.8591	2411.4	1517.5
953.6276	2249.3271	2398.5	1503.65
953.7611	2250.7943	2387.45	1494.1
953.8945	2252.2608	2383.45	1491.35
954.0279	2253.7266	2375.6	1480.65
954.1612	2255.1917	2387.8	1499.05
954.2946	2256.656	2366.15	1474.2
954.4279	2258.1197	2353.4	1466.8
954.5612	2259.5826	2351.8	1461.05
954.6944	2261.0447	2357.35	1465
954.8276	2262.5062	2352.6	1459.15
954.9608	2263.9669	2350	1456.2
955.094	2265.4269	2352.7	1460.25
955.2271	2266.8862	2339.95	1449.2
955.3602	2268.3448	2343.05	1452.1
955.4933	2269.8026	2330.15	1440.6
955.6264	2271.2598	2329.9	1441.6
955.7594	2272.7162	2327.05	1438.75
955.8924	2274.1719	2324.35	1431.65
956.0253	2275.6268	2314.05	1418.85
956.1583	2277.0811	2315.2	1421.5
956.2912	2278.5346	2318.4	1427.35
956.4241	2279.9874	2316.2	1428.15
956.5569	2281.4395	2303.65	1416.1
956.6897	2282.8908	2298	1403.75
956.8225	2284.3414	2296.05	1403.95
956.9553	2285.7914	2285.15	1394.85
957.088	2287.2406	2287.3	1391.3
957.2207	2288.689	2285.7	1389.45
957.3534	2290.1368	2278.25	1379.45
957.486	2291.5838	2296.2	1396.4
957.6186	2293.0302	2285.9	1386.75
957.7512	2294.4758	2276.55	1383.9
957.8838	2295.9206	2256.7	1361.15
958.0163	2297.3648	2254.55	1363.75
958.1488	2298.8082	2266.9	1375.5
958.2813	2300.251	2264.45	1371.05
958.4137	2301.693	2257.55	1359.5
958.5461	2303.1343	2261.7	1367.4
958.6785	2304.5748	2249.2	1357.1
958.8108	2306.0147	2243.8	1353
958.9432	2307.4538	2238.5	1347.1
959.0754	2308.8922	2220.75	1333.05
959.2077	2310.3299	2225.7	1338.15
959.3399	2311.7669	2219.8	1330.35
959.4721	2313.2031	2218.1	1326.35
959.6043	2314.6387	2211	1318.6
959.7365	2316.0735	2202.4	1309.1
959.8686	2317.5076	2209.05	1315.75
960.0006	2318.941	2206.85	1315.1
960.1327	2320.3737	2199.5	1305.85
960.2647	2321.8056	2198.9	1301.2
960.3967	2323.2369	2189.45	1295.7
960.5287	2324.6674	2192.15	1296.1
960.6606	2326.0972	2183.7	1290.1
960.7925	2327.5263	2189.15	1296.7
960.9244	2328.9547	2170.2	1274.45
961.0562	2330.3823	2167.6	1270.85
961.1881	2331.8092	2165.8	1265.95
961.3198	2333.2355	2172.7	1277.2
961.4516	2334.661	2152.95	1257.05
961.5833	2336.0858	2165.8	1269.55
961.715	2337.5098	2169.45	1274.35
961.8467	2338.9332	2147.55	1253.45
961.9783	2340.3558	2157.95	1263.15
962.1099	2341.7778	2145.85	1254.6
962.2415	2343.199	2145.65	1254.65
962.373	2344.6195	2130.95	1239.75
962.5045	2346.0393	2133.75	1243.65
962.636	2347.4583	2139.55	1246.6
962.7675	2348.8767	2122.6	1229.3
962.8989	2350.2943	2129.65	1232.2
963.0303	2351.7113	2128.55	1232.55
963.1617	2353.1275	2128.15	1233.15
963.293	2354.543	2123.4	1220
963.4243	2355.9578	2114.5	1220.15
963.5556	2357.3718	2094.65	1204.1
963.6868	2358.7852	2105.25	1212.7
963.818	2360.1978	2100	1210.85
963.9492	2361.6098	2096.35	1204.35
964.0803	2363.021	2094.3	1199.65
964.2114	2364.4315	2105.4	1213
964.3425	2365.8413	2087.9	1197.9
964.4736	2367.2504	2074.35	1186.7
964.6046	2368.6587	2072	1182.05
964.7356	2370.0664	2060.6	1172.3
964.8666	2371.4733	2062.15	1168.9
964.9975	2372.8795	2070.9	1179.4
965.1284	2374.285	2073.3	1183.15
965.2593	2375.6899	2059	1170.2
965.3901	2377.0939	2057	1167.15
965.5209	2378.4973	2050.45	1161.8
965.6517	2379.9	2043.15	1152.85
965.7825	2381.3019	2038.95	1148.45
965.9132	2382.7032	2043.75	1153.95
966.0439	2384.1037	2039.7	1155.55
966.1745	2385.5035	2025.75	1140
966.3051	2386.9027	2024.3	1138.5
966.4357	2388.3011	2026.35	1138.25
966.5663	2389.6987	2022.1	1135.75
966.6968	2391.0957	2015.3	1127.6
966.8273	2392.492	2009.95	1123.7
966.9578	2393.8876	1982	1096.2
967.0882	2395.2824	1997.8	1109.45
967.2186	2396.6765	1988.5	1100.7
967.349	2398.07	1991	1102.1
967.4793	2399.4627	1987.6	1096.35
967.6097	2400.8547	1986.05	1097.3
967.7399	2402.246	1979.6	1084.2
967.8702	2403.6366	1964.8	1075.75
968.0004	2405.0265	1964.45	1077.7
968.1306	2406.4156	1974.8	1082.95
968.2607	2407.8041	1967.05	1077.15
968.3909	2409.1918	1960.85	1069.85
968.521	2410.5789	1955.6	1067.25
968.651	2411.9652	1955.2	1063.45
968.781	2413.3508	1948.6	1060.8
968.911	2414.7358	1947.2	1057.45
969.041	2416.12	1948.05	1060.85
969.1709	2417.5035	1943.35	1057
969.3008	2418.8863	1940.75	1050.5
969.4307	2420.2684	1932.1	1043.95
969.5606	2421.6497	1925.75	1034.45
969.6904	2423.0304	1921.15	1032.7
969.8201	2424.4104	1915.2	1025.15
969.9499	2425.7896	1923.35	1033.1
970.0796	2427.1682	1921.9	1032.8
970.2093	2428.546	1918.5	1029.35
970.3389	2429.9232	1904.65	1013.9
970.4685	2431.2996	1903.15	1012.65
970.5981	2432.6753	1905.4	1016.25
970.7277	2434.0503	1905.55	1014.05
970.8572	2435.4246	1900.95	1012.15
970.9867	2436.7982	1904.9	1011.3
971.1161	2438.1711	1889.05	1001.2
971.2456	2439.5433	1895.3	1004.1
971.375	2440.9148	1903.1	1007.8
971.5043	2442.2856	1875.3	985.75
971.6336	2443.6557	1884.35	994.1
971.7629	2445.025	1872.7	981.9
971.8922	2446.3937	1869.9	980.05
972.0214	2447.7617	1861.1	971
972.1506	2449.1289	1872.75	984.35
972.2798	2450.4955	1863.25	969.85
972.4089	2451.8613	1859.5	972.2
972.538	2453.2265	1853.1	962.9
972.6671	2454.5909	1854.05	964.15
972.7961	2455.9546	1861.1	972.1
972.9251	2457.3177	1850.3	962.7
973.0541	2458.68	1859.55	968.25
973.1831	2460.0416	1854.6	963.65
973.312	2461.4025	1853	963.5
973.4408	2462.7627	1863.25	962.45
973.5697	2464.1222	1845.25	959.25
973.6985	2465.4811	1843.1	955.15
973.8273	2466.8392	1830.3	942.15
973.956	2468.1966	1839.15	948.15
974.0847	2469.5533	1842.45	952.1
974.2134	2470.9093	1830.05	939.75
974.3421	2472.2645	1829.15	939.85
974.4707	2473.6191	1835.05	946.55
974.5993	2474.973	1830.4	938.65
974.7278	2476.3262	1828.8	936.65
974.8563	2477.6787	1814.35	926.9
974.9848	2479.0305	1822.55	935.1
975.1132	2480.3816	1819.25	928.4
975.2417	2481.7319	1811.35	921.05
975.37	2483.0816	1819.8	929.1
975.4984	2484.4306	1807.7	919
975.6267	2485.7789	1802.1	913.8
975.755	2487.1264	1797.55	908.95
975.8833	2488.4733	1793.8	907.2
976.0115	2489.8195	1802.35	895.4
976.1397	2491.165	1789.5	895.95
976.2678	2492.5097	1788.3	898.2
976.3959	2493.8538	1777.45	888.95
976.524	2495.1972	1773.1	884.4
976.6521	2496.5398	1774.5	883.75
976.7801	2497.8818	1778.15	884.2
976.9081	2499.2231	1773.65	882.7
977.036	2500.5637	1766.85	871.8
977.164	2501.9035	1768.8	878.5
977.2918	2503.2427	1766.7	873.05
977.4197	2504.5812	1754.5	864.05
977.5475	2505.919	1752.9	863.85
977.6753	2507.256	1753.55	863.6
977.8031	2508.5924	1741.9	852.85
977.9308	2509.9281	1751.4	853.95
978.0585	2511.2631	1746.7	855.85
978.1861	2512.5974	1742.95	855.1
978.3137	2513.9309	1740.95	850
978.4413	2515.2638	1759.1	844.3
978.5689	2516.596	1737.1	847.3
978.6964	2517.9275	1735.25	844.7
978.8239	2519.2583	1727.05	838.25
978.9513	2520.5884	1725.65	835.7
979.0788	2521.9178	1726.15	836.8
979.2062	2523.2465	1727.95	841.5
979.3335	2524.5745	1717.85	828.6
979.4608	2525.9018	1720.6	831.15
979.5881	2527.2284	1714.55	823.1
979.7154	2528.5543	1719.7	830.45
979.8426	2529.8796	1715.25	825.95
979.9698	2531.2041	1710.2	820.15
980.0969	2532.5279	1707.75	820.35
980.224	2533.851	1715.05	824.05
980.3511	2535.1735	1708.3	818.75
980.4781	2536.4952	1712.55	821.65
980.6052	2537.8163	1707.4	818.35
980.7321	2539.1366	1702.3	811.6
980.8591	2540.4562	1692.45	800.4
980.986	2541.7752	1697.5	806.15
981.1129	2543.0935	1698.6	807.6
981.2397	2544.411	1698.3	805.45
981.3665	2545.7279	1697.3	805.9
981.4933	2547.0441	1685.85	796.35
981.62	2548.3596	1686.85	793.6
981.7467	2549.6744	1692.3	801.45
981.8734	2550.9885	1684.25	790.95
982.0001	2552.3019	1690.05	798.7
982.1267	2553.6146	1676.2	784.75
982.2532	2554.9266	1677.3	783.8
982.3798	2556.2379	1677.8	788.2
982.5063	2557.5485	1677.25	787.35
982.6327	2558.8585	1682.35	784.95
982.7592	2560.1677	1669.5	777.1
982.8856	2561.4762	1674.7	784.6
983.0119	2562.7841	1673.65	781.9
983.1383	2564.0913	1661.9	772.3
983.2646	2565.3977	1663.45	774.3
983.3908	2566.7035	1665.6	777.4
983.517	2568.0086	1665.45	773.2
983.6432	2569.313	1655.4	762.6
983.7694	2570.6167	1667.65	771.9
983.8955	2571.9197	1653.5	761.1
984.0216	2573.222	1655.3	761.95
984.1476	2574.5236	1659.7	768.65
984.2737	2575.8246	1655.15	763.2
984.3996	2577.1248	1653.05	757.75
984.5256	2578.4244	1655.8	764.35
984.6515	2579.7232	1651.55	761.05
984.7774	2581.0214	1673.2	758.1
984.9032	2582.3189	1643.05	753.3
985.029	2583.6157	1655.75	758.4
985.1548	2584.9118	1653.95	762.95
985.2806	2586.2072	1649.7	759.45
985.4063	2587.5019	1643.3	752.2
985.5319	2588.7959	1644.15	751.9
985.6576	2590.0893	1657.7	763
985.7832	2591.3819	1640.6	750.95
985.9087	2592.6739	1645.7	756.8
986.0343	2593.9652	1648.85	757.25
986.1597	2595.2557	1650.5	756.9
986.2852	2596.5456	1642.65	750.15
986.4106	2597.8348	1648.75	757.15
986.536	2599.1234	1639.75	750.75
986.6614	2600.4112	1644.4	754.2
986.7867	2601.6983	1643.3	749.05
986.912	2602.9848	1640.05	748.85
987.0372	2604.2705	1648.3	752.35
987.1624	2605.5556	1639.5	751.3
987.2876	2606.84	1629	740.8
987.4128	2608.1237	1638.35	746.9
987.5379	2609.4067	1626.25	735.35
987.6629	2610.689	1632.05	729.9
987.788	2611.9707	1632.85	738.95
987.913	2613.2516	1625.95	732.75
988.0379	2614.5319	1619.55	729.75
988.1629	2615.8115	1614.75	722.75
988.2878	2617.0903	1616.4	723.95
988.4126	2618.3685	1611.7	721.1
988.5375	2619.6461	1604.15	715.65
988.6622	2620.9229	1609.8	719.95
988.787	2622.199	1600.3	712.7
988.9117	2623.4745	1602.55	712.25
989.0364	2624.7493	1599.95	709.6
989.161	2626.0234	1599.35	710.75
989.2857	2627.2968	1597.15	707.25
989.4102	2628.5695	1604.5	715.4
989.5348	2629.8415	1598.55	708.1
989.6593	2631.1128	1607.15	717.15
989.7837	2632.3835	1591.35	702.65
989.9082	2633.6535	1591.65	703.45
990.0326	2634.9228	1592.7	704.6
990.1569	2636.1914	1590.4	700.3
990.2812	2637.4593	1593.55	702.35
990.4055	2638.7265	1586.65	695.85
990.5298	2639.9931	1589.4	699.05
990.654	2641.259	1585.55	696.9
990.7782	2642.5242	1578.7	688.75
990.9023	2643.7887	1573.7	683.1
991.0264	2645.0525	1574.7	684.2
991.1505	2646.3156	1567.5	676.85
991.2745	2647.5781	1572.6	684.7
991.3985	2648.8398	1570.5	682.3
991.5225	2650.1009	1612.2	683.8
991.6464	2651.3613	1568.1	678.55
991.7703	2652.6211	1563.35	673.25
991.8942	2653.8801	1569.05	680.3
992.018	2655.1385	1561.9	674.4
992.1418	2656.3961	1565.25	675.55
992.2655	2657.6531	1566.65	676.8
992.3892	2658.9094	1559.9	671
992.5129	2660.1651	1559.9	672.75
992.6366	2661.42	1566.85	678.75
992.7602	2662.6743	1576.05	686.2
992.8837	2663.9279	1566.65	680.75
993.0073	2665.1808	1578.3	689.2
993.1307	2666.433	1571.7	680.75
993.2542	2667.6846	1566.9	677.5
993.3776	2668.9354	1568.85	675.8
993.501	2670.1856	1573.45	684.95
993.6244	2671.4351	1572.25	684.55
993.7477	2672.6839	1580.7	690.8
993.8709	2673.9321	1561.95	674.5
993.9942	2675.1795	1576.2	687.85
994.1174	2676.4263	1572.6	682.45
994.2405	2677.6724	1577.7	691.25
994.3637	2678.9179	1569.35	678.7
994.4868	2680.1626	1573.4	685.4
994.6098	2681.4067	1572.5	683.7
994.7328	2682.6501	1575.8	687.45
994.8558	2683.8928	1571.75	682.3
994.9788	2685.1348	1578.55	689.7
995.1017	2686.3761	1562.6	675.8
995.2245	2687.6168	1565.6	676.35
995.3474	2688.8568	1548.4	660.35
995.4702	2690.0961	1546.35	658.25
995.5929	2691.3348	1548.45	658.7
995.7156	2692.5727	1551.05	662.95
995.8383	2693.81	1547.35	659.45
995.961	2695.0466	1542.9	655.55
996.0836	2696.2826	1541.25	651
996.2062	2697.5178	1552	660.3
996.3287	2698.7524	1542	653.75
996.4512	2699.9863	1546.6	656.85
996.5737	2701.2195	1545.45	657.05
996.6961	2702.452	1552.05	660.7
996.8185	2703.6839	1558.4	667.95
996.9408	2704.9151	1549.95	661.65
997.0631	2706.1456	1556.15	668.7
997.1854	2707.3755	1561.05	672.15
997.3077	2708.6046	1570.15	680.8
997.4299	2709.8331	1574.8	688.2
997.552	2711.0609	1579.85	693.05
997.6742	2712.2881	1587.7	699.5
997.7963	2713.5145	1593.45	700.15
997.9183	2714.7403	1602.45	713.8
998.0403	2715.9654	1610.05	719.25
998.1623	2717.1899	1629.7	729.45
998.2842	2718.4136	1637.65	751.7
998.4062	2719.6367	1641.7	751.75
998.528	2720.8591	1659.35	762.3
998.6498	2722.0809	1665.65	778.5
998.7716	2723.3019	1679.2	787.2
998.8934	2724.5223	1685.2	795.35
999.0151	2725.7421	1691.3	801.85
999.1368	2726.9611	1689.15	800.7
999.2584	2728.1795	1689.5	796.5
999.38	2729.3972	1677.5	790.05
999.5016	2730.6142	1671.55	769.75
999.6231	2731.8306	1647.2	757.45
999.7446	2733.0462	1632.95	745.9
999.8661	2734.2612	1620.1	726.95
999.9875	2735.4756	1608.45	717.95
1000.1089	2736.6892	1592.9	704.8
1000.2302	2737.9022	1573.75	685.9
1000.3515	2739.1145	1556.65	670.75
1000.4728	2740.3262	1554.95	660.9
1000.594	2741.5372	1537.1	651.25
1000.7152	2742.7475	1526.6	638.2
1000.8363	2743.9571	1522.25	631.9
1000.9575	2745.1661	1509.6	616.7
1001.0785	2746.3744	1496.5	607.8
1001.1996	2747.582	1492.2	605.3
1001.3206	2748.7889	1484.75	594
1001.4415	2749.9952	1475.35	588.55
1001.5625	2751.2008	1474.65	587.35
1001.6833	2752.4057	1469.75	579.95
1001.8042	2753.61	1455.15	566.05
1001.925	2754.8136	1459	569
1002.0458	2756.0165	1456.35	567.95
1002.1665	2757.2188	1460.4	573.8
1002.2872	2758.4204	1454.2	567.15
1002.4078	2759.6213	1456.65	568.45
1002.5285	2760.8215	1457.25	564.55
1002.649	2762.0211	1455.45	565.35
1002.7696	2763.22	1450.65	560.5
1002.8901	2764.4182	1446.9	558.85
1003.0106	2765.6158	1447.9	560.65
1003.131	2766.8127	1431	544.05
1003.2514	2768.009	1435.95	549.05
1003.3717	2769.2045	1439.55	551.65
1003.492	2770.3994	1440.25	551.25
1003.6123	2771.5936	1432.2	543.55
1003.7325	2772.7872	1428.85	543.7
1003.8527	2773.9801	1425.95	537.75
1003.9729	2775.1723	1439.2	533.55
1004.093	2776.3639	1424.9	536.4
1004.2131	2777.5548	1427	540.05
1004.3331	2778.745	1418.15	530.3
1004.4531	2779.9346	1428.65	544.45
1004.5731	2781.1235	1424.55	538
1004.693	2782.3117	1419.45	534.05
1004.8129	2783.4992	1429.65	543.3
1004.9328	2784.6861	1434.9	546.3
1005.0526	2785.8723	1435.65	546.8
1005.1723	2787.0579	1440.5	552.35
1005.2921	2788.2428	1449	563.7
1005.4118	2789.427	1454.85	569.2
1005.5314	2790.6106	1467.6	579.8
1005.651	2791.7935	1472.25	586
1005.7706	2792.9757	1479.35	594.55
1005.8902	2794.1573	1491.15	601.4
1006.0097	2795.3382	1499.85	614.8
1006.1291	2796.5184	1511.85	627.1
1006.2485	2797.698	1514.9	627.05
1006.3679	2798.8769	1535.05	648
1006.4873	2800.0551	1552.05	665.95
1006.6066	2801.2327	1567.35	677.65
1006.7258	2802.4096	1585.25	700.95
1006.8451	2803.5859	1593.45	704.9
1006.9642	2804.7615	1622.8	734.5
1007.0834	2805.9364	1631.5	746.7
1007.2025	2807.1106	1663.2	780.4
1007.3216	2808.2842	1694.8	809.7
1007.4406	2809.4572	1711.85	824.75
1007.5596	2810.6294	1752.4	866.3
1007.6785	2811.801	1797.4	913.55
1007.7975	2812.972	1825.5	939.3
1007.9163	2814.1423	1861.7	975.3
1008.0352	2815.3119	1909	1022.8
1008.154	2816.4808	1950.55	1064.15
1008.2727	2817.6491	2005.35	1117.5
1008.3914	2818.8167	2049.55	1165.2
1008.5101	2819.9837	2096.65	1207.95
1008.6288	2821.15	2154.25	1268.8
1008.7474	2822.3157	2192.3	1310.15
1008.8659	2823.4807	2251.65	1365.8
1008.9844	2824.645	2305	1417.4
1009.1029	2825.8086	2339.5	1454.3
1009.2214	2826.9716	2397.65	1511.25
1009.3398	2828.134	2442.15	1556.4
1009.4581	2829.2957	2479.2	1595.85
1009.5764	2830.4567	2520.05	1636.3
1009.6947	2831.617	2542.35	1659.8
1009.813	2832.7767	2542.95	1658.75
1009.9312	2833.9358	2545.9	1663.5
1010.0493	2835.0941	2538.15	1649.7
1010.1675	2836.2519	2527	1642.65
1010.2855	2837.4089	2514.7	1628.4
1010.4036	2838.5653	2509.75	1623.95
1010.5216	2839.7211	2498.45	1612.45
1010.6396	2840.8761	2509.75	1622.75
1010.7575	2842.0306	2517.6	1635.65
1010.8754	2843.1843	2548.2	1664.8
1010.9932	2844.3374	2590.05	1706.4
1011.111	2845.4899	2642.7	1757.5
1011.2288	2846.6417	2700.7	1817
1011.3465	2847.7928	2773.9	1889.8
1011.4642	2848.9433	2850.25	1966.35
1011.5818	2850.0931	2911.4	2027.9
1011.6995	2851.2422	2983.9	2096.3
1011.817	2852.3907	3039.3	2154.75
1011.9345	2853.5385	3108.85	2222.6
1012.052	2854.6857	3169.65	2273.35
1012.1695	2855.8323	3198.05	2311.75
1012.2869	2856.9781	3253.55	2368.75
1012.4042	2858.1233	3294.7	2409.5
1012.5216	2859.2679	3343	2459.35
1012.6389	2860.4118	3401.35	2517.55
1012.7561	2861.555	3451.75	2562.8
1012.8733	2862.6976	3469.65	2582.9
1012.9905	2863.8395	3512.8	2629.55
1013.1076	2864.9808	3534.35	2650.1
1013.2247	2866.1214	3534.95	2650.05
1013.3417	2867.2614	3572.7	2686.75
1013.4587	2868.4007	3586.6	2699.95
1013.5757	2869.5393	3598	2711.6
1013.6926	2870.6773	3604.9	2717.8
1013.8095	2871.8146	3626	2737.85
1013.9263	2872.9513	3644.9	2757.4
1014.0431	2874.0874	3623.65	2737.7
1014.1599	2875.2227	3604.3	2719.2
1014.2766	2876.3574	3580.45	2696.65
1014.3933	2877.4915	3549.85	2667.2
1014.51	2878.6249	3534.95	2650.75
1014.6266	2879.7577	3519.6	2634.65
1014.7431	2880.8898	3507.4	2612.9
1014.8596	2882.0212	3481.65	2597.4
1014.9761	2883.152	3475.25	2591.45
1015.0925	2884.2821	3453.25	2569.7
1015.2089	2885.4116	3442.85	2556.8
1015.3253	2886.5405	3446.6	2564.7
1015.4416	2887.6686	3472.5	2585.25
1015.5579	2888.7962	3446.85	2566.4
1015.6741	2889.923	3463.75	2579.5
1015.7903	2891.0493	3471.6	2588.45
1015.9065	2892.1748	3485.8	2601.95
1016.0226	2893.2997	3499.1	2613.75
1016.1387	2894.424	3525	2640.3
1016.2547	2895.5476	3540.8	2657.1
1016.3707	2896.6706	3563.15	2680.8
1016.4866	2897.7929	3574.35	2689.7
1016.6025	2898.9145	3592.9	2710.05
1016.7184	2900.0355	3640.1	2757
1016.8342	2901.1559	3676	2791.8
1016.95	2902.2756	3694.3	2811
1017.0658	2903.3946	3718.9	2835
1017.1815	2904.513	3750.6	2864.85
1017.2971	2905.6308	3781.15	2898.55
1017.4127	2906.7479	3805.7	2922.45
1017.5283	2907.8643	3832.15	2948.35
1017.6439	2908.9801	3849.25	2967.65
1017.7594	2910.0953	3851.25	2967.9
1017.8748	2911.2098	3856.1	2969.45
1017.9902	2912.3236	3851.3	2959.7
1018.1056	2913.4368	3831.8	2945.7
1018.2209	2914.5494	3810.9	2927.5
1018.3362	2915.6613	3773.55	2884.2
1018.4515	2916.7725	3764.25	2878.35
1018.5667	2917.8831	3734.95	2849.15
1018.6819	2918.9931	3707.9	2821.5
1018.797	2920.1024	3678.65	2794.6
1018.9121	2921.211	3661.8	2778.15
1019.0271	2922.319	3634.35	2751.35
1019.1421	2923.4264	3611.35	2730
1019.2571	2924.5331	3608.6	2725.25
1019.372	2925.6391	3602.45	2718.55
1019.4869	2926.7445	3590.45	2710.3
1019.6017	2927.8493	3577.6	2694.6
1019.7165	2928.9534	3585.3	2700.7
1019.8313	2930.0569	3577.7	2691.85
1019.946	2931.1597	3588.9	2702.65
1020.0606	2932.2619	3582.05	2697.25
1020.1753	2933.3634	3582.05	2697.95
1020.2899	2934.4643	3555.65	2664.85
1020.4044	2935.5645	3558.45	2669.35
1020.5189	2936.6641	3522.6	2636.4
1020.6334	2937.763	3485	2603.9
1020.7478	2938.8613	3439.35	2556.25
1020.8622	2939.959	3392.2	2503.65
1020.9765	2941.056	3316.8	2433.55
1021.0908	2942.1523	3252.6	2369
1021.2051	2943.248	3169.55	2286.85
1021.3193	2944.3431	3072.4	2191.45
1021.4334	2945.4375	2976.05	2093
1021.5476	2946.5313	2874.7	1995.15
1021.6617	2947.6244	2778.75	1894.25
1021.7757	2948.7169	2671.55	1789.5
1021.8897	2949.8087	2595.5	1713.25
1022.0037	2950.8999	2502.6	1618.8
1022.1176	2951.9904	2422.8	1540.35
1022.2315	2953.0803	2353.15	1469.45
1022.3453	2954.1696	2291.15	1410.25
1022.4591	2955.2582	2245.7	1364.15
1022.5728	2956.3462	2200.1	1316.8
1022.6865	2957.4335	2156.8	1274.35
1022.8002	2958.5202	2122.6	1238.85
1022.9138	2959.6062	2092.5	1210.05
1023.0274	2960.6916	2072.35	1189.95
1023.141	2961.7764	2053.7	1169.4
1023.2545	2962.8605	2044.8	1163.8
1023.3679	2963.9439	2025.4	1144.1
1023.4813	2965.0267	2026.85	1143.4
1023.5947	2966.1089	2029.8	1126.5
1023.708	2967.1905	2008.55	1127
1023.8213	2968.2714	1999.45	1118.4
1023.9346	2969.3516	1997.95	1116.3
1024.0478	2970.4312	2000.8	1111.7
1024.1609	2971.5102	1998.8	1116.2
1024.274	2972.5885	1996.85	1116.6
1024.3871	2973.6662	2008.65	1121.1
1024.5002	2974.7432	1998.9	1118.5
1024.6132	2975.8196	2002.7	1121.55
1024.7261	2976.8954	1991.6	1110.25
1024.839	2977.9705	1975.05	1093.75
1024.9519	2979.045	1959.9	1078.15
1025.0647	2980.1188	1955.05	1073.4
1025.1775	2981.192	1929.05	1047.7
1025.2902	2982.2645	1922.2	1039.4
1025.4029	2983.3364	1882.5	1001.35
1025.5156	2984.4077	1852.45	969.35
1025.6282	2985.4783	1833.55	946.75
1025.7407	2986.5483	1800.65	919.6
1025.8532	2987.6177	1768.65	888.65
1025.9657	2988.6864	1740	856.75
1026.0782	2989.7545	1706.4	825.25
1026.1906	2990.8219	1665.65	787.1
1026.3029	2991.8887	1637	753.7
1026.4152	2992.9548	1610.65	727.3
1026.5275	2994.0204	1575.9	695.75
1026.6397	2995.0852	1545.3	664.8
1026.7519	2996.1495	1522.55	636.95
1026.864	2997.2131	1503.95	622.6
1026.9761	2998.276	1479.75	600.65
1027.0882	2999.3383	1451	568.55
1027.2002	3000.4	1438.75	556.1
1027.3122	3001.4611	1422.95	544.55
1027.4241	3002.5215	1405.6	521.25
1027.536	3003.5812	1392.1	512.95
1027.6478	3004.6404	1383.55	502.2
1027.7596	3005.6989	1367.95	485.35
1027.8714	3006.7567	1361.15	480.05
1027.9831	3007.8139	1377.6	464.35
1028.0947	3008.8705	1342.8	462
1028.2064	3009.9264	1347.7	447.15
1028.3179	3010.9818	1334.95	454.05
1028.4295	3012.0364	1329.3	446.75
1028.541	3013.0905	1321.1	440.65
1028.6524	3014.1439	1319.8	439.65
1028.7638	3015.1966	1313.95	433.8
1028.8752	3016.2487	1314.75	433.5
1028.9865	3017.3002	1310.8	422.65
1029.0978	3018.3511	1303.8	424.7
1029.209	3019.4013	1308.75	427
1029.3202	3020.4509	1304.65	425.25
1029.4314	3021.4998	1301.95	419.1
1029.5425	3022.5481	1305.55	424.25
1029.6535	3023.5958	1303.5	423.05
1029.7645	3024.6428	1304.25	419.9
1029.8755	3025.6892	1301.05	423.65
1029.9864	3026.735	1311.6	431.05
1030.0973	3027.7802	1308.5	427.95
1030.2082	3028.8247	1309.3	427.25
1030.319	3029.8685	1313.75	432.5
1030.4297	3030.9118	1310.85	428.45
1030.5404	3031.9544	1311.7	430.8
1030.6511	3032.9963	1318.2	437.35
1030.7617	3034.0376	1321.85	441.95
1030.8723	3035.0783	1324.3	440.5
1030.9829	3036.1184	1322.5	441.9
1031.0934	3037.1578	1329.7	450.75
1031.2038	3038.1966	1333.8	452.2
1031.3142	3039.2348	1330.8	452
1031.4246	3040.2723	1339.45	448.3
1031.5349	3041.3092	1329.9	451.7
1031.6452	3042.3455	1333.2	451.6
1031.7554	3043.3811	1320.75	439.4
1031.8656	3044.4161	1319.65	436.2
1031.9758	3045.4505	1319.7	438.55
1032.0859	3046.4842	1311.75	429.65
1032.1959	3047.5173	1314.4	433.85
1032.3059	3048.5498	1305.5	426.4
1032.4159	3049.5816	1305.3	423.95
1032.5258	3050.6128	1304.75	423.4
1032.6357	3051.6434	1293.25	410.75
1032.7455	3052.6734	1287.75	405.6
1032.8553	3053.7027	1285.35	405.6
1032.9651	3054.7314	1276.45	396
1033.0748	3055.7594	1281.55	401.25
1033.1845	3056.7868	1276.4	395.25
1033.2941	3057.8136	1261.9	382.2
1033.4037	3058.8398	1260.25	382.55
1033.5132	3059.8653	1257.4	378.1
1033.6227	3060.8902	1250.95	369.75
1033.7321	3061.9145	1252.5	371.9
1033.8415	3062.9381	1253.45	373.8
1033.9509	3063.9612	1260	363.15
1034.0602	3064.9835	1238.65	357.55
1034.1694	3066.0053	1231.25	347.75
1034.2787	3067.0264	1227.45	349.4
1034.3878	3068.0469	1221.35	340.05
1034.497	3069.0668	1217.7	332.7
1034.6061	3070.086	1206.65	327.2
1034.7151	3071.1046	1208.35	327.15
1034.8241	3072.1226	1198.2	315.45
1034.9331	3073.1399	1195.3	314.75
1035.042	3074.1567	1176.55	297.2
1035.1508	3075.1727	1175.45	293.75
1035.2597	3076.1882	1164.85	284.85
1035.3684	3077.203	1159.55	278.65
1035.4772	3078.2173	1157.1	276.25
1035.5859	3079.2308	1150.05	267.8
1035.6945	3080.2438	1142.1	261.05
1035.8031	3081.2561	1131.4	249.95
1035.9117	3082.2678	1120.25	240.2
1036.0202	3083.2789	1122.5	239.85
1036.1286	3084.2893	1112.9	231.95
1036.2371	3085.2991	1106.8	225.5
1036.3454	3086.3083	1106.75	220.6
1036.4538	3087.3169	1098.25	218.95
1036.562	3088.3248	1095.3	213.65
1036.6703	3089.3321	1093.2	211.25
1036.7785	3090.3388	1084.7	204.7
1036.8866	3091.3449	1081.75	200
1036.9948	3092.3503	1080.3	199.5
1037.1028	3093.3551	1074.15	196.65
1037.2108	3094.3593	1065.25	184.15
1037.3188	3095.3629	1062.45	183.25
1037.4267	3096.3658	1070.5	189.35
1037.5346	3097.3681	1067.85	186.35
1037.6425	3098.3698	1055.55	174.55
1037.7503	3099.3708	1063.05	175.9
1037.858	3100.3713	1053.95	176
1037.9657	3101.3711	1050.5	168.55
1038.0734	3102.3702	1187.8	173.35
1038.181	3103.3688	1046.85	165.95
1038.2886	3104.3667	1045.6	164.55
1038.3961	3105.364	1042.85	163.3
1038.5036	3106.3607	1041.15	158.65
1038.611	3107.3568	1042.9	161.85
1038.7184	3108.3522	1037.1	156.15
1038.8257	3109.347	1038	155.95
1038.933	3110.3412	1039.6	157.45
1039.0403	3111.3348	1035.2	156.1
1039.1475	3112.3277	1029.95	150.9
1039.2547	3113.32	1030.75	151.7
1039.3618	3114.3117	1032.6	152.9
1039.4689	3115.3028	1030.1	149.95
1039.5759	3116.2932	1025.55	144.4
1039.6829	3117.2831	1029.95	145.5
1039.7898	3118.2723	1025.3	145.5
1039.8967	3119.2608	1020.1	139
1040.0035	3120.2488	1021.85	142.8
1040.1103	3121.2361	1023.6	144.85
1040.2171	3122.2229	1017.6	137.1
1040.3238	3123.209	1016.05	136.1
1040.4305	3124.1944	1014.4	132.15
1040.5371	3125.1793	1013	129.45
1040.6437	3126.1635	1012.5	133.75
1040.7502	3127.1471	1008.05	129.4
1040.8567	3128.1301	1011.65	133.35
1040.9631	3129.1125	1007.85	130.6
1041.0695	3130.0942	1009.25	129.55
1041.1759	3131.0753	1016.05	128.95
1041.2822	3132.0558	1007.75	123.9
1041.3884	3133.0357	1007.05	126.55
1041.4946	3134.015	1006	125.05
1041.6008	3134.9936	1006.55	122.85
1041.7069	3135.9716	1018.4	120.6
1041.813	3136.949	999	120.1
1041.919	3137.9258	1014.45	115.9
1042.025	3138.902	1001.1	116.7
1042.1309	3139.8775	995.75	117
1042.2368	3140.8524	995.3	114.6
1042.3427	3141.8267	1000.9	120.7
1042.4485	3142.8004	995.35	116.35
1042.5542	3143.7735	999.1	114.25
1042.6599	3144.7459	996.65	117.1
1042.7656	3145.7178	992.45	112.15
1042.8712	3146.689	989.6	111.75
1042.9768	3147.6596	991.65	110.4
1043.0823	3148.6295	989.95	109.8
1043.1878	3149.5989	986.5	106.9
1043.2932	3150.5676	986.6	110.85
1043.3986	3151.5357	983.8	107.2
1043.5039	3152.5032	981.1	104.15
1043.6092	3153.4701	980.3	100.6
1043.7145	3154.4364	986	102.85
1043.8197	3155.402	978.6	100.5
1043.9248	3156.367	979.25	96.75
1044.03	3157.3315	1011.65	103.9
1044.135	3158.2952	978.55	98
1044.24	3159.2584	976.4	95.4
1044.345	3160.221	979.3	100.65
1044.4499	3161.1829	976.8	99.95
1044.5548	3162.1442	977.3	99.95
1044.6596	3163.105	972.05	93.45
1044.7644	3164.065	973.2	93.75
1044.8692	3165.0245	977.35	97.65
1044.9739	3165.9834	971.8	94.3
1045.0785	3166.9416	970.45	92.15
1045.1831	3167.8993	972.5	95.7
1045.2877	3168.8563	969.55	89
1045.3922	3169.8127	974.55	96
1045.4966	3170.7684	971.6	92.45
1045.6011	3171.7236	970.9	93.2
1045.7054	3172.6782	968.75	89.6
1045.8098	3173.6321	968.65	87.9
1045.914	3174.5854	972.45	89.15
1046.0183	3175.5381	967.55	90.05
1046.1224	3176.4902	969.05	91.3
1046.2266	3177.4417	965.35	86.4
1046.3307	3178.3926	962.9	85.25
1046.4347	3179.3428	961.35	85.35
1046.5387	3180.2924	961.95	81.9
1046.6427	3181.2415	964.75	85.75
1046.7466	3182.1899	963	82.8
1046.8504	3183.1377	964.65	86.15
1046.9542	3184.0848	963.45	81.1
1047.058	3185.0314	960.6	82.25
1047.1617	3185.9773	960.1	82.75
1047.2654	3186.9227	960.65	82.9
1047.369	3187.8674	960.7	82.35
1047.4726	3188.8115	962	79.5
1047.5761	3189.755	960.3	82.95
1047.6796	3190.6979	959.8	81.8
1047.783	3191.6402	960.5	84.45
1047.8864	3192.5818	960.45	82.05
1047.9898	3193.5229	974.65	77.45
1048.0931	3194.4633	953.7	77.1
1048.1963	3195.4031	956.1	77.5
1048.2995	3196.3423	953.15	73.5
1048.4027	3197.2809	953.9	74.7
1048.5058	3198.2189	955.15	77.8
1048.6089	3199.1563	958.2	73.3
1048.7119	3200.0931	952.85	74.85
1048.8148	3201.0292	950.7	75.3
1048.9178	3201.9648	953	76.1
1049.0206	3202.8997	956.8	76.75
1049.1235	3203.834	950.9	73
1049.2262	3204.7677	950.1	72.1
1049.329	3205.7008	949.35	69.95
1049.4317	3206.6333	948.65	69.7
1049.5343	3207.5652	952.3	74.2
1049.6369	3208.4964	949.05	68.95
1049.7394	3209.4271	951.3	73.5
1049.8419	3210.3571	948.05	70.9
1049.9444	3211.2865	949.15	69.75
1050.0468	3212.2154	948.45	71.5
1050.1491	3213.1436	950.7	72.1
1050.2514	3214.0712	951.6	67.65
1050.3537	3214.9982	944	67.55
1050.4559	3215.9246	947.7	70.75
1050.5581	3216.8503	944.25	67.5
1050.6602	3217.7755	945.75	67.8
1050.7623	3218.7001	945.95	67.75
1050.8643	3219.624	944.3	67.45
1050.9663	3220.5473	945.45	66.4
1051.0682	3221.4701	946.3	67.2
1051.1701	3222.3922	945	66.15
1051.2719	3223.3137	944.8	67.95
1051.3737	3224.2346	944.5	65.75
1051.4754	3225.1549	943.4	65.05
1051.5771	3226.0746	946.4	69.3
1051.6788	3226.9937	940	61.7
1051.7804	3227.9121	940.35	63.55
1051.8819	3228.83	942.3	66.2
1051.9834	3229.7473	939.95	64
1052.0849	3230.6639	941.95	64.45
1052.1863	3231.5799	939.75	62.9
1052.2876	3232.4954	940	61.75
1052.3889	3233.4102	939	62.6
1052.4902	3234.3244	939.7	61.7
1052.5914	3235.238	937.5	58.6
1052.6926	3236.151	963.1	61.05
1052.7937	3237.0634	940.3	65.05
1052.8948	3237.9752	937.4	61.6
1052.9958	3238.8864	935.5	57.95
1053.0968	3239.797	935.35	58
1053.1977	3240.7069	939.65	61.35
1053.2986	3241.6163	936.2	57.3
1053.3994	3242.5251	934.05	58.25
1053.5002	3243.4332	936.1	59.15
1053.6009	3244.3408	935.65	57.85
1053.7016	3245.2477	934.45	58.75
1053.8022	3246.154	935.1	58.2
1053.9028	3247.0598	933.5	54.2
1054.0034	3247.9649	932.55	56.4
1054.1039	3248.8694	932.65	56.65
1054.2043	3249.7733	931	54.4
1054.3047	3250.6766	931.65	55.4
1054.4051	3251.5793	931	53.1
1054.5054	3252.4814	928.9	53.25
1054.6056	3253.3829	927.7	48.85
1054.7058	3254.2838	927.95	50.9
1054.806	3255.1841	929.45	51.65
1054.9061	3256.0838	927.15	50.6
1055.0061	3256.9829	926.7	50.6
1055.1062	3257.8814	930.15	49.8
1055.2061	3258.7792	928.7	51.4
1055.306	3259.6765	926.5	50
1055.4059	3260.5731	921.65	44
1055.5057	3261.4692	922.7	42.95
1055.6055	3262.3647	925.55	47.75
1055.7052	3263.2595	922.55	46.85
1055.8049	3264.1538	923.05	45.35
1055.9045	3265.0474	922.45	42.3
1056.0041	3265.9404	919.05	43.75
1056.1036	3266.8329	919.35	42.7
1056.2031	3267.7247	929.7	43.95
1056.3025	3268.616	916	40.55
1056.4019	3269.5066	916.7	39.1
1056.5013	3270.3966	917.35	40.15
1056.6005	3271.286	912.15	35
