Software Version:	3.9.2.0
Unit SN:	10000200
Spectrometer SN:	6960
Date:	3/8/2024 11:12:35 AM
Data Line Index:	25
Spectral Points:	2048
Integration time (ms):	125
Averages:	20
Delay (ms):	30000
Sequence Number:	1
Processing:	dark subtract
Laser Power (mW):	300
Laser Current (mA):	821
Laser Diode Temp (C):	25
Laser Case Temp (C):	24.5
System Temp (C):	24.4
Spectrometer Temp (C):	22.5
CCD Temp (C):	0.013
Secondary Temp (C):	20.007
Heatsink Temp (C):	19.328
CCDPCB Temp (C):	32.817
SecondaryPCB Temp (C):	25.947

Wavelength	RamanShift	Raw Counts	Dark Subtracted
787.061	30.1047	431.3	22.65
787.2016	32.3739	430.35	22.35
787.3422	34.6426	434.15	25.2
787.4828	36.9109	435.7	23
787.6235	39.1787	438.4	23.95
787.7642	41.4461	449.65	30.6
787.9049	43.7131	454	31.7
788.0456	45.9796	457.05	31.35
788.1863	48.2456	463.15	33.95
788.3271	50.5112	471.5	38.8
788.4679	52.7764	475.4	38.8
788.6087	55.0411	482.25	42.15
788.7496	57.3054	489.05	44.5
788.8904	59.5692	494.6	47.55
789.0313	61.8326	500.2	50.85
789.1722	64.0955	508.9	55.8
789.3132	66.3579	516.95	58.5
789.4541	68.6199	528.8	66.3
789.5951	70.8815	551.45	86.55
789.7361	73.1426	597.3	127.6
789.8771	75.4032	695.8	222.85
790.0181	77.6634	948.15	473.9
790.1592	79.9231	1533.05	1057
790.3003	82.1824	2728.75	2246.15
790.4414	84.4412	4751.55	4260.95
790.5825	86.6995	7455.3	6955.6
790.7237	88.9574	10003.15	9498.7
790.8648	91.2148	11720.25	11209.9
791.006	93.4717	12547.25	12031.15
791.1472	95.7282	12705.65	12185.8
791.2885	97.9842	12639.1	12121.7
791.4297	100.2398	12468.9	11949.1
791.571	102.4949	12238.45	11715.9
791.7123	104.7495	12068.05	11540.3
791.8536	107.0036	11875.8	11345.75
791.9949	109.2573	11644.15	11115.95
792.1363	111.5105	11357.3	10827.2
792.2777	113.7632	10999.25	10467.25
792.4191	116.0154	10627.3	10085.05
792.5605	118.2672	10199	9661.5
792.7019	120.5185	9766.25	9228.2
792.8434	122.7693	9343.85	8801.2
792.9849	125.0197	8969.2	8423.05
793.1264	127.2696	8648.95	8100.35
793.2679	129.519	8432.2	7877.25
793.4094	131.7679	8264.6	7710.95
793.551	134.0163	8181.65	7623.9
793.6926	136.2642	8119.8	7559.25
793.8342	138.5117	8083.2	7518.5
793.9758	140.7587	7997.25	7430.45
794.1175	143.0052	7859.75	7292.45
794.2591	145.2512	7666	7098
794.4008	147.4967	7428.3	6855.85
794.5425	149.7417	7230.4	6654.55
794.6842	151.9863	7074.65	6496.85
794.826	154.2304	6989.95	6409.1
794.9677	156.4739	6938.25	6352.2
795.1095	158.717	6983.65	6394.95
795.2513	160.9596	7086.55	6494.9
795.3931	163.2017	7207.75	6615.3
795.535	165.4433	7330.4	6733.8
795.6768	167.6844	7338.9	6739.8
795.8187	169.925	7252.55	6649.1
795.9606	172.1651	7029.35	6424.55
796.1025	174.4047	6811.95	6201.25
796.2445	176.6439	6621.5	6010.8
796.3864	178.8825	6473.55	5859.25
796.5284	181.1206	6381.1	5763.7
796.6704	183.3582	6317.25	5695.9
796.8124	185.5954	6307.55	5683.75
796.9544	187.832	6287.95	5661.9
797.0965	190.0681	6269.95	5641.2
797.2386	192.3037	6293	5660.65
797.3806	194.5388	6309.7	5674.55
797.5228	196.7734	6342.95	5705.35
797.6649	199.0075	6405.8	5768.05
797.807	201.2411	6486.3	5846.35
797.9492	203.4742	6574.8	5933.05
798.0914	205.7068	6702.7	6055.95
798.2336	207.9389	6777.05	6129.05
798.3758	210.1704	6840.6	6200.35
798.518	212.4015	6842.8	6213.95
798.6603	214.632	6870.9	6249.2
798.8025	216.862	6872.65	6248.4
798.9448	219.0915	6915.25	6289.1
799.0871	221.3205	6985.35	6356.95
799.2294	223.549	7028.7	6405.75
799.3718	225.777	7019.75	6394.85
799.5141	228.0044	7008.45	6376.55
799.6565	230.2314	6982.95	6347.65
799.7989	232.4578	6933.85	6293.7
799.9413	234.6837	6869.8	6221.95
800.0837	236.909	6815.2	6166.55
800.2262	239.1339	6774.95	6102.2
800.3687	241.3582	6710.6	6051.8
800.5111	243.582	6719.5	6032
800.6536	245.8053	6732.6	6057.95
800.7961	248.0281	6754.55	6083.3
800.9387	250.2503	6782.25	6108.9
801.0812	252.472	6819.9	6143.05
801.2238	254.6932	6825.15	6151.05
801.3664	256.9139	6828.1	6149.7
801.509	259.134	6880.45	6196.45
801.6516	261.3536	6956.7	6279.25
801.7942	263.5727	7088.35	6406.3
801.9369	265.7912	7296.95	6615.35
802.0795	268.0092	7541.15	6861.65
802.2222	270.2267	7797.4	7115.4
802.3649	272.4436	8024.2	7340.05
802.5076	274.6601	8178.35	7481.7
802.6504	276.8759	8274.85	7583.35
802.7931	279.0913	8397.2	7706.45
802.9359	281.3061	8446.55	7750.65
803.0787	283.5204	8531.65	7836.15
803.2215	285.7341	8651.1	7952.25
803.3643	287.9473	8764.95	8065.95
803.5071	290.16	8765.25	8062.55
803.6499	292.3721	8624.65	7928.15
803.7928	294.5837	8408	7713
803.9357	296.7947	8211.65	7516.65
804.0786	299.0052	8105.7	7406.7
804.2215	301.2152	8046.7	7347.2
804.3644	303.4246	8006.7	7307.2
804.5074	305.6334	7953.85	7255.1
804.6503	307.8418	7932.45	7227.65
804.7933	310.0495	7838.3	7133.4
804.9363	312.2568	7722.75	7016.15
805.0793	314.4635	7524	6816.35
805.2223	316.6696	7311.7	6603.15
805.3653	318.8752	7098.95	6381.9
805.5084	321.0802	6968.7	6257.9
805.6514	323.2847	6921.45	6205.65
805.7945	325.4887	6919.9	6205.55
805.9376	327.692	7006.15	6289.85
806.0807	329.8949	7175.15	6459.35
806.2238	332.0972	7393.75	6675.2
806.367	334.2989	7589.5	6867.7
806.5101	336.5001	7608.75	6888.2
806.6533	338.7007	7488.95	6764.8
806.7965	340.9008	7287.05	6562.95
806.9397	343.1003	6996.3	6270.45
807.0829	345.2992	6759.5	6029.6
807.2261	347.4976	6562.85	5835.6
807.3693	349.6955	6378.7	5644.95
807.5126	351.8927	6297.7	5563.5
807.6559	354.0895	6221.1	5475.6
807.7991	356.2856	6158.5	5421.45
807.9424	358.4812	6126.85	5387.05
808.0857	360.6763	6083.3	5346.2
808.2291	362.8707	6046.85	5304.75
808.3724	365.0646	6076.95	5334.65
808.5158	367.258	6080.85	5333.5
808.6591	369.4508	6147.8	5397.25
808.8025	371.643	6263.9	5516.55
808.9459	373.8346	6390.25	5640.8
809.0893	376.0257	6553.8	5799.95
809.2327	378.2162	6699.25	5950.9
809.3762	380.4062	6783.45	6034.65
809.5196	382.5956	6717.85	5970
809.6631	384.7844	6568.9	5827.05
809.8066	386.9726	6333.65	5591.55
809.9501	389.1603	6189	5449.4
810.0936	391.3474	6131.5	5341.9
810.2371	393.5339	6069.45	5322.3
810.3806	395.7199	6096.5	5349.85
810.5241	397.9052	6215.05	5470.05
810.6677	400.09	6419	5670.45
810.8113	402.2743	6643.6	5895.9
810.9548	404.4579	6774.15	6020.65
811.0984	406.641	6957.2	6204.95
811.2421	408.8235	7137	6382.1
811.3857	411.0054	7287.15	6529.85
811.5293	413.1868	7376.8	6616.1
811.673	415.3675	7354.15	6591.5
811.8166	417.5477	7258.4	6497.6
811.9603	419.7273	7226.65	6458.45
812.104	421.9064	7115.7	6342.9
812.2477	424.0848	6942.65	6174.85
812.3914	426.2627	6682.25	5917.4
812.5351	428.4399	6370.4	5603.1
812.6788	430.6166	6150.8	5378.65
812.8226	432.7928	5930.6	5156.05
812.9663	434.9683	5811.4	5036.45
813.1101	437.1432	5682.95	4906.65
813.2539	439.3176	5603.95	4828.9
813.3977	441.4914	5557.25	4784.95
813.5415	443.6645	5523.2	4749.4
813.6853	445.8371	5510.65	4736
813.8291	448.0091	5498.4	4723.6
813.973	450.1806	5486.55	4712.25
814.1168	452.3514	5483.5	4705.35
814.2607	454.5216	5508.5	4720.85
814.4046	456.6913	5507.1	4726.1
814.5485	458.8603	5527.1	4747
814.6924	461.0288	5547.35	4767.6
814.8363	463.1967	5551.2	4772.35
814.9802	465.3639	5568.6	4788.15
815.1241	467.5306	5522.7	4740.2
815.2681	469.6967	5474.95	4693.5
815.412	471.8622	5467.95	4686.3
815.556	474.0271	5458.5	4678.45
815.7	476.1914	5433.65	4648.65
815.844	478.3551	5400.6	4619.4
815.988	480.5182	5388.7	4603.1
816.132	482.6807	5430.75	4647.45
816.276	484.8426	5505	4722.05
816.4201	487.0039	5665	4880.15
816.5641	489.1647	5931.8	5144.2
816.7082	491.3248	6138.5	5350.4
816.8522	493.4843	6230.05	5443.05
816.9963	495.6432	6183	5395
817.1404	497.8015	6031.95	5237.1
817.2845	499.9592	5853.3	5063.2
817.4286	502.1163	5609.75	4818.65
817.5727	504.2728	5408.55	4613.8
817.7168	506.4287	5303.95	4513.35
817.861	508.5839	5222.65	4429.4
818.0051	510.7386	5182.45	4391.1
818.1493	512.8927	5191.2	4391.35
818.2935	515.0461	5230.7	4433.8
818.4377	517.199	5288.35	4494.6
818.5818	519.3512	5463.15	4667.05
818.726	521.5029	5786.15	4984.9
818.8703	523.6539	6081.05	5282.2
819.0145	525.8043	6163.55	5363.25
819.1587	527.9541	5940.7	5139.6
819.303	530.1033	5598.8	4800.35
819.4472	532.2519	5363.8	4564.55
819.5915	534.3999	5231.35	4428.3
819.7357	536.5472	5193.05	4390.5
819.88	538.694	5191.85	4392.55
820.0243	540.8401	5221.85	4419.6
820.1686	542.9856	5316	4514.15
820.3129	545.1305	5421.05	4615.7
820.4572	547.2748	5465.6	4660.7
820.6016	549.4185	5506.8	4701.75
820.7459	551.5615	5525.15	4719.85
820.8902	553.704	5582.5	4777.3
821.0346	555.8458	5673.25	4870.25
821.1789	557.987	5765.6	4961.35
821.3233	560.1276	5916.2	5109.05
821.4677	562.2675	6210.35	5405.45
821.6121	564.4069	6576	5767.3
821.7565	566.5456	6793.4	5987.25
821.9009	568.6837	6699.9	5891.3
822.0453	570.8212	6291.95	5484.8
822.1897	572.958	5841.45	5033.3
822.3342	575.0942	5497.5	4690.45
822.4786	577.2299	5323.2	4512.3
822.6231	579.3648	5215.55	4404.1
822.7675	581.4992	5215.95	4406.55
822.912	583.6329	5254.05	4446.05
823.0565	585.766	5413.35	4603.5
823.201	587.8985	5596.7	4785.25
823.3454	590.0304	5839.8	5015.6
823.4899	592.1616	6034.8	5218.9
823.6345	594.2922	6102.55	5287.55
823.779	596.4222	5983.2	5168.8
823.9235	598.5515	5694.65	4879.8
824.068	600.6802	5416.05	4600
824.2126	602.8083	5199.2	4385.05
824.3571	604.9358	5116.15	4300.05
824.5017	607.0626	5072.5	4256
824.6462	609.1888	5107.95	4290.35
824.7908	611.3144	5191.35	4370.8
824.9354	613.4393	5366.9	4550.2
825.08	615.5636	5625	4807
825.2246	617.6873	5870.7	5051.05
825.3692	619.8103	6032.65	5211.45
825.5138	621.9327	6087.7	5263.55
825.6584	624.0544	5940.35	5122.05
825.803	626.1756	5645.4	4825.45
825.9477	628.2961	5376	4556.1
826.0923	630.4159	5234	4413.5
826.237	632.5351	5183.15	4358.95
826.3816	634.6537	5180.15	4357.6
826.5263	636.7716	5127.2	4303.8
826.6709	638.8889	5123.55	4297.45
826.8156	641.0056	5130.55	4304.1
826.9603	643.1216	5202.05	4375.1
827.105	645.237	5256.7	4429.65
827.2497	647.3518	5165.65	4339.2
827.3944	649.4659	5033.05	4207
827.5391	651.5793	4940.9	4113.85
827.6838	653.6922	4861	4034.1
827.8285	655.8043	4809.85	3981.85
827.9733	657.9159	4742.75	3916.55
828.118	660.0268	4711.65	3882.75
828.2627	662.137	4693	3864.7
828.4075	664.2466	4718.3	3886.95
828.5522	666.3556	4709.5	3880.8
828.697	668.4639	4690.1	3856.45
828.8418	670.5716	4651.1	3821.4
828.9865	672.6786	4623.75	3794.65
829.1313	674.785	4578.8	3744.75
829.2761	676.8907	4568.45	3736.4
829.4209	678.9958	4566.6	3737.55
829.5657	681.1002	4566.75	3733.85
829.7105	683.204	4578.7	3744.85
829.8553	685.3072	4577.45	3743.95
830.0001	687.4097	4570.05	3736.4
830.1449	689.5115	4562.65	3728.95
830.2898	691.6127	4556.7	3722.3
830.4346	693.7132	4532.15	3698
830.5794	695.8131	4540.35	3692.7
830.7243	697.9123	4542.45	3708.4
830.8691	700.0109	4554.6	3720.3
831.014	702.1089	4599.9	3764.95
831.1588	704.2061	4659.95	3824.95
831.3037	706.3028	4771.9	3935.05
831.4486	708.3987	4898.15	4059.85
831.5935	710.4941	4976.05	4138.6
831.7383	712.5887	5008.5	4169.5
831.8832	714.6827	4978.9	4137.05
832.0281	716.7761	4950.7	4112.7
832.173	718.8688	4905.3	4064.7
832.3179	720.9608	4900.6	4059.4
832.4628	723.0522	4929.55	4085.1
832.6077	725.1429	5005.2	4166.1
832.7527	727.233	5170.05	4329.3
832.8976	729.3224	5421.25	4579.7
833.0425	731.4112	5704.6	4860.8
833.1874	733.4993	5838.25	4995.55
833.3324	735.5867	5659.6	4816.4
833.4773	737.6735	5290.55	4446.25
833.6222	739.7596	4957.6	4112.35
833.7672	741.845	4762.8	3920.05
833.9122	743.9298	4666.45	3821.85
834.0571	746.014	4646.15	3803.6
834.2021	748.0974	4634.55	3789.55
834.347	750.1802	4621.9	3776.9
834.492	752.2624	4625.05	3781.3
834.637	754.3439	4633.8	3787.8
834.782	756.4247	4653.3	3799.55
834.9269	758.5048	4712.75	3868.95
835.0719	760.5843	4803.75	3956.1
835.2169	762.6631	4975	4128.65
835.3619	764.7413	5230.65	4384.9
835.5069	766.8188	5623.1	4776.8
835.6519	768.8956	6028.15	5182.65
835.7969	770.9718	6330.65	5483.8
835.9419	773.0473	6318.9	5472.65
836.0869	775.1221	6151.35	5305.9
836.232	777.1962	6066.75	5221.8
836.377	779.2697	6319.95	5470.4
836.522	781.3426	6839.8	5975.75
836.667	783.4147	7241.7	6392.6
836.8121	785.4862	7281.65	6435.45
836.9571	787.557	6903.7	6057.7
837.1021	789.6271	6298.8	5451.1
837.2472	791.6966	5649.95	4800.2
837.3922	793.7654	5151.4	4303.35
837.5373	795.8335	4861.2	4010.7
837.6823	797.901	4719.3	3868.6
837.8274	799.9678	4647.35	3796.9
837.9724	802.0339	4626.3	3778.6
838.1175	804.0993	4672.55	3813
838.2626	806.1641	4651.3	3800.6
838.4076	808.2282	4587.75	3738.75
838.5527	810.2916	4501.5	3650.6
838.6978	812.3544	4453.7	3603.55
838.8428	814.4164	4395.35	3544.15
838.9879	816.4778	4405.25	3553.2
839.133	818.5385	4458.7	3608.5
839.2781	820.5986	4599.5	3746.8
839.4232	822.658	4838.55	3986.35
839.5682	824.7166	5180.75	4328.7
839.7133	826.7747	5555.6	4705.55
839.8584	828.832	5938.7	5085.85
840.0035	830.8886	6234.55	5382.6
840.1486	832.9446	6386.5	5530.75
840.2937	834.9999	6312.3	5459.4
840.4388	837.0545	5993.05	5135.45
840.5839	839.1085	5577.3	4721.25
840.729	841.1618	5203.9	4345.55
840.8741	843.2143	4923.55	4069.15
841.0192	845.2662	4742.9	3888.5
841.1643	847.3175	4667.7	3815.75
841.3095	849.368	4604.5	3753.2
841.4546	851.4179	4596.45	3743.15
841.5997	853.467	4588.4	3732.7
841.7448	855.5155	4619.95	3763.8
841.8899	857.5633	4634.5	3778.75
842.0351	859.6105	4619.3	3763.05
842.1802	861.6569	4562.5	3705.35
842.3253	863.7027	4502.5	3645.8
842.4704	865.7478	4438.05	3580.05
842.6156	867.7922	4377.65	3521.2
842.7607	869.8359	4351.05	3494
842.9058	871.8789	4318.2	3462
843.0509	873.9212	4320.3	3432.6
843.1961	875.9629	4314.7	3460.55
843.3412	878.0039	4380.55	3520.75
843.4863	880.0441	4444.2	3586.2
843.6315	882.0837	4541.55	3682.3
843.7766	884.1226	4630.7	3771.55
843.9218	886.1609	4793.35	3936.35
844.0669	888.1984	5040.5	4185.05
844.212	890.2352	5279.3	4419.4
844.3572	892.2714	5366.3	4504.9
844.5023	894.3069	5262.45	4402.7
844.6475	896.3416	5031.9	4172.45
844.7926	898.3757	4772.05	3911.95
844.9377	900.4091	4635.15	3775.1
845.0829	902.4418	4667.95	3803
845.228	904.4739	4738.85	3878
845.3732	906.5052	4873.6	4013.45
845.5183	908.5358	4891.6	4033.3
845.6635	910.5658	4823.15	3961.45
845.8086	912.595	4658.9	3798.6
845.9538	914.6236	4459.1	3599.35
846.0989	916.6515	4310.45	3449.65
846.2441	918.6786	4228.45	3367.45
846.3892	920.7051	4181.05	3317.6
846.5344	922.7309	4176.4	3316.6
846.6795	924.756	4183.6	3321.85
846.8246	926.7804	4222.65	3356.1
846.9698	928.8041	4270.6	3404.9
847.1149	930.8272	4389.65	3527
847.2601	932.8495	4407.45	3544.3
847.4052	934.8711	4457.15	3593.5
847.5504	936.892	4485.25	3622.9
847.6955	938.9123	4575.3	3711.75
847.8407	940.9318	4712.55	3848.1
847.9858	942.9506	4793.75	3927.3
848.131	944.9688	4790.4	3925.9
848.2761	946.9862	4678.65	3814.9
848.4213	949.003	4522.25	3658.95
848.5664	951.019	4411.6	3546.55
848.7115	953.0344	4325.75	3458.7
848.8567	955.0491	4265.45	3399.5
849.0018	957.063	4224.2	3358.1
849.147	959.0763	4200.3	3336.85
849.2921	961.0888	4185.05	3319.3
849.4373	963.1007	4184.2	3318.75
849.5824	965.1119	4149.95	3285
849.7275	967.1223	4097.05	3234.65
849.8727	969.1321	4067.2	3205.55
850.0178	971.1412	4048.4	3184.95
850.1629	973.1495	4028.65	3161.95
850.3081	975.1572	4061	3156.8
850.4532	977.1641	4065	3200.3
850.5983	979.1704	4051.9	3186.95
850.7435	981.1759	4058.85	3187.6
850.8886	983.1808	4010.85	3145.35
851.0337	985.1849	3964.35	3086.6
851.1788	987.1884	3956.45	3089.75
851.324	989.1911	3991.3	3121.75
851.4691	991.1932	4021.3	3154.15
851.6142	993.1945	4061.75	3195.2
851.7593	995.1951	4062	3193.65
851.9045	997.1951	4049.5	3176.55
852.0496	999.1943	4027.45	3162.6
852.1947	1001.1928	4029.1	3160.95
852.3398	1003.1906	4067.45	3200.2
852.4849	1005.1877	4204.5	3338.4
852.63	1007.1841	4332.8	3465.6
852.7751	1009.1798	4413.25	3546.7
852.9202	1011.1748	4393.6	3525.4
853.0653	1013.1691	4269.45	3401.85
853.2104	1015.1627	4119.7	3250.1
853.3555	1017.1556	3989.6	3121.05
853.5006	1019.1477	3888.5	3019.3
853.6457	1021.1392	3806.5	2939.15
853.7908	1023.1299	3773.1	2905.85
853.9359	1025.12	3768.7	2902.2
854.081	1027.1093	3803.4	2938.55
854.2261	1029.0979	3890	3024.05
854.3712	1031.0859	4000.2	3134.75
854.5163	1033.0731	4090.05	3221.4
854.6613	1035.0596	4100.1	3231.25
854.8064	1037.0454	4067.75	3197.9
854.9515	1039.0304	4028.85	3160.4
855.0965	1041.0148	3912.85	3044.1
855.2416	1042.9985	3822.55	2954.1
855.3867	1044.9814	3753.75	2887.25
855.5317	1046.9636	3729.2	2857.75
855.6768	1048.9452	3765.9	2896.6
855.8219	1050.926	3832.6	2964.35
855.9669	1052.9061	3932.4	3063.2
856.112	1054.8855	3984.4	3115.05
856.257	1056.8642	4002.25	3131.1
856.4021	1058.8421	3974.3	3098
856.5471	1060.8194	3947.9	3079.1
856.6921	1062.7959	3932.8	3062.3
856.8372	1064.7717	3931.85	3060.45
856.9822	1066.7469	3927.15	3056.8
857.1272	1068.7213	3942.4	3070.05
857.2723	1070.695	4005.45	3134.7
857.4173	1072.6679	4116.25	3244.4
857.5623	1074.6402	4235.7	3362
857.7073	1076.6117	4299	3423.25
857.8523	1078.5826	4225.85	3353.9
857.9973	1080.5527	4077.25	3202.9
858.1423	1082.5221	3903	3031.2
858.2873	1084.4908	3774.2	2902.9
858.4323	1086.4587	3670.95	2797.05
858.5773	1088.426	3633.75	2761.05
858.7223	1090.3925	3611.3	2733.45
858.8673	1092.3584	3634.3	2763.9
859.0123	1094.3235	3680.5	2806.55
859.1573	1096.2879	3755.35	2883.6
859.3022	1098.2515	3856.1	2981.9
859.4472	1100.2145	3980.7	3109.9
859.5922	1102.1767	4128.95	3252.7
859.7371	1104.1382	4343.2	3472.25
859.8821	1106.099	4599.35	3728.3
860.027	1108.0591	4830.7	3957.65
860.172	1110.0185	5037.65	4163.95
860.3169	1111.9771	5214.75	4343.45
860.4619	1113.9351	5417.15	4543.4
860.6068	1115.8923	5759.65	4885.5
860.7517	1117.8488	6008.45	5135.1
860.8967	1119.8045	5869.85	4998.6
861.0416	1121.7596	5446.35	4570.25
861.1865	1123.7139	4886.45	4012.05
861.3314	1125.6675	4552.3	3680.1
861.4763	1127.6204	4500.4	3627.35
861.6212	1129.5726	4590.45	3716.05
861.7661	1131.524	4642.05	3768.05
861.911	1133.4748	4488.5	3613.65
862.0559	1135.4248	4200.25	3327.3
862.2008	1137.3741	3930	3054.85
862.3457	1139.3226	3782.7	2907.5
862.4905	1141.2705	3752.3	2878.35
862.6354	1143.2176	3809.25	2926.85
862.7803	1145.164	3865.15	2990.55
862.9251	1147.1097	3902.2	3027.05
863.07	1149.0546	3820.95	2945.4
863.2148	1150.9989	3700.35	2826.65
863.3597	1152.9424	3583.45	2707.9
863.5045	1154.8852	3508.6	2634.2
863.6493	1156.8272	3468.45	2597.2
863.7942	1158.7686	3463.5	2581.7
863.939	1160.7092	3469.8	2594.55
864.0838	1162.6491	3477.85	2600.15
864.2286	1164.5883	3525.85	2652.45
864.3734	1166.5267	3589.65	2714
864.5182	1168.4644	3707.2	2834
864.663	1170.4014	3851.45	2976.2
864.8078	1172.3377	4017.15	3143
864.9526	1174.2732	4242.65	3367.3
865.0974	1176.2081	4594.75	3720.3
865.2421	1178.1421	5161.15	4281.9
865.3869	1180.0755	5828.5	4955.3
865.5317	1182.0082	6279.75	5405.3
865.6764	1183.9401	6320.15	5443.8
865.8212	1185.8713	5911.4	5036.85
865.9659	1187.8017	5322.65	4449.35
866.1106	1189.7315	4736.8	3865.3
866.2554	1191.6605	4327.55	3428.1
866.4001	1193.5888	4039.85	3165.9
866.5448	1195.5163	3877.2	3003.3
866.6895	1197.4432	3772.5	2894.7
866.8342	1199.3693	3688.55	2815.35
866.9789	1201.2947	3614.6	2732.85
867.1236	1203.2193	3553.1	2678.35
867.2683	1205.1432	3546.95	2672.15
867.413	1207.0664	3533.35	2656.7
867.5576	1208.9889	3541	2662.65
867.7023	1210.9106	3547	2672.45
867.847	1212.8316	3561.9	2687.9
867.9916	1214.7519	3604.75	2719.35
868.1363	1216.6715	3653.65	2777.7
868.2809	1218.5903	3718.45	2843.6
868.4255	1220.5084	3780.75	2904.75
868.5701	1222.4257	3850.5	2973.15
868.7148	1224.3424	3891.85	3015.55
868.8594	1226.2583	3983.15	3104.6
869.004	1228.1735	4102	3224.1
869.1486	1230.0879	4272.35	3394.35
869.2932	1232.0016	4467.25	3591.95
869.4377	1233.9146	4633.15	3753.1
869.5823	1235.8269	4734.1	3856.15
869.7269	1237.7384	4730.6	3853.95
869.8715	1239.6492	4713.5	3836.2
870.016	1241.5592	4783.1	3907.15
870.1606	1243.4686	4950.85	4074.55
870.3051	1245.3772	5294.9	4417.6
870.4496	1247.285	5687.15	4809.75
870.5941	1249.1922	6083.15	5204.8
870.7387	1251.0986	6425.4	5548.5
870.8832	1253.0042	6769.55	5894.7
871.0277	1254.9092	7162.1	6287.8
871.1722	1256.8134	7628.1	6751.85
871.3167	1258.7169	8124.05	7249.05
871.4611	1260.6196	8488.9	7610.55
871.6056	1262.5216	8740.9	7862.4
871.7501	1264.4229	8781.9	7905.2
871.8945	1266.3234	8647.7	7770.1
872.039	1268.2232	8364.65	7485.4
872.1834	1270.1223	8058.65	7181.3
872.3278	1272.0207	7835.75	6956.95
872.4723	1273.9183	7714	6831.45
872.6167	1275.8151	7724.45	6845.8
872.7611	1277.7113	7868.45	6991.3
872.9055	1279.6067	8217.7	7339.95
873.0499	1281.5014	8863.25	7980.95
873.1943	1283.3953	9770.05	8889.2
873.3386	1285.2885	10803.15	9926.4
873.483	1287.181	11657.65	10777.6
873.6274	1289.0727	12106.7	11230.7
873.7717	1290.9637	11889.2	11010
873.9161	1292.854	11306.7	10429.5
874.0604	1294.7435	10605.25	9727.85
874.2047	1296.6323	9935.6	9056.65
874.349	1298.5204	9352.6	8469.85
874.4933	1300.4077	8876.15	7999.15
874.6376	1302.2943	8562.3	7684.45
874.7819	1304.1802	8357.35	7480.75
874.9262	1306.0653	8157.45	7276.65
875.0705	1307.9497	8001.85	7123
875.2147	1309.8333	7888.25	7012.35
875.359	1311.7162	7743.35	6862.55
875.5032	1313.5984	7625.05	6745
875.6475	1315.4798	7546.7	6658.35
875.7917	1317.3605	7574.85	6681.2
875.9359	1319.2405	7648.05	6768.1
876.0801	1321.1197	7675.45	6793.2
876.2243	1322.9982	7567.6	6683
876.3685	1324.876	7312.05	6431.9
876.5127	1326.753	6899.1	6019.55
876.6569	1328.6293	6451.7	5572.45
876.801	1330.5048	5964.55	5081.25
876.9452	1332.3796	5516.2	4639.65
877.0893	1334.2537	5181	4277.55
877.2335	1336.127	4924.6	4045.25
877.3776	1337.9996	4762.25	3882.75
877.5217	1339.8714	4629.6	3751.3
877.6658	1341.7426	4557.4	3632.5
877.8099	1343.6129	4439.75	3561.15
877.954	1345.4826	4354.5	3475.3
878.0981	1347.3515	4274.5	3391.8
878.2422	1349.2196	4193.25	3313.65
878.3862	1351.087	4144.15	3266.45
878.5303	1352.9537	4126	3246
878.6743	1354.8197	4135.4	3255.05
878.8184	1356.6849	4168.5	3290.35
878.9624	1358.5493	4219.85	3340.15
879.1064	1360.4131	4350.4	3469.55
879.2504	1362.276	4509.9	3629.05
879.3944	1364.1383	4720.05	3840.05
879.5384	1365.9998	4800.45	3915.85
879.6823	1367.8606	4775.3	3896.15
879.8263	1369.7206	4748.55	3868.35
879.9702	1371.5799	4755.2	3873.3
880.1142	1373.4384	4759.35	3877.8
880.2581	1375.2962	4628.4	3746.45
880.402	1377.1533	4398.35	3518.3
880.5459	1379.0096	4188.55	3306.9
880.6898	1380.8652	4006.6	3129.1
880.8337	1382.7201	3868.65	2990.3
880.9776	1384.5742	3725.8	2844.7
881.1215	1386.4275	3604.9	2723.2
881.2653	1388.2802	3529.55	2651.75
881.4092	1390.132	3449.35	2570.8
881.553	1391.9832	3427.25	2548.2
881.6968	1393.8336	3390.55	2510.75
881.8406	1395.6832	3365.25	2483.25
881.9844	1397.5322	3337.1	2457.55
882.1282	1399.3803	3311.5	2426.2
882.272	1401.2278	3254.55	2375.65
882.4158	1403.0745	3221.05	2341.8
882.5595	1404.9204	3175.4	2296.15
882.7033	1406.7656	3156.5	2275.25
882.847	1408.6101	3134.95	2255.95
882.9908	1410.4538	3107.55	2226.9
883.1345	1412.2968	3122.55	2241.15
883.2782	1414.139	3128.85	2249
883.4219	1415.9805	3162.6	2284.35
883.5656	1417.8213	3216	2329
883.7092	1419.6613	3286.55	2405.75
883.8529	1421.5006	3427.95	2546.55
883.9965	1423.3391	3617.35	2735.4
884.1402	1425.1769	3857.75	2975.85
884.2838	1427.0139	4215.6	3334.55
884.4274	1428.8502	4660.1	3779.6
884.571	1430.6858	5019	4136.6
884.7146	1432.5206	5177.5	4297.5
884.8582	1434.3547	5181.1	4301.65
885.0018	1436.188	5084.9	4205.7
885.1453	1438.0206	5023.4	4142.65
885.2889	1439.8524	4961.35	4080.7
885.4324	1441.6835	4939.8	4060.05
885.5759	1443.5139	4947.8	4063.6
885.7194	1445.3435	4966.3	4088.05
885.8629	1447.1724	5001.9	4120.75
886.0064	1449.0005	4974.1	4095.9
886.1499	1450.8279	4942.15	4060
886.2933	1452.6545	4898.4	4019.9
886.4368	1454.4804	4897.8	4016.6
886.5802	1456.3056	4855.15	3966.8
886.7237	1458.13	4780.2	3901.55
886.8671	1459.9536	4669.4	3788.05
887.0105	1461.7766	4507.35	3628.05
887.1539	1463.5987	4310.8	3429.4
887.2972	1465.4202	4114.05	3233.25
887.4406	1467.2409	3945.75	3063.5
887.584	1469.0608	3793.8	2914
887.7273	1470.88	3622.95	2741.75
887.8706	1472.6984	3476.45	2595.45
888.0139	1474.5161	3357.15	2471.6
888.1572	1476.3331	3293.85	2413.1
888.3005	1478.1493	3238.25	2356.05
888.4438	1479.9648	3214.65	2332.95
888.5871	1481.7795	3198	2318.5
888.7303	1483.5935	3192.4	2309.7
888.8736	1485.4067	3212.1	2333.95
889.0168	1487.2192	3234.9	2353.4
889.16	1489.031	3245.8	2363.55
889.3032	1490.842	3237.85	2358.85
889.4464	1492.6522	3235.75	2352.2
889.5896	1494.4618	3212.45	2330.5
889.7327	1496.2705	3217.75	2335.8
889.8759	1498.0785	3199.65	2319.25
890.019	1499.8858	3167.2	2285.95
890.1622	1501.6924	3145.2	2263.7
890.3053	1503.4981	3123.85	2244.75
890.4484	1505.3032	3097.2	2213.85
890.5914	1507.1075	3059.3	2179.05
890.7345	1508.911	3048.45	2166.75
890.8776	1510.7138	3009.5	2127.65
891.0206	1512.5159	2975.85	2095.15
891.1637	1514.3172	2951.9	2072.7
891.3067	1516.1178	2913	2031.5
891.4497	1517.9176	2897.1	2014.35
891.5927	1519.7166	2875.4	1994.7
891.7357	1521.515	2854.05	1964.35
891.8786	1523.3126	2819.25	1938.75
892.0216	1525.1094	2809.35	1926.35
892.1645	1526.9055	2785.8	1906.2
892.3074	1528.7008	2784.3	1905.15
892.4503	1530.4954	2773.45	1885.45
892.5932	1532.2893	2752	1873.4
892.7361	1534.0824	2736.55	1850.1
892.879	1535.8747	2745.45	1865.25
893.0218	1537.6663	2735.45	1852.95
893.1647	1539.4572	2739	1858.1
893.3075	1541.2473	2736.85	1854.1
893.4503	1543.0367	2746.3	1864.8
893.5931	1544.8253	2762.35	1877.35
893.7359	1546.6132	2776.6	1895.65
893.8787	1548.4003	2796.55	1906.55
894.0214	1550.1867	2839.4	1951.75
894.1642	1551.9723	2873.3	1989.55
894.3069	1553.7572	2924.85	2043
894.4496	1555.5414	3025.45	2144.8
894.5923	1557.3247	3150.9	2269.3
894.735	1559.1074	3308.1	2428.35
894.8777	1560.8893	3518.2	2637.35
895.0204	1562.6705	3721.1	2840.15
895.163	1564.4509	3863.6	2985.05
895.3056	1566.2305	3954.1	3074.5
895.4482	1568.0094	4001.4	3119.95
895.5908	1569.7876	3979.1	3098.3
895.7334	1571.565	3972.35	3090.75
895.876	1573.3417	3973.25	3092.7
896.0186	1575.1176	4034.65	3153.95
896.1611	1576.8928	4099.6	3221.45
896.3036	1578.6672	4199.55	3319.85
896.4461	1580.4409	4339.25	3460.55
896.5886	1582.2138	4555.75	3675.35
896.7311	1583.986	4762.1	3880.95
896.8736	1585.7575	4990.25	4110.25
897.0161	1587.5282	5173.8	4296.9
897.1585	1589.2981	5339.9	4460.6
897.3009	1591.0673	5448.3	4568.15
897.4433	1592.8358	5471.9	4592.4
897.5857	1594.6035	5475.95	4593.35
897.7281	1596.3704	5418.45	4539.55
897.8705	1598.1366	5296.95	4416.55
898.0128	1599.9021	5167.75	4287.85
898.1551	1601.6668	5028.55	4147.3
898.2975	1603.4308	4914.05	4032.45
898.4398	1605.194	4906.8	4020.1
898.5821	1606.9564	4989.2	4109.8
898.7243	1608.7182	5217.35	4335.1
898.8666	1610.4791	5633.8	4753.15
899.0088	1612.2394	6158.6	5279.8
899.1511	1613.9988	6763.2	5883.25
899.2933	1615.7576	7281.2	6403.25
899.4355	1617.5156	7534.6	6647.4
899.5776	1619.2728	7509.2	6629.65
899.7198	1621.0293	7141.2	6260.35
899.862	1622.785	6576.85	5690.35
900.0041	1624.54	5942.45	5061.5
900.1462	1626.2942	5316.4	4434.15
900.2883	1628.0477	4736.95	3852.8
900.4304	1629.8005	4281.2	3398.5
900.5725	1631.5525	3910.55	3031.05
900.7145	1633.3037	3608.25	2732.5
900.8566	1635.0542	3384.55	2504.75
900.9986	1636.804	3183.45	2301.95
901.1406	1638.553	3103.35	2161.7
901.2826	1640.3013	2929.55	2050.35
901.4245	1642.0488	2849.25	1968.1
901.5665	1643.7955	2775.15	1895.4
901.7085	1645.5416	2696.55	1814.95
901.8504	1647.2868	2654.25	1774.9
901.9923	1649.0313	2622.7	1742.45
902.1342	1650.7751	2588.5	1707.8
902.2761	1652.5181	2567.4	1686.45
902.4179	1654.2604	2566.3	1685.25
902.5598	1656.0019	2584.5	1706.35
902.7016	1657.7427	2629.1	1749.45
902.8434	1659.4828	2721.1	1841.15
902.9852	1661.222	2868.25	1987.55
903.127	1662.9606	3050.55	2170.05
903.2687	1664.6984	3240.45	2359.5
903.4105	1666.4354	3345.4	2464.75
903.5522	1668.1717	3327.25	2447.2
903.6939	1669.9072	3158.25	2278.6
903.8356	1671.642	2943.2	2061.35
903.9773	1673.3761	2707.9	1828.5
904.119	1675.1094	2523.8	1643.55
904.2606	1676.8419	2399.45	1519.75
904.4022	1678.5737	2303.95	1424.1
904.5439	1680.3048	2251.95	1373.2
904.6855	1682.0351	2207.25	1326.8
904.827	1683.7646	2169.85	1284
904.9686	1685.4934	2144.9	1263.5
905.1101	1687.2215	2127.25	1245.9
905.2517	1688.9488	2106.65	1226.35
905.3932	1690.6754	2095.55	1213.65
905.5347	1692.4012	2079.95	1201.75
905.6761	1694.1263	2069.3	1188.9
905.8176	1695.8506	2057.3	1176.6
905.9591	1697.5742	2052.1	1174.65
906.1005	1699.297	2046.3	1166.5
906.2419	1701.0191	2022.85	1142.9
906.3833	1702.7404	2016.65	1136.4
906.5246	1704.461	1996.5	1114.8
906.666	1706.1808	1992	1111.9
906.8073	1707.8999	1977.8	1095.45
906.9487	1709.6182	1975.7	1093
907.09	1711.3358	1972.75	1094.05
907.2313	1713.0527	1955.75	1077.65
907.3725	1714.7688	1958.15	1073.25
907.5138	1716.4841	1951.35	1068.8
907.655	1718.1987	1943.05	1058.05
907.7962	1719.9126	1945.4	1066.9
907.9374	1721.6257	1927.25	1044.9
908.0786	1723.338	1930.45	1050.3
908.2198	1725.0496	1919.85	1039.15
908.3609	1726.7605	1918.6	1039.05
908.502	1728.4706	1915.85	1033.85
908.6431	1730.18	1907.55	1023.85
908.7842	1731.8886	1896.25	1015.8
908.9253	1733.5964	1914.2	1015.25
909.0664	1735.3036	1897.9	1015.9
909.2074	1737.0099	1886.35	1007.35
909.3484	1738.7156	1892.15	1012.85
909.4894	1740.4204	1876.7	992.3
909.6304	1742.1246	1871.85	991.25
909.7714	1743.8279	1872.75	992.75
909.9123	1745.5306	1865.25	986.5
910.0532	1747.2325	1873.25	991.5
910.1941	1748.9336	1856.2	977.15
910.335	1750.634	1864.85	983.55
910.4759	1752.3336	1853.75	973.75
910.6168	1754.0325	1849.35	969.9
910.7576	1755.7307	1843.75	964.3
910.8984	1757.4281	1846.7	966.65
911.0392	1759.1247	1851.7	963.95
911.18	1760.8206	1840.8	955.9
911.3208	1762.5158	1845.45	962.35
911.4615	1764.2102	1833.5	955.6
911.6022	1765.9039	1829	949.6
911.7429	1767.5968	1833.7	953.45
911.8836	1769.289	1832.5	951.9
912.0243	1770.9804	1824.6	944.85
912.1649	1772.6711	1827.9	948.55
912.3056	1774.361	1817.55	938.2
912.4462	1776.0502	1806.7	922.95
912.5868	1777.7386	1813.65	930.45
912.7274	1779.4263	1808.35	926.15
912.8679	1781.1132	1803.15	921.65
913.0084	1782.7994	1797	913.8
913.149	1784.4849	1798.25	917.5
913.2895	1786.1696	1814.15	913.5
913.4299	1787.8535	1802.55	923.75
913.5704	1789.5367	1794.95	913.5
913.7108	1791.2192	1794	913.75
913.8513	1792.9009	1797.3	902.95
913.9917	1794.5818	1781.85	900.15
914.132	1796.2621	1773.85	894.75
914.2724	1797.9415	1777	894.1
914.4128	1799.6202	1777	896.5
914.5531	1801.2982	1777.05	897.05
914.6934	1802.9755	1764.2	882.8
914.8337	1804.6519	1768.65	889.25
914.9739	1806.3277	1766.8	886.4
915.1142	1808.0027	1753.75	875.6
915.2544	1809.6769	1758.2	878.3
915.3946	1811.3504	1750.4	868.8
915.5348	1813.0231	1753.55	872.2
915.675	1814.6951	1754	874.15
915.8151	1816.3664	1747.3	867.4
915.9553	1818.0369	1745.9	866.1
916.0954	1819.7067	1739.8	860.3
916.2355	1821.3757	1746.05	863.35
916.3755	1823.044	1742.65	860.55
916.5156	1824.7115	1733.4	854.3
916.6556	1826.3783	1726.5	847.45
916.7956	1828.0443	1721.75	841.25
916.9356	1829.7096	1726.25	844.35
917.0756	1831.3741	1722.1	841.3
917.2155	1833.0379	1719.85	839.25
917.3555	1834.701	1725.6	842.65
917.4954	1836.3633	1736.65	854.1
917.6353	1838.0248	1726.15	845.8
917.7751	1839.6856	1714.05	833.6
917.915	1841.3457	1713.5	833.6
918.0548	1843.005	1711.6	833.3
918.1946	1844.6636	1721.1	843
918.3344	1846.3214	1717.05	838.65
918.4742	1847.9785	1705.55	826.3
918.6139	1849.6349	1710.35	829.25
918.7537	1851.2904	1712.4	822.75
918.8934	1852.9453	1705.3	826.5
919.0331	1854.5994	1707.2	822.85
919.1727	1856.2528	1707.3	822.75
919.3124	1857.9054	1698.15	817.5
919.452	1859.5572	1696.8	818.3
919.5916	1861.2083	1699.15	815.45
919.7312	1862.8587	1697.65	818.5
919.8708	1864.5084	1691.55	810
920.0103	1866.1572	1678.85	797.4
920.1498	1867.8054	1679.7	799.6
920.2893	1869.4528	1685.1	803.35
920.4288	1871.0994	1688.1	808.05
920.5683	1872.7453	1686.9	804.15
920.7077	1874.3905	1683.75	799.35
920.8471	1876.0349	1675.5	795.05
920.9865	1877.6786	1677.45	794.1
921.1259	1879.3215	1677.45	797.65
921.2653	1880.9637	1672.45	790.25
921.4046	1882.6051	1672.9	792.75
921.5439	1884.2458	1675	793.5
921.6832	1885.8858	1668.85	787.25
921.8225	1887.525	1662.75	782.6
921.9617	1889.1634	1661.65	780.45
922.101	1890.8011	1655.4	773.95
922.2402	1892.4381	1652.8	771.85
922.3794	1894.0743	1657.85	777.4
922.5185	1895.7098	1657.6	779.8
922.6577	1897.3446	1655.4	773.7
922.7968	1898.9786	1637.1	752.3
922.9359	1900.6118	1652.5	775.3
923.075	1902.2443	1639.7	754.2
923.214	1903.8761	1630.5	749.65
923.3531	1905.5071	1632.15	749.3
923.4921	1907.1374	1627	746.8
923.6311	1908.7669	1623.75	743.95
923.77	1910.3957	1626.95	746.5
923.909	1912.0237	1618.45	738.95
924.0479	1913.651	1618.95	737.2
924.1868	1915.2776	1617.65	737.85
924.3257	1916.9034	1616.2	736.15
924.4646	1918.5285	1607.8	728.3
924.6034	1920.1528	1603.8	724.35
924.7422	1921.7764	1606.85	724.25
924.881	1923.3992	1601.5	724.45
925.0198	1925.0213	1599.6	719.9
925.1586	1926.6427	1595	714.6
925.2973	1928.2633	1787.7	697.05
925.436	1929.8832	1612.65	730.4
925.5747	1931.5023	1583.9	703.15
925.7134	1933.1207	1585.65	705.5
925.852	1934.7383	1585	704
925.9906	1936.3552	1582.35	702.25
926.1292	1937.9714	1588.55	707
926.2678	1939.5868	1582.55	699.2
926.4064	1941.2015	1574.4	694.4
926.5449	1942.8154	1571.5	690.95
926.6834	1944.4286	1572.15	691.7
926.8219	1946.041	1598.9	694.05
926.9604	1947.6528	1572.2	687.7
927.0988	1949.2637	1567	686.45
927.2372	1950.8739	1563.85	683.4
927.3756	1952.4834	1566.95	687.3
927.514	1954.0921	1562.85	683.55
927.6523	1955.7001	1564.75	680.25
927.7907	1957.3074	1559	680.3
927.929	1958.9139	1551.95	674.15
928.0673	1960.5197	1558.5	675.35
928.2055	1962.1247	1544.25	666
928.3438	1963.729	1548.3	668.2
928.482	1965.3325	1562.7	660.15
928.6202	1966.9353	1538.9	659.55
928.7584	1968.5374	1539.6	658.5
928.8965	1970.1387	1541.6	661.55
929.0346	1971.7393	1526.2	645.05
929.1727	1973.3392	1533.55	654.25
929.3108	1974.9383	1525.2	647.2
929.4489	1976.5366	1525.8	647.35
929.5869	1978.1342	1530.85	650.15
929.7249	1979.7311	1530.25	647.85
929.8629	1981.3273	1528	648.65
930.0009	1982.9227	1521.5	641.5
930.1388	1984.5173	1512.55	632.05
930.2767	1986.1112	1516.15	637.05
930.4146	1987.7044	1512.9	636.1
930.5525	1989.2968	1514.25	633.7
930.6904	1990.8885	1515.35	632.75
930.8282	1992.4795	1516.6	634.75
930.966	1994.0697	1511.75	632.55
931.1038	1995.6592	1507.6	629.05
931.2415	1997.2479	1515.85	636.5
931.3793	1998.8359	1501.35	620.2
931.517	2000.4232	1497.6	619.25
931.6547	2002.0097	1488.55	609.8
931.7923	2003.5955	1501.65	620.65
931.93	2005.1805	1504.75	624
932.0676	2006.7648	1488.75	612
932.2052	2008.3484	1491.45	611.4
932.3427	2009.9312	1493.65	614.7
932.4803	2011.5133	1488.3	610.9
932.6178	2013.0946	1494.3	616.85
932.7553	2014.6752	1486.85	609.1
932.8928	2016.2551	1486.6	605.75
933.0302	2017.8342	1483.95	604.2
933.1676	2019.4126	1480	602.55
933.305	2020.9902	1477.25	599.4
933.4424	2022.5672	1483.4	603.1
933.5798	2024.1433	1484.85	599.7
933.7171	2025.7188	1472.9	596.85
933.8544	2027.2935	1480.4	600.3
933.9917	2028.8674	1465.75	587.5
934.129	2030.4406	1474.75	597.45
934.2662	2032.0131	1469.1	590.7
934.4034	2033.5849	1463.7	578.85
934.5406	2035.1559	1460.9	581.05
934.6778	2036.7261	1470.6	590.4
934.8149	2038.2957	1463.6	586.15
934.952	2039.8645	1462.65	581.75
935.0891	2041.4325	1466.5	584.3
935.2262	2042.9998	1458.05	579.65
935.3632	2044.5664	1466.65	583.35
935.5002	2046.1323	1459.7	580.95
935.6372	2047.6974	1460.65	582.45
935.7742	2049.2617	1453.5	575.25
935.9111	2050.8254	1480.7	567.95
936.048	2052.3883	1452.8	572.15
936.1849	2053.9504	1460.35	582.3
936.3218	2055.5118	1456	575.15
936.4586	2057.0725	1449.95	566.75
936.5955	2058.6325	1447.4	569.05
936.7323	2060.1917	1450.75	571.6
936.869	2061.7502	1450.45	569.7
937.0058	2063.3079	1439.55	560.55
937.1425	2064.8649	1450.65	568.55
937.2792	2066.4212	1446.85	567.65
937.4159	2067.9767	1441.35	562.7
937.5525	2069.5315	1439.4	560.75
937.6891	2071.0856	1447.35	566.8
937.8257	2072.6389	1438.4	559.9
937.9623	2074.1915	1423.95	547.35
938.0989	2075.7433	1432.85	552.85
938.2354	2077.2945	1429.85	554
938.3719	2078.8448	1431.85	553.1
938.5084	2080.3945	1430.1	551.85
938.6448	2081.9434	1432.35	554.3
938.7812	2083.4916	1428.35	548.25
938.9176	2085.039	1425.7	543.75
939.054	2086.5857	1418.4	539.5
939.1903	2088.1317	1420	540.35
939.3267	2089.677	1427.55	548.2
939.463	2091.2215	1416.8	537.05
939.5992	2092.7652	1420.1	536.7
939.7355	2094.3083	1418.45	537.25
939.8717	2095.8506	1422.15	545.55
940.0079	2097.3921	1418.95	542.4
940.1441	2098.933	1411.2	531.45
940.2802	2100.4731	1418.4	540.2
940.4163	2102.0124	1417.6	532.2
940.5524	2103.5511	1411.2	531.75
940.6885	2105.089	1417.3	537.35
940.8245	2106.6261	1415.15	534.65
940.9606	2108.1626	1413.35	532.65
941.0965	2109.6983	1435.65	530.2
941.2325	2111.2332	1412.35	532.8
941.3684	2112.7675	1408.85	526.5
941.5044	2114.301	1408.95	528.05
941.6403	2115.8337	1409.45	530.45
941.7761	2117.3657	1402.25	524.15
941.912	2118.897	1405.85	524.1
942.0478	2120.4276	1410	523.5
942.1835	2121.9575	1401.7	522.45
942.3193	2123.4866	1419.9	526.15
942.455	2125.0149	1397.6	517.45
942.5907	2126.5426	1398.65	518.85
942.7264	2128.0695	1396.05	514.7
942.8621	2129.5956	1391.15	514.65
942.9977	2131.1211	1401.05	517.9
943.1333	2132.6458	1388.85	510.9
943.2689	2134.1698	1390.25	510.15
943.4044	2135.693	1397.1	515
943.54	2137.2155	1387.8	506.1
943.6755	2138.7373	1386.7	508.55
943.8109	2140.2584	1387.4	507.25
943.9464	2141.7787	1394.55	509.4
944.0818	2143.2983	1380.7	503.9
944.2172	2144.8171	1377.95	501.55
944.3526	2146.3353	1381	500.4
944.4879	2147.8527	1381.3	504.15
944.6232	2149.3693	1389.1	509.15
944.7585	2150.8853	1384.55	503.85
944.8938	2152.4005	1377.6	497.9
945.029	2153.9149	1379.75	500.05
945.1642	2155.4287	1380.55	501.15
945.2994	2156.9417	1376.7	493.65
945.4346	2158.454	1370.85	489.1
945.5697	2159.9655	1377.55	498.65
945.7048	2161.4764	1366.3	489.2
945.8399	2162.9865	1374.25	494.45
945.9749	2164.4958	1376.25	495.6
946.1099	2166.0045	1366.85	483.8
946.2449	2167.5124	1365.9	486.45
946.3799	2169.0195	1372.8	493.2
946.5148	2170.526	1369.9	492
946.6498	2172.0317	1363.45	483.9
946.7846	2173.5367	1365.4	484.95
946.9195	2175.0409	1354.85	476.85
947.0543	2176.5445	1360.6	482.5
947.1891	2178.0473	1361.05	481.75
947.3239	2179.5494	1363.4	480.95
947.4587	2181.0507	1369	489
947.5934	2182.5513	1352.25	472.7
947.7281	2184.0512	1358.35	478.1
947.8628	2185.5504	1355	476.7
947.9974	2187.0488	1356.3	477.5
948.132	2188.5465	1352.3	474.65
948.2666	2190.0435	1352	473.35
948.4012	2191.5397	1353.95	475.55
948.5357	2193.0353	1354.8	474.95
948.6702	2194.5301	1352.35	471.35
948.8047	2196.0241	1349.35	468.7
948.9392	2197.5175	1342.9	463.05
949.0736	2199.0101	1353.45	470.45
949.208	2200.502	1343.5	464.1
949.3424	2201.9931	1342.6	463.65
949.4767	2203.4835	1344.35	464.45
949.611	2204.9733	1354.1	455.5
949.7453	2206.4622	1344.1	465.05
949.8796	2207.9505	1340.25	459.85
950.0138	2209.438	1326.35	450.5
950.148	2210.9248	1335.75	454.35
950.2822	2212.4109	1335.4	457.75
950.4164	2213.8962	1340.5	459
950.5505	2215.3809	1336.1	458.7
950.6846	2216.8648	1325.3	443.55
950.8186	2218.3479	1329.3	445.35
950.9527	2219.8304	1332.5	451.7
951.0867	2221.3121	1323.95	442.35
951.2207	2222.7931	1326.6	447.55
951.3546	2224.2733	1327.5	447.1
951.4886	2225.7529	1322.95	444.65
951.6225	2227.2317	1322.15	440.1
951.7563	2228.7098	1321.65	441.6
951.8902	2230.1872	1315.4	436.65
952.024	2231.6638	1321.9	440.85
952.1578	2233.1397	1321.65	436.15
952.2916	2234.6149	1312.4	435
952.4253	2236.0894	1313.05	430.6
952.559	2237.5632	1321.7	434.45
952.6927	2239.0362	1307.8	429.7
952.8263	2240.5085	1310.3	429.6
952.9599	2241.9801	1312.8	434.35
953.0935	2243.4509	1302.45	424.2
953.2271	2244.921	1305.35	424.5
953.3606	2246.3904	1297.35	416.25
953.4941	2247.8591	1295.2	416.85
953.6276	2249.3271	1305.8	426.8
953.7611	2250.7943	1303.8	424.8
953.8945	2252.2608	1295.65	416.25
954.0279	2253.7266	1289.25	409.95
954.1612	2255.1917	1300	422.2
954.2946	2256.656	1291.9	411.55
954.4279	2258.1197	1294.6	416.65
954.5612	2259.5826	1293	410.75
954.6944	2261.0447	1290.6	411.1
954.8276	2262.5062	1295.45	413.8
954.9608	2263.9669	1290.95	409.55
955.094	2265.4269	1284.7	407.65
955.2271	2266.8862	1283.4	404
955.3602	2268.3448	1285.3	406.25
955.4933	2269.8026	1284.6	405.3
955.6264	2271.2598	1282	403.95
955.7594	2272.7162	1278.25	400.25
955.8924	2274.1719	1285.15	406.4
956.0253	2275.6268	1283.2	405.05
956.1583	2277.0811	1285.6	406.25
956.2912	2278.5346	1277.9	399.5
956.4241	2279.9874	1277.05	400.25
956.5569	2281.4395	1275.3	395.35
956.6897	2282.8908	1283.3	398.45
956.8225	2284.3414	1276.7	394.35
956.9553	2285.7914	1273.05	394.3
957.088	2287.2406	1273.7	392.4
957.2207	2288.689	1273	395.65
957.3534	2290.1368	1277.45	398.9
957.486	2291.5838	1277.25	395.65
957.6186	2293.0302	1282.85	402
957.7512	2294.4758	1273.5	395.05
957.8838	2295.9206	1269.95	388.3
958.0163	2297.3648	1273.15	395.6
958.1488	2298.8082	1268.4	387.6
958.2813	2300.251	1273.75	396.7
958.4137	2301.693	1273.55	390.85
958.5461	2303.1343	1273.15	395.25
958.6785	2304.5748	1263.6	383.6
958.8108	2306.0147	1268.05	386.55
958.9432	2307.4538	1265.65	385
959.0754	2308.8922	1262.2	386.05
959.2077	2310.3299	1262	380.7
959.3399	2311.7669	1257.15	379.35
959.4721	2313.2031	1262.15	383.3
959.6043	2314.6387	1255.2	375.5
959.7365	2316.0735	1256.05	377.05
959.8686	2317.5076	1258.7	378.05
960.0006	2318.941	1262.15	382.7
960.1327	2320.3737	1258.75	378.25
960.2647	2321.8056	1254.9	375.3
960.3967	2323.2369	1252.3	371.7
960.5287	2324.6674	1265.75	382.85
960.6606	2326.0972	1256.65	375.95
960.7925	2327.5263	1256.25	377.4
960.9244	2328.9547	1261.4	378.75
961.0562	2330.3823	1260.35	379.8
961.1881	2331.8092	1256.7	374.1
961.3198	2333.2355	1247.65	367.6
961.4516	2334.661	1248.35	369.9
961.5833	2336.0858	1243.25	363.55
961.715	2337.5098	1241.4	362.45
961.8467	2338.9332	1241.2	361.95
961.9783	2340.3558	1237.3	353.85
962.1099	2341.7778	1239.45	359.85
962.2415	2343.199	1246.35	364.2
962.373	2344.6195	1239.15	362.35
962.5045	2346.0393	1242.15	362.4
962.636	2347.4583	1240.8	361.65
962.7675	2348.8767	1236	356.8
962.8989	2350.2943	1238.3	357.6
963.0303	2351.7113	1242.45	360.65
963.1617	2353.1275	1243.65	363.55
963.293	2354.543	1241.4	351.35
963.4243	2355.9578	1230.9	351.15
963.5556	2357.3718	1230.25	351.1
963.6868	2358.7852	1236.15	352.4
963.818	2360.1978	1231.6	351.3
963.9492	2361.6098	1238.4	356.15
964.0803	2363.021	1238.95	354.95
964.2114	2364.4315	1223.9	345.1
964.3425	2365.8413	1231.7	351.6
964.4736	2367.2504	1229.9	351.75
964.6046	2368.6587	1226	346.45
964.7356	2370.0664	1226.75	347.7
964.8666	2371.4733	1232.3	351.45
964.9975	2372.8795	1224.6	345.75
965.1284	2374.285	1231.95	352.65
965.2593	2375.6899	1227.5	348.5
965.3901	2377.0939	1219.65	341.8
965.5209	2378.4973	1221.15	342.35
965.6517	2379.9	1223.8	343
965.7825	2381.3019	1223.95	343.85
965.9132	2382.7032	1226.05	346.9
966.0439	2384.1037	1217	338.45
966.1745	2385.5035	1221.95	339.55
966.3051	2386.9027	1210.8	330.7
966.4357	2388.3011	1224.15	341.95
966.5663	2389.6987	1216.05	337.4
966.6968	2391.0957	1213.8	333.3
966.8273	2392.492	1210.85	332.45
966.9578	2393.8876	1211.9	332.65
967.0882	2395.2824	1208.05	328.85
967.2186	2396.6765	1205.7	327.05
967.349	2398.07	1208.5	330.15
967.4793	2399.4627	1204	324.3
967.6097	2400.8547	1215.25	333.75
967.7399	2402.246	1213.1	328.2
967.8702	2403.6366	1205.5	325.15
968.0004	2405.0265	1202.25	321.35
968.1306	2406.4156	1200.95	315.95
968.2607	2407.8041	1205.75	320.35
968.3909	2409.1918	1202.2	319.65
968.521	2410.5789	1200.25	320.15
968.651	2411.9652	1195.85	312.7
968.781	2413.3508	1198.85	317.8
968.911	2414.7358	1200.9	321.5
969.041	2416.12	1197.45	317.75
969.1709	2417.5035	1194.45	315.5
969.3008	2418.8863	1195.5	314.4
969.4307	2420.2684	1195.85	313.9
969.5606	2421.6497	1190.15	307.25
969.6904	2423.0304	1194.95	315.95
969.8201	2424.4104	1190.45	310.4
969.9499	2425.7896	1188.2	306.85
970.0796	2427.1682	1193.5	312.95
970.2093	2428.546	1190.75	308.8
970.3389	2429.9232	1191.95	310.15
970.4685	2431.2996	1187	309.1
970.5981	2432.6753	1193.1	312.85
970.7277	2434.0503	1183.9	303.95
970.8572	2435.4246	1193.15	313.3
970.9867	2436.7982	1188.8	307.05
971.1161	2438.1711	1182.2	303.1
971.2456	2439.5433	1185.35	303.05
971.375	2440.9148	1187.3	304.4
971.5043	2442.2856	1179.2	301.1
971.6336	2443.6557	1182.25	300.5
971.7629	2445.025	1179.1	297.95
971.8922	2446.3937	1177.7	297.45
972.0214	2447.7617	1186.5	307.1
972.1506	2449.1289	1182.25	303.3
972.2798	2450.4955	1185.25	301
972.4089	2451.8613	1178.5	300.7
972.538	2453.2265	1177.9	297.9
972.6671	2454.5909	1175.75	294.6
972.7961	2455.9546	1177.65	297
972.9251	2457.3177	1173.05	293.05
973.0541	2458.68	1180.3	297.75
973.1831	2460.0416	1177.2	297.5
973.312	2461.4025	1176.6	295.95
973.4408	2462.7627	1178.95	288.5
973.5697	2464.1222	1172.9	293.25
973.6985	2465.4811	1173.5	294.6
973.8273	2466.8392	1171.05	289.4
973.956	2468.1966	1176.15	293.4
974.0847	2469.5533	1173.65	292.2
974.2134	2470.9093	1171.4	290.8
974.3421	2472.2645	1175.85	295.5
974.4707	2473.6191	1166.7	287.15
974.5993	2474.973	1167.15	287.45
974.7278	2476.3262	1172.25	292.3
974.8563	2477.6787	1171.6	291.7
974.9848	2479.0305	1171.25	292.25
975.1132	2480.3816	1168.8	285.85
975.2417	2481.7319	1165	286.4
975.37	2483.0816	1166.5	284.1
975.4984	2484.4306	1171.9	291.2
975.6267	2485.7789	1166.95	287.85
975.755	2487.1264	1172.25	293.5
975.8833	2488.4733	1168.75	289.65
976.0115	2489.8195	1175.15	288.4
976.1397	2491.165	1170.35	287.55
976.2678	2492.5097	1168.5	286.35
976.3959	2493.8538	1159.1	278.5
976.524	2495.1972	1165.45	284.05
976.6521	2496.5398	1161.85	281.4
976.7801	2497.8818	1166	285.3
976.9081	2499.2231	1164.6	285.5
977.036	2500.5637	1167.5	286.25
977.164	2501.9035	1165.65	285.4
977.2918	2503.2427	1162.35	277.75
977.4197	2504.5812	1161.85	281.65
977.5475	2505.919	1162.45	281.35
977.6753	2507.256	1159.3	280
977.8031	2508.5924	1161.1	282.15
977.9308	2509.9281	1169.25	281.7
978.0585	2511.2631	1157	277.05
978.1861	2512.5974	1159.5	280.8
978.3137	2513.9309	1155.1	275.5
978.4413	2515.2638	1184.8	273.55
978.5689	2516.596	1146.95	266.25
978.6964	2517.9275	1151.5	269.7
978.8239	2519.2583	1154.25	271.4
978.9513	2520.5884	1150.05	268.75
979.0788	2521.9178	1152.2	271.8
979.2062	2523.2465	1147.05	267.15
979.3335	2524.5745	1144.15	264.15
979.4608	2525.9018	1145.3	267.2
979.5881	2527.2284	1153	273.85
979.7154	2528.5543	1146.2	268.15
979.8426	2529.8796	1143.45	263
979.9698	2531.2041	1149	268.55
980.0969	2532.5279	1148.55	271.1
980.224	2533.851	1144.75	264.35
980.3511	2535.1735	1145.3	266.55
980.4781	2536.4952	1143.85	264.6
980.6052	2537.8163	1145.7	265.5
980.7321	2539.1366	1144.6	266.9
980.8591	2540.4562	1140.5	259.85
980.986	2541.7752	1139.5	260.45
981.1129	2543.0935	1140.9	260.65
981.2397	2544.411	1144.45	263.4
981.3665	2545.7279	1134.15	255.8
981.4933	2547.0441	1142.1	261.25
981.62	2548.3596	1142.95	259.85
981.7467	2549.6744	1139.6	258.85
981.8734	2550.9885	1147.15	260
982.0001	2552.3019	1137.6	258.15
982.1267	2553.6146	1136.4	257
982.2532	2554.9266	1137	256.5
982.3798	2556.2379	1133.6	251.8
982.5063	2557.5485	1135.15	257.1
982.6327	2558.8585	1144.5	259.3
982.7592	2560.1677	1138.8	254.6
982.8856	2561.4762	1133.65	255.05
983.0119	2562.7841	1142.45	261.2
983.1383	2564.0913	1135.75	256.9
983.2646	2565.3977	1137.2	256.85
983.3908	2566.7035	1136.5	256.8
983.517	2568.0086	1135.4	253.6
983.6432	2569.313	1135	254.8
983.7694	2570.6167	1139	257.55
983.8955	2571.9197	1130.55	251.05
984.0216	2573.222	1130.25	247.6
984.1476	2574.5236	1125.35	245
984.2737	2575.8246	1130.5	249.05
984.3996	2577.1248	1134.75	253.2
984.5256	2578.4244	1130.2	249.6
984.6515	2579.7232	1128.95	249.45
984.7774	2581.0214	1158.5	252.8
984.9032	2582.3189	1131.8	252.7
985.029	2583.6157	1139.5	256
985.1548	2584.9118	1133.95	255.1
985.2806	2586.2072	1130.6	251.2
985.4063	2587.5019	1133.65	254.6
985.5319	2588.7959	1133.7	252.95
985.6576	2590.0893	1135.35	253.25
985.7832	2591.3819	1134.8	256.25
985.9087	2592.6739	1136.1	256.45
986.0343	2593.9652	1134.7	255
986.1597	2595.2557	1133.8	253.75
986.2852	2596.5456	1138.35	256.6
986.4106	2597.8348	1137.05	258.75
986.536	2599.1234	1134.9	257.9
986.6614	2600.4112	1141.75	261.5
986.7867	2601.6983	1144.5	260.65
986.912	2602.9848	1138.05	257.85
987.0372	2604.2705	1145.25	259.2
987.1624	2605.5556	1146.85	266
987.2876	2606.84	1134.9	255.25
987.4128	2608.1237	1138.7	256.45
987.5379	2609.4067	1134.7	255.3
987.6629	2610.689	1144.75	255.5
987.788	2611.9707	1138.85	256.3
987.913	2613.2516	1135.3	250.9
988.0379	2614.5319	1132.05	253.55
988.1629	2615.8115	1126.2	246.3
988.2878	2617.0903	1125.75	246.6
988.4126	2618.3685	1127	245.95
988.5375	2619.6461	1127.15	248.25
988.6622	2620.9229	1124.75	243.85
988.787	2622.199	1123.7	243.5
988.9117	2623.4745	1124.3	243.7
989.0364	2624.7493	1123.2	244.2
989.161	2626.0234	1122.7	242.3
989.2857	2627.2968	1121.25	243.15
989.4102	2628.5695	1122.7	240.8
989.5348	2629.8415	1118.1	239.05
989.6593	2631.1128	1125.65	244.15
989.7837	2632.3835	1122.7	243.3
989.9082	2633.6535	1121.65	241.9
990.0326	2634.9228	1120.5	240.6
990.1569	2636.1914	1118.05	237.3
990.2812	2637.4593	1120.1	240.05
990.4055	2638.7265	1119.15	238.95
990.5298	2639.9931	1119	240.45
990.654	2641.259	1119.1	236.65
990.7782	2642.5242	1114.25	234
990.9023	2643.7887	1115.7	235.7
991.0264	2645.0525	1115	236.3
991.1505	2646.3156	1112.2	233.2
991.2745	2647.5781	1112.85	234.5
991.3985	2648.8398	1106.35	228.5
991.5225	2650.1009	1150.85	236.15
991.6464	2651.3613	1108.25	229.05
991.7703	2652.6211	1105.75	225.5
991.8942	2653.8801	1106.8	227.8
992.018	2655.1385	1104.35	221.1
992.1418	2656.3961	1106.1	226.65
992.2655	2657.6531	1106.65	225.75
992.3892	2658.9094	1102.3	224.35
992.5129	2660.1651	1102.7	221.8
992.6366	2661.42	1101.4	224.4
992.7602	2662.6743	1106.2	225.45
992.8837	2663.9279	1105.6	226.1
993.0073	2665.1808	1104.7	224.75
993.1307	2666.433	1109.45	229.25
993.2542	2667.6846	1107.15	228.7
993.3776	2668.9354	1114.85	231.9
993.501	2670.1856	1111.35	232.4
993.6244	2671.4351	1111.2	232.65
993.7477	2672.6839	1116.15	234.5
993.8709	2673.9321	1115.45	236.05
993.9942	2675.1795	1111.85	231.95
994.1174	2676.4263	1119.45	241.1
994.2405	2677.6724	1121.35	244.35
994.3637	2678.9179	1119.05	237.1
994.4868	2680.1626	1118	238.05
994.6098	2681.4067	1118.3	238.4
994.7328	2682.6501	1113.4	234.05
994.8558	2683.8928	1115.5	235.75
994.9788	2685.1348	1112.2	233.15
995.1017	2686.3761	1110.15	231.85
995.2245	2687.6168	1106.2	224.95
995.3474	2688.8568	1099.8	218.7
995.4702	2690.0961	1098.85	221.35
995.5929	2691.3348	1102.05	222.4
995.7156	2692.5727	1101.95	222.3
995.8383	2693.81	1096.6	217.9
995.961	2695.0466	1088.9	209.9
996.0836	2696.2826	1096.2	217.6
996.2062	2697.5178	1099.85	217.85
996.3287	2698.7524	1102.05	223.1
996.4512	2699.9863	1097.5	219.05
996.5737	2701.2195	1099.4	220.6
996.6961	2702.452	1104.7	224
996.8185	2703.6839	1102.8	223.65
996.9408	2704.9151	1106.9	228.4
997.0631	2706.1456	1106.05	227.1
997.1854	2707.3755	1109.4	230.1
997.3077	2708.6046	1107.65	226.9
997.4299	2709.8331	1111.75	231.1
997.552	2711.0609	1109.95	230.2
997.6742	2712.2881	1117.95	239.15
997.7963	2713.5145	1120.95	240.2
997.9183	2714.7403	1128	250.8
998.0403	2715.9654	1125.8	244.9
998.1623	2717.1899	1147.75	255.65
998.2842	2718.4136	1136.45	258.25
998.4062	2719.6367	1142.35	263.9
998.528	2720.8591	1151.8	265.65
998.6498	2722.0809	1151.95	274.3
998.7716	2723.3019	1167.4	284.15
998.8934	2724.5223	1158.85	277.4
999.0151	2725.7421	1162.85	281.5
999.1368	2726.9611	1153.5	272.65
999.2584	2728.1795	1158.6	276
999.38	2729.3972	1137.15	256.35
999.5016	2730.6142	1147.5	256.9
999.6231	2731.8306	1126.15	245.1
999.7446	2733.0462	1129.75	247.35
999.8661	2734.2612	1124.65	240.9
999.9875	2735.4756	1113.15	232.1
1000.1089	2736.6892	1108.7	227.05
1000.2302	2737.9022	1104.35	226.05
1000.3515	2739.1145	1106.4	226.25
1000.4728	2740.3262	1108.85	220.95
1000.594	2741.5372	1099.9	220.25
1000.7152	2742.7475	1099.55	220.15
1000.8363	2743.9571	1094.9	213
1000.9575	2745.1661	1097.05	212.45
1001.0785	2746.3744	1088.3	208.05
1001.1996	2747.582	1084.15	205.5
1001.3206	2748.7889	1080.05	198.95
1001.4415	2749.9952	1076.65	195.9
1001.5625	2751.2008	1075.9	194.55
1001.6833	2752.4057	1075.5	195.15
1001.8042	2753.61	1071.75	193.15
1001.925	2754.8136	1073.2	193.9
1002.0458	2756.0165	1066.7	187.4
1002.1665	2757.2188	1067.8	188.8
1002.2872	2758.4204	1070.25	192.35
1002.4078	2759.6213	1068	185.95
1002.5285	2760.8215	1076.65	193.65
1002.649	2762.0211	1072.6	191.65
1002.7696	2763.22	1074	190.4
1002.8901	2764.4182	1073.05	193.15
1003.0106	2765.6158	1069.4	188.8
1003.131	2766.8127	1072.5	194.45
1003.2514	2768.009	1064.25	185.6
1003.3717	2769.2045	1059.15	179.85
1003.492	2770.3994	1061	179.2
1003.6123	2771.5936	1060.4	180.15
1003.7325	2772.7872	1052	174.25
1003.8527	2773.9801	1061.95	178.6
1003.9729	2775.1723	1072.2	176.7
1004.093	2776.3639	1054.75	176.85
1004.2131	2777.5548	1054.9	174.95
1004.3331	2778.745	1052.45	173.15
1004.4531	2779.9346	1053.45	174.7
1004.5731	2781.1235	1058.85	175.95
1004.693	2782.3117	1056.5	176.75
1004.8129	2783.4992	1054.5	177.65
1004.9328	2784.6861	1056.9	177.05
1005.0526	2785.8723	1057.8	177.9
1005.1723	2787.0579	1061.5	181.25
1005.2921	2788.2428	1058.2	179.5
1005.4118	2789.427	1059.6	179.6
1005.5314	2790.6106	1057.3	178.15
1005.651	2791.7935	1057.75	179.1
1005.7706	2792.9757	1060.6	181.8
1005.8902	2794.1573	1061.35	181.2
1006.0097	2795.3382	1060.8	182.3
1006.1291	2796.5184	1057.8	180.75
1006.2485	2797.698	1071.7	190.35
1006.3679	2798.8769	1068.95	191.85
1006.4873	2800.0551	1070.15	189.1
1006.6066	2801.2327	1072.65	188.95
1006.7258	2802.4096	1072.7	196.55
1006.8451	2803.5859	1072.7	195.3
1006.9642	2804.7615	1082.45	201.15
1007.0834	2805.9364	1078.55	199.75
1007.2025	2807.1106	1078.65	200.25
1007.3216	2808.2842	1089.3	208.25
1007.4406	2809.4572	1094.4	215.3
1007.5596	2810.6294	1098.6	220.05
1007.6785	2811.801	1107.35	228.6
1007.7975	2812.972	1117.35	239.45
1007.9163	2814.1423	1122.4	244.95
1008.0352	2815.3119	1136.6	257.25
1008.154	2816.4808	1145.6	267.5
1008.2727	2817.6491	1162.7	283.05
1008.3914	2818.8167	1181.35	301.75
1008.5101	2819.9837	1213.15	328.45
1008.6288	2821.15	1231.35	351.05
1008.7474	2822.3157	1264.25	384.55
1008.8659	2823.4807	1298.25	420.4
1008.9844	2824.645	1342.95	462.55
1009.1029	2825.8086	1385	506.9
1009.2214	2826.9716	1423.55	544.1
1009.3398	2828.134	1465.6	586.7
1009.4581	2829.2957	1494.7	616.1
1009.5764	2830.4567	1522.7	645.45
1009.6947	2831.617	1543.55	665.25
1009.813	2832.7767	1570.55	692.4
1009.9312	2833.9358	1562	681.8
1010.0493	2835.0941	1571.55	690.45
1010.1675	2836.2519	1547.55	668.25
1010.2855	2837.4089	1530.8	650.2
1010.4036	2838.5653	1502.35	625.2
1010.5216	2839.7211	1483.2	604.95
1010.6396	2840.8761	1477.95	597.05
1010.7575	2842.0306	1474.25	597.5
1010.8754	2843.1843	1476.05	597.55
1010.9932	2844.3374	1487.65	608.25
1011.111	2845.4899	1491	613.2
1011.2288	2846.6417	1503	627.15
1011.3465	2847.7928	1508.95	628.75
1011.4642	2848.9433	1512.9	634.2
1011.5818	2850.0931	1519.55	642.1
1011.6995	2851.2422	1522.05	640.8
1011.817	2852.3907	1524.65	646.85
1011.9345	2853.5385	1536.45	655.4
1012.052	2854.6857	1565.6	658.85
1012.1695	2855.8323	1545.55	668.3
1012.2869	2856.9781	1562.5	683.1
1012.4042	2858.1233	1572.3	693.65
1012.5216	2859.2679	1599.05	719.85
1012.6389	2860.4118	1612.6	734.6
1012.7561	2861.555	1639.1	755
1012.8733	2862.6976	1661.35	779.9
1012.9905	2863.8395	1665.3	787.15
1013.1076	2864.9808	1674.65	796.3
1013.2247	2866.1214	1684.15	805.95
1013.3417	2867.2614	1689.1	811.05
1013.4587	2868.4007	1702.8	822.3
1013.5757	2869.5393	1716.5	834.45
1013.6926	2870.6773	1732.75	851.05
1013.8095	2871.8146	1752	870.05
1013.9263	2872.9513	1762	881.9
1014.0431	2874.0874	1758.55	879.75
1014.1599	2875.2227	1779.45	900.6
1014.2766	2876.3574	1792.55	912.45
1014.3933	2877.4915	1791.55	911.55
1014.51	2878.6249	1803.7	924.7
1014.6266	2879.7577	1820.35	940.4
1014.7431	2880.8898	1846.85	958.35
1014.8596	2882.0212	1850.8	973.25
1014.9761	2883.152	1862.7	982.1
1015.0925	2884.2821	1869.35	992.35
1015.2089	2885.4116	1886.95	1009.2
1015.3253	2886.5405	1904.75	1026.5
1015.4416	2887.6686	1910.9	1029.75
1015.5579	2888.7962	1901.05	1023.65
1015.6741	2889.923	1906.15	1029.85
1015.7903	2891.0493	1901	1023.35
1015.9065	2892.1748	1902.45	1022.8
1016.0226	2893.2997	1900.7	1020.75
1016.1387	2894.424	1889.35	1009.4
1016.2547	2895.5476	1909.45	1030.1
1016.3707	2896.6706	1907.95	1029.5
1016.4866	2897.7929	1907.65	1029.25
1016.6025	2898.9145	1904.75	1026.25
1016.7184	2900.0355	1905.9	1027.6
1016.8342	2901.1559	1902.35	1023.05
1016.95	2902.2756	1889.5	1006.7
1017.0658	2903.3946	1891.55	1012.35
1017.1815	2904.513	1884.4	1003.05
1017.2971	2905.6308	1875.9	997.2
1017.4127	2906.7479	1878.9	997.6
1017.5283	2907.8643	1865.15	985.85
1017.6439	2908.9801	1866	987.55
1017.7594	2910.0953	1870.85	992.65
1017.8748	2911.2098	1882.75	1001.45
1017.9902	2912.3236	1867.65	982.15
1018.1056	2913.4368	1866.4	985.05
1018.2209	2914.5494	1863.2	984.35
1018.3362	2915.6613	1853.7	968.35
1018.4515	2916.7725	1835.3	955
1018.5667	2917.8831	1816.75	934.7
1018.6819	2918.9931	1807.95	925.4
1018.797	2920.1024	1786.3	905.8
1018.9121	2921.211	1778.7	901.05
1019.0271	2922.319	1769.5	892.85
1019.1421	2923.4264	1760.15	881.4
1019.2571	2924.5331	1746.6	870.45
1019.372	2925.6391	1755.6	878.6
1019.4869	2926.7445	1754.4	876.1
1019.6017	2927.8493	1760.3	879.9
1019.7165	2928.9534	1758.15	878.55
1019.8313	2930.0569	1763.05	881.05
1019.946	2931.1597	1770.6	890.9
1020.0606	2932.2619	1777.9	901.95
1020.1753	2933.3634	1789.05	909.4
1020.2899	2934.4643	1794.4	910.8
1020.4044	2935.5645	1809.4	923.45
1020.5189	2936.6641	1807.35	924
1020.6334	2937.763	1810.95	931.25
1020.7478	2938.8613	1809.3	929.15
1020.8622	2939.959	1807.45	922.9
1020.9765	2941.056	1774.6	896.55
1021.0908	2942.1523	1750.1	868.9
1021.2051	2943.248	1711.6	832.9
1021.3193	2944.3431	1664.1	785.6
1021.4334	2945.4375	1634.75	755.65
1021.5476	2946.5313	1589.8	713.85
1021.6617	2947.6244	1552.75	673.15
1021.7757	2948.7169	1514.25	634.6
1021.8897	2949.8087	1472.55	594.45
1022.0037	2950.8999	1451	570.45
1022.1176	2951.9904	1416.6	539.6
1022.2315	2953.0803	1397.3	517.65
1022.3453	2954.1696	1374.2	496.55
1022.4591	2955.2582	1350.7	471.9
1022.5728	2956.3462	1336.45	458.75
1022.6865	2957.4335	1331.35	452.3
1022.8002	2958.5202	1340.65	458.55
1022.9138	2959.6062	1337.25	460
1023.0274	2960.6916	1326.6	447.3
1023.141	2961.7764	1328.4	448.5
1023.2545	2962.8605	1337.3	457.55
1023.3679	2963.9439	1328.8	452.05
1023.4813	2965.0267	1328.55	450.25
1023.5947	2966.1089	1345.1	445.1
1023.708	2967.1905	1319.35	442.8
1023.8213	2968.2714	1315.05	437.7
1023.9346	2969.3516	1306.7	429.1
1024.0478	2970.4312	1310.65	426
1024.1609	2971.5102	1304	427.2
1024.274	2972.5885	1304.05	425.55
1024.3871	2973.6662	1307.9	423.4
1024.5002	2974.7432	1304.35	426.75
1024.6132	2975.8196	1306.35	427.45
1024.7261	2976.8954	1303.8	424.95
1024.839	2977.9705	1308.5	429.9
1024.9519	2979.045	1310.9	432.65
1025.0647	2980.1188	1302.8	423.4
1025.1775	2981.192	1302.35	424.25
1025.2902	2982.2645	1296.15	417.05
1025.4029	2983.3364	1283.3	405.15
1025.5156	2984.4077	1273.8	394.8
1025.6282	2985.4783	1262.15	378.25
1025.7407	2986.5483	1241.55	362.7
1025.8532	2987.6177	1229.1	351.3
1025.9657	2988.6864	1228.5	350.25
1026.0782	2989.7545	1213.2	334.4
1026.1906	2990.8219	1198.8	321.85
1026.3029	2991.8887	1195.65	315.15
1026.4152	2992.9548	1180.8	301.25
1026.5275	2994.0204	1159.9	283.3
1026.6397	2995.0852	1150	272.7
1026.7519	2996.1495	1139.75	259.75
1026.864	2997.2131	1119	240.3
1026.9761	2998.276	1106.55	228.05
1027.0882	2999.3383	1093.6	213.15
1027.2002	3000.4	1083.25	203.65
1027.3122	3001.4611	1072.15	193.75
1027.4241	3002.5215	1067.65	188.6
1027.536	3003.5812	1061.55	182.6
1027.6478	3004.6404	1051.5	174.2
1027.7596	3005.6989	1050.2	168.65
1027.8714	3006.7567	1044.2	166
1027.9831	3007.8139	1067.65	157.95
1028.0947	3008.8705	1032.5	155.4
1028.2064	3009.9264	1034.85	151.1
1028.3179	3010.9818	1022.85	145.55
1028.4295	3012.0364	1024.1	143.7
1028.541	3013.0905	1019.1	140.35
1028.6524	3014.1439	1019.05	140.15
1028.7638	3015.1966	1013.35	134.75
1028.8752	3016.2487	1013.85	136.3
1028.9865	3017.3002	1014.85	132.85
1029.0978	3018.3511	1010.2	132.05
1029.209	3019.4013	1007.65	128.6
1029.3202	3020.4509	1007.95	131
1029.4314	3021.4998	1006.55	128.65
1029.5425	3022.5481	1003.6	123.75
1029.6535	3023.5958	1003.1	125.2
1029.7645	3024.6428	1005.7	125.45
1029.8755	3025.6892	1004.95	127.65
1029.9864	3026.735	1005.9	128.6
1030.0973	3027.7802	1000.8	122.9
1030.2082	3028.8247	1005.25	127.55
1030.319	3029.8685	1003.9	125.95
1030.4297	3030.9118	1001.8	121.9
1030.5404	3031.9544	1001.4	121.15
1030.6511	3032.9963	1002.5	125.5
1030.7617	3034.0376	1001.9	124.85
1030.8723	3035.0783	1003	122.2
1030.9829	3036.1184	1003.35	124.5
1031.0934	3037.1578	999.45	122.15
1031.2038	3038.1966	1004.1	125
1031.3142	3039.2348	1001.8	122.4
1031.4246	3040.2723	1012.9	126.05
1031.5349	3041.3092	1006	130.2
1031.6452	3042.3455	1006.75	129.7
1031.7554	3043.3811	1005.75	128.65
1031.8656	3044.4161	1005.65	124
1031.9758	3045.4505	1004.2	127.9
1032.0859	3046.4842	1006.25	127.15
1032.1959	3047.5173	1007.15	130.05
1032.3059	3048.5498	1006.6	127.65
1032.4159	3049.5816	1005.8	127.05
1032.5258	3050.6128	1007.65	127.9
1032.6357	3051.6434	1007.45	128.35
1032.7455	3052.6734	1006.35	127.05
1032.8553	3053.7027	1008	129.9
1032.9651	3054.7314	1007.7	128.6
1033.0748	3055.7594	1006.85	128.35
1033.1845	3056.7868	1008.75	130
1033.2941	3057.8136	1012.5	135.2
1033.4037	3058.8398	1011.75	135.45
1033.5132	3059.8653	1008.35	130.85
1033.6227	3060.8902	1018.2	141.25
1033.7321	3061.9145	1012.75	134.65
1033.8415	3062.9381	1020.6	143.5
1033.9509	3063.9612	1035.15	140.4
1034.0602	3064.9835	1015.95	138.15
1034.1694	3066.0053	1017.85	137.35
1034.2787	3067.0264	1017.2	137.5
1034.3878	3068.0469	1021.3	142
1034.497	3069.0668	1021.2	141.3
1034.6061	3070.086	1018.95	142
1034.7151	3071.1046	1017.4	138.4
1034.8241	3072.1226	1018.85	138.35
1034.9331	3073.1399	1007.35	128.95
1035.042	3074.1567	1010.15	132.85
1035.1508	3075.1727	1012.6	132.95
1035.2597	3076.1882	1002.35	125.95
1035.3684	3077.203	999.85	121.45
1035.4772	3078.2173	997.6	116.8
1035.5859	3079.2308	999.2	118.65
1035.6945	3080.2438	994.25	114.1
1035.8031	3081.2561	990.15	113.35
1035.9117	3082.2678	984.05	105.75
1036.0202	3083.2789	982.7	106.3
1036.1286	3084.2893	980.85	103
1036.2371	3085.2991	980.55	102.75
1036.3454	3086.3083	979.45	96.5
1036.4538	3087.3169	976.85	97.25
1036.562	3088.3248	972.6	92.3
1036.6703	3089.3321	975.2	94.15
1036.7785	3090.3388	970.7	93.3
1036.8866	3091.3449	965.35	85.55
1036.9948	3092.3503	971.6	90.95
1037.1028	3093.3551	963.95	87.15
1037.2108	3094.3593	964.75	89.4
1037.3188	3095.3629	964.1	86
1037.4267	3096.3658	965	85.65
1037.5346	3097.3681	961	82.45
1037.6425	3098.3698	960.95	82.35
1037.7503	3099.3708	961.65	81.95
1037.858	3100.3713	958.45	80.05
1037.9657	3101.3711	957.1	77.35
1038.0734	3102.3702	1094.6	81.95
1038.181	3103.3688	960.4	81.35
1038.2886	3104.3667	952.95	76.45
1038.3961	3105.364	950.7	73.05
1038.5036	3106.3607	953.65	74.65
1038.611	3107.3568	949.8	69.45
1038.7184	3108.3522	949.8	72.95
1038.8257	3109.347	947.8	68.3
1038.933	3110.3412	950.25	67
1039.0403	3111.3348	949.1	68.5
1039.1475	3112.3277	950.1	73.15
1039.2547	3113.32	943.4	63.95
1039.3618	3114.3117	944.7	65.25
1039.4689	3115.3028	943.5	66.05
1039.5759	3116.2932	946	67.35
1039.6829	3117.2831	948.85	66.25
1039.7898	3118.2723	940	63.5
1039.8967	3119.2608	940.15	62
1040.0035	3120.2488	940.35	61.5
1040.1103	3121.2361	938.7	59.05
1040.2171	3122.2229	936.75	55.75
1040.3238	3123.209	940.3	61.1
1040.4305	3124.1944	932.7	53.25
1040.5371	3125.1793	937.95	58.8
1040.6437	3126.1635	934	56.7
1040.7502	3127.1471	934.55	57.45
1040.8567	3128.1301	932.65	55.05
1040.9631	3129.1125	931.1	52.1
1041.0695	3130.0942	932.55	53.85
1041.1759	3131.0753	938.1	50.95
1041.2822	3132.0558	933.65	52.75
1041.3884	3133.0357	934.15	55.5
1041.4946	3134.015	930.25	51.2
1041.6008	3134.9936	931.3	52
1041.7069	3135.9716	949.8	48.85
1041.813	3136.949	929.25	52
1041.919	3137.9258	945.6	50.4
1042.025	3138.902	934.45	50.8
1042.1309	3139.8775	926.95	49.85
1042.2368	3140.8524	926.55	48.4
1042.3427	3141.8267	927.95	46.6
1042.4485	3142.8004	924.85	46.5
1042.5542	3143.7735	932.65	48.35
1042.6599	3144.7459	929.15	49.95
1042.7656	3145.7178	926.05	46.85
1042.8712	3146.689	921.65	45.1
1042.9768	3147.6596	927.25	47.75
1043.0823	3148.6295	922.7	43.8
1043.1878	3149.5989	924.45	46.7
1043.2932	3150.5676	921.9	45.05
1043.3986	3151.5357	920.05	43.2
1043.5039	3152.5032	922.25	44.55
1043.6092	3153.4701	922.05	42.7
1043.7145	3154.4364	923.15	42.85
1043.8197	3155.402	917.2	38.6
1043.9248	3156.367	922	41.75
1044.03	3157.3315	955.65	42.1
1044.135	3158.2952	923	44.55
1044.24	3159.2584	918.7	39.9
1044.345	3160.221	919.05	41.5
1044.4499	3161.1829	920.8	43.1
1044.5548	3162.1442	918.45	42
1044.6596	3163.105	917.8	40.6
1044.7644	3164.065	918.15	38.35
1044.8692	3165.0245	921.6	41.1
1044.9739	3165.9834	915.85	37.4
1045.0785	3166.9416	918	41.5
1045.1831	3167.8993	918.9	39.95
1045.2877	3168.8563	919.75	40.15
1045.3922	3169.8127	917.1	38.85
1045.4966	3170.7684	916.4	37.25
1045.6011	3171.7236	917.4	38.35
1045.7054	3172.6782	914.45	35.35
1045.8098	3173.6321	916	35.45
1045.914	3174.5854	919.9	39.35
1046.0183	3175.5381	913.8	34.55
1046.1224	3176.4902	913.45	35.9
1046.2266	3177.4417	913.45	36.9
1046.3307	3178.3926	914.4	36.8
1046.4347	3179.3428	912.3	36.3
1046.5387	3180.2924	912.55	32.3
1046.6427	3181.2415	912.9	36.45
1046.7466	3182.1899	914.65	35.45
1046.8504	3183.1377	914.25	35.65
1046.9542	3184.0848	917.55	37.45
1047.058	3185.0314	913	35.7
1047.1617	3185.9773	913.85	34.2
1047.2654	3186.9227	912.6	33.55
1047.369	3187.8674	910.75	31.2
1047.4726	3188.8115	914.35	32.35
1047.5761	3189.755	909.9	31.1
1047.6796	3190.6979	909.6	31.85
1047.783	3191.6402	910.2	33.6
1047.8864	3192.5818	908.2	29.7
1047.9898	3193.5229	936.5	32.45
1048.0931	3194.4633	909.35	30.9
1048.1963	3195.4031	910.65	31.4
1048.2995	3196.3423	909	32.75
1048.4027	3197.2809	905.95	25.6
1048.5058	3198.2189	909.6	33
1048.6089	3199.1563	912.6	29.85
1048.7119	3200.0931	907.9	29.9
1048.8148	3201.0292	907.15	30.7
1048.9178	3201.9648	906.45	26.05
1049.0206	3202.8997	910.35	29.7
1049.1235	3203.834	905.75	28
1049.2262	3204.7677	907.4	28.7
1049.329	3205.7008	910.1	29.75
1049.4317	3206.6333	903.8	26.95
1049.5343	3207.5652	909	29.1
1049.6369	3208.4964	907.15	28.75
1049.7394	3209.4271	905.1	28.05
1049.8419	3210.3571	905.7	29.05
1049.9444	3211.2865	906.3	28.4
1050.0468	3212.2154	908.05	29.6
1050.1491	3213.1436	909	28.35
1050.2514	3214.0712	914.2	28.8
1050.3537	3214.9982	906	30.15
1050.4559	3215.9246	904.8	25.35
1050.5581	3216.8503	904.55	26.65
1050.6602	3217.7755	905.95	27.55
1050.7623	3218.7001	905.6	27
1050.8643	3219.624	905.05	26.75
1050.9663	3220.5473	903.15	24.75
1051.0682	3221.4701	904.15	25.05
1051.1701	3222.3922	906.45	28.3
1051.2719	3223.3137	904.3	25.6
1051.3737	3224.2346	906.2	30
1051.4754	3225.1549	901.7	24.7
1051.5771	3226.0746	903.7	25.75
1051.6788	3226.9937	902.05	23.1
1051.7804	3227.9121	900.65	22.55
1051.8819	3228.83	905	26.7
1051.9834	3229.7473	903.6	26.1
1052.0849	3230.6639	902.8	23.4
1052.1863	3231.5799	905.9	29.3
1052.2876	3232.4954	905.25	26.05
1052.3889	3233.4102	900.75	23.1
1052.4902	3234.3244	902.1	24.75
1052.5914	3235.238	899.1	22.45
1052.6926	3236.151	926.65	25.9
1052.7937	3237.0634	901	23.35
1052.8948	3237.9752	902.05	23.45
1052.9958	3238.8864	903.8	24.9
1053.0968	3239.797	900.7	21.6
1053.1977	3240.7069	899.55	21.3
1053.2986	3241.6163	902.1	23.15
1053.3994	3242.5251	898.65	20.2
1053.5002	3243.4332	898.7	21.8
1053.6009	3244.3408	901.15	23.65
1053.7016	3245.2477	898.6	19.85
1053.8022	3246.154	899.6	20.95
1053.9028	3247.0598	900.65	21.8
1054.0034	3247.9649	897.45	19.25
1054.1039	3248.8694	899.6	21.65
1054.2043	3249.7733	899.45	21.85
1054.3047	3250.6766	896.85	19.25
1054.4051	3251.5793	899.1	18.95
1054.5054	3252.4814	897.5	18.85
1054.6056	3253.3829	897.1	16.75
1054.7058	3254.2838	895.25	17.25
1054.806	3255.1841	897.7	19.85
1054.9061	3256.0838	898.9	19.9
1055.0061	3256.9829	895.55	18.2
1055.1062	3257.8814	899.45	18.25
1055.2061	3258.7792	898	17.95
1055.306	3259.6765	897.95	19.2
1055.4059	3260.5731	895.85	18.55
1055.5057	3261.4692	895.45	17.75
1055.6055	3262.3647	896.5	16.35
1055.7052	3263.2595	896	18.95
1055.8049	3264.1538	893.25	15.7
1055.9045	3265.0474	895.45	18.2
1056.0041	3265.9404	894.15	15.05
1056.1036	3266.8329	892.7	16.35
1056.2031	3267.7247	903.4	15.55
1056.3025	3268.616	892.45	16.75
1056.4019	3269.5066	893.85	15
1056.5013	3270.3966	894.75	13.2
1056.6005	3271.286	891.3	14.9
