Software Version:	3.9.2.0
Unit SN:	10000200
Spectrometer SN:	6960
Date:	3/8/2024 1:02:52 PM
Data Line Index:	25
Spectral Points:	2048
Integration time (ms):	125
Averages:	20
Delay (ms):	30000
Sequence Number:	1
Processing:	dark subtract
Laser Power (mW):	300
Laser Current (mA):	823
Laser Diode Temp (C):	25
Laser Case Temp (C):	26.1
System Temp (C):	26.1
Spectrometer Temp (C):	23.9
CCD Temp (C):	0.001
Secondary Temp (C):	20.007
Heatsink Temp (C):	20.792
CCDPCB Temp (C):	35.907
SecondaryPCB Temp (C):	29.226

Wavelength	RamanShift	Raw Counts	Dark Subtracted
787.061	30.1047	456.2	46.65
787.2016	32.3739	456.65	49.75
787.3422	34.6426	464.8	57.35
787.4828	36.9109	469.25	59.85
787.6235	39.1787	479	63.95
787.7642	41.4461	483.6	66.3
787.9049	43.7131	497.15	74.15
788.0456	45.9796	502.5	77.75
788.1863	48.2456	514	86
788.3271	50.5112	525.45	93.95
788.4679	52.7764	531.8	96.5
788.6087	55.0411	544.15	103.3
788.7496	57.3054	554.15	106.35
788.8904	59.5692	563.25	116.2
789.0313	61.8326	571.6	123.05
789.1722	64.0955	587.05	134.6
789.3132	66.3579	604.55	148.95
789.4541	68.6199	621.3	159.35
789.5951	70.8815	655.7	190.45
789.7361	73.1426	743.5	273.25
789.8771	75.4032	959.25	484.75
790.0181	77.6634	1483.4	1001.8
790.1592	79.9231	2715.55	2224.85
790.3003	82.1824	5375.35	4868.2
790.4414	84.4412	10128.65	9588.25
790.5825	86.6995	16641.85	16060.55
790.7237	88.9574	22940.35	22322.95
790.8648	91.2148	27238.9	26592.7
791.006	93.4717	29139.35	28478.2
791.1472	95.7282	29429.1	28761.2
791.2885	97.9842	29235.45	28558.6
791.4297	100.2398	28506.85	27828.65
791.571	102.4949	27728.6	27045.3
791.7123	104.7495	26822.05	26140.8
791.8536	107.0036	25921.8	25241.9
791.9949	109.2573	25151.35	24462.85
792.1363	111.5105	24367.25	23684.8
792.2777	113.7632	23665.05	22981.95
792.4191	116.0154	23073.35	22374.8
792.5605	118.2672	22619.1	21931.1
792.7019	120.5185	22187.95	21495.25
792.8434	122.7693	21860.7	21165.25
792.9849	125.0197	21569.35	20868.85
793.1264	127.2696	21284.75	20585.9
793.2679	129.519	21094.65	20391.4
793.4094	131.7679	20842.7	20135.3
793.551	134.0163	20579.3	19869.05
793.6926	136.2642	20265.5	19546.15
793.8342	138.5117	19971.5	19244.65
793.9758	140.7587	19631.35	18909.9
794.1175	143.0052	19366.05	18641.85
794.2591	145.2512	19025.25	18300.1
794.4008	147.4967	18733.9	18012.4
794.5425	149.7417	18573.8	17848.1
794.6842	151.9863	18387.1	17656.55
794.826	154.2304	18305	17566.3
794.9677	156.4739	18113.6	17374.1
795.1095	158.717	18076.55	17336.7
795.2513	160.9596	17891.05	17145.9
795.3931	163.2017	17589.4	16846.3
795.535	165.4433	17280.65	16530.8
795.6768	167.6844	16945.1	16197.25
795.8187	169.925	16632	15878.05
795.9606	172.1651	16258.7	15505.45
796.1025	174.4047	16000.1	15243.25
796.2445	176.6439	15762	15002.75
796.3864	178.8825	15510	14749.6
796.5284	181.1206	15367.5	14599.25
796.6704	183.3582	15219.75	14443
796.8124	185.5954	15101.95	14327.4
796.9544	187.832	15061.1	14284.5
797.0965	190.0681	15020.7	14242.45
797.2386	192.3037	14985.85	14197.1
797.3806	194.5388	15008.2	14217.3
797.5228	196.7734	15061.2	14272
797.6649	199.0075	15129.95	14338.8
797.807	201.2411	15232.35	14439.9
797.9492	203.4742	15318.7	14526.3
798.0914	205.7068	15479	14680.15
798.2336	207.9389	15604.45	14807.3
798.3758	210.1704	15767.55	14971.15
798.518	212.4015	15878.9	15092.5
798.6603	214.632	16044.05	15267.15
798.8025	216.862	16217.45	15442
798.9448	219.0915	16329.55	15551.25
799.0871	221.3205	16505.45	15723.15
799.2294	223.549	16656	15876.45
799.3718	225.777	16871.7	16096.65
799.5141	228.0044	17070.2	16286.9
799.6565	230.2314	17371.65	16589.4
799.7989	232.4578	17557.3	16775.1
799.9413	234.6837	17795.6	17007.7
800.0837	236.909	17954.2	17159.6
800.2262	239.1339	17947.85	17127.2
800.3687	241.3582	17835.05	17023.3
800.5111	243.582	17632.55	16796.3
800.6536	245.8053	17467.5	16644.15
800.7961	248.0281	17287.25	16466.3
800.9387	250.2503	17168.4	16342.55
801.0812	252.472	17150.85	16321.1
801.2238	254.6932	17231.45	16408.3
801.3664	256.9139	17262.35	16437.55
801.509	259.134	17391.45	16562.75
801.6516	261.3536	17540.2	16712.95
801.7942	263.5727	17781.65	16948.55
801.9369	265.7912	17925.65	17095.4
802.0795	268.0092	18108.65	17283.45
802.2222	270.2267	18192.8	17367.05
802.3649	272.4436	18269.35	17441.2
802.5076	274.6601	18273.05	17433.35
802.6504	276.8759	18181.7	17350.3
802.7931	279.0913	18101.65	17267.85
802.9359	281.3061	18025.7	17190.8
803.0787	283.5204	17988.35	17144.35
803.2215	285.7341	18011.6	17168.2
803.3643	287.9473	18092.05	17234.8
803.5071	290.16	18207.9	17359.85
803.6499	292.3721	18360.3	17517.9
803.7928	294.5837	18693.15	17847.15
803.9357	296.7947	18987.15	18143.1
804.0786	299.0052	19128.95	18283.25
804.2215	301.2152	19051.45	18203.35
804.3644	303.4246	18811.75	17969.4
804.5074	305.6334	18392.4	17552.15
804.6503	307.8418	17948.65	17105.15
804.7933	310.0495	17503.35	16655.85
804.9363	312.2568	17129.35	16277.3
805.0793	314.4635	16814.7	15963.1
805.2223	316.6696	16555.15	15700.45
805.3653	318.8752	16411.3	15547
805.5084	321.0802	16400.25	15544.05
805.6514	323.2847	16491.1	15636
805.7945	325.4887	16509.3	15652.6
805.9376	327.692	16491.8	15635.75
806.0807	329.8949	16393.15	15537.8
806.2238	332.0972	16184.85	15322.45
806.367	334.2989	15959	15093.2
806.5101	336.5001	15687.05	14823.05
806.6533	338.7007	15469.95	14606.25
806.7965	340.9008	15335.1	14466.65
806.9397	343.1003	15210.15	14343.35
807.0829	345.2992	15125.5	14257.75
807.2261	347.4976	15087.7	14215.45
807.3693	349.6955	15045.75	14171.45
807.5126	351.8927	15040.4	14162.3
807.6559	354.0895	14987.15	14103.35
807.7991	356.2856	15020.6	14143.2
807.9424	358.4812	14955.05	14079.15
808.0857	360.6763	14987.5	14109.9
808.2291	362.8707	14969.45	14087.8
808.3724	365.0646	15015.8	14135
808.5158	367.258	15064.85	14183.75
808.6591	369.4508	15103.7	14220.3
808.8025	371.643	15248.15	14363.7
808.9459	373.8346	15277.9	14387.1
809.0893	376.0257	15321.15	14430.15
809.2327	378.2162	15264.7	14377.4
809.3762	380.4062	15244	14351.7
809.5196	382.5956	15129.65	14244
809.6631	384.7844	15022.65	14143.4
809.8066	386.9726	14896.7	14016.05
809.9501	389.1603	14824.2	13943.65
810.0936	391.3474	14788.4	13884.25
810.2371	393.5339	14746.4	13865.25
810.3806	395.7199	14688.4	13808.65
810.5241	397.9052	14762.2	13882.85
810.6677	400.09	14772.3	13895.45
810.8113	402.2743	14927.95	14051.7
810.9548	404.4579	15054.05	14171.4
811.0984	406.641	15251.3	14369.45
811.2421	408.8235	15450.45	14567.45
811.3857	411.0054	15662.95	14773
811.5293	413.1868	15962.8	15072.9
811.673	415.3675	16156.65	15262.95
811.8166	417.5477	16239.95	15347.85
811.9603	419.7273	16274.6	15381.35
812.104	421.9064	16167.55	15265.1
812.2477	424.0848	16048.3	15153.95
812.3914	426.2627	15835.25	14939.55
812.5351	428.4399	15644.1	14751.45
812.6788	430.6166	15273.45	14376.6
812.8226	432.7928	14923.25	14016.2
812.9663	434.9683	14604.8	13705.95
813.1101	437.1432	14387.9	13490.65
813.2539	439.3176	14198.8	13308.1
813.3977	441.4914	14072.05	13186.1
813.5415	443.6645	14056.7	13165.45
813.6853	445.8371	14029.75	13131.5
813.8291	448.0091	13952.25	13057.65
813.973	450.1806	13920.1	13025.3
814.1168	452.3514	13916	13021.55
814.2607	454.5216	13955.4	13054.65
814.4046	456.6913	13903.15	13004.6
814.5485	458.8603	13934.4	13041.5
814.6924	461.0288	14036.55	13146
814.8363	463.1967	14009.75	13125.55
814.9802	465.3639	14087.3	13193.85
815.1241	467.5306	14124.4	13228.05
815.2681	469.6967	14161.35	13272.95
815.412	471.8622	14259.1	13372.2
815.556	474.0271	14339.45	13448.65
815.7	476.1914	14396.4	13496.75
815.844	478.3551	14412.35	13511.75
815.988	480.5182	14463.55	13570.9
816.132	482.6807	14531.15	13645.2
816.276	484.8426	14686.45	13810.7
816.4201	487.0039	14979.65	14094.65
816.5641	489.1647	15415	14521.9
816.7082	491.3248	15755	14856.95
816.8522	493.4843	15900.2	15008.75
816.9963	495.6432	15890.85	14997.05
817.1404	497.8015	15760.4	14858.85
817.2845	499.9592	15712.25	14803.5
817.4286	502.1163	15551.7	14640.95
817.5727	504.2728	15244.15	14343.85
817.7168	506.4287	14955	14070.6
817.861	508.5839	14590.9	13702.6
818.0051	510.7386	14330.05	13431.75
818.1493	512.8927	14208.15	13301.2
818.2935	515.0461	14173.75	13270.35
818.4377	517.199	14179.3	13273.9
818.5818	519.3512	14318.7	13409.45
818.726	521.5029	14528.55	13618.95
818.8703	523.6539	14671.95	13767.9
819.0145	525.8043	14785.1	13878
819.1587	527.9541	14766.15	13857.4
819.303	530.1033	14646.7	13738.55
819.4472	532.2519	14589.3	13683.4
819.5915	534.3999	14588.5	13680.8
819.7357	536.5472	14735.95	13828.7
819.88	538.694	15034.3	14131.5
820.0243	540.8401	15498.3	14590.5
820.1686	542.9856	15796.65	14876.6
820.3129	545.1305	15901.8	14977.25
820.4572	547.2748	15806.35	14880.65
820.6016	549.4185	15516.3	14586.2
820.7459	551.5615	15293.35	14367.85
820.8902	553.704	15241.9	14320.3
821.0346	555.8458	15263.85	14347.25
821.1789	557.987	15414.5	14499.55
821.3233	560.1276	15561	14645.3
821.4677	562.2675	15816.05	14895
821.6121	564.4069	16137.5	15216.6
821.7565	566.5456	16440.35	15527.2
821.9009	568.6837	16510.15	15593.95
822.0453	570.8212	16125.3	15212.7
822.1897	572.958	15572.8	14654.25
822.3342	575.0942	15070.9	14158.2
822.4786	577.2299	14703.4	13796
822.6231	579.3648	14529.9	13634.65
822.7675	581.4992	14537.85	13650.35
822.912	583.6329	14697.7	13807.3
823.0565	585.766	14895.85	14004.9
823.201	587.8985	15029.15	14127.4
823.3454	590.0304	15069.65	14137.55
823.4899	592.1616	15009.1	14089.3
823.6345	594.2922	14879.6	13961.05
823.779	596.4222	14713.65	13786.5
823.9235	598.5515	14541	13618.2
824.068	600.6802	14348.4	13425.65
824.2126	602.8083	14182.85	13264.95
824.3571	604.9358	14143.85	13220.4
824.5017	607.0626	14146.95	13222.5
824.6462	609.1888	14211.05	13279.3
824.7908	611.3144	14275.75	13344.35
824.9354	613.4393	14321.6	13394.5
825.08	615.5636	14317.25	13383.2
825.2246	617.6873	14325.1	13398.45
825.3692	619.8103	14253.7	13322.3
825.5138	621.9327	14105.15	13178.95
825.6584	624.0544	13943.65	13024.9
825.803	626.1756	13810.6	12892.7
825.9477	628.2961	13716.55	12789.4
826.0923	630.4159	13647.85	12717.75
826.237	632.5351	13603.4	12675.3
826.3816	634.6537	13587.85	12657.8
826.5263	636.7716	13558.65	12625.65
826.6709	638.8889	13594.35	12655.55
826.8156	641.0056	13653.55	12716.2
826.9603	643.1216	13619.55	12686.15
827.105	645.237	13616.75	12685
827.2497	647.3518	13557.05	12635.85
827.3944	649.4659	13521	12603.15
827.5391	651.5793	13492.75	12572.3
827.6838	653.6922	13450.3	12526.15
827.8285	655.8043	13442.45	12517.2
827.9733	657.9159	13447.7	12520.3
828.118	660.0268	13379.65	12455.15
828.2627	662.137	13359.25	12431.9
828.4075	664.2466	13395.3	12459.35
828.5522	666.3556	13406.95	12476.25
828.697	668.4639	13359.85	12426.75
828.8418	670.5716	13337.8	12416
828.9865	672.6786	13326.1	12396.25
829.1313	674.785	13347.5	12408.75
829.2761	676.8907	13363.65	12434.9
829.4209	678.9958	13422.4	12497.5
829.5657	681.1002	13404.55	12476.45
829.7105	683.204	13377.6	12437.65
829.8553	685.3072	13363.2	12425.05
830.0001	687.4097	13300.2	12362.9
830.1449	689.5115	13308.9	12369.75
830.2898	691.6127	13257.15	12322.45
830.4346	693.7132	13235	12306.3
830.5794	695.8131	13241.35	12294.45
830.7243	697.9123	13245	12305.35
830.8691	700.0109	13275.75	12337.25
831.014	702.1089	13284.8	12348.5
831.1588	704.2061	13267.75	12332.8
831.3037	706.3028	13347.1	12407.35
831.4486	708.3987	13396.45	12458.5
831.5935	710.4941	13438.65	12500.4
831.7383	712.5887	13544.55	12608.5
831.8832	714.6827	13701.1	12761.35
832.0281	716.7761	13935.25	13003.3
832.173	718.8688	14191	13254.3
832.3179	720.9608	14380.35	13438.2
832.4628	723.0522	14450.15	13500.55
832.6077	725.1429	14444.15	13500.2
832.7527	727.233	14373.05	13432.1
832.8976	729.3224	14325.45	13385.8
833.0425	731.4112	14142.15	13200
833.1874	733.4993	14000	13060.45
833.3324	735.5867	13809.55	12870.2
833.4773	737.6735	13635.75	12693.1
833.6222	739.7596	13515.65	12571.05
833.7672	741.845	13389.2	12450.35
833.9122	743.9298	13305.45	12362.05
834.0571	746.014	13296.15	12355.45
834.2021	748.0974	13320.35	12377.1
834.347	750.1802	13311.25	12365.65
834.492	752.2624	13291.8	12346.2
834.637	754.3439	13385.3	12437.85
834.782	756.4247	13482.6	12525.25
834.9269	758.5048	13603.15	12656.5
835.0719	760.5843	13898.75	12950.05
835.2169	762.6631	14283.75	13338
835.3619	764.7413	14839.6	13892.85
835.5069	766.8188	15517.45	14569.8
835.6519	768.8956	16061.05	15112.65
835.7969	770.9718	16386.4	15441.95
835.9419	773.0473	16308.4	15361.15
836.0869	775.1221	16011.1	15066.1
836.232	777.1962	15675.3	14732
836.377	779.2697	15513	14567.05
836.522	781.3426	15569.95	14608.2
836.667	783.4147	15721.8	14772.4
836.8121	785.4862	15892.75	14945.65
836.9571	787.557	15821.05	14873.35
837.1021	789.6271	15370.8	14420.45
837.2472	791.6966	14794.95	13846.4
837.3922	793.7654	14192.5	13244.75
837.5373	795.8335	13819.2	12872.7
837.6823	797.901	13558.35	12611.25
837.8274	799.9678	13436.55	12487.85
837.9724	802.0339	13356.35	12409.75
838.1175	804.0993	13357.1	12397.3
838.2626	806.1641	13330.4	12380.25
838.4076	808.2282	13274.85	12327.4
838.5527	810.2916	13166.85	12220.9
838.6978	812.3544	13086.5	12144.35
838.8428	814.4164	13053.85	12108.3
838.9879	816.4778	13065	12113.35
839.133	818.5385	13093.8	12139.15
839.2781	820.5986	13204	12250.2
839.4232	822.658	13417.15	12459.55
839.5682	824.7166	13680	12732.75
839.7133	826.7747	14089.25	13134.6
839.8584	828.832	14498.15	13544.75
840.0035	830.8886	14813.7	13858.15
840.1486	832.9446	14932.1	13978.5
840.2937	834.9999	14852.5	13900.8
840.4388	837.0545	14693.85	13737.1
840.5839	839.1085	14492.85	13540.95
840.729	841.1618	14263.6	13308.55
840.8741	843.2143	14089.7	13139.1
841.0192	845.2662	13887.6	12933.95
841.1643	847.3175	13826.7	12873.1
841.3095	849.368	13701.6	12746.95
841.4546	851.4179	13613.1	12658.45
841.5997	853.467	13490.55	12535.95
841.7448	855.5155	13396.6	12442.9
841.8899	857.5633	13331.7	12374.55
842.0351	859.6105	13224.7	12272.6
842.1802	861.6569	13125.15	12167.4
842.3253	863.7027	13082.3	12125.05
842.4704	865.7478	13044.6	12087.1
842.6156	867.7922	13044.25	12084.15
842.7607	869.8359	13047.5	12089.45
842.9058	871.8789	13132.9	12176.25
843.0509	873.9212	13239.3	12249.5
843.1961	875.9629	13358.05	12399.9
843.3412	878.0039	13494.65	12538.2
843.4863	880.0441	13600.85	12649.65
843.6315	882.0837	13614.55	12661.75
843.7766	884.1226	13614.25	12661
843.9218	886.1609	13593.75	12639.85
844.0669	888.1984	13644.9	12691.85
844.212	890.2352	13736.75	12777.85
844.3572	892.2714	13739.85	12783.95
844.5023	894.3069	13695.3	12735.95
844.6475	896.3416	13531.85	12575.4
844.7926	898.3757	13448	12488.85
844.9377	900.4091	13408.35	12449.95
845.0829	902.4418	13371.45	12409
845.228	904.4739	13414.1	12454.1
845.3732	906.5052	13462.35	12505
845.5183	908.5358	13380.8	12420.65
845.6635	910.5658	13270.15	12310.7
845.8086	912.595	13079	12119.75
845.9538	914.6236	12856.6	11900.3
846.0989	916.6515	12768.6	11810.5
846.2441	918.6786	12718.3	11754.7
846.3892	920.7051	12732.75	11770.55
846.5344	922.7309	12813.15	11854
846.6795	924.756	12850.85	11894.65
846.8246	926.7804	12916.5	11956.55
846.9698	928.8041	12907.6	11950.05
847.1149	930.8272	12941.5	11982.9
847.2601	932.8495	12931.55	11968.65
847.4052	934.8711	12908.4	11947.25
847.5504	936.892	12801.6	11840.8
847.6955	938.9123	12739.55	11778.6
847.8407	940.9318	12722.6	11764.4
847.9858	942.9506	12705.45	11742.7
848.131	944.9688	12605.6	11642.6
848.2761	946.9862	12516.95	11560
848.4213	949.003	12406.2	11444.9
848.5664	951.019	12318.45	11355.6
848.7115	953.0344	12313.95	11352.2
848.8567	955.0491	12323.8	11364.95
849.0018	957.063	12379.65	11420.6
849.147	959.0763	12472.85	11514.4
849.2921	961.0888	12517.45	11557
849.4373	963.1007	12578.6	11618.2
849.5824	965.1119	12619	11670.45
849.7275	967.1223	12609.2	11671.4
849.8727	969.1321	12600.75	11656.6
850.0178	971.1412	12582.25	11633.5
850.1629	973.1495	12600.25	11646.45
850.3081	975.1572	12672.65	11664.25
850.4532	977.1641	12659.85	11701.8
850.5983	979.1704	12622.95	11665.2
850.7435	981.1759	12604.2	11646.95
850.8886	983.1808	12625.2	11664.1
851.0337	985.1849	12711.45	11740.1
851.1788	987.1884	12800.8	11841.95
851.324	989.1911	12910.25	11950.9
851.4691	991.1932	13007.1	12052.25
851.6142	993.1945	13082.35	12127.1
851.7593	995.1951	13015.3	12059.7
851.9045	997.1951	12966.7	12007.65
852.0496	999.1943	12910.15	11951.75
852.1947	1001.1928	12882.2	11921.7
852.3398	1003.1906	12910.35	11952.45
852.4849	1005.1877	13013.25	12055.8
852.63	1007.1841	13071.1	12112.75
852.7751	1009.1798	13044.65	12088.25
852.9202	1011.1748	12917.6	11964.05
853.0653	1013.1691	12733.65	11777.75
853.2104	1015.1627	12528.75	11568.65
853.3555	1017.1556	12302.5	11344.55
853.5006	1019.1477	12195.65	11239.15
853.6457	1021.1392	12115.45	11170.3
853.7908	1023.1299	12085.95	11142.4
853.9359	1025.12	12088.7	11152.7
854.081	1027.1093	12161.35	11238.85
854.2261	1029.0979	12229.6	11304.55
854.3712	1031.0859	12325.1	11393.5
854.5163	1033.0731	12352.5	11409.4
854.6613	1035.0596	12301.5	11356.4
854.8064	1037.0454	12168.35	11221.1
854.9515	1039.0304	12068.7	11120.35
855.0965	1041.0148	11946	10991.9
855.2416	1042.9985	11856.85	10901.45
855.3867	1044.9814	11831.15	10878.75
855.5317	1046.9636	11744.8	10789.5
855.6768	1048.9452	11726.95	10775.55
855.8219	1050.926	11795.55	10844.55
855.9669	1052.9061	11802.75	10851
856.112	1054.8855	11814.05	10856.7
856.257	1056.8642	11858.1	10903
856.4021	1058.8421	11903.6	10942.25
856.5471	1060.8194	11934.55	10977.8
856.6921	1062.7959	11974.15	11018.45
856.8372	1064.7717	12029.7	11072.05
856.9822	1066.7469	12085.35	11127.85
857.1272	1068.7213	12131.05	11173.3
857.2723	1070.695	12171.9	11219.15
857.4173	1072.6679	12172.35	11216.8
857.5623	1074.6402	12164.15	11205.8
857.7073	1076.6117	12154.05	11191.7
857.8523	1078.5826	12065.35	11108.65
857.9973	1080.5527	11999.85	11038.75
858.1423	1082.5221	11976.35	11020.6
858.2873	1084.4908	12012	11063.05
858.4323	1086.4587	12100.05	11143.4
858.5773	1088.426	12172.65	11209.95
858.7223	1090.3925	12177.25	11215.4
858.8673	1092.3584	12198.7	11242.45
859.0123	1094.3235	12154.2	11198.95
859.1573	1096.2879	12131.5	11176.5
859.3022	1098.2515	12254.05	11300.2
859.4472	1100.2145	12344.35	11395.05
859.5922	1102.1767	12531.25	11576.5
859.7371	1104.1382	12747.4	11796.4
859.8821	1106.099	12980.95	12023.5
860.027	1108.0591	13203.65	12249.9
860.172	1110.0185	13364.5	12410.5
860.3169	1111.9771	13393.45	12439.15
860.4619	1113.9351	13267.8	12314.5
860.6068	1115.8923	13091.75	12138.05
860.7517	1117.8488	12901.45	11947.95
860.8967	1119.8045	12668.05	11718.15
861.0416	1121.7596	12527.9	11576.15
861.1865	1123.7139	12402.9	11453.55
861.3314	1125.6675	12390.5	11438.15
861.4763	1127.6204	12422.85	11467.85
861.6212	1129.5726	12369.95	11413.85
861.7661	1131.524	12305.05	11352.45
861.911	1133.4748	12203.75	11251.45
862.0559	1135.4248	12098.95	11144.3
862.2008	1137.3741	11995.3	11045.5
862.3457	1139.3226	11919.45	10966.5
862.4905	1141.2705	11839.75	10883.1
862.6354	1143.2176	11760.1	10802.55
862.7803	1145.164	11733.4	10777.9
862.9251	1147.1097	11680.3	10727.05
863.07	1149.0546	11619.9	10668.15
863.2148	1150.9989	11538.45	10585.7
863.3597	1152.9424	11449.85	10495.6
863.5045	1154.8852	11322.9	10368.3
863.6493	1156.8272	11250.8	10294
863.7942	1158.7686	11251.35	10289.65
863.939	1160.7092	11257.45	10299.4
864.0838	1162.6491	11252.95	10295.7
864.2286	1164.5883	11368.5	10417
864.3734	1166.5267	11459.75	10506.35
864.5182	1168.4644	11619.7	10667.95
864.663	1170.4014	11813.85	10860.15
864.8078	1172.3377	12096.3	11147.35
864.9526	1174.2732	12354.5	11405.65
865.0974	1176.2081	12735.5	11782.4
865.2421	1178.1421	13164.4	12208.3
865.3869	1180.0755	13574.4	12625.85
865.5317	1182.0082	13830.85	12881.2
865.6764	1183.9401	13956.1	13007.1
865.8212	1185.8713	13819.65	12875.3
865.9659	1187.8017	13506.8	12572.2
866.1106	1189.7315	13175.65	12247.8
866.2554	1191.6605	12831.65	11901.45
866.4001	1193.5888	12577.15	11641.25
866.5448	1195.5163	12413.1	11472.65
866.6895	1197.4432	12332.6	11384.4
866.8342	1199.3693	12317.8	11368.25
866.9789	1201.2947	12255.15	11300.9
867.1236	1203.2193	12245.95	11300.1
867.2683	1205.1432	12247.7	11297.95
867.413	1207.0664	12227.55	11275.5
867.5576	1208.9889	12241.8	11290.75
867.7023	1210.9106	12215.05	11267.25
867.847	1212.8316	12230.1	11280.9
867.9916	1214.7519	12311.6	11351.65
868.1363	1216.6715	12259	11308.5
868.2809	1218.5903	12332.4	11382.8
868.4255	1220.5084	12409.25	11460.3
868.5701	1222.4257	12468.8	11519.85
868.7148	1224.3424	12488.55	11541.8
868.8594	1226.2583	12552.25	11602.9
869.004	1228.1735	12693	11746.65
869.1486	1230.0879	12806.35	11856.15
869.2932	1232.0016	12964.1	12015.05
869.4377	1233.9146	13038.2	12087.7
869.5823	1235.8269	13014.55	12065.6
869.7269	1237.7384	12930.65	11983.35
869.8715	1239.6492	12756.7	11811.4
870.016	1241.5592	12711.85	11767
870.1606	1243.4686	12716.2	11769.9
870.3051	1245.3772	12770.3	11822
870.4496	1247.285	12915.45	11965.7
870.5941	1249.1922	13009.1	12059.45
870.7387	1251.0986	13114.95	12170.9
870.8832	1253.0042	13120.25	12175.75
871.0277	1254.9092	13216.4	12272.5
871.1722	1256.8134	13332.6	12388.3
871.3167	1258.7169	13477.55	12533.45
871.4611	1260.6196	13638.45	12693.3
871.6056	1262.5216	13867	12919.5
871.7501	1264.4229	14032.7	13088.35
871.8945	1266.3234	14241	13295.5
872.039	1268.2232	14357.85	13405.1
872.1834	1270.1223	14403.15	13452.45
872.3278	1272.0207	14421.75	13475.55
872.4723	1273.9183	14407.05	13453.35
872.6167	1275.8151	14336.2	13392.8
872.7611	1277.7113	14302.65	13355.6
872.9055	1279.6067	14285.7	13339.7
873.0499	1281.5014	14396.65	13446.15
873.1943	1283.3953	14621.05	13678.5
873.3386	1285.2885	14941.85	14000.25
873.483	1287.181	15279.3	14338.25
873.6274	1289.0727	15612.25	14667.6
873.7717	1290.9637	15867.4	14918.85
873.9161	1292.854	16049.85	15105.4
874.0604	1294.7435	16082.6	15136.35
874.2047	1296.6323	16057.45	15113.3
874.349	1298.5204	16041.25	15094.65
874.4933	1300.4077	15998.45	15052.15
874.6376	1302.2943	15910.5	14961.45
874.7819	1304.1802	15751.6	14808.9
874.9262	1306.0653	15434.45	14488.55
875.0705	1307.9497	15025.95	14080.05
875.2147	1309.8333	14692.4	13748.4
875.359	1311.7162	14430.1	13486.75
875.5032	1313.5984	14327.8	13384.3
875.6475	1315.4798	14228.85	13274.2
875.7917	1317.3605	14226.4	13263.95
875.9359	1319.2405	14144.85	13196.2
876.0801	1321.1197	13962.9	13015.7
876.2243	1322.9982	13711.8	12763.85
876.3685	1324.876	13516.85	12570.6
876.5127	1326.753	13293.8	12350.1
876.6569	1328.6293	13180.5	12232
876.801	1330.5048	13062	12113.1
876.9452	1332.3796	12924.5	11979.75
877.0893	1334.2537	12871.85	11898.05
877.2335	1336.127	12803.2	11854.7
877.3776	1337.9996	12768.7	11824.2
877.5217	1339.8714	12780.35	11835.15
877.6658	1341.7426	12778.1	11790
877.8099	1343.6129	12794.25	11848.2
877.954	1345.4826	12736.35	11790.75
878.0981	1347.3515	12764.6	11814
878.2422	1349.2196	12733.8	11789.6
878.3862	1351.087	12766.25	11820.1
878.5303	1352.9537	12785.2	11835.4
878.6743	1354.8197	12905.1	11958.6
878.8184	1356.6849	13082.9	12137.05
878.9624	1358.5493	13238.65	12291.4
879.1064	1360.4131	13377.6	12432.25
879.2504	1362.276	13399.75	12453.65
879.3944	1364.1383	13367	12422.95
879.5384	1365.9998	13182.6	12233.55
879.6823	1367.8606	12819.45	11870.7
879.8263	1369.7206	12481.6	11534.05
879.9702	1371.5799	12149.7	11199.45
880.1142	1373.4384	11891.1	10945.45
880.2581	1375.2962	11675.45	10728.6
880.402	1377.1533	11385.35	10443.55
880.5459	1379.0096	11026.65	10085.95
880.6898	1380.8652	10692.25	9750.15
880.8337	1382.7201	10392.45	9452
880.9776	1384.5742	10159.55	9215.6
881.1215	1386.4275	9986.95	9040.35
881.2653	1388.2802	9824.25	8881.6
881.4092	1390.132	9700.9	8753.8
881.553	1391.9832	9639.45	8696.15
881.6968	1393.8336	9542.15	8595.6
881.8406	1395.6832	9517.2	8573.15
881.9844	1397.5322	9440.55	8498.4
882.1282	1399.3803	9423.75	8474.9
882.272	1401.2278	9380.8	8438.7
882.4158	1403.0745	9388.7	8444.3
882.5595	1404.9204	9336.7	8394.3
882.7033	1406.7656	9385.8	8443.05
882.847	1408.6101	9390.8	8448.45
882.9908	1410.4538	9422.15	8477.45
883.1345	1412.2968	9456.5	8514.7
883.2782	1414.139	9481.9	8541.45
883.4219	1415.9805	9590.85	8649.9
883.5656	1417.8213	9646.3	8696.15
883.7092	1419.6613	9767.75	8826.65
883.8529	1421.5006	9935.75	8994.9
883.9965	1423.3391	10109.2	9165.5
884.1402	1425.1769	10428.8	9483.85
884.2838	1427.0139	10888.5	9946.2
884.4274	1428.8502	11438.75	10492.2
884.571	1430.6858	11992.8	11052.4
884.7146	1432.5206	12388.25	11449.05
884.8582	1434.3547	12621.1	11680.35
885.0018	1436.188	12638.2	11697.2
885.1453	1438.0206	12563.05	11619.9
885.2889	1439.8524	12358.85	11419.65
885.4324	1441.6835	12238.15	11291.4
885.5759	1443.5139	12152.05	11208.1
885.7194	1445.3435	12054.6	11115.05
885.8629	1447.1724	12034.1	11097.9
886.0064	1449.0005	11978.35	11039.7
886.1499	1450.8279	11913.65	10974.85
886.2933	1452.6545	11932.55	10994.8
886.4368	1454.4804	11928.6	10992
886.5802	1456.3056	11914.15	10968.85
886.7237	1458.13	11817.15	10880.4
886.8671	1459.9536	11631.5	10690.2
887.0105	1461.7766	11348.2	10409.95
887.1539	1463.5987	10972.15	10029.9
887.2972	1465.4202	10606.45	9664.35
887.4406	1467.2409	10247.3	9309.3
887.584	1469.0608	9968.75	9030.3
887.7273	1470.88	9721.85	8783.8
887.8706	1472.6984	9510	8568.55
888.0139	1474.5161	9301.2	8359.85
888.1572	1476.3331	9137.15	8200.05
888.3005	1478.1493	8999.05	8057.95
888.4438	1479.9648	8919.7	7977.8
888.5871	1481.7795	8799.65	7861.6
888.7303	1483.5935	8758.25	7821.6
888.8736	1485.4067	8694.4	7756.45
889.0168	1487.2192	8649.6	7706.45
889.16	1489.031	8611.55	7671.35
889.3032	1490.842	8565.35	7626.8
889.4464	1492.6522	8532.2	7595.1
889.5896	1494.4618	8463.65	7523.9
889.7327	1496.2705	8455.45	7518.8
889.8759	1498.0785	8415.1	7475.15
890.019	1499.8858	8351.15	7414.8
890.1622	1501.6924	8309.15	7370.65
890.3053	1503.4981	8260.25	7325.05
890.4484	1505.3032	8248.1	7306.9
890.5914	1507.1075	8222.55	7282.15
890.7345	1508.911	8157.5	7216.65
890.8776	1510.7138	8128.55	7192.75
891.0206	1512.5159	8058.95	7122.7
891.1637	1514.3172	7991.85	7055.15
891.3067	1516.1178	7960.75	7026.25
891.4497	1517.9176	7914.9	6975.25
891.5927	1519.7166	7887.65	6951.7
891.7357	1521.515	7861.95	6918.1
891.8786	1523.3126	7835.95	6899.05
892.0216	1525.1094	7793.85	6856.7
892.1645	1526.9055	7783.6	6851.1
892.3074	1528.7008	7742.7	6808.3
892.4503	1530.4954	7709.5	6775.2
892.5932	1532.2893	7701.4	6770.45
892.7361	1534.0824	7654.2	6717.4
892.879	1535.8747	7679.25	6749.9
893.0218	1537.6663	7659.6	6728.95
893.1647	1539.4572	7651.15	6721.25
893.3075	1541.2473	7649.6	6718.1
893.4503	1543.0367	7638.1	6708
893.5931	1544.8253	7642.3	6706
893.7359	1546.6132	7676.65	6742.85
893.8787	1548.4003	7683.65	6741.65
894.0214	1550.1867	7703.35	6766.3
894.1642	1551.9723	7764.4	6831.4
894.3069	1553.7572	7835.9	6905.95
894.4496	1555.5414	7933.1	7004.55
894.5923	1557.3247	8041.1	7113.65
894.735	1559.1074	8179.9	7254
894.8777	1560.8893	8290.4	7368.1
895.0204	1562.6705	8425.65	7502.65
895.163	1564.4509	8552.8	7628.75
895.3056	1566.2305	8608.9	7686.75
895.4482	1568.0094	8649.6	7727.8
895.5908	1569.7876	8653.7	7730.25
895.7334	1571.565	8663.95	7737.8
895.876	1573.3417	8623.4	7699.9
896.0186	1575.1176	8578.95	7656.45
896.1611	1576.8928	8580	7661.95
896.3036	1578.6672	8548.8	7635.95
896.4461	1580.4409	8501.6	7590.8
896.5886	1582.2138	8495.6	7578.15
896.7311	1583.986	8484.15	7565.25
896.8736	1585.7575	8505.85	7586.05
897.0161	1587.5282	8511.1	7595.05
897.1585	1589.2981	8587.55	7678.35
897.3009	1591.0673	8636.5	7723
897.4433	1592.8358	8696.7	7784
897.5857	1594.6035	8763.75	7840.35
897.7281	1596.3704	8831.6	7914.4
897.8705	1598.1366	8941.15	8025.9
898.0128	1599.9021	9019.45	8105.1
898.1551	1601.6668	9085.55	8168.25
898.2975	1603.4308	9231.45	8310
898.4398	1605.194	9383.6	8463.6
898.5821	1606.9564	9539.6	8630.45
898.7243	1608.7182	9777.2	8870.95
898.8666	1610.4791	10043.95	9140.3
899.0088	1612.2394	10257.95	9357.85
899.1511	1613.9988	10547	9642.45
899.2933	1615.7576	10807	9898.15
899.4355	1617.5156	11023.8	10098.75
899.5776	1619.2728	11128.35	10211
899.7198	1621.0293	11124.45	10204.45
899.862	1622.785	10978.85	10062.55
900.0041	1624.54	10731.95	9817.35
900.1462	1626.2942	10437.05	9527.35
900.2883	1628.0477	10104.4	9191.5
900.4304	1629.8005	9783.2	8868.25
900.5725	1631.5525	9520.1	8609.8
900.7145	1633.3037	9234.1	8322
900.8566	1635.0542	9061	8150.25
900.9986	1636.804	8900.35	7987.4
901.1406	1638.553	8891.55	7893.1
901.2826	1640.3013	8790.2	7883.45
901.4245	1642.0488	8763.45	7849.8
901.5665	1643.7955	8772.65	7866.1
901.7085	1645.5416	8842.05	7934.6
901.8504	1647.2868	8942.3	8034.8
901.9923	1649.0313	9068.4	8156.05
902.1342	1650.7751	9236.9	8323.4
902.2761	1652.5181	9358.6	8452.6
902.4179	1654.2604	9563.6	8655.75
902.5598	1656.0019	9769.25	8862.4
902.7016	1657.7427	10057.05	9148.3
902.8434	1659.4828	10343.65	9432
902.9852	1661.222	10466.7	9553.75
903.127	1662.9606	10448.45	9535.4
903.2687	1664.6984	10219.9	9308.1
903.4105	1666.4354	9762.6	8849.2
903.5522	1668.1717	9204.65	8289.4
903.6939	1669.9072	8653.95	7739.05
903.8356	1671.642	8176.5	7257.8
903.9773	1673.3761	7785.05	6872.4
904.119	1675.1094	7442.7	6534.9
904.2606	1676.8419	7188.05	6276.85
904.4022	1678.5737	6983.7	6074
904.5439	1680.3048	6835.75	5921.6
904.6855	1682.0351	6700.7	5786.5
904.827	1683.7646	6589.4	5674.8
904.9686	1685.4934	6514	5603.45
905.1101	1687.2215	6416.8	5507
905.2517	1688.9488	6334.35	5426
905.3932	1690.6754	6303.95	5395.95
905.5347	1692.4012	6257.8	5348.3
905.6761	1694.1263	6202.45	5292.35
905.8176	1695.8506	6143.85	5234.3
905.9591	1697.5742	6130.5	5224.7
906.1005	1699.297	6073.2	5168.15
906.2419	1701.0191	6024.65	5121.95
906.3833	1702.7404	5974.8	5069
906.5246	1704.461	5947	5040.3
906.666	1706.1808	5910.9	5003.65
906.8073	1707.8999	5897.6	4992.45
906.9487	1709.6182	5846.05	4945.3
907.09	1711.3358	5813.4	4915.95
907.2313	1713.0527	5808.7	4909.75
907.3725	1714.7688	5778.05	4873.45
907.5138	1716.4841	5727.8	4820.85
907.655	1718.1987	5734.2	4822.7
907.7962	1719.9126	5719.5	4815.25
907.9374	1721.6257	5680.2	4778.95
908.0786	1723.338	5674.75	4776.7
908.2198	1725.0496	5647.9	4745.2
908.3609	1726.7605	5635.2	4728.7
908.502	1728.4706	5609.6	4706.2
908.6431	1730.18	5570.65	4669.75
908.7842	1731.8886	5548.4	4649.95
908.9253	1733.5964	5550.55	4626.8
909.0664	1735.3036	5530.1	4626.05
909.2074	1737.0099	5512.9	4611.2
909.3484	1738.7156	5488.15	4589.35
909.4894	1740.4204	5461.1	4557.15
909.6304	1742.1246	5436.6	4533
909.7714	1743.8279	5410.4	4508.8
909.9123	1745.5306	5392.65	4493.65
910.0532	1747.2325	5367.4	4468
910.1941	1748.9336	5338.2	4438.4
910.335	1750.634	5321.45	4417.8
910.4759	1752.3336	5323.35	4426.65
910.6168	1754.0325	5281.35	4386.35
910.7576	1755.7307	5274.65	4376.2
910.8984	1757.4281	5284	4382.55
911.0392	1759.1247	5265.4	4352.35
911.18	1760.8206	5268.75	4360.6
911.3208	1762.5158	5238.95	4331.5
911.4615	1764.2102	5216.35	4312.9
911.6022	1765.9039	5204	4304.2
911.7429	1767.5968	5196.65	4299
911.8836	1769.289	5175.3	4277.05
912.0243	1770.9804	5135.8	4236.25
912.1649	1772.6711	5152.55	4246.1
912.3056	1774.361	5148.45	4241.6
912.4462	1776.0502	5132.35	4230
912.5868	1777.7386	5108.3	4200.8
912.7274	1779.4263	5102.45	4201.6
912.8679	1781.1132	5086.1	4189
913.0084	1782.7994	5063.2	4166.45
913.149	1784.4849	5067.2	4170.65
913.2895	1786.1696	5074.1	4157.75
913.4299	1787.8535	5049.45	4156
913.5704	1789.5367	5032.6	4138.8
913.7108	1791.2192	5032	4134.2
913.8513	1792.9009	5029.25	4102.65
913.9917	1794.5818	5013.55	4112.05
914.132	1796.2621	4976.15	4073.5
914.2724	1797.9415	4959.85	4057
914.4128	1799.6202	4965.7	4064.75
914.5531	1801.2982	4948.15	4047.5
914.6934	1802.9755	4952.3	4049.3
914.8337	1804.6519	4943	4042.2
914.9739	1806.3277	4917.2	4020.45
915.1142	1808.0027	4901.5	4007.3
915.2544	1809.6769	4891.25	3998
915.3946	1811.3504	4895.3	4000.8
915.5348	1813.0231	4868.8	3973.9
915.675	1814.6951	4871.35	3973.45
915.8151	1816.3664	4876.7	3977.1
915.9553	1818.0369	4857.2	3956.65
916.0954	1819.7067	4842.4	3942.3
916.2355	1821.3757	4815.1	3914.25
916.3755	1823.044	4818.75	3915.85
916.5156	1824.7115	4835	3933.85
916.6556	1826.3783	4798.95	3899.9
916.7956	1828.0443	4773.7	3873.65
916.9356	1829.7096	4784.15	3882.55
917.0756	1831.3741	4782.7	3878.45
917.2155	1833.0379	4772.05	3875.65
917.3555	1834.701	4744	3846.45
917.4954	1836.3633	4752.6	3859.7
917.6353	1838.0248	4732.95	3836.9
917.7751	1839.6856	4715.45	3815
917.915	1841.3457	4710.35	3810.05
918.0548	1843.005	4713.5	3813.2
918.1946	1844.6636	4702.3	3805.55
918.3344	1846.3214	4706.15	3806.1
918.4742	1847.9785	4700.2	3802.5
918.6139	1849.6349	4681.75	3781
918.7537	1851.2904	4680.2	3770.05
918.8934	1852.9453	4666.3	3764.15
919.0331	1854.5994	4669.75	3764.15
919.1727	1856.2528	4672	3767.95
919.3124	1857.9054	4652.85	3753.2
919.452	1859.5572	4611.7	3712.6
919.5916	1861.2083	4623.45	3724.6
919.7312	1862.8587	4614.7	3718.2
919.8708	1864.5084	4593.35	3691.4
920.0103	1866.1572	4595.1	3692
920.1498	1867.8054	4576.35	3673.3
920.2893	1869.4528	4572.35	3671
920.4288	1871.0994	4569.85	3668.85
920.5683	1872.7453	4546.85	3646.5
920.7077	1874.3905	4549.75	3642
920.8471	1876.0349	4545.15	3645.8
920.9865	1877.6786	4535.95	3635
921.1259	1879.3215	4534.55	3636.25
921.2653	1880.9637	4520.5	3621
921.4046	1882.6051	4500.75	3602.2
921.5439	1884.2458	4496.9	3598.2
921.6832	1885.8858	4481.4	3582.15
921.8225	1887.525	4471.8	3573.2
921.9617	1889.1634	4438.9	3538.5
922.101	1890.8011	4439.85	3536.8
922.2402	1892.4381	4434.05	3534.25
922.3794	1894.0743	4434.6	3537.55
922.5185	1895.7098	4434.25	3536.25
922.6577	1897.3446	4419.3	3519.65
922.7968	1898.9786	4410.3	3506
922.9359	1900.6118	4400.35	3500.25
923.075	1902.2443	4383.5	3484.15
923.214	1903.8761	4369.55	3469.5
923.3531	1905.5071	4360.75	3460.45
923.4921	1907.1374	4345.4	3445.8
923.6311	1908.7669	4334.85	3436.3
923.77	1910.3957	4333.35	3435.85
923.909	1912.0237	4312.35	3414.25
924.0479	1913.651	4298.65	3400.95
924.1868	1915.2776	4294.45	3395.6
924.3257	1916.9034	4282.7	3385.45
924.4646	1918.5285	4268.1	3370.45
924.6034	1920.1528	4244.65	3346.35
924.7422	1921.7764	4247.25	3348.1
924.881	1923.3992	4245.35	3348
925.0198	1925.0213	4205.05	3306.7
925.1586	1926.6427	4190.5	3294.15
925.2973	1928.2633	4253.7	3279.15
925.436	1929.8832	4210.05	3310.55
925.5747	1931.5023	4186	3287.35
925.7134	1933.1207	4167.65	3268
925.852	1934.7383	4139.45	3240.05
925.9906	1936.3552	4134.85	3237.2
926.1292	1937.9714	4133.6	3236.1
926.2678	1939.5868	4133.25	3232.6
926.4064	1941.2015	4094.7	3193.15
926.5449	1942.8154	4085.05	3187.25
926.6834	1944.4286	4066.5	3165.8
926.8219	1946.041	4088.9	3175.15
926.9604	1947.6528	4051.85	3147.1
927.0988	1949.2637	4056.6	3158.9
927.2372	1950.8739	4040.65	3144.05
927.3756	1952.4834	4033.6	3136.95
927.514	1954.0921	4028.1	3129.95
927.6523	1955.7001	4006.45	3104.9
927.7907	1957.3074	3987.95	3094.15
927.929	1958.9139	3985.7	3091.35
928.0673	1960.5197	3975.55	3079.55
928.2055	1962.1247	3952.8	3057.25
928.3438	1963.729	3942.95	3050.05
928.482	1965.3325	3919.2	3019
928.6202	1966.9353	3919.75	3026.3
928.7584	1968.5374	3907.25	3013.55
928.8965	1970.1387	3902.3	3006.3
929.0346	1971.7393	3885.25	2991.5
929.1727	1973.3392	3870.2	2974.75
929.3108	1974.9383	3855.1	2961.95
929.4489	1976.5366	3854.55	2962.85
929.5869	1978.1342	3839.85	2949.25
929.7249	1979.7311	3850.6	2958.4
929.8629	1981.3273	3840.4	2947.7
930.0009	1982.9227	3832.25	2939.5
930.1388	1984.5173	3806.75	2916.5
930.2767	1986.1112	3793.85	2902.55
930.4146	1987.7044	3780.95	2889.75
930.5525	1989.2968	3773.7	2881.75
930.6904	1990.8885	3784.25	2890.1
930.8282	1992.4795	3757.9	2867.2
930.966	1994.0697	3755.6	2865.65
931.1038	1995.6592	3731.75	2841.9
931.2415	1997.2479	3716.85	2826.75
931.3793	1998.8359	3733	2844.05
931.517	2000.4232	3716.95	2827.8
931.6547	2002.0097	3696.05	2810.8
931.7923	2003.5955	3684.9	2798.75
931.93	2005.1805	3695.3	2809.4
932.0676	2006.7648	3690.6	2803.05
932.2052	2008.3484	3676.7	2788.95
932.3427	2009.9312	3678.05	2791.6
932.4803	2011.5133	3645.75	2762
932.6178	2013.0946	3641.15	2753.5
932.7553	2014.6752	3644.3	2759.35
932.8928	2016.2551	3631.65	2741.9
933.0302	2017.8342	3621.7	2735
933.1676	2019.4126	3633.25	2748.95
933.305	2020.9902	3588.45	2703.15
933.4424	2022.5672	3611.05	2726.1
933.5798	2024.1433	3597.2	2706.1
933.7171	2025.7188	3574.4	2692.25
933.8544	2027.2935	3560.95	2677.6
933.9917	2028.8674	3562.5	2680.1
934.129	2030.4406	3541	2659.85
934.2662	2032.0131	3546.7	2664.35
934.4034	2033.5849	3537.25	2651.7
934.5406	2035.1559	3527	2644.7
934.6778	2036.7261	3524.45	2639.4
934.8149	2038.2957	3520.9	2631
934.952	2039.8645	3529.1	2638.1
935.0891	2041.4325	3526.4	2634.9
935.2262	2042.9998	3499.05	2609.85
935.3632	2044.5664	3498.45	2609.95
935.5002	2046.1323	3490.5	2604.2
935.6372	2047.6974	3470.5	2585.5
935.7742	2049.2617	3452.1	2569.9
935.9111	2050.8254	3485.05	2577.05
936.048	2052.3883	3468	2580.15
936.1849	2053.9504	3448.1	2556.8
936.3218	2055.5118	3450.1	2559.75
936.4586	2057.0725	3442.1	2549.6
936.5955	2058.6325	3432.4	2546
936.7323	2060.1917	3417.4	2534.1
936.869	2061.7502	3409.35	2522.7
937.0058	2063.3079	3400.8	2518.25
937.1425	2064.8649	3399.7	2512.1
937.2792	2066.4212	3391.1	2505.35
937.4159	2067.9767	3387.85	2499.25
937.5525	2069.5315	3381.25	2492.65
937.6891	2071.0856	3366.1	2479.5
937.8257	2072.6389	3348.7	2461.45
937.9623	2074.1915	3347.5	2464.4
938.0989	2075.7433	3320.7	2432.6
938.2354	2077.2945	3325	2439.2
938.3719	2078.8448	3321.5	2431.15
938.5084	2080.3945	3314	2422.95
938.6448	2081.9434	3314.55	2425.1
938.7812	2083.4916	3301.1	2406.75
938.9176	2085.039	3300.7	2405.95
939.054	2086.5857	3308.45	2410.3
939.1903	2088.1317	3280.05	2384.25
939.3267	2089.677	3272.3	2375.2
939.463	2091.2215	3273.45	2379.15
939.5992	2092.7652	3248.2	2347.9
939.7355	2094.3083	3248.35	2351.5
939.8717	2095.8506	3270.25	2377.8
940.0079	2097.3921	3247.95	2357.95
940.1441	2098.933	3229.5	2339.7
940.2802	2100.4731	3233.8	2341.8
940.4163	2102.0124	3232.55	2331.2
940.5524	2103.5511	3231.05	2339.8
940.6885	2105.089	3220.6	2326.05
940.8245	2106.6261	3229.05	2338.35
940.9606	2108.1626	3208.75	2316.8
941.0965	2109.6983	3230.55	2310.05
941.2325	2111.2332	3198.7	2306.05
941.3684	2112.7675	3201.65	2308.8
941.5044	2114.301	3181.75	2285.8
941.6403	2115.8337	3190.25	2298.05
941.7761	2117.3657	3162.1	2269
941.912	2118.897	3169	2273.8
942.0478	2120.4276	3163.1	2262.85
942.1835	2121.9575	3139.3	2244.15
942.3193	2123.4866	3161.65	2265.2
942.455	2125.0149	3147.9	2252.8
942.5907	2126.5426	3122.55	2231.95
942.7264	2128.0695	3110.35	2218.6
942.8621	2129.5956	3099.35	2214.3
942.9977	2131.1211	3107.2	2213.95
943.1333	2132.6458	3102.95	2211.7
943.2689	2134.1698	3104.8	2209.45
943.4044	2135.693	3103.1	2204.65
943.54	2137.2155	3090.15	2194.1
943.6755	2138.7373	3091.55	2198.45
943.8109	2140.2584	3072.15	2182.8
943.9464	2141.7787	3070.45	2179.7
944.0818	2143.2983	3045.3	2161.45
944.2172	2144.8171	3047.75	2164.05
944.3526	2146.3353	3047.25	2156.25
944.4879	2147.8527	3029.8	2140.3
944.6232	2149.3693	3037.7	2144.95
944.7585	2150.8853	3023.35	2127.45
944.8938	2152.4005	3016.7	2120.45
945.029	2153.9149	3030.7	2133.65
945.1642	2155.4287	3020.5	2124.9
945.2994	2156.9417	3001.35	2107.65
945.4346	2158.454	2997.5	2104.6
945.5697	2159.9655	2992.1	2104.95
945.7048	2161.4764	2991.5	2102.4
945.8399	2162.9865	2976.3	2089.05
945.9749	2164.4958	2968.5	2078.55
946.1099	2166.0045	2964.15	2073.25
946.2449	2167.5124	2978.45	2086.05
946.3799	2169.0195	2938.8	2044.8
946.5148	2170.526	2959.1	2065.75
946.6498	2172.0317	2951.25	2058.1
946.7846	2173.5367	2948.95	2054.35
946.9195	2175.0409	2927.8	2036.25
947.0543	2176.5445	2928.4	2034.7
947.1891	2178.0473	2920.2	2023.5
947.3239	2179.5494	2916.35	2016.95
947.4587	2181.0507	2914.5	2020.35
947.5934	2182.5513	2907.45	2014.8
947.7281	2184.0512	2911.25	2017.45
947.8628	2185.5504	2896.55	2003.85
947.9974	2187.0488	2886.6	1996.35
948.132	2188.5465	2877.9	1986.9
948.2666	2190.0435	2871.4	1980.4
948.4012	2191.5397	2876.6	1980.75
948.5357	2193.0353	2867	1970.15
948.6702	2194.5301	2859.45	1962.1
948.8047	2196.0241	2858.55	1959.85
948.9392	2197.5175	2847.95	1949
949.0736	2199.0101	2847.95	1947.15
949.208	2200.502	2828.5	1934.65
949.3424	2201.9931	2832.15	1940.6
949.4767	2203.4835	2810.2	1919.8
949.611	2204.9733	2808.75	1912.3
949.7453	2206.4622	2805.2	1915.75
949.8796	2207.9505	2796.55	1906.05
950.0138	2209.438	2786.65	1897.6
950.148	2210.9248	2782.15	1892.35
950.2822	2212.4109	2767.8	1875.25
950.4164	2213.8962	2770.8	1871.15
950.5505	2215.3809	2760.7	1861.8
950.6846	2216.8648	2768.55	1869.65
950.8186	2218.3479	2764.1	1860.35
950.9527	2219.8304	2763.4	1859.85
951.0867	2221.3121	2753.2	1852.05
951.2207	2222.7931	2740.05	1842.9
951.3546	2224.2733	2739.4	1841.75
951.4886	2225.7529	2726.85	1831.35
951.6225	2227.2317	2720.25	1824.85
951.7563	2228.7098	2712.9	1820.6
951.8902	2230.1872	2705.55	1814.3
952.024	2231.6638	2706.75	1817.4
952.1578	2233.1397	2695.9	1803.85
952.2916	2234.6149	2677.65	1788.4
952.4253	2236.0894	2680.9	1788.6
952.559	2237.5632	2685.1	1781.45
952.6927	2239.0362	2665.15	1771.95
952.8263	2240.5085	2665.8	1772.4
952.9599	2241.9801	2649.1	1755.7
953.0935	2243.4509	2655.35	1757.5
953.2271	2244.921	2659.95	1760.5
953.3606	2246.3904	2633.9	1733.95
953.4941	2247.8591	2624.9	1728.25
953.6276	2249.3271	2631.5	1734.25
953.7611	2250.7943	2619.5	1721.75
953.8945	2252.2608	2622.3	1724.2
954.0279	2253.7266	2612.85	1719.35
954.1612	2255.1917	2601.45	1706.45
954.2946	2256.656	2594.95	1701.45
954.4279	2258.1197	2589.3	1698.9
954.5612	2259.5826	2576.7	1681.9
954.6944	2261.0447	2584.9	1688.85
954.8276	2262.5062	2581.45	1680.45
954.9608	2263.9669	2573.75	1674.8
955.094	2265.4269	2576.05	1680.8
955.2271	2266.8862	2566.9	1672.2
955.3602	2268.3448	2567.15	1673.85
955.4933	2269.8026	2560.1	1668.45
955.6264	2271.2598	2549.7	1657.05
955.7594	2272.7162	2551.5	1657.2
955.8924	2274.1719	2547.25	1652.4
956.0253	2275.6268	2538.15	1640.1
956.1583	2277.0811	2537.4	1640.45
956.2912	2278.5346	2525.3	1631.35
956.4241	2279.9874	2520.85	1629.25
956.5569	2281.4395	2526.7	1637.65
956.6897	2282.8908	2510.2	1612.85
956.8225	2284.3414	2517.1	1620.9
956.9553	2285.7914	2514.7	1621
957.088	2287.2406	2503.6	1605.5
957.2207	2288.689	2519.85	1620.3
957.3534	2290.1368	2509.65	1608.25
957.486	2291.5838	2506.7	1604.4
957.6186	2293.0302	2497.55	1594.65
957.7512	2294.4758	2493.8	1594.9
957.8838	2295.9206	2470.85	1571.55
958.0163	2297.3648	2478	1584.9
958.1488	2298.8082	2472.55	1576.7
958.2813	2300.251	2467	1568.6
958.4137	2301.693	2471.35	1569.3
958.5461	2303.1343	2470.85	1570.2
958.6785	2304.5748	2455.4	1560
958.8108	2306.0147	2448.1	1556.1
958.9432	2307.4538	2446.35	1552.2
959.0754	2308.8922	2434	1544.75
959.2077	2310.3299	2436.5	1545.2
959.3399	2311.7669	2432.6	1542.3
959.4721	2313.2031	2428.8	1532.2
959.6043	2314.6387	2414.75	1518.5
959.7365	2316.0735	2419.35	1524.55
959.8686	2317.5076	2416.95	1521.2
960.0006	2318.941	2404.5	1506.5
960.1327	2320.3737	2403.1	1504.55
960.2647	2321.8056	2409.5	1510.35
960.3967	2323.2369	2386.25	1490.3
960.5287	2324.6674	2386.95	1489.75
960.6606	2326.0972	2377.9	1481
960.7925	2327.5263	2385.4	1490.2
960.9244	2328.9547	2384.9	1483.15
961.0562	2330.3823	2373.3	1473.05
961.1881	2331.8092	2377.8	1475.85
961.3198	2333.2355	2373.1	1472.6
961.4516	2334.661	2363.65	1465.35
961.5833	2336.0858	2366.1	1468.25
961.715	2337.5098	2355.2	1457.75
961.8467	2338.9332	2350.85	1453.3
961.9783	2340.3558	2352.6	1455.1
962.1099	2341.7778	2338.6	1443.4
962.2415	2343.199	2331.45	1434.15
962.373	2344.6195	2326.8	1431.85
962.5045	2346.0393	2314.85	1419.65
962.636	2347.4583	2329.65	1433.9
962.7675	2348.8767	2327.15	1428.45
962.8989	2350.2943	2327.5	1427.55
963.0303	2351.7113	2326.8	1425.25
963.1617	2353.1275	2319.7	1419.45
963.293	2354.543	2317.55	1411.6
963.4243	2355.9578	2301.9	1403.85
963.5556	2357.3718	2295.15	1400
963.6868	2358.7852	2298.1	1401.35
963.818	2360.1978	2283.75	1389.95
963.9492	2361.6098	2289.6	1393.9
964.0803	2363.021	2287.2	1386.2
964.2114	2364.4315	2282	1385.95
964.3425	2365.8413	2277.1	1382.1
964.4736	2367.2504	2271.1	1376.15
964.6046	2368.6587	2261.75	1368.6
964.7356	2370.0664	2245.2	1352.55
964.8666	2371.4733	2254.3	1357.75
964.9975	2372.8795	2249.15	1355.95
965.1284	2374.285	2251.75	1354.85
965.2593	2375.6899	2238	1343.65
965.3901	2377.0939	2237.75	1341.65
965.5209	2378.4973	2231.6	1335.5
965.6517	2379.9	2230.2	1335.95
965.7825	2381.3019	2225.15	1332.15
965.9132	2382.7032	2222.55	1330.8
966.0439	2384.1037	2212.55	1323.25
966.1745	2385.5035	2205.3	1315.5
966.3051	2386.9027	2199.1	1308.15
966.4357	2388.3011	2200	1305.95
966.5663	2389.6987	2196.95	1303.85
966.6968	2391.0957	2185.2	1291.9
966.8273	2392.492	2177.25	1285.45
966.9578	2393.8876	2184.15	1292.1
967.0882	2395.2824	2172.05	1277.45
967.2186	2396.6765	2172.3	1279.35
967.349	2398.07	2162.95	1269.2
967.4793	2399.4627	2159.6	1264.7
967.6097	2400.8547	2161.45	1268.75
967.7399	2402.246	2159.1	1261.55
967.8702	2403.6366	2151.45	1260.1
968.0004	2405.0265	2143.6	1252.6
968.1306	2406.4156	2140.1	1244.95
968.2607	2407.8041	2129.65	1232.85
968.3909	2409.1918	2132.05	1235.8
968.521	2410.5789	2134.05	1239.25
968.651	2411.9652	2130.35	1234.2
968.781	2413.3508	2123.1	1228.3
968.911	2414.7358	2112.85	1218.4
969.041	2416.12	2106.95	1214.15
969.1709	2417.5035	2102.55	1208.45
969.3008	2418.8863	2103.75	1210.3
969.4307	2420.2684	2104.95	1211.15
969.5606	2421.6497	2089.5	1192.45
969.6904	2423.0304	2094.9	1201.4
969.8201	2424.4104	2088.3	1195.85
969.9499	2425.7896	2088.2	1192.95
970.0796	2427.1682	2083.05	1188.7
970.2093	2428.546	2081.35	1187.4
970.3389	2429.9232	2078.1	1182.5
970.4685	2431.2996	2081.85	1187.2
970.5981	2432.6753	2072.95	1177.65
970.7277	2434.0503	2072.3	1175.75
970.8572	2435.4246	2052.25	1156.8
970.9867	2436.7982	2057.55	1160.9
971.1161	2438.1711	2054.25	1160.85
971.2456	2439.5433	2036.9	1140.9
971.375	2440.9148	2056	1155.15
971.5043	2442.2856	2046.75	1153.85
971.6336	2443.6557	2038.15	1142.95
971.7629	2445.025	2031.35	1136.65
971.8922	2446.3937	2034	1139.25
972.0214	2447.7617	2029.05	1133.3
972.1506	2449.1289	2020.9	1126.65
972.2798	2450.4955	2025.75	1127.9
972.4089	2451.8613	2018.55	1125.5
972.538	2453.2265	2013.85	1121.25
972.6671	2454.5909	2016.05	1121.15
972.7961	2455.9546	2008.7	1114.05
972.9251	2457.3177	2006.55	1112.45
973.0541	2458.68	1999.55	1103.5
973.1831	2460.0416	2006.3	1111.95
973.312	2461.4025	2006.85	1114.5
973.4408	2462.7627	2010.65	1106.3
973.5697	2464.1222	1990.9	1099.1
973.6985	2465.4811	1988	1096.4
973.8273	2466.8392	1983.9	1090.3
973.956	2468.1966	1987.9	1092.65
974.0847	2469.5533	1977.65	1080.3
974.2134	2470.9093	1989.3	1095
974.3421	2472.2645	1983	1085.2
974.4707	2473.6191	1974.3	1080.9
974.5993	2474.973	1971.2	1075.25
974.7278	2476.3262	1965.35	1068.9
974.8563	2477.6787	1968.65	1074.6
974.9848	2479.0305	1956.15	1062.1
975.1132	2480.3816	1964.45	1069.7
975.2417	2481.7319	1959.05	1066.75
975.37	2483.0816	1953.9	1060.7
975.4984	2484.4306	1938.65	1047.25
975.6267	2485.7789	1947.3	1054.25
975.755	2487.1264	1935.25	1041.1
975.8833	2488.4733	1939.1	1046.85
976.0115	2489.8195	1937.05	1036.45
976.1397	2491.165	1928.6	1031.65
976.2678	2492.5097	1930.65	1037
976.3959	2493.8538	1921.7	1029.15
976.524	2495.1972	1910.2	1016
976.6521	2496.5398	1910.8	1014.75
976.7801	2497.8818	1914.3	1017.7
976.9081	2499.2231	1905.5	1011.75
977.036	2500.5637	1899.8	1001.45
977.164	2501.9035	1905.9	1008.35
977.2918	2503.2427	1897.9	997.65
977.4197	2504.5812	1888.95	990.9
977.5475	2505.919	1894.95	998.8
977.6753	2507.256	1898.3	1001.65
977.8031	2508.5924	1882.6	988.9
977.9308	2509.9281	1881.35	980.35
978.0585	2511.2631	1871.6	976.6
978.1861	2512.5974	1881.55	988.35
978.3137	2513.9309	1872.75	978.5
978.4413	2515.2638	1888.2	966.65
978.5689	2516.596	1870.3	974.85
978.6964	2517.9275	1860.2	963.95
978.8239	2519.2583	1867.35	973.2
978.9513	2520.5884	1859.6	965.65
979.0788	2521.9178	1865.95	971
979.2062	2523.2465	1861.55	967.95
979.3335	2524.5745	1854.65	962.4
979.4608	2525.9018	1854.6	959.25
979.5881	2527.2284	1858.35	965.9
979.7154	2528.5543	1843.8	950
979.8426	2529.8796	1834.25	940.15
979.9698	2531.2041	1832.45	938.9
980.0969	2532.5279	1838.6	946.9
980.224	2533.851	1845.1	950.95
980.3511	2535.1735	1836.45	943.95
980.4781	2536.4952	1832.95	935.6
980.6052	2537.8163	1829.15	932.1
980.7321	2539.1366	1820.85	927.05
980.8591	2540.4562	1826.4	927.85
980.986	2541.7752	1814.6	918.65
981.1129	2543.0935	1808.85	915.65
981.2397	2544.411	1821.4	925.75
981.3665	2545.7279	1823.05	929
981.4933	2547.0441	1824.4	928.75
981.62	2548.3596	1818.95	920.2
981.7467	2549.6744	1810.3	915.5
981.8734	2550.9885	1802.95	905.6
982.0001	2552.3019	1808.4	913.45
982.1267	2553.6146	1805.65	912.7
982.2532	2554.9266	1801	904.8
982.3798	2556.2379	1801.15	906.15
982.5063	2557.5485	1793	897.75
982.6327	2558.8585	1802.8	901.7
982.7592	2560.1677	1792.3	892.75
982.8856	2561.4762	1791.5	895.35
983.0119	2562.7841	1796.6	895.1
983.1383	2564.0913	1791.3	896.55
983.2646	2565.3977	1783.35	890.1
983.3908	2566.7035	1780.75	886.4
983.517	2568.0086	1788.3	892.45
983.6432	2569.313	1782.7	885.85
983.7694	2570.6167	1786	885.8
983.8955	2571.9197	1785.2	889.25
984.0216	2573.222	1779.55	881.45
984.1476	2574.5236	1770.9	872.3
984.2737	2575.8246	1776.1	876.4
984.3996	2577.1248	1776.5	878.9
984.5256	2578.4244	1773.55	879.55
984.6515	2579.7232	1769.85	875.35
984.7774	2581.0214	1801.4	874.95
984.9032	2582.3189	1776.65	883
985.029	2583.6157	1774.45	875.2
985.1548	2584.9118	1764.35	867.45
985.2806	2586.2072	1770.2	875.15
985.4063	2587.5019	1771.5	875.25
985.5319	2588.7959	1769.05	874.75
985.6576	2590.0893	1765.45	867.15
985.7832	2591.3819	1762.9	869
985.9087	2592.6739	1761.15	866.95
986.0343	2593.9652	1762.8	865.5
986.1597	2595.2557	1766.95	873.35
986.2852	2596.5456	1760.95	864.45
986.4106	2597.8348	1754.95	859.4
986.536	2599.1234	1761.65	865.6
986.6614	2600.4112	1757.6	860.7
986.7867	2601.6983	1767.55	869.3
986.912	2602.9848	1754.95	858.6
987.0372	2604.2705	1763.9	862.9
987.1624	2605.5556	1758.1	862.95
987.2876	2606.84	1747.55	854.45
987.4128	2608.1237	1743.2	848.25
987.5379	2609.4067	1733.65	838.9
987.6629	2610.689	1742.4	840.45
987.788	2611.9707	1738.8	842.2
987.913	2613.2516	1738.4	838.65
988.0379	2614.5319	1724.75	831.4
988.1629	2615.8115	1716.45	823.7
988.2878	2617.0903	1714.45	820
988.4126	2618.3685	1707.7	815.1
988.5375	2619.6461	1709.15	815.35
988.6622	2620.9229	1713.2	818.65
988.787	2622.199	1718.05	822.7
988.9117	2623.4745	1708.6	814.4
989.0364	2624.7493	1705.25	811.55
989.161	2626.0234	1698	804.55
989.2857	2627.2968	1700.25	805
989.4102	2628.5695	1704.05	810.95
989.5348	2629.8415	1698.45	806.25
989.6593	2631.1128	1691.75	797.05
989.7837	2632.3835	1698.3	806
989.9082	2633.6535	1690.25	794.6
990.0326	2634.9228	1685.75	791.85
990.1569	2636.1914	1687.35	793.9
990.2812	2637.4593	1687.6	792.2
990.4055	2638.7265	1685.05	789.6
990.5298	2639.9931	1671.3	778.65
990.654	2641.259	1679.9	787.8
990.7782	2642.5242	1677.4	783.9
990.9023	2643.7887	1675.7	782
991.0264	2645.0525	1673.8	778.1
991.1505	2646.3156	1666.7	772.7
991.2745	2647.5781	1667.05	773.95
991.3985	2648.8398	1660.85	767.4
991.5225	2650.1009	1695.05	765.7
991.6464	2651.3613	1659.85	766.45
991.7703	2652.6211	1660.5	766
991.8942	2653.8801	1655.95	762.9
992.018	2655.1385	1654.85	757.45
992.1418	2656.3961	1656.8	765.15
992.2655	2657.6531	1655.15	760.15
992.3892	2658.9094	1653.4	760.45
992.5129	2660.1651	1655.05	762.1
992.6366	2661.42	1655.35	760.65
992.7602	2662.6743	1656.45	761.75
992.8837	2663.9279	1663.75	771.3
993.0073	2665.1808	1651.3	757.3
993.1307	2666.433	1657.2	762.2
993.2542	2667.6846	1654.5	762
993.3776	2668.9354	1661.35	765.45
993.501	2670.1856	1654.9	759.55
993.6244	2671.4351	1659.9	765.25
993.7477	2672.6839	1670.05	776.7
993.8709	2673.9321	1666.6	774.2
993.9942	2675.1795	1665.5	772.6
994.1174	2676.4263	1652.9	759.55
994.2405	2677.6724	1663.35	769.25
994.3637	2678.9179	1667.7	775.45
994.4868	2680.1626	1657.75	764.7
994.6098	2681.4067	1663.8	773.4
994.7328	2682.6501	1666.1	772.55
994.8558	2683.8928	1656.6	763.1
994.9788	2685.1348	1651.55	758.9
995.1017	2686.3761	1645.3	753.1
995.2245	2687.6168	1641.3	749
995.3474	2688.8568	1643.5	752.25
995.4702	2690.0961	1626.35	735.3
995.5929	2691.3348	1635.75	745.5
995.7156	2692.5727	1626.55	733.3
995.8383	2693.81	1627.8	732.85
995.961	2695.0466	1629.2	735.75
996.0836	2696.2826	1622.15	726.5
996.2062	2697.5178	1642.35	727.9
996.3287	2698.7524	1625.05	729.55
996.4512	2699.9863	1621.9	727.55
996.5737	2701.2195	1619.55	727.15
996.6961	2702.452	1625.65	731.45
996.8185	2703.6839	1636.2	745.95
996.9408	2704.9151	1637.5	744.55
997.0631	2706.1456	1628.9	736.1
997.1854	2707.3755	1645.05	752.35
997.3077	2708.6046	1652.35	756.5
997.4299	2709.8331	1650.7	756.85
997.552	2711.0609	1657.4	766.9
997.6742	2712.2881	1669.25	777.4
997.7963	2713.5145	1678	782.2
997.9183	2714.7403	1674.65	782.25
998.0403	2715.9654	1684.25	792
998.1623	2717.1899	1712.95	806.9
998.2842	2718.4136	1713.6	821.35
998.4062	2719.6367	1715.05	823.2
998.528	2720.8591	1736	836.85
998.6498	2722.0809	1739.25	847.4
998.7716	2723.3019	1753.35	858.25
998.8934	2724.5223	1769.1	876.45
999.0151	2725.7421	1759.55	865.6
999.1368	2726.9611	1762.2	867.65
999.2584	2728.1795	1768.4	870.6
999.38	2729.3972	1754.6	864.05
999.5016	2730.6142	1754.65	850.05
999.6231	2731.8306	1730.95	837.9
999.7446	2733.0462	1710.45	815.15
999.8661	2734.2612	1702.6	805
999.9875	2735.4756	1673.2	779.1
1000.1089	2736.6892	1669.05	777.25
1000.2302	2737.9022	1642.15	749.55
1000.3515	2739.1145	1633.2	740.3
1000.4728	2740.3262	1631.85	730.3
1000.594	2741.5372	1604.25	713.35
1000.7152	2742.7475	1598.15	703.85
1000.8363	2743.9571	1593.55	699.9
1000.9575	2745.1661	1581.5	685.65
1001.0785	2746.3744	1563.2	671.6
1001.1996	2747.582	1568.6	678.15
1001.3206	2748.7889	1551.6	656.95
1001.4415	2749.9952	1541.4	650.55
1001.5625	2751.2008	1543.4	652.25
1001.6833	2752.4057	1535.3	640.1
1001.8042	2753.61	1529.85	638.7
1001.925	2754.8136	1529.9	635.85
1002.0458	2756.0165	1521.25	630.55
1002.1665	2757.2188	1533.05	643.35
1002.2872	2758.4204	1518.1	629.45
1002.4078	2759.6213	1520.15	627.15
1002.5285	2760.8215	1525.5	630
1002.649	2762.0211	1528.35	636.05
1002.7696	2763.22	1521.3	627.95
1002.8901	2764.4182	1515.8	624.3
1003.0106	2765.6158	1521.05	631.9
1003.131	2766.8127	1518.85	628.3
1003.2514	2768.009	1510.6	619.2
1003.3717	2769.2045	1502.55	609.95
1003.492	2770.3994	1500.65	606.75
1003.6123	2771.5936	1492.5	600.6
1003.7325	2772.7872	1495.8	604.3
1003.8527	2773.9801	1498.65	608.75
1003.9729	2775.1723	1498.6	591.05
1004.093	2776.3639	1487.1	594.65
1004.2131	2777.5548	1490	597.4
1004.3331	2778.745	1487.6	595.9
1004.4531	2779.9346	1484.3	594.8
1004.5731	2781.1235	1484.2	594.3
1004.693	2782.3117	1482.95	593.7
1004.8129	2783.4992	1492.05	603.85
1004.9328	2784.6861	1490.9	601.05
1005.0526	2785.8723	1494.15	601.65
1005.1723	2787.0579	1508.25	618.65
1005.2921	2788.2428	1507.65	617.85
1005.4118	2789.427	1507.6	619.9
1005.5314	2790.6106	1516.45	626.95
1005.651	2791.7935	1526.1	636.1
1005.7706	2792.9757	1531.3	641.95
1005.8902	2794.1573	1542.15	648.25
1006.0097	2795.3382	1548.35	659.35
1006.1291	2796.5184	1556.8	668.1
1006.2485	2797.698	1564.95	673.25
1006.3679	2798.8769	1583.3	694.1
1006.4873	2800.0551	1593.4	701.7
1006.6066	2801.2327	1603.6	711.2
1006.7258	2802.4096	1619.65	730.4
1006.8451	2803.5859	1640.45	748.95
1006.9642	2804.7615	1653.45	764.85
1007.0834	2805.9364	1676.85	787.65
1007.2025	2807.1106	1698.2	809.45
1007.3216	2808.2842	1721.95	832.6
1007.4406	2809.4572	1751.4	862.7
1007.5596	2810.6294	1781.95	891.8
1007.6785	2811.801	1821.45	933.9
1007.7975	2812.972	1850.6	961.25
1007.9163	2814.1423	1895.65	1005.85
1008.0352	2815.3119	1932.35	1042.8
1008.154	2816.4808	1982.75	1093.45
1008.2727	2817.6491	2032.95	1144.2
1008.3914	2818.8167	2084.1	1196.7
1008.5101	2819.9837	2139.7	1246.5
1008.6288	2821.15	2187.35	1297.05
1008.7474	2822.3157	2236.35	1347.5
1008.8659	2823.4807	2304.35	1416.2
1008.9844	2824.645	2367.25	1478.05
1009.1029	2825.8086	2411.45	1525.4
1009.2214	2826.9716	2460	1571
1009.3398	2828.134	2509.6	1622.2
1009.4581	2829.2957	2548.6	1660.25
1009.5764	2830.4567	2575.25	1686.65
1009.6947	2831.617	2604.95	1715.35
1009.813	2832.7767	2615.65	1725.3
1009.9312	2833.9358	2623.35	1735.05
1010.0493	2835.0941	2622	1730.95
1010.1675	2836.2519	2597.25	1706.9
1010.2855	2837.4089	2584.4	1693.8
1010.4036	2838.5653	2570.15	1681.35
1010.5216	2839.7211	2564.95	1677.3
1010.6396	2840.8761	2561.15	1671.8
1010.7575	2842.0306	2569.9	1682.6
1010.8754	2843.1843	2605.85	1719.85
1010.9932	2844.3374	2633.7	1744.65
1011.111	2845.4899	2680.65	1791.85
1011.2288	2846.6417	2733.1	1844.65
1011.3465	2847.7928	2794	1906.5
1011.4642	2848.9433	2870.55	1983.3
1011.5818	2850.0931	2947.1	2058.1
1011.6995	2851.2422	3007.5	2117.35
1011.817	2852.3907	3075.95	2187.15
1011.9345	2853.5385	3128	2235.2
1012.052	2854.6857	3174.15	2273.5
1012.1695	2855.8323	3230.15	2343.55
1012.2869	2856.9781	3291.85	2403.5
1012.4042	2858.1233	3335.7	2448.5
1012.5216	2859.2679	3373.7	2484.4
1012.6389	2860.4118	3426.9	2539.5
1012.7561	2861.555	3476.1	2583.6
1012.8733	2862.6976	3513.1	2622
1012.9905	2863.8395	3529.15	2640.85
1013.1076	2864.9808	3580.95	2691.2
1013.2247	2866.1214	3579.3	2692.3
1013.3417	2867.2614	3604.15	2716.4
1013.4587	2868.4007	3620.7	2730.35
1013.5757	2869.5393	3642.85	2750.85
1013.6926	2870.6773	3651.5	2760.15
1013.8095	2871.8146	3683.9	2792.1
1013.9263	2872.9513	3677.8	2783.9
1014.0431	2874.0874	3649.05	2759.4
1014.1599	2875.2227	3661.65	2773.35
1014.2766	2876.3574	3635.8	2746.8
1014.3933	2877.4915	3598.65	2712.5
1014.51	2878.6249	3578.55	2692.05
1014.6266	2879.7577	3563.3	2674.15
1014.7431	2880.8898	3555	2656.4
1014.8596	2882.0212	3507.75	2619.5
1014.9761	2883.152	3513.5	2623.85
1015.0925	2884.2821	3485.95	2596.85
1015.2089	2885.4116	3485.15	2597.05
1015.3253	2886.5405	3475.95	2590.35
1015.4416	2887.6686	3498	2606.05
1015.5579	2888.7962	3511.8	2626.25
1015.6741	2889.923	3506.15	2619.4
1015.7903	2891.0493	3519.15	2632.85
1015.9065	2892.1748	3524.95	2637.1
1016.0226	2893.2997	3553.5	2666.8
1016.1387	2894.424	3553.7	2666
1016.2547	2895.5476	3562.95	2677.05
1016.3707	2896.6706	3575	2688.85
1016.4866	2897.7929	3617.05	2730.3
1016.6025	2898.9145	3639.55	2752.75
1016.7184	2900.0355	3666.2	2780.15
1016.8342	2901.1559	3705.65	2815.95
1016.95	2902.2756	3740.2	2850.2
1017.0658	2903.3946	3756.55	2870.45
1017.1815	2904.513	3776.7	2884.35
1017.2971	2905.6308	3813.25	2926.05
1017.4127	2906.7479	3831.65	2944.1
1017.5283	2907.8643	3865.25	2978.3
1017.6439	2908.9801	3884.65	2997.4
1017.7594	2910.0953	3891.05	3003
1017.8748	2911.2098	3885.95	2995.8
1017.9902	2912.3236	3879.6	2985.15
1018.1056	2913.4368	3866.45	2976.1
1018.2209	2914.5494	3834.8	2947.6
1018.3362	2915.6613	3816.9	2927
1018.4515	2916.7725	3772	2882.85
1018.5667	2917.8831	3755.9	2868.65
1018.6819	2918.9931	3721.9	2832.25
1018.797	2920.1024	3685.65	2798.55
1018.9121	2921.211	3693.45	2806.55
1019.0271	2922.319	3642.2	2756.05
1019.1421	2923.4264	3627.75	2743.85
1019.2571	2924.5331	3625.95	2741.6
1019.372	2925.6391	3603.9	2715.85
1019.4869	2926.7445	3624.85	2740.2
1019.6017	2927.8493	3629.55	2741.4
1019.7165	2928.9534	3614.6	2726.2
1019.8313	2930.0569	3617.35	2726.75
1019.946	2931.1597	3610.6	2725.75
1020.0606	2932.2619	3619.95	2735.2
1020.1753	2933.3634	3624	2738.8
1020.2899	2934.4643	3631.15	2736.65
1020.4044	2935.5645	3619.5	2725.25
1020.5189	2936.6641	3573.45	2684
1020.6334	2937.763	3523.7	2636.55
1020.7478	2938.8613	3497.7	2612
1020.8622	2939.959	3475.25	2582.15
1020.9765	2941.056	3376.9	2490.95
1021.0908	2942.1523	3318.95	2429.5
1021.2051	2943.248	3225.3	2340.65
1021.3193	2944.3431	3134.05	2248.65
1021.4334	2945.4375	3038.3	2151.1
1021.5476	2946.5313	2944.1	2060.85
1021.6617	2947.6244	2834.55	1947.3
1021.7757	2948.7169	2745.1	1857.9
1021.8897	2949.8087	2650.15	1764.65
1022.0037	2950.8999	2558.9	1672.25
1022.1176	2951.9904	2470.35	1585.45
1022.2315	2953.0803	2408.25	1521.75
1022.3453	2954.1696	2345.2	1459.3
1022.4591	2955.2582	2289.55	1405
1022.5728	2956.3462	2248.85	1363.55
1022.6865	2957.4335	2204.5	1318.15
1022.8002	2958.5202	2180.15	1290.9
1022.9138	2959.6062	2142.95	1257.8
1023.0274	2960.6916	2117.75	1233.2
1023.141	2961.7764	2100.95	1214.3
1023.2545	2962.8605	2082.2	1195.8
1023.3679	2963.9439	2074.25	1189.1
1023.4813	2965.0267	2058	1171
1023.5947	2966.1089	2074.3	1165.55
1023.708	2967.1905	2039.45	1153.5
1023.8213	2968.2714	2038.6	1154.85
1023.9346	2969.3516	2030.8	1146.85
1024.0478	2970.4312	2049.6	1158.85
1024.1609	2971.5102	2040.9	1155.75
1024.274	2972.5885	2041.8	1156.9
1024.3871	2973.6662	2055.2	1165.7
1024.5002	2974.7432	2047.55	1162.7
1024.6132	2975.8196	2035.05	1149.7
1024.7261	2976.8954	2024.85	1141.6
1024.839	2977.9705	2019.95	1134.25
1024.9519	2979.045	2010.65	1129
1025.0647	2980.1188	1996.05	1109.85
1025.1775	2981.192	1978.4	1093.85
1025.2902	2982.2645	1957.3	1072.3
1025.4029	2983.3364	1942.95	1059.75
1025.5156	2984.4077	1909.7	1025.75
1025.6282	2985.4783	1891.6	999.95
1025.7407	2986.5483	1844.25	960.05
1025.8532	2987.6177	1816.95	931.9
1025.9657	2988.6864	1784.2	900.3
1026.0782	2989.7545	1748.7	860.15
1026.1906	2990.8219	1712.65	828.35
1026.3029	2991.8887	1679.15	792.4
1026.4152	2992.9548	1653.05	768.15
1026.5275	2994.0204	1625.45	739.95
1026.6397	2995.0852	1592.9	708.9
1026.7519	2996.1495	1571	683.55
1026.864	2997.2131	1535.6	651
1026.9761	2998.276	1514.9	633.9
1027.0882	2999.3383	1496.9	611.6
1027.2002	3000.4	1470.8	586.2
1027.3122	3001.4611	1455.15	569.85
1027.4241	3002.5215	1446.55	564.45
1027.536	3003.5812	1420.15	535.5
1027.6478	3004.6404	1414.25	531.8
1027.7596	3005.6989	1400.45	514.3
1027.8714	3006.7567	1384.45	500.05
1027.9831	3007.8139	1405.8	494.4
1028.0947	3008.8705	1366.95	483.6
1028.2064	3009.9264	1366.7	477.45
1028.3179	3010.9818	1360.25	477.3
1028.4295	3012.0364	1341.35	457.55
1028.541	3013.0905	1351.95	465.6
1028.6524	3014.1439	1341.35	459.15
1028.7638	3015.1966	1337.05	451.85
1028.8752	3016.2487	1329.95	445.65
1028.9865	3017.3002	1337.8	446.25
1029.0978	3018.3511	1322.15	441.05
1029.209	3019.4013	1325.8	443.25
1029.3202	3020.4509	1324.95	441.3
1029.4314	3021.4998	1321.95	441
1029.5425	3022.5481	1319.25	433.65
1029.6535	3023.5958	1317.1	433.5
1029.7645	3024.6428	1320	435
1029.8755	3025.6892	1319.5	435.75
1029.9864	3026.735	1309.55	424.95
1030.0973	3027.7802	1320.45	436.35
1030.2082	3028.8247	1313.65	431.2
1030.319	3029.8685	1323.25	438.5
1030.4297	3030.9118	1316.85	432.9
1030.5404	3031.9544	1329.75	446.2
1030.6511	3032.9963	1324.35	439
1030.7617	3034.0376	1327.25	443.6
1030.8723	3035.0783	1331.35	445.15
1030.9829	3036.1184	1336.85	451.7
1031.0934	3037.1578	1334.45	452.2
1031.2038	3038.1966	1333.85	449.55
1031.3142	3039.2348	1343	459.65
1031.4246	3040.2723	1340.55	450
1031.5349	3041.3092	1333.7	453.6
1031.6452	3042.3455	1336.3	451.35
1031.7554	3043.3811	1332.15	448.65
1031.8656	3044.4161	1331.75	447.8
1031.9758	3045.4505	1329.25	446.9
1032.0859	3046.4842	1323.85	440.3
1032.1959	3047.5173	1321.35	437.9
1032.3059	3048.5498	1316.55	432.15
1032.4159	3049.5816	1312.3	429.1
1032.5258	3050.6128	1308.6	423.55
1032.6357	3051.6434	1313.75	430.8
1032.7455	3052.6734	1304.15	421.3
1032.8553	3053.7027	1302.35	416.95
1032.9651	3054.7314	1288.1	406.35
1033.0748	3055.7594	1288.85	405.2
1033.1845	3056.7868	1287.55	403.3
1033.2941	3057.8136	1278.8	393.65
1033.4037	3058.8398	1277.1	396.2
1033.5132	3059.8653	1280.55	396.7
1033.6227	3060.8902	1272.05	392.5
1033.7321	3061.9145	1268.6	383.7
1033.8415	3062.9381	1265.35	384.7
1033.9509	3063.9612	1278.95	380.5
1034.0602	3064.9835	1260.65	378.6
1034.1694	3066.0053	1254.95	369.55
1034.2787	3067.0264	1245.8	362.45
1034.3878	3068.0469	1242.2	357.75
1034.497	3069.0668	1239.25	352.75
1034.6061	3070.086	1233.3	350.95
1034.7151	3071.1046	1224.75	341.35
1034.8241	3072.1226	1216.25	333.15
1034.9331	3073.1399	1222.3	342.6
1035.042	3074.1567	1201.3	318.7
1035.1508	3075.1727	1201.55	318.7
1035.2597	3076.1882	1189.3	306
1035.3684	3077.203	1185.4	304.9
1035.4772	3078.2173	1178.5	291.85
1035.5859	3079.2308	1174.5	291.6
1035.6945	3080.2438	1163.1	279.15
1035.8031	3081.2561	1149.2	266.25
1035.9117	3082.2678	1148.65	266.45
1036.0202	3083.2789	1143.45	259.75
1036.1286	3084.2893	1138.3	256.75
1036.2371	3085.2991	1137.75	253.7
1036.3454	3086.3083	1128.65	241.15
1036.4538	3087.3169	1118.95	235.65
1036.562	3088.3248	1118.75	235.45
1036.6703	3089.3321	1113.1	228.85
1036.7785	3090.3388	1108.2	227
1036.8866	3091.3449	1105.25	222.15
1036.9948	3092.3503	1109.05	223.6
1037.1028	3093.3551	1093.65	213.2
1037.2108	3094.3593	1095.25	212.45
1037.3188	3095.3629	1093.4	212.1
1037.4267	3096.3658	1090.65	206.95
1037.5346	3097.3681	1087.15	206.3
1037.6425	3098.3698	1084.35	201.2
1037.7503	3099.3708	1088.1	199.4
1037.858	3100.3713	1078.3	195.75
1037.9657	3101.3711	1075.65	193.5
1038.0734	3102.3702	1207.55	188.1
1038.181	3103.3688	1076.15	190.75
1038.2886	3104.3667	1065.3	184.5
1038.3961	3105.364	1061.75	178
1038.5036	3106.3607	1064.95	182.25
1038.611	3107.3568	1063.15	181.15
1038.7184	3108.3522	1064.9	183.8
1038.8257	3109.347	1056.7	172.7
1038.933	3110.3412	1059.95	171.95
1039.0403	3111.3348	1051.65	168.1
1039.1475	3112.3277	1050.75	168.3
1039.2547	3113.32	1046.6	165.55
1039.3618	3114.3117	1045.6	164.85
1039.4689	3115.3028	1048.65	167.65
1039.5759	3116.2932	1045.5	163.8
1039.6829	3117.2831	1044.8	157.65
1039.7898	3118.2723	1042.9	162.5
1039.8967	3119.2608	1035.95	154.75
1040.0035	3120.2488	1039.25	158.25
1040.1103	3121.2361	1038.9	157.9
1040.2171	3122.2229	1032.85	152.1
1040.3238	3123.209	1035.05	152.1
1040.4305	3124.1944	1031.85	149.5
1040.5371	3125.1793	1035.15	149.95
1040.6437	3126.1635	1029.7	148.6
1040.7502	3127.1471	1024.65	144.35
1040.8567	3128.1301	1026.8	146.6
1040.9631	3129.1125	1024.65	140.35
1041.0695	3130.0942	1023.1	140.9
1041.1759	3131.0753	1032.85	143.3
1041.2822	3132.0558	1027.3	143.7
1041.3884	3133.0357	1024.25	143.5
1041.4946	3134.015	1020.7	137.15
1041.6008	3134.9936	1018.55	135.6
1041.7069	3135.9716	1038.75	135.75
1041.813	3136.949	1014.8	134.95
1041.919	3137.9258	1032.1	132.3
1042.025	3138.902	1020.9	134.85
1042.1309	3139.8775	1013.1	133.4
1042.2368	3140.8524	1012.8	132.2
1042.3427	3141.8267	1012.4	129.1
1042.4485	3142.8004	1009.75	129.05
1042.5542	3143.7735	1020	133
1042.6599	3144.7459	1011.15	129.4
1042.7656	3145.7178	1008.65	126.65
1042.8712	3146.689	1006.4	127.1
1042.9768	3147.6596	1010.5	126.8
1043.0823	3148.6295	1005.9	125.7
1043.1878	3149.5989	1004.15	123.6
1043.2932	3150.5676	999.55	119.9
1043.3986	3151.5357	1001.7	120.65
1043.5039	3152.5032	1001.4	121.7
1043.6092	3153.4701	998.85	118.65
1043.7145	3154.4364	999.6	116.8
1043.8197	3155.402	997.2	116.65
1043.9248	3156.367	998.65	115
1044.03	3157.3315	1029	116.55
1044.135	3158.2952	993.75	112.2
1044.24	3159.2584	994.2	114.2
1044.345	3160.221	992.8	110
1044.4499	3161.1829	992.55	112.6
1044.5548	3162.1442	990.3	110.6
1044.6596	3163.105	989	108.5
1044.7644	3164.065	990.2	108.6
1044.8692	3165.0245	991	107.75
1044.9739	3165.9834	985.95	104.7
1045.0785	3166.9416	985.05	104
1045.1831	3167.8993	988	106.4
1045.2877	3168.8563	984.9	103.35
1045.3922	3169.8127	982.4	101.1
1045.4966	3170.7684	983.1	103.7
1045.6011	3171.7236	981	97.85
1045.7054	3172.6782	982.95	102.95
1045.8098	3173.6321	982.1	102.35
1045.914	3174.5854	987.65	103.6
1046.0183	3175.5381	982	102
1046.1224	3176.4902	979.4	96.7
1046.2266	3177.4417	978.5	99.4
1046.3307	3178.3926	976.3	96.45
1046.4347	3179.3428	978.15	98.85
1046.5387	3180.2924	978.45	97.85
1046.6427	3181.2415	978.45	98.45
1046.7466	3182.1899	979.35	98
1046.8504	3183.1377	976.1	96.6
1046.9542	3184.0848	977.95	94.75
1047.058	3185.0314	973.05	91.8
1047.1617	3185.9773	969.9	90.95
1047.2654	3186.9227	972.45	91.2
1047.369	3187.8674	972	91.65
1047.4726	3188.8115	975.9	91.5
1047.5761	3189.755	971.2	92.6
1047.6796	3190.6979	967.5	87.75
1047.783	3191.6402	974.4	97.75
1047.8864	3192.5818	967.95	88.65
1047.9898	3193.5229	975.15	89.8
1048.0931	3194.4633	969.9	90.35
1048.1963	3195.4031	968.5	88.05
1048.2995	3196.3423	968.85	89
1048.4027	3197.2809	965.3	85.35
1048.5058	3198.2189	967.75	85.1
1048.6089	3199.1563	973.3	88
1048.7119	3200.0931	964.3	86.25
1048.8148	3201.0292	962	83.5
1048.9178	3201.9648	962.4	82.5
1049.0206	3202.8997	966.9	85.45
1049.1235	3203.834	964	83.85
1049.2262	3204.7677	964	84.8
1049.329	3205.7008	960.5	76.45
1049.4317	3206.6333	964.35	88.6
1049.5343	3207.5652	964.2	80.65
1049.6369	3208.4964	961.1	79.95
1049.7394	3209.4271	960	83.6
1049.8419	3210.3571	958.4	80.4
1049.9444	3211.2865	959	80.6
1050.0468	3212.2154	962.2	81
1050.1491	3213.1436	961.6	81.5
1050.2514	3214.0712	964.65	79.8
1050.3537	3214.9982	961.3	82.1
1050.4559	3215.9246	955.9	74.8
1050.5581	3216.8503	954.8	76.95
1050.6602	3217.7755	958.25	77.45
1050.7623	3218.7001	957.85	78.15
1050.8643	3219.624	954.9	77.05
1050.9663	3220.5473	953.05	73.9
1051.0682	3221.4701	953.95	70.9
1051.1701	3222.3922	956.95	75.75
1051.2719	3223.3137	954.4	73.3
1051.3737	3224.2346	949	70.5
1051.4754	3225.1549	952.65	73.85
1051.5771	3226.0746	950.95	70.45
1051.6788	3226.9937	951.25	71
1051.7804	3227.9121	947.7	72
1051.8819	3228.83	949.55	68.9
1051.9834	3229.7473	951.45	73
1052.0849	3230.6639	949.25	70.8
1052.1863	3231.5799	952.2	72.95
1052.2876	3232.4954	948.85	67.95
1052.3889	3233.4102	948.45	70.2
1052.4902	3234.3244	946.6	66.85
1052.5914	3235.238	944.65	66.7
1052.6926	3236.151	974.4	72.8
1052.7937	3237.0634	946.45	68.7
1052.8948	3237.9752	944.95	67.35
1052.9958	3238.8864	944.45	63.8
1053.0968	3239.797	945.95	67.9
1053.1977	3240.7069	943.6	62.25
1053.2986	3241.6163	945.55	65.95
1053.3994	3242.5251	943.55	64.7
1053.5002	3243.4332	941.6	63.2
1053.6009	3244.3408	941.25	63.5
1053.7016	3245.2477	941.45	60.8
1053.8022	3246.154	941	61.2
1053.9028	3247.0598	942.2	64.7
1054.0034	3247.9649	941	61.1
1054.1039	3248.8694	942.5	63.3
1054.2043	3249.7733	937.5	57.2
1054.3047	3250.6766	938.6	59.8
1054.4051	3251.5793	937.15	56
1054.5054	3252.4814	936.65	58.4
1054.6056	3253.3829	936.4	59.55
1054.7058	3254.2838	935.35	54.85
1054.806	3255.1841	932.15	55.9
1054.9061	3256.0838	935.85	58.75
1055.0061	3256.9829	934	58.35
1055.1062	3257.8814	937.35	57.6
1055.2061	3258.7792	935.4	52.85
1055.306	3259.6765	933.7	55.25
1055.4059	3260.5731	930.55	53.75
1055.5057	3261.4692	929.6	51.15
1055.6055	3262.3647	930.75	51.85
1055.7052	3263.2595	929	51.85
1055.8049	3264.1538	926.7	48.7
1055.9045	3265.0474	929.75	50
1056.0041	3265.9404	928	52.6
1056.1036	3266.8329	927.35	52.1
1056.2031	3267.7247	933.4	45.8
1056.3025	3268.616	924.65	49.85
1056.4019	3269.5066	922.85	46
1056.5013	3270.3966	923.95	42.05
1056.6005	3271.286	920.7	43.25
