Software Version:	3.9.2.0
Unit SN:	10000200
Spectrometer SN:	6960
Date:	3/8/2024 1:04:26 PM
Data Line Index:	25
Spectral Points:	2048
Integration time (ms):	125
Averages:	20
Delay (ms):	30000
Sequence Number:	1
Processing:	dark subtract
Laser Power (mW):	305
Laser Current (mA):	822
Laser Diode Temp (C):	25
Laser Case Temp (C):	26.1
System Temp (C):	26.1
Spectrometer Temp (C):	24
CCD Temp (C):	0.009
Secondary Temp (C):	20.011
Heatsink Temp (C):	20.953
CCDPCB Temp (C):	36.051
SecondaryPCB Temp (C):	30.527

Wavelength	RamanShift	Raw Counts	Dark Subtracted
787.061	30.1047	455.9	48.55
787.2016	32.3739	456.6	51.7
787.3422	34.6426	462.15	54.55
787.4828	36.9109	467.7	58.35
787.6235	39.1787	479	67.55
787.7642	41.4461	488.15	68.5
787.9049	43.7131	494.6	73.85
788.0456	45.9796	503.9	80.6
788.1863	48.2456	513	85.55
788.3271	50.5112	524.15	90.1
788.4679	52.7764	530.85	94.4
788.6087	55.0411	538.6	97.1
788.7496	57.3054	552.9	107.9
788.8904	59.5692	560.25	113.05
789.0313	61.8326	572.4	121.95
789.1722	64.0955	582.45	127.75
789.3132	66.3579	599.1	140.35
789.4541	68.6199	617.1	154.05
789.5951	70.8815	657.35	189.75
789.7361	73.1426	734.6	263.2
789.8771	75.4032	949.35	475.45
790.0181	77.6634	1455.9	975.35
790.1592	79.9231	2654.5	2163.7
790.3003	82.1824	5231	4722.15
790.4414	84.4412	9871.65	9328.35
790.5825	86.6995	16250.85	15669.1
790.7237	88.9574	22410.2	21787.95
790.8648	91.2148	26655.15	26005
791.006	93.4717	28564.95	27903.4
791.1472	95.7282	28852.7	28179.4
791.2885	97.9842	28619.3	27947.3
791.4297	100.2398	27930.6	27254.9
791.571	102.4949	27185.9	26501.9
791.7123	104.7495	26319.8	25638.4
791.8536	107.0036	25465.7	24781.55
791.9949	109.2573	24667.25	23984.4
792.1363	111.5105	23886.25	23199.35
792.2777	113.7632	23180.7	22491.05
792.4191	116.0154	22603.7	21903.2
792.5605	118.2672	22234.75	21538.2
792.7019	120.5185	21771.9	21077.8
792.8434	122.7693	21425.4	20724.45
792.9849	125.0197	21134.55	20434.15
793.1264	127.2696	20867.05	20161.65
793.2679	129.519	20728.8	20019.45
793.4094	131.7679	20452.8	19741.05
793.551	134.0163	20204.55	19492.45
793.6926	136.2642	19928.65	19211.2
793.8342	138.5117	19619.9	18891.85
793.9758	140.7587	19286.25	18567.45
794.1175	143.0052	19001.75	18273.25
794.2591	145.2512	18693.85	17968.85
794.4008	147.4967	18445.6	17723
794.5425	149.7417	18217.05	17487.7
794.6842	151.9863	18056	17326.6
794.826	154.2304	17985.55	17249.9
794.9677	156.4739	17826.25	17084.9
795.1095	158.717	17765.65	17019.8
795.2513	160.9596	17588	16838.9
795.3931	163.2017	17323.7	16575.05
795.535	165.4433	17033.25	16280.25
795.6768	167.6844	16717.5	15966.45
795.8187	169.925	16408.85	15656.4
795.9606	172.1651	16039.9	15279.35
796.1025	174.4047	15736.25	14979.95
796.2445	176.6439	15495.95	14735.5
796.3864	178.8825	15294.35	14529.8
796.5284	181.1206	15156.65	14383.95
796.6704	183.3582	15007.8	14230.65
796.8124	185.5954	14919.8	14141.3
796.9544	187.832	14837.6	14058.8
797.0965	190.0681	14768.6	13985.75
797.2386	192.3037	14806.65	14019.45
797.3806	194.5388	14790.45	14001.2
797.5228	196.7734	14837.85	14047.25
797.6649	199.0075	14923.95	14128.85
797.807	201.2411	15052.8	14254.1
797.9492	203.4742	15149.5	14350.5
798.0914	205.7068	15305.75	14505.15
798.2336	207.9389	15404.3	14601
798.3758	210.1704	15544.4	14745.35
798.518	212.4015	15668.3	14880.05
798.6603	214.632	15789.95	15009.8
798.8025	216.862	15985.9	15206.75
798.9448	219.0915	16099.15	15316.5
799.0871	221.3205	16274.95	15489.75
799.2294	223.549	16400.15	15624.7
799.3718	225.777	16617.2	15838.35
799.5141	228.0044	16847.2	16064.45
799.6565	230.2314	17126.9	16341.85
799.7989	232.4578	17380.15	16591.25
799.9413	234.6837	17631.85	16836.75
800.0837	236.909	17765	16966.45
800.2262	239.1339	17773.8	16943.05
800.3687	241.3582	17622.8	16812.25
800.5111	243.582	17426.65	16587.6
800.6536	245.8053	17227.25	16399.25
800.7961	248.0281	17062.9	16244.6
800.9387	250.2503	16960.7	16135.8
801.0812	252.472	16908.2	16081.15
801.2238	254.6932	17002.8	16178.8
801.3664	256.9139	17050.15	16222.85
801.509	259.134	17130.1	16300.45
801.6516	261.3536	17301.7	16469.45
801.7942	263.5727	17506.9	16676.4
801.9369	265.7912	17651.8	16819.8
802.0795	268.0092	17829	16995.15
802.2222	270.2267	17944.95	17116.6
802.3649	272.4436	17982.5	17152.35
802.5076	274.6601	17970.2	17127.4
802.6504	276.8759	17890	17052.35
802.7931	279.0913	17803.35	16962.8
802.9359	281.3061	17716.15	16876.45
803.0787	283.5204	17697.4	16849.9
803.2215	285.7341	17703.35	16857.7
803.3643	287.9473	17793.8	16943.2
803.5071	290.16	17895.75	17044.15
803.6499	292.3721	18103.65	17260.2
803.7928	294.5837	18417.7	17569.6
803.9357	296.7947	18678.05	17829.35
804.0786	299.0052	18893.9	18052.35
804.2215	301.2152	18783.6	17934.35
804.3644	303.4246	18530.45	17691.3
804.5074	305.6334	18125.2	17283.45
804.6503	307.8418	17655.35	16804.8
804.7933	310.0495	17219	16369.95
804.9363	312.2568	16879.25	16022.45
805.0793	314.4635	16542.4	15689.15
805.2223	316.6696	16377.35	15520.05
805.3653	318.8752	16230.75	15366.1
805.5084	321.0802	16211.95	15355.4
805.6514	323.2847	16244.75	15386.9
805.7945	325.4887	16304.35	15441.35
805.9376	327.692	16275.6	15410.15
806.0807	329.8949	16198.9	15333.7
806.2238	332.0972	15952.85	15088.05
806.367	334.2989	15736.35	14867.05
806.5101	336.5001	15485.6	14621.55
806.6533	338.7007	15304	14434
806.7965	340.9008	15161.25	14291.55
806.9397	343.1003	15041.5	14169.95
807.0829	345.2992	14956.95	14088.15
807.2261	347.4976	14883.05	14008.75
807.3693	349.6955	14834.55	13958.05
807.5126	351.8927	14852.1	13980.5
807.6559	354.0895	14815.8	13929.75
807.7991	356.2856	14853.1	13973.2
807.9424	358.4812	14801.7	13922.6
808.0857	360.6763	14830.2	13949.75
808.2291	362.8707	14796.25	13912
808.3724	365.0646	14866.15	13987.05
808.5158	367.258	14878.2	13993.45
808.6591	369.4508	14931.3	14041.7
808.8025	371.643	15075	14186.7
808.9459	373.8346	15106.9	14218.05
809.0893	376.0257	15155.5	14262.9
809.2327	378.2162	15105.8	14218.3
809.3762	380.4062	15067.75	14180.2
809.5196	382.5956	14924.05	14039.3
809.6631	384.7844	14840.85	13962.15
809.8066	386.9726	14712.6	13834.85
809.9501	389.1603	14659.65	13782.8
810.0936	391.3474	14629.7	13722
810.2371	393.5339	14578.5	13691
810.3806	395.7199	14540.45	13657.05
810.5241	397.9052	14588.95	13707.75
810.6677	400.09	14633.15	13751.3
810.8113	402.2743	14751.2	13869
810.9548	404.4579	14899.75	14015.05
811.0984	406.641	15090.1	14202.2
811.2421	408.8235	15295.75	14408.05
811.3857	411.0054	15504.2	14616.65
811.5293	413.1868	15794.8	14900.2
811.673	415.3675	15986.4	15088.65
811.8166	417.5477	16076	15175.55
811.9603	419.7273	16055.1	15160.85
812.104	421.9064	16013.2	15106.35
812.2477	424.0848	15891.15	14997.8
812.3914	426.2627	15729.05	14832.6
812.5351	428.4399	15468.95	14569
812.6788	430.6166	15145.25	14246.35
812.8226	432.7928	14787.6	13885
812.9663	434.9683	14484.85	13585.65
813.1101	437.1432	14253.45	13353.3
813.2539	439.3176	14073	13182.65
813.3977	441.4914	13992.5	13105.95
813.5415	443.6645	13968.5	13076.85
813.6853	445.8371	13894.5	12997.05
813.8291	448.0091	13855.75	12955.65
813.973	450.1806	13824.75	12928.65
814.1168	452.3514	13810.7	12918.5
814.2607	454.5216	13836	12931.65
814.4046	456.6913	13811.55	12915.9
814.5485	458.8603	13843.85	12948.3
814.6924	461.0288	13894.6	12999.1
814.8363	463.1967	13921.85	13033.95
814.9802	465.3639	13939.8	13048.65
815.1241	467.5306	14013.4	13117.55
815.2681	469.6967	14065.25	13171.65
815.412	471.8622	14166.1	13275.8
815.556	474.0271	14264.2	13371.15
815.7	476.1914	14305.25	13407.25
815.844	478.3551	14317.4	13416.8
815.988	480.5182	14352.3	13457.1
816.132	482.6807	14364.8	13477.85
816.276	484.8426	14560.9	13683.85
816.4201	487.0039	14872.9	13989.1
816.5641	489.1647	15230.55	14330.65
816.7082	491.3248	15640.35	14742.55
816.8522	493.4843	15770.1	14876.6
816.9963	495.6432	15756.5	14864.2
817.1404	497.8015	15680.25	14776.1
817.2845	499.9592	15579.6	14666.55
817.4286	502.1163	15435.1	14522.45
817.5727	504.2728	15151.6	14251.65
817.7168	506.4287	14909.35	14015.4
817.861	508.5839	14524.05	13632.4
818.0051	510.7386	14249.4	13352.1
818.1493	512.8927	14144.95	13235.05
818.2935	515.0461	14088.15	13183.85
818.4377	517.199	14109.95	13204.15
818.5818	519.3512	14187.85	13277.4
818.726	521.5029	14443	13534.8
818.8703	523.6539	14589.5	13679.9
819.0145	525.8043	14672.25	13759.1
819.1587	527.9541	14636.9	13723.7
819.303	530.1033	14533.35	13625.75
819.4472	532.2519	14434.1	13527
819.5915	534.3999	14467.3	13556.95
819.7357	536.5472	14632.35	13727.2
819.88	538.694	14949.5	14044.8
820.0243	540.8401	15351.5	14441.65
820.1686	542.9856	15696.95	14775.7
820.3129	545.1305	15776.5	14848.2
820.4572	547.2748	15705	14776.65
820.6016	549.4185	15443.95	14513.85
820.7459	551.5615	15208.25	14279.6
820.8902	553.704	15143.4	14218.3
821.0346	555.8458	15173.75	14253.35
821.1789	557.987	15285	14368.45
821.3233	560.1276	15461.65	14539.95
821.4677	562.2675	15678.1	14760.8
821.6121	564.4069	15975.65	15052.3
821.7565	566.5456	16237.15	15322.2
821.9009	568.6837	16275.4	15355.5
822.0453	570.8212	15976.2	15063.3
822.1897	572.958	15440.3	14520.55
822.3342	575.0942	14928.55	14011.85
822.4786	577.2299	14562.4	13654.2
822.6231	579.3648	14472.7	13572.7
822.7675	581.4992	14427.8	13539.3
822.912	583.6329	14593.9	13704.6
823.0565	585.766	14784.6	13891.05
823.201	587.8985	14914.05	14015.05
823.3454	590.0304	14958.2	14024.1
823.4899	592.1616	14926.65	14005.15
823.6345	594.2922	14786.85	13864.85
823.779	596.4222	14625.45	13696.55
823.9235	598.5515	14424.1	13498.35
824.068	600.6802	14262.8	13338.45
824.2126	602.8083	14110.85	13188.55
824.3571	604.9358	14066.7	13143.3
824.5017	607.0626	14068.85	13141.65
824.6462	609.1888	14129.7	13200.05
824.7908	611.3144	14193.9	13260.95
824.9354	613.4393	14221.05	13286.05
825.08	615.5636	14242.95	13310.4
825.2246	617.6873	14210.45	13279.95
825.3692	619.8103	14154.05	13224.65
825.5138	621.9327	13990.15	13063.25
825.6584	624.0544	13855.05	12932.4
825.803	626.1756	13727.25	12804.7
825.9477	628.2961	13623.5	12695.4
826.0923	630.4159	13558.4	12626.15
826.237	632.5351	13545.25	12615.65
826.3816	634.6537	13492.55	12559.55
826.5263	636.7716	13522.1	12585.55
826.6709	638.8889	13534	12595.1
826.8156	641.0056	13557.1	12616.5
826.9603	643.1216	13552.9	12615.15
827.105	645.237	13533.05	12600.55
827.2497	647.3518	13470.45	12548.65
827.3944	649.4659	13472.35	12546.85
827.5391	651.5793	13465.95	12547.1
827.6838	653.6922	13417.55	12491.9
827.8285	655.8043	13395.35	12469.3
827.9733	657.9159	13399.3	12470.8
828.118	660.0268	13350.1	12419.65
828.2627	662.137	13337.55	12409
828.4075	664.2466	13353.55	12415.8
828.5522	666.3556	13364.5	12427.45
828.697	668.4639	13293.35	12360.15
828.8418	670.5716	13317	12394.75
828.9865	672.6786	13325.45	12394.1
829.1313	674.785	13316.75	12377.85
829.2761	676.8907	13357.4	12426.4
829.4209	678.9958	13363.55	12435.55
829.5657	681.1002	13349.5	12418.45
829.7105	683.204	13356.65	12413.55
829.8553	685.3072	13315.1	12375.1
830.0001	687.4097	13267.05	12328.85
830.1449	689.5115	13239.25	12297.95
830.2898	691.6127	13231.45	12297.1
830.4346	693.7132	13204.9	12274.65
830.5794	695.8131	13206.75	12259.2
830.7243	697.9123	13216.2	12274.8
830.8691	700.0109	13188.7	12245.6
831.014	702.1089	13239.1	12298.2
831.1588	704.2061	13266.25	12327.4
831.3037	706.3028	13334.55	12394.1
831.4486	708.3987	13325.65	12387.2
831.5935	710.4941	13392.5	12453.1
831.7383	712.5887	13504.95	12567.85
831.8832	714.6827	13661.2	12720.05
832.0281	716.7761	13905.7	12969.85
832.173	718.8688	14142.15	13203.95
832.3179	720.9608	14308.6	13362.4
832.4628	723.0522	14451.15	13498.1
832.6077	725.1429	14367.5	13421.45
832.7527	727.233	14305.5	13362.5
832.8976	729.3224	14250.9	13310.6
833.0425	731.4112	14079.2	13139
833.1874	733.4993	13914.9	12974.55
833.3324	735.5867	13738.65	12797.35
833.4773	737.6735	13565.45	12621.85
833.6222	739.7596	13447.85	12506.15
833.7672	741.845	13345.5	12399.65
833.9122	743.9298	13280.95	12335.95
834.0571	746.014	13259.35	12316.6
834.2021	748.0974	13274.25	12329.1
834.347	750.1802	13274.5	12328.25
834.492	752.2624	13293.95	12343.05
834.637	754.3439	13336.65	12387.95
834.782	756.4247	13431.95	12475.05
834.9269	758.5048	13573.4	12627.55
835.0719	760.5843	13847.3	12897.3
835.2169	762.6631	14242.55	13294.05
835.3619	764.7413	14751.65	13804.9
835.5069	766.8188	15405.15	14454.6
835.6519	768.8956	15920.9	14971.4
835.7969	770.9718	16270.9	15325.6
835.9419	773.0473	16179.35	15232.85
836.0869	775.1221	15905.85	14959.15
836.232	777.1962	15567.45	14621.9
836.377	779.2697	15409.3	14457.8
836.522	781.3426	15489.6	14528.15
836.667	783.4147	15623.25	14671.8
836.8121	785.4862	15797.6	14852.85
836.9571	787.557	15715.9	14763.75
837.1021	789.6271	15282.55	14328.25
837.2472	791.6966	14711.4	13760.85
837.3922	793.7654	14154.35	13204.9
837.5373	795.8335	13778.65	12827.45
837.6823	797.901	13510.35	12562.45
837.8274	799.9678	13394.35	12442.6
837.9724	802.0339	13343.3	12392.05
838.1175	804.0993	13370.8	12404.15
838.2626	806.1641	13298.15	12341.9
838.4076	808.2282	13250.45	12298.3
838.5527	810.2916	13171.25	12219.65
838.6978	812.3544	13076.25	12133.15
838.8428	814.4164	13034.05	12083.5
838.9879	816.4778	13036.9	12085.35
839.133	818.5385	13082.8	12127.3
839.2781	820.5986	13208.45	12255.35
839.4232	822.658	13399.7	12444.9
839.5682	824.7166	13632.25	12680.65
839.7133	826.7747	14056.2	13105.1
839.8584	828.832	14441.95	13487.7
840.0035	830.8886	14721.95	13766.4
840.1486	832.9446	14845.6	13887.35
840.2937	834.9999	14790.25	13836.3
840.4388	837.0545	14625.45	13664.9
840.5839	839.1085	14402.15	13448.05
840.729	841.1618	14198.65	13239
840.8741	843.2143	14049.8	13096.8
841.0192	845.2662	13879.25	12923.95
841.1643	847.3175	13802.05	12846.85
841.3095	849.368	13690.4	12734.4
841.4546	851.4179	13585.95	12631.7
841.5997	853.467	13473.15	12518.5
841.7448	855.5155	13397.15	12443.35
841.8899	857.5633	13312.6	12355.15
842.0351	859.6105	13194.3	12237.3
842.1802	861.6569	13150.85	12194.75
842.3253	863.7027	13101.8	12145.15
842.4704	865.7478	13073.25	12117
842.6156	867.7922	13032.75	12074.2
842.7607	869.8359	13059.25	12104.6
842.9058	871.8789	13134.4	12174.55
843.0509	873.9212	13254.2	12266.85
843.1961	875.9629	13362.1	12408.3
843.3412	878.0039	13541.05	12579.95
843.4863	880.0441	13606.35	12649.95
843.6315	882.0837	13639.25	12684
843.7766	884.1226	13637.2	12679.25
843.9218	886.1609	13602.4	12647.4
844.0669	888.1984	13636.3	12681.95
844.212	890.2352	13719.55	12761.85
844.3572	892.2714	13703.45	12742.8
844.5023	894.3069	13703.3	12745.1
844.6475	896.3416	13542.25	12585.2
844.7926	898.3757	13468.55	12511.9
844.9377	900.4091	13370.4	12409.05
845.0829	902.4418	13388.3	12423.55
845.228	904.4739	13437.7	12475.6
845.3732	906.5052	13491.4	12530.15
845.5183	908.5358	13417.95	12456.25
845.6635	910.5658	13291.15	12329.85
845.8086	912.595	13101	12140.95
845.9538	914.6236	12897	11934.1
846.0989	916.6515	12799.45	11839.9
846.2441	918.6786	12711.75	11751
846.3892	920.7051	12752.8	11788
846.5344	922.7309	12829.35	11869.05
846.6795	924.756	12889.55	11929.25
846.8246	926.7804	12984.9	12024.15
846.9698	928.8041	12927.9	11967.75
847.1149	930.8272	12990.15	12030.75
847.2601	932.8495	12942	11980.55
847.4052	934.8711	12925.05	11962.45
847.5504	936.892	12814.05	11854.85
847.6955	938.9123	12741.05	11775.95
847.8407	940.9318	12721.05	11763
847.9858	942.9506	12659.65	11699.25
848.131	944.9688	12600.7	11642.95
848.2761	946.9862	12540.05	11582.55
848.4213	949.003	12411.4	11446.4
848.5664	951.019	12348.45	11388.95
848.7115	953.0344	12316.9	11356.55
848.8567	955.0491	12358.6	11395.25
849.0018	957.063	12417.65	11459.1
849.147	959.0763	12510.4	11552.45
849.2921	961.0888	12540.45	11581.6
849.4373	963.1007	12596.65	11643.2
849.5824	965.1119	12613.6	11664.05
849.7275	967.1223	12635.15	11689.75
849.8727	969.1321	12627.45	11686.35
850.0178	971.1412	12650.4	11702.1
850.1629	973.1495	12673	11715.25
850.3081	975.1572	12710.4	11703.35
850.4532	977.1641	12709.1	11749.85
850.5983	979.1704	12704.55	11742.05
850.7435	981.1759	12690	11726.45
850.8886	983.1808	12704.55	11744.95
851.0337	985.1849	12757.65	11788.5
851.1788	987.1884	12856.35	11896.65
851.324	989.1911	12961.85	12003.4
851.4691	991.1932	13044.9	12083.95
851.6142	993.1945	13081.15	12124.1
851.7593	995.1951	13050.15	12090.35
851.9045	997.1951	13035.2	12068.7
852.0496	999.1943	12959.15	12002.15
852.1947	1001.1928	12944.7	11982.65
852.3398	1003.1906	12965.45	12005.35
852.4849	1005.1877	13075	12113.35
852.63	1007.1841	13101.35	12143.85
852.7751	1009.1798	13080.55	12124.7
852.9202	1011.1748	12964	12004.9
853.0653	1013.1691	12803.15	11843.75
853.2104	1015.1627	12578.3	11621.4
853.3555	1017.1556	12381.8	11426.35
853.5006	1019.1477	12260	11306.25
853.6457	1021.1392	12170.05	11217.4
853.7908	1023.1299	12143.15	11200.3
853.9359	1025.12	12130	11188.5
854.081	1027.1093	12191.45	11262.4
854.2261	1029.0979	12309.15	11384.95
854.3712	1031.0859	12358.8	11428.75
854.5163	1033.0731	12387.5	11446.25
854.6613	1035.0596	12339.5	11387.95
854.8064	1037.0454	12223.15	11272.15
854.9515	1039.0304	12114.35	11161.2
855.0965	1041.0148	11992.25	11035.2
855.2416	1042.9985	11886.2	10929.95
855.3867	1044.9814	11853.8	10898.6
855.5317	1046.9636	11839.35	10883.4
855.6768	1048.9452	11798.65	10844.95
855.8219	1050.926	11799.25	10848.8
855.9669	1052.9061	11826.65	10875.45
856.112	1054.8855	11855.4	10897.45
856.257	1056.8642	11893.3	10940.35
856.4021	1058.8421	11938.55	10974.55
856.5471	1060.8194	11970.4	11012.55
856.6921	1062.7959	12037.15	11082.75
856.8372	1064.7717	12072.55	11113.3
856.9822	1066.7469	12122.5	11164.6
857.1272	1068.7213	12182.9	11227.55
857.2723	1070.695	12228.3	11274
857.4173	1072.6679	12186.2	11229.25
857.5623	1074.6402	12183.95	11225.1
857.7073	1076.6117	12164.05	11203.05
857.8523	1078.5826	12078.25	11119.75
857.9973	1080.5527	12014.55	11054.05
858.1423	1082.5221	12015.6	11057.4
858.2873	1084.4908	12065.1	11106.95
858.4323	1086.4587	12157.1	11198.75
858.5773	1088.426	12245.5	11287.25
858.7223	1090.3925	12261.5	11299.75
858.8673	1092.3584	12259.75	11305.35
859.0123	1094.3235	12173.65	11219.35
859.1573	1096.2879	12207.15	11249.7
859.3022	1098.2515	12275.4	11322.35
859.4472	1100.2145	12405.45	11449.7
859.5922	1102.1767	12567.6	11611.7
859.7371	1104.1382	12752.65	11801.35
859.8821	1106.099	13001	12044.85
860.027	1108.0591	13217.35	12261.5
860.172	1110.0185	13343	12385.85
860.3169	1111.9771	13401.8	12449
860.4619	1113.9351	13260.75	12305.65
860.6068	1115.8923	13073.35	12118.55
860.7517	1117.8488	12861.75	11906.35
860.8967	1119.8045	12630.8	11679.5
861.0416	1121.7596	12496.2	11541.75
861.1865	1123.7139	12432.6	11478.9
861.3314	1125.6675	12406.7	11453.35
861.4763	1127.6204	12429.95	11478.95
861.6212	1129.5726	12405.95	11448.85
861.7661	1131.524	12349.2	11397.2
861.911	1133.4748	12245.3	11290.45
862.0559	1135.4248	12099.35	11145.5
862.2008	1137.3741	12029.15	11078.4
862.3457	1139.3226	11940.55	10987.65
862.4905	1141.2705	11905.9	10954.25
862.6354	1143.2176	11807.85	10850.45
862.7803	1145.164	11780.05	10822.35
862.9251	1147.1097	11742.05	10785.35
863.07	1149.0546	11667.6	10713.6
863.2148	1150.9989	11586.75	10631.95
863.3597	1152.9424	11485	10530
863.5045	1154.8852	11374.7	10419.6
863.6493	1156.8272	11319.75	10365.65
863.7942	1158.7686	11316.8	10357.7
863.939	1160.7092	11286.45	10327.85
864.0838	1162.6491	11326.3	10367.85
864.2286	1164.5883	11404.1	10449.15
864.3734	1166.5267	11501.75	10545.4
864.5182	1168.4644	11675	10722.4
864.663	1170.4014	11828.65	10873.8
864.8078	1172.3377	12090.2	11140.55
864.9526	1174.2732	12364.7	11413.95
865.0974	1176.2081	12728.15	11770.45
865.2421	1178.1421	13128.2	12172.05
865.3869	1180.0755	13532.1	12579
865.5317	1182.0082	13796.45	12844.65
865.6764	1183.9401	13905.05	12959.35
865.8212	1185.8713	13730.3	12788.5
865.9659	1187.8017	13483.85	12546.4
866.1106	1189.7315	13148.35	12219.8
866.2554	1191.6605	12797.25	11872
866.4001	1193.5888	12542.25	11607.35
866.5448	1195.5163	12413.9	11471.15
866.6895	1197.4432	12350.5	11403.3
866.8342	1199.3693	12301.25	11352.75
866.9789	1201.2947	12251.65	11296.9
867.1236	1203.2193	12228.45	11276.1
867.2683	1205.1432	12232.85	11282.8
867.413	1207.0664	12217.4	11268.05
867.5576	1208.9889	12226.9	11275.95
867.7023	1210.9106	12222.35	11274.45
867.847	1212.8316	12219.1	11274.2
867.9916	1214.7519	12269.1	11308.65
868.1363	1216.6715	12260.75	11311.35
868.2809	1218.5903	12318.45	11366.8
868.4255	1220.5084	12381.4	11433
868.5701	1222.4257	12449	11498.75
868.7148	1224.3424	12453.5	11507.3
868.8594	1226.2583	12521.8	11570.2
869.004	1228.1735	12655.35	11704.65
869.1486	1230.0879	12785.1	11836.1
869.2932	1232.0016	12898.3	11951.3
869.4377	1233.9146	12986.7	12036.75
869.5823	1235.8269	12968.15	12022.1
869.7269	1237.7384	12900.7	11950.55
869.8715	1239.6492	12739.4	11790.65
870.016	1241.5592	12669.05	11721.75
870.1606	1243.4686	12651.45	11703.55
870.3051	1245.3772	12727.9	11781.15
870.4496	1247.285	12854.15	11904.7
870.5941	1249.1922	12922.55	11973.05
870.7387	1251.0986	13047.25	12100.55
870.8832	1253.0042	13071.4	12125.15
871.0277	1254.9092	13143.65	12197.8
871.1722	1256.8134	13202.2	12259.35
871.3167	1258.7169	13358.95	12411.85
871.4611	1260.6196	13491.75	12548.45
871.6056	1262.5216	13727.75	12775.65
871.7501	1264.4229	13929.3	12981.7
871.8945	1266.3234	14100.5	13153.85
872.039	1268.2232	14233	13285
872.1834	1270.1223	14290.95	13344.8
872.3278	1272.0207	14303.2	13355.5
872.4723	1273.9183	14265.8	13311.2
872.6167	1275.8151	14182.2	13234.05
872.7611	1277.7113	14150.35	13201.55
872.9055	1279.6067	14129.45	13185.55
873.0499	1281.5014	14246.75	13296.9
873.1943	1283.3953	14475.6	13526.85
873.3386	1285.2885	14755.8	13810.1
873.483	1287.181	15073.6	14130.6
873.6274	1289.0727	15412.15	14468.35
873.7717	1290.9637	15601.05	14657.8
873.9161	1292.854	15768.75	14828.45
874.0604	1294.7435	15821.05	14875.15
874.2047	1296.6323	15812.65	14865.95
874.349	1298.5204	15827.05	14876.6
874.4933	1300.4077	15792.35	14845.5
874.6376	1302.2943	15729.6	14786
874.7819	1304.1802	15549.7	14605.25
874.9262	1306.0653	15229.75	14280.5
875.0705	1307.9497	14843.05	13897.05
875.2147	1309.8333	14532.65	13591.55
875.359	1311.7162	14305.15	13363.6
875.5032	1313.5984	14168.65	13223.2
875.6475	1315.4798	14139.3	13180.55
875.7917	1317.3605	14100.55	13142.05
875.9359	1319.2405	14073.9	13126
876.0801	1321.1197	13888.9	12938.65
876.2243	1322.9982	13657.5	12710.9
876.3685	1324.876	13449.9	12506.1
876.5127	1326.753	13252.25	12304.9
876.6569	1328.6293	13141.85	12194.5
876.801	1330.5048	13019.7	12070.65
876.9452	1332.3796	12908.4	11959.1
877.0893	1334.2537	12849.15	11879.1
877.2335	1336.127	12759.5	11815.65
877.3776	1337.9996	12740.4	11797.6
877.5217	1339.8714	12723.75	11777.55
877.6658	1341.7426	12766.85	11775.95
877.8099	1343.6129	12713.3	11766.15
877.954	1345.4826	12712.55	11767.25
878.0981	1347.3515	12729.6	11782.05
878.2422	1349.2196	12678.15	11729.8
878.3862	1351.087	12710.8	11764.45
878.5303	1352.9537	12775.45	11828.85
878.6743	1354.8197	12874.75	11925.5
878.8184	1356.6849	13044.35	12095.4
878.9624	1358.5493	13181.15	12236.05
879.1064	1360.4131	13300.45	12354
879.2504	1362.276	13374.4	12432
879.3944	1364.1383	13304.7	12359.65
879.5384	1365.9998	13091.2	12139.2
879.6823	1367.8606	12752.05	11804.25
879.8263	1369.7206	12388.35	11443.9
879.9702	1371.5799	12132.9	11185.5
880.1142	1373.4384	11875.4	10928.85
880.2581	1375.2962	11669.95	10723.7
880.402	1377.1533	11385.65	10443.35
880.5459	1379.0096	11007.6	10069.05
880.6898	1380.8652	10663.65	9727.45
880.8337	1382.7201	10404	9462.2
880.9776	1384.5742	10161.45	9217.8
881.1215	1386.4275	9978.65	9032.15
881.2653	1388.2802	9856.8	8912.65
881.4092	1390.132	9773.55	8827.75
881.553	1391.9832	9666.6	8722.4
881.6968	1393.8336	9564.3	8622.9
881.8406	1395.6832	9527.9	8581.7
881.9844	1397.5322	9470.1	8524.75
882.1282	1399.3803	9457.1	8507.65
882.272	1401.2278	9426.55	8484.1
882.4158	1403.0745	9422.7	8484.4
882.5595	1404.9204	9410.5	8471.65
882.7033	1406.7656	9433.1	8491.4
882.847	1408.6101	9432.1	8485
882.9908	1410.4538	9457.75	8515.45
883.1345	1412.2968	9527.15	8584
883.2782	1414.139	9535.75	8595.75
883.4219	1415.9805	9629.55	8690.9
883.5656	1417.8213	9686.6	8738.55
883.7092	1419.6613	9762.8	8825.2
883.8529	1421.5006	9938.9	8996.7
883.9965	1423.3391	10165.8	9223.75
884.1402	1425.1769	10449.25	9504.25
884.2838	1427.0139	10872.1	9929
884.4274	1428.8502	11433.05	10490.5
884.571	1430.6858	11995.1	11057.6
884.7146	1432.5206	12352.9	11411.45
884.8582	1434.3547	12569.65	11629.35
885.0018	1436.188	12594.4	11653.8
885.1453	1438.0206	12490.45	11548.25
885.2889	1439.8524	12360.4	11418.3
885.4324	1441.6835	12243.75	11303.9
885.5759	1443.5139	12129.25	11185.55
885.7194	1445.3435	12057.8	11118.85
885.8629	1447.1724	12042.2	11103
886.0064	1449.0005	11975.6	11038.85
886.1499	1450.8279	11906	10965.95
886.2933	1452.6545	11872.1	10935.1
886.4368	1454.4804	11881.2	10949.05
886.5802	1456.3056	11864.5	10917.1
886.7237	1458.13	11797	10864.65
886.8671	1459.9536	11588.15	10650.55
887.0105	1461.7766	11312.8	10373.55
887.1539	1463.5987	10956.8	10017.45
887.2972	1465.4202	10605.05	9666.7
887.4406	1467.2409	10265.2	9323.7
887.584	1469.0608	9978.35	9038.95
887.7273	1470.88	9717	8777.85
887.8706	1472.6984	9491.25	8554
888.0139	1474.5161	9282.55	8335.85
888.1572	1476.3331	9140.55	8203.05
888.3005	1478.1493	9024.9	8087.65
888.4438	1479.9648	8906.5	7967.1
888.5871	1481.7795	8828	7890.15
888.7303	1483.5935	8779.5	7841.3
888.8736	1485.4067	8715.05	7776.35
889.0168	1487.2192	8670.4	7730.15
889.16	1489.031	8620.8	7679.75
889.3032	1490.842	8590.1	7650.35
889.4464	1492.6522	8553.85	7617.85
889.5896	1494.4618	8506.1	7566.55
889.7327	1496.2705	8481.1	7545.85
889.8759	1498.0785	8414.9	7473.5
890.019	1499.8858	8389.75	7452.25
890.1622	1501.6924	8356.9	7419.7
890.3053	1503.4981	8323.95	7389.05
890.4484	1505.3032	8273.35	7335.55
890.5914	1507.1075	8218.35	7279.35
890.7345	1508.911	8218.9	7281.95
890.8776	1510.7138	8179.65	7243.25
891.0206	1512.5159	8100.55	7165.35
891.1637	1514.3172	8069.7	7134.75
891.3067	1516.1178	8007.9	7074.5
891.4497	1517.9176	8004.3	7065.4
891.5927	1519.7166	7942.6	7008.5
891.7357	1521.515	7926.05	6985.5
891.8786	1523.3126	7894.8	6959.9
892.0216	1525.1094	7852.65	6916.15
892.1645	1526.9055	7836.05	6902.45
892.3074	1528.7008	7813.4	6881.25
892.4503	1530.4954	7767.3	6831.45
892.5932	1532.2893	7752.55	6825.75
892.7361	1534.0824	7719.85	6785.65
892.879	1535.8747	7725.3	6796.5
893.0218	1537.6663	7706.55	6777.6
893.1647	1539.4572	7695.05	6763.45
893.3075	1541.2473	7688.2	6759.5
893.4503	1543.0367	7673.2	6743.6
893.5931	1544.8253	7684.35	6747.9
893.7359	1546.6132	7698.5	6763.6
893.8787	1548.4003	7706.55	6764.45
894.0214	1550.1867	7758.6	6822
894.1642	1551.9723	7786.3	6854.05
894.3069	1553.7572	7851.7	6926.6
894.4496	1555.5414	7938.05	7010.75
894.5923	1557.3247	8048.95	7125.9
894.735	1559.1074	8183.7	7260.9
894.8777	1560.8893	8313.25	7386.9
895.0204	1562.6705	8422.35	7498.2
895.163	1564.4509	8523.3	7598.8
895.3056	1566.2305	8555.5	7633.3
895.4482	1568.0094	8650	7730.65
895.5908	1569.7876	8649.4	7729.2
895.7334	1571.565	8633.7	7709.9
895.876	1573.3417	8596.8	7672.9
896.0186	1575.1176	8579.3	7656.55
896.1611	1576.8928	8553.65	7634.1
896.3036	1578.6672	8526.75	7612.2
896.4461	1580.4409	8490.75	7578.8
896.5886	1582.2138	8466.25	7547.85
896.7311	1583.986	8458.7	7539.05
896.8736	1585.7575	8473.65	7552.25
897.0161	1587.5282	8487.45	7571.8
897.1585	1589.2981	8541.05	7627.15
897.3009	1591.0673	8588.9	7676.7
897.4433	1592.8358	8658.55	7747.2
897.5857	1594.6035	8719.25	7800.5
897.7281	1596.3704	8797.2	7880
897.8705	1598.1366	8856.3	7937.75
898.0128	1599.9021	8951.15	8035.85
898.1551	1601.6668	9022.85	8102.05
898.2975	1603.4308	9135.25	8216.4
898.4398	1605.194	9292.05	8373.05
898.5821	1606.9564	9456.95	8550.25
898.7243	1608.7182	9665.1	8757.8
898.8666	1610.4791	9928.85	9026.55
899.0088	1612.2394	10139.1	9239
899.1511	1613.9988	10408.35	9504.75
899.2933	1615.7576	10660.35	9753.6
899.4355	1617.5156	10840.45	9919.15
899.5776	1619.2728	10970.25	10051.35
899.7198	1621.0293	10960.5	10045.8
899.862	1622.785	10817.2	9900.7
900.0041	1624.54	10594.95	9682.7
900.1462	1626.2942	10325.35	9418.1
900.2883	1628.0477	9990.35	9080.95
900.4304	1629.8005	9720.95	8807.8
900.5725	1631.5525	9430.2	8524.35
900.7145	1633.3037	9201.8	8295.35
900.8566	1635.0542	9013.3	8106.1
900.9986	1636.804	8877.45	7968.4
901.1406	1638.553	8853.65	7857.05
901.2826	1640.3013	8739.35	7829.75
901.4245	1642.0488	8718.8	7809.6
901.5665	1643.7955	8745.8	7838.9
901.7085	1645.5416	8821.25	7915.1
901.8504	1647.2868	8899.95	7992.95
901.9923	1649.0313	9026.8	8116.9
902.1342	1650.7751	9153.15	8240.45
902.2761	1652.5181	9324.1	8419.8
902.4179	1654.2604	9458.65	8551.65
902.5598	1656.0019	9719.4	8814
902.7016	1657.7427	9976.8	9070.9
902.8434	1659.4828	10231.7	9322.7
902.9852	1661.222	10416.65	9506.85
903.127	1662.9606	10375.6	9466.7
903.2687	1664.6984	10156.8	9242.1
903.4105	1666.4354	9713.95	8796.75
903.5522	1668.1717	9155.85	8244.6
903.6939	1669.9072	8610	7695.15
903.8356	1671.642	8131.45	7214.1
903.9773	1673.3761	7755.3	6846.7
904.119	1675.1094	7449.95	6541.25
904.2606	1676.8419	7195.8	6287.45
904.4022	1678.5737	7016.5	6105.6
904.5439	1680.3048	6868.8	5957.2
904.6855	1682.0351	6716.55	5803.7
904.827	1683.7646	6621.6	5710.15
904.9686	1685.4934	6525.4	5614.15
905.1101	1687.2215	6447.6	5537.5
905.2517	1688.9488	6387.15	5482.3
905.3932	1690.6754	6328.3	5422.65
905.5347	1692.4012	6289.9	5380.45
905.6761	1694.1263	6224.15	5316.35
905.8176	1695.8506	6204.2	5294.65
905.9591	1697.5742	6161	5255.85
906.1005	1699.297	6108.1	5206.05
906.2419	1701.0191	6042.6	5140.3
906.3833	1702.7404	6028.85	5126.5
906.5246	1704.461	5977.1	5070.5
906.666	1706.1808	5948.3	5042.55
906.8073	1707.8999	5901.05	4995.85
906.9487	1709.6182	5904.8	5003.9
907.09	1711.3358	5856.15	4957.45
907.2313	1713.0527	5814.95	4918.25
907.3725	1714.7688	5810.95	4903.1
907.5138	1716.4841	5779.75	4874.7
907.655	1718.1987	5773.25	4864.1
907.7962	1719.9126	5730.25	4832.65
907.9374	1721.6257	5713.25	4812.5
908.0786	1723.338	5698.05	4798.9
908.2198	1725.0496	5674.35	4773.65
908.3609	1726.7605	5671.75	4767.45
908.502	1728.4706	5638.95	4738.7
908.6431	1730.18	5608.5	4710.7
908.7842	1731.8886	5585.45	4691.2
908.9253	1733.5964	5591.45	4671.45
909.0664	1735.3036	5557.1	4653.65
909.2074	1737.0099	5550.25	4650.5
909.3484	1738.7156	5524.25	4625.6
909.4894	1740.4204	5486.05	4586
909.6304	1742.1246	5487.7	4586.45
909.7714	1743.8279	5452.25	4551.6
909.9123	1745.5306	5428.7	4532.35
910.0532	1747.2325	5396.25	4497.4
910.1941	1748.9336	5372.45	4472.6
910.335	1750.634	5355.95	4453.95
910.4759	1752.3336	5354	4453.45
910.6168	1754.0325	5325.55	4428.85
910.7576	1755.7307	5306.1	4409.2
910.8984	1757.4281	5309.05	4409.05
911.0392	1759.1247	5294.5	4384.2
911.18	1760.8206	5289.45	4383.3
911.3208	1762.5158	5265.95	4360.85
911.4615	1764.2102	5244	4343.7
911.6022	1765.9039	5233.75	4336.95
911.7429	1767.5968	5232.5	4338.35
911.8836	1769.289	5210.15	4313.95
912.0243	1770.9804	5199.25	4299.75
912.1649	1772.6711	5186.55	4283
912.3056	1774.361	5179.65	4276.55
912.4462	1776.0502	5175.55	4275
912.5868	1777.7386	5159.15	4255.8
912.7274	1779.4263	5142.05	4244.25
912.8679	1781.1132	5132.45	4237.45
913.0084	1782.7994	5123	4227
913.149	1784.4849	5098.4	4206.15
913.2895	1786.1696	5080.9	4177.75
913.4299	1787.8535	5072.9	4178.5
913.5704	1789.5367	5072.55	4178.55
913.7108	1791.2192	5058.8	4164.3
913.8513	1792.9009	5062.85	4137.8
913.9917	1794.5818	5049.35	4150.25
914.132	1796.2621	5019.05	4121.2
914.2724	1797.9415	5004	4102.3
914.4128	1799.6202	5014.6	4116.15
914.5531	1801.2982	5007.4	4108.4
914.6934	1802.9755	4966.25	4066.05
914.8337	1804.6519	4989.7	4089.9
914.9739	1806.3277	4943.45	4048.9
915.1142	1808.0027	4936.5	4043.75
915.2544	1809.6769	4933.2	4040.4
915.3946	1811.3504	4912.75	4021.1
915.5348	1813.0231	4911.5	4017.4
915.675	1814.6951	4899.65	4003.45
915.8151	1816.3664	4899.75	3999.6
915.9553	1818.0369	4890	3991.75
916.0954	1819.7067	4887.2	3990.3
916.2355	1821.3757	4872.35	3973.05
916.3755	1823.044	4849.15	3947.95
916.5156	1824.7115	4838.9	3940.55
916.6556	1826.3783	4831.2	3934.05
916.7956	1828.0443	4818.6	3921.75
916.9356	1829.7096	4814.55	3916.5
917.0756	1831.3741	4818.25	3921.05
917.2155	1833.0379	4793.6	3899.85
917.3555	1834.701	4788.05	3892.95
917.4954	1836.3633	4774.5	3883.45
917.6353	1838.0248	4742.6	3848.55
917.7751	1839.6856	4762.55	3865.9
917.915	1841.3457	4770.5	3872.9
918.0548	1843.005	4750.55	3853.25
918.1946	1844.6636	4736.15	3838
918.3344	1846.3214	4725.1	3828.45
918.4742	1847.9785	4734.95	3838.45
918.6139	1849.6349	4702.8	3803.8
918.7537	1851.2904	4713.9	3805.45
918.8934	1852.9453	4695.55	3794.45
919.0331	1854.5994	4700.5	3802
919.1727	1856.2528	4689.3	3784.1
919.3124	1857.9054	4656	3758.45
919.452	1859.5572	4656.95	3762.95
919.5916	1861.2083	4651.05	3754.9
919.7312	1862.8587	4653.1	3759.05
919.8708	1864.5084	4635.4	3734.45
920.0103	1866.1572	4630	3730.7
920.1498	1867.8054	4608.8	3709.55
920.2893	1869.4528	4613.9	3713.9
920.4288	1871.0994	4593.65	3693.75
920.5683	1872.7453	4590.75	3691.05
920.7077	1874.3905	4583.85	3679.95
920.8471	1876.0349	4558.75	3661.4
920.9865	1877.6786	4565.45	3664.75
921.1259	1879.3215	4558.65	3662.2
921.2653	1880.9637	4561.9	3664.5
921.4046	1882.6051	4543.45	3647.25
921.5439	1884.2458	4527.5	3630.7
921.6832	1885.8858	4505.15	3609.1
921.8225	1887.525	4501.35	3599.45
921.9617	1889.1634	4489.2	3591.75
922.101	1890.8011	4474.15	3575.9
922.2402	1892.4381	4469.25	3571.35
922.3794	1894.0743	4455.8	3559.15
922.5185	1895.7098	4455.2	3560.1
922.6577	1897.3446	4435.25	3537.05
922.7968	1898.9786	4444.6	3544.4
922.9359	1900.6118	4407.65	3511.2
923.075	1902.2443	4404.35	3507.65
923.214	1903.8761	4408.9	3512.7
923.3531	1905.5071	4390.45	3491.4
923.4921	1907.1374	4377.7	3483.25
923.6311	1908.7669	4377.35	3483.5
923.77	1910.3957	4347.45	3452.25
923.909	1912.0237	4339.85	3445.1
924.0479	1913.651	4321.6	3425.25
924.1868	1915.2776	4305.05	3411.8
924.3257	1916.9034	4305.25	3409.5
924.4646	1918.5285	4291.5	3397.4
924.6034	1920.1528	4278.9	3383
924.7422	1921.7764	4272.15	3376.2
924.881	1923.3992	4262.45	3367.05
925.0198	1925.0213	4242	3345.7
925.1586	1926.6427	4225.6	3330.55
925.2973	1928.2633	4396.25	3295.3
925.436	1929.8832	4243.85	3345.9
925.5747	1931.5023	4203.85	3307.55
925.7134	1933.1207	4183.85	3289.75
925.852	1934.7383	4168.65	3274.15
925.9906	1936.3552	4155.55	3261.6
926.1292	1937.9714	4144.1	3248.6
926.2678	1939.5868	4140.2	3241.8
926.4064	1941.2015	4115.55	3218.7
926.5449	1942.8154	4103.5	3205.85
926.6834	1944.4286	4093.9	3194.95
926.8219	1946.041	4112.7	3199.45
926.9604	1947.6528	4083.15	3181.65
927.0988	1949.2637	4059.3	3167.3
927.2372	1950.8739	4050.95	3156.45
927.3756	1952.4834	4052.95	3158.7
927.514	1954.0921	4042.05	3147.8
927.6523	1955.7001	4036.45	3139.7
927.7907	1957.3074	4026.4	3135.45
927.929	1958.9139	3997.3	3108.55
928.0673	1960.5197	3987.75	3096.8
928.2055	1962.1247	3968.45	3075.4
928.3438	1963.729	3956.75	3068.75
928.482	1965.3325	3945.4	3051.15
928.6202	1966.9353	3932.6	3042.95
928.7584	1968.5374	3941.25	3050
928.8965	1970.1387	3918.3	3027.2
929.0346	1971.7393	3900.75	3007.7
929.1727	1973.3392	3896.6	3004.85
929.3108	1974.9383	3882.85	2993.65
929.4489	1976.5366	3860.35	2971.05
929.5869	1978.1342	3867.2	2979.3
929.7249	1979.7311	3852.1	2962.15
929.8629	1981.3273	3852.4	2964.75
930.0009	1982.9227	3847.1	2960.55
930.1388	1984.5173	3829.15	2942.5
930.2767	1986.1112	3813.85	2927.45
930.4146	1987.7044	3826.55	2941.05
930.5525	1989.2968	3779.1	2889.65
930.6904	1990.8885	3780.95	2891
930.8282	1992.4795	3775.55	2889.2
930.966	1994.0697	3766	2882.3
931.1038	1995.6592	3767.35	2881.5
931.2415	1997.2479	3773.75	2885.65
931.3793	1998.8359	3759.6	2874.3
931.517	2000.4232	3740.85	2858.4
931.6547	2002.0097	3716.35	2834.8
931.7923	2003.5955	3705.1	2822.9
931.93	2005.1805	3711.1	2825.45
932.0676	2006.7648	3690.35	2804.8
932.2052	2008.3484	3679.65	2797.95
932.3427	2009.9312	3690.65	2807.05
932.4803	2011.5133	3662.3	2782.95
932.6178	2013.0946	3671.15	2788.8
932.7553	2014.6752	3660.4	2778.8
932.8928	2016.2551	3644.35	2757.9
933.0302	2017.8342	3637.05	2750.45
933.1676	2019.4126	3625.45	2743.85
933.305	2020.9902	3626.1	2747.3
933.4424	2022.5672	3608.5	2727.6
933.5798	2024.1433	3606.25	2719.45
933.7171	2025.7188	3585.05	2708.85
933.8544	2027.2935	3575.6	2695.7
933.9917	2028.8674	3591.75	2711.6
934.129	2030.4406	3568.4	2691.45
934.2662	2032.0131	3561.45	2685.7
934.4034	2033.5849	3553.8	2674.1
934.5406	2035.1559	3549	2667.25
934.6778	2036.7261	3543.3	2661.7
934.8149	2038.2957	3538.95	2652.05
934.952	2039.8645	3521.9	2634.4
935.0891	2041.4325	3533.9	2643.25
935.2262	2042.9998	3494.4	2613.55
935.3632	2044.5664	3504.5	2621.6
935.5002	2046.1323	3501.65	2621.15
935.6372	2047.6974	3502.4	2621.85
935.7742	2049.2617	3481.3	2600.95
935.9111	2050.8254	3505.55	2601
936.048	2052.3883	3496.2	2610.7
936.1849	2053.9504	3477.2	2590.75
936.3218	2055.5118	3466.45	2579.55
936.4586	2057.0725	3452.75	2567.45
936.5955	2058.6325	3448.9	2566
936.7323	2060.1917	3447.35	2567.2
936.869	2061.7502	3431.65	2546.15
937.0058	2063.3079	3423.15	2543.9
937.1425	2064.8649	3414.95	2530.95
937.2792	2066.4212	3407.25	2524.9
937.4159	2067.9767	3399.65	2514.8
937.5525	2069.5315	3392.55	2507.45
937.6891	2071.0856	3377.35	2494.95
937.8257	2072.6389	3364.8	2482.6
937.9623	2074.1915	3339.35	2460.6
938.0989	2075.7433	3339.9	2456.8
938.2354	2077.2945	3337.05	2454.9
938.3719	2078.8448	3342.55	2458.6
938.5084	2080.3945	3334.75	2448.65
938.6448	2081.9434	3315.45	2428.5
938.7812	2083.4916	3317.95	2431.2
938.9176	2085.039	3310.7	2418.85
939.054	2086.5857	3307.55	2414.3
939.1903	2088.1317	3308.65	2415.75
939.3267	2089.677	3295.55	2403.8
939.463	2091.2215	3289.65	2397.1
939.5992	2092.7652	3275.95	2382.75
939.7355	2094.3083	3275.5	2381.9
939.8717	2095.8506	3264.8	2375.05
940.0079	2097.3921	3273.45	2383.3
940.1441	2098.933	3256.1	2368
940.2802	2100.4731	3235.9	2349
940.4163	2102.0124	3238.8	2342.9
940.5524	2103.5511	3233.1	2344.3
940.6885	2105.089	3223.3	2335
940.8245	2106.6261	3223.75	2335.45
940.9606	2108.1626	3207.4	2319.2
941.0965	2109.6983	3233.35	2318.4
941.2325	2111.2332	3208.75	2320.05
941.3684	2112.7675	3210.4	2319.45
941.5044	2114.301	3198.55	2305.4
941.6403	2115.8337	3196.8	2306.5
941.7761	2117.3657	3184	2295.65
941.912	2118.897	3185.95	2293.1
942.0478	2120.4276	3175.65	2280.4
942.1835	2121.9575	3167.2	2275.6
942.3193	2123.4866	3163.15	2269.65
942.455	2125.0149	3154.3	2263.45
942.5907	2126.5426	3138	2252.3
942.7264	2128.0695	3112.05	2226.5
942.8621	2129.5956	3121.6	2241.9
942.9977	2131.1211	3112.05	2223.5
943.1333	2132.6458	3124.8	2238.45
943.2689	2134.1698	3114.6	2222
943.4044	2135.693	3116.3	2220.95
943.54	2137.2155	3095.65	2202.3
943.6755	2138.7373	3100.2	2211.35
943.8109	2140.2584	3086.1	2202.55
943.9464	2141.7787	3070.45	2182.4
944.0818	2143.2983	3076.6	2197.75
944.2172	2144.8171	3045.2	2163.5
944.3526	2146.3353	3060.9	2176.9
944.4879	2147.8527	3050.9	2164.95
944.6232	2149.3693	3051.9	2163.75
944.7585	2150.8853	3030.85	2137.5
944.8938	2152.4005	3031.85	2141.9
945.029	2153.9149	3026.9	2137.4
945.1642	2155.4287	3023.7	2133
945.2994	2156.9417	3015.35	2125.85
945.4346	2158.454	3013	2126.1
945.5697	2159.9655	2999.15	2115.3
945.7048	2161.4764	3000.6	2115.55
945.8399	2162.9865	2987.9	2101.05
945.9749	2164.4958	2986.1	2100.35
946.1099	2166.0045	2981.1	2093.75
946.2449	2167.5124	2974.1	2085.35
946.3799	2169.0195	2972.3	2081.15
946.5148	2170.526	2965.9	2076.65
946.6498	2172.0317	2968.65	2081.15
946.7846	2173.5367	2949.2	2057.85
946.9195	2175.0409	2944.15	2057.9
947.0543	2176.5445	2939.55	2050.8
947.1891	2178.0473	2932.2	2040.75
947.3239	2179.5494	2932.05	2038.8
947.4587	2181.0507	2924.95	2037.15
947.5934	2182.5513	2921.95	2033.05
947.7281	2184.0512	2917.05	2029.25
947.8628	2185.5504	2905.1	2016.9
947.9974	2187.0488	2893.5	2008.75
948.132	2188.5465	2880.95	1995.15
948.2666	2190.0435	2875	1988.6
948.4012	2191.5397	2875.7	1987.1
948.5357	2193.0353	2875.5	1986.35
948.6702	2194.5301	2866	1972.75
948.8047	2196.0241	2870.8	1977.05
948.9392	2197.5175	2850.4	1955.75
949.0736	2199.0101	2844.75	1948.8
949.208	2200.502	2832.35	1945.8
949.3424	2201.9931	2832.8	1948.2
949.4767	2203.4835	2831.85	1946.35
949.611	2204.9733	2827.9	1936.3
949.7453	2206.4622	2809.25	1926.4
949.8796	2207.9505	2799.1	1911.35
950.0138	2209.438	2788.85	1909.75
950.148	2210.9248	2783.45	1899.4
950.2822	2212.4109	2773.5	1885.3
950.4164	2213.8962	2770.5	1876.6
950.5505	2215.3809	2778.05	1881.15
950.6846	2216.8648	2780.8	1886.75
950.8186	2218.3479	2766.1	1866.05
950.9527	2219.8304	2754.8	1856.7
951.0867	2221.3121	2743.8	1846.95
951.2207	2222.7931	2761.8	1868.1
951.3546	2224.2733	2744.35	1853.55
951.4886	2225.7529	2726.35	1837.75
951.6225	2227.2317	2722.35	1833.85
951.7563	2228.7098	2714.5	1829.6
951.8902	2230.1872	2706.35	1821.95
952.024	2231.6638	2696.3	1811.8
952.1578	2233.1397	2704.7	1814.4
952.2916	2234.6149	2694.25	1810.6
952.4253	2236.0894	2683	1797.95
952.559	2237.5632	2682.45	1786.05
952.6927	2239.0362	2676.4	1789.15
952.8263	2240.5085	2678.75	1791.35
952.9599	2241.9801	2665	1776
953.0935	2243.4509	2661.65	1772.3
953.2271	2244.921	2651.5	1758.45
953.3606	2246.3904	2650.75	1754.4
953.4941	2247.8591	2641.05	1749.5
953.6276	2249.3271	2642.95	1753.75
953.7611	2250.7943	2626.55	1736.35
953.8945	2252.2608	2625.75	1733.35
954.0279	2253.7266	2616.75	1727.2
954.1612	2255.1917	2614.75	1727.1
954.2946	2256.656	2596.95	1707.55
954.4279	2258.1197	2591	1705.1
954.5612	2259.5826	2595.6	1707.95
954.6944	2261.0447	2594.1	1704.8
954.8276	2262.5062	2574.8	1683.15
954.9608	2263.9669	2586.8	1689.6
955.094	2265.4269	2579	1690.15
955.2271	2266.8862	2577.55	1688.8
955.3602	2268.3448	2565.15	1677.75
955.4933	2269.8026	2576.8	1691
955.6264	2271.2598	2565.55	1678.85
955.7594	2272.7162	2550.3	1664.25
955.8924	2274.1719	2550.6	1658.6
956.0253	2275.6268	2545.25	1653.5
956.1583	2277.0811	2557.8	1664.65
956.2912	2278.5346	2547.55	1658.65
956.4241	2279.9874	2540.65	1652.65
956.5569	2281.4395	2531.45	1643.4
956.6897	2282.8908	2535.25	1644.05
956.8225	2284.3414	2528.5	1638.75
956.9553	2285.7914	2505.2	1618.1
957.088	2287.2406	2506.25	1613.75
957.2207	2288.689	2516.95	1623.95
957.3534	2290.1368	2510.55	1612.75
957.486	2291.5838	2516.45	1621.15
957.6186	2293.0302	2510.8	1615.2
957.7512	2294.4758	2493.4	1598.7
957.8838	2295.9206	2480.45	1588.7
958.0163	2297.3648	2484.15	1595.45
958.1488	2298.8082	2473.75	1584.45
958.2813	2300.251	2478.25	1585.9
958.4137	2301.693	2464.5	1569.15
958.5461	2303.1343	2470.1	1577.45
958.6785	2304.5748	2459.5	1568.6
958.8108	2306.0147	2458	1570.3
958.9432	2307.4538	2453.3	1564.45
959.0754	2308.8922	2451.8	1567.65
959.2077	2310.3299	2444.75	1558.85
959.3399	2311.7669	2435.45	1549.3
959.4721	2313.2031	2434.3	1545.4
959.6043	2314.6387	2431.6	1541.3
959.7365	2316.0735	2428.6	1539.65
959.8686	2317.5076	2422.05	1532.3
960.0006	2318.941	2415.15	1521.45
960.1327	2320.3737	2407.65	1514.2
960.2647	2321.8056	2412.2	1516.75
960.3967	2323.2369	2400.75	1510
960.5287	2324.6674	2394.85	1502
960.6606	2326.0972	2387.1	1493.2
960.7925	2327.5263	2387.6	1496.1
960.9244	2328.9547	2382.55	1489.3
961.0562	2330.3823	2387.15	1492.55
961.1881	2331.8092	2387	1491.4
961.3198	2333.2355	2375.25	1481.5
961.4516	2334.661	2368.25	1474.5
961.5833	2336.0858	2357.6	1465
961.715	2337.5098	2368	1476.1
961.8467	2338.9332	2356.95	1466.65
961.9783	2340.3558	2351.7	1457.8
962.1099	2341.7778	2349.65	1459.65
962.2415	2343.199	2336.25	1447
962.373	2344.6195	2332.1	1442.1
962.5045	2346.0393	2330.25	1443
962.636	2347.4583	2334.25	1443.35
962.7675	2348.8767	2327.4	1435.1
962.8989	2350.2943	2319.3	1427.3
963.0303	2351.7113	2316.7	1422.4
963.1617	2353.1275	2320.8	1428.15
963.293	2354.543	2323.55	1421.15
963.4243	2355.9578	2315.35	1421.45
963.5556	2357.3718	2310.95	1422.4
963.6868	2358.7852	2294.3	1406.5
963.818	2360.1978	2290.6	1401.35
963.9492	2361.6098	2296.6	1410.4
964.0803	2363.021	2292.25	1398.95
964.2114	2364.4315	2287.15	1397.65
964.3425	2365.8413	2282.4	1391.55
964.4736	2367.2504	2281.35	1392.85
964.6046	2368.6587	2266.25	1380.6
964.7356	2370.0664	2259.35	1372.65
964.8666	2371.4733	2262.35	1371.95
964.9975	2372.8795	2247.95	1357.5
965.1284	2374.285	2237	1348.3
965.2593	2375.6899	2244.75	1356.15
965.3901	2377.0939	2228.85	1340.45
965.5209	2378.4973	2239.1	1351.5
965.6517	2379.9	2231	1341.95
965.7825	2381.3019	2226.05	1338.25
965.9132	2382.7032	2223.25	1337.75
966.0439	2384.1037	2210	1325.9
966.1745	2385.5035	2210.4	1324.5
966.3051	2386.9027	2207.95	1324.4
966.4357	2388.3011	2210.05	1323.1
966.5663	2389.6987	2192.7	1305.1
966.6968	2391.0957	2193.85	1304.65
966.8273	2392.492	2184	1299.5
966.9578	2393.8876	2173	1286.3
967.0882	2395.2824	2167.95	1281.2
967.2186	2396.6765	2170.9	1282.9
967.349	2398.07	2170.15	1281.8
967.4793	2399.4627	2166.4	1279.1
967.6097	2400.8547	2165.3	1276.75
967.7399	2402.246	2159.8	1264.7
967.8702	2403.6366	2158.25	1269.05
968.0004	2405.0265	2147.9	1262.5
968.1306	2406.4156	2140.65	1250
968.2607	2407.8041	2148.8	1257.8
968.3909	2409.1918	2149.8	1258.9
968.521	2410.5789	2131.2	1243.75
968.651	2411.9652	2125.35	1234.4
968.781	2413.3508	2118.2	1229.05
968.911	2414.7358	2117.85	1229.05
969.041	2416.12	2120.05	1233.05
969.1709	2417.5035	2119.4	1230.85
969.3008	2418.8863	2102.55	1213
969.4307	2420.2684	2113.55	1226.05
969.5606	2421.6497	2093.6	1204.3
969.6904	2423.0304	2083.2	1196.4
969.8201	2424.4104	2083.75	1196.7
969.9499	2425.7896	2086.1	1198
970.0796	2427.1682	2077.15	1189.3
970.2093	2428.546	2085.35	1195.65
970.3389	2429.9232	2083.1	1194.4
970.4685	2431.2996	2074.8	1186.2
970.5981	2432.6753	2072.3	1184.55
970.7277	2434.0503	2069.25	1178.4
970.8572	2435.4246	2066.45	1178.25
970.9867	2436.7982	2057.45	1164.3
971.1161	2438.1711	2046.1	1154.95
971.2456	2439.5433	2046	1155.1
971.375	2440.9148	2058.45	1162.2
971.5043	2442.2856	2038.3	1151.6
971.6336	2443.6557	2042.6	1151.6
971.7629	2445.025	2034.95	1147.25
971.8922	2446.3937	2026.35	1139.1
972.0214	2447.7617	2026.75	1137.55
972.1506	2449.1289	2015.8	1126
972.2798	2450.4955	2027.3	1134.8
972.4089	2451.8613	2020.35	1133.05
972.538	2453.2265	2020.2	1131.75
972.6671	2454.5909	2016.8	1125.65
972.7961	2455.9546	2010.1	1123.4
972.9251	2457.3177	2011.75	1124
973.0541	2458.68	1996	1107.7
973.1831	2460.0416	1999.85	1109.45
973.312	2461.4025	1995.65	1105.95
973.4408	2462.7627	2003.15	1103.95
973.5697	2464.1222	1992.05	1104.5
973.6985	2465.4811	1990.15	1103.1
973.8273	2466.8392	1983.1	1094
973.956	2468.1966	1979.65	1087.05
974.0847	2469.5533	1986.4	1097.5
974.2134	2470.9093	1984	1097.05
974.3421	2472.2645	1979.55	1088.2
974.4707	2473.6191	1974.6	1087.55
974.5993	2474.973	1974.35	1088.2
974.7278	2476.3262	1970.95	1080.6
974.8563	2477.6787	1966.45	1079.7
974.9848	2479.0305	1964.35	1075.55
975.1132	2480.3816	1959.35	1067.4
975.2417	2481.7319	1953.05	1066.1
975.37	2483.0816	1945.7	1057.2
975.4984	2484.4306	1950.15	1059.95
975.6267	2485.7789	1946.55	1058.9
975.755	2487.1264	1939.85	1053.25
975.8833	2488.4733	1932.4	1044.95
976.0115	2489.8195	1936	1041.5
976.1397	2491.165	1922.9	1031.7
976.2678	2492.5097	1919.95	1030.7
976.3959	2493.8538	1910	1023.05
976.524	2495.1972	1922.85	1035.3
976.6521	2496.5398	1916.35	1027.35
976.7801	2497.8818	1915.15	1026.05
976.9081	2499.2231	1905.75	1016.1
977.036	2500.5637	1906.55	1015.5
977.164	2501.9035	1902.95	1011.65
977.2918	2503.2427	1902.8	1010.3
977.4197	2504.5812	1883.4	991.4
977.5475	2505.919	1888.45	998.35
977.6753	2507.256	1902.15	1015.15
977.8031	2508.5924	1887.15	999.95
977.9308	2509.9281	1888.75	993.65
978.0585	2511.2631	1875.7	988.9
978.1861	2512.5974	1869.1	982.2
978.3137	2513.9309	1872.25	983.75
978.4413	2515.2638	1880.75	966.05
978.5689	2516.596	1871.15	983.9
978.6964	2517.9275	1859.25	970.2
978.8239	2519.2583	1865.15	973.45
978.9513	2520.5884	1852.2	963.8
979.0788	2521.9178	1851.95	965.35
979.2062	2523.2465	1851.75	964.85
979.3335	2524.5745	1852.3	967.85
979.4608	2525.9018	1852	963.5
979.5881	2527.2284	1842.35	956.35
979.7154	2528.5543	1847	961.15
979.8426	2529.8796	1835.35	944.85
979.9698	2531.2041	1840.8	952.45
980.0969	2532.5279	1838.6	953.5
980.224	2533.851	1832.5	944.4
980.3511	2535.1735	1836.05	948.85
980.4781	2536.4952	1832.75	942.7
980.6052	2537.8163	1834.35	944.25
980.7321	2539.1366	1827.65	939.8
980.8591	2540.4562	1829.4	937.95
980.986	2541.7752	1816.95	928.75
981.1129	2543.0935	1825	933.95
981.2397	2544.411	1818.35	928
981.3665	2545.7279	1816.6	928.45
981.4933	2547.0441	1808.45	921.15
981.62	2548.3596	1812.3	920.7
981.7467	2549.6744	1818.65	928.65
981.8734	2550.9885	1817.25	924.9
982.0001	2552.3019	1807.2	917.95
982.1267	2553.6146	1808.2	919.3
982.2532	2554.9266	1800.05	911.2
982.3798	2556.2379	1805.35	913.95
982.5063	2557.5485	1792.15	905.15
982.6327	2558.8585	1802.8	909.25
982.7592	2560.1677	1790.35	897.4
982.8856	2561.4762	1791.1	902.65
983.0119	2562.7841	1798.15	903.75
983.1383	2564.0913	1790.55	903.95
983.2646	2565.3977	1781.95	893.1
983.3908	2566.7035	1783.4	892.35
983.517	2568.0086	1779.65	889.9
983.6432	2569.313	1783.5	893.1
983.7694	2570.6167	1778.2	883.55
983.8955	2571.9197	1782.4	894.95
984.0216	2573.222	1775.3	883.1
984.1476	2574.5236	1775.4	885.75
984.2737	2575.8246	1765.9	875.1
984.3996	2577.1248	1773.15	883.05
984.5256	2578.4244	1764.65	877.85
984.6515	2579.7232	1762.9	871.65
984.7774	2581.0214	1786.05	866.85
984.9032	2582.3189	1759.45	870.3
985.029	2583.6157	1765.15	872.25
985.1548	2584.9118	1764.5	875.8
985.2806	2586.2072	1763.25	877.65
985.4063	2587.5019	1761.4	872.1
985.5319	2588.7959	1765	874.05
985.6576	2590.0893	1769.55	878.6
985.7832	2591.3819	1757.45	868.3
985.9087	2592.6739	1762	873.7
986.0343	2593.9652	1758.3	868.95
986.1597	2595.2557	1762.2	873.7
986.2852	2596.5456	1763.25	871.25
986.4106	2597.8348	1749.75	863.45
986.536	2599.1234	1747	857.4
986.6614	2600.4112	1755.2	868.95
986.7867	2601.6983	1748.15	856.9
986.912	2602.9848	1751.6	861.05
987.0372	2604.2705	1753.35	858.15
987.1624	2605.5556	1749.3	859.4
987.2876	2606.84	1747.65	861.45
987.4128	2608.1237	1735.35	848.1
987.5379	2609.4067	1744.35	856.4
987.6629	2610.689	1744.05	848.45
987.788	2611.9707	1735.65	843.55
987.913	2613.2516	1735.65	842.35
988.0379	2614.5319	1717.9	830.65
988.1629	2615.8115	1717.4	828.85
988.2878	2617.0903	1715.8	827.45
988.4126	2618.3685	1710.3	821.55
988.5375	2619.6461	1714.9	828.45
988.6622	2620.9229	1721.5	833.7
988.787	2622.199	1703.65	815.25
988.9117	2623.4745	1711.65	823
989.0364	2624.7493	1707.35	821.7
989.161	2626.0234	1692.55	804.75
989.2857	2627.2968	1701.75	814.7
989.4102	2628.5695	1705.7	816.45
989.5348	2629.8415	1688.75	802.4
989.6593	2631.1128	1690.95	804.4
989.7837	2632.3835	1695.4	808.35
989.9082	2633.6535	1686.6	800.4
990.0326	2634.9228	1681.6	796.45
990.1569	2636.1914	1690.35	802.5
990.2812	2637.4593	1677.65	789.2
990.4055	2638.7265	1680.5	792.8
990.5298	2639.9931	1671.95	785.35
990.654	2641.259	1664.2	775.4
990.7782	2642.5242	1674.15	785.85
990.9023	2643.7887	1665.45	777.65
991.0264	2645.0525	1665.4	777.85
991.1505	2646.3156	1663.2	777.8
991.2745	2647.5781	1656.25	767.15
991.3985	2648.8398	1656.5	772.4
991.5225	2650.1009	1698.7	774.75
991.6464	2651.3613	1655.05	768
991.7703	2652.6211	1655.55	768.75
991.8942	2653.8801	1654.2	767.55
992.018	2655.1385	1663.3	773.95
992.1418	2656.3961	1648.5	760.8
992.2655	2657.6531	1651.8	766.55
992.3892	2658.9094	1646.55	760.3
992.5129	2660.1651	1658.75	773.8
992.6366	2661.42	1650.45	764.9
992.7602	2662.6743	1652.6	765.65
992.8837	2663.9279	1649.55	762.8
993.0073	2665.1808	1640.95	754.2
993.1307	2666.433	1653	766
993.2542	2667.6846	1648.2	763.15
993.3776	2668.9354	1651.95	760.35
993.501	2670.1856	1648.7	761.45
993.6244	2671.4351	1659.15	773.8
993.7477	2672.6839	1655.2	764.3
993.8709	2673.9321	1647.85	760.85
993.9942	2675.1795	1658.95	772.45
994.1174	2676.4263	1656.8	773
994.2405	2677.6724	1658.9	776.95
994.3637	2678.9179	1656.65	769.75
994.4868	2680.1626	1656.55	773.7
994.6098	2681.4067	1656.45	770.75
994.7328	2682.6501	1649.55	762.7
994.8558	2683.8928	1651.45	765.25
994.9788	2685.1348	1649.35	765.15
995.1017	2686.3761	1640.55	753.3
995.2245	2687.6168	1636.85	749.25
995.3474	2688.8568	1638.1	751.7
995.4702	2690.0961	1627.5	741.55
995.5929	2691.3348	1623.15	735.55
995.7156	2692.5727	1625.5	738.45
995.8383	2693.81	1613.5	727.7
995.961	2695.0466	1615.85	733.4
996.0836	2696.2826	1615.65	729.5
996.2062	2697.5178	1633.25	726.45
996.3287	2698.7524	1619.2	732.45
996.4512	2699.9863	1623.6	736.5
996.5737	2701.2195	1621.55	736.25
996.6961	2702.452	1622.1	732.75
996.8185	2703.6839	1623.2	737.95
996.9408	2704.9151	1630.5	743.2
997.0631	2706.1456	1624.4	740.25
997.1854	2707.3755	1635.6	750.6
997.3077	2708.6046	1645.7	756.2
997.4299	2709.8331	1655.75	766.9
997.552	2711.0609	1653.85	767.95
997.6742	2712.2881	1659.1	771.5
997.7963	2713.5145	1661.95	772.9
997.9183	2714.7403	1685.05	798.95
998.0403	2715.9654	1686.4	800.75
998.1623	2717.1899	1695	795.2
998.2842	2718.4136	1705.45	819.7
998.4062	2719.6367	1710.55	825.35
998.528	2720.8591	1733.15	842.05
998.6498	2722.0809	1723.9	838.5
998.7716	2723.3019	1739.6	852.7
998.8934	2724.5223	1743.75	857.65
999.0151	2725.7421	1760	873.4
999.1368	2726.9611	1764.65	878.05
999.2584	2728.1795	1757.1	867.85
999.38	2729.3972	1736.2	854.1
999.5016	2730.6142	1742	843.7
999.6231	2731.8306	1715.75	829
999.7446	2733.0462	1703.7	815.65
999.8661	2734.2612	1682.6	794.6
999.9875	2735.4756	1669.1	782
1000.1089	2736.6892	1649.6	764.25
1000.2302	2737.9022	1632.75	748.35
1000.3515	2739.1145	1628.35	743.55
1000.4728	2740.3262	1623.95	730.9
1000.594	2741.5372	1601.15	716.3
1000.7152	2742.7475	1590.5	705.5
1000.8363	2743.9571	1582.7	697.65
1000.9575	2745.1661	1581.7	692.9
1001.0785	2746.3744	1561.3	675
1001.1996	2747.582	1549.35	664.5
1001.3206	2748.7889	1541.25	654.45
1001.4415	2749.9952	1541.85	657.25
1001.5625	2751.2008	1537.4	650.5
1001.6833	2752.4057	1527.95	641.75
1001.8042	2753.61	1529.55	643.4
1001.925	2754.8136	1528.5	636.95
1002.0458	2756.0165	1517.15	633.15
1002.1665	2757.2188	1521.35	638.75
1002.2872	2758.4204	1519.75	635.05
1002.4078	2759.6213	1517.1	630
1002.5285	2760.8215	1527.55	639.5
1002.649	2762.0211	1522.9	634.2
1002.7696	2763.22	1508.3	621.9
1002.8901	2764.4182	1513.25	627.25
1003.0106	2765.6158	1505.6	620
1003.131	2766.8127	1503.15	618.75
1003.2514	2768.009	1502.1	618
1003.3717	2769.2045	1497.65	613.25
1003.492	2770.3994	1501.75	613.75
1003.6123	2771.5936	1496.65	610.4
1003.7325	2772.7872	1477.55	593.75
1003.8527	2773.9801	1478.9	594.95
1003.9729	2775.1723	1500.1	600.45
1004.093	2776.3639	1486.65	604.1
1004.2131	2777.5548	1479	593.65
1004.3331	2778.745	1483.35	601.65
1004.4531	2779.9346	1479.9	596.65
1004.5731	2781.1235	1480.55	594.7
1004.693	2782.3117	1477.95	595.9
1004.8129	2783.4992	1484.25	601.75
1004.9328	2784.6861	1487.8	604.4
1005.0526	2785.8723	1484.75	600.05
1005.1723	2787.0579	1497.3	610.8
1005.2921	2788.2428	1497.9	613.05
1005.4118	2789.427	1503.9	621.9
1005.5314	2790.6106	1511.05	627.7
1005.651	2791.7935	1512.1	627.35
1005.7706	2792.9757	1520.75	636.95
1005.8902	2794.1573	1539.85	651.9
1006.0097	2795.3382	1538.35	655.05
1006.1291	2796.5184	1554.5	672.7
1006.2485	2797.698	1575.9	691.5
1006.3679	2798.8769	1576.5	693.8
1006.4873	2800.0551	1585.95	703.2
1006.6066	2801.2327	1599.25	713.85
1006.7258	2802.4096	1616.6	733.2
1006.8451	2803.5859	1621.65	738.3
1006.9642	2804.7615	1647.85	765.2
1007.0834	2805.9364	1663.05	778.95
1007.2025	2807.1106	1686.7	804.95
1007.3216	2808.2842	1718.8	834.95
1007.4406	2809.4572	1739.7	854.35
1007.5596	2810.6294	1772.9	891
1007.6785	2811.801	1807.7	925
1007.7975	2812.972	1843	961.5
1007.9163	2814.1423	1882.6	999.8
1008.0352	2815.3119	1929.15	1046.3
1008.154	2816.4808	1974.05	1093.05
1008.2727	2817.6491	2014.1	1132.15
1008.3914	2818.8167	2066.7	1185.25
1008.5101	2819.9837	2116.3	1228.35
1008.6288	2821.15	2169.85	1286.75
1008.7474	2822.3157	2229.55	1349.2
1008.8659	2823.4807	2265.65	1380.9
1008.9844	2824.645	2322.55	1439.85
1009.1029	2825.8086	2375.4	1493.45
1009.2214	2826.9716	2428.25	1548.2
1009.3398	2828.134	2488.35	1606.3
1009.4581	2829.2957	2525.85	1640.75
1009.5764	2830.4567	2551.75	1668.2
1009.6947	2831.617	2585.4	1702.45
1009.813	2832.7767	2591.4	1711
1009.9312	2833.9358	2590.55	1708.8
1010.0493	2835.0941	2586.4	1700.25
1010.1675	2836.2519	2564.1	1681.2
1010.2855	2837.4089	2546.75	1665.15
1010.4036	2838.5653	2538.35	1657.05
1010.5216	2839.7211	2521.7	1641.9
1010.6396	2840.8761	2538.85	1654.2
1010.7575	2842.0306	2542.7	1660.8
1010.8754	2843.1843	2565.7	1682.95
1010.9932	2844.3374	2606.4	1725.5
1011.111	2845.4899	2661.45	1777.05
1011.2288	2846.6417	2709.5	1829.5
1011.3465	2847.7928	2756.1	1876.1
1011.4642	2848.9433	2826.35	1944.3
1011.5818	2850.0931	2900.3	2018.9
1011.6995	2851.2422	2976.2	2091.7
1011.817	2852.3907	3035.1	2152.4
1011.9345	2853.5385	3088.45	2204.45
1012.052	2854.6857	3157.75	2263.85
1012.1695	2855.8323	3194.25	2312.35
1012.2869	2856.9781	3218.5	2336.4
1012.4042	2858.1233	3288.95	2407.45
1012.5216	2859.2679	3328.55	2448.4
1012.6389	2860.4118	3393.65	2513.3
1012.7561	2861.555	3430.9	2543.65
1012.8733	2862.6976	3461.85	2577.1
1012.9905	2863.8395	3483.25	2600.7
1013.1076	2864.9808	3517.65	2636.85
1013.2247	2866.1214	3524.55	2641.15
1013.3417	2867.2614	3541.1	2658.95
1013.4587	2868.4007	3567.25	2684.6
1013.5757	2869.5393	3584.2	2699.65
1013.6926	2870.6773	3614.25	2730.45
1013.8095	2871.8146	3606.3	2717.9
1013.9263	2872.9513	3617.85	2732.75
1014.0431	2874.0874	3598.8	2717.75
1014.1599	2875.2227	3584.2	2700
1014.2766	2876.3574	3583.6	2704.9
1014.3933	2877.4915	3560.85	2679.4
1014.51	2878.6249	3521.2	2638.55
1014.6266	2879.7577	3504.15	2622.4
1014.7431	2880.8898	3483.65	2591.6
1014.8596	2882.0212	3454.35	2575.45
1014.9761	2883.152	3448.15	2568.25
1015.0925	2884.2821	3445.85	2566.05
1015.2089	2885.4116	3424.7	2544.05
1015.3253	2886.5405	3428.05	2545.1
1015.4416	2887.6686	3464.1	2580.25
1015.5579	2888.7962	3447.15	2566.5
1015.6741	2889.923	3468.7	2587.85
1015.7903	2891.0493	3458.35	2579.65
1015.9065	2892.1748	3468.95	2586.55
1016.0226	2893.2997	3480.2	2599.8
1016.1387	2894.424	3507.7	2627.4
1016.2547	2895.5476	3517.25	2637.45
1016.3707	2896.6706	3545.25	2667.1
1016.4866	2897.7929	3545.35	2662.7
1016.6025	2898.9145	3589.95	2711.2
1016.7184	2900.0355	3604.4	2723.6
1016.8342	2901.1559	3652.8	2772.3
1016.95	2902.2756	3662.55	2783.95
1017.0658	2903.3946	3708.9	2824.9
1017.1815	2904.513	3735	2852.1
1017.2971	2905.6308	3758.05	2878
1017.4127	2906.7479	3777.95	2895.8
1017.5283	2907.8643	3811.8	2928.1
1017.6439	2908.9801	3806.5	2926.35
1017.7594	2910.0953	3810.3	2929.9
1017.8748	2911.2098	3815.65	2930.45
1017.9902	2912.3236	3811.3	2922.75
1018.1056	2913.4368	3802.85	2921.15
1018.2209	2914.5494	3778.55	2899.9
1018.3362	2915.6613	3751.75	2864.3
1018.4515	2916.7725	3717.2	2832.85
1018.5667	2917.8831	3693.6	2810.35
1018.6819	2918.9931	3670	2786.25
1018.797	2920.1024	3639.35	2758.8
1018.9121	2921.211	3606.8	2727.35
1019.0271	2922.319	3590.65	2710.35
1019.1421	2923.4264	3581.45	2702.2
1019.2571	2924.5331	3564.6	2685.95
1019.372	2925.6391	3556.2	2674.85
1019.4869	2926.7445	3566.2	2687.95
1019.6017	2927.8493	3563.65	2683
1019.7165	2928.9534	3573.7	2690.75
1019.8313	2930.0569	3557.1	2673.8
1019.946	2931.1597	3566.5	2685.75
1020.0606	2932.2619	3567.4	2688.25
1020.1753	2933.3634	3558.1	2678.5
1020.2899	2934.4643	3559.2	2672.75
1020.4044	2935.5645	3539.1	2651.8
1020.5189	2936.6641	3529.8	2647.45
1020.6334	2937.763	3484.55	2606.4
1020.7478	2938.8613	3446.2	2566.8
1020.8622	2939.959	3401.65	2514.4
1020.9765	2941.056	3335.15	2454.4
1021.0908	2942.1523	3251	2369.45
1021.2051	2943.248	3188.25	2306.45
1021.3193	2944.3431	3096.3	2218.7
1021.4334	2945.4375	2990.95	2109.35
1021.5476	2946.5313	2903.65	2026.15
1021.6617	2947.6244	2795.3	1915.2
1021.7757	2948.7169	2697.25	1816.25
1021.8897	2949.8087	2609.95	1730.75
1022.0037	2950.8999	2521.5	1642.7
1022.1176	2951.9904	2445.3	1566.4
1022.2315	2953.0803	2380.1	1497.85
1022.3453	2954.1696	2323.7	1442.75
1022.4591	2955.2582	2260.95	1384.9
1022.5728	2956.3462	2203.8	1322.95
1022.6865	2957.4335	2189.25	1306.85
1022.8002	2958.5202	2143.7	1260.85
1022.9138	2959.6062	2115.5	1234.65
1023.0274	2960.6916	2098.15	1218.7
1023.141	2961.7764	2074.8	1193.75
1023.2545	2962.8605	2062.35	1183.15
1023.3679	2963.9439	2048.7	1170.9
1023.4813	2965.0267	2032.6	1151.8
1023.5947	2966.1089	2053.1	1147.2
1023.708	2967.1905	2008.15	1130.8
1023.8213	2968.2714	2017.6	1139.95
1023.9346	2969.3516	2011.95	1131.6
1024.0478	2970.4312	2014.3	1129.3
1024.1609	2971.5102	2012.1	1131.8
1024.274	2972.5885	2028.25	1147.45
1024.3871	2973.6662	2025.25	1141.65
1024.5002	2974.7432	2009.8	1130.6
1024.6132	2975.8196	2016.1	1136.55
1024.7261	2976.8954	2008.5	1129.15
1024.839	2977.9705	1999.3	1120.45
1024.9519	2979.045	1996.35	1119.25
1025.0647	2980.1188	1973.75	1093.4
1025.1775	2981.192	1948.95	1071.95
1025.2902	2982.2645	1940.3	1060.2
1025.4029	2983.3364	1908.25	1028.1
1025.5156	2984.4077	1874.75	994.55
1025.6282	2985.4783	1864.05	979.9
1025.7407	2986.5483	1826.65	949
1025.8532	2987.6177	1794.35	915.25
1025.9657	2988.6864	1759.4	879.5
1026.0782	2989.7545	1733.85	851.1
1026.1906	2990.8219	1688.75	810.55
1026.3029	2991.8887	1671.45	789.5
1026.4152	2992.9548	1634.8	753.4
1026.5275	2994.0204	1602.35	723.5
1026.6397	2995.0852	1576.25	698.25
1026.7519	2996.1495	1556.1	676
1026.864	2997.2131	1523.3	643.8
1026.9761	2998.276	1515.2	638
1027.0882	2999.3383	1476.4	595.15
1027.2002	3000.4	1474.3	594.2
1027.3122	3001.4611	1438.95	560
1027.4241	3002.5215	1433.4	556.8
1027.536	3003.5812	1417.15	538.2
1027.6478	3004.6404	1406.15	527.3
1027.7596	3005.6989	1396.65	517
1027.8714	3006.7567	1382.7	504.5
1027.9831	3007.8139	1400.35	493.75
1028.0947	3008.8705	1356.5	478.05
1028.2064	3009.9264	1358.8	477.8
1028.3179	3010.9818	1342.5	463.45
1028.4295	3012.0364	1340.5	461.35
1028.541	3013.0905	1334.45	456.05
1028.6524	3014.1439	1333.15	456
1028.7638	3015.1966	1325.25	448.7
1028.8752	3016.2487	1327.4	448.85
1028.9865	3017.3002	1327.3	440.7
1029.0978	3018.3511	1320.45	442.6
1029.209	3019.4013	1317.7	438.3
1029.3202	3020.4509	1313.55	436.2
1029.4314	3021.4998	1320.7	439.1
1029.5425	3022.5481	1312.5	434.65
1029.6535	3023.5958	1312.7	434.5
1029.7645	3024.6428	1319.45	441.55
1029.8755	3025.6892	1314.6	436.65
1029.9864	3026.735	1308.75	430.8
1030.0973	3027.7802	1316.3	437.85
1030.2082	3028.8247	1313.65	436.95
1030.319	3029.8685	1309.05	430.85
1030.4297	3030.9118	1314.3	435.6
1030.5404	3031.9544	1317.3	441.9
1030.6511	3032.9963	1323.7	446.4
1030.7617	3034.0376	1321.2	443.1
1030.8723	3035.0783	1324.6	442.65
1030.9829	3036.1184	1330.3	450.05
1031.0934	3037.1578	1332.1	455.2
1031.2038	3038.1966	1327.2	447.3
1031.3142	3039.2348	1324.45	446
1031.4246	3040.2723	1342.8	453.8
1031.5349	3041.3092	1330.15	453.25
1031.6452	3042.3455	1333.55	455.8
1031.7554	3043.3811	1329.45	448.75
1031.8656	3044.4161	1323.9	444.65
1031.9758	3045.4505	1325.95	448.75
1032.0859	3046.4842	1319.05	439.4
1032.1959	3047.5173	1312.1	435.95
1032.3059	3048.5498	1311.35	433.4
1032.4159	3049.5816	1306.35	427.3
1032.5258	3050.6128	1304.5	425.7
1032.6357	3051.6434	1301.8	422.05
1032.7455	3052.6734	1297.1	417.15
1032.8553	3053.7027	1298.8	420.2
1032.9651	3054.7314	1287.15	409.45
1033.0748	3055.7594	1278.15	399.65
1033.1845	3056.7868	1282.8	402.45
1033.2941	3057.8136	1275.7	399.2
1033.4037	3058.8398	1269.05	392.15
1033.5132	3059.8653	1272.95	394.1
1033.6227	3060.8902	1270.95	391.9
1033.7321	3061.9145	1266.55	388.4
1033.8415	3062.9381	1259.85	382.35
1033.9509	3063.9612	1271.3	377.75
1034.0602	3064.9835	1254.05	377.8
1034.1694	3066.0053	1245.15	366.2
1034.2787	3067.0264	1238.15	362.85
1034.3878	3068.0469	1240.65	361.95
1034.497	3069.0668	1232.15	351.85
1034.6061	3070.086	1225.2	348
1034.7151	3071.1046	1225.65	345.85
1034.8241	3072.1226	1211.85	332.25
1034.9331	3073.1399	1206.85	329.8
1035.042	3074.1567	1193.85	314.05
1035.1508	3075.1727	1196.5	316.9
1035.2597	3076.1882	1181.6	303.5
1035.3684	3077.203	1179.95	303.3
1035.4772	3078.2173	1171.25	291.7
1035.5859	3079.2308	1171.8	291.4
1035.6945	3080.2438	1161.15	281.85
1035.8031	3081.2561	1149.3	273.15
1035.9117	3082.2678	1139.6	261
1036.0202	3083.2789	1139.3	261.15
1036.1286	3084.2893	1129.35	250.8
1036.2371	3085.2991	1127.4	251.75
1036.3454	3086.3083	1126.35	245.25
1036.4538	3087.3169	1123.35	243.4
1036.562	3088.3248	1116.85	237.65
1036.6703	3089.3321	1103.2	223.65
1036.7785	3090.3388	1109.25	233
1036.8866	3091.3449	1100.45	224.6
1036.9948	3092.3503	1100.8	221.35
1037.1028	3093.3551	1093.75	218.6
1037.2108	3094.3593	1090.6	212.55
1037.3188	3095.3629	1087.7	211.65
1037.4267	3096.3658	1084.45	205.35
1037.5346	3097.3681	1085.25	206.85
1037.6425	3098.3698	1077.45	198.4
1037.7503	3099.3708	1080.1	196.85
1037.858	3100.3713	1076.8	201.2
1037.9657	3101.3711	1072.2	194.8
1038.0734	3102.3702	1208.25	190.2
1038.181	3103.3688	1074.65	195.3
1038.2886	3104.3667	1067.25	190.1
1038.3961	3105.364	1061.75	185.6
1038.5036	3106.3607	1059.75	181.5
1038.611	3107.3568	1061.15	183.9
1038.7184	3108.3522	1053.75	177.35
1038.8257	3109.347	1054.4	177.1
1038.933	3110.3412	1058.95	177.85
1039.0403	3111.3348	1050.85	175.2
1039.1475	3112.3277	1044.85	167.45
1039.2547	3113.32	1045.05	169.7
1039.3618	3114.3117	1041.55	163.35
1039.4689	3115.3028	1046	167.65
1039.5759	3116.2932	1045.6	166.1
1039.6829	3117.2831	1047.1	164.25
1039.7898	3118.2723	1040.65	161.4
1039.8967	3119.2608	1038.55	161.65
1040.0035	3120.2488	1038.1	160.1
1040.1103	3121.2361	1035.9	158.6
1040.2171	3122.2229	1031.4	155.75
1040.3238	3123.209	1034.1	156.3
1040.4305	3124.1944	1031.6	155.7
1040.5371	3125.1793	1031.05	153.75
1040.6437	3126.1635	1025.05	148.35
1040.7502	3127.1471	1025.05	148.15
1040.8567	3128.1301	1024.7	149.85
1040.9631	3129.1125	1022.9	145.2
1041.0695	3130.0942	1022.8	146.4
1041.1759	3131.0753	1028.7	140.6
1041.2822	3132.0558	1017.9	139
1041.3884	3133.0357	1019.7	142.15
1041.4946	3134.015	1021.05	141.5
1041.6008	3134.9936	1015.55	135.4
1041.7069	3135.9716	1033.15	137.6
1041.813	3136.949	1014.25	138.4
1041.919	3137.9258	1030.55	136.95
1042.025	3138.902	1017.15	135.6
1042.1309	3139.8775	1009.15	131.9
1042.2368	3140.8524	1010.8	132.7
1042.3427	3141.8267	1008.2	130.5
1042.4485	3142.8004	1008.6	129.8
1042.5542	3143.7735	1013.6	132.4
1042.6599	3144.7459	1009.75	131.4
1042.7656	3145.7178	1005.35	129.25
1042.8712	3146.689	1001.3	126.3
1042.9768	3147.6596	1004.2	126.65
1043.0823	3148.6295	1003.9	126.5
1043.1878	3149.5989	1003.9	127.6
1043.2932	3150.5676	999.6	122.6
1043.3986	3151.5357	996.05	122.1
1043.5039	3152.5032	996.6	121.2
1043.6092	3153.4701	995.45	118.65
1043.7145	3154.4364	1001.95	123.6
1043.8197	3155.402	990.15	114.4
1043.9248	3156.367	991.35	113
1044.03	3157.3315	1025.8	120.4
1044.135	3158.2952	993.65	116.35
1044.24	3159.2584	992.15	116.8
1044.345	3160.221	996.15	119.25
1044.4499	3161.1829	985.2	109.1
1044.5548	3162.1442	988.9	113.1
1044.6596	3163.105	987.1	112.4
1044.7644	3164.065	985.45	107.35
1044.8692	3165.0245	987.1	107.05
1044.9739	3165.9834	980.8	108.05
1045.0785	3166.9416	985	108.6
1045.1831	3167.8993	987.3	111.35
1045.2877	3168.8563	987.1	110.8
1045.3922	3169.8127	980.85	104.7
1045.4966	3170.7684	978.5	103.85
1045.6011	3171.7236	982.65	103
1045.7054	3172.6782	980.65	105.1
1045.8098	3173.6321	979.1	101.75
1045.914	3174.5854	984.25	104.6
1046.0183	3175.5381	979.15	103.3
1046.1224	3176.4902	977.85	102.85
1046.2266	3177.4417	976.55	102.25
1046.3307	3178.3926	976.55	100.1
1046.4347	3179.3428	976.8	102.15
1046.5387	3180.2924	970.8	94.9
1046.6427	3181.2415	973.1	96.9
1046.7466	3182.1899	978.35	101.8
1046.8504	3183.1377	975.5	101.4
1046.9542	3184.0848	974.9	95.7
1047.058	3185.0314	971.6	95.3
1047.1617	3185.9773	973.9	96.4
1047.2654	3186.9227	971.3	97.1
1047.369	3187.8674	970.45	92.15
1047.4726	3188.8115	971.25	90.7
1047.5761	3189.755	970.25	94.8
1047.6796	3190.6979	969.15	92.9
1047.783	3191.6402	967.9	93.85
1047.8864	3192.5818	968.55	92.05
1047.9898	3193.5229	985.3	89.25
1048.0931	3194.4633	969	93.25
1048.1963	3195.4031	967.95	90.95
1048.2995	3196.3423	964.45	88.4
1048.4027	3197.2809	967.2	92.7
1048.5058	3198.2189	963.7	89.2
1048.6089	3199.1563	969.2	85.75
1048.7119	3200.0931	961.7	87.75
1048.8148	3201.0292	961.85	87.4
1048.9178	3201.9648	962.35	87.05
1049.0206	3202.8997	960.65	81.65
1049.1235	3203.834	961.3	86
1049.2262	3204.7677	962.1	87.05
1049.329	3205.7008	965.7	88.9
1049.4317	3206.6333	955.6	80.45
1049.5343	3207.5652	961.4	84
1049.6369	3208.4964	960.75	85.7
1049.7394	3209.4271	956.85	82.3
1049.8419	3210.3571	956.2	81.6
1049.9444	3211.2865	955.9	80.45
1050.0468	3212.2154	959.7	82.95
1050.1491	3213.1436	958	80.45
1050.2514	3214.0712	963.7	81.05
1050.3537	3214.9982	957.85	84
1050.4559	3215.9246	954.2	78.3
1050.5581	3216.8503	955.2	80.2
1050.6602	3217.7755	954	78.4
1050.7623	3218.7001	951.4	76.25
1050.8643	3219.624	952.95	79.1
1050.9663	3220.5473	952.45	77.7
1051.0682	3221.4701	954.8	78.35
1051.1701	3222.3922	954.75	78.05
1051.2719	3223.3137	953.05	79.05
1051.3737	3224.2346	947.45	70.3
1051.4754	3225.1549	949.55	76
1051.5771	3226.0746	950.45	74.85
1051.6788	3226.9937	951.85	76.35
1051.7804	3227.9121	946.15	69.9
1051.8819	3228.83	950.1	75.45
1051.9834	3229.7473	949.75	75.8
1052.0849	3230.6639	947.4	71.05
1052.1863	3231.5799	949.4	74.05
1052.2876	3232.4954	946.35	73
1052.3889	3233.4102	947.4	72.95
1052.4902	3234.3244	948.65	73.6
1052.5914	3235.238	945.4	69.6
1052.6926	3236.151	970	71.4
1052.7937	3237.0634	946.3	72.45
1052.8948	3237.9752	946.2	69.3
1052.9958	3238.8864	946.75	71.65
1053.0968	3239.797	943.75	68.6
1053.1977	3240.7069	941.4	65.4
1053.2986	3241.6163	946.35	71.3
1053.3994	3242.5251	942.2	66.9
1053.5002	3243.4332	940.45	65.6
1053.6009	3244.3408	940.3	65.9
1053.7016	3245.2477	940.65	64.85
1053.8022	3246.154	939.25	65.15
1053.9028	3247.0598	939.25	62.5
1054.0034	3247.9649	940.45	66.9
1054.1039	3248.8694	940.35	64.75
1054.2043	3249.7733	935.7	61.55
1054.3047	3250.6766	937.2	62.5
1054.4051	3251.5793	938.9	62.9
1054.5054	3252.4814	934.5	59.35
1054.6056	3253.3829	934.55	56.9
1054.7058	3254.2838	934.15	59.6
1054.806	3255.1841	938.25	65.5
1054.9061	3256.0838	932.55	58.6
1055.0061	3256.9829	933.5	59.2
1055.1062	3257.8814	933.45	56
1055.2061	3258.7792	936.75	59.4
1055.306	3259.6765	933.4	56.85
1055.4059	3260.5731	930.9	55.2
1055.5057	3261.4692	929.05	53
1055.6055	3262.3647	929.6	54.9
1055.7052	3263.2595	928.05	54.4
1055.8049	3264.1538	926.7	52.6
1055.9045	3265.0474	928.2	52.6
1056.0041	3265.9404	926.1	52.25
1056.1036	3266.8329	927.1	51.75
1056.2031	3267.7247	934.85	49.15
1056.3025	3268.616	925.9	53.5
1056.4019	3269.5066	922.05	46.65
1056.5013	3270.3966	921.45	46.55
1056.6005	3271.286	918.15	46.25
