Software Version:	3.9.2.0
Unit SN:	10000200
Spectrometer SN:	6960
Date:	3/8/2024 12:36:05 PM
Data Line Index:	25
Spectral Points:	2048
Integration time (ms):	125
Averages:	20
Delay (ms):	30000
Sequence Number:	1
Processing:	dark subtract
Laser Power (mW):	305
Laser Current (mA):	822
Laser Diode Temp (C):	25
Laser Case Temp (C):	26
System Temp (C):	26
Spectrometer Temp (C):	23.9
CCD Temp (C):	0.005
Secondary Temp (C):	20.007
Heatsink Temp (C):	20.532
CCDPCB Temp (C):	35.64
SecondaryPCB Temp (C):	28.837

Wavelength	RamanShift	Raw Counts	Dark Subtracted
787.061	30.1047	450.3	40.7
787.2016	32.3739	450.75	44.15
787.3422	34.6426	453.85	44.85
787.4828	36.9109	458.7	49.45
787.6235	39.1787	467.45	55.05
787.7642	41.4461	475.6	56.4
787.9049	43.7131	482.9	61.9
788.0456	45.9796	491.85	66.6
788.1863	48.2456	499.8	72.45
788.3271	50.5112	508.4	74.55
788.4679	52.7764	520.55	84
788.6087	55.0411	528.9	88.1
788.7496	57.3054	542.85	97.5
788.8904	59.5692	548.4	101.6
789.0313	61.8326	554.65	105.75
789.1722	64.0955	570.65	117.85
789.3132	66.3579	583.8	126.2
789.4541	68.6199	599.55	136.6
789.5951	70.8815	637	169.9
789.7361	73.1426	714.85	244.25
789.8771	75.4032	916.1	440.4
790.0181	77.6634	1403.35	922.5
790.1592	79.9231	2554.9	2067.4
790.3003	82.1824	5011.6	4507.4
790.4414	84.4412	9378	8842.55
790.5825	86.6995	15268.8	14694.2
790.7237	88.9574	20922.9	20317.8
790.8648	91.2148	24780	24152.1
791.006	93.4717	26417.35	25776.1
791.1472	95.7282	26605.25	25959.2
791.2885	97.9842	26237.55	25582.25
791.4297	100.2398	25505.65	24850.45
791.571	102.4949	24702.65	24044
791.7123	104.7495	23765.1	23106.05
791.8536	107.0036	22853.05	22192.3
791.9949	109.2573	22039.3	21377.35
792.1363	111.5105	21323.7	20657.1
792.2777	113.7632	20683.5	20017.65
792.4191	116.0154	20164.1	19487.45
792.5605	118.2672	19766.45	19090
792.7019	120.5185	19382.05	18708.75
792.8434	122.7693	19103.05	18430.1
792.9849	125.0197	18863.85	18186.15
793.1264	127.2696	18590.25	17906.95
793.2679	129.519	18395.9	17710.2
793.4094	131.7679	18129.9	17439.2
793.551	134.0163	17862.9	17167.75
793.6926	136.2642	17518.2	16823.35
793.8342	138.5117	17147.4	16442.9
793.9758	140.7587	16777.2	16072.15
794.1175	143.0052	16424.95	15718.25
794.2591	145.2512	16089.15	15382.85
794.4008	147.4967	15809.85	15106.45
794.5425	149.7417	15562.7	14854.95
794.6842	151.9863	15392.25	14679.05
794.826	154.2304	15275.7	14557.35
794.9677	156.4739	15114.45	14392.95
795.1095	158.717	15034.9	14313.05
795.2513	160.9596	14838.95	14110.7
795.3931	163.2017	14591.3	13861.45
795.535	165.4433	14326.6	13598.3
795.6768	167.6844	14021.4	13289.7
795.8187	169.925	13711.55	12973.15
795.9606	172.1651	13372	12637.75
796.1025	174.4047	13146.8	12406
796.2445	176.6439	12917.7	12175.35
796.3864	178.8825	12732.75	11986.6
796.5284	181.1206	12591.15	11835.35
796.6704	183.3582	12462	11707.85
796.8124	185.5954	12382.6	11625.55
796.9544	187.832	12295.95	11536.45
797.0965	190.0681	12300.65	11539.15
797.2386	192.3037	12300.6	11533
797.3806	194.5388	12286.4	11516.9
797.5228	196.7734	12306.45	11535.45
797.6649	199.0075	12354.55	11583
797.807	201.2411	12460.2	11682.75
797.9492	203.4742	12539.35	11765.95
798.0914	205.7068	12667.65	11884.55
798.2336	207.9389	12792.6	12011.15
798.3758	210.1704	12945.65	12169.8
798.518	212.4015	13052.65	12291.7
798.6603	214.632	13180.45	12427.05
798.8025	216.862	13312.1	12555.15
798.9448	219.0915	13385.05	12623.7
799.0871	221.3205	13496	12734.05
799.2294	223.549	13548.35	12794.45
799.3718	225.777	13581.85	12822.55
799.5141	228.0044	13674.25	12908.2
799.6565	230.2314	13789	13024.7
799.7989	232.4578	13893.7	13124.8
799.9413	234.6837	13990.5	13217.05
800.0837	236.909	14057.55	13279.15
800.2262	239.1339	14043.45	13241.15
800.3687	241.3582	13960.45	13170.55
800.5111	243.582	13910.05	13089.85
800.6536	245.8053	13846.95	13038.4
800.7961	248.0281	13783.75	12982.05
800.9387	250.2503	13820.55	13014.7
801.0812	252.472	13877.7	13068.4
801.2238	254.6932	14013.5	13206.45
801.3664	256.9139	14141.3	13337
801.509	259.134	14353.4	13538.05
801.6516	261.3536	14584.8	13771.9
801.7942	263.5727	14904.05	14091.7
801.9369	265.7912	15137.95	14327.45
802.0795	268.0092	15442.2	14632.15
802.2222	270.2267	15670.7	14861.2
802.3649	272.4436	15803.15	14988.3
802.5076	274.6601	15828.9	15005.1
802.6504	276.8759	15781.3	14964.35
802.7931	279.0913	15665.95	14855.2
802.9359	281.3061	15512.35	14693.4
803.0787	283.5204	15466	14642.45
803.2215	285.7341	15453.05	14623.4
803.3643	287.9473	15451.1	14614.75
803.5071	290.16	15507.25	14674.85
803.6499	292.3721	15574.8	14749.9
803.7928	294.5837	15736.85	14915.1
803.9357	296.7947	15914.85	15090.5
804.0786	299.0052	16076.8	15252
804.2215	301.2152	16039.45	15212.65
804.3644	303.4246	15928	15104.55
804.5074	305.6334	15627.4	14802.25
804.6503	307.8418	15268.9	14441.55
804.7933	310.0495	14891.25	14059.55
804.9363	312.2568	14463.5	13632.15
805.0793	314.4635	14081.9	13243.55
805.2223	316.6696	13793.3	12955.6
805.3653	318.8752	13565.1	12722.1
805.5084	321.0802	13474.1	12634.55
805.6514	323.2847	13455.6	12616
805.7945	325.4887	13510.35	12670.7
805.9376	327.692	13487.15	12646.95
806.0807	329.8949	13457.15	12614.95
806.2238	332.0972	13301.3	12458.25
806.367	334.2989	13098.8	12253.65
806.5101	336.5001	12889.9	12039.25
806.6533	338.7007	12690	11843.6
806.7965	340.9008	12547.45	11698.4
806.9397	343.1003	12389.15	11538.05
807.0829	345.2992	12244.8	11389.85
807.2261	347.4976	12176.05	11319.55
807.3693	349.6955	12087.3	11230.15
807.5126	351.8927	12071.45	11211.05
807.6559	354.0895	12001.65	11132.15
807.7991	356.2856	11960.3	11097.55
807.9424	358.4812	11893.9	11034.55
808.0857	360.6763	11896.5	11035.4
808.2291	362.8707	11887.85	11026.85
808.3724	365.0646	11903.5	11038.5
808.5158	367.258	11937.3	11071.05
808.6591	369.4508	12029.9	11161.9
808.8025	371.643	12147	11275.05
808.9459	373.8346	12247.15	11374.05
809.0893	376.0257	12350.15	11476.65
809.2327	378.2162	12377.05	11503.85
809.3762	380.4062	12359.9	11487.1
809.5196	382.5956	12254.85	11382.3
809.6631	384.7844	12156.85	11294.6
809.8066	386.9726	12027.1	11163
809.9501	389.1603	11933.3	11072.4
810.0936	391.3474	11903.25	11005.75
810.2371	393.5339	11887.6	11019.15
810.3806	395.7199	11838.75	10974
810.5241	397.9052	11874.8	11013.2
810.6677	400.09	11962.3	11093.45
810.8113	402.2743	12123.45	11255.5
810.9548	404.4579	12289.05	11422.95
811.0984	406.641	12477.1	11611.3
811.2421	408.8235	12607.35	11740.05
811.3857	411.0054	12756.35	11887.3
811.5293	413.1868	12904	12028.05
811.673	415.3675	12944.85	12067
811.8166	417.5477	12917.8	12039.2
811.9603	419.7273	12869.9	11989.4
812.104	421.9064	12802.55	11917.8
812.2477	424.0848	12693.85	11815.65
812.3914	426.2627	12607.55	11729.3
812.5351	428.4399	12404.85	11524.55
812.6788	430.6166	12135.9	11248
812.8226	432.7928	11804.5	10918.2
812.9663	434.9683	11503.75	10623.2
813.1101	437.1432	11310.2	10429.35
813.2539	439.3176	11141.7	10266.95
813.3977	441.4914	11042.95	10170.05
813.5415	443.6645	10988	10109.6
813.6853	445.8371	10966.4	10082.9
813.8291	448.0091	10944.65	10064.15
813.973	450.1806	10932.7	10053.3
814.1168	452.3514	10893.7	10016.2
814.2607	454.5216	10945.15	10053.5
814.4046	456.6913	10921.7	10037.25
814.5485	458.8603	10955.35	10074
814.6924	461.0288	10991.4	10118.45
814.8363	463.1967	10964.05	10090.05
814.9802	465.3639	11003.15	10125.95
815.1241	467.5306	11006.8	10125.15
815.2681	469.6967	10974.45	10095.75
815.412	471.8622	10981.05	10105.75
815.556	474.0271	11032.2	10151.8
815.7	476.1914	11046.05	10161.3
815.844	478.3551	11047.35	10159.9
815.988	480.5182	11122.75	10244.2
816.132	482.6807	11206.4	10330.25
816.276	484.8426	11375.3	10509.9
816.4201	487.0039	11684.5	10810.2
816.5641	489.1647	12034	11152
816.7082	491.3248	12363.4	11477.8
816.8522	493.4843	12431.25	11551.8
816.9963	495.6432	12408.9	11529.75
817.1404	497.8015	12273	11381.5
817.2845	499.9592	12141.4	11241.25
817.4286	502.1163	11943.35	11046.2
817.5727	504.2728	11679.9	10792.25
817.7168	506.4287	11408.85	10534.25
817.861	508.5839	11131.35	10249.4
818.0051	510.7386	10942.6	10059.65
818.1493	512.8927	10878.7	9986.2
818.2935	515.0461	10857.8	9964.5
818.4377	517.199	10953.75	10059.6
818.5818	519.3512	11102.95	10203.65
818.726	521.5029	11397.2	10497.55
818.8703	523.6539	11671.6	10777.1
819.0145	525.8043	11763	10868.95
819.1587	527.9541	11704	10805.7
819.303	530.1033	11507.4	10612.2
819.4472	532.2519	11311.05	10415.75
819.5915	534.3999	11250.65	10356.3
819.7357	536.5472	11307.85	10415.6
819.88	538.694	11452.75	10560.85
820.0243	540.8401	11713.7	10817
820.1686	542.9856	11845.45	10936.55
820.3129	545.1305	11872.85	10962.9
820.4572	547.2748	11802.85	10890.8
820.6016	549.4185	11658	10742.4
820.7459	551.5615	11558.45	10649.2
820.8902	553.704	11598.85	10688.2
821.0346	555.8458	11643.4	10740.15
821.1789	557.987	11857.2	10954.1
821.3233	560.1276	12100.15	11194.35
821.4677	562.2675	12463.9	11560
821.6121	564.4069	13027.7	12121.25
821.7565	566.5456	13471.95	12567.5
821.9009	568.6837	13628.15	12725.65
822.0453	570.8212	13240.75	12342.75
822.1897	572.958	12577.65	11672.85
822.3342	575.0942	11945.95	11046.25
822.4786	577.2299	11510.9	10613.85
822.6231	579.3648	11297.4	10413.4
822.7675	581.4992	11214.8	10338.6
822.912	583.6329	11310.2	10431.15
823.0565	585.766	11453.15	10570.5
823.201	587.8985	11569	10677.95
823.3454	590.0304	11669.4	10748.6
823.4899	592.1616	11621.3	10713
823.6345	594.2922	11532.05	10621.6
823.779	596.4222	11328.55	10414.95
823.9235	598.5515	11127.75	10216.3
824.068	600.6802	10973.65	10061.35
824.2126	602.8083	10806.6	9899.8
824.3571	604.9358	10830.1	9923.25
824.5017	607.0626	10828.75	9912.7
824.6462	609.1888	10967.15	10048.9
824.7908	611.3144	11119.25	10201.25
824.9354	613.4393	11278.2	10357.7
825.08	615.5636	11387.25	10470.6
825.2246	617.6873	11409.2	10494.3
825.3692	619.8103	11352.65	10438.45
825.5138	621.9327	11187.9	10274.7
825.6584	624.0544	10953.1	10043.75
825.803	626.1756	10754.7	9846.1
825.9477	628.2961	10603.1	9688.85
826.0923	630.4159	10539.3	9623.65
826.237	632.5351	10485.2	9570.8
826.3816	634.6537	10471.45	9551.15
826.5263	636.7716	10507.15	9586.65
826.6709	638.8889	10495.2	9571.1
826.8156	641.0056	10541.2	9614.05
826.9603	643.1216	10518.95	9595.2
827.105	645.237	10492.35	9569.95
827.2497	647.3518	10371.3	9458.45
827.3944	649.4659	10327.65	9420.55
827.5391	651.5793	10249	9340.9
827.6838	653.6922	10229.8	9318.15
827.8285	655.8043	10205.05	9292.15
827.9733	657.9159	10202.7	9291.85
828.118	660.0268	10221.5	9306.6
828.2627	662.137	10229.45	9314.05
828.4075	664.2466	10231.5	9310.1
828.5522	666.3556	10220.65	9302.1
828.697	668.4639	10165.75	9246.1
828.8418	670.5716	10133.55	9223.85
828.9865	672.6786	10074.45	9155.85
829.1313	674.785	10018	9098
829.2761	676.8907	9957.25	9037.65
829.4209	678.9958	9991.55	9075.3
829.5657	681.1002	9992.8	9070.75
829.7105	683.204	9981.45	9052.15
829.8553	685.3072	9934	9010.15
830.0001	687.4097	9935.65	9012.05
830.1449	689.5115	9935.95	9009.3
830.2898	691.6127	9918.65	8996.15
830.4346	693.7132	9891.05	8971.9
830.5794	695.8131	9941.2	9002.2
830.7243	697.9123	9956.65	9029.6
830.8691	700.0109	10009.55	9081.7
831.014	702.1089	10057.3	9130
831.1588	704.2061	10089.7	9166.9
831.3037	706.3028	10146.6	9218.4
831.4486	708.3987	10209.3	9283.5
831.5935	710.4941	10230.15	9305.5
831.7383	712.5887	10269.2	9343.85
831.8832	714.6827	10306.9	9378.7
832.0281	716.7761	10413.45	9488.95
832.173	718.8688	10552.7	9629.35
832.3179	720.9608	10658.6	9726.35
832.4628	723.0522	10802.15	9866.55
832.6077	725.1429	10881	9951.3
832.7527	727.233	10984.5	10053.9
832.8976	729.3224	11061.8	10133.8
833.0425	731.4112	11008.55	10081.1
833.1874	733.4993	10875.5	9943.05
833.3324	735.5867	10706.6	9776.95
833.4773	737.6735	10464.5	9535.4
833.6222	739.7596	10264.7	9332.7
833.7672	741.845	10141.85	9212.75
833.9122	743.9298	10036.15	9105.2
834.0571	746.014	10010.9	9078.2
834.2021	748.0974	10021.4	9085.85
834.347	750.1802	10011.3	9074.25
834.492	752.2624	10006.5	9070.7
834.637	754.3439	10068.9	9129.7
834.782	756.4247	10182.1	9240.45
834.9269	758.5048	10335.95	9401.75
835.0719	760.5843	10612.95	9675.3
835.2169	762.6631	10977.75	10044.9
835.3619	764.7413	11527.6	10595.3
835.5069	766.8188	12219.15	11281.55
835.6519	768.8956	12766.45	11830.45
835.7969	770.9718	13156.1	12219.95
835.9419	773.0473	13114.8	12179.55
836.0869	775.1221	12892.4	11957.3
836.232	777.1962	12650.5	11714.8
836.377	779.2697	12579.8	11642.15
836.522	781.3426	12634.85	11688.85
836.667	783.4147	12740.3	11802.25
836.8121	785.4862	12759.2	11825.65
836.9571	787.557	12584.9	11647.35
837.1021	789.6271	12115.4	11172.75
837.2472	791.6966	11499.1	10563.3
837.3922	793.7654	10922.75	9982.5
837.5373	795.8335	10535.15	9599.35
837.6823	797.901	10247.7	9309.4
837.8274	799.9678	10094.8	9155.2
837.9724	802.0339	9959.4	9019.45
838.1175	804.0993	9952.05	9001.35
838.2626	806.1641	9875.2	8934.15
838.4076	808.2282	9778.35	8843.3
838.5527	810.2916	9734.6	8795.05
838.6978	812.3544	9676.25	8738
838.8428	814.4164	9596.55	8657.35
838.9879	816.4778	9654.2	8712.2
839.133	818.5385	9701.55	8759.85
839.2781	820.5986	9840.95	8900.5
839.4232	822.658	10084.15	9142.05
839.5682	824.7166	10416.65	9475.45
839.7133	826.7747	10914.45	9973.9
839.8584	828.832	11442.6	10498.6
840.0035	830.8886	11862.45	10918.4
840.1486	832.9446	12060.25	11116.45
840.2937	834.9999	11917.2	10976.15
840.4388	837.0545	11583.85	10636.25
840.5839	839.1085	11213.3	10272.85
840.729	841.1618	10918.4	9971.55
840.8741	843.2143	10654.7	9711.5
841.0192	845.2662	10444.5	9502.1
841.1643	847.3175	10296.4	9353.85
841.3095	849.368	10180.15	9235.45
841.4546	851.4179	10101.65	9158.5
841.5997	853.467	10033.5	9088.8
841.7448	855.5155	9964.05	9019.2
841.8899	857.5633	9878.8	8933.7
842.0351	859.6105	9781.65	8838.4
842.1802	861.6569	9736.2	8793.7
842.3253	863.7027	9674.15	8725.5
842.4704	865.7478	9609.5	8667.55
842.6156	867.7922	9560.2	8615.45
842.7607	869.8359	9528.75	8581.2
842.9058	871.8789	9555.55	8613.45
843.0509	873.9212	9661.65	8686.15
843.1961	875.9629	9678.6	8731.95
843.3412	878.0039	9792.75	8846.3
843.4863	880.0441	9898.5	8959.9
843.6315	882.0837	9963.6	9018.9
843.7766	884.1226	9989.25	9043.6
843.9218	886.1609	10039.5	9094.8
844.0669	888.1984	10181.05	9236.85
844.212	890.2352	10315.75	9372.85
844.3572	892.2714	10356.1	9405.35
844.5023	894.3069	10288.8	9343.45
844.6475	896.3416	10124.55	9178.75
844.7926	898.3757	9941.2	8995.45
844.9377	900.4091	9876.8	8926.7
845.0829	902.4418	9860.9	8910.75
845.228	904.4739	9887.85	8939.5
845.3732	906.5052	9950.95	9003.55
845.5183	908.5358	9930.35	8982.6
845.6635	910.5658	9790.1	8838.15
845.8086	912.595	9590.9	8643.2
845.9538	914.6236	9403.05	8455.05
846.0989	916.6515	9247.55	8300.55
846.2441	918.6786	9171.45	8222.75
846.3892	920.7051	9161.05	8213.4
846.5344	922.7309	9227.2	8277.95
846.6795	924.756	9226.1	8280.95
846.8246	926.7804	9287.75	8340.25
846.9698	928.8041	9266.55	8320.5
847.1149	930.8272	9342.55	8393.5
847.2601	932.8495	9334.55	8383.6
847.4052	934.8711	9333.3	8384.2
847.5504	936.892	9280.1	8329.55
847.6955	938.9123	9288.55	8338.15
847.8407	940.9318	9312.7	8366.1
847.9858	942.9506	9325.05	8377.9
848.131	944.9688	9314	8366.55
848.2761	946.9862	9193.15	8246.1
848.4213	949.003	9057.35	8105.5
848.5664	951.019	8944.85	7997.6
848.7115	953.0344	8887.45	7943.3
848.8567	955.0491	8863.5	7909.1
849.0018	957.063	8907.75	7959.55
849.147	959.0763	8951.55	8004.4
849.2921	961.0888	8969.65	8019.95
849.4373	963.1007	9046.3	8101.35
849.5824	965.1119	9055.15	8117.1
849.7275	967.1223	9041.4	8110.95
849.8727	969.1321	9001	8067.55
850.0178	971.1412	9010.6	8072.7
850.1629	973.1495	8983.55	8041.25
850.3081	975.1572	9050.85	8049.9
850.4532	977.1641	9013.85	8065.2
850.5983	979.1704	8982.85	8032.55
850.7435	981.1759	8948.2	7992.8
850.8886	983.1808	8958.6	8007.35
851.0337	985.1849	8988.35	8029
851.1788	987.1884	9054.55	8106.95
851.324	989.1911	9116	8170.1
851.4691	991.1932	9160.5	8217.1
851.6142	993.1945	9176.55	8231.5
851.7593	995.1951	9144.65	8194.25
851.9045	997.1951	9120.1	8170.55
852.0496	999.1943	9080.5	8132.4
852.1947	1001.1928	9069.45	8118.5
852.3398	1003.1906	9127.3	8180.05
852.4849	1005.1877	9262.2	8312.55
852.63	1007.1841	9334.45	8388.75
852.7751	1009.1798	9397.6	8452.8
852.9202	1011.1748	9288.75	8341.5
853.0653	1013.1691	9168.95	8222.3
853.2104	1015.1627	9011.1	8065.45
853.3555	1017.1556	8819.65	7874.2
853.5006	1019.1477	8690.95	7745.7
853.6457	1021.1392	8573.55	7635.25
853.7908	1023.1299	8543.5	7608.65
853.9359	1025.12	8542.65	7608
854.081	1027.1093	8597.7	7679
854.2261	1029.0979	8711.1	7792.1
854.3712	1031.0859	8797.75	7878.65
854.5163	1033.0731	8859.6	7928.45
854.6613	1035.0596	8816.05	7880.5
854.8064	1037.0454	8691.45	7749.45
854.9515	1039.0304	8609.4	7668.5
855.0965	1041.0148	8497.55	7555.25
855.2416	1042.9985	8440.25	7494.55
855.3867	1044.9814	8366.8	7424.3
855.5317	1046.9636	8321.65	7375.7
855.6768	1048.9452	8335.8	7394.45
855.8219	1050.926	8363.75	7421
855.9669	1052.9061	8376.15	7434.9
856.112	1054.8855	8423.8	7480.05
856.257	1056.8642	8441.85	7498.2
856.4021	1058.8421	8519.45	7568.15
856.5471	1060.8194	8524.65	7579.15
856.6921	1062.7959	8575.55	7630.95
856.8372	1064.7717	8639.75	7693.65
856.9822	1066.7469	8719.85	7775.4
857.1272	1068.7213	8801.45	7855.2
857.2723	1070.695	8887.4	7945.2
857.4173	1072.6679	8915.45	7971.35
857.5623	1074.6402	8947.1	8002.6
857.7073	1076.6117	8910.2	7955.15
857.8523	1078.5826	8801.5	7856.45
857.9973	1080.5527	8676.2	7730.5
858.1423	1082.5221	8551.8	7609.75
858.2873	1084.4908	8508.35	7563.8
858.4323	1086.4587	8514.4	7567.55
858.5773	1088.426	8542.15	7599.4
858.7223	1090.3925	8542.65	7591.35
858.8673	1092.3584	8577.9	7631.4
859.0123	1094.3235	8590.85	7643.75
859.1573	1096.2879	8697.5	7754.6
859.3022	1098.2515	8821.8	7876.1
859.4472	1100.2145	9005.4	8064.65
859.5922	1102.1767	9192.15	8247.1
859.7371	1104.1382	9402.75	8458.5
859.8821	1106.099	9648.6	8702.8
860.027	1108.0591	9859.3	8914
860.172	1110.0185	10001.9	9059.1
860.3169	1111.9771	10058.3	9112.8
860.4619	1113.9351	10003.45	9060.1
860.6068	1115.8923	9902.1	8958.85
860.7517	1117.8488	9781.5	8839.25
860.8967	1119.8045	9631.95	8690.8
861.0416	1121.7596	9492.85	8549.65
861.1865	1123.7139	9351.65	8412.45
861.3314	1125.6675	9297.3	8357.55
861.4763	1127.6204	9332	8387.8
861.6212	1129.5726	9306.85	8362.4
861.7661	1131.524	9196.4	8257.5
861.911	1133.4748	9040.8	8098.75
862.0559	1135.4248	8848.25	7902.9
862.2008	1137.3741	8699.5	7758
862.3457	1139.3226	8591.8	7645.55
862.4905	1141.2705	8536.95	7594.3
862.6354	1143.2176	8480.3	7531.7
862.7803	1145.164	8414.6	7470.55
862.9251	1147.1097	8345.2	7404.7
863.07	1149.0546	8255.7	7311.5
863.2148	1150.9989	8159.3	7213.35
863.3597	1152.9424	8082.35	7139.35
863.5045	1154.8852	8026.05	7084.85
863.6493	1156.8272	7971.05	7026.85
863.7942	1158.7686	8006.5	7057.35
863.939	1160.7092	8006.3	7065.05
864.0838	1162.6491	8044.75	7099.5
864.2286	1164.5883	8155.9	7215.6
864.3734	1166.5267	8256.5	7314.4
864.5182	1168.4644	8421.5	7477.85
864.663	1170.4014	8624.95	7681
864.8078	1172.3377	8851.4	7910.85
864.9526	1174.2732	9143.45	8203
865.0974	1176.2081	9578.95	8638.8
865.2421	1178.1421	10068.2	9122.3
865.3869	1180.0755	10616.65	9677.05
865.5317	1182.0082	10982.15	10042
865.6764	1183.9401	11140.3	10201.05
865.8212	1185.8713	10995.75	10061.4
865.9659	1187.8017	10648.5	9719.7
866.1106	1189.7315	10261.1	9338.05
866.2554	1191.6605	9857.4	8942.9
866.4001	1193.5888	9595.9	8670.55
866.5448	1195.5163	9442.55	8508.6
866.6895	1197.4432	9355.65	8421.3
866.8342	1199.3693	9301.5	8362.65
866.9789	1201.2947	9252.85	8307.75
867.1236	1203.2193	9198.35	8260.4
867.2683	1205.1432	9210.7	8273.6
867.413	1207.0664	9180.95	8245.1
867.5576	1208.9889	9142.15	8200.15
867.7023	1210.9106	9129.1	8189.1
867.847	1212.8316	9140.1	8204.9
867.9916	1214.7519	9166.15	8218.7
868.1363	1216.6715	9204.45	8264.65
868.2809	1218.5903	9271.7	8333.45
868.4255	1220.5084	9336.9	8399
868.5701	1222.4257	9471.65	8532.5
868.7148	1224.3424	9506.45	8571.6
868.8594	1226.2583	9656.8	8718.05
869.004	1228.1735	9797.8	8860.35
869.1486	1230.0879	9976.6	9037.3
869.2932	1232.0016	10141.9	9204.65
869.4377	1233.9146	10290.6	9354.1
869.5823	1235.8269	10329.95	9391.45
869.7269	1237.7384	10337.8	9398.75
869.8715	1239.6492	10221.7	9289.4
870.016	1241.5592	10229.4	9293.75
870.1606	1243.4686	10275.75	9338.7
870.3051	1245.3772	10477.95	9542.3
870.4496	1247.285	10730.65	9795.05
870.5941	1249.1922	10935.35	9997
870.7387	1251.0986	11145.65	10211.1
870.8832	1253.0042	11223.5	10289.7
871.0277	1254.9092	11345	10410.3
871.1722	1256.8134	11429.55	10496.15
871.3167	1258.7169	11577.25	10638.05
871.4611	1260.6196	11715.2	10780.9
871.6056	1262.5216	11928.7	10990.8
871.7501	1264.4229	12073.8	11139.9
871.8945	1266.3234	12290.1	11354
872.039	1268.2232	12431.6	11493.4
872.1834	1270.1223	12510.65	11570.3
872.3278	1272.0207	12570.3	11634.5
872.4723	1273.9183	12554.15	11610.35
872.6167	1275.8151	12445.15	11509.1
872.7611	1277.7113	12481.35	11546.8
872.9055	1279.6067	12587.1	11655.7
873.0499	1281.5014	12863.1	11929.45
873.1943	1283.3953	13312.65	12376.7
873.3386	1285.2885	13897.8	12963.9
873.483	1287.181	14450.7	13516.4
873.6274	1289.0727	14999.8	14065.25
873.7717	1290.9637	15367.95	14432.45
873.9161	1292.854	15590.8	14654.15
874.0604	1294.7435	15575.7	14643.15
874.2047	1296.6323	15428.45	14493.4
874.349	1298.5204	15199.7	14259.35
874.4933	1300.4077	14926.75	13991.45
874.6376	1302.2943	14637.35	13700.35
874.7819	1304.1802	14267.7	13334.45
874.9262	1306.0653	13741.1	12802.65
875.0705	1307.9497	13283.85	12347.35
875.2147	1309.8333	12819.1	11886.05
875.359	1311.7162	12475.1	11542.6
875.5032	1313.5984	12241.05	11302.3
875.6475	1315.4798	12079.45	11143.4
875.7917	1317.3605	11990	11041.4
875.9359	1319.2405	11856.1	10918.4
876.0801	1321.1197	11608.6	10670.65
876.2243	1322.9982	11270.6	10329.4
876.3685	1324.876	10960.5	10027.3
876.5127	1326.753	10635.35	9697.05
876.6569	1328.6293	10387.25	9449.35
876.801	1330.5048	10223.45	9284.15
876.9452	1332.3796	10053.65	9118.1
877.0893	1334.2537	9916.15	8957.75
877.2335	1336.127	9813.1	8879.25
877.3776	1337.9996	9784.45	8846.75
877.5217	1339.8714	9765.8	8829.5
877.6658	1341.7426	9809.15	8826.8
877.8099	1343.6129	9813.1	8876.8
877.954	1345.4826	9781.7	8843.3
878.0981	1347.3515	9801.65	8863.35
878.2422	1349.2196	9769.8	8830.05
878.3862	1351.087	9805.1	8869.8
878.5303	1352.9537	9853.95	8917.85
878.6743	1354.8197	9938.35	9002.8
878.8184	1356.6849	10108.35	9174.35
878.9624	1358.5493	10256.4	9321.95
879.1064	1360.4131	10473.25	9537.6
879.2504	1362.276	10599.4	9662.75
879.3944	1364.1383	10633.8	9701.3
879.5384	1365.9998	10500.3	9557.75
879.6823	1367.8606	10191	9254.65
879.8263	1369.7206	9831.8	8897.3
879.9702	1371.5799	9548.25	8611.45
880.1142	1373.4384	9253.5	8316.95
880.2581	1375.2962	9031.8	8094.75
880.402	1377.1533	8734.35	7802.35
880.5459	1379.0096	8374.6	7442.5
880.6898	1380.8652	8093.5	7164.05
880.8337	1382.7201	7778.85	6852
880.9776	1384.5742	7567.3	6633.1
881.1215	1386.4275	7383	6447.7
881.2653	1388.2802	7250.8	6318.1
881.4092	1390.132	7151.55	6218.3
881.553	1391.9832	7083.45	6148.1
881.6968	1393.8336	7005.3	6069.3
881.8406	1395.6832	6958.8	6022.35
881.9844	1397.5322	6922	5987.8
882.1282	1399.3803	6875.9	5938.1
882.272	1401.2278	6853.9	5920
882.4158	1403.0745	6843.2	5911.65
882.5595	1404.9204	6827.5	5898.15
882.7033	1406.7656	6841	5905.35
882.847	1408.6101	6855.6	5922.95
882.9908	1410.4538	6873.9	5940.6
883.1345	1412.2968	6913.1	5979.25
883.2782	1414.139	6955.45	6021.65
883.4219	1415.9805	7010.95	6080.5
883.5656	1417.8213	7080.45	6144.05
883.7092	1419.6613	7161.05	6228.8
883.8529	1421.5006	7282.5	6350.55
883.9965	1423.3391	7468.85	6537.2
884.1402	1425.1769	7762.4	6831.25
884.2838	1427.0139	8134.1	7202.5
884.4274	1428.8502	8627.7	7695.6
884.571	1430.6858	9079.7	8149.45
884.7146	1432.5206	9473.25	8540.75
884.8582	1434.3547	9690.25	8756.45
885.0018	1436.188	9665.3	8734.8
885.1453	1438.0206	9604.85	8675
885.2889	1439.8524	9456.35	8523.5
885.4324	1441.6835	9357.55	8421.75
885.5759	1443.5139	9252	8319.55
885.7194	1445.3435	9199	8269.3
885.8629	1447.1724	9165.9	8235.65
886.0064	1449.0005	9146	8220.75
886.1499	1450.8279	9098.65	8168.85
886.2933	1452.6545	9076.95	8149.2
886.4368	1454.4804	9090.9	8162.5
886.5802	1456.3056	9090.15	8154.3
886.7237	1458.13	9051	8124.3
886.8671	1459.9536	8910.55	7981.55
887.0105	1461.7766	8661.1	7733.9
887.1539	1463.5987	8368.05	7435.65
887.2972	1465.4202	8080	7151
887.4406	1467.2409	7774.1	6844.55
887.584	1469.0608	7529.1	6600.3
887.7273	1470.88	7277.85	6351.75
887.8706	1472.6984	7091.3	6162.55
888.0139	1474.5161	6896.9	5963.65
888.1572	1476.3331	6743.45	5815.95
888.3005	1478.1493	6646.95	5715.95
888.4438	1479.9648	6565.85	5638.6
888.5871	1481.7795	6504.25	5575.45
888.7303	1483.5935	6445.65	5516.05
888.8736	1485.4067	6393.65	5464.7
889.0168	1487.2192	6385.35	5456.35
889.16	1489.031	6342.05	5408.85
889.3032	1490.842	6307.85	5380.95
889.4464	1492.6522	6276.85	5349.2
889.5896	1494.4618	6248.75	5319.85
889.7327	1496.2705	6219.55	5294.8
889.8759	1498.0785	6167.5	5240.75
890.019	1499.8858	6132.6	5203.55
890.1622	1501.6924	6081.9	5154.45
890.3053	1503.4981	6047.75	5122.55
890.4484	1505.3032	6010.8	5083.5
890.5914	1507.1075	5961.85	5035.7
890.7345	1508.911	5927.95	5000.75
890.8776	1510.7138	5874.2	4946.55
891.0206	1512.5159	5819.95	4893.6
891.1637	1514.3172	5805.05	4883.7
891.3067	1516.1178	5758.45	4837.35
891.4497	1517.9176	5726.4	4799.1
891.5927	1519.7166	5691.3	4767.1
891.7357	1521.515	5662	4733.2
891.8786	1523.3126	5661.45	4738
892.0216	1525.1094	5628.3	4703.65
892.1645	1526.9055	5586.8	4665.9
892.3074	1528.7008	5589.55	4666.35
892.4503	1530.4954	5556	4632.25
892.5932	1532.2893	5550.3	4629.9
892.7361	1534.0824	5523.1	4597.75
892.879	1535.8747	5535.1	4616.35
893.0218	1537.6663	5509.4	4590.4
893.1647	1539.4572	5507	4584.65
893.3075	1541.2473	5532.45	4614.15
893.4503	1543.0367	5541.85	4622.45
893.5931	1544.8253	5560.85	4635.25
893.7359	1546.6132	5585.2	4659.35
893.8787	1548.4003	5626.85	4701.15
894.0214	1550.1867	5668.75	4744.5
894.1642	1551.9723	5734.05	4810.5
894.3069	1553.7572	5814.55	4895.55
894.4496	1555.5414	5939.8	5023.95
894.5923	1557.3247	6072.35	5155.45
894.735	1559.1074	6255.25	5342
894.8777	1560.8893	6432.4	5520.75
895.0204	1562.6705	6589.9	5678
895.163	1564.4509	6709.7	5795.2
895.3056	1566.2305	6784.05	5872.15
895.4482	1568.0094	6811.6	5900.15
895.5908	1569.7876	6804.25	5891.2
895.7334	1571.565	6803.3	5890.9
895.876	1573.3417	6778.9	5863.9
896.0186	1575.1176	6788.85	5877.2
896.1611	1576.8928	6793.9	5881.75
896.3036	1578.6672	6801.35	5896.1
896.4461	1580.4409	6834.1	5926.05
896.5886	1582.2138	6894.5	5983.85
896.7311	1583.986	6970.65	6061.1
896.8736	1585.7575	7081.5	6170.35
897.0161	1587.5282	7175.2	6269.15
897.1585	1589.2981	7311.9	6408.3
897.3009	1591.0673	7417.5	6512.95
897.4433	1592.8358	7521.2	6616.3
897.5857	1594.6035	7667	6757.15
897.7281	1596.3704	7745.35	6833.25
897.8705	1598.1366	7850.95	6942.7
898.0128	1599.9021	7935.8	7028.1
898.1551	1601.6668	8039.1	7131.25
898.2975	1603.4308	8183.6	7272
898.4398	1605.194	8320.75	7407.6
898.5821	1606.9564	8541	7640.1
898.7243	1608.7182	8809.1	7906.85
898.8666	1610.4791	9098.85	8201.45
899.0088	1612.2394	9409.25	8514.8
899.1511	1613.9988	9685.95	8788.35
899.2933	1615.7576	10001.3	9104.1
899.4355	1617.5156	10207.85	9295.5
899.5776	1619.2728	10261.5	9353.65
899.7198	1621.0293	10155.4	9249.95
899.862	1622.785	9922.65	9013.8
900.0041	1624.54	9539.8	8636.2
900.1462	1626.2942	9146.65	8244.85
900.2883	1628.0477	8690.5	7789.1
900.4304	1629.8005	8308.5	7402.85
900.5725	1631.5525	7968.85	7066.9
900.7145	1633.3037	7656.8	6756.8
900.8566	1635.0542	7429	6527
900.9986	1636.804	7264.9	6362.35
901.1406	1638.553	7197.7	6204.85
901.2826	1640.3013	7040.25	6137.55
901.4245	1642.0488	6969.85	6066.25
901.5665	1643.7955	7005.25	6106.5
901.7085	1645.5416	7033	6134.3
901.8504	1647.2868	7108	6208.35
901.9923	1649.0313	7222.2	6316.55
902.1342	1650.7751	7357.3	6453.35
902.2761	1652.5181	7491.45	6593.65
902.4179	1654.2604	7656.15	6755.05
902.5598	1656.0019	7851.05	6952.8
902.7016	1657.7427	8096.6	7197.5
902.8434	1659.4828	8326.1	7425.05
902.9852	1661.222	8473.6	7570
903.127	1662.9606	8458.9	7556
903.2687	1664.6984	8252.6	7350.15
903.4105	1666.4354	7853.45	6947.25
903.5522	1668.1717	7328	6423
903.6939	1669.9072	6807.85	5904
903.8356	1671.642	6380.15	5474.35
903.9773	1673.3761	6022.2	5119.55
904.119	1675.1094	5709.05	4806.75
904.2606	1676.8419	5483.7	4582.2
904.4022	1678.5737	5285.9	4385.3
904.5439	1680.3048	5139.25	4234.35
904.6855	1682.0351	5010.05	4106.4
904.827	1683.7646	4894.45	3991
904.9686	1685.4934	4819.5	3919.35
905.1101	1687.2215	4748.65	3848.4
905.2517	1688.9488	4660.3	3760.3
905.3932	1690.6754	4622.6	3724.55
905.5347	1692.4012	4575.75	3671.95
905.6761	1694.1263	4521.35	3619.4
905.8176	1695.8506	4480.95	3581.6
905.9591	1697.5742	4423.7	3526.55
906.1005	1699.297	4398.5	3504.05
906.2419	1701.0191	4340.7	3445
906.3833	1702.7404	4299.65	3403.05
906.5246	1704.461	4285.3	3383.9
906.666	1706.1808	4264.3	3363.65
906.8073	1707.8999	4223.4	3326.6
906.9487	1709.6182	4199.7	3303.85
907.09	1711.3358	4179.8	3285.7
907.2313	1713.0527	4157.9	3265.45
907.3725	1714.7688	4152.4	3252.1
907.5138	1716.4841	4117.45	3219.35
907.655	1718.1987	4102.8	3199.55
907.7962	1719.9126	4092.95	3200.3
907.9374	1721.6257	4060.5	3167.9
908.0786	1723.338	4048	3155.35
908.2198	1725.0496	4028.5	3132
908.3609	1726.7605	4034.55	3136.1
908.502	1728.4706	4024.25	3130.5
908.6431	1730.18	4008.4	3115.6
908.7842	1731.8886	3996.75	3104.5
908.9253	1733.5964	3985.85	3072.7
909.0664	1735.3036	3956.65	3060.85
909.2074	1737.0099	3940.7	3046.7
909.3484	1738.7156	3922.6	3030.85
909.4894	1740.4204	3901.1	3004.8
909.6304	1742.1246	3882.5	2989.05
909.7714	1743.8279	3841.3	2946
909.9123	1745.5306	3838.95	2945.9
910.0532	1747.2325	3808.05	2915.9
910.1941	1748.9336	3804.8	2909.2
910.335	1750.634	3786.55	2889
910.4759	1752.3336	3771.95	2875.8
910.6168	1754.0325	3772.3	2880.6
910.7576	1755.7307	3755.4	2864.8
910.8984	1757.4281	3756.8	2862.7
911.0392	1759.1247	3746	2843.15
911.18	1760.8206	3741.3	2839.65
911.3208	1762.5158	3731.3	2830.35
911.4615	1764.2102	3720.7	2826.8
911.6022	1765.9039	3716.25	2824.25
911.7429	1767.5968	3686.65	2795.3
911.8836	1769.289	3691.85	2798.6
912.0243	1770.9804	3682.5	2787.7
912.1649	1772.6711	3680.6	2783.75
912.3056	1774.361	3661.2	2763
912.4462	1776.0502	3649.25	2751.95
912.5868	1777.7386	3649.55	2750.7
912.7274	1779.4263	3637.1	2742.7
912.8679	1781.1132	3620.7	2731.25
913.0084	1782.7994	3619.75	2727.2
913.149	1784.4849	3601.5	2714.25
913.2895	1786.1696	3616.45	2704.9
913.4299	1787.8535	3591.35	2700.7
913.5704	1789.5367	3576.25	2686.7
913.7108	1791.2192	3589.05	2698.2
913.8513	1792.9009	3580.85	2660.75
913.9917	1794.5818	3565.3	2668.8
914.132	1796.2621	3557.25	2661.05
914.2724	1797.9415	3539.85	2644.5
914.4128	1799.6202	3558.35	2664.15
914.5531	1801.2982	3537.95	2642.9
914.6934	1802.9755	3540.95	2647.4
914.8337	1804.6519	3532.75	2638.95
914.9739	1806.3277	3499.55	2605.85
915.1142	1808.0027	3493.5	2600.55
915.2544	1809.6769	3482.9	2592.85
915.3946	1811.3504	3480.15	2588.8
915.5348	1813.0231	3482.35	2594.3
915.675	1814.6951	3486.5	2597.5
915.8151	1816.3664	3489.8	2595.55
915.9553	1818.0369	3463.15	2569.6
916.0954	1819.7067	3470.8	2579.6
916.2355	1821.3757	3461.65	2567.05
916.3755	1823.044	3451.4	2558.5
916.5156	1824.7115	3441.8	2547.9
916.6556	1826.3783	3423.25	2530.6
916.7956	1828.0443	3417.35	2525.95
916.9356	1829.7096	3423.2	2530.05
917.0756	1831.3741	3413.25	2517.6
917.2155	1833.0379	3406.4	2514.55
917.3555	1834.701	3399.4	2507.25
917.4954	1836.3633	3402.8	2513.3
917.6353	1838.0248	3396.6	2503.5
917.7751	1839.6856	3395.1	2502.7
917.915	1841.3457	3399.05	2507.6
918.0548	1843.005	3389.85	2495.9
918.1946	1844.6636	3377.3	2486.75
918.3344	1846.3214	3365.45	2473.1
918.4742	1847.9785	3375.25	2483.45
918.6139	1849.6349	3371.35	2479.8
918.7537	1851.2904	3365.25	2461.35
918.8934	1852.9453	3344.15	2448.45
919.0331	1854.5994	3339	2441.1
919.1727	1856.2528	3354.95	2457.35
919.3124	1857.9054	3329	2435.75
919.452	1859.5572	3330.35	2440.15
919.5916	1861.2083	3315.95	2424.65
919.7312	1862.8587	3332.85	2440.5
919.8708	1864.5084	3324.2	2428.15
920.0103	1866.1572	3317.4	2422.45
920.1498	1867.8054	3292.25	2395.5
920.2893	1869.4528	3278.15	2382.55
920.4288	1871.0994	3283.45	2388.6
920.5683	1872.7453	3272	2377.8
920.7077	1874.3905	3268.2	2370.5
920.8471	1876.0349	3253.8	2359.55
920.9865	1877.6786	3269.8	2373.9
921.1259	1879.3215	3269.95	2378.65
921.2653	1880.9637	3253.45	2358.35
921.4046	1882.6051	3257.7	2367.55
921.5439	1884.2458	3244.5	2350.65
921.6832	1885.8858	3242.2	2350.35
921.8225	1887.525	3223.15	2327.65
921.9617	1889.1634	3221.8	2329.55
922.101	1890.8011	3208	2312.3
922.2402	1892.4381	3198.2	2304.9
922.3794	1894.0743	3198.35	2308
922.5185	1895.7098	3184.95	2292.6
922.6577	1897.3446	3193.65	2301.75
922.7968	1898.9786	3190.45	2292.05
922.9359	1900.6118	3180.55	2286.9
923.075	1902.2443	3156	2262.45
923.214	1903.8761	3161.8	2271.35
923.3531	1905.5071	3157.55	2263.35
923.4921	1907.1374	3137.7	2247.55
923.6311	1908.7669	3119.65	2229.15
923.77	1910.3957	3126.65	2235.8
923.909	1912.0237	3115.3	2225.1
924.0479	1913.651	3108.8	2217.05
924.1868	1915.2776	3111.55	2220.15
924.3257	1916.9034	3088.05	2196.15
924.4646	1918.5285	3080.15	2189.75
924.6034	1920.1528	3074.6	2183.5
924.7422	1921.7764	3076.15	2184.5
924.881	1923.3992	3070.15	2179.95
925.0198	1925.0213	3041.25	2149.15
925.1586	1926.6427	3052.35	2162.75
925.2973	1928.2633	3111.7	2134.35
925.436	1929.8832	3055	2160.75
925.5747	1931.5023	3017.5	2125.25
925.7134	1933.1207	3023.7	2133.5
925.852	1934.7383	3030.15	2138.35
925.9906	1936.3552	3005.45	2115.6
926.1292	1937.9714	3007.65	2115.3
926.2678	1939.5868	3006.6	2112.9
926.4064	1941.2015	2987.3	2094.7
926.5449	1942.8154	2986.8	2093.6
926.6834	1944.4286	2959.8	2069
926.8219	1946.041	2981.55	2070.05
926.9604	1947.6528	2950.4	2054.75
927.0988	1949.2637	2950.7	2059.35
927.2372	1950.8739	2946.1	2054.75
927.3756	1952.4834	2942.1	2051.45
927.514	1954.0921	2936.85	2046.7
927.6523	1955.7001	2926.05	2031.75
927.7907	1957.3074	2921	2031.65
927.929	1958.9139	2916	2029.75
928.0673	1960.5197	2917.8	2028.05
928.2055	1962.1247	2891.3	1999.5
928.3438	1963.729	2879.55	1991.05
928.482	1965.3325	2883.9	1991.15
928.6202	1966.9353	2868.6	1980.25
928.7584	1968.5374	2867.9	1979.85
928.8965	1970.1387	2856.2	1966.95
929.0346	1971.7393	2848.75	1961.25
929.1727	1973.3392	2834.95	1946.9
929.3108	1974.9383	2830.9	1944.3
929.4489	1976.5366	2832.4	1946.7
929.5869	1978.1342	2826.2	1938.95
929.7249	1979.7311	2822.3	1935.7
929.8629	1981.3273	2807.3	1920.5
930.0009	1982.9227	2808.25	1919.15
930.1388	1984.5173	2798.5	1913.65
930.2767	1986.1112	2781.35	1896
930.4146	1987.7044	2779.3	1893.7
930.5525	1989.2968	2771.15	1883.35
930.6904	1990.8885	2768.15	1881.85
930.8282	1992.4795	2768.8	1884.05
930.966	1994.0697	2754.4	1869.45
931.1038	1995.6592	2762.8	1879.5
931.2415	1997.2479	2755.35	1870.1
931.3793	1998.8359	2739.95	1855
931.517	2000.4232	2731.75	1850.55
931.6547	2002.0097	2720.55	1840.2
931.7923	2003.5955	2711.95	1831.05
931.93	2005.1805	2730.45	1846.55
932.0676	2006.7648	2718.05	1835.05
932.2052	2008.3484	2703.55	1821
932.3427	2009.9312	2711.3	1830.3
932.4803	2011.5133	2705.95	1826.45
932.6178	2013.0946	2694.25	1813.9
932.7553	2014.6752	2696.9	1814.25
932.8928	2016.2551	2688.65	1804.05
933.0302	2017.8342	2697.45	1812.7
933.1676	2019.4126	2688.6	1806.35
933.305	2020.9902	2667	1787.85
933.4424	2022.5672	2666.1	1784.35
933.5798	2024.1433	2658.35	1774.35
933.7171	2025.7188	2661	1782.8
933.8544	2027.2935	2648.7	1766.55
933.9917	2028.8674	2636.15	1757.65
934.129	2030.4406	2626.4	1747.3
934.2662	2032.0131	2624.7	1747.85
934.4034	2033.5849	2623.7	1740.6
934.5406	2035.1559	2617.8	1738.15
934.6778	2036.7261	2619.5	1738.1
934.8149	2038.2957	2606	1721.5
934.952	2039.8645	2611.85	1726.65
935.0891	2041.4325	2615.05	1728.6
935.2262	2042.9998	2595.45	1713.9
935.3632	2044.5664	2612.15	1730.15
935.5002	2046.1323	2598	1717.05
935.6372	2047.6974	2582.3	1701.55
935.7742	2049.2617	2582	1702.8
935.9111	2050.8254	2587.05	1699.4
936.048	2052.3883	2583.9	1698.3
936.1849	2053.9504	2584.2	1700.3
936.3218	2055.5118	2572.6	1688.05
936.4586	2057.0725	2565.45	1678
936.5955	2058.6325	2545.4	1663.5
936.7323	2060.1917	2542.7	1662.9
936.869	2061.7502	2544.55	1659.3
937.0058	2063.3079	2540.2	1659.7
937.1425	2064.8649	2539.35	1657.45
937.2792	2066.4212	2528.5	1644.95
937.4159	2067.9767	2535.1	1653.3
937.5525	2069.5315	2520.7	1637.95
937.6891	2071.0856	2512.15	1629.4
937.8257	2072.6389	2506.15	1626.4
937.9623	2074.1915	2501.5	1622.3
938.0989	2075.7433	2492.4	1607.55
938.2354	2077.2945	2484.75	1602.65
938.3719	2078.8448	2484.45	1599.7
938.5084	2080.3945	2473.85	1588.8
938.6448	2081.9434	2473.45	1588.95
938.7812	2083.4916	2482.75	1596.45
938.9176	2085.039	2483.3	1593.25
939.054	2086.5857	2474.05	1583.3
939.1903	2088.1317	2470.8	1580.85
939.3267	2089.677	2463.4	1571.45
939.463	2091.2215	2456.6	1566.8
939.5992	2092.7652	2459.7	1568.9
939.7355	2094.3083	2449.35	1558.65
939.8717	2095.8506	2448.45	1563.7
940.0079	2097.3921	2442.8	1555.95
940.1441	2098.933	2430.3	1546.6
940.2802	2100.4731	2440.85	1555.7
940.4163	2102.0124	2443.55	1536.7
940.5524	2103.5511	2428.65	1541.15
940.6885	2105.089	2433.2	1546
940.8245	2106.6261	2411.95	1524.25
940.9606	2108.1626	2421.75	1533.75
941.0965	2109.6983	2434.8	1519.15
941.2325	2111.2332	2412.75	1524.15
941.3684	2112.7675	2409.9	1523.05
941.5044	2114.301	2410.15	1520.65
941.6403	2115.8337	2401	1513.05
941.7761	2117.3657	2393.3	1506.5
941.912	2118.897	2395.05	1508.1
942.0478	2120.4276	2389.9	1497.1
942.1835	2121.9575	2371.25	1484.1
942.3193	2123.4866	2389.2	1499
942.455	2125.0149	2371.3	1481.3
942.5907	2126.5426	2369.1	1485.55
942.7264	2128.0695	2359.6	1472.4
942.8621	2129.5956	2361.8	1480.9
942.9977	2131.1211	2359.95	1473.25
943.1333	2132.6458	2347.15	1461.8
943.2689	2134.1698	2356.3	1467.4
943.4044	2135.693	2354.95	1463.8
943.54	2137.2155	2345.7	1454.8
943.6755	2138.7373	2335.8	1450.05
943.8109	2140.2584	2326.15	1439.6
943.9464	2141.7787	2335.35	1447.25
944.0818	2143.2983	2326.35	1445.95
944.2172	2144.8171	2310.05	1429.6
944.3526	2146.3353	2305.3	1421.35
944.4879	2147.8527	2313.2	1429.5
944.6232	2149.3693	2311.15	1423.55
944.7585	2150.8853	2312.6	1426.85
944.8938	2152.4005	2296.25	1407.55
945.029	2153.9149	2290.6	1403.25
945.1642	2155.4287	2297.1	1407.75
945.2994	2156.9417	2290.2	1401.95
945.4346	2158.454	2291.7	1403.4
945.5697	2159.9655	2264	1380.4
945.7048	2161.4764	2256.1	1370.9
945.8399	2162.9865	2264.3	1378.6
945.9749	2164.4958	2264.05	1376.7
946.1099	2166.0045	2264.25	1379.05
946.2449	2167.5124	2274.3	1390.75
946.3799	2169.0195	2261	1375.7
946.5148	2170.526	2253.75	1365.45
946.6498	2172.0317	2258.25	1371.8
946.7846	2173.5367	2244.05	1357.75
946.9195	2175.0409	2244.6	1357.1
947.0543	2176.5445	2255.4	1370.15
947.1891	2178.0473	2240.1	1351.7
947.3239	2179.5494	2239.9	1350.2
947.4587	2181.0507	2230.7	1345.95
947.5934	2182.5513	2225.4	1338.55
947.7281	2184.0512	2224.5	1335.9
947.8628	2185.5504	2218.85	1332.05
947.9974	2187.0488	2202.5	1320.45
948.132	2188.5465	2205.4	1320.15
948.2666	2190.0435	2210.95	1323.9
948.4012	2191.5397	2205.7	1320.05
948.5357	2193.0353	2196.85	1305.65
948.6702	2194.5301	2194.4	1305.3
948.8047	2196.0241	2196.4	1306.65
948.9392	2197.5175	2196.7	1306.4
949.0736	2199.0101	2195.4	1300.45
949.208	2200.502	2166.55	1277.6
949.3424	2201.9931	2160.5	1274.05
949.4767	2203.4835	2162.55	1276.15
949.611	2204.9733	2173.55	1273.35
949.7453	2206.4622	2165.65	1283.85
949.8796	2207.9505	2155.85	1271.3
950.0138	2209.438	2144.65	1264.95
950.148	2210.9248	2155.1	1269.85
950.2822	2212.4109	2136.7	1250.5
950.4164	2213.8962	2145	1254.35
950.5505	2215.3809	2142.1	1250.5
950.6846	2216.8648	2142.45	1250.05
950.8186	2218.3479	2144.95	1251.15
950.9527	2219.8304	2127.7	1232.5
951.0867	2221.3121	2133.5	1240.7
951.2207	2222.7931	2110.25	1218.85
951.3546	2224.2733	2118.5	1228.5
951.4886	2225.7529	2103.05	1215.5
951.6225	2227.2317	2095.7	1206.65
951.7563	2228.7098	2101.65	1216.65
951.8902	2230.1872	2105.25	1221.35
952.024	2231.6638	2101.3	1217.35
952.1578	2233.1397	2091.8	1205.4
952.2916	2234.6149	2089.95	1204.95
952.4253	2236.0894	2086.65	1198.95
952.559	2237.5632	2079.5	1182.2
952.6927	2239.0362	2075.35	1190.55
952.8263	2240.5085	2072.8	1187.25
952.9599	2241.9801	2063.9	1176.85
953.0935	2243.4509	2064.2	1172.55
953.2271	2244.921	2056.05	1164.95
953.3606	2246.3904	2061.35	1168.1
953.4941	2247.8591	2052.6	1164.15
953.6276	2249.3271	2043.25	1155.45
953.7611	2250.7943	2046.85	1156.1
953.8945	2252.2608	2041.55	1149.75
954.0279	2253.7266	2037.5	1147.4
954.1612	2255.1917	2024.3	1137.85
954.2946	2256.656	2026.5	1142.4
954.4279	2258.1197	2025.05	1143
954.5612	2259.5826	2024.25	1136.9
954.6944	2261.0447	2018.4	1131.6
954.8276	2262.5062	2015.25	1127.75
954.9608	2263.9669	2016.6	1124.65
955.094	2265.4269	2012.35	1124.25
955.2271	2266.8862	2010.65	1123.7
955.3602	2268.3448	2013.45	1125.95
955.4933	2269.8026	2005.3	1117.4
955.6264	2271.2598	2004.75	1119.75
955.7594	2272.7162	1999.8	1113.25
955.8924	2274.1719	2005.75	1116
956.0253	2275.6268	1997.5	1106
956.1583	2277.0811	1994.6	1104.7
956.2912	2278.5346	1981.45	1096.1
956.4241	2279.9874	1984.9	1100.9
956.5569	2281.4395	1977.05	1093.5
956.6897	2282.8908	1979.7	1089.95
956.8225	2284.3414	1981.15	1093
956.9553	2285.7914	1972.35	1084.7
957.088	2287.2406	1971.45	1079.8
957.2207	2288.689	1977.2	1087.65
957.3534	2290.1368	1960.9	1066.35
957.486	2291.5838	1966.85	1072
957.6186	2293.0302	1965.35	1070.85
957.7512	2294.4758	1952.7	1061.6
957.8838	2295.9206	1958.45	1065.65
958.0163	2297.3648	1947.55	1059.25
958.1488	2298.8082	1959.25	1070.7
958.2813	2300.251	1952.85	1062.05
958.4137	2301.693	1942.75	1048.05
958.5461	2303.1343	1949.65	1058.95
958.6785	2304.5748	1940.1	1051.05
958.8108	2306.0147	1927.3	1041.3
958.9432	2307.4538	1939.95	1052.55
959.0754	2308.8922	1926	1044.55
959.2077	2310.3299	1932.5	1046
959.3399	2311.7669	1919.75	1034.95
959.4721	2313.2031	1917.55	1030.05
959.6043	2314.6387	1909.95	1022.5
959.7365	2316.0735	1909.2	1020.45
959.8686	2317.5076	1916.3	1028.4
960.0006	2318.941	1910.55	1019.2
960.1327	2320.3737	1909.95	1018.2
960.2647	2321.8056	1919.2	1027.9
960.3967	2323.2369	1903.85	1013.85
960.5287	2324.6674	1908.25	1015.85
960.6606	2326.0972	1897.95	1005.2
960.7925	2327.5263	1902.4	1013.7
960.9244	2328.9547	1889.1	997.5
961.0562	2330.3823	1882.35	987.3
961.1881	2331.8092	1886.7	994.2
961.3198	2333.2355	1880	986.8
961.4516	2334.661	1881.6	989
961.5833	2336.0858	1883.4	990.35
961.715	2337.5098	1873.1	982.7
961.8467	2338.9332	1869.85	979.85
961.9783	2340.3558	1868.75	977.1
962.1099	2341.7778	1870.65	985.05
962.2415	2343.199	1864.75	974.8
962.373	2344.6195	1859.15	971.1
962.5045	2346.0393	1865.5	980.85
962.636	2347.4583	1859.6	970.9
962.7675	2348.8767	1852.9	962.5
962.8989	2350.2943	1860.7	969.55
963.0303	2351.7113	1859.4	965.45
963.1617	2353.1275	1848.2	955.7
963.293	2354.543	1857.25	957.3
963.4243	2355.9578	1847.7	955.35
963.5556	2357.3718	1841.3	952.85
963.6868	2358.7852	1836.9	948.3
963.818	2360.1978	1842.8	954.95
963.9492	2361.6098	1830.6	943.25
964.0803	2363.021	1835.05	943.2
964.2114	2364.4315	1835.35	946.15
964.3425	2365.8413	1823.55	933.4
964.4736	2367.2504	1826.1	940.6
964.6046	2368.6587	1819.5	933.2
964.7356	2370.0664	1817	926.8
964.8666	2371.4733	1815.95	926.05
964.9975	2372.8795	1811.5	921.9
965.1284	2374.285	1810.15	920.25
965.2593	2375.6899	1803.65	917.9
965.3901	2377.0939	1802.9	915.9
965.5209	2378.4973	1800.9	913.3
965.6517	2379.9	1796.7	907.25
965.7825	2381.3019	1792.55	904.9
965.9132	2382.7032	1791.4	903.9
966.0439	2384.1037	1781.05	894.75
966.1745	2385.5035	1785.2	900.1
966.3051	2386.9027	1780.2	897.2
966.4357	2388.3011	1786.2	898.3
966.5663	2389.6987	1784.85	898.9
966.6968	2391.0957	1771.85	885
966.8273	2392.492	1772.25	888.55
966.9578	2393.8876	1762.3	877.2
967.0882	2395.2824	1757.35	869.25
967.2186	2396.6765	1760.7	874.3
967.349	2398.07	1751.45	862.7
967.4793	2399.4627	1759.95	870.1
967.6097	2400.8547	1751.8	862.95
967.7399	2402.246	1763.65	870
967.8702	2403.6366	1734.15	844.55
968.0004	2405.0265	1742.75	854.75
968.1306	2406.4156	1737.5	848.5
968.2607	2407.8041	1744.8	854.45
968.3909	2409.1918	1738.45	847.9
968.521	2410.5789	1743.25	854.2
968.651	2411.9652	1733.35	841.75
968.781	2413.3508	1720.35	830.65
968.911	2414.7358	1724.15	831.85
969.041	2416.12	1723.9	837.3
969.1709	2417.5035	1723.15	834.55
969.3008	2418.8863	1721.3	832.5
969.4307	2420.2684	1724.5	840.4
969.5606	2421.6497	1708.8	819.3
969.6904	2423.0304	1710.05	821.5
969.8201	2424.4104	1721.4	832.85
969.9499	2425.7896	1714.25	819.3
970.0796	2427.1682	1709.8	822.85
970.2093	2428.546	1706.4	816.15
970.3389	2429.9232	1701.3	810.3
970.4685	2431.2996	1700.35	811.2
970.5981	2432.6753	1694.5	803.6
970.7277	2434.0503	1698.7	809.4
970.8572	2435.4246	1688.1	800.1
970.9867	2436.7982	1687.55	796.65
971.1161	2438.1711	1691.2	802.2
971.2456	2439.5433	1685.65	796.25
971.375	2440.9148	1693.2	799.55
971.5043	2442.2856	1678.1	789.7
971.6336	2443.6557	1678.75	790.95
971.7629	2445.025	1672.8	786.35
971.8922	2446.3937	1675.95	786.85
972.0214	2447.7617	1674.2	784.85
972.1506	2449.1289	1672.1	785.5
972.2798	2450.4955	1662.75	771.75
972.4089	2451.8613	1662	775.45
972.538	2453.2265	1659.65	771.7
972.6671	2454.5909	1656.3	768.35
972.7961	2455.9546	1654.2	767.75
972.9251	2457.3177	1656.85	769.15
973.0541	2458.68	1654.3	765.8
973.1831	2460.0416	1650.8	762.95
973.312	2461.4025	1653	763.65
973.4408	2462.7627	1662.15	766.55
973.5697	2464.1222	1646.6	761.4
973.6985	2465.4811	1640.7	753.6
973.8273	2466.8392	1637.05	750
973.956	2468.1966	1644.1	752.4
974.0847	2469.5533	1635.5	743.7
974.2134	2470.9093	1636.95	746.15
974.3421	2472.2645	1643.2	754.65
974.4707	2473.6191	1636.45	750.15
974.5993	2474.973	1632.95	747.3
974.7278	2476.3262	1631.1	743.3
974.8563	2477.6787	1628.3	741.3
974.9848	2479.0305	1627.2	738.8
975.1132	2480.3816	1632.6	743.75
975.2417	2481.7319	1631.95	743.8
975.37	2483.0816	1624.75	736.05
975.4984	2484.4306	1624.6	735.95
975.6267	2485.7789	1614.35	729.8
975.755	2487.1264	1618.85	730.8
975.8833	2488.4733	1614.65	729
976.0115	2489.8195	1620.8	723.3
976.1397	2491.165	1613.15	724.05
976.2678	2492.5097	1608.7	719.5
976.3959	2493.8538	1606.1	719.3
976.524	2495.1972	1597.4	709.85
976.6521	2496.5398	1603.7	712.85
976.7801	2497.8818	1598.85	709.15
976.9081	2499.2231	1596.55	708.05
977.036	2500.5637	1591	700.4
977.164	2501.9035	1592.75	700.75
977.2918	2503.2427	1595.8	702.6
977.4197	2504.5812	1585.2	697.7
977.5475	2505.919	1580.5	690.25
977.6753	2507.256	1582.45	693.9
977.8031	2508.5924	1582.3	694.85
977.9308	2509.9281	1582.7	690.35
978.0585	2511.2631	1579.1	689.25
978.1861	2512.5974	1576.7	688.35
978.3137	2513.9309	1572.25	685.5
978.4413	2515.2638	1600.4	685.85
978.5689	2516.596	1571.7	682.35
978.6964	2517.9275	1566.4	675.75
978.8239	2519.2583	1568.95	679.55
978.9513	2520.5884	1563.85	674.5
979.0788	2521.9178	1560.85	673.65
979.2062	2523.2465	1546.95	662.8
979.3335	2524.5745	1555.75	671.65
979.4608	2525.9018	1554.45	665.8
979.5881	2527.2284	1547.35	660.9
979.7154	2528.5543	1559.3	674.35
979.8426	2529.8796	1550.65	663.7
979.9698	2531.2041	1548.8	659.15
980.0969	2532.5279	1555.2	668.95
980.224	2533.851	1546.7	660.3
980.3511	2535.1735	1543.75	654.1
980.4781	2536.4952	1548.8	660.3
980.6052	2537.8163	1549.55	660.45
980.7321	2539.1366	1534.5	645.2
980.8591	2540.4562	1541.35	651.75
980.986	2541.7752	1541.9	651.5
981.1129	2543.0935	1542.85	655.5
981.2397	2544.411	1543.45	655.75
981.3665	2545.7279	1530.25	641.5
981.4933	2547.0441	1539.1	651.2
981.62	2548.3596	1539.95	646.65
981.7467	2549.6744	1533.2	646.1
981.8734	2550.9885	1549.5	652.8
982.0001	2552.3019	1534.5	649.1
982.1267	2553.6146	1528.55	640.6
982.2532	2554.9266	1533.8	645.6
982.3798	2556.2379	1528.9	640.85
982.5063	2557.5485	1534	650.4
982.6327	2558.8585	1526	630.3
982.7592	2560.1677	1532.65	639.3
982.8856	2561.4762	1527.2	637.4
983.0119	2562.7841	1518.9	628.2
983.1383	2564.0913	1524.35	639.85
983.2646	2565.3977	1521.9	632.9
983.3908	2566.7035	1520.55	632.9
983.517	2568.0086	1522.5	634.25
983.6432	2569.313	1524.5	635.3
983.7694	2570.6167	1518.05	626.3
983.8955	2571.9197	1517.75	629.2
984.0216	2573.222	1513.3	623.25
984.1476	2574.5236	1506.3	617.15
984.2737	2575.8246	1511.65	623.25
984.3996	2577.1248	1516.3	625.4
984.5256	2578.4244	1508.55	621.9
984.6515	2579.7232	1506.8	618.95
984.7774	2581.0214	1542.6	628.75
984.9032	2582.3189	1504.85	618.4
985.029	2583.6157	1516.4	625.2
985.1548	2584.9118	1518.4	631.5
985.2806	2586.2072	1510.7	624.2
985.4063	2587.5019	1503.45	614.8
985.5319	2588.7959	1505.45	615.2
985.6576	2590.0893	1512.55	624.65
985.7832	2591.3819	1512.5	627.75
985.9087	2592.6739	1511.45	623.35
986.0343	2593.9652	1512.45	621.9
986.1597	2595.2557	1506.4	619.1
986.2852	2596.5456	1509.85	621.45
986.4106	2597.8348	1497.45	610.05
986.536	2599.1234	1505.8	619.7
986.6614	2600.4112	1499.7	611.6
986.7867	2601.6983	1510.4	619.25
986.912	2602.9848	1506.4	618
987.0372	2604.2705	1513.1	621.65
987.1624	2605.5556	1509.45	621.9
987.2876	2606.84	1501.15	616.95
987.4128	2608.1237	1502.05	615.8
987.5379	2609.4067	1502.65	616.3
987.6629	2610.689	1505.55	611.95
987.788	2611.9707	1497.75	607.35
987.913	2613.2516	1493.9	604.65
988.0379	2614.5319	1480.45	593.55
988.1629	2615.8115	1478.3	593.95
988.2878	2617.0903	1480.3	593.1
988.4126	2618.3685	1479.15	592.55
988.5375	2619.6461	1474.4	590.3
988.6622	2620.9229	1477.8	590.2
988.787	2622.199	1469.55	584.4
988.9117	2623.4745	1474.45	590.15
989.0364	2624.7493	1474.4	587.95
989.161	2626.0234	1464.35	580.6
989.2857	2627.2968	1463.8	575.85
989.4102	2628.5695	1464.9	577.8
989.5348	2629.8415	1460.95	577.25
989.6593	2631.1128	1462.5	574.5
989.7837	2632.3835	1462	578.8
989.9082	2633.6535	1464.5	580.65
990.0326	2634.9228	1456.1	572.4
990.1569	2636.1914	1455.75	571.65
990.2812	2637.4593	1459.4	572.5
990.4055	2638.7265	1456.85	570.9
990.5298	2639.9931	1453.45	570.05
990.654	2641.259	1451.25	563.05
990.7782	2642.5242	1451.2	565.3
990.9023	2643.7887	1452.75	565.85
991.0264	2645.0525	1447.05	561.7
991.1505	2646.3156	1443.05	554.85
991.2745	2647.5781	1449.05	563.8
991.3985	2648.8398	1435.8	553.15
991.5225	2650.1009	1468.9	544.95
991.6464	2651.3613	1439.75	553.15
991.7703	2652.6211	1437.2	552.2
991.8942	2653.8801	1432.25	548.1
992.018	2655.1385	1440.1	553.9
992.1418	2656.3961	1432.35	546.95
992.2655	2657.6531	1438.75	552.35
992.3892	2658.9094	1437.8	553.5
992.5129	2660.1651	1431.3	547.55
992.6366	2661.42	1434.65	549.4
992.7602	2662.6743	1439.75	552.4
992.8837	2663.9279	1437.4	553.9
993.0073	2665.1808	1441.5	556.5
993.1307	2666.433	1441.85	556
993.2542	2667.6846	1445.35	562.4
993.3776	2668.9354	1442.1	553.2
993.501	2670.1856	1446.05	558.8
993.6244	2671.4351	1442.65	559.45
993.7477	2672.6839	1452.15	566.8
993.8709	2673.9321	1450.2	565.5
993.9942	2675.1795	1449.15	563.2
994.1174	2676.4263	1448.45	564.7
994.2405	2677.6724	1452.8	569.2
994.3637	2678.9179	1453.35	569.3
994.4868	2680.1626	1448.4	564.25
994.6098	2681.4067	1452.45	565.95
994.7328	2682.6501	1448.3	565.65
994.8558	2683.8928	1445.05	560.95
994.9788	2685.1348	1436.05	550.9
995.1017	2686.3761	1435.95	550.2
995.2245	2687.6168	1438.75	555.65
995.3474	2688.8568	1435.7	552.65
995.4702	2690.0961	1427.05	544.5
995.5929	2691.3348	1430.15	544.7
995.7156	2692.5727	1421.75	536.6
995.8383	2693.81	1424.85	540.25
995.961	2695.0466	1421.9	539.85
996.0836	2696.2826	1425.55	540.4
996.2062	2697.5178	1446.1	559
996.3287	2698.7524	1425.6	541.6
996.4512	2699.9863	1429.8	542.85
996.5737	2701.2195	1422.85	542.1
996.6961	2702.452	1433.8	550.2
996.8185	2703.6839	1434.9	550.75
996.9408	2704.9151	1436.7	556.2
997.0631	2706.1456	1439.35	555.2
997.1854	2707.3755	1443.25	559.65
997.3077	2708.6046	1452.65	566.35
997.4299	2709.8331	1462.55	578
997.552	2711.0609	1465.7	581.6
997.6742	2712.2881	1470.6	585.3
997.7963	2713.5145	1478.6	592.65
997.9183	2714.7403	1476.65	594.35
998.0403	2715.9654	1489.15	603.6
998.1623	2717.1899	1515.3	614.05
998.2842	2718.4136	1498.25	612.45
998.4062	2719.6367	1519.6	633.8
998.528	2720.8591	1532.5	643.15
998.6498	2722.0809	1535.55	652.5
998.7716	2723.3019	1549.45	662.5
998.8934	2724.5223	1550.25	665.9
999.0151	2725.7421	1560.5	672.65
999.1368	2726.9611	1555.95	670.2
999.2584	2728.1795	1562.95	674.15
999.38	2729.3972	1545.1	663.35
999.5016	2730.6142	1542	645.75
999.6231	2731.8306	1526.35	640.15
999.7446	2733.0462	1513.8	630.6
999.8661	2734.2612	1510.3	622.1
999.9875	2735.4756	1489.45	605.75
1000.1089	2736.6892	1469.8	585.05
1000.2302	2737.9022	1458	573.95
1000.3515	2739.1145	1454.6	570
1000.4728	2740.3262	1444.65	554
1000.594	2741.5372	1431.55	549.15
1000.7152	2742.7475	1423.2	540
1000.8363	2743.9571	1416.65	530.6
1000.9575	2745.1661	1403.45	516.65
1001.0785	2746.3744	1394.05	509.35
1001.1996	2747.582	1384.7	502.5
1001.3206	2748.7889	1385.3	500.9
1001.4415	2749.9952	1372	487.75
1001.5625	2751.2008	1368.05	483.9
1001.6833	2752.4057	1372.65	486.5
1001.8042	2753.61	1362.05	479
1001.925	2754.8136	1360.85	475.6
1002.0458	2756.0165	1363.35	480.15
1002.1665	2757.2188	1356.65	475.35
1002.2872	2758.4204	1365.45	481.55
1002.4078	2759.6213	1363.95	478.35
1002.5285	2760.8215	1365.05	477.45
1002.649	2762.0211	1357.35	472
1002.7696	2763.22	1354.7	471.65
1002.8901	2764.4182	1352.95	468.5
1003.0106	2765.6158	1353.35	470.95
1003.131	2766.8127	1349.4	466.8
1003.2514	2768.009	1349.75	466.5
1003.3717	2769.2045	1350.2	467.9
1003.492	2770.3994	1346.55	460.7
1003.6123	2771.5936	1338	453.15
1003.7325	2772.7872	1329.6	448.8
1003.8527	2773.9801	1326.9	443.5
1003.9729	2775.1723	1349.95	451.75
1004.093	2776.3639	1322.3	439.35
1004.2131	2777.5548	1328.65	440.85
1004.3331	2778.745	1332.9	449.95
1004.4531	2779.9346	1328.9	445.05
1004.5731	2781.1235	1329.25	446.25
1004.693	2782.3117	1329.4	448.35
1004.8129	2783.4992	1325.45	443.75
1004.9328	2784.6861	1336.85	453
1005.0526	2785.8723	1330	445.45
1005.1723	2787.0579	1336.15	453.95
1005.2921	2788.2428	1340.45	457.95
1005.4118	2789.427	1348.85	469.15
1005.5314	2790.6106	1355.55	472.5
1005.651	2791.7935	1360.25	477.6
1005.7706	2792.9757	1357.25	477.9
1005.8902	2794.1573	1363.85	479.95
1006.0097	2795.3382	1368.45	486.55
1006.1291	2796.5184	1379.85	501.1
1006.2485	2797.698	1385.8	500.55
1006.3679	2798.8769	1398.1	518.6
1006.4873	2800.0551	1407.2	524.75
1006.6066	2801.2327	1423.3	538.2
1006.7258	2802.4096	1416.3	535.4
1006.8451	2803.5859	1440	557.6
1006.9642	2804.7615	1451.55	569.05
1007.0834	2805.9364	1466.2	585.7
1007.2025	2807.1106	1487.55	604.4
1007.3216	2808.2842	1509.55	626.65
1007.4406	2809.4572	1534.85	654
1007.5596	2810.6294	1557.7	674.75
1007.6785	2811.801	1580.1	701.5
1007.7975	2812.972	1619.35	737.1
1007.9163	2814.1423	1647.6	766.05
1008.0352	2815.3119	1681.95	800.2
1008.154	2816.4808	1732.6	852.2
1008.2727	2817.6491	1770.25	887.25
1008.3914	2818.8167	1825.15	943.95
1008.5101	2819.9837	1865.55	981.35
1008.6288	2821.15	1919.6	1039.7
1008.7474	2822.3157	1966.25	1083.1
1008.8659	2823.4807	2025.85	1145.25
1008.9844	2824.645	2074.8	1191.4
1009.1029	2825.8086	2122.85	1241.35
1009.2214	2826.9716	2176.1	1295.1
1009.3398	2828.134	2228.9	1348.65
1009.4581	2829.2957	2271.55	1390.15
1009.5764	2830.4567	2307.9	1426.35
1009.6947	2831.617	2332	1450.45
1009.813	2832.7767	2341.05	1458.7
1009.9312	2833.9358	2335.15	1454.85
1010.0493	2835.0941	2330.6	1446.8
1010.1675	2836.2519	2322.1	1440.45
1010.2855	2837.4089	2304.95	1424.75
1010.4036	2838.5653	2286.4	1404.85
1010.5216	2839.7211	2274.7	1394.55
1010.6396	2840.8761	2272.7	1388.65
1010.7575	2842.0306	2272.9	1392.85
1010.8754	2843.1843	2283.6	1400.4
1010.9932	2844.3374	2324.15	1445.5
1011.111	2845.4899	2362.9	1481
1011.2288	2846.6417	2401	1520.95
1011.3465	2847.7928	2454.2	1574
1011.4642	2848.9433	2499.05	1619
1011.5818	2850.0931	2556.5	1677.4
1011.6995	2851.2422	2622.35	1738
1011.817	2852.3907	2648.45	1766.5
1011.9345	2853.5385	2698.25	1815.95
1012.052	2854.6857	2768.15	1858.55
1012.1695	2855.8323	2797.15	1917.9
1012.2869	2856.9781	2842.95	1960.65
1012.4042	2858.1233	2889.65	2010.95
1012.5216	2859.2679	2926.5	2045.5
1012.6389	2860.4118	2972.7	2092.95
1012.7561	2861.555	3014.85	2130.45
1012.8733	2862.6976	3050.75	2167.55
1012.9905	2863.8395	3083.45	2201.9
1013.1076	2864.9808	3105.25	2222.45
1013.2247	2866.1214	3138.95	2259.4
1013.3417	2867.2614	3148.4	2268.55
1013.4587	2868.4007	3184.8	2300.4
1013.5757	2869.5393	3179.35	2296.25
1013.6926	2870.6773	3182.45	2298.55
1013.8095	2871.8146	3200.5	2313.45
1013.9263	2872.9513	3208.1	2323.95
1014.0431	2874.0874	3187.3	2305.7
1014.1599	2875.2227	3175.8	2292.35
1014.2766	2876.3574	3166.7	2285.25
1014.3933	2877.4915	3139	2256.5
1014.51	2878.6249	3117.05	2239.85
1014.6266	2879.7577	3090.15	2209.7
1014.7431	2880.8898	3076.05	2185.4
1014.8596	2882.0212	3064.65	2184.5
1014.9761	2883.152	3054.2	2171.35
1015.0925	2884.2821	3038.3	2159.85
1015.2089	2885.4116	3034.55	2153.75
1015.3253	2886.5405	3045.1	2166.2
1015.4416	2887.6686	3059.45	2175.35
1015.5579	2888.7962	3061.55	2182.5
1015.6741	2889.923	3055.55	2176.4
1015.7903	2891.0493	3070.95	2190.8
1015.9065	2892.1748	3083.65	2203.95
1016.0226	2893.2997	3084.95	2206.2
1016.1387	2894.424	3104	2224.15
1016.2547	2895.5476	3119.75	2240.6
1016.3707	2896.6706	3115.25	2236.45
1016.4866	2897.7929	3166.3	2285.05
1016.6025	2898.9145	3180.95	2302.05
1016.7184	2900.0355	3205.6	2323.5
1016.8342	2901.1559	3220.7	2338.85
1016.95	2902.2756	3238.7	2354.3
1017.0658	2903.3946	3270.3	2390
1017.1815	2904.513	3295.1	2411.8
1017.2971	2905.6308	3315.8	2434.6
1017.4127	2906.7479	3347.4	2469
1017.5283	2907.8643	3353.35	2473.3
1017.6439	2908.9801	3369.75	2490.8
1017.7594	2910.0953	3379.15	2503.8
1017.8748	2911.2098	3382.5	2500.5
1017.9902	2912.3236	3384.65	2498.6
1018.1056	2913.4368	3367.65	2485.2
1018.2209	2914.5494	3343.1	2463.45
1018.3362	2915.6613	3312.4	2425.6
1018.4515	2916.7725	3300.95	2418.25
1018.5667	2917.8831	3268.25	2386.55
1018.6819	2918.9931	3249.75	2368.1
1018.797	2920.1024	3212	2330.95
1018.9121	2921.211	3200.95	2321.3
1019.0271	2922.319	3169.45	2288.45
1019.1421	2923.4264	3164.9	2286.35
1019.2571	2924.5331	3168.15	2291.25
1019.372	2925.6391	3158.65	2279.8
1019.4869	2926.7445	3161.35	2283.25
1019.6017	2927.8493	3172.8	2293.1
1019.7165	2928.9534	3181.5	2303.8
1019.8313	2930.0569	3172	2287.55
1019.946	2931.1597	3180.55	2299.2
1020.0606	2932.2619	3177.55	2297.85
1020.1753	2933.3634	3181.35	2301.8
1020.2899	2934.4643	3188.65	2300.2
1020.4044	2935.5645	3185.75	2300.45
1020.5189	2936.6641	3165.95	2282.65
1020.6334	2937.763	3128.5	2252.75
1020.7478	2938.8613	3095.6	2215.75
1020.8622	2939.959	3062.25	2178.55
1020.9765	2941.056	3014.45	2136.15
1021.0908	2942.1523	2952.15	2070
1021.2051	2943.248	2880.95	2001.35
1021.3193	2944.3431	2812.8	1936.05
1021.4334	2945.4375	2731	1849.55
1021.5476	2946.5313	2636.55	1758.65
1021.6617	2947.6244	2560.15	1681.45
1021.7757	2948.7169	2465.85	1585.55
1021.8897	2949.8087	2384	1505.35
1022.0037	2950.8999	2302.1	1424.45
1022.1176	2951.9904	2225.7	1348.45
1022.2315	2953.0803	2175.9	1296.05
1022.3453	2954.1696	2124.55	1244.75
1022.4591	2955.2582	2076.4	1197.35
1022.5728	2956.3462	2031.6	1152.1
1022.6865	2957.4335	2002.8	1122.9
1022.8002	2958.5202	1970.3	1088.1
1022.9138	2959.6062	1940.6	1061.3
1023.0274	2960.6916	1920.9	1041.05
1023.141	2961.7764	1917.9	1037.75
1023.2545	2962.8605	1890.15	1012
1023.3679	2963.9439	1880.85	1002.25
1023.4813	2965.0267	1869.5	989.2
1023.5947	2966.1089	1877.8	977.35
1023.708	2967.1905	1861.7	982.9
1023.8213	2968.2714	1850.2	972.85
1023.9346	2969.3516	1848.05	967.5
1024.0478	2970.4312	1862.6	977.4
1024.1609	2971.5102	1861.75	982.6
1024.274	2972.5885	1861.9	983.5
1024.3871	2973.6662	1867.65	983.15
1024.5002	2974.7432	1866.5	989.65
1024.6132	2975.8196	1873.7	994.75
1024.7261	2976.8954	1870	991.65
1024.839	2977.9705	1864.05	984.65
1024.9519	2979.045	1845.1	967.95
1025.0647	2980.1188	1839.85	958.6
1025.1775	2981.192	1819.45	939.8
1025.2902	2982.2645	1803.05	924.8
1025.4029	2983.3364	1784.1	906.25
1025.5156	2984.4077	1756.9	877.35
1025.6282	2985.4783	1738.65	855.75
1025.7407	2986.5483	1710.9	832.5
1025.8532	2987.6177	1678.9	802
1025.9657	2988.6864	1652.55	774
1026.0782	2989.7545	1622.4	741.65
1026.1906	2990.8219	1595	716.1
1026.3029	2991.8887	1570.2	689.4
1026.4152	2992.9548	1532.15	652.75
1026.5275	2994.0204	1511.35	633.15
1026.6397	2995.0852	1479.25	601.9
1026.7519	2996.1495	1458.25	577.25
1026.864	2997.2131	1438.25	560.35
1026.9761	2998.276	1418	539.4
1027.0882	2999.3383	1397	518.4
1027.2002	3000.4	1373.1	496.15
1027.3122	3001.4611	1369.1	488.55
1027.4241	3002.5215	1347.35	468.7
1027.536	3003.5812	1331.9	453.75
1027.6478	3004.6404	1316.55	437.45
1027.7596	3005.6989	1304.85	425.85
1027.8714	3006.7567	1291	412.25
1027.9831	3007.8139	1309.85	401.35
1028.0947	3008.8705	1280	401.15
1028.2064	3009.9264	1274.95	394.05
1028.3179	3010.9818	1261.4	382.4
1028.4295	3012.0364	1258.75	380.7
1028.541	3013.0905	1249.7	370.8
1028.6524	3014.1439	1249.25	370.75
1028.7638	3015.1966	1238.9	360.7
1028.8752	3016.2487	1234.55	356.6
1028.9865	3017.3002	1234.15	352.4
1029.0978	3018.3511	1223.95	346.15
1029.209	3019.4013	1230.15	351.75
1029.3202	3020.4509	1222.25	342.55
1029.4314	3021.4998	1222.2	343.3
1029.5425	3022.5481	1222.5	345.95
1029.6535	3023.5958	1217.2	340.15
1029.7645	3024.6428	1218.35	338.4
1029.8755	3025.6892	1213.65	335.9
1029.9864	3026.735	1214.7	334.1
1030.0973	3027.7802	1214.65	337.9
1030.2082	3028.8247	1213.5	335.6
1030.319	3029.8685	1210.65	334
1030.4297	3030.9118	1211.85	333.3
1030.5404	3031.9544	1217.2	339.9
1030.6511	3032.9963	1222.55	343.9
1030.7617	3034.0376	1216.25	339.95
1030.8723	3035.0783	1222.05	340.95
1030.9829	3036.1184	1223.2	343.1
1031.0934	3037.1578	1218.3	340.1
1031.2038	3038.1966	1228.9	349.6
1031.3142	3039.2348	1226.7	347.1
1031.4246	3040.2723	1230.75	343
1031.5349	3041.3092	1224.75	347
1031.6452	3042.3455	1227.5	348
1031.7554	3043.3811	1228.15	349.85
1031.8656	3044.4161	1227.1	349.6
1031.9758	3045.4505	1227.8	351.2
1032.0859	3046.4842	1222	345.7
1032.1959	3047.5173	1217.6	340.8
1032.3059	3048.5498	1213.95	336.3
1032.4159	3049.5816	1215.8	336.7
1032.5258	3050.6128	1214	335.85
1032.6357	3051.6434	1211.95	332.75
1032.7455	3052.6734	1214.4	335.5
1032.8553	3053.7027	1211.4	333.35
1032.9651	3054.7314	1202.35	326.2
1033.0748	3055.7594	1204.95	328.95
1033.1845	3056.7868	1199.3	321.9
1033.2941	3057.8136	1196.9	320.65
1033.4037	3058.8398	1196.55	319.7
1033.5132	3059.8653	1192.7	314.9
1033.6227	3060.8902	1188.3	312.8
1033.7321	3061.9145	1186.35	307.55
1033.8415	3062.9381	1189.35	311.25
1033.9509	3063.9612	1200.5	306.85
1034.0602	3064.9835	1182.2	302.5
1034.1694	3066.0053	1181.5	301.1
1034.2787	3067.0264	1179.65	304.25
1034.3878	3068.0469	1173	292.45
1034.497	3069.0668	1183.5	304
1034.6061	3070.086	1169.1	292.6
1034.7151	3071.1046	1165.4	288
1034.8241	3072.1226	1158.5	280.3
1034.9331	3073.1399	1153	273.6
1035.042	3074.1567	1149.25	272.5
1035.1508	3075.1727	1146.35	266.05
1035.2597	3076.1882	1139.6	260.2
1035.3684	3077.203	1129.15	251.55
1035.4772	3078.2173	1128.6	247.5
1035.5859	3079.2308	1125.65	246.95
1035.6945	3080.2438	1121.5	240.6
1035.8031	3081.2561	1103.75	225.25
1035.9117	3082.2678	1106.05	231.05
1036.0202	3083.2789	1103.8	224.75
1036.1286	3084.2893	1093.5	217.85
1036.2371	3085.2991	1089.25	212
1036.3454	3086.3083	1088.1	207.3
1036.4538	3087.3169	1084.45	205
1036.562	3088.3248	1076.15	195.9
1036.6703	3089.3321	1073.2	194.85
1036.7785	3090.3388	1070.1	193.3
1036.8866	3091.3449	1067.2	188.75
1036.9948	3092.3503	1071.35	192.8
1037.1028	3093.3551	1061.8	186.9
1037.2108	3094.3593	1059.85	183.25
1037.3188	3095.3629	1054.15	177.55
1037.4267	3096.3658	1054.25	177.25
1037.5346	3097.3681	1050.95	174.85
1037.6425	3098.3698	1053.7	172.85
1037.7503	3099.3708	1055.25	171.6
1037.858	3100.3713	1043.7	168.7
1037.9657	3101.3711	1042.95	164.75
1038.0734	3102.3702	1155.95	162.95
1038.181	3103.3688	1036.45	158.1
1038.2886	3104.3667	1033.7	157.1
1038.3961	3105.364	1036.05	158.95
1038.5036	3106.3607	1032.9	153.9
1038.611	3107.3568	1028.7	150.15
1038.7184	3108.3522	1022.2	147.15
1038.8257	3109.347	1026.85	148.6
1038.933	3110.3412	1026.05	146.45
1039.0403	3111.3348	1024.2	146.25
1039.1475	3112.3277	1021.9	144.9
1039.2547	3113.32	1018.95	143
1039.3618	3114.3117	1016.05	136.95
1039.4689	3115.3028	1020.6	142.4
1039.5759	3116.2932	1012.95	132.7
1039.6829	3117.2831	1017.35	134.95
1039.7898	3118.2723	1012.05	136
1039.8967	3119.2608	1008.55	130.9
1040.0035	3120.2488	1007.7	129.25
1040.1103	3121.2361	1006.6	129.8
1040.2171	3122.2229	1007	129.55
1040.3238	3123.209	1004.05	125.5
1040.4305	3124.1944	1004.5	126.15
1040.5371	3125.1793	1004.3	129.25
1040.6437	3126.1635	999.4	122.35
1040.7502	3127.1471	998.95	120.9
1040.8567	3128.1301	997.45	120.75
1040.9631	3129.1125	992.95	116
1041.0695	3130.0942	994.15	116.15
1041.1759	3131.0753	1001.45	115.15
1041.2822	3132.0558	995.25	115.5
1041.3884	3133.0357	993.25	114.5
1041.4946	3134.015	988.3	109.9
1041.6008	3134.9936	989.45	109.55
1041.7069	3135.9716	1008.5	110.7
1041.813	3136.949	986.85	111.25
1041.919	3137.9258	1005.25	109.75
1042.025	3138.902	993	113
1042.1309	3139.8775	986.15	110.25
1042.2368	3140.8524	984.05	106.6
1042.3427	3141.8267	986.6	108.85
1042.4485	3142.8004	981.6	103.1
1042.5542	3143.7735	991.15	106.75
1042.6599	3144.7459	984.65	106.2
1042.7656	3145.7178	981.25	104.6
1042.8712	3146.689	975.75	97.8
1042.9768	3147.6596	982.95	105.35
1043.0823	3148.6295	978.55	100.35
1043.1878	3149.5989	980.55	102.45
1043.2932	3150.5676	974.65	99.65
1043.3986	3151.5357	974.1	100.15
1043.5039	3152.5032	975.3	100.15
1043.6092	3153.4701	972.7	95.35
1043.7145	3154.4364	973.5	94.65
1043.8197	3155.402	970.75	94.9
1043.9248	3156.367	971.55	92.2
1044.03	3157.3315	1010.9	100.85
1044.135	3158.2952	974.45	97.9
1044.24	3159.2584	969.75	91.85
1044.345	3160.221	969.8	93.1
1044.4499	3161.1829	967.35	88.45
1044.5548	3162.1442	969.25	91.1
1044.6596	3163.105	969	92.3
1044.7644	3164.065	967.45	89.7
1044.8692	3165.0245	968.45	87.6
1044.9739	3165.9834	963.95	88.2
1045.0785	3166.9416	965.95	90.8
1045.1831	3167.8993	966.3	88.5
1045.2877	3168.8563	964.55	86.3
1045.3922	3169.8127	965.25	90.25
1045.4966	3170.7684	964.7	87.15
1045.6011	3171.7236	964.95	88.85
1045.7054	3172.6782	962.05	84.4
1045.8098	3173.6321	958.35	84.1
1045.914	3174.5854	964.4	83
1046.0183	3175.5381	963.25	85.6
1046.1224	3176.4902	959.75	82.8
1046.2266	3177.4417	956.8	79.55
1046.3307	3178.3926	955.05	78.45
1046.4347	3179.3428	957	83.3
1046.5387	3180.2924	957.45	81.9
1046.6427	3181.2415	957	82.35
1046.7466	3182.1899	957.8	78.05
1046.8504	3183.1377	956.1	79.7
1046.9542	3184.0848	958.75	78.8
1047.058	3185.0314	956.65	78
1047.1617	3185.9773	953.8	76.85
1047.2654	3186.9227	954.8	77.95
1047.369	3187.8674	952.85	76.2
1047.4726	3188.8115	958.8	78.05
1047.5761	3189.755	950.4	75.1
1047.6796	3190.6979	950.55	73.2
1047.783	3191.6402	949.65	73.95
1047.8864	3192.5818	949.2	72.75
1047.9898	3193.5229	959.25	77.7
1048.0931	3194.4633	951.05	75.25
1048.1963	3195.4031	947.65	68.05
1048.2995	3196.3423	949.25	71.55
1048.4027	3197.2809	946.55	69.45
1048.5058	3198.2189	945.9	68.9
1048.6089	3199.1563	965.05	71
1048.7119	3200.0931	946.5	71.1
1048.8148	3201.0292	944.95	69.5
1048.9178	3201.9648	948	71.5
1049.0206	3202.8997	950.85	73.35
1049.1235	3203.834	946.95	68.25
1049.2262	3204.7677	944.05	66.65
1049.329	3205.7008	946.4	67.95
1049.4317	3206.6333	944.25	68.55
1049.5343	3207.5652	946.15	67.8
1049.6369	3208.4964	943.25	65.9
1049.7394	3209.4271	944	68.5
1049.8419	3210.3571	941.9	67.7
1049.9444	3211.2865	943	66.8
1050.0468	3212.2154	942.5	64.7
1050.1491	3213.1436	944.9	66.3
1050.2514	3214.0712	948.35	64.05
1050.3537	3214.9982	938.35	64.2
1050.4559	3215.9246	936.8	57.7
1050.5581	3216.8503	937.45	60.3
1050.6602	3217.7755	937.8	61.55
1050.7623	3218.7001	939	62.7
1050.8643	3219.624	943	67.55
1050.9663	3220.5473	938.35	62.3
1051.0682	3221.4701	938.6	61.55
1051.1701	3222.3922	937.3	57.95
1051.2719	3223.3137	937.55	61.9
1051.3737	3224.2346	936.9	60.65
1051.4754	3225.1549	937.75	61.7
1051.5771	3226.0746	937.95	60.1
1051.6788	3226.9937	940.05	62.45
1051.7804	3227.9121	937.1	62.15
1051.8819	3228.83	936.55	61.45
1051.9834	3229.7473	935.45	58.7
1052.0849	3230.6639	933.75	58.1
1052.1863	3231.5799	934.35	56.85
1052.2876	3232.4954	932.45	55.2
1052.3889	3233.4102	931.65	55.6
1052.4902	3234.3244	932.95	55.35
1052.5914	3235.238	929.45	54.6
1052.6926	3236.151	955.3	56.45
1052.7937	3237.0634	930.85	54.95
1052.8948	3237.9752	930.05	54.5
1052.9958	3238.8864	932.45	54.95
1053.0968	3239.797	928.45	51.8
1053.1977	3240.7069	930.6	54.6
1053.2986	3241.6163	930.9	54.15
1053.3994	3242.5251	930.35	56.25
1053.5002	3243.4332	928	53.3
1053.6009	3244.3408	929.25	53
1053.7016	3245.2477	926.7	51.05
1053.8022	3246.154	930.45	52.65
1053.9028	3247.0598	928.25	51.05
1054.0034	3247.9649	927.4	48.9
1054.1039	3248.8694	926.7	51
1054.2043	3249.7733	924.65	48.95
1054.3047	3250.6766	925	47.85
1054.4051	3251.5793	925.4	49.45
1054.5054	3252.4814	923.5	48.3
1054.6056	3253.3829	925.4	50.35
1054.7058	3254.2838	922.25	47.45
1054.806	3255.1841	924	47.15
1054.9061	3256.0838	922.55	46.45
1055.0061	3256.9829	921.15	45.4
1055.1062	3257.8814	923.85	46.1
1055.2061	3258.7792	923.1	44
1055.306	3259.6765	923.3	45.35
1055.4059	3260.5731	921.55	45.15
1055.5057	3261.4692	920.05	43.75
1055.6055	3262.3647	918.2	41.15
1055.7052	3263.2595	917.35	40.75
1055.8049	3264.1538	920.45	44.65
1055.9045	3265.0474	917.6	44.8
1056.0041	3265.9404	917.2	39.55
1056.1036	3266.8329	915.25	40.85
1056.2031	3267.7247	923	37.05
1056.3025	3268.616	912.25	37.85
1056.4019	3269.5066	912.95	39.15
1056.5013	3270.3966	914.75	38.05
1056.6005	3271.286	910.55	36.25
