Software Version:	3.9.2.0
Unit SN:	10000200
Spectrometer SN:	6960
Date:	3/8/2024 2:17:56 PM
Data Line Index:	25
Spectral Points:	2048
Integration time (ms):	125
Averages:	20
Delay (ms):	30000
Sequence Number:	1
Processing:	dark subtract
Laser Power (mW):	300
Laser Current (mA):	823
Laser Diode Temp (C):	25
Laser Case Temp (C):	26.2
System Temp (C):	26.2
Spectrometer Temp (C):	24.1
CCD Temp (C):	0.005
Secondary Temp (C):	20.008
Heatsink Temp (C):	20.62
CCDPCB Temp (C):	36.307
SecondaryPCB Temp (C):	32.35

Wavelength	RamanShift	Raw Counts	Dark Subtracted
787.061	30.1047	459.75	53
787.2016	32.3739	461.75	56.15
787.3422	34.6426	468.8	63.75
787.4828	36.9109	473.95	65.5
787.6235	39.1787	484.8	72.85
787.7642	41.4461	493.65	78.5
787.9049	43.7131	502.3	81.65
788.0456	45.9796	507.15	85.3
788.1863	48.2456	523.3	96.8
788.3271	50.5112	527.6	96.15
788.4679	52.7764	538.5	102.7
788.6087	55.0411	548.4	108.35
788.7496	57.3054	565.45	121.3
788.8904	59.5692	572.25	124.45
789.0313	61.8326	574.85	128.25
789.1722	64.0955	596.2	145.85
789.3132	66.3579	611.9	154.55
789.4541	68.6199	632.6	173.8
789.5951	70.8815	673.15	207.5
789.7361	73.1426	754.8	284.65
789.8771	75.4032	965	491.5
790.0181	77.6634	1486.6	1007.4
790.1592	79.9231	2698.85	2214.3
790.3003	82.1824	5355.7	4856.65
790.4414	84.4412	10120.2	9593.05
790.5825	86.6995	16627.45	16063.2
790.7237	88.9574	22991.25	22395.6
790.8648	91.2148	27429.15	26813.65
791.006	93.4717	29486.15	28855.4
791.1472	95.7282	29970.75	29333
791.2885	97.9842	29892.05	29248.95
791.4297	100.2398	29436.65	28791.65
791.571	102.4949	28843	28194.85
791.7123	104.7495	28177	27525.3
791.8536	107.0036	27385.45	26734.65
791.9949	109.2573	26637.3	25988.3
792.1363	111.5105	25906.7	25250.2
792.2777	113.7632	25231.95	24579.2
792.4191	116.0154	24642.7	23978.2
792.5605	118.2672	24177.75	23515.6
792.7019	120.5185	23691.35	23029.55
792.8434	122.7693	23336.35	22671.7
792.9849	125.0197	23057.55	22388.65
793.1264	127.2696	22769.1	22101
793.2679	129.519	22635.6	21960.95
793.4094	131.7679	22458.85	21779.25
793.551	134.0163	22305.85	21619.6
793.6926	136.2642	22151.35	21465.9
793.8342	138.5117	21962.65	21269.9
793.9758	140.7587	21781.15	21095.15
794.1175	143.0052	21605.55	20914
794.2591	145.2512	21379.95	20688.75
794.4008	147.4967	21201.1	20504.75
794.5425	149.7417	21072.2	20377.3
794.6842	151.9863	20951.7	20251.85
794.826	154.2304	20875	20169.55
794.9677	156.4739	20773.5	20066.7
795.1095	158.717	20704.1	19992.1
795.2513	160.9596	20560.15	19844.7
795.3931	163.2017	20314.4	19599
795.535	165.4433	20050.15	19331.1
795.6768	167.6844	19701.15	18979.95
795.8187	169.925	19409.35	18686.6
795.9606	172.1651	19055.8	18333.8
796.1025	174.4047	18807	18075.55
796.2445	176.6439	18534.3	17805.95
796.3864	178.8825	18324.3	17594.35
796.5284	181.1206	18178.05	17442.35
796.6704	183.3582	18029.25	17289.2
796.8124	185.5954	17912.9	17170.1
796.9544	187.832	17834.9	17085.25
797.0965	190.0681	17838.3	17085.75
797.2386	192.3037	17819.65	17063.45
797.3806	194.5388	17841.55	17084.05
797.5228	196.7734	17904.4	17149.5
797.6649	199.0075	17999.9	17243.7
797.807	201.2411	18147.05	17387.25
797.9492	203.4742	18177.45	17415.45
798.0914	205.7068	18370.85	17602.75
798.2336	207.9389	18503.85	17740.9
798.3758	210.1704	18649.95	17893.1
798.518	212.4015	18775.75	18031.25
798.6603	214.632	18915.4	18168
798.8025	216.862	19175.35	18427.85
798.9448	219.0915	19331.1	18584.25
799.0871	221.3205	19576.1	18829.7
799.2294	223.549	19859.45	19112.45
799.3718	225.777	20155.85	19409.9
799.5141	228.0044	20578.4	19821.15
799.6565	230.2314	21070.35	20314.65
799.7989	232.4578	21496.2	20738.1
799.9413	234.6837	21896.9	21130.85
800.0837	236.909	22135.3	21366.4
800.2262	239.1339	22123	21325.1
800.3687	241.3582	21878.9	21100.75
800.5111	243.582	21559.95	20746.9
800.6536	245.8053	21225.4	20428.05
800.7961	248.0281	20906.3	20112.35
800.9387	250.2503	20633.8	19838.3
801.0812	252.472	20506.7	19713.8
801.2238	254.6932	20448.4	19654.1
801.3664	256.9139	20348.85	19551.85
801.509	259.134	20292.8	19490.6
801.6516	261.3536	20313.5	19513.1
801.7942	263.5727	20363.6	19563.75
801.9369	265.7912	20282.35	19482.45
802.0795	268.0092	20272.05	19474.6
802.2222	270.2267	20250.05	19449.45
802.3649	272.4436	20245.5	19439.7
802.5076	274.6601	20167.55	19355.25
802.6504	276.8759	20093	19286.65
802.7931	279.0913	20112.75	19309.1
802.9359	281.3061	20059.4	19249.35
803.0787	283.5204	20203.5	19389.95
803.2215	285.7341	20303.3	19489
803.3643	287.9473	20488.35	19663.2
803.5071	290.16	20734.2	19918.35
803.6499	292.3721	21013.9	20204.05
803.7928	294.5837	21468.4	20654.85
803.9357	296.7947	21834.2	21015.35
804.0786	299.0052	22058.35	21244.75
804.2215	301.2152	21925.55	21112.35
804.3644	303.4246	21570.25	20755.25
804.5074	305.6334	21048.1	20237.25
804.6503	307.8418	20567.7	19752.7
804.7933	310.0495	20127.8	19308.25
804.9363	312.2568	19862.9	19042.6
805.0793	314.4635	19631.35	18808.25
805.2223	316.6696	19568.1	18744.15
805.3653	318.8752	19537.55	18704.6
805.5084	321.0802	19615.05	18791.25
805.6514	323.2847	19724.5	18896.8
805.7945	325.4887	19780.55	18948
805.9376	327.692	19715.8	18884.6
806.0807	329.8949	19664.15	18836.8
806.2238	332.0972	19389.2	18555.6
806.367	334.2989	19125.1	18289.45
806.5101	336.5001	18853.6	18020.4
806.6533	338.7007	18658.65	17824.75
806.7965	340.9008	18549.5	17710.75
806.9397	343.1003	18449.8	17611.85
807.0829	345.2992	18408.15	17566.95
807.2261	347.4976	18396.5	17555.3
807.3693	349.6955	18419.9	17576.05
807.5126	351.8927	18508.15	17663.15
807.6559	354.0895	18486.05	17626.35
807.7991	356.2856	18559.55	17708.75
807.9424	358.4812	18584.7	17733.75
808.0857	360.6763	18616.8	17764.4
808.2291	362.8707	18588.75	17735.5
808.3724	365.0646	18644.1	17791.9
808.5158	367.258	18641.5	17787.15
808.6591	369.4508	18638.4	17781.6
808.8025	371.643	18767	17907.05
808.9459	373.8346	18730.95	17871.7
809.0893	376.0257	18765.6	17901.6
809.2327	378.2162	18639	17780.65
809.3762	380.4062	18567.1	17709.9
809.5196	382.5956	18414.8	17561.65
809.6631	384.7844	18338.2	17485.8
809.8066	386.9726	18239.75	17391.45
809.9501	389.1603	18179.5	17330.65
810.0936	391.3474	18190.9	17315.7
810.2371	393.5339	18140.2	17286.1
810.3806	395.7199	18097.65	17244.5
810.5241	397.9052	18149.7	17293.9
810.6677	400.09	18169.75	17316.85
810.8113	402.2743	18231.4	17377.4
810.9548	404.4579	18334	17478.6
811.0984	406.641	18487.75	17633
811.2421	408.8235	18720.75	17864.15
811.3857	411.0054	19024.8	18160.95
811.5293	413.1868	19509.05	18640.8
811.673	415.3675	19890.05	19020.9
811.8166	417.5477	20099	19229.95
811.9603	419.7273	20128.35	19259.75
812.104	421.9064	20032.45	19159.65
812.2477	424.0848	19936.7	19067.05
812.3914	426.2627	19700.2	18832.55
812.5351	428.4399	19392.95	18523.25
812.6788	430.6166	19083.7	18207.75
812.8226	432.7928	18690.55	17814.15
812.9663	434.9683	18388.45	17521.15
813.1101	437.1432	18160	17289.6
813.2539	439.3176	18007.8	17142.6
813.3977	441.4914	17878.9	17013.35
813.5415	443.6645	17897.25	17033.75
813.6853	445.8371	17809.95	16940.2
813.8291	448.0091	17758.55	16889.25
813.973	450.1806	17746.8	16879.65
814.1168	452.3514	17672.15	16807.3
814.2607	454.5216	17720.95	16846
814.4046	456.6913	17615.05	16743.55
814.5485	458.8603	17656.05	16786.8
814.6924	461.0288	17741.7	16877.45
814.8363	463.1967	17760.85	16895.8
814.9802	465.3639	17873.65	17006.75
815.1241	467.5306	18016.2	17147.65
815.2681	469.6967	18185.9	17320
815.412	471.8622	18333.1	17468.5
815.556	474.0271	18494.1	17630.9
815.7	476.1914	18581.95	17707.55
815.844	478.3551	18583.75	17711.35
815.988	480.5182	18611.95	17742.2
816.132	482.6807	18577.1	17713
816.276	484.8426	18689.15	17831.65
816.4201	487.0039	18952.45	18087.65
816.5641	489.1647	19360.85	18492.6
816.7082	491.3248	19815.65	18941.6
816.8522	493.4843	20010.85	19141.6
816.9963	495.6432	20022.45	19153.1
817.1404	497.8015	19985.35	19100.85
817.2845	499.9592	20020.3	19133.9
817.4286	502.1163	19924.85	19039.7
817.5727	504.2728	19720.95	18843.85
817.7168	506.4287	19446.35	18583.8
817.861	508.5839	18993	18127.15
818.0051	510.7386	18689.75	17814.95
818.1493	512.8927	18514	17627.25
818.2935	515.0461	18440.4	17558.45
818.4377	517.199	18363.65	17480.8
818.5818	519.3512	18372.25	17487.95
818.726	521.5029	18445.1	17559.05
818.8703	523.6539	18510.1	17628.1
819.0145	525.8043	18523.35	17640.85
819.1587	527.9541	18555.55	17671.9
819.303	530.1033	18573.4	17692.9
819.4472	532.2519	18637.4	17755.75
819.5915	534.3999	18748.5	17861.85
819.7357	536.5472	19109.75	18226.75
819.88	538.694	19552.65	18674.3
820.0243	540.8401	20204.3	19324.1
820.1686	542.9856	20708	19818.05
820.3129	545.1305	20870.25	19974.25
820.4572	547.2748	20778.3	19879.45
820.6016	549.4185	20366.05	19465.35
820.7459	551.5615	20032.75	19133
820.8902	553.704	19908.25	19013.05
821.0346	555.8458	19856.05	18963.05
821.1789	557.987	19855.55	18964.55
821.3233	560.1276	19812.05	18917.05
821.4677	562.2675	19854.3	18955.65
821.6121	564.4069	19845.15	18948.9
821.7565	566.5456	19823.6	18932.5
821.9009	568.6837	19736.2	18841.8
822.0453	570.8212	19453.8	18562.2
822.1897	572.958	19133.6	18239.4
822.3342	575.0942	18889.35	18000.45
822.4786	577.2299	18731.65	17844.25
822.6231	579.3648	18732.4	17858.85
822.7675	581.4992	18806.55	17940.4
822.912	583.6329	19016.25	18148.3
823.0565	585.766	19250.85	18376.5
823.201	587.8985	19364.6	18485.2
823.3454	590.0304	19413.25	18515.85
823.4899	592.1616	19372.95	18478.8
823.6345	594.2922	19244.4	18348.6
823.779	596.4222	19147	18245.6
823.9235	598.5515	18986.05	18086.2
824.068	600.6802	18835.85	17935.85
824.2126	602.8083	18646.3	17752.3
824.3571	604.9358	18559.5	17662.35
824.5017	607.0626	18511.05	17611.2
824.6462	609.1888	18498.85	17589.75
824.7908	611.3144	18474.65	17564.7
824.9354	613.4393	18370.7	17466.95
825.08	615.5636	18254.9	17348.25
825.2246	617.6873	18150.55	17244.15
825.3692	619.8103	18124.75	17217.4
825.5138	621.9327	18055.8	17154.1
825.6584	624.0544	17981.15	17084.35
825.803	626.1756	18011.25	17116.55
825.9477	628.2961	17980.45	17079.6
826.0923	630.4159	17905.45	17002.8
826.237	632.5351	17915.2	17010.25
826.3816	634.6537	17853.5	16942.3
826.5263	636.7716	17865.4	16952.5
826.6709	638.8889	17895.3	16984.45
826.8156	641.0056	17930.8	17017.6
826.9603	643.1216	17918.6	17008.55
827.105	645.237	17969.75	17061.25
827.2497	647.3518	17960.25	17058.2
827.3944	649.4659	18006.55	17107.85
827.5391	651.5793	17990.35	17092.55
827.6838	653.6922	17995.95	17098
827.8285	655.8043	17980.75	17077.7
827.9733	657.9159	18011.6	17108.95
828.118	660.0268	17911.35	17003.65
828.2627	662.137	17892.85	16986.05
828.4075	664.2466	17878	16966.4
828.5522	666.3556	17853.15	16942.7
828.697	668.4639	17851.6	16944.15
828.8418	670.5716	17907.2	17007.35
828.9865	672.6786	17978.7	17070.7
829.1313	674.785	18090.95	17173.6
829.2761	676.8907	18130.9	17221.05
829.4209	678.9958	18234.45	17333.2
829.5657	681.1002	18210.4	17305.65
829.7105	683.204	18231.6	17316
829.8553	685.3072	18159.8	17243.5
830.0001	687.4097	18150.85	17237.2
830.1449	689.5115	18078.55	17160.35
830.2898	691.6127	18056.6	17148.5
830.4346	693.7132	17983.4	17078.6
830.5794	695.8131	17937.7	17008.65
830.7243	697.9123	17942.4	17025.65
830.8691	700.0109	17918.95	17001.25
831.014	702.1089	17943.2	17027.6
831.1588	704.2061	17916.5	17005.55
831.3037	706.3028	17958.85	17044.25
831.4486	708.3987	18054.45	17137.85
831.5935	710.4941	18156.65	17241.5
831.7383	712.5887	18367.4	17451.05
831.8832	714.6827	18667.9	17750.5
832.0281	716.7761	18999.05	18087.25
832.173	718.8688	19370.3	18454.5
832.3179	720.9608	19590.5	18665.75
832.4628	723.0522	19688.05	18762.9
832.6077	725.1429	19475	18556.15
832.7527	727.233	19199.4	18278.45
832.8976	729.3224	18941.6	18022.2
833.0425	731.4112	18660.75	17742.65
833.1874	733.4993	18477.7	17562.35
833.3324	735.5867	18298.25	17380.6
833.4773	737.6735	18282.5	17363.45
833.6222	739.7596	18190.4	17269.15
833.7672	741.845	18154.75	17237.95
833.9122	743.9298	18100.65	17181.75
834.0571	746.014	18157.35	17238.65
834.2021	748.0974	18172.95	17246.1
834.347	750.1802	18188.6	17265.45
834.492	752.2624	18147.05	17221.1
834.637	754.3439	18185.3	17260.85
834.782	756.4247	18286.3	17356.4
834.9269	758.5048	18365.1	17442
835.0719	760.5843	18590.55	17665.35
835.2169	762.6631	18867.4	17942.15
835.3619	764.7413	19310.05	18386.9
835.5069	766.8188	19941.65	19015.55
835.6519	768.8956	20383.55	19459.15
835.7969	770.9718	20715.75	19791.4
835.9419	773.0473	20544.1	19618.95
836.0869	775.1221	20236.05	19312.2
836.232	777.1962	19865.9	18943
836.377	779.2697	19668.95	18741.45
836.522	781.3426	19750.65	18806.55
836.667	783.4147	20012.95	19083.8
836.8121	785.4862	20332.7	19405.95
836.9571	787.557	20397.75	19471.1
837.1021	789.6271	20036.75	19106.25
837.2472	791.6966	19493	18569.15
837.3922	793.7654	19007.85	18078.9
837.5373	795.8335	18732.25	17805.7
837.6823	797.901	18551.2	17626.35
837.8274	799.9678	18467.35	17534.45
837.9724	802.0339	18488.45	17561.45
838.1175	804.0993	18542.6	17598.55
838.2626	806.1641	18548.15	17618.55
838.4076	808.2282	18494.85	17564.45
838.5527	810.2916	18454.95	17527.45
838.6978	812.3544	18333.7	17408.15
838.8428	814.4164	18238.65	17313.8
838.9879	816.4778	18294.4	17362.95
839.133	818.5385	18266.25	17335.3
839.2781	820.5986	18374.5	17442
839.4232	822.658	18465.95	17531.5
839.5682	824.7166	18559.45	17632.4
839.7133	826.7747	18821.05	17889.65
839.8584	828.832	18981.75	18048.6
840.0035	830.8886	19080.8	18147.05
840.1486	832.9446	19256.55	18322.4
840.2937	834.9999	19319	18388.6
840.4388	837.0545	19330.95	18398.05
840.5839	839.1085	19345	18409.35
840.729	841.1618	19331.45	18395.55
840.8741	843.2143	19328.75	18396.85
841.0192	845.2662	19237.8	18304.85
841.1643	847.3175	19222.9	18291.65
841.3095	849.368	19116.65	18184.85
841.4546	851.4179	18977.95	18045.55
841.5997	853.467	18839.8	17908.2
841.7448	855.5155	18769.7	17836.6
841.8899	857.5633	18670.2	17738.5
842.0351	859.6105	18541.05	17608.55
842.1802	861.6569	18501.9	17568.65
842.3253	863.7027	18515.3	17579.3
842.4704	865.7478	18481.35	17544.75
842.6156	867.7922	18521.95	17588.15
842.7607	869.8359	18575.35	17642.9
842.9058	871.8789	18674.9	17738.4
843.0509	873.9212	18870.9	17904.95
843.1961	875.9629	18988.5	18050.55
843.3412	878.0039	19188.3	18253.4
843.4863	880.0441	19344.45	18414.5
843.6315	882.0837	19364.55	18432.85
843.7766	884.1226	19299.5	18365.8
843.9218	886.1609	19134.65	18201.6
844.0669	888.1984	19076.95	18140.25
844.212	890.2352	19121.4	18184.85
844.3572	892.2714	19036.65	18098.7
844.5023	894.3069	19049.1	18110.9
844.6475	896.3416	18997.3	18058.9
844.7926	898.3757	18972.75	18034.35
844.9377	900.4091	18961.95	18021.3
845.0829	902.4418	19011.15	18065.7
845.228	904.4739	19034.8	18092.9
845.3732	906.5052	19037.15	18099.45
845.5183	908.5358	18938.95	18001.1
845.6635	910.5658	18808.4	17866.25
845.8086	912.595	18645.95	17703.25
845.9538	914.6236	18502.3	17562.95
846.0989	916.6515	18455.15	17518.8
846.2441	918.6786	18438.8	17497.8
846.3892	920.7051	18525.1	17583.9
846.5344	922.7309	18691.15	17751.85
846.6795	924.756	18713.55	17777.2
846.8246	926.7804	18845.15	17909
846.9698	928.8041	18775.7	17835.15
847.1149	930.8272	18819.3	17881.25
847.2601	932.8495	18746.2	17805.8
847.4052	934.8711	18694.75	17756
847.5504	936.892	18540.3	17603.3
847.6955	938.9123	18362	17420.3
847.8407	940.9318	18274.3	17340.9
847.9858	942.9506	18184.9	17246.75
848.131	944.9688	18106.15	17168
848.2761	946.9862	18045.4	17108.75
848.4213	949.003	17965.6	17025.1
848.5664	951.019	17971.75	17029.2
848.7115	953.0344	18011.3	17074
848.8567	955.0491	17998	17060.25
849.0018	957.063	18127.15	17186.65
849.147	959.0763	18272.05	17334.85
849.2921	961.0888	18275.1	17336.15
849.4373	963.1007	18402.15	17466.15
849.5824	965.1119	18465.05	17532
849.7275	967.1223	18475.35	17552.35
849.8727	969.1321	18520.35	17594.7
850.0178	971.1412	18572.4	17643.55
850.1629	973.1495	18581.8	17647.25
850.3081	975.1572	18665.5	17687.4
850.4532	977.1641	18688.1	17752.1
850.5983	979.1704	18667.65	17725.85
850.7435	981.1759	18624.65	17682.05
850.8886	983.1808	18700.7	17760.55
851.0337	985.1849	18816.15	17871.05
851.1788	987.1884	18952.45	18011.45
851.324	989.1911	19168.35	18230.7
851.4691	991.1932	19256.8	18318.2
851.6142	993.1945	19325.6	18388.15
851.7593	995.1951	19277.3	18341.3
851.9045	997.1951	19248.45	18303.55
852.0496	999.1943	19154.6	18215.65
852.1947	1001.1928	19116.35	18174.7
852.3398	1003.1906	19079.3	18141.7
852.4849	1005.1877	19156.85	18215.15
852.63	1007.1841	19113.9	18176.75
852.7751	1009.1798	19004.5	18070.45
852.9202	1011.1748	18851.65	17914.8
853.0653	1013.1691	18651.5	17713.5
853.2104	1015.1627	18423.8	17482.8
853.3555	1017.1556	18176.95	17239.5
853.5006	1019.1477	18122.55	17191.25
853.6457	1021.1392	18008.25	17078.45
853.7908	1023.1299	18008.75	17081.55
853.9359	1025.12	18002.25	17078.05
854.081	1027.1093	18059.05	17146.6
854.2261	1029.0979	18178.1	17269.05
854.3712	1031.0859	18198.05	17281.45
854.5163	1033.0731	18211.85	17286.5
854.6613	1035.0596	18148	17221
854.8064	1037.0454	17954.8	17023.55
854.9515	1039.0304	17877.45	16943.7
855.0965	1041.0148	17738.95	16806.2
855.2416	1042.9985	17622.45	16681.15
855.3867	1044.9814	17624.2	16687.55
855.5317	1046.9636	17541.75	16606.1
855.6768	1048.9452	17542.6	16607.35
855.8219	1050.926	17571.45	16634.35
855.9669	1052.9061	17567.2	16632.55
856.112	1054.8855	17555.55	16617.35
856.257	1056.8642	17589.55	16654.05
856.4021	1058.8421	17644.55	16703.25
856.5471	1060.8194	17667.75	16732
856.6921	1062.7959	17691.6	16755.45
856.8372	1064.7717	17709.85	16768.5
856.9822	1066.7469	17766.25	16827.15
857.1272	1068.7213	17715.5	16776.55
857.2723	1070.695	17707.7	16771.15
857.4173	1072.6679	17665.2	16728.55
857.5623	1074.6402	17618.35	16680.05
857.7073	1076.6117	17596.8	16653.85
857.8523	1078.5826	17630.2	16692.3
857.9973	1080.5527	17627.2	16686.55
858.1423	1082.5221	17731.6	16798.1
858.2873	1084.4908	17929.75	16991.1
858.4323	1086.4587	18094.5	17156.3
858.5773	1088.426	18211.15	17274.2
858.7223	1090.3925	18260	17318.1
858.8673	1092.3584	18225.45	17288.7
859.0123	1094.3235	18053.4	17115.5
859.1573	1096.2879	17975.4	17038.45
859.3022	1098.2515	17949.1	17012.8
859.4472	1100.2145	18036.85	17100.6
859.5922	1102.1767	18085.25	17147.7
859.7371	1104.1382	18212.45	17278.1
859.8821	1106.099	18449.55	17510.2
860.027	1108.0591	18633.9	17702.3
860.172	1110.0185	18759.15	17818.35
860.3169	1111.9771	18805.3	17869.35
860.4619	1113.9351	18577.25	17642.4
860.6068	1115.8923	18277	17340.05
860.7517	1117.8488	18001.1	17063.6
860.8967	1119.8045	17730.15	16795.2
861.0416	1121.7596	17600.55	16663.1
861.1865	1123.7139	17538.3	16606.3
861.3314	1125.6675	17521.4	16585.8
861.4763	1127.6204	17599.4	16663.75
861.6212	1129.5726	17586.5	16650.9
861.7661	1131.524	17587.8	16654.5
861.911	1133.4748	17598.75	16667.75
862.0559	1135.4248	17585.1	16646.15
862.2008	1137.3741	17590.15	16653.45
862.3457	1139.3226	17533.7	16595.85
862.4905	1141.2705	17550.25	16611.25
862.6354	1143.2176	17439.85	16497.75
862.7803	1145.164	17419.8	16483.35
862.9251	1147.1097	17435.55	16500.75
863.07	1149.0546	17412.85	16475.25
863.2148	1150.9989	17373.4	16436.2
863.3597	1152.9424	17205.3	16271.3
863.5045	1154.8852	17079.75	16142.7
863.6493	1156.8272	16920.5	15987.1
863.7942	1158.7686	16882.7	15942
863.939	1160.7092	16822.1	15886.3
864.0838	1162.6491	16800.6	15861.4
864.2286	1164.5883	16914.4	15981.95
864.3734	1166.5267	16989.4	16052.75
864.5182	1168.4644	17123.75	16188.1
864.663	1170.4014	17305.7	16365.85
864.8078	1172.3377	17532.95	16600.35
864.9526	1174.2732	17768.85	16836
865.0974	1176.2081	17975.2	17041.65
865.2421	1178.1421	18200.8	17265.85
865.3869	1180.0755	18431.45	17496.5
865.5317	1182.0082	18473.55	17540.3
865.6764	1183.9401	18498.1	17566.9
865.8212	1185.8713	18332.65	17406.4
865.9659	1187.8017	18079.9	17156.55
866.1106	1189.7315	17803.35	16891.9
866.2554	1191.6605	17520.9	16607.15
866.4001	1193.5888	17329	16410.75
866.5448	1195.5163	17195	16270.15
866.6895	1197.4432	17118.1	16185.85
866.8342	1199.3693	17087.6	16157.85
866.9789	1201.2947	16992.5	16053.95
867.1236	1203.2193	16961.75	16028.55
867.2683	1205.1432	17024.05	16091.7
867.413	1207.0664	17026.3	16094.65
867.5576	1208.9889	17032.45	16097.15
867.7023	1210.9106	17045.8	16116.8
867.847	1212.8316	17095.05	16167.3
867.9916	1214.7519	17175.85	16238.35
868.1363	1216.6715	17201.45	16269.5
868.2809	1218.5903	17199.1	16269.35
868.4255	1220.5084	17164.9	16235.35
868.5701	1222.4257	17181.15	16250.2
868.7148	1224.3424	17093.45	16165.5
868.8594	1226.2583	17139.4	16204.95
869.004	1228.1735	17201.3	16270.25
869.1486	1230.0879	17276.9	16342.85
869.2932	1232.0016	17383.35	16452.4
869.4377	1233.9146	17404	16471.75
869.5823	1235.8269	17337.85	16407.2
869.7269	1237.7384	17200.65	16268.4
869.8715	1239.6492	17017	16085.9
870.016	1241.5592	16900.75	15967.65
870.1606	1243.4686	16862.8	15931.9
870.3051	1245.3772	16793.65	15862.25
870.4496	1247.285	16748.75	15815
870.5941	1249.1922	16723.65	15793.4
870.7387	1251.0986	16712	15780.65
870.8832	1253.0042	16672.25	15741.85
871.0277	1254.9092	16779.55	15848.55
871.1722	1256.8134	16816.45	15888.25
871.3167	1258.7169	16980.9	16052
871.4611	1260.6196	17090.05	16163.55
871.6056	1262.5216	17300.3	16370
871.7501	1264.4229	17442.15	16515.15
871.8945	1266.3234	17558.6	16627.9
872.039	1268.2232	17636.5	16704.95
872.1834	1270.1223	17624.7	16691.25
872.3278	1272.0207	17655.5	16721.5
872.4723	1273.9183	17577.65	16642.65
872.6167	1275.8151	17486.7	16557.35
872.7611	1277.7113	17410.45	16480
872.9055	1279.6067	17283.75	16355.35
873.0499	1281.5014	17153.6	16221.6
873.1943	1283.3953	17096.9	16167.5
873.3386	1285.2885	17092.2	16163.85
873.483	1287.181	17106.05	16177.35
873.6274	1289.0727	17179.25	16254.05
873.7717	1290.9637	17247.95	16320
873.9161	1292.854	17375.2	16443.9
874.0604	1294.7435	17480.55	16551.55
874.2047	1296.6323	17694.2	16767
874.349	1298.5204	17936.3	17007.1
874.4933	1300.4077	18146.6	17215.85
874.6376	1302.2943	18311.2	17384.05
874.7819	1304.1802	18391.25	17462.85
874.9262	1306.0653	18238.6	17308.35
875.0705	1307.9497	18073.45	17144.85
875.2147	1309.8333	17932.65	17004.95
875.359	1311.7162	17830.65	16902.7
875.5032	1313.5984	17870.9	16940.7
875.6475	1315.4798	17908.6	16969.9
875.7917	1317.3605	17998.35	17055.55
875.9359	1319.2405	18046.1	17118
876.0801	1321.1197	18014.9	17083.8
876.2243	1322.9982	17919.45	16985.25
876.3685	1324.876	17869.65	16941.55
876.5127	1326.753	17768.35	16836.75
876.6569	1328.6293	17750.95	16817.9
876.801	1330.5048	17762.6	16830.8
876.9452	1332.3796	17674.15	16747.8
877.0893	1334.2537	17660.45	16704.1
877.2335	1336.127	17579.15	16651.35
877.3776	1337.9996	17564.85	16638.6
877.5217	1339.8714	17514.4	16586.3
877.6658	1341.7426	17451.45	16476.3
877.8099	1343.6129	17393.1	16465.25
877.954	1345.4826	17310.15	16379
878.0981	1347.3515	17313.2	16382.35
878.2422	1349.2196	17269.1	16340.4
878.3862	1351.087	17261.9	16333.2
878.5303	1352.9537	17291.6	16359.8
878.6743	1354.8197	17410.7	16479.1
878.8184	1356.6849	17536.65	16609.1
878.9624	1358.5493	17613.95	16682.7
879.1064	1360.4131	17668.85	16739.45
879.2504	1362.276	17569.9	16641.55
879.3944	1364.1383	17427.5	16501.2
879.5384	1365.9998	17226.15	16293.5
879.6823	1367.8606	16886.35	15956
879.8263	1369.7206	16586.55	15656.45
879.9702	1371.5799	16365.45	15432.35
880.1142	1373.4384	16196.95	15265.8
880.2581	1375.2962	16062.35	15131.35
880.402	1377.1533	15793.8	14869.3
880.5459	1379.0096	15485.45	14561.45
880.6898	1380.8652	15207.95	14285.6
880.8337	1382.7201	14929.05	14005.65
880.9776	1384.5742	14708.05	13778.25
881.1215	1386.4275	14536.55	13607.1
881.2653	1388.2802	14424.2	13494.35
881.4092	1390.132	14286.3	13357.15
881.553	1391.9832	14216.35	13284.8
881.6968	1393.8336	14113.45	13185.6
881.8406	1395.6832	14055.65	13124.5
881.9844	1397.5322	14010.25	13081
882.1282	1399.3803	13946.15	13015.4
882.272	1401.2278	13890.4	12965.95
882.4158	1403.0745	13907.65	12982.55
882.5595	1404.9204	13855.4	12927.75
882.7033	1406.7656	13864.95	12938.3
882.847	1408.6101	13831.1	12903.65
882.9908	1410.4538	13851.3	12920.65
883.1345	1412.2968	13865.4	12934.85
883.2782	1414.139	13864.05	12938.6
883.4219	1415.9805	13947	13022.7
883.5656	1417.8213	14002.8	13069.25
883.7092	1419.6613	14111.7	13185.1
883.8529	1421.5006	14293.35	13367.55
883.9965	1423.3391	14529.45	13601.9
884.1402	1425.1769	14844.8	13918
884.2838	1427.0139	15324.65	14395.1
884.4274	1428.8502	15887.15	14957.85
884.571	1430.6858	16476.75	15552.7
884.7146	1432.5206	16845.9	15920.25
884.8582	1434.3547	17065.7	16138.15
885.0018	1436.188	17085.9	16159.45
885.1453	1438.0206	17032.6	16102.35
885.2889	1439.8524	16843.85	15918.95
885.4324	1441.6835	16751.8	15824.2
885.5759	1443.5139	16641.75	15712.8
885.7194	1445.3435	16541.65	15616.75
885.8629	1447.1724	16495.85	15573
886.0064	1449.0005	16415.9	15488.9
886.1499	1450.8279	16313.9	15388.2
886.2933	1452.6545	16252.05	15325.65
886.4368	1454.4804	16294.05	15370.2
886.5802	1456.3056	16278.1	15349.25
886.7237	1458.13	16163.4	15243.55
886.8671	1459.9536	15919.5	14998.85
887.0105	1461.7766	15593.95	14670.9
887.1539	1463.5987	15186.15	14260
887.2972	1465.4202	14813.2	13887.65
887.4406	1467.2409	14438	13515.35
887.584	1469.0608	14167.2	13242.8
887.7273	1470.88	13888.9	12964.25
887.8706	1472.6984	13638.75	12716.8
888.0139	1474.5161	13442.75	12518.05
888.1572	1476.3331	13260.6	12338.65
888.3005	1478.1493	13128.15	12203.55
888.4438	1479.9648	13036.35	12112.45
888.5871	1481.7795	12940.3	12017.35
888.7303	1483.5935	12874.4	11953.5
888.8736	1485.4067	12792	11866.7
889.0168	1487.2192	12727	11802.95
889.16	1489.031	12675.35	11749.7
889.3032	1490.842	12619.45	11698.6
889.4464	1492.6522	12591.25	11669.1
889.5896	1494.4618	12524.45	11600.3
889.7327	1496.2705	12506.55	11582.1
889.8759	1498.0785	12464.4	11539.55
890.019	1499.8858	12436.95	11514.35
890.1622	1501.6924	12405.4	11482.9
890.3053	1503.4981	12384.85	11461
890.4484	1505.3032	12337.7	11413.45
890.5914	1507.1075	12301.9	11378.25
890.7345	1508.911	12238.85	11317.45
890.8776	1510.7138	12203.9	11278.2
891.0206	1512.5159	12126.15	11203.6
891.1637	1514.3172	12075.3	11155.6
891.3067	1516.1178	12035.65	11115.1
891.4497	1517.9176	11980.7	11056.1
891.5927	1519.7166	11956.1	11036
891.7357	1521.515	11888.6	10961.15
891.8786	1523.3126	11864.35	10943.3
892.0216	1525.1094	11800.1	10876.95
892.1645	1526.9055	11760	10840.6
892.3074	1528.7008	11725.1	10804.8
892.4503	1530.4954	11668.65	10746.5
892.5932	1532.2893	11641.4	10725.55
892.7361	1534.0824	11595.8	10673.75
892.879	1535.8747	11597.1	10680.75
893.0218	1537.6663	11572.5	10659.15
893.1647	1539.4572	11541.25	10621.6
893.3075	1541.2473	11540.7	10623.15
893.4503	1543.0367	11476.2	10558.7
893.5931	1544.8253	11448.9	10529.5
893.7359	1546.6132	11470	10547.95
893.8787	1548.4003	11425.65	10499
894.0214	1550.1867	11465.15	10539.8
894.1642	1551.9723	11455.15	10538.7
894.3069	1553.7572	11489	10570
894.4496	1555.5414	11525.95	10611.05
894.5923	1557.3247	11549.05	10634.8
894.735	1559.1074	11587.25	10677.4
894.8777	1560.8893	11652.8	10742.55
895.0204	1562.6705	11703.75	10791.75
895.163	1564.4509	11760.1	10850.65
895.3056	1566.2305	11759.25	10851.55
895.4482	1568.0094	11868.4	10962.95
895.5908	1569.7876	11898.85	10987.05
895.7334	1571.565	11920.4	11009.55
895.876	1573.3417	11923.55	11010.85
896.0186	1575.1176	11929.75	11021.05
896.1611	1576.8928	11851.75	10948.55
896.3036	1578.6672	11785.3	10882.95
896.4461	1580.4409	11659.15	10757.9
896.5886	1582.2138	11530.65	10628.1
896.7311	1583.986	11411.3	10505.15
896.8736	1585.7575	11344.7	10438.75
897.0161	1587.5282	11280.65	10377.75
897.1585	1589.2981	11214.9	10312.5
897.3009	1591.0673	11154.8	10253.55
897.4433	1592.8358	11158.5	10255.55
897.5857	1594.6035	11137.4	10231.65
897.7281	1596.3704	11156.35	10247.1
897.8705	1598.1366	11148.35	10243.25
898.0128	1599.9021	11185.35	10280.5
898.1551	1601.6668	11229.5	10322.25
898.2975	1603.4308	11279.1	10371.15
898.4398	1605.194	11377.8	10467.7
898.5821	1606.9564	11466.9	10569
898.7243	1608.7182	11576.8	10681.45
898.8666	1610.4791	11695.45	10804.4
899.0088	1612.2394	11848.05	10958.5
899.1511	1613.9988	12015.45	11122.4
899.2933	1615.7576	12192.75	11293.8
899.4355	1617.5156	12442.7	11532.5
899.5776	1619.2728	12622.9	11714.95
899.7198	1621.0293	12742.55	11836.95
899.862	1622.785	12767.25	11860.5
900.0041	1624.54	12672	11774.35
900.1462	1626.2942	12514.1	11615.9
900.2883	1628.0477	12237.25	11336.55
900.4304	1629.8005	12001.8	11100.55
900.5725	1631.5525	11778.6	10881.5
900.7145	1633.3037	11583.3	10686.65
900.8566	1635.0542	11457.4	10562.2
900.9986	1636.804	11333.65	10435
901.1406	1638.553	11316	10327.15
901.2826	1640.3013	11214.5	10316.1
901.4245	1642.0488	11159.15	10260.75
901.5665	1643.7955	11202.25	10306.05
901.7085	1645.5416	11182.65	10286.65
901.8504	1647.2868	11280.65	10381.8
901.9923	1649.0313	11337.5	10437.95
902.1342	1650.7751	11494.7	10592.4
902.2761	1652.5181	11614	10715.85
902.4179	1654.2604	11797.85	10902.85
902.5598	1656.0019	12049.9	11157.2
902.7016	1657.7427	12370.8	11475
902.8434	1659.4828	12683.35	11783.7
902.9852	1661.222	12846	11945.8
903.127	1662.9606	12858.5	11957.75
903.2687	1664.6984	12666.9	11765.4
903.4105	1666.4354	12280.8	11376.3
903.5522	1668.1717	11785.75	10882.85
903.6939	1669.9072	11269.7	10364.55
903.8356	1671.642	10867.7	9963.3
903.9773	1673.3761	10507.95	9609.5
904.119	1675.1094	10245.85	9348.35
904.2606	1676.8419	10017	9120.05
904.4022	1678.5737	9831.6	8930.6
904.5439	1680.3048	9702.85	8803
904.6855	1682.0351	9589.1	8687.15
904.827	1683.7646	9476.45	8574.9
904.9686	1685.4934	9397.65	8497.45
905.1101	1687.2215	9330.9	8431.5
905.2517	1688.9488	9247.4	8350.65
905.3932	1690.6754	9204.6	8309.1
905.5347	1692.4012	9170.8	8272.4
905.6761	1694.1263	9116.65	8218.4
905.8176	1695.8506	9076.1	8177.15
905.9591	1697.5742	9015.55	8118.35
906.1005	1699.297	9005.65	8111.7
906.2419	1701.0191	8917.45	8026.3
906.3833	1702.7404	8880.15	7988.9
906.5246	1704.461	8833.45	7937.35
906.666	1706.1808	8814.95	7920
906.8073	1707.8999	8793.15	7897.3
906.9487	1709.6182	8752.5	7859.85
907.09	1711.3358	8723.05	7835.25
907.2313	1713.0527	8680.4	7791.95
907.3725	1714.7688	8638.7	7740.55
907.5138	1716.4841	8592	7698.4
907.655	1718.1987	8571.9	7673.25
907.7962	1719.9126	8539.2	7647.55
907.9374	1721.6257	8484.85	7593.15
908.0786	1723.338	8497.35	7609.85
908.2198	1725.0496	8438.6	7547.2
908.3609	1726.7605	8423.1	7530.6
908.502	1728.4706	8395.9	7504.2
908.6431	1730.18	8346.5	7454.9
908.7842	1731.8886	8325.15	7435.5
908.9253	1733.5964	8345.4	7432.75
909.0664	1735.3036	8305.8	7409.4
909.2074	1737.0099	8264.6	7374
909.3484	1738.7156	8233.55	7344.4
909.4894	1740.4204	8204.5	7309.85
909.6304	1742.1246	8177.95	7284.25
909.7714	1743.8279	8158.15	7267.85
909.9123	1745.5306	8135.75	7248
910.0532	1747.2325	8110.6	7221.35
910.1941	1748.9336	8086.95	7197.95
910.335	1750.634	8063.65	7170.6
910.4759	1752.3336	8034.65	7144.1
910.6168	1754.0325	8020.3	7134.4
910.7576	1755.7307	7988.6	7100.3
910.8984	1757.4281	7980.3	7092.15
911.0392	1759.1247	7992.35	7092.2
911.18	1760.8206	7968.4	7070.45
911.3208	1762.5158	7942.6	7044.95
911.4615	1764.2102	7879.4	6988.75
911.6022	1765.9039	7856.45	6967.25
911.7429	1767.5968	7852.4	6965.3
911.8836	1769.289	7828.15	6937.3
912.0243	1770.9804	7813.75	6922.5
912.1649	1772.6711	7796.75	6904.3
912.3056	1774.361	7762.3	6868.95
912.4462	1776.0502	7746.25	6853.55
912.5868	1777.7386	7748.55	6855.1
912.7274	1779.4263	7710.55	6820.8
912.8679	1781.1132	7710.9	6824
913.0084	1782.7994	7692.35	6804.45
913.149	1784.4849	7668.1	6782.8
913.2895	1786.1696	7641.55	6746.55
913.4299	1787.8535	7637.35	6749.75
913.5704	1789.5367	7593.55	6707.75
913.7108	1791.2192	7576.7	6689.95
913.8513	1792.9009	7595.3	6679.85
913.9917	1794.5818	7556.5	6665.85
914.132	1796.2621	7521.5	6632.4
914.2724	1797.9415	7500.2	6609.95
914.4128	1799.6202	7490.4	6601.2
914.5531	1801.2982	7460.85	6569.45
914.6934	1802.9755	7468.15	6575.7
914.8337	1804.6519	7457.55	6566.4
914.9739	1806.3277	7397.8	6510
915.1142	1808.0027	7384.35	6499.3
915.2544	1809.6769	7375	6490.05
915.3946	1811.3504	7335.6	6449.8
915.5348	1813.0231	7348.25	6463.65
915.675	1814.6951	7305.65	6419.7
915.8151	1816.3664	7313.65	6424.55
915.9553	1818.0369	7288.85	6400.15
916.0954	1819.7067	7272.25	6385.2
916.2355	1821.3757	7283.15	6391.35
916.3755	1823.044	7255.8	6363.75
916.5156	1824.7115	7225.1	6334.8
916.6556	1826.3783	7206.7	6317.4
916.7956	1828.0443	7185.85	6297.9
916.9356	1829.7096	7163.6	6273.8
917.0756	1831.3741	7169.7	6276.85
917.2155	1833.0379	7134.3	6248.8
917.3555	1834.701	7116.7	6230.35
917.4954	1836.3633	7106.7	6221.8
917.6353	1838.0248	7087.05	6201.1
917.7751	1839.6856	7089.1	6200.6
917.915	1841.3457	7077.65	6189.75
918.0548	1843.005	7040.45	6149.65
918.1946	1844.6636	7051.2	6163.1
918.3344	1846.3214	7021.4	6133.05
918.4742	1847.9785	7015	6130.4
918.6139	1849.6349	7004.8	6116.85
918.7537	1851.2904	7001.25	6101
918.8934	1852.9453	6973.95	6084.55
919.0331	1854.5994	6962.1	6067.6
919.1727	1856.2528	6959.35	6063.75
919.3124	1857.9054	6940	6049.1
919.452	1859.5572	6923.2	6034.35
919.5916	1861.2083	6935.35	6044.8
919.7312	1862.8587	6914	6024.3
919.8708	1864.5084	6876.3	5986.8
920.0103	1866.1572	6870.1	5978.5
920.1498	1867.8054	6840.4	5947.1
920.2893	1869.4528	6823.95	5932
920.4288	1871.0994	6798.85	5908.8
920.5683	1872.7453	6793.55	5904.9
920.7077	1874.3905	6790.05	5884.9
920.8471	1876.0349	6759.25	5867.9
920.9865	1877.6786	6737.15	5846.75
921.1259	1879.3215	6740.55	5851.1
921.2653	1880.9637	6708.2	5818.8
921.4046	1882.6051	6712.85	5823.8
921.5439	1884.2458	6676.9	5786.25
921.6832	1885.8858	6668.3	5779.65
921.8225	1887.525	6658.5	5769.2
921.9617	1889.1634	6622.9	5735.15
922.101	1890.8011	6633.05	5743.8
922.2402	1892.4381	6589.9	5701.05
922.3794	1894.0743	6590.05	5700.85
922.5185	1895.7098	6571.75	5683.75
922.6577	1897.3446	6562.2	5672.6
922.7968	1898.9786	6536.15	5643.75
922.9359	1900.6118	6517.9	5630.2
923.075	1902.2443	6480.1	5591.15
923.214	1903.8761	6471.25	5585.25
923.3531	1905.5071	6462.7	5573.15
923.4921	1907.1374	6434.35	5546.6
923.6311	1908.7669	6417.15	5530.3
923.77	1910.3957	6422.5	5534.9
923.909	1912.0237	6390.4	5503.95
924.0479	1913.651	6375.85	5487.45
924.1868	1915.2776	6360.6	5474.05
924.3257	1916.9034	6322.2	5434.45
924.4646	1918.5285	6298.4	5413.65
924.6034	1920.1528	6265.8	5378.4
924.7422	1921.7764	6263.15	5374.55
924.881	1923.3992	6229.45	5342.35
925.0198	1925.0213	6215.65	5330.4
925.1586	1926.6427	6208.15	5321.1
925.2973	1928.2633	6253.85	5265.9
925.436	1929.8832	6196.1	5305.3
925.5747	1931.5023	6159.3	5270.4
925.7134	1933.1207	6126.55	5241.2
925.852	1934.7383	6108.55	5219.15
925.9906	1936.3552	6088	5203.3
926.1292	1937.9714	6090.55	5202.8
926.2678	1939.5868	6060.75	5171.15
926.4064	1941.2015	6021.7	5132.4
926.5449	1942.8154	5992.6	5105.3
926.6834	1944.4286	5977.75	5088.7
926.8219	1946.041	5975.6	5064.45
926.9604	1947.6528	5948.15	5054.45
927.0988	1949.2637	5924.55	5037.4
927.2372	1950.8739	5910.65	5024.1
927.3756	1952.4834	5899.9	5012.8
927.514	1954.0921	5884.2	4998.15
927.6523	1955.7001	5862.9	4974.25
927.7907	1957.3074	5848.7	4964.5
927.929	1958.9139	5804.95	4922.55
928.0673	1960.5197	5786.9	4900.8
928.2055	1962.1247	5781.55	4897.05
928.3438	1963.729	5748.9	4865.6
928.482	1965.3325	5731.65	4844.05
928.6202	1966.9353	5725.15	4843.05
928.7584	1968.5374	5701.35	4818.4
928.8965	1970.1387	5686.25	4802.4
929.0346	1971.7393	5665.15	4780.5
929.1727	1973.3392	5644.7	4760.4
929.3108	1974.9383	5624.1	4740.15
929.4489	1976.5366	5612.15	4728.4
929.5869	1978.1342	5593.9	4714.1
929.7249	1979.7311	5569.85	4687.6
929.8629	1981.3273	5576.45	4695.3
930.0009	1982.9227	5548.55	4664.9
930.1388	1984.5173	5525.55	4644.75
930.2767	1986.1112	5515.65	4632.5
930.4146	1987.7044	5522.9	4641.8
930.5525	1989.2968	5500.1	4615.95
930.6904	1990.8885	5478.95	4593.7
930.8282	1992.4795	5474.95	4595.4
930.966	1994.0697	5455.8	4576.45
931.1038	1995.6592	5425.15	4544.15
931.2415	1997.2479	5396.85	4514.95
931.3793	1998.8359	5392.2	4513.05
931.517	2000.4232	5368.05	4491.15
931.6547	2002.0097	5354.95	4481.4
931.7923	2003.5955	5343.55	4466.5
931.93	2005.1805	5325.1	4446.65
932.0676	2006.7648	5314	4438.95
932.2052	2008.3484	5295.05	4415.65
932.3427	2009.9312	5325.9	4448
932.4803	2011.5133	5291.55	4417.6
932.6178	2013.0946	5272.9	4396.1
932.7553	2014.6752	5273.35	4396.6
932.8928	2016.2551	5266.9	4389.45
933.0302	2017.8342	5230.65	4351.7
933.1676	2019.4126	5205.8	4329.85
933.305	2020.9902	5181.7	4307.05
933.4424	2022.5672	5178.45	4301.9
933.5798	2024.1433	5172.05	4290.7
933.7171	2025.7188	5149.7	4276.2
933.8544	2027.2935	5143.4	4268.4
933.9917	2028.8674	5123.55	4248.85
934.129	2030.4406	5102.25	4229
934.2662	2032.0131	5095	4222.35
934.4034	2033.5849	5081.15	4196.95
934.5406	2035.1559	5064.25	4192.6
934.6778	2036.7261	5046.75	4171.15
934.8149	2038.2957	5041.95	4162.2
934.952	2039.8645	5050.95	4171.9
935.0891	2041.4325	5032.4	4149.1
935.2262	2042.9998	5024	4145.75
935.3632	2044.5664	5014.35	4136.75
935.5002	2046.1323	4985.45	4109.95
935.6372	2047.6974	4996.4	4122.95
935.7742	2049.2617	4983	4108.45
935.9111	2050.8254	4957.65	4078.65
936.048	2052.3883	4960.5	4080.85
936.1849	2053.9504	4950.1	4071.35
936.3218	2055.5118	4917.85	4038.3
936.4586	2057.0725	4900.65	4017.85
936.5955	2058.6325	4884.15	4009
936.7323	2060.1917	4880.25	4004.7
936.869	2061.7502	4874.9	3996.35
937.0058	2063.3079	4842.3	3969.2
937.1425	2064.8649	4850.6	3970.9
937.2792	2066.4212	4843.1	3964.7
937.4159	2067.9767	4803.3	3924.25
937.5525	2069.5315	4795.65	3918.65
937.6891	2071.0856	4784.75	3905.65
937.8257	2072.6389	4781.8	3904.25
937.9623	2074.1915	4747.05	3872.3
938.0989	2075.7433	4730.2	3851.5
938.2354	2077.2945	4704.85	3828.3
938.3719	2078.8448	4699.7	3819.3
938.5084	2080.3945	4692.75	3814.15
938.6448	2081.9434	4689.45	3811
938.7812	2083.4916	4685.05	3804.45
938.9176	2085.039	4668.85	3783.95
939.054	2086.5857	4645.4	3758.65
939.1903	2088.1317	4644.2	3758.05
939.3267	2089.677	4624.85	3739.25
939.463	2091.2215	4615.4	3729.65
939.5992	2092.7652	4611.5	3724.35
939.7355	2094.3083	4604.45	3719.95
939.8717	2095.8506	4597.4	3716.8
940.0079	2097.3921	4591.2	3710.6
940.1441	2098.933	4582.05	3701.3
940.2802	2100.4731	4566.4	3684.9
940.4163	2102.0124	4598.1	3699.45
940.5524	2103.5511	4566	3684.3
940.6885	2105.089	4540.5	3658.35
940.8245	2106.6261	4535.35	3653
940.9606	2108.1626	4511.4	3631.95
941.0965	2109.6983	4529.2	3620.75
941.2325	2111.2332	4494.85	3614.15
941.3684	2112.7675	4473	3590.45
941.5044	2114.301	4471.15	3585.25
941.6403	2115.8337	4471.5	3588.75
941.7761	2117.3657	4466.3	3584.8
941.912	2118.897	4467	3585.9
942.0478	2120.4276	4443.65	3555.35
942.1835	2121.9575	4418.35	3536
942.3193	2123.4866	4425.55	3529
942.455	2125.0149	4409.6	3524.5
942.5907	2126.5426	4384.25	3506.3
942.7264	2128.0695	4375.6	3494.9
942.8621	2129.5956	4358.1	3483.65
942.9977	2131.1211	4376.3	3492.5
943.1333	2132.6458	4353.7	3474.05
943.2689	2134.1698	4356.65	3473.15
943.4044	2135.693	4349.5	3460.4
943.54	2137.2155	4332.15	3445.8
943.6755	2138.7373	4319.9	3438.1
943.8109	2140.2584	4313.45	3437.6
943.9464	2141.7787	4293.95	3412.2
944.0818	2143.2983	4276.6	3402.15
944.2172	2144.8171	4257.9	3382.15
944.3526	2146.3353	4252.7	3374.9
944.4879	2147.8527	4236.55	3356.4
944.6232	2149.3693	4238.35	3355.75
944.7585	2150.8853	4232.1	3345.7
944.8938	2152.4005	4208.8	3325.45
945.029	2153.9149	4191.7	3307.65
945.1642	2155.4287	4194.85	3310.55
945.2994	2156.9417	4169.5	3283.7
945.4346	2158.454	4179.95	3298.3
945.5697	2159.9655	4158.8	3279.3
945.7048	2161.4764	4168.15	3287.6
945.8399	2162.9865	4157.45	3277.55
945.9749	2164.4958	4134.4	3255.05
946.1099	2166.0045	4111.55	3230.1
946.2449	2167.5124	4112.15	3231.8
946.3799	2169.0195	4105.2	3223
946.5148	2170.526	4114.8	3231.2
946.6498	2172.0317	4099.5	3217.95
946.7846	2173.5367	4075.7	3193.2
946.9195	2175.0409	4072.7	3190.55
947.0543	2176.5445	4061.95	3180
947.1891	2178.0473	4073.45	3188.7
947.3239	2179.5494	4044.85	3160.05
947.4587	2181.0507	4044.3	3162.75
947.5934	2182.5513	4011	3128.25
947.7281	2184.0512	4029.25	3148
947.8628	2185.5504	3991.95	3109.65
947.9974	2187.0488	3971.8	3090.65
948.132	2188.5465	3972.55	3094.45
948.2666	2190.0435	3978.2	3097.2
948.4012	2191.5397	3953.35	3071.15
948.5357	2193.0353	3944.2	3060.75
948.6702	2194.5301	3938.4	3053.6
948.8047	2196.0241	3931.15	3045.15
948.9392	2197.5175	3938.9	3053.7
949.0736	2199.0101	3902.5	3012.15
949.208	2200.502	3900	3017.1
949.3424	2201.9931	3888.95	3007.45
949.4767	2203.4835	3873.3	2994.25
949.611	2204.9733	3872.9	2990.5
949.7453	2206.4622	3854.6	2977
949.8796	2207.9505	3836.45	2957.5
950.0138	2209.438	3817.45	2942.55
950.148	2210.9248	3809.1	2930.8
950.2822	2212.4109	3793	2914.3
950.4164	2213.8962	3791.05	2904.9
950.5505	2215.3809	3800.35	2913.8
950.6846	2216.8648	3772.85	2884.65
950.8186	2218.3479	3778.8	2887.1
950.9527	2219.8304	3759.15	2868.05
951.0867	2221.3121	3753.9	2863.35
951.2207	2222.7931	3728.8	2842.9
951.3546	2224.2733	3726.15	2841.6
951.4886	2225.7529	3702.2	2819.15
951.6225	2227.2317	3703.4	2820.9
951.7563	2228.7098	3704.4	2826
951.8902	2230.1872	3675.95	2796.5
952.024	2231.6638	3683.85	2804.9
952.1578	2233.1397	3674.7	2789.7
952.2916	2234.6149	3671.55	2793.85
952.4253	2236.0894	3649.65	2769.3
952.559	2237.5632	3648.95	2757.25
952.6927	2239.0362	3640.55	2760
952.8263	2240.5085	3619.95	2736.9
952.9599	2241.9801	3609.9	2729.2
953.0935	2243.4509	3604.15	2718.65
953.2271	2244.921	3584.9	2697.8
953.3606	2246.3904	3584.35	2696.15
953.4941	2247.8591	3561.4	2676.75
953.6276	2249.3271	3562.5	2679.2
953.7611	2250.7943	3532.6	2646.05
953.8945	2252.2608	3537.6	2654.55
954.0279	2253.7266	3533.8	2651.55
954.1612	2255.1917	3520.1	2637.4
954.2946	2256.656	3518.25	2636.7
954.4279	2258.1197	3492.75	2611.4
954.5612	2259.5826	3508.1	2623.9
954.6944	2261.0447	3496.95	2613.05
954.8276	2262.5062	3478.8	2593.6
954.9608	2263.9669	3476.15	2590.95
955.094	2265.4269	3474.9	2590.45
955.2271	2266.8862	3453.45	2571.2
955.3602	2268.3448	3439.5	2557.6
955.4933	2269.8026	3444.7	2565.05
955.6264	2271.2598	3438.95	2561
955.7594	2272.7162	3443	2561.05
955.8924	2274.1719	3433.7	2547.8
956.0253	2275.6268	3431.7	2545.35
956.1583	2277.0811	3431.65	2546.95
956.2912	2278.5346	3402.25	2520.05
956.4241	2279.9874	3402.5	2523.15
956.5569	2281.4395	3403.15	2523.1
956.6897	2282.8908	3391.95	2504.8
956.8225	2284.3414	3374.7	2491.1
956.9553	2285.7914	3375.65	2495
957.088	2287.2406	3364.6	2476.95
957.2207	2288.689	3365.9	2479.2
957.3534	2290.1368	3353.1	2465
957.486	2291.5838	3339.75	2447.85
957.6186	2293.0302	3343.35	2455.45
957.7512	2294.4758	3322.85	2438.05
957.8838	2295.9206	3325.2	2439.85
958.0163	2297.3648	3322.35	2439.75
958.1488	2298.8082	3321	2439.95
958.2813	2300.251	3295.15	2411.35
958.4137	2301.693	3284.1	2396.7
958.5461	2303.1343	3299.65	2414.45
958.6785	2304.5748	3275.75	2391.5
958.8108	2306.0147	3262.4	2379.85
958.9432	2307.4538	3269.1	2383.55
959.0754	2308.8922	3253.55	2375.4
959.2077	2310.3299	3236.25	2357.7
959.3399	2311.7669	3236	2355
959.4721	2313.2031	3230.7	2349.6
959.6043	2314.6387	3213.85	2329.45
959.7365	2316.0735	3216.65	2334
959.8686	2317.5076	3207.9	2323.6
960.0006	2318.941	3198.4	2314.35
960.1327	2320.3737	3204.5	2315.55
960.2647	2321.8056	3196.2	2309.2
960.3967	2323.2369	3174.4	2288.9
960.5287	2324.6674	3186	2302.3
960.6606	2326.0972	3159.45	2276.25
960.7925	2327.5263	3148.65	2265.8
960.9244	2328.9547	3155.4	2270.8
961.0562	2330.3823	3135.6	2251.95
961.1881	2331.8092	3146.8	2256.7
961.3198	2333.2355	3127.85	2240.85
961.4516	2334.661	3120.55	2234.1
961.5833	2336.0858	3108.05	2220.75
961.715	2337.5098	3114.85	2228.4
961.8467	2338.9332	3105.15	2219.75
961.9783	2340.3558	3096.6	2211.15
962.1099	2341.7778	3091.75	2211.55
962.2415	2343.199	3073.05	2190.75
962.373	2344.6195	3069.25	2187.95
962.5045	2346.0393	3069.15	2187.8
962.636	2347.4583	3076.35	2192.9
962.7675	2348.8767	3056.8	2172.4
962.8989	2350.2943	3061.4	2176.45
963.0303	2351.7113	3067.05	2180.55
963.1617	2353.1275	3060.3	2171.2
963.293	2354.543	3073.35	2162.9
963.4243	2355.9578	3042.05	2156.7
963.5556	2357.3718	3014.65	2132
963.6868	2358.7852	3011.45	2127.1
963.818	2360.1978	2998.8	2115.8
963.9492	2361.6098	2998.7	2117.6
964.0803	2363.021	2994.25	2110.25
964.2114	2364.4315	2982.1	2100.05
964.3425	2365.8413	2964.65	2081.45
964.4736	2367.2504	2974.65	2093.4
964.6046	2368.6587	2951.7	2071.2
964.7356	2370.0664	2947.75	2066.8
964.8666	2371.4733	2940.9	2058.4
964.9975	2372.8795	2929.65	2049.55
965.1284	2374.285	2922.15	2041.45
965.2593	2375.6899	2926.9	2044.55
965.3901	2377.0939	2898	2018.85
965.5209	2378.4973	2903	2021.75
965.6517	2379.9	2891.45	2010.6
965.7825	2381.3019	2876.3	1995.65
965.9132	2382.7032	2864	1985.75
966.0439	2384.1037	2865.6	1989.15
966.1745	2385.5035	2873.35	1995
966.3051	2386.9027	2866.8	1989.6
966.4357	2388.3011	2852.2	1971.85
966.5663	2389.6987	2852.6	1972.3
966.6968	2391.0957	2831.45	1954.5
966.8273	2392.492	2817.6	1938.25
966.9578	2393.8876	2823.75	1943.2
967.0882	2395.2824	2803.4	1924.7
967.2186	2396.6765	2796.9	1916.6
967.349	2398.07	2802.15	1925.35
967.4793	2399.4627	2780.75	1897.6
967.6097	2400.8547	2782	1899.2
967.7399	2402.246	2773.2	1887.2
967.8702	2403.6366	2762.6	1882.7
968.0004	2405.0265	2768.1	1888.65
968.1306	2406.4156	2761.35	1878.75
968.2607	2407.8041	2755.55	1870.3
968.3909	2409.1918	2736.9	1855.45
968.521	2410.5789	2718.7	1839
968.651	2411.9652	2735.55	1852.85
968.781	2413.3508	2726.65	1847
968.911	2414.7358	2708.75	1827.8
969.041	2416.12	2706.9	1826.8
969.1709	2417.5035	2708.7	1829.45
969.3008	2418.8863	2689.7	1809.9
969.4307	2420.2684	2689.6	1808.7
969.5606	2421.6497	2681.2	1802.35
969.6904	2423.0304	2675.75	1797.55
969.8201	2424.4104	2664.35	1782.45
969.9499	2425.7896	2665.9	1785.1
970.0796	2427.1682	2652.2	1772.7
970.2093	2428.546	2649.9	1769.45
970.3389	2429.9232	2640.95	1761
970.4685	2431.2996	2636.05	1756.95
970.5981	2432.6753	2642.65	1762.6
970.7277	2434.0503	2637.7	1756
970.8572	2435.4246	2625.85	1744
970.9867	2436.7982	2613.75	1730.55
971.1161	2438.1711	2604.5	1724.7
971.2456	2439.5433	2608.75	1726.35
971.375	2440.9148	2606.5	1722.4
971.5043	2442.2856	2581.8	1701.5
971.6336	2443.6557	2588	1705.75
971.7629	2445.025	2564.15	1684.55
971.8922	2446.3937	2579.05	1697.75
972.0214	2447.7617	2575.7	1695.05
972.1506	2449.1289	2579.85	1699.25
972.2798	2450.4955	2561.25	1678.35
972.4089	2451.8613	2552.8	1672.75
972.538	2453.2265	2549.85	1670.65
972.6671	2454.5909	2545.8	1661.75
972.7961	2455.9546	2551.45	1670.4
972.9251	2457.3177	2530.75	1651.25
973.0541	2458.68	2532.8	1650.65
973.1831	2460.0416	2537.85	1655.4
973.312	2461.4025	2520.75	1639.05
973.4408	2462.7627	2533.05	1642.45
973.5697	2464.1222	2526.9	1648.9
973.6985	2465.4811	2508.3	1627.45
973.8273	2466.8392	2508.15	1628.35
973.956	2468.1966	2497.4	1613.05
974.0847	2469.5533	2501.25	1619.6
974.2134	2470.9093	2498.1	1616.4
974.3421	2472.2645	2488.95	1609
974.4707	2473.6191	2488.05	1607.6
974.5993	2474.973	2477.75	1597.2
974.7278	2476.3262	2469.4	1587.7
974.8563	2477.6787	2466.4	1588.3
974.9848	2479.0305	2462.1	1581.1
975.1132	2480.3816	2452.2	1570.4
975.2417	2481.7319	2455.3	1574.85
975.37	2483.0816	2448.7	1567.2
975.4984	2484.4306	2429.45	1548.4
975.6267	2485.7789	2428.25	1546.15
975.755	2487.1264	2427.9	1546.4
975.8833	2488.4733	2412.15	1533.45
976.0115	2489.8195	2406.35	1520.05
976.1397	2491.165	2414.05	1531.85
976.2678	2492.5097	2397.55	1516.1
976.3959	2493.8538	2399.35	1518.75
976.524	2495.1972	2380.45	1500.25
976.6521	2496.5398	2380.2	1497.9
976.7801	2497.8818	2383.85	1499.55
976.9081	2499.2231	2381.6	1500.4
977.036	2500.5637	2372.95	1488
977.164	2501.9035	2366.3	1482.95
977.2918	2503.2427	2367.8	1482.05
977.4197	2504.5812	2352.6	1471.45
977.5475	2505.919	2347.05	1463
977.6753	2507.256	2340.45	1458.05
977.8031	2508.5924	2333.05	1452.85
977.9308	2509.9281	2340.55	1454.4
978.0585	2511.2631	2330.65	1448.95
978.1861	2512.5974	2325.4	1446.7
978.3137	2513.9309	2312.85	1433.1
978.4413	2515.2638	2333.5	1425.05
978.5689	2516.596	2314.2	1434.3
978.6964	2517.9275	2307.7	1426.65
978.8239	2519.2583	2313.8	1432.75
978.9513	2520.5884	2291.6	1407.6
979.0788	2521.9178	2299.9	1420.15
979.2062	2523.2465	2287.2	1406.7
979.3335	2524.5745	2278.55	1399.85
979.4608	2525.9018	2282.7	1402.4
979.5881	2527.2284	2272	1390.5
979.7154	2528.5543	2266.6	1389
979.8426	2529.8796	2268.55	1386.05
979.9698	2531.2041	2264.95	1385.3
980.0969	2532.5279	2256.5	1379.2
980.224	2533.851	2264.1	1381
980.3511	2535.1735	2250.2	1370
980.4781	2536.4952	2251	1370.9
980.6052	2537.8163	2249.75	1366.95
980.7321	2539.1366	2251.85	1369.7
980.8591	2540.4562	2246.1	1361.45
980.986	2541.7752	2237.15	1354.8
981.1129	2543.0935	2238.4	1355.85
981.2397	2544.411	2228.35	1344.1
981.3665	2545.7279	2219.65	1340.45
981.4933	2547.0441	2218.7	1335.3
981.62	2548.3596	2219.9	1334
981.7467	2549.6744	2211.1	1327.85
981.8734	2550.9885	2214.2	1322.95
982.0001	2552.3019	2201.05	1319.6
982.1267	2553.6146	2195.5	1313.95
982.2532	2554.9266	2201.05	1318.5
982.3798	2556.2379	2195.95	1314.45
982.5063	2557.5485	2197.45	1316.9
982.6327	2558.8585	2190.6	1304.75
982.7592	2560.1677	2189.8	1303.9
982.8856	2561.4762	2191	1308.7
983.0119	2562.7841	2182.3	1297.2
983.1383	2564.0913	2178.25	1297.9
983.2646	2565.3977	2164.75	1283.9
983.3908	2566.7035	2165.75	1284.75
983.517	2568.0086	2165.8	1281.35
983.6432	2569.313	2165.65	1283.15
983.7694	2570.6167	2175.65	1291.35
983.8955	2571.9197	2159.15	1275.7
984.0216	2573.222	2163.75	1278.2
984.1476	2574.5236	2162.9	1281.05
984.2737	2575.8246	2142.15	1256.05
984.3996	2577.1248	2148.75	1263.75
984.5256	2578.4244	2133	1253.4
984.6515	2579.7232	2147.3	1263.85
984.7774	2581.0214	2163.25	1255.35
984.9032	2582.3189	2148.1	1269.1
985.029	2583.6157	2141.85	1256.2
985.1548	2584.9118	2130.1	1248.75
985.2806	2586.2072	2134	1250.65
985.4063	2587.5019	2128.5	1248.15
985.5319	2588.7959	2123.6	1242.1
985.6576	2590.0893	2140.65	1256.1
985.7832	2591.3819	2131.8	1250.65
985.9087	2592.6739	2124.75	1241.7
986.0343	2593.9652	2120.95	1237.8
986.1597	2595.2557	2113.35	1231.8
986.2852	2596.5456	2117.5	1232.7
986.4106	2597.8348	2118.6	1238.15
986.536	2599.1234	2108.55	1228.05
986.6614	2600.4112	2107.9	1227
986.7867	2601.6983	2113.5	1228.45
986.912	2602.9848	2100.5	1218.3
987.0372	2604.2705	2108.05	1217.6
987.1624	2605.5556	2096.05	1214.05
987.2876	2606.84	2090.95	1210.4
987.4128	2608.1237	2083.05	1201.05
987.5379	2609.4067	2089.5	1207
987.6629	2610.689	2094.7	1204.8
987.788	2611.9707	2078.6	1195.1
987.913	2613.2516	2074.6	1187.4
988.0379	2614.5319	2061.75	1180.1
988.1629	2615.8115	2058.2	1174.95
988.2878	2617.0903	2066.65	1184.8
988.4126	2618.3685	2046.3	1164.55
988.5375	2619.6461	2039.65	1156.35
988.6622	2620.9229	2049.45	1168.85
988.787	2622.199	2048.45	1167.8
988.9117	2623.4745	2045.75	1164.1
989.0364	2624.7493	2041.55	1159.9
989.161	2626.0234	2032.8	1151.6
989.2857	2627.2968	2034	1151.7
989.4102	2628.5695	2026.85	1144.4
989.5348	2629.8415	2021.55	1142.1
989.6593	2631.1128	2021.85	1137.2
989.7837	2632.3835	2014.05	1134.6
989.9082	2633.6535	2021.4	1140.2
990.0326	2634.9228	2014.75	1135.1
990.1569	2636.1914	2010.4	1128.6
990.2812	2637.4593	2011.85	1130.45
990.4055	2638.7265	2017.45	1134.05
990.5298	2639.9931	1990.4	1106.3
990.654	2641.259	2005.5	1122.05
990.7782	2642.5242	1999.15	1119.55
990.9023	2643.7887	1983.95	1102.5
991.0264	2645.0525	1992.8	1109.7
991.1505	2646.3156	1992.75	1109.6
991.2745	2647.5781	1979.05	1097.65
991.3985	2648.8398	1968.05	1087.5
991.5225	2650.1009	1971.95	1080.4
991.6464	2651.3613	1972.7	1092.1
991.7703	2652.6211	1963.4	1081.6
991.8942	2653.8801	1963.2	1081
992.018	2655.1385	1961.1	1075.65
992.1418	2656.3961	1957	1077.45
992.2655	2657.6531	1960.15	1078.35
992.3892	2658.9094	1962.15	1077.1
992.5129	2660.1651	1950.95	1070.45
992.6366	2661.42	1952.3	1071.25
992.7602	2662.6743	1951.55	1070.3
992.8837	2663.9279	1953.2	1071.85
993.0073	2665.1808	1950.2	1067.45
993.1307	2666.433	1963.3	1080.75
993.2542	2667.6846	1954.3	1071.95
993.3776	2668.9354	1952.8	1070.15
993.501	2670.1856	1944.95	1063.05
993.6244	2671.4351	1953.9	1073.3
993.7477	2672.6839	1947.05	1063.05
993.8709	2673.9321	1952.4	1073.35
993.9942	2675.1795	1945.95	1064.2
994.1174	2676.4263	1944.95	1065.2
994.2405	2677.6724	1946.4	1065.1
994.3637	2678.9179	1936.05	1054.25
994.4868	2680.1626	1942.7	1063.2
994.6098	2681.4067	1950.75	1069.85
994.7328	2682.6501	1927.95	1047
994.8558	2683.8928	1932.1	1049.55
994.9788	2685.1348	1929.85	1050.2
995.1017	2686.3761	1920.6	1041.05
995.2245	2687.6168	1909.65	1030.15
995.3474	2688.8568	1915.9	1037.9
995.4702	2690.0961	1909.2	1029.65
995.5929	2691.3348	1910.3	1027.8
995.7156	2692.5727	1901.7	1021.1
995.8383	2693.81	1890.45	1008.35
995.961	2695.0466	1893.55	1012.55
996.0836	2696.2826	1885.25	1001.9
996.2062	2697.5178	1888.7	1003.7
996.3287	2698.7524	1892.55	1010.3
996.4512	2699.9863	1897.05	1013.7
996.5737	2701.2195	1891.5	1010.9
996.6961	2702.452	1896.4	1011.85
996.8185	2703.6839	1891.2	1009.6
996.9408	2704.9151	1890.3	1013.2
997.0631	2706.1456	1891.55	1009.75
997.1854	2707.3755	1897.15	1014.65
997.3077	2708.6046	1904.65	1022.45
997.4299	2709.8331	1906.1	1023.45
997.552	2711.0609	1912.25	1031.6
997.6742	2712.2881	1922.25	1040.7
997.7963	2713.5145	1932	1047.7
997.9183	2714.7403	1927.45	1048.8
998.0403	2715.9654	1944.65	1062.5
998.1623	2717.1899	1959.8	1066.6
998.2842	2718.4136	1965.1	1083.5
998.4062	2719.6367	1968.95	1087.2
998.528	2720.8591	1988.9	1100.85
998.6498	2722.0809	1982.55	1101.5
998.7716	2723.3019	2001	1117.5
998.8934	2724.5223	1994.6	1111.75
999.0151	2725.7421	1989	1108.55
999.1368	2726.9611	2005.55	1124.2
999.2584	2728.1795	2005.6	1121.25
999.38	2729.3972	1986.25	1105.65
999.5016	2730.6142	1994.35	1098.9
999.6231	2731.8306	1955.05	1073.65
999.7446	2733.0462	1939.45	1057.35
999.8661	2734.2612	1925.7	1040.1
999.9875	2735.4756	1904.95	1023.2
1000.1089	2736.6892	1886.55	1004.6
1000.2302	2737.9022	1868.05	989.5
1000.3515	2739.1145	1859.05	978.65
1000.4728	2740.3262	1847.55	958.3
1000.594	2741.5372	1841.75	961.25
1000.7152	2742.7475	1814.05	931.5
1000.8363	2743.9571	1810.5	929.3
1000.9575	2745.1661	1799.15	914.4
1001.0785	2746.3744	1788.8	908.45
1001.1996	2747.582	1773.9	894.1
1001.3206	2748.7889	1770.65	889.3
1001.4415	2749.9952	1755.8	876.6
1001.5625	2751.2008	1744.8	863.65
1001.6833	2752.4057	1754.85	870.2
1001.8042	2753.61	1742.5	860.9
1001.925	2754.8136	1741.2	860.35
1002.0458	2756.0165	1731.55	852.4
1002.1665	2757.2188	1735.15	856.9
1002.2872	2758.4204	1739.35	858.75
1002.4078	2759.6213	1730.8	847.65
1002.5285	2760.8215	1734.3	850.4
1002.649	2762.0211	1732.95	851.2
1002.7696	2763.22	1730.6	845
1002.8901	2764.4182	1718.35	836.35
1003.0106	2765.6158	1714.7	832.05
1003.131	2766.8127	1705.2	824.55
1003.2514	2768.009	1702.7	825
1003.3717	2769.2045	1701.25	819.95
1003.492	2770.3994	1702.9	822.6
1003.6123	2771.5936	1687.3	808.35
1003.7325	2772.7872	1694.1	817.25
1003.8527	2773.9801	1683.75	802.25
1003.9729	2775.1723	1698.25	798.95
1004.093	2776.3639	1686.75	808.85
1004.2131	2777.5548	1691.05	809.3
1004.3331	2778.745	1684.2	804.9
1004.4531	2779.9346	1683.6	804.75
1004.5731	2781.1235	1687.85	805.3
1004.693	2782.3117	1686.25	808.55
1004.8129	2783.4992	1679.55	802.75
1004.9328	2784.6861	1688.6	809.8
1005.0526	2785.8723	1700.45	820.35
1005.1723	2787.0579	1702.05	821.8
1005.2921	2788.2428	1701.75	823
1005.4118	2789.427	1713.25	836.2
1005.5314	2790.6106	1713.05	834.7
1005.651	2791.7935	1730.35	850.55
1005.7706	2792.9757	1736.75	857.45
1005.8902	2794.1573	1746.1	865.65
1006.0097	2795.3382	1754.5	875.4
1006.1291	2796.5184	1763.9	884.7
1006.2485	2797.698	1783.25	903.3
1006.3679	2798.8769	1798.2	918.5
1006.4873	2800.0551	1814.2	935.75
1006.6066	2801.2327	1818.6	938.5
1006.7258	2802.4096	1837.5	961.05
1006.8451	2803.5859	1859.7	978.85
1006.9642	2804.7615	1871.4	990.3
1007.0834	2805.9364	1904.8	1027.7
1007.2025	2807.1106	1921	1044.65
1007.3216	2808.2842	1952.4	1073
1007.4406	2809.4572	1976.6	1096.8
1007.5596	2810.6294	2013.85	1133.75
1007.6785	2811.801	2057	1179.6
1007.7975	2812.972	2086.3	1208.25
1007.9163	2814.1423	2141.55	1262.3
1008.0352	2815.3119	2182.7	1303.3
1008.154	2816.4808	2226.2	1347.65
1008.2727	2817.6491	2281.1	1401.9
1008.3914	2818.8167	2317.1	1438.9
1008.5101	2819.9837	2377.95	1496.45
1008.6288	2821.15	2398.25	1518.45
1008.7474	2822.3157	2455.2	1576.9
1008.8659	2823.4807	2506.85	1627.3
1008.9844	2824.645	2542.55	1659.8
1009.1029	2825.8086	2572.95	1696
1009.2214	2826.9716	2634.85	1757.35
1009.3398	2828.134	2674.5	1797.65
1009.4581	2829.2957	2715.8	1837.6
1009.5764	2830.4567	2742.55	1864.85
1009.6947	2831.617	2765.6	1884.4
1009.813	2832.7767	2778.05	1900
1009.9312	2833.9358	2785.3	1908.25
1010.0493	2835.0941	2760.85	1882.85
1010.1675	2836.2519	2749.4	1871.15
1010.2855	2837.4089	2752.05	1874
1010.4036	2838.5653	2750.35	1874.1
1010.5216	2839.7211	2729.05	1853
1010.6396	2840.8761	2742.8	1861.75
1010.7575	2842.0306	2764.5	1888.5
1010.8754	2843.1843	2804.85	1927
1010.9932	2844.3374	2837.4	1960
1011.111	2845.4899	2899.6	2021.6
1011.2288	2846.6417	2974.75	2096
1011.3465	2847.7928	3051.5	2174.6
1011.4642	2848.9433	3124.45	2247.7
1011.5818	2850.0931	3196	2319.8
1011.6995	2851.2422	3274.85	2394.55
1011.817	2852.3907	3355.95	2477.85
1011.9345	2853.5385	3400.2	2521.1
1012.052	2854.6857	3482.2	2576.55
1012.1695	2855.8323	3500.7	2625.35
1012.2869	2856.9781	3545.15	2667.95
1012.4042	2858.1233	3606.1	2729
1012.5216	2859.2679	3655.95	2778.6
1012.6389	2860.4118	3704.3	2826.35
1012.7561	2861.555	3734.3	2849.55
1012.8733	2862.6976	3785.95	2906.25
1012.9905	2863.8395	3780.75	2904.55
1013.1076	2864.9808	3810.7	2934.05
1013.2247	2866.1214	3809.15	2932.45
1013.3417	2867.2614	3851.55	2972.85
1013.4587	2868.4007	3856.1	2977.95
1013.5757	2869.5393	3867.3	2986.7
1013.6926	2870.6773	3877.05	2998.8
1013.8095	2871.8146	3905.75	3025.5
1013.9263	2872.9513	3900.55	3019.9
1014.0431	2874.0874	3892.15	3013.95
1014.1599	2875.2227	3883.55	3004.25
1014.2766	2876.3574	3848.85	2971.85
1014.3933	2877.4915	3822.25	2944.85
1014.51	2878.6249	3799.15	2922.85
1014.6266	2879.7577	3772.2	2892.7
1014.7431	2880.8898	3759.2	2869.75
1014.8596	2882.0212	3742.4	2866.8
1014.9761	2883.152	3746.3	2868.05
1015.0925	2884.2821	3727.6	2851.4
1015.2089	2885.4116	3723.65	2847.45
1015.3253	2886.5405	3709.35	2832.7
1015.4416	2887.6686	3727.9	2822.95
1015.5579	2888.7962	3727.45	2838.45
1015.6741	2889.923	3726.85	2849.15
1015.7903	2891.0493	3738.1	2862.15
1015.9065	2892.1748	3750.5	2873.65
1016.0226	2893.2997	3753.1	2875.4
1016.1387	2894.424	3797.55	2920.7
1016.2547	2895.5476	3803.7	2929.15
1016.3707	2896.6706	3815.6	2940.8
1016.4866	2897.7929	3848.7	2972.2
1016.6025	2898.9145	3876.3	2998.15
1016.7184	2900.0355	3909.5	3031
1016.8342	2901.1559	3935.1	3056.75
1016.95	2902.2756	3960.8	3084.6
1017.0658	2903.3946	3992.9	3114
1017.1815	2904.513	4019	3139.3
1017.2971	2905.6308	4051.65	3173.6
1017.4127	2906.7479	4071.35	3194.1
1017.5283	2907.8643	4087.15	3210.25
1017.6439	2908.9801	4111.6	3234.45
1017.7594	2910.0953	4129.7	3253.85
1017.8748	2911.2098	4105.3	3224.3
1017.9902	2912.3236	4109.25	3225.9
1018.1056	2913.4368	4090.4	3208.45
1018.2209	2914.5494	4069.6	3192.8
1018.3362	2915.6613	4054.2	3171.65
1018.4515	2916.7725	4014.55	3132.4
1018.5667	2917.8831	3984.4	3104.4
1018.6819	2918.9931	3970.1	3091.6
1018.797	2920.1024	3925.9	3046.4
1018.9121	2921.211	3903.45	3026.8
1019.0271	2922.319	3873.9	2998.85
1019.1421	2923.4264	3870.4	2995.75
1019.2571	2924.5331	3858.05	2982.45
1019.372	2925.6391	3846.05	2971.1
1019.4869	2926.7445	3831.15	2954.05
1019.6017	2927.8493	3824.4	2948.4
1019.7165	2928.9534	3816.45	2939.25
1019.8313	2930.0569	3832.45	2954.15
1019.946	2931.1597	3810.75	2931.25
1020.0606	2932.2619	3794.35	2919.3
1020.1753	2933.3634	3787.45	2914.15
1020.2899	2934.4643	3793.8	2909.75
1020.4044	2935.5645	3773.55	2891
1020.5189	2936.6641	3719.05	2839.3
1020.6334	2937.763	3681.8	2804.85
1020.7478	2938.8613	3627.95	2749.75
1020.8622	2939.959	3592.55	2710.75
1020.9765	2941.056	3497.9	2621.1
1021.0908	2942.1523	3421.45	2545.15
1021.2051	2943.248	3350.9	2474.95
1021.3193	2944.3431	3255.9	2380.85
1021.4334	2945.4375	3142.75	2265.35
1021.5476	2946.5313	3030.55	2155.95
1021.6617	2947.6244	2952.4	2076.5
1021.7757	2948.7169	2836.2	1959.05
1021.8897	2949.8087	2752.7	1877.45
1022.0037	2950.8999	2656.8	1782.8
1022.1176	2951.9904	2573.5	1698.95
1022.2315	2953.0803	2501.8	1626.15
1022.3453	2954.1696	2443.25	1566.9
1022.4591	2955.2582	2399.6	1526.3
1022.5728	2956.3462	2337.7	1460.65
1022.6865	2957.4335	2297	1418.6
1022.8002	2958.5202	2274.65	1395.65
1022.9138	2959.6062	2234.1	1356.9
1023.0274	2960.6916	2214.6	1339.65
1023.141	2961.7764	2191.65	1316.3
1023.2545	2962.8605	2190.65	1312.15
1023.3679	2963.9439	2164.4	1290.9
1023.4813	2965.0267	2149.95	1272.1
1023.5947	2966.1089	2157.8	1258.15
1023.708	2967.1905	2130.6	1255.55
1023.8213	2968.2714	2132.1	1258.5
1023.9346	2969.3516	2125.65	1250
1024.0478	2970.4312	2141.9	1257.45
1024.1609	2971.5102	2137.95	1262.9
1024.274	2972.5885	2130.4	1254.4
1024.3871	2973.6662	2137.65	1258.4
1024.5002	2974.7432	2138.3	1264.15
1024.6132	2975.8196	2118.45	1243.25
1024.7261	2976.8954	2106.4	1231.4
1024.839	2977.9705	2097.05	1219.7
1024.9519	2979.045	2086.4	1212.45
1025.0647	2980.1188	2072	1196.1
1025.1775	2981.192	2044.65	1169.9
1025.2902	2982.2645	2026.7	1150.3
1025.4029	2983.3364	2010.2	1134.15
1025.5156	2984.4077	1971.95	1096.25
1025.6282	2985.4783	1945.55	1066.75
1025.7407	2986.5483	1916.65	1043
1025.8532	2987.6177	1872.75	997.7
1025.9657	2988.6864	1841.05	965.05
1026.0782	2989.7545	1813.5	935.65
1026.1906	2990.8219	1774.8	899.3
1026.3029	2991.8887	1739.45	861.75
1026.4152	2992.9548	1708.4	832.25
1026.5275	2994.0204	1677.4	801.8
1026.6397	2995.0852	1648.25	772.1
1026.7519	2996.1495	1626.95	749
1026.864	2997.2131	1595.9	721.1
1026.9761	2998.276	1574.85	700.75
1027.0882	2999.3383	1568.15	692.45
1027.2002	3000.4	1543.05	666.45
1027.3122	3001.4611	1528.6	652.9
1027.4241	3002.5215	1508.75	633.7
1027.536	3003.5812	1491.75	615.95
1027.6478	3004.6404	1482.65	607.6
1027.7596	3005.6989	1475.2	598.7
1027.8714	3006.7567	1464.15	590.5
1027.9831	3007.8139	1482	576.3
1028.0947	3008.8705	1446.2	574.4
1028.2064	3009.9264	1450.35	570.55
1028.3179	3010.9818	1432.15	555.85
1028.4295	3012.0364	1428.1	553.25
1028.541	3013.0905	1428.2	551.2
1028.6524	3014.1439	1417.15	540.05
1028.7638	3015.1966	1428.3	551.25
1028.8752	3016.2487	1420.2	545.35
1028.9865	3017.3002	1420.7	541.45
1029.0978	3018.3511	1415.25	540.8
1029.209	3019.4013	1416.35	541.35
1029.3202	3020.4509	1418.3	543.95
1029.4314	3021.4998	1411.35	535.55
1029.5425	3022.5481	1416.1	540.45
1029.6535	3023.5958	1416.25	541.95
1029.7645	3024.6428	1413.6	537.75
1029.8755	3025.6892	1419.4	543.95
1029.9864	3026.735	1423.6	548.9
1030.0973	3027.7802	1415.15	538.85
1030.2082	3028.8247	1414.15	538.7
1030.319	3029.8685	1417.95	543.85
1030.4297	3030.9118	1424.85	549.4
1030.5404	3031.9544	1428.55	554.25
1030.6511	3032.9963	1436.5	561.65
1030.7617	3034.0376	1431	555.25
1030.8723	3035.0783	1446	567.55
1030.9829	3036.1184	1438.7	563.55
1031.0934	3037.1578	1444.7	570.05
1031.2038	3038.1966	1450.5	575.9
1031.3142	3039.2348	1447.8	574.5
1031.4246	3040.2723	1448.15	565.35
1031.5349	3041.3092	1454	580.7
1031.6452	3042.3455	1436.85	561.75
1031.7554	3043.3811	1439.3	565.45
1031.8656	3044.4161	1430.55	556.25
1031.9758	3045.4505	1432.05	557.1
1032.0859	3046.4842	1419.05	542.9
1032.1959	3047.5173	1408.7	533.65
1032.3059	3048.5498	1414.7	539.4
1032.4159	3049.5816	1410.35	536.8
1032.5258	3050.6128	1396.95	522
1032.6357	3051.6434	1395.4	520.35
1032.7455	3052.6734	1381.7	506.25
1032.8553	3053.7027	1378.6	504.55
1032.9651	3054.7314	1373.1	499
1033.0748	3055.7594	1368.1	493.5
1033.1845	3056.7868	1370.4	493.4
1033.2941	3057.8136	1361.9	487.35
1033.4037	3058.8398	1355.95	481.5
1033.5132	3059.8653	1351.9	476.85
1033.6227	3060.8902	1335.9	462.2
1033.7321	3061.9145	1342.85	466.35
1033.8415	3062.9381	1326.15	451.75
1033.9509	3063.9612	1339.75	449.95
1034.0602	3064.9835	1324.1	449.4
1034.1694	3066.0053	1313.35	436.85
1034.2787	3067.0264	1305.1	428.6
1034.3878	3068.0469	1305.5	429.2
1034.497	3069.0668	1289.95	411
1034.6061	3070.086	1280.8	407.85
1034.7151	3071.1046	1273.7	398.2
1034.8241	3072.1226	1270.75	395.05
1034.9331	3073.1399	1258.8	383.95
1035.042	3074.1567	1250.5	376.2
1035.1508	3075.1727	1244.25	366.75
1035.2597	3076.1882	1229.6	354.55
1035.3684	3077.203	1231.6	357.9
1035.4772	3078.2173	1220.85	345.95
1035.5859	3079.2308	1208.4	331.1
1035.6945	3080.2438	1207.35	331.8
1035.8031	3081.2561	1190.65	316.6
1035.9117	3082.2678	1188.35	315.4
1036.0202	3083.2789	1180.4	304.9
1036.1286	3084.2893	1169.1	296
1036.2371	3085.2991	1170.05	296.3
1036.3454	3086.3083	1163.35	285.2
1036.4538	3087.3169	1157.75	283.65
1036.562	3088.3248	1153.45	277.75
1036.6703	3089.3321	1148.65	273.8
1036.7785	3090.3388	1139.3	264.6
1036.8866	3091.3449	1139.15	264.5
1036.9948	3092.3503	1137.1	259.35
1037.1028	3093.3551	1128.4	257.15
1037.2108	3094.3593	1119.9	248.6
1037.3188	3095.3629	1125.6	251.8
1037.4267	3096.3658	1118.7	242.35
1037.5346	3097.3681	1119.45	246.1
1037.6425	3098.3698	1115.35	239.65
1037.7503	3099.3708	1114.05	232.95
1037.858	3100.3713	1111.45	237.05
1037.9657	3101.3711	1107.4	233.1
1038.0734	3102.3702	1215.25	219.6
1038.181	3103.3688	1105.4	231.05
1038.2886	3104.3667	1099.75	226.65
1038.3961	3105.364	1098.55	224.1
1038.5036	3106.3607	1091.4	216.5
1038.611	3107.3568	1094.65	219.9
1038.7184	3108.3522	1087.3	214.05
1038.8257	3109.347	1090.2	214.3
1038.933	3110.3412	1091.9	214.35
1039.0403	3111.3348	1086	214.35
1039.1475	3112.3277	1076.85	205.25
1039.2547	3113.32	1083.25	210.65
1039.3618	3114.3117	1081.35	207.7
1039.4689	3115.3028	1076.45	202.6
1039.5759	3116.2932	1079.6	202.8
1039.6829	3117.2831	1076.3	197.4
1039.7898	3118.2723	1071.75	197.1
1039.8967	3119.2608	1069.7	197.55
1040.0035	3120.2488	1069.65	194.65
1040.1103	3121.2361	1071.85	199.25
1040.2171	3122.2229	1065.2	190.5
1040.3238	3123.209	1065.55	190.9
1040.4305	3124.1944	1063.9	188.05
1040.5371	3125.1793	1063.05	189.1
1040.6437	3126.1635	1058.25	183.8
1040.7502	3127.1471	1063.85	191.6
1040.8567	3128.1301	1056.9	183.35
1040.9631	3129.1125	1057.25	186
1041.0695	3130.0942	1048.4	175.7
1041.1759	3131.0753	1064.2	183.45
1041.2822	3132.0558	1054.6	178.55
1041.3884	3133.0357	1053.5	176.15
1041.4946	3134.015	1047.55	174.05
1041.6008	3134.9936	1045.35	171.75
1041.7069	3135.9716	1069.3	175.35
1041.813	3136.949	1043.45	170.9
1041.919	3137.9258	1060.95	168.8
1042.025	3138.902	1049.7	171.5
1042.1309	3139.8775	1041.35	165.55
1042.2368	3140.8524	1043.6	169.2
1042.3427	3141.8267	1038.15	164.15
1042.4485	3142.8004	1035.85	162.85
1042.5542	3143.7735	1038.4	158.95
1042.6599	3144.7459	1036.45	161.5
1042.7656	3145.7178	1039.25	163.95
1042.8712	3146.689	1030.55	159.25
1042.9768	3147.6596	1028.3	155.5
1043.0823	3148.6295	1032.3	159.85
1043.1878	3149.5989	1033.15	158
1043.2932	3150.5676	1027	154.3
1043.3986	3151.5357	1024.75	153.5
1043.5039	3152.5032	1027	154.8
1043.6092	3153.4701	1025.85	152.2
1043.7145	3154.4364	1024.85	150.3
1043.8197	3155.402	1025.6	156.45
1043.9248	3156.367	1023.35	149.6
1044.03	3157.3315	1048.1	148
1044.135	3158.2952	1020.4	148.25
1044.24	3159.2584	1016.4	142.65
1044.345	3160.221	1022.35	148.65
1044.4499	3161.1829	1016.75	143.3
1044.5548	3162.1442	1018.6	146.05
1044.6596	3163.105	1017.4	143.8
1044.7644	3164.065	1014.25	139.5
1044.8692	3165.0245	1016.2	141.4
1044.9739	3165.9834	1005.4	134.05
1045.0785	3166.9416	1007.05	133.1
1045.1831	3167.8993	1008.4	134.8
1045.2877	3168.8563	1011.8	139.35
1045.3922	3169.8127	1008.1	134.8
1045.4966	3170.7684	1008.3	135.5
1045.6011	3171.7236	1007.6	132.05
1045.7054	3172.6782	1008.35	135.4
1045.8098	3173.6321	1008.7	134.1
1045.914	3174.5854	1006.1	129.35
1046.0183	3175.5381	1002.2	127.75
1046.1224	3176.4902	1000.1	128.4
1046.2266	3177.4417	1002.8	131.95
1046.3307	3178.3926	1000.8	129.6
1046.4347	3179.3428	997.35	125.8
1046.5387	3180.2924	1001.6	129.4
1046.6427	3181.2415	998.5	127.2
1046.7466	3182.1899	1000.55	125.55
1046.8504	3183.1377	997.35	123.7
1046.9542	3184.0848	1000.45	123.8
1047.058	3185.0314	996.35	121.95
1047.1617	3185.9773	992	117.8
1047.2654	3186.9227	996.35	122.95
1047.369	3187.8674	993.35	121.15
1047.4726	3188.8115	995.6	118.95
1047.5761	3189.755	995.3	122.95
1047.6796	3190.6979	989.15	116.7
1047.783	3191.6402	990.25	119.1
1047.8864	3192.5818	986.8	112.9
1047.9898	3193.5229	992.8	115.65
1048.0931	3194.4633	988.35	115.3
1048.1963	3195.4031	984.25	109.55
1048.2995	3196.3423	984.65	113.15
1048.4027	3197.2809	986	114.7
1048.5058	3198.2189	983.05	109.5
1048.6089	3199.1563	1000.55	112.85
1048.7119	3200.0931	979.95	108.6
1048.8148	3201.0292	982.85	111.35
1048.9178	3201.9648	982.75	109
1049.0206	3202.8997	988.4	111.3
1049.1235	3203.834	982.05	108.15
1049.2262	3204.7677	980.75	108.4
1049.329	3205.7008	979.95	103.75
1049.4317	3206.6333	974	103.25
1049.5343	3207.5652	976.85	103.55
1049.6369	3208.4964	978.7	106.25
1049.7394	3209.4271	975.95	103.8
1049.8419	3210.3571	975.1	102.6
1049.9444	3211.2865	974.65	101.4
1050.0468	3212.2154	975.15	101.5
1050.1491	3213.1436	980.15	105.95
1050.2514	3214.0712	983.3	103.1
1050.3537	3214.9982	972.3	102.2
1050.4559	3215.9246	972.55	99.85
1050.5581	3216.8503	970	98
1050.6602	3217.7755	973.7	101.1
1050.7623	3218.7001	968.6	96.8
1050.8643	3219.624	969.9	95.6
1050.9663	3220.5473	970.5	96.2
1051.0682	3221.4701	971.15	98.35
1051.1701	3222.3922	972.65	99.45
1051.2719	3223.3137	968.15	94.55
1051.3737	3224.2346	968.45	95.35
1051.4754	3225.1549	965.65	92.35
1051.5771	3226.0746	970.45	98.7
1051.6788	3226.9937	966.35	94.65
1051.7804	3227.9121	961.15	90
1051.8819	3228.83	967.3	96.6
1051.9834	3229.7473	967.8	95.6
1052.0849	3230.6639	968.2	94.7
1052.1863	3231.5799	965	93.3
1052.2876	3232.4954	963.9	91
1052.3889	3233.4102	964.35	92.05
1052.4902	3234.3244	963.8	92.15
1052.5914	3235.238	961.8	90.3
1052.6926	3236.151	977.6	90.3
1052.7937	3237.0634	962.8	91.9
1052.8948	3237.9752	961.9	88.95
1052.9958	3238.8864	961.25	85.8
1053.0968	3239.797	960.95	88.45
1053.1977	3240.7069	960.4	88.75
1053.2986	3241.6163	960.65	87.7
1053.3994	3242.5251	955.5	86.3
1053.5002	3243.4332	957.8	87.45
1053.6009	3244.3408	953.9	82.2
1053.7016	3245.2477	954.05	83.05
1053.8022	3246.154	957.2	83.8
1053.9028	3247.0598	955.2	83.35
1054.0034	3247.9649	953.2	78.9
1054.1039	3248.8694	952.45	79.15
1054.2043	3249.7733	955.55	85.8
1054.3047	3250.6766	950.45	80.2
1054.4051	3251.5793	954.35	80.75
1054.5054	3252.4814	950.85	80.35
1054.6056	3253.3829	949.4	78.35
1054.7058	3254.2838	949.25	78.95
1054.806	3255.1841	949.45	79.6
1054.9061	3256.0838	946.4	75.05
1055.0061	3256.9829	943.65	72.55
1055.1062	3257.8814	948.45	74.4
1055.2061	3258.7792	945.55	72.85
1055.306	3259.6765	944.95	71.8
1055.4059	3260.5731	941.95	71.35
1055.5057	3261.4692	940.4	67.3
1055.6055	3262.3647	943.6	72.25
1055.7052	3263.2595	940.25	67.05
1055.8049	3264.1538	939.1	67.65
1055.9045	3265.0474	939.8	69.8
1056.0041	3265.9404	937.9	65.5
1056.1036	3266.8329	936.2	66.1
1056.2031	3267.7247	943.4	59.3
1056.3025	3268.616	931.65	61.1
1056.4019	3269.5066	931.05	60.9
1056.5013	3270.3966	932.1	59.4
1056.6005	3271.286	926.1	57.2
