Software Version:	3.9.2.0
Unit SN:	10000200
Spectrometer SN:	6960
Date:	3/8/2024 11:23:50 AM
Data Line Index:	25
Spectral Points:	2048
Integration time (ms):	125
Averages:	20
Delay (ms):	30000
Sequence Number:	1
Processing:	dark subtract
Laser Power (mW):	305
Laser Current (mA):	823
Laser Diode Temp (C):	25
Laser Case Temp (C):	24.9
System Temp (C):	24.9
Spectrometer Temp (C):	22.8
CCD Temp (C):	0.01
Secondary Temp (C):	20.007
Heatsink Temp (C):	19.655
CCDPCB Temp (C):	34.462
SecondaryPCB Temp (C):	26.769

Wavelength	RamanShift	Raw Counts	Dark Subtracted
787.061	30.1047	417	6.45
787.2016	32.3739	413.35	4.7
787.3422	34.6426	415.45	6.05
787.4828	36.9109	417.35	6.75
787.6235	39.1787	422.9	7.8
787.7642	41.4461	428.25	8.1
787.9049	43.7131	431.15	9.3
788.0456	45.9796	436.65	11.75
788.1863	48.2456	438.95	8.85
788.3271	50.5112	444	10.75
788.4679	52.7764	448.15	10.95
788.6087	55.0411	452.7	12
788.7496	57.3054	459	12.15
788.8904	59.5692	464	19.35
789.0313	61.8326	464.4	15.95
789.1722	64.0955	470.7	18.9
789.3132	66.3579	476.2	18.45
789.4541	68.6199	483.65	22.2
789.5951	70.8815	494.25	27.3
789.7361	73.1426	514.8	45.15
789.8771	75.4032	550.25	76.15
790.0181	77.6634	634.85	159.4
790.1592	79.9231	818.2	338.25
790.3003	82.1824	1214.75	724.8
790.4414	84.4412	1856.7	1353.45
790.5825	86.6995	2666	2146.65
790.7237	88.9574	3469.3	2936.8
790.8648	91.2148	3997.45	3453.95
791.006	93.4717	4230.85	3679.9
791.1472	95.7282	4276.6	3722.7
791.2885	97.9842	4256.3	3697.65
791.4297	100.2398	4206.15	3648.5
791.571	102.4949	4147.6	3589.05
791.7123	104.7495	4116.9	3553.5
791.8536	107.0036	4052.5	3486.65
791.9949	109.2573	3992.3	3426.6
792.1363	111.5105	3908.05	3340.3
792.2777	113.7632	3806.55	3235.2
792.4191	116.0154	3719.9	3138.45
792.5605	118.2672	3591.75	3017.7
792.7019	120.5185	3470.35	2891.3
792.8434	122.7693	3362.5	2785.45
792.9849	125.0197	3276.25	2694.25
793.1264	127.2696	3182.25	2594.25
793.2679	129.519	3142.7	2550.4
793.4094	131.7679	3113.4	2520.85
793.551	134.0163	3088.35	2491.25
793.6926	136.2642	3076.9	2478.65
793.8342	138.5117	3081.7	2479.1
793.9758	140.7587	3032.35	2427.35
794.1175	143.0052	3006	2401.45
794.2591	145.2512	2933.55	2325.75
794.4008	147.4967	2886.4	2279.1
794.5425	149.7417	2834.55	2224.3
794.6842	151.9863	2812.15	2197.2
794.826	154.2304	2793	2173.55
794.9677	156.4739	2782.95	2160.9
795.1095	158.717	2793.85	2171.8
795.2513	160.9596	2822.5	2192.85
795.3931	163.2017	2859.8	2229.85
795.535	165.4433	2880.6	2246.9
795.6768	167.6844	2882.15	2247.75
795.8187	169.925	2853.55	2218.3
795.9606	172.1651	2778.25	2137.1
796.1025	174.4047	2740.6	2099.65
796.2445	176.6439	2688.65	2041.8
796.3864	178.8825	2667.55	2018.1
796.5284	181.1206	2649.45	1997.55
796.6704	183.3582	2627.15	1969.55
796.8124	185.5954	2612.75	1951.85
796.9544	187.832	2630.35	1965.8
797.0965	190.0681	2631.9	1964.95
797.2386	192.3037	2629.2	1960.85
797.3806	194.5388	2631.95	1959.5
797.5228	196.7734	2654.65	1980.4
797.6649	199.0075	2662.65	1988
797.807	201.2411	2692.65	2016.65
797.9492	203.4742	2721.45	2043.45
798.0914	205.7068	2749.75	2065.5
798.2336	207.9389	2765.4	2081.65
798.3758	210.1704	2790.7	2115.85
798.518	212.4015	2773.1	2106.65
798.6603	214.632	2777.6	2119.45
798.8025	216.862	2789.8	2130.95
798.9448	219.0915	2805.45	2142.45
799.0871	221.3205	2816.25	2149.35
799.2294	223.549	2828.85	2169.6
799.3718	225.777	2815.85	2157.4
799.5141	228.0044	2823.5	2156
799.6565	230.2314	2816.2	2147.6
799.7989	232.4578	2793.55	2118.1
799.9413	234.6837	2796.95	2113.4
800.0837	236.909	2775.45	2093.7
800.2262	239.1339	2772.35	2062.55
800.3687	241.3582	2771.35	2079.6
800.5111	243.582	2768.5	2045.65
800.6536	245.8053	2791.25	2078.2
800.7961	248.0281	2780	2073.7
800.9387	250.2503	2790.85	2081.8
801.0812	252.472	2798.2	2088.8
801.2238	254.6932	2814.45	2103.75
801.3664	256.9139	2810.1	2095.15
801.509	259.134	2836.05	2117.05
801.6516	261.3536	2855.5	2141.35
801.7942	263.5727	2899.3	2183.9
801.9369	265.7912	2933.9	2217.9
802.0795	268.0092	3012.7	2296.45
802.2222	270.2267	3063.25	2346.05
802.3649	272.4436	3129.7	2410.75
802.5076	274.6601	3177.35	2446.6
802.6504	276.8759	3199.95	2473.2
802.7931	279.0913	3226.7	2500.2
802.9359	281.3061	3237.05	2512.25
803.0787	283.5204	3264.75	2536.25
803.2215	285.7341	3284.05	2551.2
803.3643	287.9473	3334.1	2602.3
803.5071	290.16	3313.35	2577.45
803.6499	292.3721	3269.35	2538.55
803.7928	294.5837	3222.35	2489.75
803.9357	296.7947	3191.9	2459.25
804.0786	299.0052	3164.7	2434.85
804.2215	301.2152	3159.15	2421.15
804.3644	303.4246	3142.4	2409.85
804.5074	305.6334	3126.25	2393.5
804.6503	307.8418	3113.65	2374.65
804.7933	310.0495	3082.4	2343.65
804.9363	312.2568	3043.65	2302.85
805.0793	314.4635	2993.65	2252.45
805.2223	316.6696	2937.2	2195.3
805.3653	318.8752	2889.2	2134.85
805.5084	321.0802	2861	2116.7
805.6514	323.2847	2854.6	2107.9
805.7945	325.4887	2851.05	2099.6
805.9376	327.692	2890.05	2140.8
806.0807	329.8949	2923.15	2171.45
806.2238	332.0972	2954.85	2206.05
806.367	334.2989	3016.55	2260.8
806.5101	336.5001	3008.8	2250.9
806.6533	338.7007	2981.95	2228.45
806.7965	340.9008	2934.9	2178.65
806.9397	343.1003	2862.15	2104.9
807.0829	345.2992	2802.35	2041.9
807.2261	347.4976	2757.45	1994.2
807.3693	349.6955	2718.45	1952.85
807.5126	351.8927	2700.7	1932.5
807.6559	354.0895	2685.85	1910
807.7991	356.2856	2673.15	1903.35
807.9424	358.4812	2650.1	1879.3
808.0857	360.6763	2657.9	1885.15
808.2291	362.8707	2645.8	1871.75
808.3724	365.0646	2649.9	1874.85
808.5158	367.258	2652.2	1872.05
808.6591	369.4508	2672.8	1893.05
808.8025	371.643	2703.8	1924.7
808.9459	373.8346	2730.65	1945.9
809.0893	376.0257	2786.1	2000.55
809.2327	378.2162	2816.45	2032.45
809.3762	380.4062	2833.8	2051.35
809.5196	382.5956	2790.9	2010.35
809.6631	384.7844	2750	1974.75
809.8066	386.9726	2694.8	1915.45
809.9501	389.1603	2667.25	1894.6
810.0936	391.3474	2671.75	1864.1
810.2371	393.5339	2649.4	1871
810.3806	395.7199	2646.8	1868.35
810.5241	397.9052	2683.6	1904.85
810.6677	400.09	2726.05	1949.15
810.8113	402.2743	2773.1	1992.95
810.9548	404.4579	2819.25	2036.9
811.0984	406.641	2873.05	2091.05
811.2421	408.8235	2923.45	2138.05
811.3857	411.0054	2973.95	2187.3
811.5293	413.1868	3036	2246.85
811.673	415.3675	3080.3	2286.85
811.8166	417.5477	3091.55	2298.1
811.9603	419.7273	3025	2227.95
812.104	421.9064	2952.55	2151.6
812.2477	424.0848	2873.1	2077.05
812.3914	426.2627	2797.5	2000.8
812.5351	428.4399	2729.15	1930.4
812.6788	430.6166	2666.3	1862.2
812.8226	432.7928	2622.35	1819.8
812.9663	434.9683	2576.05	1773.85
813.1101	437.1432	2540.05	1736.85
813.2539	439.3176	2519.05	1714.85
813.3977	441.4914	2505.75	1704.8
813.5415	443.6645	2498.55	1692.25
813.6853	445.8371	2506.25	1699.2
813.8291	448.0091	2493.25	1689.45
813.973	450.1806	2491.1	1688.2
814.1168	452.3514	2474.75	1667.5
814.2607	454.5216	2492	1680.25
814.4046	456.6913	2499	1688.2
814.5485	458.8603	2496.45	1688.95
814.6924	461.0288	2505.25	1700.9
814.8363	463.1967	2493.3	1687.05
814.9802	465.3639	2495.2	1688.05
815.1241	467.5306	2490.35	1682.1
815.2681	469.6967	2475	1666.45
815.412	471.8622	2457.45	1650.6
815.556	474.0271	2460.75	1652.45
815.7	476.1914	2461.8	1650.45
815.844	478.3551	2455.85	1645.85
815.988	480.5182	2453.15	1641.2
816.132	482.6807	2452.7	1645.6
816.276	484.8426	2485.3	1675.8
816.4201	487.0039	2525.95	1715.8
816.5641	489.1647	2585.35	1771.95
816.7082	491.3248	2639.1	1826.45
816.8522	493.4843	2659	1846.25
816.9963	495.6432	2645.65	1832.7
817.1404	497.8015	2611.45	1794.45
817.2845	499.9592	2569.55	1748.95
817.4286	502.1163	2505.05	1682.35
817.5727	504.2728	2454.6	1636
817.7168	506.4287	2426.85	1611.1
817.861	508.5839	2409.85	1597.1
818.0051	510.7386	2403.85	1584.8
818.1493	512.8927	2406.2	1576.8
818.2935	515.0461	2408	1585.25
818.4377	517.199	2437.75	1614.7
818.5818	519.3512	2481	1657.05
818.726	521.5029	2562.25	1733
818.8703	523.6539	2624.9	1801.4
819.0145	525.8043	2638.9	1813.55
819.1587	527.9541	2580.1	1753.1
819.303	530.1033	2495.75	1670.35
819.4472	532.2519	2443.1	1615.9
819.5915	534.3999	2422.6	1594.75
819.7357	536.5472	2407.85	1581.45
819.88	538.694	2397.05	1571.35
820.0243	540.8401	2416.2	1586.8
820.1686	542.9856	2451.25	1619.65
820.3129	545.1305	2458.75	1623.95
820.4572	547.2748	2475.5	1644.55
820.6016	549.4185	2485.6	1650.65
820.7459	551.5615	2481.7	1647.05
820.8902	553.704	2505.45	1672.05
821.0346	555.8458	2529.4	1696.1
821.1789	557.987	2552.55	1720.5
821.3233	560.1276	2581.45	1747.05
821.4677	562.2675	2642.1	1810.9
821.6121	564.4069	2710.6	1879.25
821.7565	566.5456	2775.55	1942.3
821.9009	568.6837	2764.25	1930.6
822.0453	570.8212	2660.25	1825.95
822.1897	572.958	2558.35	1722.1
822.3342	575.0942	2486.4	1650.35
822.4786	577.2299	2451.2	1617.2
822.6231	579.3648	2426.1	1592.7
822.7675	581.4992	2403.4	1575.05
822.912	583.6329	2395.05	1564.8
823.0565	585.766	2433.05	1602.4
823.201	587.8985	2484.35	1652.8
823.3454	590.0304	2567.9	1719.35
823.4899	592.1616	2588.8	1748.4
823.6345	594.2922	2591.95	1750.8
823.779	596.4222	2561.85	1721.4
823.9235	598.5515	2488.75	1648.05
824.068	600.6802	2406.65	1566.1
824.2126	602.8083	2367.7	1526
824.3571	604.9358	2351.1	1506.75
824.5017	607.0626	2349.65	1509.5
824.6462	609.1888	2360	1514.5
824.7908	611.3144	2386.1	1541.45
824.9354	613.4393	2424.7	1580.3
825.08	615.5636	2472.35	1624.4
825.2246	617.6873	2539.9	1693.6
825.3692	619.8103	2586.35	1740.6
825.5138	621.9327	2595.9	1749.15
825.6584	624.0544	2545.2	1700
825.803	626.1756	2477.05	1629.4
825.9477	628.2961	2410.1	1560.8
826.0923	630.4159	2377.6	1530.2
826.237	632.5351	2382.15	1533.45
826.3816	634.6537	2361.15	1512.9
826.5263	636.7716	2352.05	1502.9
826.6709	638.8889	2352.2	1501.15
826.8156	641.0056	2365	1514.75
826.9603	643.1216	2374.1	1522.4
827.105	645.237	2373.7	1520.35
827.2497	647.3518	2346.9	1497.9
827.3944	649.4659	2322.7	1473.4
827.5391	651.5793	2310.85	1462.35
827.6838	653.6922	2274.05	1426.45
827.8285	655.8043	2266.45	1418
827.9733	657.9159	2251.2	1400.4
828.118	660.0268	2240.75	1387.3
828.2627	662.137	2242.05	1389.55
828.4075	664.2466	2241.15	1386.5
828.5522	666.3556	2245.95	1390.6
828.697	668.4639	2231.6	1373.95
828.8418	670.5716	2216.7	1364.8
828.9865	672.6786	2219.55	1363.4
829.1313	674.785	2211.05	1354.75
829.2761	676.8907	2200.95	1345.3
829.4209	678.9958	2197.55	1343.3
829.5657	681.1002	2198	1340.05
829.7105	683.204	2207.2	1346.85
829.8553	685.3072	2203.85	1345.9
830.0001	687.4097	2199.65	1340.8
830.1449	689.5115	2202.4	1345.75
830.2898	691.6127	2201.35	1344.25
830.4346	693.7132	2191.7	1335.25
830.5794	695.8131	2201.15	1330.6
830.7243	697.9123	2204.65	1342.3
830.8691	700.0109	2196.5	1333.75
831.014	702.1089	2208.65	1350.25
831.1588	704.2061	2226.2	1367.15
831.3037	706.3028	2258.6	1396.1
831.4486	708.3987	2279.9	1420.1
831.5935	710.4941	2304.5	1443.55
831.7383	712.5887	2302.4	1442
831.8832	714.6827	2296.85	1432.05
832.0281	716.7761	2280.55	1420.35
832.173	718.8688	2290.25	1429.05
832.3179	720.9608	2279.4	1412.85
832.4628	723.0522	2291.6	1425.35
832.6077	725.1429	2306.95	1441.1
832.7527	727.233	2352.35	1486.75
832.8976	729.3224	2431.2	1564.95
833.0425	731.4112	2489.9	1624
833.1874	733.4993	2528.15	1661.7
833.3324	735.5867	2473.6	1608.5
833.4773	737.6735	2381.25	1515.45
833.6222	739.7596	2311.75	1444.55
833.7672	741.845	2272.95	1404.25
833.9122	743.9298	2253.8	1384.85
834.0571	746.014	2253.75	1389.5
834.2021	748.0974	2269.75	1399.2
834.347	750.1802	2280.55	1411.95
834.492	752.2624	2267.55	1398.5
834.637	754.3439	2252.6	1380.55
834.782	756.4247	2252.25	1375.2
834.9269	758.5048	2251.3	1384.3
835.0719	760.5843	2268.75	1399.8
835.2169	762.6631	2300.85	1431.35
835.3619	764.7413	2364.25	1496.45
835.5069	766.8188	2481.4	1609.05
835.6519	768.8956	2562.7	1692.4
835.7969	770.9718	2633.4	1763.9
835.9419	773.0473	2620.8	1749.1
836.0869	775.1221	2582.8	1711.05
836.232	777.1962	2555.15	1686.4
836.377	779.2697	2623.85	1751.45
836.522	781.3426	2755.95	1867.1
836.667	783.4147	2835.9	1963.85
836.8121	785.4862	2823.65	1950.2
836.9571	787.557	2724.35	1852.1
837.1021	789.6271	2584.05	1708.25
837.2472	791.6966	2417.35	1545.8
837.3922	793.7654	2305.05	1432.1
837.5373	795.8335	2239.05	1368.35
837.6823	797.901	2198.6	1325.7
837.8274	799.9678	2179.3	1304.15
837.9724	802.0339	2190.95	1320
838.1175	804.0993	2210.2	1328.45
838.2626	806.1641	2188.45	1314.2
838.4076	808.2282	2162.75	1288.1
838.5527	810.2916	2143.9	1262.25
838.6978	812.3544	2124.8	1251.35
838.8428	814.4164	2120.2	1246
838.9879	816.4778	2128.55	1253.75
839.133	818.5385	2145.55	1270.95
839.2781	820.5986	2175.4	1301.6
839.4232	822.658	2241.65	1365.85
839.5682	824.7166	2307.2	1430.55
839.7133	826.7747	2407.7	1530.25
839.8584	828.832	2509.25	1631.8
840.0035	830.8886	2576.7	1697.85
840.1486	832.9446	2600.75	1721.6
840.2937	834.9999	2558.75	1682.5
840.4388	837.0545	2490.6	1609.15
840.5839	839.1085	2384.8	1510.8
840.729	841.1618	2300.1	1423.55
840.8741	843.2143	2231.5	1352.05
841.0192	845.2662	2195.75	1317.7
841.1643	847.3175	2176.6	1296.95
841.3095	849.368	2166.9	1290.55
841.4546	851.4179	2166	1286.6
841.5997	853.467	2149.85	1272.85
841.7448	855.5155	2161.05	1282.3
841.8899	857.5633	2174.7	1299
842.0351	859.6105	2169.25	1290.4
842.1802	861.6569	2148.6	1269.3
842.3253	863.7027	2125.45	1244.15
842.4704	865.7478	2103.95	1223.05
842.6156	867.7922	2100.7	1220.5
842.7607	869.8359	2094.4	1214
842.9058	871.8789	2095.35	1213.45
843.0509	873.9212	2110.55	1198.7
843.1961	875.9629	2091.85	1211.25
843.3412	878.0039	2110.6	1229.35
843.4863	880.0441	2116.5	1236.1
843.6315	882.0837	2143.25	1261.9
843.7766	884.1226	2162.55	1280.55
843.9218	886.1609	2208.3	1328.9
844.0669	888.1984	2273.65	1393.85
844.212	890.2352	2330.9	1449.9
844.3572	892.2714	2333.1	1447.7
844.5023	894.3069	2315.1	1432.05
844.6475	896.3416	2251.25	1366.65
844.7926	898.3757	2193.25	1312.5
844.9377	900.4091	2156.7	1274.15
845.0829	902.4418	2175.8	1288.15
845.228	904.4739	2200.2	1315.35
845.3732	906.5052	2214.9	1331.85
845.5183	908.5358	2211.8	1326.55
845.6635	910.5658	2192.45	1308.8
845.8086	912.595	2153.05	1272.15
845.9538	914.6236	2101.25	1218.25
846.0989	916.6515	2074.6	1191.55
846.2441	918.6786	2060.5	1173.8
846.3892	920.7051	2035.75	1150.1
846.5344	922.7309	2033.7	1149.5
846.6795	924.756	2032.7	1148.45
846.8246	926.7804	2059.05	1174
846.9698	928.8041	2058.3	1172.8
847.1149	930.8272	2074.9	1188.55
847.2601	932.8495	2078.65	1193.2
847.4052	934.8711	2093.95	1207.3
847.5504	936.892	2108.45	1224.45
847.6955	938.9123	2125.7	1240.65
847.8407	940.9318	2149.4	1262.1
847.9858	942.9506	2176.9	1288.05
848.131	944.9688	2169.85	1281.65
848.2761	946.9862	2133.8	1252.7
848.4213	949.003	2102.45	1216.65
848.5664	951.019	2073.65	1188.05
848.7115	953.0344	2058.35	1171.2
848.8567	955.0491	2041.85	1154.45
849.0018	957.063	2034.2	1148.55
849.147	959.0763	2024.1	1138.65
849.2921	961.0888	2021.8	1131.85
849.4373	963.1007	2017.65	1133.9
849.5824	965.1119	2002.5	1118.55
849.7275	967.1223	1998.8	1115.6
849.8727	969.1321	1989.3	1109.75
850.0178	971.1412	1995.6	1109.1
850.1629	973.1495	1977.7	1094.6
850.3081	975.1572	2002.8	1082.55
850.4532	977.1641	1988.05	1101.3
850.5983	979.1704	1986.6	1095.6
850.7435	981.1759	1976.2	1084.05
850.8886	983.1808	1985.15	1096
851.0337	985.1849	1978.9	1081
851.1788	987.1884	1964.65	1074.55
851.324	989.1911	1973.05	1084.7
851.4691	991.1932	1982	1092.8
851.6142	993.1945	1974.4	1088.5
851.7593	995.1951	1972.45	1085.5
851.9045	997.1951	1971.9	1079.45
852.0496	999.1943	1971.4	1084.3
852.1947	1001.1928	1965.4	1077.75
852.3398	1003.1906	1977	1086.9
852.4849	1005.1877	2010.9	1121.2
852.63	1007.1841	2038.9	1152.1
852.7751	1009.1798	2053.45	1164.95
852.9202	1011.1748	2048.55	1159.1
853.0653	1013.1691	2020.9	1134.55
853.2104	1015.1627	1988.75	1097.9
853.3555	1017.1556	1940.85	1052.85
853.5006	1019.1477	1924	1035.85
853.6457	1021.1392	1892.1	1005.9
853.7908	1023.1299	1891.15	1007.55
853.9359	1025.12	1893.85	1008.45
854.081	1027.1093	1897.45	1016.7
854.2261	1029.0979	1913.8	1035.15
854.3712	1031.0859	1940.4	1057.45
854.5163	1033.0731	1963.65	1079.6
854.6613	1035.0596	1964.75	1078.05
854.8064	1037.0454	1956.35	1069.95
854.9515	1039.0304	1937.9	1050.6
855.0965	1041.0148	1915.7	1027.9
855.2416	1042.9985	1903.25	1012.6
855.3867	1044.9814	1878.6	990
855.5317	1046.9636	1864.15	971.75
855.6768	1048.9452	1871.1	983.5
855.8219	1050.926	1893.65	1004.2
855.9669	1052.9061	1904.1	1012.45
856.112	1054.8855	1927.85	1040.8
856.257	1056.8642	1925.1	1036.95
856.4021	1058.8421	1920.25	1026.3
856.5471	1060.8194	1915.05	1023.3
856.6921	1062.7959	1918.6	1028.4
856.8372	1064.7717	1917.3	1028.75
856.9822	1066.7469	1914.25	1024.9
857.1272	1068.7213	1915.95	1024.1
857.2723	1070.695	1928.8	1040.5
857.4173	1072.6679	1951.4	1060.55
857.5623	1074.6402	1983.3	1093.65
857.7073	1076.6117	1997.35	1103.35
857.8523	1078.5826	1976.1	1085.15
857.9973	1080.5527	1933	1037.9
858.1423	1082.5221	1899.55	1005.75
858.2873	1084.4908	1858.05	965.8
858.4323	1086.4587	1842.2	949.55
858.5773	1088.426	1830.85	938.15
858.7223	1090.3925	1833.7	936.15
858.8673	1092.3584	1832.7	940.1
859.0123	1094.3235	1839.4	951.1
859.1573	1096.2879	1862.35	972.85
859.3022	1098.2515	1897.8	1009.45
859.4472	1100.2145	1914.7	1023.25
859.5922	1102.1767	1957.85	1062.15
859.7371	1104.1382	2005.55	1112.85
859.8821	1106.099	2078.25	1181.55
860.027	1108.0591	2120.25	1229.2
860.172	1110.0185	2167.5	1274.35
860.3169	1111.9771	2213.85	1323.75
860.4619	1113.9351	2269.55	1377.75
860.6068	1115.8923	2347	1454
860.7517	1117.8488	2395.7	1500.25
860.8967	1119.8045	2345.5	1453.5
861.0416	1121.7596	2234.6	1343.35
861.1865	1123.7139	2103.05	1213.4
861.3314	1125.6675	2019.6	1128.05
861.4763	1127.6204	2021.25	1129.25
861.6212	1129.5726	2049.25	1155.75
861.7661	1131.524	2055.45	1163.1
861.911	1133.4748	2008.75	1116.8
862.0559	1135.4248	1935.95	1045.25
862.2008	1137.3741	1885.45	994.2
862.3457	1139.3226	1850.25	958.2
862.4905	1141.2705	1839.5	949.05
862.6354	1143.2176	1860.05	963.2
862.7803	1145.164	1875.55	981.25
862.9251	1147.1097	1874.25	982.6
863.07	1149.0546	1852.6	960.45
863.2148	1150.9989	1821.45	927.2
863.3597	1152.9424	1795.05	900.25
863.5045	1154.8852	1776.2	884.1
863.6493	1156.8272	1758.6	868.05
863.7942	1158.7686	1778.1	881.15
863.939	1160.7092	1773.65	881.15
864.0838	1162.6491	1779.05	884.9
864.2286	1164.5883	1785.75	893.7
864.3734	1166.5267	1804.85	911.5
864.5182	1168.4644	1834.2	940.4
864.663	1170.4014	1866.6	971.55
864.8078	1172.3377	1909.75	1019.15
864.9526	1174.2732	1962	1070.55
865.0974	1176.2081	2058.15	1167.4
865.2421	1178.1421	2192.95	1295.25
865.3869	1180.0755	2345.2	1452.6
865.5317	1182.0082	2432.35	1541.15
865.6764	1183.9401	2425.4	1533.15
865.8212	1185.8713	2306.4	1416.3
865.9659	1187.8017	2170.1	1277.85
866.1106	1189.7315	2021.8	1134.65
866.2554	1191.6605	1961.55	1048.2
866.4001	1193.5888	1874.15	985.3
866.5448	1195.5163	1850.2	960.6
866.6895	1197.4432	1814.65	920.3
866.8342	1199.3693	1796.9	905.95
866.9789	1201.2947	1784.35	889.35
867.1236	1203.2193	1781.1	889.15
867.2683	1205.1432	1773.2	880.3
867.413	1207.0664	1767.45	873.35
867.5576	1208.9889	1773	878.25
867.7023	1210.9106	1755.65	862.55
867.847	1212.8316	1774.3	882.65
867.9916	1214.7519	1786.35	884.2
868.1363	1216.6715	1799.35	906.35
868.2809	1218.5903	1808.4	915.45
868.4255	1220.5084	1830.45	939.35
868.5701	1222.4257	1826.25	932.3
868.7148	1224.3424	1856.45	964.45
868.8594	1226.2583	1874.7	979.55
869.004	1228.1735	1910.75	1019.3
869.1486	1230.0879	1951.15	1057.1
869.2932	1232.0016	2007.25	1116.45
869.4377	1233.9146	2038.55	1145.1
869.5823	1235.8269	2057.1	1164.15
869.7269	1237.7384	2061.25	1168.6
869.8715	1239.6492	2061	1169.9
870.016	1241.5592	2064.55	1170.45
870.1606	1243.4686	2111.4	1218.55
870.3051	1245.3772	2194.15	1299.6
870.4496	1247.285	2302.65	1408.05
870.5941	1249.1922	2394.25	1498.8
870.7387	1251.0986	2483.05	1589.5
870.8832	1253.0042	2559.6	1665.1
871.0277	1254.9092	2654.7	1761.55
871.1722	1256.8134	2762.15	1870.95
871.3167	1258.7169	2855.6	1961.5
871.4611	1260.6196	2945.35	2051.3
871.6056	1262.5216	2955.3	2059.05
871.7501	1264.4229	2947.7	2054.8
871.8945	1266.3234	2910.95	2018.25
872.039	1268.2232	2851.35	1958.2
872.1834	1270.1223	2783.55	1887.65
872.3278	1272.0207	2739.5	1844.65
872.4723	1273.9183	2722.8	1823.4
872.6167	1275.8151	2706	1812.95
872.7611	1277.7113	2753.45	1858.2
872.9055	1279.6067	2862	1968.3
873.0499	1281.5014	3011.95	2112.6
873.1943	1283.3953	3227.75	2331.15
873.3386	1285.2885	3444.35	2549.6
873.483	1287.181	3629.95	2734.55
873.6274	1289.0727	3700.5	2808.65
873.7717	1290.9637	3648.9	2754.3
873.9161	1292.854	3517.95	2622.75
874.0604	1294.7435	3377.85	2483.2
874.2047	1296.6323	3225.85	2333.95
874.349	1298.5204	3112.45	2215.1
874.4933	1300.4077	3009.85	2113.25
874.6376	1302.2943	2950.45	2056.8
874.7819	1304.1802	2907.9	2012.25
874.9262	1306.0653	2852.8	1956.1
875.0705	1307.9497	2826.45	1931.4
875.2147	1309.8333	2777.3	1883.25
875.359	1311.7162	2755.65	1861.85
875.5032	1313.5984	2721	1825.15
875.6475	1315.4798	2704.05	1798.95
875.7917	1317.3605	2695	1797.15
875.9359	1319.2405	2705.95	1809.35
876.0801	1321.1197	2695.35	1799.7
876.2243	1322.9982	2642.8	1742.95
876.3685	1324.876	2578.4	1684.3
876.5127	1326.753	2475.6	1579.75
876.6569	1328.6293	2356.3	1462.2
876.801	1330.5048	2255.9	1359.15
876.9452	1332.3796	2161.65	1268.25
877.0893	1334.2537	2107.05	1187.7
877.2335	1336.127	2036.3	1140.45
877.3776	1337.9996	2002.7	1107.65
877.5217	1339.8714	1975.2	1078.65
877.6658	1341.7426	1990.8	1050.2
877.8099	1343.6129	1939.2	1040.15
877.954	1345.4826	1904.75	1007.6
878.0981	1347.3515	1908.65	1012.1
878.2422	1349.2196	1887.35	991.95
878.3862	1351.087	1880.65	986
878.5303	1352.9537	1876.8	980.1
878.6743	1354.8197	1872.9	977
878.8184	1356.6849	1883.35	986.05
878.9624	1358.5493	1893.9	997.7
879.1064	1360.4131	1923	1026.85
879.2504	1362.276	1968.05	1075.15
879.3944	1364.1383	2015.7	1122
879.5384	1365.9998	2046.5	1146.45
879.6823	1367.8606	2024.05	1128.4
879.8263	1369.7206	2004.2	1107.65
879.9702	1371.5799	2008.5	1110.65
880.1142	1373.4384	2005.55	1109.1
880.2581	1375.2962	1977.95	1081.85
880.402	1377.1533	1922.4	1029.1
880.5459	1379.0096	1855.85	959.75
880.6898	1380.8652	1824.2	931.25
880.8337	1382.7201	1784.8	892.15
880.9776	1384.5742	1757.3	861.25
881.1215	1386.4275	1739.75	844.7
881.2653	1388.2802	1710.85	815.8
881.4092	1390.132	1699.55	801.75
881.553	1391.9832	1685.6	789.85
881.6968	1393.8336	1675.3	781.2
881.8406	1395.6832	1670.6	773.4
881.9844	1397.5322	1664.45	768.75
882.1282	1399.3803	1656.15	753.6
882.272	1401.2278	1647.4	751.35
882.4158	1403.0745	1625.7	732.25
882.5595	1404.9204	1615	721.9
882.7033	1406.7656	1619.2	723.9
882.847	1408.6101	1614.15	720.35
882.9908	1410.4538	1608.75	713.2
883.1345	1412.2968	1609.2	712.8
883.2782	1414.139	1604.15	708.1
883.4219	1415.9805	1625	731.45
883.5656	1417.8213	1635.15	732.65
883.7092	1419.6613	1648.65	756.25
883.8529	1421.5006	1680.7	786.7
883.9965	1423.3391	1731.2	838.15
884.1402	1425.1769	1777.65	881.5
884.2838	1427.0139	1872.95	977.55
884.4274	1428.8502	1981.3	1084.1
884.571	1430.6858	2051.55	1158.2
884.7146	1432.5206	2079.65	1183.25
884.8582	1434.3547	2076.2	1178.5
885.0018	1436.188	2058.85	1163.85
885.1453	1438.0206	2029	1132.1
885.2889	1439.8524	2011.85	1116.65
885.4324	1441.6835	2014.3	1120.45
885.5759	1443.5139	2014.6	1115.4
885.7194	1445.3435	2019.1	1125.1
885.8629	1447.1724	2024.85	1131.65
886.0064	1449.0005	2026.55	1131
886.1499	1450.8279	2012.35	1117.7
886.2933	1452.6545	2007.75	1112.2
886.4368	1454.4804	2000.2	1105.15
886.5802	1456.3056	1995.1	1094.8
886.7237	1458.13	1970.45	1075.75
886.8671	1459.9536	1947.05	1050.15
887.0105	1461.7766	1905.95	1010.1
887.1539	1463.5987	1853.55	956.55
887.2972	1465.4202	1807.7	910.05
887.4406	1467.2409	1767.7	871.65
887.584	1469.0608	1731.7	839.15
887.7273	1470.88	1699.2	801.6
887.8706	1472.6984	1664.8	768.8
888.0139	1474.5161	1650	752.6
888.1572	1476.3331	1624.65	731.15
888.3005	1478.1493	1612.7	717
888.4438	1479.9648	1615.65	722.4
888.5871	1481.7795	1611.2	717.55
888.7303	1483.5935	1603.85	709
888.8736	1485.4067	1609.65	713.8
889.0168	1487.2192	1609.2	714.1
889.16	1489.031	1610.55	714.15
889.3032	1490.842	1612.5	717.85
889.4464	1492.6522	1606.1	711.25
889.5896	1494.4618	1601.65	706.1
889.7327	1496.2705	1603.55	709
889.8759	1498.0785	1592.05	697.4
890.019	1499.8858	1590.9	695.55
890.1622	1501.6924	1582.2	687.05
890.3053	1503.4981	1577.6	682.3
890.4484	1505.3032	1568.15	672.1
890.5914	1507.1075	1566.05	668.65
890.7345	1508.911	1551.95	656.45
890.8776	1510.7138	1551.35	655.6
891.0206	1512.5159	1541.85	645.8
891.1637	1514.3172	1529.8	636
891.3067	1516.1178	1522.8	628.25
891.4497	1517.9176	1517.4	619.2
891.5927	1519.7166	1508.7	616.95
891.7357	1521.515	1513.8	614.45
891.8786	1523.3126	1506	611.35
892.0216	1525.1094	1499.75	604.9
892.1645	1526.9055	1488.4	593.3
892.3074	1528.7008	1492.05	598.85
892.4503	1530.4954	1492.35	591.4
892.5932	1532.2893	1484	591.3
892.7361	1534.0824	1482.65	585.55
892.879	1535.8747	1472	579.35
893.0218	1537.6663	1476.05	580.7
893.1647	1539.4572	1474.2	578.05
893.3075	1541.2473	1474.35	578.9
893.4503	1543.0367	1466.55	573.05
893.5931	1544.8253	1474.35	575.05
893.7359	1546.6132	1488.55	592.5
893.8787	1548.4003	1486.7	582.7
894.0214	1550.1867	1500.55	597.25
894.1642	1551.9723	1509.1	611.5
894.3069	1553.7572	1521.3	626.85
894.4496	1555.5414	1534.45	640.95
894.5923	1557.3247	1566.55	672.75
894.735	1559.1074	1609.5	718.1
894.8777	1560.8893	1644.75	752.35
895.0204	1562.6705	1693.45	800.95
895.163	1564.4509	1724.65	833.3
895.3056	1566.2305	1733.6	844.05
895.4482	1568.0094	1745.35	858.25
895.5908	1569.7876	1740	848.7
895.7334	1571.565	1738.9	847.65
895.876	1573.3417	1737.05	846.7
896.0186	1575.1176	1742.7	852.7
896.1611	1576.8928	1759.3	867.3
896.3036	1578.6672	1779.3	890.8
896.4461	1580.4409	1799.65	913
896.5886	1582.2138	1858.25	965.65
896.7311	1583.986	1899.85	1007.65
896.8736	1585.7575	1948.9	1060.8
897.0161	1587.5282	1975.75	1087.55
897.1585	1589.2981	2011.65	1123.5
897.3009	1591.0673	2029.1	1140.65
897.4433	1592.8358	2043.15	1155.75
897.5857	1594.6035	2048.9	1157.75
897.7281	1596.3704	2029.45	1137.55
897.8705	1598.1366	2003.3	1113.25
898.0128	1599.9021	1977.2	1084.1
898.1551	1601.6668	1946.3	1053.35
898.2975	1603.4308	1927.15	1034.5
898.4398	1605.194	1929.25	1034.9
898.5821	1606.9564	1952.15	1063.35
898.7243	1608.7182	2019.4	1129.45
898.8666	1610.4791	2101.6	1214.65
899.0088	1612.2394	2216.25	1330.4
899.1511	1613.9988	2335.65	1447.75
899.2933	1615.7576	2435.15	1547.15
899.4355	1617.5156	2490.25	1594.15
899.5776	1619.2728	2462.15	1570.4
899.7198	1621.0293	2356.8	1466.05
899.862	1622.785	2235.85	1343.8
900.0041	1624.54	2083.15	1191.45
900.1462	1626.2942	1956.15	1067.8
900.2883	1628.0477	1832.25	939.6
900.4304	1629.8005	1733.9	842.25
900.5725	1631.5525	1659.95	771.9
900.7145	1633.3037	1599.15	711
900.8566	1635.0542	1549.6	661.45
900.9986	1636.804	1508.75	619.3
901.1406	1638.553	1537.35	588.65
901.2826	1640.3013	1460.2	571.4
901.4245	1642.0488	1441.55	552.2
901.5665	1643.7955	1426.1	539.65
901.7085	1645.5416	1415.05	527.2
901.8504	1647.2868	1400.85	512.3
901.9923	1649.0313	1395.65	506.4
902.1342	1650.7751	1392.6	501.65
902.2761	1652.5181	1378.45	490.15
902.4179	1654.2604	1378.35	491.65
902.5598	1656.0019	1383.1	495.7
902.7016	1657.7427	1401.05	509.6
902.8434	1659.4828	1415.6	526.2
902.9852	1661.222	1450.7	559.1
903.127	1662.9606	1490.65	601.9
903.2687	1664.6984	1524.15	634.55
903.4105	1666.4354	1543	651.65
903.5522	1668.1717	1528.6	639.1
903.6939	1669.9072	1474.5	582.4
903.8356	1671.642	1433.65	541.55
903.9773	1673.3761	1380.05	489.8
904.119	1675.1094	1355.95	465.7
904.2606	1676.8419	1321	431.75
904.4022	1678.5737	1314.9	424.9
904.5439	1680.3048	1298.35	406.15
904.6855	1682.0351	1284.6	395.75
904.827	1683.7646	1280.4	384.25
904.9686	1685.4934	1271.3	380.3
905.1101	1687.2215	1263.9	374.65
905.2517	1688.9488	1263	373.7
905.3932	1690.6754	1260.9	372.55
905.5347	1692.4012	1265.05	375.2
905.6761	1694.1263	1253.75	362.3
905.8176	1695.8506	1250.2	359.05
905.9591	1697.5742	1246.85	355.75
906.1005	1699.297	1245.65	358.45
906.2419	1701.0191	1241.55	351.7
906.3833	1702.7404	1234.6	347.75
906.5246	1704.461	1236.85	345.45
906.666	1706.1808	1230.25	339
906.8073	1707.8999	1227.9	338
906.9487	1709.6182	1225.2	338.35
907.09	1711.3358	1224.5	338
907.2313	1713.0527	1218.35	333.25
907.3725	1714.7688	1230.8	336.05
907.5138	1716.4841	1222.8	331.45
907.655	1718.1987	1225.1	332.2
907.7962	1719.9126	1214.15	326.55
907.9374	1721.6257	1211.8	323.55
908.0786	1723.338	1211.7	324.25
908.2198	1725.0496	1209.9	322.25
908.3609	1726.7605	1203.45	313.95
908.502	1728.4706	1207.75	317.65
908.6431	1730.18	1203.8	311.5
908.7842	1731.8886	1202.95	314.1
908.9253	1733.5964	1224	315.2
909.0664	1735.3036	1203.4	312.75
909.2074	1737.0099	1204.7	317.2
909.3484	1738.7156	1196.1	308.6
909.4894	1740.4204	1201.25	312.15
909.6304	1742.1246	1197.45	309
909.7714	1743.8279	1199.3	312.7
909.9123	1745.5306	1196.6	307.7
910.0532	1747.2325	1198.85	312.2
910.1941	1748.9336	1188.7	301.75
910.335	1750.634	1192.25	301.3
910.4759	1752.3336	1196.05	308
910.6168	1754.0325	1188.4	299.9
910.7576	1755.7307	1186.35	299.95
910.8984	1757.4281	1194.35	305.3
911.0392	1759.1247	1200.6	302.7
911.18	1760.8206	1199.15	304.1
911.3208	1762.5158	1200.2	308.4
911.4615	1764.2102	1189.1	300.85
911.6022	1765.9039	1183.65	297.75
911.7429	1767.5968	1181.75	294.4
911.8836	1769.289	1183.5	298.75
912.0243	1770.9804	1192	301.45
912.1649	1772.6711	1191.45	303.3
912.3056	1774.361	1184.3	294.4
912.4462	1776.0502	1185.45	294.8
912.5868	1777.7386	1186.85	294.75
912.7274	1779.4263	1183.8	295.55
912.8679	1781.1132	1178.85	291.55
913.0084	1782.7994	1181.15	292.65
913.149	1784.4849	1176.85	292.3
913.2895	1786.1696	1194.9	291.45
913.4299	1787.8535	1177	289.75
913.5704	1789.5367	1171.35	286
913.7108	1791.2192	1175.9	288.3
913.8513	1792.9009	1196.5	284
913.9917	1794.5818	1172	282.85
914.132	1796.2621	1166.6	279.2
914.2724	1797.9415	1169.2	282.2
914.4128	1799.6202	1171.35	282.65
914.5531	1801.2982	1172.5	283.55
914.6934	1802.9755	1166.55	277.55
914.8337	1804.6519	1173.15	284.95
914.9739	1806.3277	1168.45	282.05
915.1142	1808.0027	1163.1	275.4
915.2544	1809.6769	1169.95	285.9
915.3946	1811.3504	1160.9	274.3
915.5348	1813.0231	1165.45	277.85
915.675	1814.6951	1162.25	275.85
915.8151	1816.3664	1164.1	274.35
915.9553	1818.0369	1156.85	266.9
916.0954	1819.7067	1157.35	269.4
916.2355	1821.3757	1154.95	264.9
916.3755	1823.044	1157.8	268.9
916.5156	1824.7115	1159.7	270.25
916.6556	1826.3783	1155.75	269.65
916.7956	1828.0443	1153.95	267.9
916.9356	1829.7096	1159.9	273.05
917.0756	1831.3741	1157.6	267.75
917.2155	1833.0379	1148.85	262.65
917.3555	1834.701	1157.55	269.35
917.4954	1836.3633	1147.85	261.1
917.6353	1838.0248	1149.6	261.45
917.7751	1839.6856	1149.2	261.7
917.915	1841.3457	1149.9	263.7
918.0548	1843.005	1150.85	262.55
918.1946	1844.6636	1145.7	258.05
918.3344	1846.3214	1147.6	260.55
918.4742	1847.9785	1149.4	261.5
918.6139	1849.6349	1149.05	259.3
918.7537	1851.2904	1161.55	264.25
918.8934	1852.9453	1147.3	258.1
919.0331	1854.5994	1145.85	255.3
919.1727	1856.2528	1150.9	259.05
919.3124	1857.9054	1143.65	256.55
919.452	1859.5572	1145.55	260.15
919.5916	1861.2083	1148.45	260.35
919.7312	1862.8587	1151.35	263
919.8708	1864.5084	1143.9	253
920.0103	1866.1572	1134.9	245.75
920.1498	1867.8054	1132.35	242.15
920.2893	1869.4528	1139.4	250.55
920.4288	1871.0994	1140.4	250.05
920.5683	1872.7453	1137.8	247.6
920.7077	1874.3905	1145.8	250.25
920.8471	1876.0349	1138.05	247.8
920.9865	1877.6786	1140.4	250.35
921.1259	1879.3215	1137.35	249.4
921.2653	1880.9637	1141.35	252.95
921.4046	1882.6051	1135.05	247.9
921.5439	1884.2458	1139.9	249.45
921.6832	1885.8858	1137.3	250.2
921.8225	1887.525	1135.95	248.3
921.9617	1889.1634	1132.6	243
922.101	1890.8011	1128.3	238.2
922.2402	1892.4381	1133.55	245.35
922.3794	1894.0743	1128.75	239.95
922.5185	1895.7098	1129.75	244.05
922.6577	1897.3446	1135.05	244
922.7968	1898.9786	1131.3	236
922.9359	1900.6118	1122.15	235.5
923.075	1902.2443	1127.05	235.05
923.214	1903.8761	1130.7	242.55
923.3531	1905.5071	1128.65	241.55
923.4921	1907.1374	1120.9	232.15
923.6311	1908.7669	1123.55	237.35
923.77	1910.3957	1125.4	238.95
923.909	1912.0237	1120.95	232.85
924.0479	1913.651	1121.9	233.55
924.1868	1915.2776	1116.8	231.25
924.3257	1916.9034	1115.2	227.05
924.4646	1918.5285	1115.8	231.1
924.6034	1920.1528	1116.05	227.85
924.7422	1921.7764	1117.7	228.85
924.881	1923.3992	1116.3	229.2
925.0198	1925.0213	1112.75	225.3
925.1586	1926.6427	1114.7	227.9
925.2973	1928.2633	1332	226.95
925.436	1929.8832	1117.7	225.85
925.5747	1931.5023	1113.35	226.1
925.7134	1933.1207	1115.2	226.85
925.852	1934.7383	1117.4	230.45
925.9906	1936.3552	1111.55	225.1
926.1292	1937.9714	1103.8	215.15
926.2678	1939.5868	1107.4	218.7
926.4064	1941.2015	1110.95	223.9
926.5449	1942.8154	1108.3	218.85
926.6834	1944.4286	1105.9	216.6
926.8219	1946.041	1131.7	219.15
926.9604	1947.6528	1108.4	214.2
927.0988	1949.2637	1106.05	219.35
927.2372	1950.8739	1102.15	213.4
927.3756	1952.4834	1099.85	210.15
927.514	1954.0921	1102.15	214.3
927.6523	1955.7001	1106.9	215.55
927.7907	1957.3074	1099.65	214.25
927.929	1958.9139	1100.2	214.4
928.0673	1960.5197	1104.15	216.5
928.2055	1962.1247	1101.55	213.7
928.3438	1963.729	1097.75	212.65
928.482	1965.3325	1122.5	212.5
928.6202	1966.9353	1092.9	209.25
928.7584	1968.5374	1097.75	210.15
928.8965	1970.1387	1094.05	207.25
929.0346	1971.7393	1096.15	210
929.1727	1973.3392	1093.4	207.15
929.3108	1974.9383	1093.3	208.9
929.4489	1976.5366	1092.8	206.95
929.5869	1978.1342	1090.35	204.65
929.7249	1979.7311	1091.65	203.95
929.8629	1981.3273	1087.4	202.55
930.0009	1982.9227	1092.65	206.45
930.1388	1984.5173	1081.95	198.55
930.2767	1986.1112	1088.85	205.05
930.4146	1987.7044	1089.85	205.8
930.5525	1989.2968	1087.85	200.75
930.6904	1990.8885	1088.75	204.05
930.8282	1992.4795	1083	197.65
930.966	1994.0697	1077.2	193.05
931.1038	1995.6592	1089.15	205.25
931.2415	1997.2479	1079.15	194
931.3793	1998.8359	1083.05	200
931.517	2000.4232	1078.9	196.65
931.6547	2002.0097	1076.45	197.45
931.7923	2003.5955	1082.45	197.65
931.93	2005.1805	1081.35	195.7
932.0676	2006.7648	1081.45	198.6
932.2052	2008.3484	1081.3	197.8
932.3427	2009.9312	1077.25	193.7
932.4803	2011.5133	1073.7	192.4
932.6178	2013.0946	1076.4	193.95
932.7553	2014.6752	1075.4	195.2
932.8928	2016.2551	1072.95	188.4
933.0302	2017.8342	1078.1	196.1
933.1676	2019.4126	1073.85	191.6
933.305	2020.9902	1074.65	193.95
933.4424	2022.5672	1071	187.3
933.5798	2024.1433	1077.6	189.55
933.7171	2025.7188	1075.35	196.65
933.8544	2027.2935	1073.7	191.3
933.9917	2028.8674	1071	192.55
934.129	2030.4406	1066.6	185.85
934.2662	2032.0131	1067.1	187.2
934.4034	2033.5849	1078.9	190.3
934.5406	2035.1559	1069.8	188.3
934.6778	2036.7261	1065.35	182.8
934.8149	2038.2957	1070.15	186.55
934.952	2039.8645	1072.55	190.7
935.0891	2041.4325	1074	188.4
935.2262	2042.9998	1067.5	186.9
935.3632	2044.5664	1072.95	188.7
935.5002	2046.1323	1069.65	188.2
935.6372	2047.6974	1066.9	186.65
935.7742	2049.2617	1062.3	182.85
935.9111	2050.8254	1094.4	185.8
936.048	2052.3883	1070.05	186.1
936.1849	2053.9504	1071.2	187.65
936.3218	2055.5118	1069.9	187.6
936.4586	2057.0725	1069.7	185.25
936.5955	2058.6325	1068.9	185.75
936.7323	2060.1917	1063.65	181.75
936.869	2061.7502	1069.25	184.6
937.0058	2063.3079	1065.65	185.65
937.1425	2064.8649	1063.05	179.2
937.2792	2066.4212	1062.95	181.35
937.4159	2067.9767	1062.9	180.15
937.5525	2069.5315	1061.45	180.95
937.6891	2071.0856	1063.3	181.55
937.8257	2072.6389	1061.85	179.2
937.9623	2074.1915	1058.45	179.75
938.0989	2075.7433	1057.85	174.3
938.2354	2077.2945	1063.7	184.2
938.3719	2078.8448	1059.25	178.45
938.5084	2080.3945	1062.35	178.35
938.6448	2081.9434	1060.25	177.6
938.7812	2083.4916	1057.15	172.35
938.9176	2085.039	1062.75	177.15
939.054	2086.5857	1065.2	178.55
939.1903	2088.1317	1060.2	175.15
939.3267	2089.677	1060.1	174
939.463	2091.2215	1060.25	173.75
939.5992	2092.7652	1061.4	174.65
939.7355	2094.3083	1060.05	174.15
939.8717	2095.8506	1056.05	173.1
940.0079	2097.3921	1058.9	175.05
940.1441	2098.933	1057.45	174.15
940.2802	2100.4731	1057.6	174.35
940.4163	2102.0124	1074.55	175.1
940.5524	2103.5511	1058.35	173.5
940.6885	2105.089	1061.5	179.35
940.8245	2106.6261	1055.6	171.6
940.9606	2108.1626	1052.65	169.1
941.0965	2109.6983	1080.7	169.5
941.2325	2111.2332	1059.35	173.5
941.3684	2112.7675	1056.15	171.9
941.5044	2114.301	1058.65	173.7
941.6403	2115.8337	1057.35	175.85
941.7761	2117.3657	1052.95	168.25
941.912	2118.897	1053.65	167.75
942.0478	2120.4276	1060.35	169.55
942.1835	2121.9575	1054.85	170.6
942.3193	2123.4866	1069.6	172.95
942.455	2125.0149	1058.2	172.25
942.5907	2126.5426	1048.85	167.9
942.7264	2128.0695	1053.15	166.4
942.8621	2129.5956	1052.3	172.3
942.9977	2131.1211	1053.95	168.4
943.1333	2132.6458	1051	171.2
943.2689	2134.1698	1052.85	168.95
943.4044	2135.693	1049.5	162.55
943.54	2137.2155	1054.6	167.85
943.6755	2138.7373	1053.15	169.4
943.8109	2140.2584	1050.85	168.85
943.9464	2141.7787	1054.2	167.2
944.0818	2143.2983	1049.5	169.9
944.2172	2144.8171	1044.45	164.8
944.3526	2146.3353	1048.65	165.95
944.4879	2147.8527	1044.95	164.5
944.6232	2149.3693	1048.7	165.45
944.7585	2150.8853	1050.85	167.1
944.8938	2152.4005	1052.3	167.5
945.029	2153.9149	1051	166.4
945.1642	2155.4287	1048.3	164.7
945.2994	2156.9417	1050.25	166.4
945.4346	2158.454	1049.15	163.4
945.5697	2159.9655	1046	163.4
945.7048	2161.4764	1043.25	161.85
945.8399	2162.9865	1042.9	160.95
945.9749	2164.4958	1041.7	158.95
946.1099	2166.0045	1048.75	163.2
946.2449	2167.5124	1043.45	160.5
946.3799	2169.0195	1042.8	160.85
946.5148	2170.526	1045.5	162.2
946.6498	2172.0317	1042.4	158.75
946.7846	2173.5367	1043.4	158.4
946.9195	2175.0409	1048.2	165.85
947.0543	2176.5445	1044.4	160.2
947.1891	2178.0473	1044.4	159.95
947.3239	2179.5494	1044.5	157.15
947.4587	2181.0507	1041.85	161.2
947.5934	2182.5513	1040.95	158.55
947.7281	2184.0512	1042.1	158.05
947.8628	2185.5504	1037.05	155.1
947.9974	2187.0488	1039.8	159
948.132	2188.5465	1035.3	154
948.2666	2190.0435	1037.65	154.4
948.4012	2191.5397	1036.55	152.75
948.5357	2193.0353	1038.4	153.2
948.6702	2194.5301	1041.2	155.35
948.8047	2196.0241	1043.3	156.95
948.9392	2197.5175	1038	151.65
949.0736	2199.0101	1041.85	155.45
949.208	2200.502	1035.7	153.65
949.3424	2201.9931	1036.75	153.5
949.4767	2203.4835	1033.8	150
949.611	2204.9733	1048.85	151.15
949.7453	2206.4622	1035.95	154.65
949.8796	2207.9505	1037.4	153
950.0138	2209.438	1028.6	147.4
950.148	2210.9248	1034.15	150.05
950.2822	2212.4109	1030.95	148.1
950.4164	2213.8962	1037.15	150.2
950.5505	2215.3809	1032.55	148
950.6846	2216.8648	1032.35	145.9
950.8186	2218.3479	1037.6	147.4
950.9527	2219.8304	1034.45	143.95
951.0867	2221.3121	1035.25	149.85
951.2207	2222.7931	1030	144.6
951.3546	2224.2733	1030.4	145.55
951.4886	2225.7529	1028.3	143.45
951.6225	2227.2317	1027.2	143.7
951.7563	2228.7098	1026.55	146.6
951.8902	2230.1872	1025.75	143.9
952.024	2231.6638	1023.45	140.15
952.1578	2233.1397	1028.35	140.95
952.2916	2234.6149	1022.6	142.3
952.4253	2236.0894	1023.2	139.25
952.559	2237.5632	1034.25	140.55
952.6927	2239.0362	1026.25	144.1
952.8263	2240.5085	1023.15	139.4
952.9599	2241.9801	1025.25	142.5
953.0935	2243.4509	1022.5	140.6
953.2271	2244.921	1022.2	137.2
953.3606	2246.3904	1025.3	137.95
953.4941	2247.8591	1023.3	139.55
953.6276	2249.3271	1021.95	138.5
953.7611	2250.7943	1025.25	141.15
953.8945	2252.2608	1017.8	133.65
954.0279	2253.7266	1023.1	138.45
954.1612	2255.1917	1018.9	137.1
954.2946	2256.656	1019.15	137.15
954.4279	2258.1197	1014.9	133.35
954.5612	2259.5826	1018.25	134.9
954.6944	2261.0447	1020.55	137.95
954.8276	2262.5062	1019.15	134.8
954.9608	2263.9669	1020.75	134.95
955.094	2265.4269	1017.3	134.9
955.2271	2266.8862	1016.25	131.35
955.3602	2268.3448	1020.5	137.25
955.4933	2269.8026	1014.8	133.6
955.6264	2271.2598	1014.3	132.1
955.7594	2272.7162	1019.4	137.35
955.8924	2274.1719	1016.75	133.35
956.0253	2275.6268	1017.2	134
956.1583	2277.0811	1019.3	136.25
956.2912	2278.5346	1014.5	133
956.4241	2279.9874	1012.75	129.25
956.5569	2281.4395	1014.65	132.15
956.6897	2282.8908	1017.45	128.55
956.8225	2284.3414	1019.65	133.8
956.9553	2285.7914	1013.55	132.75
957.088	2287.2406	1013.7	127.3
957.2207	2288.689	1013.3	130.05
957.3534	2290.1368	1020.75	137.35
957.486	2291.5838	1016.95	131.2
957.6186	2293.0302	1014.55	129.75
957.7512	2294.4758	1014.15	131.6
957.8838	2295.9206	1012.35	127.75
958.0163	2297.3648	1012.85	128.8
958.1488	2298.8082	1013.15	130.55
958.2813	2300.251	1008.15	123.05
958.4137	2301.693	1011.65	124.45
958.5461	2303.1343	1015.4	131.15
958.6785	2304.5748	1012.05	128.65
958.8108	2306.0147	1007.8	124.6
958.9432	2307.4538	1011.2	125.5
959.0754	2308.8922	1009.9	128.45
959.2077	2310.3299	1008	127.4
959.3399	2311.7669	1009.65	127.95
959.4721	2313.2031	1008.5	124
959.6043	2314.6387	1008.6	124.8
959.7365	2316.0735	1009.85	128.25
959.8686	2317.5076	1007.3	123.75
960.0006	2318.941	1005.25	121.5
960.1327	2320.3737	1010.25	124.2
960.2647	2321.8056	1014.15	128.55
960.3967	2323.2369	1007	121.1
960.5287	2324.6674	1010.2	125.1
960.6606	2326.0972	1012.25	127.05
960.7925	2327.5263	1016.85	133.55
960.9244	2328.9547	1019.6	136.9
961.0562	2330.3823	1017.4	132.3
961.1881	2331.8092	1016.15	128.65
961.3198	2333.2355	1009.5	125.55
961.4516	2334.661	1007.5	121.55
961.5833	2336.0858	1005.55	118.55
961.715	2337.5098	1003.5	121.45
961.8467	2338.9332	1002.5	119
961.9783	2340.3558	1009	124.1
962.1099	2341.7778	1002.55	120.6
962.2415	2343.199	1003.9	119.65
962.373	2344.6195	1002	118.1
962.5045	2346.0393	998.55	114.8
962.636	2347.4583	1004.05	119.3
962.7675	2348.8767	1004.55	117.8
962.8989	2350.2943	1000.3	113.95
963.0303	2351.7113	1005.5	117.4
963.1617	2353.1275	1002.7	116.8
963.293	2354.543	1028.7	120.95
963.4243	2355.9578	1000.6	115.7
963.5556	2357.3718	994.75	112.05
963.6868	2358.7852	1001.1	114.65
963.818	2360.1978	1000.15	115.85
963.9492	2361.6098	997.6	115.05
964.0803	2363.021	1002.75	115.3
964.2114	2364.4315	1003.25	118.45
964.3425	2365.8413	1002.7	116.8
964.4736	2367.2504	997.05	112.15
964.6046	2368.6587	999.9	114.55
964.7356	2370.0664	997.8	115
964.8666	2371.4733	998.5	114.85
964.9975	2372.8795	998.15	113.95
965.1284	2374.285	995.75	111.3
965.2593	2375.6899	998.65	115.6
965.3901	2377.0939	996.95	114.2
965.5209	2378.4973	1001.25	115.4
965.6517	2379.9	998	112.35
965.7825	2381.3019	992.8	108.65
965.9132	2382.7032	996.4	114.7
966.0439	2384.1037	995	111.75
966.1745	2385.5035	997.5	111.8
966.3051	2386.9027	993.35	110.4
966.4357	2388.3011	996.35	108.45
966.5663	2389.6987	990.4	105.35
966.6968	2391.0957	989.9	106.95
966.8273	2392.492	987.6	103.55
966.9578	2393.8876	995.7	110.9
967.0882	2395.2824	993.15	111
967.2186	2396.6765	992.95	108.75
967.349	2398.07	990.7	106.6
967.4793	2399.4627	995.6	108.7
967.6097	2400.8547	993.3	107.25
967.7399	2402.246	990.65	98.8
967.8702	2403.6366	993	106.5
968.0004	2405.0265	990.2	106.2
968.1306	2406.4156	994.65	106.8
968.2607	2407.8041	989.1	100.65
968.3909	2409.1918	992.3	105.15
968.521	2410.5789	988.95	103.95
968.651	2411.9652	991.45	103.5
968.781	2413.3508	983.85	98.95
968.911	2414.7358	986	98.55
969.041	2416.12	983.3	100.45
969.1709	2417.5035	991.55	104.6
969.3008	2418.8863	988.6	102.25
969.4307	2420.2684	988.2	101.25
969.5606	2421.6497	987.8	102.8
969.6904	2423.0304	983.5	102.15
969.8201	2424.4104	983.8	97.9
969.9499	2425.7896	987.25	100.7
970.0796	2427.1682	988.7	104.2
970.2093	2428.546	985	97.85
970.3389	2429.9232	985.4	98.6
970.4685	2431.2996	986.7	102.6
970.5981	2432.6753	985.75	101.5
970.7277	2434.0503	981.45	96.5
970.8572	2435.4246	983.15	97.35
970.9867	2436.7982	985.85	97.8
971.1161	2438.1711	982.7	96.75
971.2456	2439.5433	982.95	94.6
971.375	2440.9148	983.95	97.8
971.5043	2442.2856	983.2	96.8
971.6336	2443.6557	987.05	101.15
971.7629	2445.025	982.85	97.85
971.8922	2446.3937	982.35	97.05
972.0214	2447.7617	983.4	96.5
972.1506	2449.1289	978.85	95
972.2798	2450.4955	983.95	95.65
972.4089	2451.8613	975.05	91.3
972.538	2453.2265	982.15	98.45
972.6671	2454.5909	978.75	94.25
972.7961	2455.9546	979.15	93.6
972.9251	2457.3177	974.45	90.05
973.0541	2458.68	980.6	92.15
973.1831	2460.0416	979.55	95.05
973.312	2461.4025	978.75	93.65
973.4408	2462.7627	987.75	91.85
973.5697	2464.1222	976.9	94.15
973.6985	2465.4811	977.75	93.15
973.8273	2466.8392	974.15	89.05
973.956	2468.1966	980.2	92.75
974.0847	2469.5533	983.05	97.1
974.2134	2470.9093	977.95	91.2
974.3421	2472.2645	979.85	93.05
974.4707	2473.6191	974.8	91.4
974.5993	2474.973	975.95	91.8
974.7278	2476.3262	979.6	94.35
974.8563	2477.6787	976.95	93.2
974.9848	2479.0305	971.8	85.25
975.1132	2480.3816	978.4	90.85
975.2417	2481.7319	977	92.05
975.37	2483.0816	978.7	92.25
975.4984	2484.4306	979.95	94.35
975.6267	2485.7789	976.5	94.25
975.755	2487.1264	974.15	87.5
975.8833	2488.4733	970.2	87.25
976.0115	2489.8195	981.9	89.3
976.1397	2491.165	975.75	87.95
976.2678	2492.5097	977.6	94.15
976.3959	2493.8538	971.15	87
976.524	2495.1972	973.4	89.05
976.6521	2496.5398	975.05	89.5
976.7801	2497.8818	977.15	89.05
976.9081	2499.2231	974.35	88.75
977.036	2500.5637	974.3	89.7
977.164	2501.9035	974.6	89.4
977.2918	2503.2427	975.15	88.25
977.4197	2504.5812	974.8	88.8
977.5475	2505.919	974.7	87.9
977.6753	2507.256	974.7	89.05
977.8031	2508.5924	971.75	87.8
977.9308	2509.9281	976.55	86.35
978.0585	2511.2631	969.3	86.25
978.1861	2512.5974	970.95	87.35
978.3137	2513.9309	971.05	87.2
978.4413	2515.2638	997.8	86.9
978.5689	2516.596	970.4	84.8
978.6964	2517.9275	971.4	85.1
978.8239	2519.2583	968	82.6
978.9513	2520.5884	968.25	81.6
979.0788	2521.9178	964.4	78.75
979.2062	2523.2465	969.1	87
979.3335	2524.5745	968.25	84
979.4608	2525.9018	969.05	86.85
979.5881	2527.2284	969.95	86.35
979.7154	2528.5543	965.8	82.9
979.8426	2529.8796	969.5	85.45
979.9698	2531.2041	968.75	84.5
980.0969	2532.5279	962.85	80.7
980.224	2533.851	967.25	82
980.3511	2535.1735	964.35	78.5
980.4781	2536.4952	964.45	81.3
980.6052	2537.8163	963.25	78.1
980.7321	2539.1366	965.05	83
980.8591	2540.4562	968.9	82.2
980.986	2541.7752	968	82.25
981.1129	2543.0935	967.3	83.7
981.2397	2544.411	963.45	77.2
981.3665	2545.7279	962.65	77.15
981.4933	2547.0441	962.1	76
981.62	2548.3596	969.05	80.3
981.7467	2549.6744	963.05	80.3
981.8734	2550.9885	973.65	81.85
982.0001	2552.3019	963.9	82.55
982.1267	2553.6146	962.25	76.7
982.2532	2554.9266	962.15	76
982.3798	2556.2379	967.2	82.7
982.5063	2557.5485	962.75	81.1
982.6327	2558.8585	972	79.75
982.7592	2560.1677	970.8	82.3
982.8856	2561.4762	963.15	79.15
983.0119	2562.7841	963.9	77.55
983.1383	2564.0913	961.2	76.65
983.2646	2565.3977	963.45	80.35
983.3908	2566.7035	961.15	77.7
983.517	2568.0086	965.3	80.1
983.6432	2569.313	965.3	80.95
983.7694	2570.6167	966.05	78.3
983.8955	2571.9197	961.35	78.65
984.0216	2573.222	962.2	72.65
984.1476	2574.5236	960.75	74.3
984.2737	2575.8246	963.6	76.3
984.3996	2577.1248	964.4	80.1
984.5256	2578.4244	960.1	76.55
984.6515	2579.7232	959.15	73.6
984.7774	2581.0214	984.85	74.9
984.9032	2582.3189	962.05	78.25
985.029	2583.6157	966.6	76.75
985.1548	2584.9118	961.2	75.4
985.2806	2586.2072	959.9	76.05
985.4063	2587.5019	962.15	79.05
985.5319	2588.7959	958.6	73.5
985.6576	2590.0893	957.45	71.55
985.7832	2591.3819	955.1	71.7
985.9087	2592.6739	960.45	76.7
986.0343	2593.9652	960.9	75.05
986.1597	2595.2557	961.8	79.8
986.2852	2596.5456	961.8	74.15
986.4106	2597.8348	960.4	77.2
986.536	2599.1234	961.55	79.3
986.6614	2600.4112	965.65	82.15
986.7867	2601.6983	963.05	77.7
986.912	2602.9848	961.35	78.05
987.0372	2604.2705	966.8	74.9
987.1624	2605.5556	964.35	80.55
987.2876	2606.84	959.75	76.25
987.4128	2608.1237	960.65	76.5
987.5379	2609.4067	959.7	75.3
987.6629	2610.689	967.9	72.95
987.788	2611.9707	963.35	73.05
987.913	2613.2516	961.45	73.35
988.0379	2614.5319	958.9	75.05
988.1629	2615.8115	957.7	75.3
988.2878	2617.0903	956.3	70.8
988.4126	2618.3685	958.6	74.6
988.5375	2619.6461	956.3	73.1
988.6622	2620.9229	954.1	70.9
988.787	2622.199	957.1	71.75
988.9117	2623.4745	957.55	73.35
989.0364	2624.7493	953.85	71.9
989.161	2626.0234	954.5	72.15
989.2857	2627.2968	957.4	74.3
989.4102	2628.5695	956.5	69.55
989.5348	2629.8415	955.85	73.75
989.6593	2631.1128	956.8	69.75
989.7837	2632.3835	956.25	73
989.9082	2633.6535	955.6	71.75
990.0326	2634.9228	952.65	70.25
990.1569	2636.1914	951.7	68.2
990.2812	2637.4593	955.7	71.9
990.4055	2638.7265	954.4	68.1
990.5298	2639.9931	949.05	65.85
990.654	2641.259	954.35	70.65
990.7782	2642.5242	952.4	67.6
990.9023	2643.7887	954.9	70.45
991.0264	2645.0525	951.95	68.45
991.1505	2646.3156	954.05	67.45
991.2745	2647.5781	951.2	67.8
991.3985	2648.8398	949.8	64.95
991.5225	2650.1009	988.25	67.1
991.6464	2651.3613	947.7	63.6
991.7703	2652.6211	949.5	65.4
991.8942	2653.8801	946.9	63.4
992.018	2655.1385	948.9	61.5
992.1418	2656.3961	948.65	64.45
992.2655	2657.6531	944.95	61.5
992.3892	2658.9094	948.75	64.85
992.5129	2660.1651	949.4	65.8
992.6366	2661.42	946.75	61.7
992.7602	2662.6743	950.8	66.8
992.8837	2663.9279	949.85	66.65
993.0073	2665.1808	950.65	66.95
993.1307	2666.433	952.7	67.8
993.2542	2667.6846	948	64.35
993.3776	2668.9354	954.4	68.85
993.501	2670.1856	950.75	66.1
993.6244	2671.4351	947.85	62.35
993.7477	2672.6839	951.6	68.75
993.8709	2673.9321	951.15	69.5
993.9942	2675.1795	948.95	64.8
994.1174	2676.4263	948.4	65.35
994.2405	2677.6724	949.3	65.6
994.3637	2678.9179	950.85	67.45
994.4868	2680.1626	953.3	68.3
994.6098	2681.4067	951.15	68.95
994.7328	2682.6501	953.9	69.15
994.8558	2683.8928	951.5	68
994.9788	2685.1348	946.45	63.95
995.1017	2686.3761	946.55	64.2
995.2245	2687.6168	948.35	65.5
995.3474	2688.8568	948.1	65.5
995.4702	2690.0961	949.05	68.5
995.5929	2691.3348	947.65	64.2
995.7156	2692.5727	945.65	62.55
995.8383	2693.81	944.7	60.3
995.961	2695.0466	940.6	58.85
996.0836	2696.2826	945.35	59.3
996.2062	2697.5178	951.7	64.75
996.3287	2698.7524	944.25	59.25
996.4512	2699.9863	948.55	64.45
996.5737	2701.2195	944.7	62.45
996.6961	2702.452	947.8	63.25
996.8185	2703.6839	946.45	62.55
996.9408	2704.9151	945.5	65.65
997.0631	2706.1456	945.75	61.4
997.1854	2707.3755	948.1	65.4
997.3077	2708.6046	947.7	62.15
997.4299	2709.8331	950.5	67.6
997.552	2711.0609	950.65	66.25
997.6742	2712.2881	949.55	66.5
997.7963	2713.5145	950.6	63.7
997.9183	2714.7403	945.7	64.8
998.0403	2715.9654	952.25	67.8
998.1623	2717.1899	964.1	67.75
998.2842	2718.4136	954.7	73.3
998.4062	2719.6367	951.85	69.15
998.528	2720.8591	961.35	70.35
998.6498	2722.0809	956.55	71.85
998.7716	2723.3019	956.4	70.85
998.8934	2724.5223	959.65	75.3
999.0151	2725.7421	955.5	72.1
999.1368	2726.9611	955.75	69.9
999.2584	2728.1795	958	71.1
999.38	2729.3972	950.7	68.95
999.5016	2730.6142	966.3	70.05
999.6231	2731.8306	953.25	70.8
999.7446	2733.0462	949.1	63.45
999.8661	2734.2612	953.8	67.3
999.9875	2735.4756	946.9	63.6
1000.1089	2736.6892	944.55	61.5
1000.2302	2737.9022	944	62.4
1000.3515	2739.1145	944.15	62.35
1000.4728	2740.3262	952.4	61.25
1000.594	2741.5372	944	62.6
1000.7152	2742.7475	942.7	59.9
1000.8363	2743.9571	943.8	58.15
1000.9575	2745.1661	943.4	57.3
1001.0785	2746.3744	940.4	56.6
1001.1996	2747.582	943.3	58.65
1001.3206	2748.7889	937.1	52.95
1001.4415	2749.9952	937.4	54.1
1001.5625	2751.2008	939.1	56.3
1001.6833	2752.4057	939.2	55.75
1001.8042	2753.61	935.85	53.5
1001.925	2754.8136	940.55	54.9
1002.0458	2756.0165	936.05	53.65
1002.1665	2757.2188	933.8	51.4
1002.2872	2758.4204	938.1	56.2
1002.4078	2759.6213	938.1	53.65
1002.5285	2760.8215	939.2	53.2
1002.649	2762.0211	935.15	50.5
1002.7696	2763.22	941.35	55.4
1002.8901	2764.4182	937.65	53.8
1003.0106	2765.6158	934.65	51.95
1003.131	2766.8127	936.95	54.45
1003.2514	2768.009	932.95	51.25
1003.3717	2769.2045	934.65	51.4
1003.492	2770.3994	936.7	51.85
1003.6123	2771.5936	933.65	49.5
1003.7325	2772.7872	931.45	49.8
1003.8527	2773.9801	931.95	47.9
1003.9729	2775.1723	948.1	51.25
1004.093	2776.3639	927.5	46.8
1004.2131	2777.5548	936.6	51.25
1004.3331	2778.745	934.1	51.2
1004.4531	2779.9346	932.55	49.5
1004.5731	2781.1235	932.65	48.6
1004.693	2782.3117	929.05	47.9
1004.8129	2783.4992	933.75	52.45
1004.9328	2784.6861	930.75	47.25
1005.0526	2785.8723	932.2	49
1005.1723	2787.0579	933.7	50.15
1005.2921	2788.2428	930.7	49.35
1005.4118	2789.427	930.6	47.35
1005.5314	2790.6106	931.55	49.95
1005.651	2791.7935	932.35	48.25
1005.7706	2792.9757	929.15	48.2
1005.8902	2794.1573	932.65	46.85
1006.0097	2795.3382	933.25	52.75
1006.1291	2796.5184	931.65	51.35
1006.2485	2797.698	933.6	48.3
1006.3679	2798.8769	932.25	49.1
1006.4873	2800.0551	936.2	53.15
1006.6066	2801.2327	938.1	55.05
1006.7258	2802.4096	934.95	54.15
1006.8451	2803.5859	935.1	51.85
1006.9642	2804.7615	934.15	49.95
1007.0834	2805.9364	936.35	55.25
1007.2025	2807.1106	936.2	55.45
1007.3216	2808.2842	936.85	52.25
1007.4406	2809.4572	941.25	58.5
1007.5596	2810.6294	943.25	61.8
1007.6785	2811.801	942.15	60.65
1007.7975	2812.972	942.85	61.2
1007.9163	2814.1423	943.1	59.25
1008.0352	2815.3119	947.15	66.5
1008.154	2816.4808	950.45	67.65
1008.2727	2817.6491	956.15	75.25
1008.3914	2818.8167	957.8	76.15
1008.5101	2819.9837	966.25	79.25
1008.6288	2821.15	969.2	87.55
1008.7474	2822.3157	971.55	91.85
1008.8659	2823.4807	981.5	98.55
1008.9844	2824.645	991.05	108.25
1009.1029	2825.8086	999.85	119.55
1009.2214	2826.9716	1008.8	128.85
1009.3398	2828.134	1016.35	135.5
1009.4581	2829.2957	1022.3	138.55
1009.5764	2830.4567	1031.85	152.4
1009.6947	2831.617	1040.65	158.65
1009.813	2832.7767	1038.05	159.45
1009.9312	2833.9358	1041.3	160.65
1010.0493	2835.0941	1040.6	159
1010.1675	2836.2519	1037.2	157.1
1010.2855	2837.4089	1026.95	144.25
1010.4036	2838.5653	1024.9	142.15
1010.5216	2839.7211	1020.8	139.6
1010.6396	2840.8761	1019.6	134.65
1010.7575	2842.0306	1019.9	138.95
1010.8754	2843.1843	1021.4	140.05
1010.9932	2844.3374	1017.75	135.65
1011.111	2845.4899	1025.85	146.35
1011.2288	2846.6417	1027.95	146.45
1011.3465	2847.7928	1024.65	143.15
1011.4642	2848.9433	1026	145.95
1011.5818	2850.0931	1029.35	148.45
1011.6995	2851.2422	1033.95	150.8
1011.817	2852.3907	1033.25	150.4
1011.9345	2853.5385	1036.35	153
1012.052	2854.6857	1059.05	150.1
1012.1695	2855.8323	1036	155
1012.2869	2856.9781	1036.3	156
1012.4042	2858.1233	1039.85	158.1
1012.5216	2859.2679	1044.95	164.4
1012.6389	2860.4118	1052.6	173.35
1012.7561	2861.555	1058.6	170.9
1012.8733	2862.6976	1059.8	176.8
1012.9905	2863.8395	1062.15	181.45
1013.1076	2864.9808	1063.2	181.2
1013.2247	2866.1214	1060.75	180.05
1013.3417	2867.2614	1061.55	180
1013.4587	2868.4007	1067.2	186.3
1013.5757	2869.5393	1071.35	186.6
1013.6926	2870.6773	1074.8	190.05
1013.8095	2871.8146	1078	192.65
1013.9263	2872.9513	1083.35	198.7
1014.0431	2874.0874	1074.15	192.95
1014.1599	2875.2227	1083.9	202.6
1014.2766	2876.3574	1080.8	198.6
1014.3933	2877.4915	1080.9	200.75
1014.51	2878.6249	1087.5	206.45
1014.6266	2879.7577	1092.9	210.5
1014.7431	2880.8898	1101.25	209.55
1014.8596	2882.0212	1091.95	211.75
1014.9761	2883.152	1097.3	215.55
1015.0925	2884.2821	1099.75	218.45
1015.2089	2885.4116	1101.25	221.6
1015.3253	2886.5405	1106.1	223.95
1015.4416	2887.6686	1107.6	223.45
1015.5579	2888.7962	1106.8	229.55
1015.6741	2889.923	1104.1	225.75
1015.7903	2891.0493	1107.05	224.95
1015.9065	2892.1748	1105.35	224.5
1016.0226	2893.2997	1106.7	223.85
1016.1387	2894.424	1104.2	222.95
1016.2547	2895.5476	1108.55	226.55
1016.3707	2896.6706	1104.9	224.2
1016.4866	2897.7929	1106.9	226.65
1016.6025	2898.9145	1103.35	220.45
1016.7184	2900.0355	1107.6	224.5
1016.8342	2901.1559	1106.4	226.9
1016.95	2902.2756	1107.4	222.6
1017.0658	2903.3946	1109.8	228.9
1017.1815	2904.513	1100.7	215.05
1017.2971	2905.6308	1102	219.5
1017.4127	2906.7479	1102.7	221.1
1017.5283	2907.8643	1102.45	220.35
1017.6439	2908.9801	1099.3	217.75
1017.7594	2910.0953	1101.75	220.75
1017.8748	2911.2098	1102.7	218.95
1017.9902	2912.3236	1103.7	216.55
1018.1056	2913.4368	1098.65	212.95
1018.2209	2914.5494	1097.2	215.35
1018.3362	2915.6613	1101.55	212.65
1018.4515	2916.7725	1096.45	213.3
1018.5667	2917.8831	1088	205.7
1018.6819	2918.9931	1093.2	210.55
1018.797	2920.1024	1086.8	203.8
1018.9121	2921.211	1081.1	199.3
1019.0271	2922.319	1078.95	196.2
1019.1421	2923.4264	1077.65	196.45
1019.2571	2924.5331	1075.6	194.6
1019.372	2925.6391	1076	196.55
1019.4869	2926.7445	1071.7	193.05
1019.6017	2927.8493	1072.1	190.45
1019.7165	2928.9534	1078.85	196.9
1019.8313	2930.0569	1079.5	196.1
1019.946	2931.1597	1081.35	198.8
1020.0606	2932.2619	1082.85	202.1
1020.1753	2933.3634	1081.1	200.9
1020.2899	2934.4643	1091	202.6
1020.4044	2935.5645	1090.55	202.8
1020.5189	2936.6641	1088.35	204.2
1020.6334	2937.763	1081.7	201.9
1020.7478	2938.8613	1085.35	204.3
1020.8622	2939.959	1088.3	201.75
1020.9765	2941.056	1083.6	203.8
1021.0908	2942.1523	1072.35	190.1
1021.2051	2943.248	1067.25	184.9
1021.3193	2944.3431	1054.6	175.15
1021.4334	2945.4375	1046.3	165.8
1021.5476	2946.5313	1038.3	159.75
1021.6617	2947.6244	1034	153.15
1021.7757	2948.7169	1024	141.5
1021.8897	2949.8087	1013.45	132.5
1022.0037	2950.8999	1008.75	129
1022.1176	2951.9904	1000.2	120.15
1022.2315	2953.0803	999.3	117
1022.3453	2954.1696	994.4	112.25
1022.4591	2955.2582	984.95	105.65
1022.5728	2956.3462	984.55	104.4
1022.6865	2957.4335	984.6	102.35
1022.8002	2958.5202	986.15	104.2
1022.9138	2959.6062	979.1	99
1023.0274	2960.6916	980.6	100.75
1023.141	2961.7764	980.95	100.5
1023.2545	2962.8605	984	102.2
1023.3679	2963.9439	981.45	101.75
1023.4813	2965.0267	982.75	101.95
1023.5947	2966.1089	1000.2	97.15
1023.708	2967.1905	982.5	103.05
1023.8213	2968.2714	979	99.3
1023.9346	2969.3516	978.35	97.7
1024.0478	2970.4312	984.25	96.7
1024.1609	2971.5102	977.2	96.45
1024.274	2972.5885	975.2	95.35
1024.3871	2973.6662	982.05	99.2
1024.5002	2974.7432	977.35	96.75
1024.6132	2975.8196	975.65	94.25
1024.7261	2976.8954	977.2	95.4
1024.839	2977.9705	980.15	101.25
1024.9519	2979.045	978.85	96.7
1025.0647	2980.1188	975.6	94.85
1025.1775	2981.192	975.85	97.95
1025.2902	2982.2645	976.3	93.85
1025.4029	2983.3364	973.75	91.25
1025.5156	2984.4077	971.55	91.9
1025.6282	2985.4783	972.15	85.9
1025.7407	2986.5483	965.95	86.3
1025.8532	2987.6177	960.6	81.55
1025.9657	2988.6864	961.6	79.7
1026.0782	2989.7545	958.9	78.05
1026.1906	2990.8219	955.05	75.3
1026.3029	2991.8887	951.25	69.25
1026.4152	2992.9548	947.55	68.25
1026.5275	2994.0204	943	61.95
1026.6397	2995.0852	943.4	65
1026.7519	2996.1495	939.6	58.15
1026.864	2997.2131	937.6	56.45
1026.9761	2998.276	933.8	53.65
1027.0882	2999.3383	931.8	52
1027.2002	3000.4	928.6	48.25
1027.3122	3001.4611	926	46.65
1027.4241	3002.5215	926.05	44.75
1027.536	3003.5812	925	43.6
1027.6478	3004.6404	921.1	41.15
1027.7596	3005.6989	922.4	40.7
1027.8714	3006.7567	919.3	38.95
1027.9831	3007.8139	946.75	41.1
1028.0947	3008.8705	919.3	39.3
1028.2064	3009.9264	936.95	40
1028.3179	3010.9818	916.9	36.25
1028.4295	3012.0364	915.05	34.1
1028.541	3013.0905	912.75	31.35
1028.6524	3014.1439	913.8	35
1028.7638	3015.1966	913.8	33.45
1028.8752	3016.2487	913	32.85
1028.9865	3017.3002	916.7	32.1
1029.0978	3018.3511	910.2	31.45
1029.209	3019.4013	912.1	32.8
1029.3202	3020.4509	911.85	33.05
1029.4314	3021.4998	912.6	32.3
1029.5425	3022.5481	913.6	33.4
1029.6535	3023.5958	912.4	32.95
1029.7645	3024.6428	910.6	29.45
1029.8755	3025.6892	909.9	30.7
1029.9864	3026.735	912.75	30.05
1030.0973	3027.7802	910.85	29.75
1030.2082	3028.8247	909.85	30.45
1030.319	3029.8685	909.95	28.95
1030.4297	3030.9118	912.85	32.1
1030.5404	3031.9544	908.7	26.65
1030.6511	3032.9963	910.7	31.25
1030.7617	3034.0376	911.6	31.45
1030.8723	3035.0783	912.05	29.65
1030.9829	3036.1184	913.9	32.8
1031.0934	3037.1578	911.05	32.15
1031.2038	3038.1966	913.05	32.35
1031.3142	3039.2348	908.15	29.6
1031.4246	3040.2723	920.75	31.3
1031.5349	3041.3092	910.25	31.25
1031.6452	3042.3455	911.1	30.85
1031.7554	3043.3811	911.3	31.8
1031.8656	3044.4161	910.3	28.8
1031.9758	3045.4505	911.5	32.35
1032.0859	3046.4842	913	32.1
1032.1959	3047.5173	911.75	33.4
1032.3059	3048.5498	912.2	30.25
1032.4159	3049.5816	914.6	34.05
1032.5258	3050.6128	911.9	30.45
1032.6357	3051.6434	912.3	31.35
1032.7455	3052.6734	913.65	32.5
1032.8553	3053.7027	910.8	31.25
1032.9651	3054.7314	912.15	33.1
1033.0748	3055.7594	911.35	29.5
1033.1845	3056.7868	913.6	33.6
1033.2941	3057.8136	910.5	29.85
1033.4037	3058.8398	911.75	33.4
1033.5132	3059.8653	913.1	33
1033.6227	3060.8902	914.05	34.8
1033.7321	3061.9145	912.95	32.75
1033.8415	3062.9381	912.7	34.75
1033.9509	3063.9612	929.4	35.4
1034.0602	3064.9835	916.65	37.7
1034.1694	3066.0053	917.45	33.95
1034.2787	3067.0264	914.4	33.3
1034.3878	3068.0469	915.45	32.9
1034.497	3069.0668	916.95	32.4
1034.6061	3070.086	915	35.3
1034.7151	3071.1046	914.1	36.1
1034.8241	3072.1226	913.85	30.7
1034.9331	3073.1399	913.95	37.4
1035.042	3074.1567	912.25	32.1
1035.1508	3075.1727	915.15	34.9
1035.2597	3076.1882	909.4	29.5
1035.3684	3077.203	908.6	30
1035.4772	3078.2173	909.9	27.6
1035.5859	3079.2308	913.45	31.2
1035.6945	3080.2438	911.6	28.05
1035.8031	3081.2561	908.5	28.85
1035.9117	3082.2678	908.5	28.4
1036.0202	3083.2789	905.7	27.7
1036.1286	3084.2893	902.2	23.1
1036.2371	3085.2991	903.7	24.1
1036.3454	3086.3083	908.9	23.5
1036.4538	3087.3169	905.8	25.7
1036.562	3088.3248	906	25.1
1036.6703	3089.3321	906.9	23.85
1036.7785	3090.3388	901.95	21.95
1036.8866	3091.3449	903.2	23.35
1036.9948	3092.3503	903.6	20.65
1037.1028	3093.3551	904.1	25.15
1037.2108	3094.3593	900.85	21.95
1037.3188	3095.3629	900.65	19.95
1037.4267	3096.3658	902.1	20.95
1037.5346	3097.3681	899.5	19.65
1037.6425	3098.3698	905.15	24.6
1037.7503	3099.3708	901.55	21.55
1037.858	3100.3713	901.25	21.55
1037.9657	3101.3711	899.9	19.55
1038.0734	3102.3702	1040.6	21.95
1038.181	3103.3688	902.35	21.75
1038.2886	3104.3667	899.35	22.85
1038.3961	3105.364	899.05	18.9
1038.5036	3106.3607	900.4	16.65
1038.611	3107.3568	901.45	17.45
1038.7184	3108.3522	897.9	19.2
1038.8257	3109.347	901.3	19.65
1038.933	3110.3412	902.75	17.95
1039.0403	3111.3348	895.95	15.7
1039.1475	3112.3277	898.35	18.8
1039.2547	3113.32	896	17.2
1039.3618	3114.3117	897.6	16.3
1039.4689	3115.3028	897.95	18.8
1039.5759	3116.2932	897.95	17.15
1039.6829	3117.2831	903.35	16.9
1039.7898	3118.2723	896.4	17.4
1039.8967	3119.2608	897.95	16.2
1040.0035	3120.2488	894.6	16.6
1040.1103	3121.2361	895.6	15.5
1040.2171	3122.2229	897.5	18.9
1040.3238	3123.209	897.5	17.15
1040.4305	3124.1944	896.6	18.55
1040.5371	3125.1793	896.9	15.15
1040.6437	3126.1635	896.45	18.4
1040.7502	3127.1471	895.5	15.9
1040.8567	3128.1301	895.15	14.55
1040.9631	3129.1125	894.85	16.95
1041.0695	3130.0942	893.25	13.2
1041.1759	3131.0753	903.35	12.4
1041.2822	3132.0558	898.3	15.6
1041.3884	3133.0357	893.65	13.95
1041.4946	3134.015	897	17.35
1041.6008	3134.9936	896.1	16.55
1041.7069	3135.9716	912.45	14.2
1041.813	3136.949	894.35	15.45
1041.919	3137.9258	909.45	11.55
1042.025	3138.902	898.9	14.05
1042.1309	3139.8775	892.9	12.8
1042.2368	3140.8524	891.1	11.3
1042.3427	3141.8267	896.25	13.65
1042.4485	3142.8004	890.25	6.25
1042.5542	3143.7735	901.05	15.75
1042.6599	3144.7459	894.65	12.3
1042.7656	3145.7178	893.8	14.45
1042.8712	3146.689	893.4	13.9
1042.9768	3147.6596	891.2	8.05
1043.0823	3148.6295	892.85	12.5
1043.1878	3149.5989	893.6	14.35
1043.2932	3150.5676	891.25	11.8
1043.3986	3151.5357	890.65	12.4
1043.5039	3152.5032	891.2	12.8
1043.6092	3153.4701	893.1	15.55
1043.7145	3154.4364	894.5	11.7
1043.8197	3155.402	891.5	14.1
1043.9248	3156.367	891.8	11.6
1044.03	3157.3315	926.7	9.65
1044.135	3158.2952	891.9	11.7
1044.24	3159.2584	890.7	11.35
1044.345	3160.221	890.2	7.8
1044.4499	3161.1829	893.15	14
1044.5548	3162.1442	889.6	11.6
1044.6596	3163.105	892.8	11.55
1044.7644	3164.065	891.35	12.05
1044.8692	3165.0245	894.9	10.2
1044.9739	3165.9834	891.2	13
1045.0785	3166.9416	891.1	11.55
1045.1831	3167.8993	890.9	10.4
1045.2877	3168.8563	890.6	9.6
1045.3922	3169.8127	890.8	10.95
1045.4966	3170.7684	888.9	8
1045.6011	3171.7236	892.45	10.55
1045.7054	3172.6782	891.4	11.55
1045.8098	3173.6321	891.1	11.85
1045.914	3174.5854	894.2	10
1046.0183	3175.5381	891.05	14.4
1046.1224	3176.4902	891.85	13.3
1046.2266	3177.4417	888.2	9.7
1046.3307	3178.3926	890	11.55
1046.4347	3179.3428	889.75	10.6
1046.5387	3180.2924	890.25	11.55
1046.6427	3181.2415	889.45	8.35
1046.7466	3182.1899	891.15	11.05
1046.8504	3183.1377	892.2	13.7
1046.9542	3184.0848	892.7	9.35
1047.058	3185.0314	889.4	9.25
1047.1617	3185.9773	888.8	8.05
1047.2654	3186.9227	891.2	10.7
1047.369	3187.8674	887.9	8.1
1047.4726	3188.8115	892.2	7
1047.5761	3189.755	889.85	11.25
1047.6796	3190.6979	889.15	10.85
1047.783	3191.6402	886.8	8.25
1047.8864	3192.5818	889.05	9.8
1047.9898	3193.5229	912.45	6.65
1048.0931	3194.4633	890.3	11.5
1048.1963	3195.4031	888.4	8.3
1048.2995	3196.3423	890.5	11.3
1048.4027	3197.2809	889.15	8.85
1048.5058	3198.2189	890	10.75
1048.6089	3199.1563	892.7	7.3
1048.7119	3200.0931	889.65	12.2
1048.8148	3201.0292	887.8	7.8
1048.9178	3201.9648	888.4	8
1049.0206	3202.8997	890.55	8.65
1049.1235	3203.834	886.85	6.75
1049.2262	3204.7677	889.5	11.55
1049.329	3205.7008	891.05	10.95
1049.4317	3206.6333	887.8	8.65
1049.5343	3207.5652	888.2	7.25
1049.6369	3208.4964	888.9	8.7
1049.7394	3209.4271	886.1	7.1
1049.8419	3210.3571	885.15	3.5
1049.9444	3211.2865	888.75	8.75
1050.0468	3212.2154	889.4	8.95
1050.1491	3213.1436	892.8	9.75
1050.2514	3214.0712	895.75	12.15
1050.3537	3214.9982	888.05	10.05
1050.4559	3215.9246	889.55	10.25
1050.5581	3216.8503	886.25	7.3
1050.6602	3217.7755	888.55	6.75
1050.7623	3218.7001	887	9.7
1050.8643	3219.624	888.15	7.4
1050.9663	3220.5473	887.5	9.4
1051.0682	3221.4701	888.55	9.4
1051.1701	3222.3922	887.8	7.3
1051.2719	3223.3137	888.4	10.3
1051.3737	3224.2346	885.45	4.8
1051.4754	3225.1549	885.75	6.4
1051.5771	3226.0746	885.9	9.3
1051.6788	3226.9937	887.2	5.95
1051.7804	3227.9121	886.75	7.25
1051.8819	3228.83	886.55	5.15
1051.9834	3229.7473	888.05	9.7
1052.0849	3230.6639	885.8	5.8
1052.1863	3231.5799	888.05	8.7
1052.2876	3232.4954	888.25	5.5
1052.3889	3233.4102	887.25	8.15
1052.4902	3234.3244	888.9	7.5
1052.5914	3235.238	886.45	8.25
1052.6926	3236.151	909.85	4.65
1052.7937	3237.0634	886.3	8.6
1052.8948	3237.9752	886.8	7.8
1052.9958	3238.8864	887.6	8.5
1053.0968	3239.797	884.5	7.05
1053.1977	3240.7069	886.35	5.85
1053.2986	3241.6163	887.8	7.45
1053.3994	3242.5251	886	7.85
1053.5002	3243.4332	884.7	4.8
1053.6009	3244.3408	887.3	7.35
1053.7016	3245.2477	884.25	4.95
1053.8022	3246.154	887.75	7.55
1053.9028	3247.0598	885.8	4.4
1054.0034	3247.9649	884.55	5.5
1054.1039	3248.8694	885.75	8.6
1054.2043	3249.7733	885.1	4.65
1054.3047	3250.6766	885.9	7.05
1054.4051	3251.5793	886.35	4.8
1054.5054	3252.4814	884.6	7.55
1054.6056	3253.3829	885.95	5.1
1054.7058	3254.2838	884.85	5.5
1054.806	3255.1841	886.55	8.45
1054.9061	3256.0838	885.25	5.35
1055.0061	3256.9829	883.8	6.85
1055.1062	3257.8814	886.25	3.95
1055.2061	3258.7792	886.8	5
1055.306	3259.6765	886.55	5.7
1055.4059	3260.5731	883.7	4.8
1055.5057	3261.4692	883.4	4.6
1055.6055	3262.3647	887.15	7.1
1055.7052	3263.2595	886.3	7
1055.8049	3264.1538	886.5	8.9
1055.9045	3265.0474	885.15	4.5
1056.0041	3265.9404	883.45	4.65
1056.1036	3266.8329	885.75	8.55
1056.2031	3267.7247	895	7.15
1056.3025	3268.616	882.7	3.95
1056.4019	3269.5066	886.75	7.45
1056.5013	3270.3966	886.4	4.55
1056.6005	3271.286	883.15	4.35
