Software Version:	3.9.2.0
Unit SN:	10000200
Spectrometer SN:	6960
Date:	3/8/2024 2:24:23 PM
Data Line Index:	25
Spectral Points:	2048
Integration time (ms):	125
Averages:	20
Delay (ms):	30000
Sequence Number:	1
Processing:	dark subtract
Laser Power (mW):	305
Laser Current (mA):	826
Laser Diode Temp (C):	25
Laser Case Temp (C):	26.1
System Temp (C):	26.1
Spectrometer Temp (C):	24
CCD Temp (C):	0.008
Secondary Temp (C):	20.003
Heatsink Temp (C):	20.85
CCDPCB Temp (C):	36.318
SecondaryPCB Temp (C):	30.493

Wavelength	RamanShift	Raw Counts	Dark Subtracted
787.061	30.1047	460.15	56
787.2016	32.3739	460.75	56.3
787.3422	34.6426	468.45	63.15
787.4828	36.9109	475.7	68
787.6235	39.1787	481.15	68.05
787.7642	41.4461	491.05	75.05
787.9049	43.7131	496.05	76.55
788.0456	45.9796	507.2	84.45
788.1863	48.2456	516.25	89.8
788.3271	50.5112	527.1	95.15
788.4679	52.7764	533.1	97.25
788.6087	55.0411	548.05	108.05
788.7496	57.3054	560.3	115.7
788.8904	59.5692	568.45	122.65
789.0313	61.8326	580.6	132.1
789.1722	64.0955	591.55	140.75
789.3132	66.3579	611.25	152.7
789.4541	68.6199	626.55	165.8
789.5951	70.8815	663.8	197.15
789.7361	73.1426	752.55	282.4
789.8771	75.4032	961.1	489.05
790.0181	77.6634	1478.2	999.8
790.1592	79.9231	2703.45	2216.25
790.3003	82.1824	5350.6	4847.35
790.4414	84.4412	10121.2	9591.25
790.5825	86.6995	16656	16085.9
790.7237	88.9574	22947.2	22347.35
790.8648	91.2148	27298.85	26674.95
791.006	93.4717	29349.85	28712.85
791.1472	95.7282	29786.45	29143.9
791.2885	97.9842	29757.1	29106.9
791.4297	100.2398	29246.75	28597.35
791.571	102.4949	28707.05	28056.6
791.7123	104.7495	27947.6	27288.25
791.8536	107.0036	27194.15	26540.75
791.9949	109.2573	26432.6	25773.05
792.1363	111.5105	25678.55	25021.8
792.2777	113.7632	24988.1	24330.35
792.4191	116.0154	24365.1	23692
792.5605	118.2672	23859.7	23191.35
792.7019	120.5185	23393.1	22727.6
792.8434	122.7693	23007.4	22338
792.9849	125.0197	22686.2	22012.8
793.1264	127.2696	22396.3	21716.85
793.2679	129.519	22261.2	21581
793.4094	131.7679	22041	21359.15
793.551	134.0163	21913.35	21223.05
793.6926	136.2642	21759.3	21067.6
793.8342	138.5117	21583.75	20881.9
793.9758	140.7587	21354.25	20658.55
794.1175	143.0052	21191.45	20493.95
794.2591	145.2512	20990.8	20289.8
794.4008	147.4967	20781.8	20083.35
794.5425	149.7417	20634.05	19930.7
794.6842	151.9863	20480.5	19774.85
794.826	154.2304	20414.25	19699.75
794.9677	156.4739	20301.65	19583.35
795.1095	158.717	20231.7	19515.3
795.2513	160.9596	20115.85	19390.75
795.3931	163.2017	19891.5	19165.65
795.535	165.4433	19599.75	18879.25
795.6768	167.6844	19297.6	18570.55
795.8187	169.925	18982.05	18257.45
795.9606	172.1651	18620.55	17890.05
796.1025	174.4047	18343.3	17610.55
796.2445	176.6439	18066.45	17335.4
796.3864	178.8825	17819.35	17081.9
796.5284	181.1206	17649.1	16907.2
796.6704	183.3582	17474.7	16723.35
796.8124	185.5954	17389.4	16641
796.9544	187.832	17284.5	16531.5
797.0965	190.0681	17285.45	16532.4
797.2386	192.3037	17287.3	16526.75
797.3806	194.5388	17249.55	16485.95
797.5228	196.7734	17317.55	16555.3
797.6649	199.0075	17404.25	16638.35
797.807	201.2411	17514.7	16747.1
797.9492	203.4742	17613.25	16844
798.0914	205.7068	17836.75	17060.85
798.2336	207.9389	17912.45	17136.95
798.3758	210.1704	18042.3	17277.35
798.518	212.4015	18175.55	17424.45
798.6603	214.632	18362.75	17612.9
798.8025	216.862	18535.5	17786.65
798.9448	219.0915	18684.15	17935.2
799.0871	221.3205	18967.1	18213.9
799.2294	223.549	19271.15	18521.65
799.3718	225.777	19578.2	18825
799.5141	228.0044	19951.85	19196.05
799.6565	230.2314	20456.35	19697.9
799.7989	232.4578	20928.25	20165.5
799.9413	234.6837	21311.5	20540.55
800.0837	236.909	21579.1	20805.85
800.2262	239.1339	21607.7	20805.75
800.3687	241.3582	21364.3	20577.95
800.5111	243.582	21066.1	20258.3
800.6536	245.8053	20679.1	19877.55
800.7961	248.0281	20336.9	19540.6
800.9387	250.2503	20042.5	19246.15
801.0812	252.472	19891.2	19090.7
801.2238	254.6932	19824.8	19028.1
801.3664	256.9139	19690.25	18890.95
801.509	259.134	19653.75	18847.7
801.6516	261.3536	19622	18815.9
801.7942	263.5727	19671.3	18864.05
801.9369	265.7912	19578	18773.25
802.0795	268.0092	19606.1	18801.85
802.2222	270.2267	19558.1	18753.05
802.3649	272.4436	19525.6	18719.4
802.5076	274.6601	19461.25	18641
802.6504	276.8759	19385.65	18575.1
802.7931	279.0913	19338.25	18530.4
802.9359	281.3061	19385.35	18571.5
803.0787	283.5204	19467.25	18648.15
803.2215	285.7341	19554.65	18736.75
803.3643	287.9473	19718.2	18890.05
803.5071	290.16	19964.55	19142
803.6499	292.3721	20270.85	19454.3
803.7928	294.5837	20728.45	19908.4
803.9357	296.7947	21104.75	20285.95
804.0786	299.0052	21337.05	20517.65
804.2215	301.2152	21238.15	20414.15
804.3644	303.4246	20902.05	20081.5
804.5074	305.6334	20396.7	19578.45
804.6503	307.8418	19879.25	19056.55
804.7933	310.0495	19446.45	18626.6
804.9363	312.2568	19142.95	18314.6
805.0793	314.4635	18898.7	18069.6
805.2223	316.6696	18848.45	18014.7
805.3653	318.8752	18781.05	17940.3
805.5084	321.0802	18854.6	18020
805.6514	323.2847	18961.6	18126.4
805.7945	325.4887	19007	18173.65
805.9376	327.692	18975.5	18138.95
806.0807	329.8949	18870.7	18036.35
806.2238	332.0972	18635.55	17799.25
806.367	334.2989	18362.6	17522.9
806.5101	336.5001	18088.35	17243.5
806.6533	338.7007	17883.45	17040.6
806.7965	340.9008	17762.35	16923.5
806.9397	343.1003	17633.65	16785.95
807.0829	345.2992	17596.7	16749
807.2261	347.4976	17578.6	16731.45
807.3693	349.6955	17564.3	16715.4
807.5126	351.8927	17641.45	16786.2
807.6559	354.0895	17642.7	16777.6
807.7991	356.2856	17714.95	16860.6
807.9424	358.4812	17719.15	16867.4
808.0857	360.6763	17756.75	16900.15
808.2291	362.8707	17719.1	16857.25
808.3724	365.0646	17777.95	16916.7
808.5158	367.258	17787	16925.7
808.6591	369.4508	17797	16932.45
808.8025	371.643	17898.85	17036.05
808.9459	373.8346	17876.25	17011.65
809.0893	376.0257	17886.15	17018.45
809.2327	378.2162	17768.7	16905.5
809.3762	380.4062	17689.3	16822.45
809.5196	382.5956	17544.6	16683.05
809.6631	384.7844	17465.6	16615.15
809.8066	386.9726	17340.6	16487
809.9501	389.1603	17293.1	16436.6
810.0936	391.3474	17315.9	16416.45
810.2371	393.5339	17262.55	16403.25
810.3806	395.7199	17218.4	16359.05
810.5241	397.9052	17270.05	16410.75
810.6677	400.09	17257.95	16402.75
810.8113	402.2743	17346.15	16484.7
810.9548	404.4579	17415.55	16554.2
811.0984	406.641	17571	16709.35
811.2421	408.8235	17802.8	16942.5
811.3857	411.0054	18080.85	17218.1
811.5293	413.1868	18562.5	17694.9
811.673	415.3675	18946.2	18075.1
811.8166	417.5477	19186.2	18313.3
811.9603	419.7273	19244.35	18371.3
812.104	421.9064	19151.45	18277.85
812.2477	424.0848	19044.45	18171.5
812.3914	426.2627	18795.4	17923.45
812.5351	428.4399	18500.3	17626.25
812.6788	430.6166	18155.8	17275.25
812.8226	432.7928	17785.8	16905.8
812.9663	434.9683	17460.9	16583.7
813.1101	437.1432	17248.1	16373.35
813.2539	439.3176	17076.6	16209.45
813.3977	441.4914	16942.35	16077.25
813.5415	443.6645	16933.15	16065.2
813.6853	445.8371	16869.2	15991.7
813.8291	448.0091	16801.35	15929.25
813.973	450.1806	16789.35	15918.6
814.1168	452.3514	16696.8	15827.2
814.2607	454.5216	16731.85	15852
814.4046	456.6913	16683.7	15801.3
814.5485	458.8603	16696.5	15828.75
814.6924	461.0288	16740.75	15869.2
814.8363	463.1967	16769.3	15902.25
814.9802	465.3639	16941.35	16073.4
815.1241	467.5306	17041.3	16167.9
815.2681	469.6967	17160.25	16291.45
815.412	471.8622	17342.9	16475.35
815.556	474.0271	17496.4	16627.45
815.7	476.1914	17585.55	16709.95
815.844	478.3551	17614.15	16738.05
815.988	480.5182	17605.2	16731.65
816.132	482.6807	17623.35	16757.2
816.276	484.8426	17679.8	16820.2
816.4201	487.0039	17931.6	17066.5
816.5641	489.1647	18329.85	17452.6
816.7082	491.3248	18780.3	17905.1
816.8522	493.4843	18998.5	18127.75
816.9963	495.6432	19008.8	18138.7
817.1404	497.8015	18963.35	18078.55
817.2845	499.9592	19003	18112.55
817.4286	502.1163	18983.7	18091.8
817.5727	504.2728	18735.2	17858.7
817.7168	506.4287	18466.6	17597.05
817.861	508.5839	18025.45	17152.6
818.0051	510.7386	17697.45	16822.35
818.1493	512.8927	17518.9	16632.4
818.2935	515.0461	17372.4	16490.2
818.4377	517.199	17312.5	16427.4
818.5818	519.3512	17284.9	16397.6
818.726	521.5029	17329.6	16438.4
818.8703	523.6539	17391.4	16506.35
819.0145	525.8043	17442.55	16557.55
819.1587	527.9541	17474.7	16585.4
819.303	530.1033	17486.8	16600.9
819.4472	532.2519	17546.75	16660.9
819.5915	534.3999	17678.95	16790
819.7357	536.5472	17952.05	17067.5
819.88	538.694	18442.75	17555.65
820.0243	540.8401	19025.4	18136.7
820.1686	542.9856	19581	18681.3
820.3129	545.1305	19789.35	18885.55
820.4572	547.2748	19724.15	18822.05
820.6016	549.4185	19333.3	18427.75
820.7459	551.5615	19015.2	18113.05
820.8902	553.704	18839.85	17938.85
821.0346	555.8458	18754.7	17856.7
821.1789	557.987	18773.65	17878.2
821.3233	560.1276	18704.5	17803.95
821.4677	562.2675	18725.7	17823.7
821.6121	564.4069	18702.05	17802.15
821.7565	566.5456	18652.85	17757.4
821.9009	568.6837	18578.4	17684.1
822.0453	570.8212	18351.6	17457.35
822.1897	572.958	18045.5	17147.4
822.3342	575.0942	17774.35	16885.2
822.4786	577.2299	17622.6	16731.75
822.6231	579.3648	17585.5	16709.05
822.7675	581.4992	17638.6	16770.6
822.912	583.6329	17832.4	16962.1
823.0565	585.766	18096.3	17220.95
823.201	587.8985	18233.1	17353.7
823.3454	590.0304	18290.75	17393.15
823.4899	592.1616	18245.3	17346.15
823.6345	594.2922	18152.3	17253.3
823.779	596.4222	18003.25	17102.9
823.9235	598.5515	17844.05	16938.9
824.068	600.6802	17706	16802.1
824.2126	602.8083	17504.15	16605.05
824.3571	604.9358	17448.8	16546.45
824.5017	607.0626	17373.25	16469.45
824.6462	609.1888	17330.9	16420.35
824.7908	611.3144	17282.75	16371.5
824.9354	613.4393	17165.45	16252.6
825.08	615.5636	17059.5	16148.9
825.2246	617.6873	16950.4	16045
825.3692	619.8103	16903.7	15990.95
825.5138	621.9327	16798.95	15894.4
825.6584	624.0544	16791	15890.3
825.803	626.1756	16752.2	15848.55
825.9477	628.2961	16769.45	15864.9
826.0923	630.4159	16735.85	15827.6
826.237	632.5351	16671.15	15763.95
826.3816	634.6537	16609.45	15699.7
826.5263	636.7716	16607.5	15692.5
826.6709	638.8889	16602.4	15685.25
826.8156	641.0056	16687.7	15770.8
826.9603	643.1216	16674.35	15759.3
827.105	645.237	16709.85	15800.95
827.2497	647.3518	16695.45	15789.45
827.3944	649.4659	16744.25	15841.5
827.5391	651.5793	16713.45	15809.9
827.6838	653.6922	16730.5	15827.35
827.8285	655.8043	16732.05	15826.1
827.9733	657.9159	16736.8	15832.25
828.118	660.0268	16663.2	15758.05
828.2627	662.137	16621	15710.4
828.4075	664.2466	16597.8	15678.4
828.5522	666.3556	16596.4	15683.9
828.697	668.4639	16586.05	15676.25
828.8418	670.5716	16624.35	15717.55
828.9865	672.6786	16706.3	15795.85
829.1313	674.785	16769.1	15850.85
829.2761	676.8907	16849.8	15935.55
829.4209	678.9958	16948.2	16043.8
829.5657	681.1002	16947.2	16037.15
829.7105	683.204	16900.45	15977.3
829.8553	685.3072	16884.05	15966.2
830.0001	687.4097	16840.45	15925.1
830.1449	689.5115	16781.9	15865.7
830.2898	691.6127	16719.45	15803.05
830.4346	693.7132	16641.35	15732.85
830.5794	695.8131	16669.2	15732.95
830.7243	697.9123	16652	15729.85
830.8691	700.0109	16607.7	15685.4
831.014	702.1089	16601.05	15683.05
831.1588	704.2061	16613.4	15694.85
831.3037	706.3028	16663.4	15742.05
831.4486	708.3987	16708.15	15789.55
831.5935	710.4941	16794.4	15876.3
831.7383	712.5887	16975.8	16060.15
831.8832	714.6827	17301.35	16382
832.0281	716.7761	17670.1	16756.6
832.173	718.8688	18016.9	17102.05
832.3179	720.9608	18237	17310.5
832.4628	723.0522	18360.15	17431.75
832.6077	725.1429	18164.05	17240.15
832.7527	727.233	17874.9	16952.95
832.8976	729.3224	17598.65	16678
833.0425	731.4112	17317.6	16394.55
833.1874	733.4993	17075	16152.85
833.3324	735.5867	16902.75	15982
833.4773	737.6735	16860.8	15938.2
833.6222	739.7596	16796.9	15871.4
833.7672	741.845	16772.7	15851.7
833.9122	743.9298	16749.55	15826.25
834.0571	746.014	16740.1	15820.55
834.2021	748.0974	16758.2	15830.55
834.347	750.1802	16747	15819.6
834.492	752.2624	16748.1	15821.9
834.637	754.3439	16819.95	15892.55
834.782	756.4247	16881.25	15949.25
834.9269	758.5048	16962.5	16035.75
835.0719	760.5843	17166.8	16237.4
835.2169	762.6631	17460.8	16530.6
835.3619	764.7413	17886.05	16960.35
835.5069	766.8188	18465.75	17536.25
835.6519	768.8956	18923.35	17992.3
835.7969	770.9718	19263.1	18335.55
835.9419	773.0473	19146.2	18219.75
836.0869	775.1221	18876.95	17950.85
836.232	777.1962	18497.9	17571.2
836.377	779.2697	18303.1	17370.5
836.522	781.3426	18364.05	17415.75
836.667	783.4147	18614	17681.4
836.8121	785.4862	18938.95	18011.65
836.9571	787.557	19018.75	18089.65
837.1021	789.6271	18664.6	17737.25
837.2472	791.6966	18139.65	17208.65
837.3922	793.7654	17624.1	16696.6
837.5373	795.8335	17328.65	16399.35
837.6823	797.901	17143.9	16212.95
837.8274	799.9678	17055.7	16120
837.9724	802.0339	17050.9	16118.45
838.1175	804.0993	17117.1	16172.95
838.2626	806.1641	17133.7	16198
838.4076	808.2282	17072.6	16144.3
838.5527	810.2916	17010.95	16077.35
838.6978	812.3544	16916.55	15989.8
838.8428	814.4164	16821.85	15893.95
838.9879	816.4778	16845.1	15910.5
839.133	818.5385	16851.6	15916.2
839.2781	820.5986	16917.95	15984.95
839.4232	822.658	17009.9	16073.15
839.5682	824.7166	17077.45	16144.75
839.7133	826.7747	17314.65	16381.05
839.8584	828.832	17468.1	16534.95
840.0035	830.8886	17575.65	16642.85
840.1486	832.9446	17744.1	16809.4
840.2937	834.9999	17820.4	16887.2
840.4388	837.0545	17867.15	16927.25
840.5839	839.1085	17893.1	16956.15
840.729	841.1618	17882.25	16941.8
840.8741	843.2143	17857.6	16922.8
841.0192	845.2662	17799.65	16865.55
841.1643	847.3175	17775.25	16840.1
841.3095	849.368	17648.6	16714.2
841.4546	851.4179	17553.9	16617.15
841.5997	853.467	17399.1	16466.55
841.7448	855.5155	17307	16373.15
841.8899	857.5633	17189.5	16255.8
842.0351	859.6105	17099.7	16164.95
842.1802	861.6569	17012.65	16078
842.3253	863.7027	16977.95	16038.6
842.4704	865.7478	17000.1	16061.05
842.6156	867.7922	17029.9	16089.05
842.7607	869.8359	17057.45	16119.65
842.9058	871.8789	17167.85	16229
843.0509	873.9212	17376.9	16406.65
843.1961	875.9629	17538	16598.8
843.3412	878.0039	17719.95	16781.5
843.4863	880.0441	17809.4	16874.95
843.6315	882.0837	17847.65	16914.3
843.7766	884.1226	17788.45	16846.95
843.9218	886.1609	17644.55	16707.05
844.0669	888.1984	17568.15	16630.8
844.212	890.2352	17590.45	16653.15
844.3572	892.2714	17540.35	16597
844.5023	894.3069	17529.35	16588.95
844.6475	896.3416	17462.05	16526.95
844.7926	898.3757	17435.2	16497.4
844.9377	900.4091	17458.05	16515.3
845.0829	902.4418	17477.45	16529.8
845.228	904.4739	17449.5	16505
845.3732	906.5052	17485.05	16546.35
845.5183	908.5358	17388.6	16451.35
845.6635	910.5658	17247.2	16307.05
845.8086	912.595	17098.85	16159.85
845.9538	914.6236	16977.75	16037.1
846.0989	916.6515	16926.3	15986.45
846.2441	918.6786	16915.7	15973.85
846.3892	920.7051	16987.5	16046.8
846.5344	922.7309	17084.65	16141.5
846.6795	924.756	17142.65	16201.75
846.8246	926.7804	17264.25	16321.9
846.9698	928.8041	17197.45	16253.5
847.1149	930.8272	17239.2	16297.15
847.2601	932.8495	17178.15	16234.2
847.4052	934.8711	17134.65	16192.7
847.5504	936.892	17007.25	16063.45
847.6955	938.9123	16849.05	15906.9
847.8407	940.9318	16706.85	15765.5
847.9858	942.9506	16621	15681.2
848.131	944.9688	16509.35	15567.3
848.2761	946.9862	16470.2	15527.7
848.4213	949.003	16371.25	15427.6
848.5664	951.019	16407	15465.6
848.7115	953.0344	16418.25	15478.2
848.8567	955.0491	16469.25	15524.85
849.0018	957.063	16563.05	15618.3
849.147	959.0763	16694.25	15752.15
849.2921	961.0888	16783.2	15838.15
849.4373	963.1007	16827.1	15889.7
849.5824	965.1119	16847.7	15918.8
849.7275	967.1223	16926.95	16001.9
849.8727	969.1321	16933.75	16004.15
850.0178	971.1412	16978.2	16045.4
850.1629	973.1495	17008.2	16070.9
850.3081	975.1572	17075.1	16094.2
850.4532	977.1641	17109.2	16168.9
850.5983	979.1704	17087.3	16144.65
850.7435	981.1759	17085.2	16141.4
850.8886	983.1808	17127	16185.85
851.0337	985.1849	17213.3	16263.65
851.1788	987.1884	17361.85	16418.2
851.324	989.1911	17601.25	16658.45
851.4691	991.1932	17739.25	16796.65
851.6142	993.1945	17740.35	16801.6
851.7593	995.1951	17705.7	16763.7
851.9045	997.1951	17711.55	16759.9
852.0496	999.1943	17642.4	16699.3
852.1947	1001.1928	17569.85	16625.8
852.3398	1003.1906	17542.8	16602
852.4849	1005.1877	17593.35	16653.15
852.63	1007.1841	17570.3	16628.9
852.7751	1009.1798	17468.75	16529.3
852.9202	1011.1748	17312	16369.85
853.0653	1013.1691	17116.75	16175.9
853.2104	1015.1627	16871.6	15930.9
853.3555	1017.1556	16650.2	15713.45
853.5006	1019.1477	16574.8	15638.55
853.6457	1021.1392	16462.35	15530.7
853.7908	1023.1299	16470.75	15538.2
853.9359	1025.12	16439.75	15515.5
854.081	1027.1093	16468.05	15554.4
854.2261	1029.0979	16600.35	15687.85
854.3712	1031.0859	16615.75	15700.9
854.5163	1033.0731	16654	15725.85
854.6613	1035.0596	16601.8	15670.4
854.8064	1037.0454	16451.9	15518.9
854.9515	1039.0304	16340.9	15403.8
855.0965	1041.0148	16202.65	15264.85
855.2416	1042.9985	16118.4	15178.75
855.3867	1044.9814	16110.2	15175.15
855.5317	1046.9636	16016.9	15074.7
855.6768	1048.9452	16005.05	15068.9
855.8219	1050.926	16014.4	15075.1
855.9669	1052.9061	15995.95	15056.3
856.112	1054.8855	16012.4	15072.3
856.257	1056.8642	16034	15093.8
856.4021	1058.8421	16120.25	15175.1
856.5471	1060.8194	16144.45	15205.25
856.6921	1062.7959	16157.4	15217.35
856.8372	1064.7717	16208.9	15266.8
856.9822	1066.7469	16193.05	15252.05
857.1272	1068.7213	16206.6	15263.8
857.2723	1070.695	16179.25	15241.9
857.4173	1072.6679	16121.9	15180.9
857.5623	1074.6402	16103.7	15161.7
857.7073	1076.6117	16068.45	15120
857.8523	1078.5826	16071.9	15134.7
857.9973	1080.5527	16090.5	15147.45
858.1423	1082.5221	16177.55	15235.95
858.2873	1084.4908	16388.55	15450.65
858.4323	1086.4587	16563.8	15623.4
858.5773	1088.426	16717.65	15778.9
858.7223	1090.3925	16713.9	15771.6
858.8673	1092.3584	16697.6	15755.55
859.0123	1094.3235	16521.3	15584.8
859.1573	1096.2879	16474.1	15533.2
859.3022	1098.2515	16469.6	15533.5
859.4472	1100.2145	16519.45	15583.65
859.5922	1102.1767	16554.6	15614.75
859.7371	1104.1382	16691.5	15753.45
859.8821	1106.099	16886.25	15948.05
860.027	1108.0591	17069.35	16130.65
860.172	1110.0185	17235.35	16295.35
860.3169	1111.9771	17288.95	16350.25
860.4619	1113.9351	17070	16128.85
860.6068	1115.8923	16794.35	15854.95
860.7517	1117.8488	16477.15	15536.85
860.8967	1119.8045	16198.65	15259.4
861.0416	1121.7596	16061.35	15123.95
861.1865	1123.7139	15990	15052.1
861.3314	1125.6675	15964.1	15026.85
861.4763	1127.6204	16021.15	15083.55
861.6212	1129.5726	16039.3	15100.1
861.7661	1131.524	16053	15115.45
861.911	1133.4748	16053.45	15115.85
862.0559	1135.4248	16011.1	15071.55
862.2008	1137.3741	16057.15	15119.3
862.3457	1139.3226	15988.9	15050.2
862.4905	1141.2705	15975.05	15035.6
862.6354	1143.2176	15873.65	14929.65
862.7803	1145.164	15869.65	14931.3
862.9251	1147.1097	15917.9	14977.25
863.07	1149.0546	15922.45	14983.2
863.2148	1150.9989	15849.5	14908.2
863.3597	1152.9424	15701.8	14762.55
863.5045	1154.8852	15568.1	14630.9
863.6493	1156.8272	15420.35	14483.2
863.7942	1158.7686	15337.15	14391.3
863.939	1160.7092	15321.6	14382.8
864.0838	1162.6491	15257.3	14321.1
864.2286	1164.5883	15350.95	14410.85
864.3734	1166.5267	15407.15	14467.85
864.5182	1168.4644	15558.85	14619.5
864.663	1170.4014	15745.15	14804.8
864.8078	1172.3377	16007.9	15071.95
864.9526	1174.2732	16181.45	15247.15
865.0974	1176.2081	16455.55	15517.6
865.2421	1178.1421	16633.75	15692.75
865.3869	1180.0755	16836.1	15899.5
865.5317	1182.0082	16899.25	15965.65
865.6764	1183.9401	16908.4	15975.8
865.8212	1185.8713	16762.4	15833.9
865.9659	1187.8017	16527.65	15603.5
866.1106	1189.7315	16347.1	15433.8
866.2554	1191.6605	15999.15	15082.6
866.4001	1193.5888	15810.1	14884.2
866.5448	1195.5163	15690.9	14761
866.6895	1197.4432	15588.1	14657.4
866.8342	1199.3693	15504.65	14570.95
866.9789	1201.2947	15461.75	14520.2
867.1236	1203.2193	15395.05	14459.25
867.2683	1205.1432	15452.35	14518.55
867.413	1207.0664	15478.5	14543.95
867.5576	1208.9889	15523.9	14589.05
867.7023	1210.9106	15555.05	14620.6
867.847	1212.8316	15598.25	14664.05
867.9916	1214.7519	15650.3	14706.3
868.1363	1216.6715	15643.2	14708.25
868.2809	1218.5903	15672.9	14738.75
868.4255	1220.5084	15619.55	14687.3
868.5701	1222.4257	15617.95	14685.2
868.7148	1224.3424	15530.8	14603.2
868.8594	1226.2583	15626.35	14688.5
869.004	1228.1735	15677.65	14745.7
869.1486	1230.0879	15747.1	14813.85
869.2932	1232.0016	15881.05	14948.75
869.4377	1233.9146	15933.05	14997.5
869.5823	1235.8269	15843.05	14912.6
869.7269	1237.7384	15757.35	14828.5
869.8715	1239.6492	15529.8	14599
870.016	1241.5592	15407.45	14473.95
870.1606	1243.4686	15345.45	14411.8
870.3051	1245.3772	15285.35	14353.05
870.4496	1247.285	15230.85	14296.7
870.5941	1249.1922	15252.75	14318.7
870.7387	1251.0986	15222.1	14290.15
870.8832	1253.0042	15175.8	14243.7
871.0277	1254.9092	15242.75	14310.8
871.1722	1256.8134	15316.05	14386.45
871.3167	1258.7169	15452.6	14520.65
871.4611	1260.6196	15545.15	14616.1
871.6056	1262.5216	15786.75	14851.7
871.7501	1264.4229	15931.65	15001.4
871.8945	1266.3234	16058.3	15126.15
872.039	1268.2232	16156.7	15226.3
872.1834	1270.1223	16154.05	15221.95
872.3278	1272.0207	16149.8	15216.45
872.4723	1273.9183	16106.35	15167.7
872.6167	1275.8151	16025.3	15091.65
872.7611	1277.7113	15934.4	15002.5
872.9055	1279.6067	15808.35	14878.35
873.0499	1281.5014	15685.5	14754.75
873.1943	1283.3953	15634.35	14704.35
873.3386	1285.2885	15616.6	14685.85
873.483	1287.181	15570.55	14642.2
873.6274	1289.0727	15668.7	14740
873.7717	1290.9637	15728.4	14799.5
873.9161	1292.854	15869.75	14940.7
874.0604	1294.7435	15994.45	15063.35
874.2047	1296.6323	16177.95	15250.2
874.349	1298.5204	16409.7	15477.15
874.4933	1300.4077	16681.85	15750.15
874.6376	1302.2943	16808.4	15878.7
874.7819	1304.1802	16877.1	15945
874.9262	1306.0653	16782.65	15850.15
875.0705	1307.9497	16642.3	15713.6
875.2147	1309.8333	16507.45	15578.25
875.359	1311.7162	16421.2	15490.85
875.5032	1313.5984	16425.35	15495.3
875.6475	1315.4798	16479.3	15533.45
875.7917	1317.3605	16598.05	15649.3
875.9359	1319.2405	16660.5	15728.75
876.0801	1321.1197	16611.85	15677.2
876.2243	1322.9982	16511.85	15573.25
876.3685	1324.876	16475.25	15544.85
876.5127	1326.753	16363.5	15431.3
876.6569	1328.6293	16380.15	15447.1
876.801	1330.5048	16317.75	15382
876.9452	1332.3796	16260.15	15332.5
877.0893	1334.2537	16275.05	15314.65
877.2335	1336.127	16198.2	15264.4
877.3776	1337.9996	16149.75	15218.65
877.5217	1339.8714	16106.55	15178
877.6658	1341.7426	16087.4	15111.7
877.8099	1343.6129	16005.55	15071.05
877.954	1345.4826	15953.05	15022.25
878.0981	1347.3515	15937.15	15003.6
878.2422	1349.2196	15853.5	14923.6
878.3862	1351.087	15869.35	14937.3
878.5303	1352.9537	15911.3	14980.75
878.6743	1354.8197	16023.6	15090
878.8184	1356.6849	16167.15	15234.65
878.9624	1358.5493	16223.9	15293.05
879.1064	1360.4131	16248.05	15317.35
879.2504	1362.276	16201.6	15270.9
879.3944	1364.1383	16023.45	15093.35
879.5384	1365.9998	15806.75	14868.85
879.6823	1367.8606	15493.6	14561.85
879.8263	1369.7206	15213	14279.35
879.9702	1371.5799	15014.65	14082.9
880.1142	1373.4384	14829.1	13899.1
880.2581	1375.2962	14683.85	13752.9
880.402	1377.1533	14432.35	13504.5
880.5459	1379.0096	14126.5	13201.1
880.6898	1380.8652	13839.35	12913.85
880.8337	1382.7201	13570.85	12644.95
880.9776	1384.5742	13342.85	12412.15
881.1215	1386.4275	13178.05	12246.45
881.2653	1388.2802	13068.15	12137.8
881.4092	1390.132	12929.85	12000.3
881.553	1391.9832	12852.8	11921.6
881.6968	1393.8336	12753.2	11824.75
881.8406	1395.6832	12716.65	11783.2
881.9844	1397.5322	12671.65	11740.9
882.1282	1399.3803	12607.8	11672.1
882.272	1401.2278	12544.7	11614.9
882.4158	1403.0745	12550.35	11623.95
882.5595	1404.9204	12506.2	11581.15
882.7033	1406.7656	12535.4	11603.95
882.847	1408.6101	12507.55	11579.55
882.9908	1410.4538	12548.2	11620.05
883.1345	1412.2968	12556.5	11627.45
883.2782	1414.139	12569.65	11640.55
883.4219	1415.9805	12675.3	11747.05
883.5656	1417.8213	12729.55	11794.8
883.7092	1419.6613	12815.5	11890.15
883.8529	1421.5006	13007.3	12080.05
883.9965	1423.3391	13239.05	12310.65
884.1402	1425.1769	13540.6	12611.35
884.2838	1427.0139	14012.6	13082.45
884.4274	1428.8502	14584.6	13654.95
884.571	1430.6858	15128.05	14200.8
884.7146	1432.5206	15546.3	14619.65
884.8582	1434.3547	15820.55	14893.55
885.0018	1436.188	15890.7	14965
885.1453	1438.0206	15837.6	14908.15
885.2889	1439.8524	15671.75	14745.55
885.4324	1441.6835	15564.75	14636.4
885.5759	1443.5139	15478.05	14548.9
885.7194	1445.3435	15365.95	14438.8
885.8629	1447.1724	15306	14381.65
886.0064	1449.0005	15225.6	14302.05
886.1499	1450.8279	15138.2	14213.05
886.2933	1452.6545	15083.95	14155.85
886.4368	1454.4804	15093.7	14172.6
886.5802	1456.3056	15087.9	14157.1
886.7237	1458.13	14979.85	14054.05
886.8671	1459.9536	14791.75	13863.25
887.0105	1461.7766	14449.4	13521.85
887.1539	1463.5987	14042.6	13113.1
887.2972	1465.4202	13645.75	12718.95
887.4406	1467.2409	13285.45	12359.85
887.584	1469.0608	12996.8	12070.2
887.7273	1470.88	12714.25	11787.6
887.8706	1472.6984	12478.5	11554.75
888.0139	1474.5161	12234.25	11306.4
888.1572	1476.3331	12062.7	11138.25
888.3005	1478.1493	11934.2	11009.75
888.4438	1479.9648	11836	10909.4
888.5871	1481.7795	11733.3	10808
888.7303	1483.5935	11643.85	10717.25
888.8736	1485.4067	11565.65	10637.5
889.0168	1487.2192	11536.45	10610.05
889.16	1489.031	11488.85	10562.35
889.3032	1490.842	11419.75	10493.4
889.4464	1492.6522	11369.75	10444.2
889.5896	1494.4618	11349.1	10423.05
889.7327	1496.2705	11317.1	10391.75
889.8759	1498.0785	11275.7	10349.45
890.019	1499.8858	11234.75	10309.05
890.1622	1501.6924	11192.75	10265.45
890.3053	1503.4981	11168.65	10243.05
890.4484	1505.3032	11161.5	10235.5
890.5914	1507.1075	11108.9	10182.85
890.7345	1508.911	11063.2	10138.05
890.8776	1510.7138	10999.5	10076.4
891.0206	1512.5159	10984.6	10062.1
891.1637	1514.3172	10906.9	9984.2
891.3067	1516.1178	10863.85	9941.5
891.4497	1517.9176	10839.5	9913.25
891.5927	1519.7166	10762.85	9842.4
891.7357	1521.515	10743.8	9814.55
891.8786	1523.3126	10699	9776.4
892.0216	1525.1094	10679.75	9757.55
892.1645	1526.9055	10634.75	9714.45
892.3074	1528.7008	10599.2	9677.85
892.4503	1530.4954	10537.65	9613.35
892.5932	1532.2893	10516.65	9596.85
892.7361	1534.0824	10470.2	9545.65
892.879	1535.8747	10476.3	9557.65
893.0218	1537.6663	10434.05	9516.95
893.1647	1539.4572	10362.15	9441.8
893.3075	1541.2473	10381.9	9462.95
893.4503	1543.0367	10352.7	9434.95
893.5931	1544.8253	10336.9	9411.6
893.7359	1546.6132	10340.3	9419.1
893.8787	1548.4003	10336.8	9409.95
894.0214	1550.1867	10335.55	9410.2
894.1642	1551.9723	10361.7	9439.7
894.3069	1553.7572	10379.2	9463.3
894.4496	1555.5414	10408.55	9492.45
894.5923	1557.3247	10417.55	9505.55
894.735	1559.1074	10477.95	9566.95
894.8777	1560.8893	10550.5	9637.3
895.0204	1562.6705	10582.05	9671.6
895.163	1564.4509	10658.6	9746.8
895.3056	1566.2305	10672.8	9768.1
895.4482	1568.0094	10763.95	9857.25
895.5908	1569.7876	10831.7	9922.3
895.7334	1571.565	10856.95	9941.2
895.876	1573.3417	10863	9951.6
896.0186	1575.1176	10854.15	9942.1
896.1611	1576.8928	10795.5	9887.8
896.3036	1578.6672	10702.05	9797.55
896.4461	1580.4409	10598.55	9694.55
896.5886	1582.2138	10489.75	9584.4
896.7311	1583.986	10343.65	9434.75
896.8736	1585.7575	10264.9	9357.95
897.0161	1587.5282	10165.4	9260
897.1585	1589.2981	10131.95	9230.1
897.3009	1591.0673	10077.2	9176.05
897.4433	1592.8358	10105.45	9201.45
897.5857	1594.6035	10117.1	9205.95
897.7281	1596.3704	10071.2	9163.7
897.8705	1598.1366	10129.15	9221.6
898.0128	1599.9021	10134.85	9231.95
898.1551	1601.6668	10155.5	9250.1
898.2975	1603.4308	10204.7	9297.45
898.4398	1605.194	10312.3	9401.55
898.5821	1606.9564	10399.15	9499.6
898.7243	1608.7182	10498.65	9601.6
898.8666	1610.4791	10644.2	9753.85
899.0088	1612.2394	10802.1	9910.15
899.1511	1613.9988	10945.75	10052.7
899.2933	1615.7576	11162.35	10264.1
899.4355	1617.5156	11381	10469.25
899.5776	1619.2728	11606.55	10698.9
899.7198	1621.0293	11709.2	10803.55
899.862	1622.785	11754.1	10848.15
900.0041	1624.54	11655.75	10755.8
900.1462	1626.2942	11492.2	10592.7
900.2883	1628.0477	11289.6	10390.05
900.4304	1629.8005	11057.95	10154.05
900.5725	1631.5525	10817.6	9920.4
900.7145	1633.3037	10616.05	9717.65
900.8566	1635.0542	10486.8	9587
900.9986	1636.804	10360.75	9462.9
901.1406	1638.553	10347.65	9367.4
901.2826	1640.3013	10230.25	9327.1
901.4245	1642.0488	10180.45	9279.85
901.5665	1643.7955	10198	9302.35
901.7085	1645.5416	10219.9	9322.65
901.8504	1647.2868	10301.05	9402.5
901.9923	1649.0313	10352.95	9454
902.1342	1650.7751	10496.1	9591.95
902.2761	1652.5181	10651.6	9752.5
902.4179	1654.2604	10851.5	9954.3
902.5598	1656.0019	11118.1	10221.15
902.7016	1657.7427	11419.45	10520.8
902.8434	1659.4828	11709.85	10809.1
902.9852	1661.222	11902.65	11002.15
903.127	1662.9606	11907.25	11008.2
903.2687	1664.6984	11752.45	10849.4
903.4105	1666.4354	11408.5	10503.65
903.5522	1668.1717	10929.8	10028.3
903.6939	1669.9072	10426.25	9522.35
903.8356	1671.642	9987.5	9082.4
903.9773	1673.3761	9661.7	8760.15
904.119	1675.1094	9344.9	8444.6
904.2606	1676.8419	9146.15	8246.35
904.4022	1678.5737	8948.15	8045.95
904.5439	1680.3048	8825.45	7923.6
904.6855	1682.0351	8686.45	7785.55
904.827	1683.7646	8582.5	7677.8
904.9686	1685.4934	8509.25	7609.45
905.1101	1687.2215	8451.45	7550.95
905.2517	1688.9488	8365.3	7465.4
905.3932	1690.6754	8295.15	7397.3
905.5347	1692.4012	8271.05	7370.1
905.6761	1694.1263	8222.8	7323.75
905.8176	1695.8506	8221.45	7324.65
905.9591	1697.5742	8149.65	7253.4
906.1005	1699.297	8119.95	7226.55
906.2419	1701.0191	8068.7	7175.25
906.3833	1702.7404	8030.6	7136.15
906.5246	1704.461	7980.5	7083
906.666	1706.1808	7933.45	7038.35
906.8073	1707.8999	7908.6	7015.4
906.9487	1709.6182	7883.55	6991.25
907.09	1711.3358	7853.2	6960.4
907.2313	1713.0527	7839.4	6949.3
907.3725	1714.7688	7802	6906
907.5138	1716.4841	7747.3	6851.65
907.655	1718.1987	7751.05	6850.25
907.7962	1719.9126	7689.8	6798.65
907.9374	1721.6257	7679	6786.2
908.0786	1723.338	7670.45	6782.05
908.2198	1725.0496	7630.4	6738.55
908.3609	1726.7605	7629.45	6735.4
908.502	1728.4706	7587.5	6692.8
908.6431	1730.18	7543.05	6650.05
908.7842	1731.8886	7533.75	6644.35
908.9253	1733.5964	7536.25	6624
909.0664	1735.3036	7487.45	6596
909.2074	1737.0099	7471	6582.05
909.3484	1738.7156	7440.8	6551.25
909.4894	1740.4204	7403.85	6512.1
909.6304	1742.1246	7379.1	6489.1
909.7714	1743.8279	7358.4	6469.1
909.9123	1745.5306	7321.7	6430.7
910.0532	1747.2325	7311.8	6420.95
910.1941	1748.9336	7286.35	6393.55
910.335	1750.634	7260.4	6367.25
910.4759	1752.3336	7257.4	6366.7
910.6168	1754.0325	7216.6	6331.05
910.7576	1755.7307	7189.85	6302.7
910.8984	1757.4281	7202.65	6313.65
911.0392	1759.1247	7200.35	6299.8
911.18	1760.8206	7186.2	6287.25
911.3208	1762.5158	7159.4	6259.85
911.4615	1764.2102	7136.9	6244.4
911.6022	1765.9039	7108.25	6215.9
911.7429	1767.5968	7090.15	6204.1
911.8836	1769.289	7066.6	6179.95
912.0243	1770.9804	7041.55	6149.55
912.1649	1772.6711	7023.9	6129.95
912.3056	1774.361	7023.2	6127.2
912.4462	1776.0502	7011.95	6119.7
912.5868	1777.7386	6994.95	6098.65
912.7274	1779.4263	6974.3	6082.3
912.8679	1781.1132	6953.85	6064
913.0084	1782.7994	6912.4	6026.5
913.149	1784.4849	6914.45	6026.55
913.2895	1786.1696	6900.35	6006.45
913.4299	1787.8535	6894.7	6006.7
913.5704	1789.5367	6856.35	5972.35
913.7108	1791.2192	6850.8	5965.55
913.8513	1792.9009	6864.25	5951.8
913.9917	1794.5818	6826.95	5935.4
914.132	1796.2621	6803.35	5912.05
914.2724	1797.9415	6781.9	5890.35
914.4128	1799.6202	6776.7	5885.6
914.5531	1801.2982	6743.85	5853.4
914.6934	1802.9755	6736.4	5842.95
914.8337	1804.6519	6731.8	5839.6
914.9739	1806.3277	6690.35	5803.3
915.1142	1808.0027	6664.05	5778.15
915.2544	1809.6769	6653.3	5767.05
915.3946	1811.3504	6625.45	5740.3
915.5348	1813.0231	6632.25	5746.6
915.675	1814.6951	6616.5	5728.3
915.8151	1816.3664	6622.95	5731.5
915.9553	1818.0369	6611.55	5724.35
916.0954	1819.7067	6585.75	5697.1
916.2355	1821.3757	6572.05	5681.75
916.3755	1823.044	6572.9	5683.6
916.5156	1824.7115	6542.8	5651.35
916.6556	1826.3783	6521.3	5632.25
916.7956	1828.0443	6495.85	5606.65
916.9356	1829.7096	6476.2	5587.55
917.0756	1831.3741	6477.85	5586.6
917.2155	1833.0379	6452.35	5564.25
917.3555	1834.701	6434.9	5547.4
917.4954	1836.3633	6433.85	5547.55
917.6353	1838.0248	6416.05	5526.7
917.7751	1839.6856	6414.1	5525.55
917.915	1841.3457	6409.5	5525.3
918.0548	1843.005	6398.05	5509.55
918.1946	1844.6636	6388.1	5499.3
918.3344	1846.3214	6350.5	5461.7
918.4742	1847.9785	6337.65	5448.7
918.6139	1849.6349	6330.75	5437.6
918.7537	1851.2904	6337.15	5436.1
918.8934	1852.9453	6318.55	5426.15
919.0331	1854.5994	6287.3	5393.75
919.1727	1856.2528	6305.45	5409.55
919.3124	1857.9054	6268.8	5380
919.452	1859.5572	6265.6	5378.8
919.5916	1861.2083	6252.9	5362.4
919.7312	1862.8587	6238.5	5348.35
919.8708	1864.5084	6226.8	5335.85
920.0103	1866.1572	6224.95	5333.85
920.1498	1867.8054	6209.55	5318.35
920.2893	1869.4528	6190.1	5298.6
920.4288	1871.0994	6160.4	5269.1
920.5683	1872.7453	6133.75	5243
920.7077	1874.3905	6126.25	5218.25
920.8471	1876.0349	6104.65	5213.45
920.9865	1877.6786	6109.2	5217.8
921.1259	1879.3215	6104.05	5212.7
921.2653	1880.9637	6087.8	5197
921.4046	1882.6051	6050.35	5165.2
921.5439	1884.2458	6058.95	5168.35
921.6832	1885.8858	6028.55	5141.3
921.8225	1887.525	6017.1	5128.75
921.9617	1889.1634	6001.7	5112.5
922.101	1890.8011	5998.1	5105.75
922.2402	1892.4381	5971	5078.45
922.3794	1894.0743	5966.65	5078.1
922.5185	1895.7098	5966.45	5079.85
922.6577	1897.3446	5927.3	5039.55
922.7968	1898.9786	5920.5	5026.7
922.9359	1900.6118	5906.3	5017.45
923.075	1902.2443	5890.6	5000.45
923.214	1903.8761	5892.6	5004.35
923.3531	1905.5071	5836.8	4947.6
923.4921	1907.1374	5822.45	4933.4
923.6311	1908.7669	5841.3	4953.05
923.77	1910.3957	5808.85	4922.55
923.909	1912.0237	5776.05	4887.75
924.0479	1913.651	5773.4	4883.6
924.1868	1915.2776	5749.95	4862.15
924.3257	1916.9034	5741.1	4855.1
924.4646	1918.5285	5699.35	4815.05
924.6034	1920.1528	5682.75	4792.45
924.7422	1921.7764	5692.1	4803.55
924.881	1923.3992	5662.7	4773.1
925.0198	1925.0213	5620.25	4731.4
925.1586	1926.6427	5604.5	4718.7
925.2973	1928.2633	5689.5	4703.05
925.436	1929.8832	5626.7	4736.05
925.5747	1931.5023	5589.35	4702.45
925.7134	1933.1207	5558.05	4669.45
925.852	1934.7383	5555.15	4668.35
925.9906	1936.3552	5543.2	4655.35
926.1292	1937.9714	5513.9	4627.1
926.2678	1939.5868	5484.65	4598.8
926.4064	1941.2015	5464.15	4576.05
926.5449	1942.8154	5439.35	4549.95
926.6834	1944.4286	5426.6	4538.05
926.8219	1946.041	5418.6	4516.05
926.9604	1947.6528	5387.5	4495.25
927.0988	1949.2637	5374.05	4488.4
927.2372	1950.8739	5348.45	4460.1
927.3756	1952.4834	5341.8	4453.45
927.514	1954.0921	5338.3	4450.1
927.6523	1955.7001	5324.6	4434.45
927.7907	1957.3074	5297.95	4414
927.929	1958.9139	5280.4	4396.5
928.0673	1960.5197	5253.05	4366.65
928.2055	1962.1247	5232.5	4347.35
928.3438	1963.729	5234.85	4353
928.482	1965.3325	5208.15	4319.4
928.6202	1966.9353	5177.05	4296.1
928.7584	1968.5374	5177.2	4291.35
928.8965	1970.1387	5161.4	4277.75
929.0346	1971.7393	5133.05	4250.3
929.1727	1973.3392	5129.45	4244.05
929.3108	1974.9383	5100.65	4218
929.4489	1976.5366	5078.9	4195.8
929.5869	1978.1342	5094	4212.1
929.7249	1979.7311	5083.2	4199.85
929.8629	1981.3273	5063.25	4180.7
930.0009	1982.9227	5041.2	4160
930.1388	1984.5173	5010.4	4126.55
930.2767	1986.1112	4999.75	4120
930.4146	1987.7044	5001.55	4122.2
930.5525	1989.2968	4988.1	4103.3
930.6904	1990.8885	4980.85	4096.95
930.8282	1992.4795	4976.45	4098.7
930.966	1994.0697	4950.7	4069.15
931.1038	1995.6592	4924.6	4044.55
931.2415	1997.2479	4900.95	4018.9
931.3793	1998.8359	4908.35	4029.5
931.517	2000.4232	4888.1	4011.3
931.6547	2002.0097	4878.25	4002.8
931.7923	2003.5955	4856.35	3978.75
931.93	2005.1805	4860.75	3980.35
932.0676	2006.7648	4844.9	3966.25
932.2052	2008.3484	4832.45	3953.55
932.3427	2009.9312	4836	3957.25
932.4803	2011.5133	4814.85	3939.85
932.6178	2013.0946	4789.05	3913.05
932.7553	2014.6752	4779.3	3904.45
932.8928	2016.2551	4782.35	3904.2
933.0302	2017.8342	4750.5	3872.05
933.1676	2019.4126	4741.1	3864.75
933.305	2020.9902	4710.4	3833.95
933.4424	2022.5672	4710.25	3833.85
933.5798	2024.1433	4732.05	3851
933.7171	2025.7188	4693.3	3819.1
933.8544	2027.2935	4699.35	3825.15
933.9917	2028.8674	4651.25	3775.5
934.129	2030.4406	4653.95	3778.75
934.2662	2032.0131	4629.45	3756.15
934.4034	2033.5849	4630.6	3748.8
934.5406	2035.1559	4610.35	3736.7
934.6778	2036.7261	4598.3	3721.05
934.8149	2038.2957	4599.45	3717.6
934.952	2039.8645	4573.8	3695.15
935.0891	2041.4325	4591.9	3710.6
935.2262	2042.9998	4562.2	3686.4
935.3632	2044.5664	4568.3	3686.65
935.5002	2046.1323	4554.95	3679.9
935.6372	2047.6974	4536.95	3661.4
935.7742	2049.2617	4506.2	3628.5
935.9111	2050.8254	4509.5	3627.9
936.048	2052.3883	4512.8	3632.95
936.1849	2053.9504	4509.65	3629.05
936.3218	2055.5118	4489.8	3609.95
936.4586	2057.0725	4467.35	3584.3
936.5955	2058.6325	4462.55	3587.4
936.7323	2060.1917	4459.6	3583.1
936.869	2061.7502	4444.9	3564.85
937.0058	2063.3079	4432.25	3559.05
937.1425	2064.8649	4405.05	3524.8
937.2792	2066.4212	4405.05	3527.8
937.4159	2067.9767	4388.4	3510.9
937.5525	2069.5315	4390.1	3510.45
937.6891	2071.0856	4361.15	3485.5
937.8257	2072.6389	4340.35	3463.3
937.9623	2074.1915	4326.4	3453.35
938.0989	2075.7433	4312.6	3435.1
938.2354	2077.2945	4308.75	3433.2
938.3719	2078.8448	4305.4	3425.5
938.5084	2080.3945	4282.25	3402.8
938.6448	2081.9434	4295.55	3413.9
938.7812	2083.4916	4283.2	3401.5
938.9176	2085.039	4241.8	3356.35
939.054	2086.5857	4252.55	3364.2
939.1903	2088.1317	4245.45	3358
939.3267	2089.677	4235.3	3347.4
939.463	2091.2215	4211.8	3327.5
939.5992	2092.7652	4204.7	3317.5
939.7355	2094.3083	4202.75	3317.3
939.8717	2095.8506	4193.35	3312.7
940.0079	2097.3921	4188.3	3308.5
940.1441	2098.933	4172.55	3294.65
940.2802	2100.4731	4159.4	3276.9
940.4163	2102.0124	4165.15	3264
940.5524	2103.5511	4171.65	3288.3
940.6885	2105.089	4152.5	3267.7
940.8245	2106.6261	4146.35	3264.8
940.9606	2108.1626	4126.3	3244.6
941.0965	2109.6983	4141.35	3233.15
941.2325	2111.2332	4108.8	3228.05
941.3684	2112.7675	4099.7	3215.4
941.5044	2114.301	4097.7	3215.25
941.6403	2115.8337	4082.55	3197.65
941.7761	2117.3657	4077.5	3195.5
941.912	2118.897	4069.75	3185.6
942.0478	2120.4276	4046.05	3155.6
942.1835	2121.9575	4049.8	3165.3
942.3193	2123.4866	4048.8	3152.15
942.455	2125.0149	4024.7	3138.6
942.5907	2126.5426	3994.9	3114.3
942.7264	2128.0695	4005.9	3122.6
942.8621	2129.5956	4000.85	3124.9
942.9977	2131.1211	3974.15	3090.8
943.1333	2132.6458	3973.9	3093.15
943.2689	2134.1698	3976.4	3093.9
943.4044	2135.693	3963.1	3073.9
943.54	2137.2155	3974.9	3087.95
943.6755	2138.7373	3947.7	3064.25
943.8109	2140.2584	3933.2	3053.5
943.9464	2141.7787	3933.1	3050.85
944.0818	2143.2983	3915.75	3039.7
944.2172	2144.8171	3913.35	3041.65
944.3526	2146.3353	3888.35	3008.85
944.4879	2147.8527	3886.75	3007.7
944.6232	2149.3693	3883.35	3000.7
944.7585	2150.8853	3863.55	2979.15
944.8938	2152.4005	3854.65	2968.95
945.029	2153.9149	3852.7	2966.55
945.1642	2155.4287	3850.1	2964.95
945.2994	2156.9417	3818.8	2935.15
945.4346	2158.454	3817.55	2934.3
945.5697	2159.9655	3801.3	2921.75
945.7048	2161.4764	3809.1	2931.55
945.8399	2162.9865	3789.65	2908.65
945.9749	2164.4958	3786.1	2907.55
946.1099	2166.0045	3786.9	2904.8
946.2449	2167.5124	3775.1	2894
946.3799	2169.0195	3774.75	2890.15
946.5148	2170.526	3772.1	2886.9
946.6498	2172.0317	3747.25	2865.35
946.7846	2173.5367	3750.5	2868
946.9195	2175.0409	3729.05	2847.95
947.0543	2176.5445	3733.9	2852.55
947.1891	2178.0473	3715.45	2830.15
947.3239	2179.5494	3702.7	2814.6
947.4587	2181.0507	3689.55	2807.3
947.5934	2182.5513	3691	2808.75
947.7281	2184.0512	3683.35	2800.9
947.8628	2185.5504	3670.25	2787.15
947.9974	2187.0488	3662.3	2782.6
948.132	2188.5465	3653.95	2774.95
948.2666	2190.0435	3634.85	2752.6
948.4012	2191.5397	3626.05	2742.7
948.5357	2193.0353	3630.8	2748.1
948.6702	2194.5301	3606.55	2719.75
948.8047	2196.0241	3604.2	2716.95
948.9392	2197.5175	3586.2	2698.95
949.0736	2199.0101	3582.85	2692.2
949.208	2200.502	3571.9	2688.2
949.3424	2201.9931	3555.55	2673.85
949.4767	2203.4835	3544.55	2665.9
949.611	2204.9733	3547.35	2661.3
949.7453	2206.4622	3535.15	2655.75
949.8796	2207.9505	3528.55	2646.8
950.0138	2209.438	3519.45	2644.05
950.148	2210.9248	3492.85	2610.95
950.2822	2212.4109	3496.95	2615.2
950.4164	2213.8962	3492.4	2606.5
950.5505	2215.3809	3493.75	2605.7
950.6846	2216.8648	3469.25	2580.5
950.8186	2218.3479	3484.5	2590.05
950.9527	2219.8304	3450.5	2558.35
951.0867	2221.3121	3445.65	2555.65
951.2207	2222.7931	3427.5	2540.1
951.3546	2224.2733	3429.05	2542.85
951.4886	2225.7529	3424.9	2539.9
951.6225	2227.2317	3397.1	2512.15
951.7563	2228.7098	3399.95	2522.65
951.8902	2230.1872	3387	2508.6
952.024	2231.6638	3382.25	2500.85
952.1578	2233.1397	3390.65	2504.55
952.2916	2234.6149	3375.4	2495.1
952.4253	2236.0894	3348.45	2467.85
952.559	2237.5632	3347.1	2461.65
952.6927	2239.0362	3347.2	2465.1
952.8263	2240.5085	3342.85	2460.85
952.9599	2241.9801	3334.55	2449.15
953.0935	2243.4509	3308.95	2423.2
953.2271	2244.921	3311.75	2424.55
953.3606	2246.3904	3290.35	2401.6
953.4941	2247.8591	3292.5	2406.4
953.6276	2249.3271	3283.8	2398.1
953.7611	2250.7943	3265.05	2378.75
953.8945	2252.2608	3262.8	2376.05
954.0279	2253.7266	3259.05	2373.15
954.1612	2255.1917	3237.3	2354.2
954.2946	2256.656	3253.9	2370.65
954.4279	2258.1197	3234.5	2352.4
954.5612	2259.5826	3225.45	2340.25
954.6944	2261.0447	3232.6	2347.6
954.8276	2262.5062	3208.9	2324.1
954.9608	2263.9669	3212.5	2325.5
955.094	2265.4269	3206.65	2323
955.2271	2266.8862	3191.85	2307.5
955.3602	2268.3448	3183	2300.7
955.4933	2269.8026	3179.35	2298
955.6264	2271.2598	3182.8	2301.35
955.7594	2272.7162	3164.35	2283.45
955.8924	2274.1719	3163.3	2277.9
956.0253	2275.6268	3150.3	2266.15
956.1583	2277.0811	3151.55	2264.95
956.2912	2278.5346	3138.95	2255.45
956.4241	2279.9874	3141.6	2261.05
956.5569	2281.4395	3138.6	2257.8
956.6897	2282.8908	3121.9	2235.25
956.8225	2284.3414	3102.3	2219.35
956.9553	2285.7914	3100.95	2216.05
957.088	2287.2406	3104.1	2216.35
957.2207	2288.689	3094.45	2210.9
957.3534	2290.1368	3095.55	2206.3
957.486	2291.5838	3086	2194.7
957.6186	2293.0302	3098.55	2206.2
957.7512	2294.4758	3071.85	2183.7
957.8838	2295.9206	3060.25	2173.05
958.0163	2297.3648	3051.15	2165.6
958.1488	2298.8082	3043.4	2160.5
958.2813	2300.251	3035.05	2149.55
958.4137	2301.693	3038.35	2150.3
958.5461	2303.1343	3044.1	2158.55
958.6785	2304.5748	3031.75	2147.05
958.8108	2306.0147	3018.15	2135.2
958.9432	2307.4538	3009.9	2124.65
959.0754	2308.8922	2988.15	2108.95
959.2077	2310.3299	2997	2117.1
959.3399	2311.7669	2973.2	2091.65
959.4721	2313.2031	2986.45	2103.25
959.6043	2314.6387	2968.75	2083
959.7365	2316.0735	2953.25	2068.7
959.8686	2317.5076	2959.6	2076.65
960.0006	2318.941	2947.85	2060.1
960.1327	2320.3737	2953.3	2065.35
960.2647	2321.8056	2933.35	2042.95
960.3967	2323.2369	2932.85	2045.7
960.5287	2324.6674	2920	2032.85
960.6606	2326.0972	2921.6	2035.15
960.7925	2327.5263	2922.75	2039.5
960.9244	2328.9547	2903.55	2016.6
961.0562	2330.3823	2901.3	2013.95
961.1881	2331.8092	2908.3	2017.05
961.3198	2333.2355	2899.25	2011.45
961.4516	2334.661	2891.8	2003.95
961.5833	2336.0858	2878.55	1989.85
961.715	2337.5098	2875.05	1989.85
961.8467	2338.9332	2871.4	1983.8
961.9783	2340.3558	2873.55	1984.5
962.1099	2341.7778	2857.05	1973.8
962.2415	2343.199	2859.55	1973.5
962.373	2344.6195	2844.45	1960.65
962.5045	2346.0393	2835.6	1954.2
962.636	2347.4583	2838.45	1953.65
962.7675	2348.8767	2833.7	1947.25
962.8989	2350.2943	2824.5	1939.25
963.0303	2351.7113	2830.55	1942.25
963.1617	2353.1275	2836	1950.6
963.293	2354.543	2826.95	1914.95
963.4243	2355.9578	2818.9	1932.8
963.5556	2357.3718	2801.5	1921.65
963.6868	2358.7852	2787.25	1903.8
963.818	2360.1978	2778.2	1896.7
963.9492	2361.6098	2790.75	1908.95
964.0803	2363.021	2776.45	1892.5
964.2114	2364.4315	2769.7	1886.85
964.3425	2365.8413	2764.95	1877.95
964.4736	2367.2504	2750.25	1870.35
964.6046	2368.6587	2744.35	1863.1
964.7356	2370.0664	2735.05	1853.8
964.8666	2371.4733	2730.1	1848.1
964.9975	2372.8795	2724.9	1842.05
965.1284	2374.285	2711.1	1830.85
965.2593	2375.6899	2706.15	1823.35
965.3901	2377.0939	2697.85	1814.35
965.5209	2378.4973	2702.8	1824.25
965.6517	2379.9	2680.25	1797.6
965.7825	2381.3019	2684.5	1801.5
965.9132	2382.7032	2660.9	1780.7
966.0439	2384.1037	2671.55	1793.35
966.1745	2385.5035	2653.9	1776.6
966.3051	2386.9027	2641.75	1764.1
966.4357	2388.3011	2646.75	1765.9
966.5663	2389.6987	2643.5	1763.95
966.6968	2391.0957	2642.4	1763.4
966.8273	2392.492	2625.8	1749.5
966.9578	2393.8876	2620.5	1740.35
967.0882	2395.2824	2609.05	1731.35
967.2186	2396.6765	2606.55	1728.3
967.349	2398.07	2600.15	1721.15
967.4793	2399.4627	2579.4	1699.55
967.6097	2400.8547	2592.7	1710.4
967.7399	2402.246	2581.85	1697.2
967.8702	2403.6366	2573.05	1692.85
968.0004	2405.0265	2565.05	1684.7
968.1306	2406.4156	2565.05	1682.3
968.2607	2407.8041	2559.8	1674.9
968.3909	2409.1918	2553.8	1672.8
968.521	2410.5789	2544.1	1663.8
968.651	2411.9652	2532.25	1649.25
968.781	2413.3508	2534.8	1654.7
968.911	2414.7358	2530.2	1649.95
969.041	2416.12	2518.25	1637.5
969.1709	2417.5035	2515	1636
969.3008	2418.8863	2509.85	1627.5
969.4307	2420.2684	2508.5	1629.75
969.5606	2421.6497	2498.25	1618.65
969.6904	2423.0304	2493.65	1613.05
969.8201	2424.4104	2483.55	1605.9
969.9499	2425.7896	2487.35	1604.1
970.0796	2427.1682	2466.5	1589.05
970.2093	2428.546	2465.9	1584.05
970.3389	2429.9232	2470.6	1587.8
970.4685	2431.2996	2469.25	1588.3
970.5981	2432.6753	2468.25	1587.3
970.7277	2434.0503	2459.55	1579.45
970.8572	2435.4246	2448.65	1567.85
970.9867	2436.7982	2444.2	1562.5
971.1161	2438.1711	2439.15	1560.5
971.2456	2439.5433	2433.45	1547.45
971.375	2440.9148	2418.85	1533.5
971.5043	2442.2856	2412.1	1533.25
971.6336	2443.6557	2418.3	1536.6
971.7629	2445.025	2400.85	1519.9
971.8922	2446.3937	2402.45	1519.55
972.0214	2447.7617	2402.85	1521
972.1506	2449.1289	2402.1	1520.05
972.2798	2450.4955	2393.45	1508.1
972.4089	2451.8613	2385.1	1507.45
972.538	2453.2265	2388.2	1507.55
972.6671	2454.5909	2381.05	1499.9
972.7961	2455.9546	2369.3	1488.95
972.9251	2457.3177	2371.8	1489.05
973.0541	2458.68	2375.1	1495.6
973.1831	2460.0416	2358.45	1476.6
973.312	2461.4025	2359.2	1476.55
973.4408	2462.7627	2365.1	1474.45
973.5697	2464.1222	2348.3	1467.6
973.6985	2465.4811	2359.5	1478.6
973.8273	2466.8392	2340.35	1458.6
973.956	2468.1966	2352.8	1469.8
974.0847	2469.5533	2350.65	1469.35
974.2134	2470.9093	2338.35	1456.8
974.3421	2472.2645	2330.7	1449.65
974.4707	2473.6191	2322	1441.25
974.5993	2474.973	2313.4	1431.4
974.7278	2476.3262	2318.65	1437.3
974.8563	2477.6787	2302.7	1421.25
974.9848	2479.0305	2298.65	1418.1
975.1132	2480.3816	2307	1424.35
975.2417	2481.7319	2297.95	1418.5
975.37	2483.0816	2290.55	1407.95
975.4984	2484.4306	2290.05	1407.5
975.6267	2485.7789	2276.35	1395.45
975.755	2487.1264	2264.45	1383.2
975.8833	2488.4733	2267.15	1387.55
976.0115	2489.8195	2269.65	1381.9
976.1397	2491.165	2263.15	1378.1
976.2678	2492.5097	2254.5	1371.15
976.3959	2493.8538	2235.55	1355.15
976.524	2495.1972	2233.3	1351.1
976.6521	2496.5398	2243	1360.05
976.7801	2497.8818	2229.55	1341.7
976.9081	2499.2231	2219.2	1335.3
977.036	2500.5637	2218.35	1334.15
977.164	2501.9035	2221.2	1339.25
977.2918	2503.2427	2220.95	1334.1
977.4197	2504.5812	2216.1	1334.3
977.5475	2505.919	2201.4	1316.7
977.6753	2507.256	2205.85	1325.6
977.8031	2508.5924	2195.6	1313.3
977.9308	2509.9281	2208.75	1325.1
978.0585	2511.2631	2191.85	1307.9
978.1861	2512.5974	2186.55	1305.6
978.3137	2513.9309	2181	1298.9
978.4413	2515.2638	2208.7	1296.95
978.5689	2516.596	2172.65	1291.35
978.6964	2517.9275	2167.2	1284.65
978.8239	2519.2583	2158.7	1274.95
978.9513	2520.5884	2146.9	1264.45
979.0788	2521.9178	2144.3	1259.95
979.2062	2523.2465	2146.85	1268.05
979.3335	2524.5745	2144.8	1263.9
979.4608	2525.9018	2139.75	1259.95
979.5881	2527.2284	2135.2	1253.5
979.7154	2528.5543	2133.9	1254.1
979.8426	2529.8796	2124	1242.45
979.9698	2531.2041	2126	1244.7
980.0969	2532.5279	2121.85	1242.65
980.224	2533.851	2122.3	1241.35
980.3511	2535.1735	2118.3	1237.35
980.4781	2536.4952	2121.8	1239.05
980.6052	2537.8163	2117.6	1232.8
980.7321	2539.1366	2113.15	1231.05
980.8591	2540.4562	2105.35	1219.15
980.986	2541.7752	2111.1	1229.4
981.1129	2543.0935	2097.6	1216
981.2397	2544.411	2102.5	1219.5
981.3665	2545.7279	2091.6	1206.95
981.4933	2547.0441	2082.5	1199.9
981.62	2548.3596	2093.15	1207.15
981.7467	2549.6744	2093.4	1209.65
981.8734	2550.9885	2087.1	1196.45
982.0001	2552.3019	2074.15	1189.8
982.1267	2553.6146	2068.2	1183.25
982.2532	2554.9266	2066.8	1183.25
982.3798	2556.2379	2065.9	1179.9
982.5063	2557.5485	2063.3	1185.45
982.6327	2558.8585	2062.6	1171.25
982.7592	2560.1677	2057.35	1167.7
982.8856	2561.4762	2062.75	1182.3
983.0119	2562.7841	2065.95	1179.3
983.1383	2564.0913	2058.15	1177.25
983.2646	2565.3977	2045	1163.35
983.3908	2566.7035	2039.95	1156.3
983.517	2568.0086	2042.55	1156.6
983.6432	2569.313	2040.95	1156.4
983.7694	2570.6167	2031.7	1142.8
983.8955	2571.9197	2036.15	1152.4
984.0216	2573.222	2038.75	1152.15
984.1476	2574.5236	2028.95	1143.85
984.2737	2575.8246	2032.25	1149.05
984.3996	2577.1248	2022.35	1135.25
984.5256	2578.4244	2025.65	1139.75
984.6515	2579.7232	2033.55	1150.2
984.7774	2581.0214	2040.15	1128.5
984.9032	2582.3189	2016.45	1133.35
985.029	2583.6157	2020.75	1134.95
985.1548	2584.9118	2023.85	1138
985.2806	2586.2072	2017.4	1135.45
985.4063	2587.5019	2005.75	1121.4
985.5319	2588.7959	2018	1134.35
985.6576	2590.0893	2017.4	1133
985.7832	2591.3819	2024.85	1142.7
985.9087	2592.6739	2002	1121.1
986.0343	2593.9652	2000.15	1114.9
986.1597	2595.2557	1997.2	1114.4
986.2852	2596.5456	2008.4	1124.45
986.4106	2597.8348	2006.8	1125.55
986.536	2599.1234	1998.1	1117.45
986.6614	2600.4112	2000.5	1117.05
986.7867	2601.6983	2003.05	1114.45
986.912	2602.9848	1991.55	1110.4
987.0372	2604.2705	1991.1	1098.25
987.1624	2605.5556	1990.1	1108.2
987.2876	2606.84	1980.35	1097.75
987.4128	2608.1237	1977.3	1094.35
987.5379	2609.4067	1978.9	1097
987.6629	2610.689	1977.35	1082.25
987.788	2611.9707	1973.95	1088.65
987.913	2613.2516	1971	1083.25
988.0379	2614.5319	1954.75	1072.7
988.1629	2615.8115	1955.1	1072.8
988.2878	2617.0903	1963.1	1077.95
988.4126	2618.3685	1945.8	1060.85
988.5375	2619.6461	1943.4	1061.7
988.6622	2620.9229	1934.55	1051.35
988.787	2622.199	1934	1051.8
988.9117	2623.4745	1932.8	1049.25
989.0364	2624.7493	1931.2	1049.15
989.161	2626.0234	1919.25	1036.7
989.2857	2627.2968	1932	1046.95
989.4102	2628.5695	1931.05	1047.25
989.5348	2629.8415	1925.4	1043.25
989.6593	2631.1128	1917.35	1031.7
989.7837	2632.3835	1907.15	1024.7
989.9082	2633.6535	1918.7	1036.55
990.0326	2634.9228	1912.5	1031.6
990.1569	2636.1914	1901.3	1018.5
990.2812	2637.4593	1903.2	1019.6
990.4055	2638.7265	1909.85	1026.85
990.5298	2639.9931	1897.25	1015.3
990.654	2641.259	1898.55	1013.6
990.7782	2642.5242	1907.1	1021.2
990.9023	2643.7887	1885	1000.25
991.0264	2645.0525	1888.95	1004.85
991.1505	2646.3156	1881.5	997.95
991.2745	2647.5781	1884.75	1003.75
991.3985	2648.8398	1883.05	1002.2
991.5225	2650.1009	1882.7	991.7
991.6464	2651.3613	1866.15	983.9
991.7703	2652.6211	1867.9	984.95
991.8942	2653.8801	1860.15	979.9
992.018	2655.1385	1869.2	983.75
992.1418	2656.3961	1862.85	981.3
992.2655	2657.6531	1847.35	967.1
992.3892	2658.9094	1853.6	967.9
992.5129	2660.1651	1851.1	970.15
992.6366	2661.42	1854	971.7
992.7602	2662.6743	1867.35	984.75
992.8837	2663.9279	1854.6	974.35
993.0073	2665.1808	1857.5	971.75
993.1307	2666.433	1854.15	969.75
993.2542	2667.6846	1849.6	967.65
993.3776	2668.9354	1858.6	973.8
993.501	2670.1856	1853.5	971.05
993.6244	2671.4351	1862.5	978.95
993.7477	2672.6839	1859.3	977.85
993.8709	2673.9321	1860.2	980.3
993.9942	2675.1795	1857.65	973.25
994.1174	2676.4263	1853.95	973.7
994.2405	2677.6724	1853.85	973.55
994.3637	2678.9179	1864.45	980.75
994.4868	2680.1626	1856.75	974.5
994.6098	2681.4067	1854.15	970.25
994.7328	2682.6501	1857.5	975.7
994.8558	2683.8928	1842.35	960.45
994.9788	2685.1348	1837	957
995.1017	2686.3761	1838.85	958.1
995.2245	2687.6168	1839.3	955.95
995.3474	2688.8568	1820.95	939.65
995.4702	2690.0961	1815.65	934.35
995.5929	2691.3348	1817.5	933.5
995.7156	2692.5727	1810.7	927.45
995.8383	2693.81	1804.5	922.9
995.961	2695.0466	1802.55	921.7
996.0836	2696.2826	1806.45	921.6
996.2062	2697.5178	1809.25	922.85
996.3287	2698.7524	1801.35	920.65
996.4512	2699.9863	1806.8	922.6
996.5737	2701.2195	1801.2	921.85
996.6961	2702.452	1808.4	924.8
996.8185	2703.6839	1808.35	924.05
996.9408	2704.9151	1813.05	932.4
997.0631	2706.1456	1815.55	933.45
997.1854	2707.3755	1812.6	930.85
997.3077	2708.6046	1828.25	945.4
997.4299	2709.8331	1827.7	946.25
997.552	2711.0609	1832.2	950.65
997.6742	2712.2881	1840.25	957.2
997.7963	2713.5145	1849.3	965.5
997.9183	2714.7403	1857	977.35
998.0403	2715.9654	1858.25	976.6
998.1623	2717.1899	1881.2	983.15
998.2842	2718.4136	1880.95	997.55
998.4062	2719.6367	1888.45	1007.05
998.528	2720.8591	1906.45	1018.95
998.6498	2722.0809	1911.05	1028.35
998.7716	2723.3019	1924.3	1038.75
998.8934	2724.5223	1920.1	1038.95
999.0151	2725.7421	1925.3	1042.25
999.1368	2726.9611	1931.7	1048.45
999.2584	2728.1795	1938.65	1050.45
999.38	2729.3972	1915	1034.55
999.5016	2730.6142	1919.55	1027.4
999.6231	2731.8306	1890.05	1008.3
999.7446	2733.0462	1879.05	996.65
999.8661	2734.2612	1860.7	973.7
999.9875	2735.4756	1839.8	956.7
1000.1089	2736.6892	1814.7	930.35
1000.2302	2737.9022	1807.4	926
1000.3515	2739.1145	1793	912.65
1000.4728	2740.3262	1776.7	888.1
1000.594	2741.5372	1767.8	888.3
1000.7152	2742.7475	1746.35	865.6
1000.8363	2743.9571	1741.25	857.5
1000.9575	2745.1661	1727.95	844.25
1001.0785	2746.3744	1713.8	832.1
1001.1996	2747.582	1714.15	832.9
1001.3206	2748.7889	1705.85	822.8
1001.4415	2749.9952	1697.4	815.5
1001.5625	2751.2008	1689.35	808.85
1001.6833	2752.4057	1693.6	808.65
1001.8042	2753.61	1675.65	792.75
1001.925	2754.8136	1673.9	793.65
1002.0458	2756.0165	1669.15	787.3
1002.1665	2757.2188	1668.15	789.35
1002.2872	2758.4204	1662.3	780.6
1002.4078	2759.6213	1671.1	786.4
1002.5285	2760.8215	1667.75	784.2
1002.649	2762.0211	1661.5	776.65
1002.7696	2763.22	1662.7	778.55
1002.8901	2764.4182	1654.8	770.75
1003.0106	2765.6158	1665.45	784.75
1003.131	2766.8127	1647.1	766.1
1003.2514	2768.009	1647	766.1
1003.3717	2769.2045	1630.25	750
1003.492	2770.3994	1642.8	759.7
1003.6123	2771.5936	1627.45	748.35
1003.7325	2772.7872	1627.9	747.4
1003.8527	2773.9801	1625.55	743.4
1003.9729	2775.1723	1633.9	736.55
1004.093	2776.3639	1615.3	736.95
1004.2131	2777.5548	1621	739.05
1004.3331	2778.745	1622.1	741.35
1004.4531	2779.9346	1622.35	741.05
1004.5731	2781.1235	1625.5	744.4
1004.693	2782.3117	1620.6	741.7
1004.8129	2783.4992	1623.7	744.15
1004.9328	2784.6861	1630.35	750.05
1005.0526	2785.8723	1632.95	750.9
1005.1723	2787.0579	1639.85	759.85
1005.2921	2788.2428	1642.05	763.85
1005.4118	2789.427	1650.2	769.3
1005.5314	2790.6106	1656.55	777.05
1005.651	2791.7935	1675.35	791.75
1005.7706	2792.9757	1674.35	796.15
1005.8902	2794.1573	1687.35	803.4
1006.0097	2795.3382	1700.8	821.55
1006.1291	2796.5184	1708.6	827.95
1006.2485	2797.698	1725.05	843.15
1006.3679	2798.8769	1734.9	855.6
1006.4873	2800.0551	1747.1	863.65
1006.6066	2801.2327	1771.05	889.4
1006.7258	2802.4096	1780.8	902.15
1006.8451	2803.5859	1808.4	927.05
1006.9642	2804.7615	1825.8	945.75
1007.0834	2805.9364	1843.25	964.95
1007.2025	2807.1106	1867.15	986.25
1007.3216	2808.2842	1900.85	1020.9
1007.4406	2809.4572	1932.25	1052.05
1007.5596	2810.6294	1961.3	1080.9
1007.6785	2811.801	2010.3	1132.25
1007.7975	2812.972	2042.6	1164.35
1007.9163	2814.1423	2076.05	1195.45
1008.0352	2815.3119	2125.95	1244.7
1008.154	2816.4808	2177.05	1299.85
1008.2727	2817.6491	2218.8	1337.4
1008.3914	2818.8167	2267.2	1390.9
1008.5101	2819.9837	2322.75	1436.6
1008.6288	2821.15	2369.25	1488.95
1008.7474	2822.3157	2418.8	1542.05
1008.8659	2823.4807	2458.8	1579.15
1008.9844	2824.645	2508.15	1628.1
1009.1029	2825.8086	2545.7	1667.65
1009.2214	2826.9716	2590.6	1712.95
1009.3398	2828.134	2624.35	1746.6
1009.4581	2829.2957	2683.5	1803.8
1009.5764	2830.4567	2701.7	1823.95
1009.6947	2831.617	2716.15	1835.8
1009.813	2832.7767	2738.5	1860.1
1009.9312	2833.9358	2735.45	1857.45
1010.0493	2835.0941	2736.2	1854.85
1010.1675	2836.2519	2718.15	1836.7
1010.2855	2837.4089	2709.6	1827.8
1010.4036	2838.5653	2705.65	1823.9
1010.5216	2839.7211	2705.15	1826.75
1010.6396	2840.8761	2714.5	1832.7
1010.7575	2842.0306	2734.15	1858.3
1010.8754	2843.1843	2780.25	1901.35
1010.9932	2844.3374	2813.1	1934.9
1011.111	2845.4899	2871.05	1991.35
1011.2288	2846.6417	2938.45	2059.45
1011.3465	2847.7928	3011.7	2134
1011.4642	2848.9433	3071.8	2190.15
1011.5818	2850.0931	3166.2	2288.1
1011.6995	2851.2422	3251.8	2370.8
1011.817	2852.3907	3305.6	2426.6
1011.9345	2853.5385	3362.55	2480.95
1012.052	2854.6857	3444.5	2540.25
1012.1695	2855.8323	3492.1	2613.95
1012.2869	2856.9781	3517.05	2636.95
1012.4042	2858.1233	3581.55	2703
1012.5216	2859.2679	3618.9	2739.05
1012.6389	2860.4118	3674.9	2797.45
1012.7561	2861.555	3711.95	2828.3
1012.8733	2862.6976	3756.05	2875.95
1012.9905	2863.8395	3777.4	2899.85
1013.1076	2864.9808	3789.75	2911.6
1013.2247	2866.1214	3808.75	2932
1013.3417	2867.2614	3835.2	2956.15
1013.4587	2868.4007	3849.95	2971.35
1013.5757	2869.5393	3851.35	2969.75
1013.6926	2870.6773	3870.35	2988.8
1013.8095	2871.8146	3882.3	2998.75
1013.9263	2872.9513	3885.75	3003.7
1014.0431	2874.0874	3887.65	3008.6
1014.1599	2875.2227	3866.15	2988.2
1014.2766	2876.3574	3863.95	2984.55
1014.3933	2877.4915	3831.45	2953.25
1014.51	2878.6249	3809.45	2931.25
1014.6266	2879.7577	3789.95	2910.95
1014.7431	2880.8898	3775.15	2887.15
1014.8596	2882.0212	3740.7	2863.45
1014.9761	2883.152	3730.2	2851.3
1015.0925	2884.2821	3718.5	2840.05
1015.2089	2885.4116	3704.1	2826.85
1015.3253	2886.5405	3707.4	2829.05
1015.4416	2887.6686	3723.95	2843.05
1015.5579	2888.7962	3734.9	2858.65
1015.6741	2889.923	3733.25	2855.8
1015.7903	2891.0493	3724.85	2847.3
1015.9065	2892.1748	3750.3	2871.25
1016.0226	2893.2997	3758.3	2879.6
1016.1387	2894.424	3783.5	2906.6
1016.2547	2895.5476	3792.15	2914.9
1016.3707	2896.6706	3826.6	2948.4
1016.4866	2897.7929	3836.15	2957.65
1016.6025	2898.9145	3861.85	2983
1016.7184	2900.0355	3888.85	3009.45
1016.8342	2901.1559	3946.45	3068.4
1016.95	2902.2756	3973.2	3093.65
1017.0658	2903.3946	4003.65	3126.25
1017.1815	2904.513	4019.4	3139.8
1017.2971	2905.6308	4055.15	3177.25
1017.4127	2906.7479	4067.85	3190
1017.5283	2907.8643	4103	3223.95
1017.6439	2908.9801	4107.9	3231.2
1017.7594	2910.0953	4125.3	3248.25
1017.8748	2911.2098	4111.6	3229.95
1017.9902	2912.3236	4121.1	3237.1
1018.1056	2913.4368	4086	3204.5
1018.2209	2914.5494	4086.75	3210.2
1018.3362	2915.6613	4050.4	3167.5
1018.4515	2916.7725	4029	3151.95
1018.5667	2917.8831	3987.95	3108.35
1018.6819	2918.9931	3985.65	3107.15
1018.797	2920.1024	3930.6	3051.75
1018.9121	2921.211	3932.2	3054.5
1019.0271	2922.319	3889.7	3010.3
1019.1421	2923.4264	3887.65	3011.15
1019.2571	2924.5331	3871.75	2996.4
1019.372	2925.6391	3856.05	2979.65
1019.4869	2926.7445	3843.2	2968.4
1019.6017	2927.8493	3846.5	2968.8
1019.7165	2928.9534	3833.55	2955.3
1019.8313	2930.0569	3812.15	2933.2
1019.946	2931.1597	3814.1	2936.25
1020.0606	2932.2619	3796.55	2919.25
1020.1753	2933.3634	3791.35	2911.65
1020.2899	2934.4643	3792.15	2907.55
1020.4044	2935.5645	3779.15	2897.3
1020.5189	2936.6641	3735.6	2855.55
1020.6334	2937.763	3691.1	2815.55
1020.7478	2938.8613	3651.5	2772.6
1020.8622	2939.959	3588.15	2705.9
1020.9765	2941.056	3519.95	2642
1021.0908	2942.1523	3425.55	2548.95
1021.2051	2943.248	3350.15	2473.55
1021.3193	2944.3431	3257.95	2381.25
1021.4334	2945.4375	3146.65	2268.6
1021.5476	2946.5313	3034.65	2158.65
1021.6617	2947.6244	2957.35	2079.85
1021.7757	2948.7169	2854.05	1976.3
1021.8897	2949.8087	2757.7	1880
1022.0037	2950.8999	2658.4	1781.6
1022.1176	2951.9904	2577.2	1702.1
1022.2315	2953.0803	2505	1627.25
1022.3453	2954.1696	2429.45	1553.9
1022.4591	2955.2582	2388.05	1513.6
1022.5728	2956.3462	2329.55	1452.5
1022.6865	2957.4335	2294.6	1417.7
1022.8002	2958.5202	2246.3	1367.85
1022.9138	2959.6062	2224.9	1349.1
1023.0274	2960.6916	2211.65	1336.3
1023.141	2961.7764	2174.45	1295.05
1023.2545	2962.8605	2174.45	1296.6
1023.3679	2963.9439	2149.45	1273.55
1023.4813	2965.0267	2139.15	1261.6
1023.5947	2966.1089	2144.9	1246.25
1023.708	2967.1905	2126.7	1250.15
1023.8213	2968.2714	2121	1245.05
1023.9346	2969.3516	2113.2	1234.9
1024.0478	2970.4312	2122.15	1237.15
1024.1609	2971.5102	2118.85	1242.85
1024.274	2972.5885	2112.75	1236.1
1024.3871	2973.6662	2124.45	1244.6
1024.5002	2974.7432	2110.7	1233.85
1024.6132	2975.8196	2101.15	1223.2
1024.7261	2976.8954	2095.9	1221.3
1024.839	2977.9705	2081.25	1206
1024.9519	2979.045	2069.1	1194.15
1025.0647	2980.1188	2056.85	1183.3
1025.1775	2981.192	2029.2	1156.05
1025.2902	2982.2645	2007.6	1130.95
1025.4029	2983.3364	1986.5	1109.2
1025.5156	2984.4077	1955.3	1080.95
1025.6282	2985.4783	1932.45	1050.6
1025.7407	2986.5483	1894	1019.35
1025.8532	2987.6177	1857.4	980.25
1025.9657	2988.6864	1832.95	955.3
1026.0782	2989.7545	1797.6	918.95
1026.1906	2990.8219	1769.55	896.05
1026.3029	2991.8887	1736	857.35
1026.4152	2992.9548	1702.4	826.65
1026.5275	2994.0204	1661	784.8
1026.6397	2995.0852	1629.55	755.2
1026.7519	2996.1495	1612.85	736.1
1026.864	2997.2131	1586.35	709.15
1026.9761	2998.276	1570.2	694.85
1027.0882	2999.3383	1541.2	664.35
1027.2002	3000.4	1523.2	643.5
1027.3122	3001.4611	1507.6	631.55
1027.4241	3002.5215	1487.55	609.35
1027.536	3003.5812	1484.2	609
1027.6478	3004.6404	1463.3	587.4
1027.7596	3005.6989	1449.25	571.95
1027.8714	3006.7567	1444.25	569.5
1027.9831	3007.8139	1458.45	550.6
1028.0947	3008.8705	1428.65	554
1028.2064	3009.9264	1428.6	551.15
1028.3179	3010.9818	1418.35	541.6
1028.4295	3012.0364	1419.05	543.1
1028.541	3013.0905	1410	534.85
1028.6524	3014.1439	1403.4	528.1
1028.7638	3015.1966	1399.25	523.7
1028.8752	3016.2487	1402.8	526.75
1028.9865	3017.3002	1402.2	524
1029.0978	3018.3511	1396.05	522.95
1029.209	3019.4013	1394.9	519.5
1029.3202	3020.4509	1407.3	532.9
1029.4314	3021.4998	1396.9	518.95
1029.5425	3022.5481	1393.55	516.85
1029.6535	3023.5958	1391.8	517.15
1029.7645	3024.6428	1397.15	521.95
1029.8755	3025.6892	1392.45	517.15
1029.9864	3026.735	1396.6	519.95
1030.0973	3027.7802	1396.95	520.3
1030.2082	3028.8247	1395.15	520.05
1030.319	3029.8685	1407.45	532.5
1030.4297	3030.9118	1408	533.7
1030.5404	3031.9544	1411.1	535.9
1030.6511	3032.9963	1417.2	542.95
1030.7617	3034.0376	1411.85	537.85
1030.8723	3035.0783	1420.5	541.15
1030.9829	3036.1184	1425.7	549.5
1031.0934	3037.1578	1426.65	551
1031.2038	3038.1966	1425.5	549.55
1031.3142	3039.2348	1423.9	548.7
1031.4246	3040.2723	1432	547.1
1031.5349	3041.3092	1430.45	557.4
1031.6452	3042.3455	1426.8	551.1
1031.7554	3043.3811	1418.05	542.4
1031.8656	3044.4161	1419.1	543.95
1031.9758	3045.4505	1410.35	534.8
1032.0859	3046.4842	1408.1	532
1032.1959	3047.5173	1395.8	522
1032.3059	3048.5498	1397.3	521.45
1032.4159	3049.5816	1389.2	512.95
1032.5258	3050.6128	1383.85	506.95
1032.6357	3051.6434	1381.05	504.2
1032.7455	3052.6734	1367.7	491.9
1032.8553	3053.7027	1363.3	488.4
1032.9651	3054.7314	1366.3	490.5
1033.0748	3055.7594	1359.45	485.75
1033.1845	3056.7868	1351.6	473.85
1033.2941	3057.8136	1345.5	471.55
1033.4037	3058.8398	1335.85	461.2
1033.5132	3059.8653	1332.25	457.5
1033.6227	3060.8902	1328.65	454.15
1033.7321	3061.9145	1326.2	450.7
1033.8415	3062.9381	1321.1	446.65
1033.9509	3063.9612	1330.85	440.9
1034.0602	3064.9835	1305.5	430.55
1034.1694	3066.0053	1297.15	420.45
1034.2787	3067.0264	1290.45	413.55
1034.3878	3068.0469	1292.7	417.05
1034.497	3069.0668	1283.9	406.3
1034.6061	3070.086	1266.85	392.9
1034.7151	3071.1046	1257.6	384.6
1034.8241	3072.1226	1255.5	382.1
1034.9331	3073.1399	1243.5	370.35
1035.042	3074.1567	1236.45	362.05
1035.1508	3075.1727	1228.2	351.7
1035.2597	3076.1882	1218.1	341.35
1035.3684	3077.203	1209.2	334.2
1035.4772	3078.2173	1204.4	327.45
1035.5859	3079.2308	1199.35	321.8
1035.6945	3080.2438	1187	310.45
1035.8031	3081.2561	1180.6	304.15
1035.9117	3082.2678	1173.65	299.3
1036.0202	3083.2789	1163.6	289.15
1036.1286	3084.2893	1160.45	287.75
1036.2371	3085.2991	1160.65	284.35
1036.3454	3086.3083	1152.35	272
1036.4538	3087.3169	1142.6	266.55
1036.562	3088.3248	1139.15	262.4
1036.6703	3089.3321	1131.75	254.7
1036.7785	3090.3388	1125	251.95
1036.8866	3091.3449	1125.2	250.6
1036.9948	3092.3503	1122.05	243.75
1037.1028	3093.3551	1108.65	234.8
1037.2108	3094.3593	1108.35	234.4
1037.3188	3095.3629	1107.5	231.85
1037.4267	3096.3658	1105.35	227
1037.5346	3097.3681	1098.65	224.6
1037.6425	3098.3698	1103.4	226
1037.7503	3099.3708	1106.15	226.05
1037.858	3100.3713	1090.15	218.2
1037.9657	3101.3711	1094.45	220.45
1038.0734	3102.3702	1203.6	212.55
1038.181	3103.3688	1083.1	206.8
1038.2886	3104.3667	1079.15	204
1038.3961	3105.364	1083.2	211
1038.5036	3106.3607	1081.2	205.4
1038.611	3107.3568	1077.75	200.65
1038.7184	3108.3522	1074.5	200.15
1038.8257	3109.347	1069.45	192.9
1038.933	3110.3412	1078.05	199.55
1039.0403	3111.3348	1073.25	198.8
1039.1475	3112.3277	1069.3	196.3
1039.2547	3113.32	1063.1	190.3
1039.3618	3114.3117	1067.3	192.8
1039.4689	3115.3028	1063.3	189.5
1039.5759	3116.2932	1064.7	188.5
1039.6829	3117.2831	1065.6	185.2
1039.7898	3118.2723	1057.35	182
1039.8967	3119.2608	1054.85	181.25
1040.0035	3120.2488	1053.65	179.25
1040.1103	3121.2361	1054.6	180.35
1040.2171	3122.2229	1054.8	181.85
1040.3238	3123.209	1051.55	178.15
1040.4305	3124.1944	1042.9	169.3
1040.5371	3125.1793	1052.7	177.8
1040.6437	3126.1635	1041.85	167.85
1040.7502	3127.1471	1043.65	170.3
1040.8567	3128.1301	1043.3	168.15
1040.9631	3129.1125	1041.75	166.65
1041.0695	3130.0942	1037.2	161.9
1041.1759	3131.0753	1044.9	162.65
1041.2822	3132.0558	1041.05	163.35
1041.3884	3133.0357	1038.65	164.5
1041.4946	3134.015	1036.15	161.75
1041.6008	3134.9936	1033.25	156.7
1041.7069	3135.9716	1056.95	164.5
1041.813	3136.949	1033.2	159.6
1041.919	3137.9258	1050	159.05
1042.025	3138.902	1035.4	155.3
1042.1309	3139.8775	1030.05	156.45
1042.2368	3140.8524	1025	152.5
1042.3427	3141.8267	1028.05	151.2
1042.4485	3142.8004	1024	148.2
1042.5542	3143.7735	1027.5	147.8
1042.6599	3144.7459	1025.85	150.5
1042.7656	3145.7178	1022.7	148.6
1042.8712	3146.689	1020.35	147.5
1042.9768	3147.6596	1021.55	145.45
1043.0823	3148.6295	1019.65	144.8
1043.1878	3149.5989	1015.45	143.05
1043.2932	3150.5676	1014.1	144.8
1043.3986	3151.5357	1014.65	142
1043.5039	3152.5032	1015.65	142.05
1043.6092	3153.4701	1014.8	138.4
1043.7145	3154.4364	1016.85	139.8
1043.8197	3155.402	1011.2	139.35
1043.9248	3156.367	1009.3	136.35
1044.03	3157.3315	1033.55	134
1044.135	3158.2952	1005.8	131.4
1044.24	3159.2584	1005.15	129.15
1044.345	3160.221	1005.95	130.2
1044.4499	3161.1829	999.65	125.05
1044.5548	3162.1442	1001.55	128.5
1044.6596	3163.105	997	123.55
1044.7644	3164.065	998.1	125.05
1044.8692	3165.0245	999.75	125.05
1044.9739	3165.9834	994.95	122.3
1045.0785	3166.9416	997.35	125.1
1045.1831	3167.8993	996.7	122.25
1045.2877	3168.8563	995.05	121.35
1045.3922	3169.8127	992.7	119.85
1045.4966	3170.7684	995.95	123.5
1045.6011	3171.7236	998.1	124.8
1045.7054	3172.6782	991.1	119.85
1045.8098	3173.6321	994.95	122.2
1045.914	3174.5854	996.1	118.4
1046.0183	3175.5381	990.25	115.9
1046.1224	3176.4902	991.8	120.65
1046.2266	3177.4417	992.25	118.15
1046.3307	3178.3926	987.05	114.25
1046.4347	3179.3428	990.3	116.95
1046.5387	3180.2924	984.3	110.3
1046.6427	3181.2415	986.3	113.4
1046.7466	3182.1899	986.55	111.15
1046.8504	3183.1377	988.7	116.95
1046.9542	3184.0848	989	114.05
1047.058	3185.0314	984	111.05
1047.1617	3185.9773	983.25	109.7
1047.2654	3186.9227	982.1	108.1
1047.369	3187.8674	980.55	107.25
1047.4726	3188.8115	985.2	108.35
1047.5761	3189.755	981.95	109.7
1047.6796	3190.6979	979	106.25
1047.783	3191.6402	978.7	106.35
1047.8864	3192.5818	976.2	102.6
1047.9898	3193.5229	986.45	106.6
1048.0931	3194.4633	978.5	106.9
1048.1963	3195.4031	977.8	103.3
1048.2995	3196.3423	977.15	104.75
1048.4027	3197.2809	972.75	98.95
1048.5058	3198.2189	974.85	100.95
1048.6089	3199.1563	987.95	98.15
1048.7119	3200.0931	971.65	100.05
1048.8148	3201.0292	975.45	104.4
1048.9178	3201.9648	970.9	97.75
1049.0206	3202.8997	974.15	98.35
1049.1235	3203.834	974.2	100.7
1049.2262	3204.7677	967.75	94.4
1049.329	3205.7008	970.05	96.6
1049.4317	3206.6333	969.2	98.8
1049.5343	3207.5652	972.25	98.05
1049.6369	3208.4964	968.85	97.25
1049.7394	3209.4271	967.45	96.45
1049.8419	3210.3571	966.9	93.2
1049.9444	3211.2865	968.8	94.15
1050.0468	3212.2154	964.65	91.05
1050.1491	3213.1436	968	90.9
1050.2514	3214.0712	971.95	91.5
1050.3537	3214.9982	963	87.65
1050.4559	3215.9246	963.5	92.3
1050.5581	3216.8503	960.25	87.25
1050.6602	3217.7755	965.15	91.65
1050.7623	3218.7001	962.55	89.65
1050.8643	3219.624	963.5	91.45
1050.9663	3220.5473	961.5	89.55
1051.0682	3221.4701	963.55	89.9
1051.1701	3222.3922	962.4	87.75
1051.2719	3223.3137	960.55	87.4
1051.3737	3224.2346	959.7	88.05
1051.4754	3225.1549	959.7	88.2
1051.5771	3226.0746	958.4	88.85
1051.6788	3226.9937	959.35	86.7
1051.7804	3227.9121	956.75	84.1
1051.8819	3228.83	956.3	84.4
1051.9834	3229.7473	957.4	84.8
1052.0849	3230.6639	955.05	81.2
1052.1863	3231.5799	956.6	84.5
1052.2876	3232.4954	956.35	82.2
1052.3889	3233.4102	953.4	81.3
1052.4902	3234.3244	952.75	78.75
1052.5914	3235.238	952.95	81.35
1052.6926	3236.151	965.5	75.6
1052.7937	3237.0634	952.6	81.6
1052.8948	3237.9752	955.05	82.85
1052.9958	3238.8864	950.3	77.65
1053.0968	3239.797	952.05	78.45
1053.1977	3240.7069	947.9	74.5
1053.2986	3241.6163	954.8	82.8
1053.3994	3242.5251	947.7	75.5
1053.5002	3243.4332	949.8	77.5
1053.6009	3244.3408	945.2	74.15
1053.7016	3245.2477	947.55	76.05
1053.8022	3246.154	947.6	74.65
1053.9028	3247.0598	949.45	74.75
1054.0034	3247.9649	947.95	75.4
1054.1039	3248.8694	944.9	72.35
1054.2043	3249.7733	946.35	74.4
1054.3047	3250.6766	944.35	70.8
1054.4051	3251.5793	944.35	69.6
1054.5054	3252.4814	943.65	71.45
1054.6056	3253.3829	943.55	69.95
1054.7058	3254.2838	942.4	71.25
1054.806	3255.1841	941.05	68.95
1054.9061	3256.0838	939.8	67.95
1055.0061	3256.9829	941.15	71.25
1055.1062	3257.8814	941.2	68.05
1055.2061	3258.7792	939.85	66.7
1055.306	3259.6765	939.35	66.45
1055.4059	3260.5731	936.05	63.7
1055.5057	3261.4692	936.7	64.25
1055.6055	3262.3647	933.5	61.9
1055.7052	3263.2595	930	57.9
1055.8049	3264.1538	933.8	61.45
1055.9045	3265.0474	933.1	60.55
1056.0041	3265.9404	930.45	60.6
1056.1036	3266.8329	929.15	60.25
1056.2031	3267.7247	940.1	60
1056.3025	3268.616	928.15	55.8
1056.4019	3269.5066	925	51.6
1056.5013	3270.3966	927.4	54.7
1056.6005	3271.286	918.9	49.8
