Software Version:	3.9.2.0
Unit SN:	10000200
Spectrometer SN:	6960
Date:	3/8/2024 2:20:21 PM
Data Line Index:	25
Spectral Points:	2048
Integration time (ms):	125
Averages:	20
Delay (ms):	30000
Sequence Number:	1
Processing:	dark subtract
Laser Power (mW):	295
Laser Current (mA):	825
Laser Diode Temp (C):	25.1
Laser Case Temp (C):	26.1
System Temp (C):	26.1
Spectrometer Temp (C):	24
CCD Temp (C):	0.004
Secondary Temp (C):	20.01
Heatsink Temp (C):	20.717
CCDPCB Temp (C):	36.174
SecondaryPCB Temp (C):	31.349

Wavelength	RamanShift	Raw Counts	Dark Subtracted
787.061	30.1047	462.45	54.25
787.2016	32.3739	461.45	55.8
787.3422	34.6426	467.75	61.3
787.4828	36.9109	472.95	64.4
787.6235	39.1787	482.05	70.95
787.7642	41.4461	492.7	76.2
787.9049	43.7131	501.3	82.15
788.0456	45.9796	508.8	88.3
788.1863	48.2456	520.35	94.75
788.3271	50.5112	531.7	99.7
788.4679	52.7764	538.4	102.55
788.6087	55.0411	548	106.85
788.7496	57.3054	558	115.55
788.8904	59.5692	570.35	125.9
789.0313	61.8326	580.85	133.55
789.1722	64.0955	595.25	143.45
789.3132	66.3579	613.1	155.75
789.4541	68.6199	636.65	175.85
789.5951	70.8815	666.65	201.35
789.7361	73.1426	749.75	279.4
789.8771	75.4032	959.4	486.8
790.0181	77.6634	1473.85	995.2
790.1592	79.9231	2693.85	2210.95
790.3003	82.1824	5368.05	4865.65
790.4414	84.4412	10089.85	9559.55
790.5825	86.6995	16643.35	16072.75
790.7237	88.9574	22973.35	22365.7
790.8648	91.2148	27315.55	26691.75
791.006	93.4717	29393.35	28754.7
791.1472	95.7282	29821.75	29178.85
791.2885	97.9842	29853.55	29206.4
791.4297	100.2398	29330.85	28676.7
791.571	102.4949	28742.3	28088.85
791.7123	104.7495	28018.3	27362.95
791.8536	107.0036	27263.8	26601.9
791.9949	109.2573	26492.35	25834.45
792.1363	111.5105	25802.15	25145.95
792.2777	113.7632	25077.6	24417.35
792.4191	116.0154	24461.3	23789
792.5605	118.2672	24014.9	23345.5
792.7019	120.5185	23485.3	22816.5
792.8434	122.7693	23157.6	22483.75
792.9849	125.0197	22861.45	22186.35
793.1264	127.2696	22547.45	21868.9
793.2679	129.519	22411.2	21727.25
793.4094	131.7679	22244.75	21559.35
793.551	134.0163	22118.55	21427.8
793.6926	136.2642	21932.55	21242.8
793.8342	138.5117	21755.05	21051.25
793.9758	140.7587	21527.9	20833.2
794.1175	143.0052	21369.9	20670.8
794.2591	145.2512	21114.55	20418.2
794.4008	147.4967	20921.2	20222.85
794.5425	149.7417	20805.3	20103.7
794.6842	151.9863	20713.6	20006.6
794.826	154.2304	20606.4	19892.65
794.9677	156.4739	20483.6	19765.2
795.1095	158.717	20444.8	19723.1
795.2513	160.9596	20307.55	19589.4
795.3931	163.2017	20097	19371.9
795.535	165.4433	19827.4	19100.55
795.6768	167.6844	19502.5	18772.5
795.8187	169.925	19193.45	18463
795.9606	172.1651	18788.4	18059.65
796.1025	174.4047	18528.5	17794.45
796.2445	176.6439	18280.25	17544.1
796.3864	178.8825	18084.25	17345.25
796.5284	181.1206	17919.85	17176.55
796.6704	183.3582	17728.65	16977.55
796.8124	185.5954	17622.25	16869.25
796.9544	187.832	17539.25	16783.8
797.0965	190.0681	17518	16758
797.2386	192.3037	17515.85	16756.95
797.3806	194.5388	17546.95	16781.3
797.5228	196.7734	17604.5	16835.35
797.6649	199.0075	17680.85	16914.3
797.807	201.2411	17825.8	17056.35
797.9492	203.4742	17906.6	17134.7
798.0914	205.7068	18038.05	17258.65
798.2336	207.9389	18157.4	17385.15
798.3758	210.1704	18355.2	17594.25
798.518	212.4015	18446.4	17694.1
798.6603	214.632	18633.3	17883.25
798.8025	216.862	18805.75	18053.55
798.9448	219.0915	18978.5	18225.45
799.0871	221.3205	19240.05	18479.65
799.2294	223.549	19519.2	18767.3
799.3718	225.777	19838.15	19084.75
799.5141	228.0044	20251	19489.85
799.6565	230.2314	20721.55	19957.2
799.7989	232.4578	21186.5	20425.35
799.9413	234.6837	21579.8	20804.6
800.0837	236.909	21817.1	21041.7
800.2262	239.1339	21836.2	21033.05
800.3687	241.3582	21628	20838.7
800.5111	243.582	21299.75	20485.55
800.6536	245.8053	20949.9	20146.15
800.7961	248.0281	20596.5	19797.2
800.9387	250.2503	20330	19533.4
801.0812	252.472	20173.95	19376.25
801.2238	254.6932	20075.65	19278.4
801.3664	256.9139	20018.95	19217.95
801.509	259.134	19960.7	19157.45
801.6516	261.3536	19943.95	19142.9
801.7942	263.5727	20005.8	19196.85
801.9369	265.7912	19894.65	19084.75
802.0795	268.0092	19917.25	19112.3
802.2222	270.2267	19899.95	19094.6
802.3649	272.4436	19855.15	19045.4
802.5076	274.6601	19807.15	18987.9
802.6504	276.8759	19728.25	18914.75
802.7931	279.0913	19725.35	18909.75
802.9359	281.3061	19717.5	18902.75
803.0787	283.5204	19770.2	18953.35
803.2215	285.7341	19902.7	19084.05
803.3643	287.9473	20100.75	19270.5
803.5071	290.16	20358.05	19529.2
803.6499	292.3721	20637.5	19822
803.7928	294.5837	21068.15	20246.95
803.9357	296.7947	21453.8	20633.25
804.0786	299.0052	21706.55	20883.65
804.2215	301.2152	21575.95	20753.35
804.3644	303.4246	21224.45	20403.5
804.5074	305.6334	20704.9	19884.85
804.6503	307.8418	20189.9	19369.15
804.7933	310.0495	19777.15	18950.6
804.9363	312.2568	19472.6	18646.2
805.0793	314.4635	19249.3	18419.6
805.2223	316.6696	19178.7	18346.9
805.3653	318.8752	19152.6	18311.25
805.5084	321.0802	19224.9	18388.6
805.6514	323.2847	19332.85	18496.4
805.7945	325.4887	19391.5	18550.8
805.9376	327.692	19329.15	18492.2
806.0807	329.8949	19248.65	18412.7
806.2238	332.0972	18974.05	18132.3
806.367	334.2989	18736.15	17893.35
806.5101	336.5001	18435.75	17591.7
806.6533	338.7007	18242.25	17399.55
806.7965	340.9008	18175.25	17327
806.9397	343.1003	18038.75	17193.3
807.0829	345.2992	17966.4	17118.9
807.2261	347.4976	17995.5	17147.15
807.3693	349.6955	18006.5	17149.4
807.5126	351.8927	18087.3	17231.45
807.6559	354.0895	18066.75	17204.8
807.7991	356.2856	18134.55	17277.05
807.9424	358.4812	18129.15	17271.5
808.0857	360.6763	18161.8	17301.8
808.2291	362.8707	18131.5	17274
808.3724	365.0646	18172.55	17314.5
808.5158	367.258	18221.8	17358.7
808.6591	369.4508	18236.85	17371.85
808.8025	371.643	18290.3	17426.1
808.9459	373.8346	18291.45	17424.35
809.0893	376.0257	18295.65	17424.15
809.2327	378.2162	18209.8	17348.1
809.3762	380.4062	18152.8	17287.2
809.5196	382.5956	17997.6	17136.7
809.6631	384.7844	17910.85	17058.25
809.8066	386.9726	17794.05	16937.9
809.9501	389.1603	17724.65	16869.4
810.0936	391.3474	17746.4	16865.15
810.2371	393.5339	17720.35	16858.3
810.3806	395.7199	17657.6	16800.5
810.5241	397.9052	17708.35	16849.05
810.6677	400.09	17734.95	16874.4
810.8113	402.2743	17774.4	16916.75
810.9548	404.4579	17880.65	17014.15
811.0984	406.641	18059.5	17192.8
811.2421	408.8235	18259.35	17394.05
811.3857	411.0054	18576.8	17711.3
811.5293	413.1868	19060.95	18187.15
811.673	415.3675	19416.15	18542.95
811.8166	417.5477	19619.2	18740.8
811.9603	419.7273	19689.1	18816.15
812.104	421.9064	19582.65	18706.3
812.2477	424.0848	19458	18585.45
812.3914	426.2627	19266.25	18393.7
812.5351	428.4399	18971.7	18098.55
812.6788	430.6166	18627.1	17745.3
812.8226	432.7928	18284	17402
812.9663	434.9683	17949	17068.5
813.1101	437.1432	17716.3	16841
813.2539	439.3176	17560	16691.45
813.3977	441.4914	17438.7	16569.9
813.5415	443.6645	17448.45	16574.45
813.6853	445.8371	17355.65	16478.2
813.8291	448.0091	17302.3	16427.45
813.973	450.1806	17224.5	16354.6
814.1168	452.3514	17222.65	16347.35
814.2607	454.5216	17205.55	16324.2
814.4046	456.6913	17152.55	16276.8
814.5485	458.8603	17196.55	16321.75
814.6924	461.0288	17283.35	16413.1
814.8363	463.1967	17302.8	16436.5
814.9802	465.3639	17444.65	16574.1
815.1241	467.5306	17538.75	16666.2
815.2681	469.6967	17685.45	16816.95
815.412	471.8622	17849.85	16980.75
815.556	474.0271	18024.6	17150.2
815.7	476.1914	18122.3	17244.55
815.844	478.3551	18107.25	17223.9
815.988	480.5182	18107.4	17234.35
816.132	482.6807	18103.25	17238.75
816.276	484.8426	18162.15	17302.35
816.4201	487.0039	18471.15	17603.3
816.5641	489.1647	18884.8	18006.1
816.7082	491.3248	19371.65	18493.45
816.8522	493.4843	19545.6	18672.9
816.9963	495.6432	19529	18656.5
817.1404	497.8015	19465.85	18582.9
817.2845	499.9592	19531.9	18641.95
817.4286	502.1163	19473.65	18583.7
817.5727	504.2728	19286.1	18405.2
817.7168	506.4287	18956.6	18090.15
817.861	508.5839	18537.65	17666.25
818.0051	510.7386	18252.5	17376.5
818.1493	512.8927	18045.05	17156.8
818.2935	515.0461	17916.3	17032.65
818.4377	517.199	17851.4	16963.1
818.5818	519.3512	17879.7	16992.3
818.726	521.5029	17928	17036.75
818.8703	523.6539	18002.85	17120.55
819.0145	525.8043	18028	17142.3
819.1587	527.9541	18035.3	17143
819.303	530.1033	18033.45	17147.65
819.4472	532.2519	18096.75	17209.25
819.5915	534.3999	18248.9	17359.45
819.7357	536.5472	18556.75	17667.3
819.88	538.694	19044.7	18161.05
820.0243	540.8401	19635.3	18745.4
820.1686	542.9856	20181.6	19284.35
820.3129	545.1305	20380.15	19472.25
820.4572	547.2748	20259.7	19351.45
820.6016	549.4185	19907.35	18997.85
820.7459	551.5615	19533.5	18627.9
820.8902	553.704	19389.1	18486
821.0346	555.8458	19340.65	18440.7
821.1789	557.987	19348.05	18448.6
821.3233	560.1276	19310.55	18406.9
821.4677	562.2675	19315.6	18412.45
821.6121	564.4069	19308.7	18407.7
821.7565	566.5456	19279.7	18378.8
821.9009	568.6837	19198.55	18298.6
822.0453	570.8212	18924.6	18030.45
822.1897	572.958	18633.95	17736.4
822.3342	575.0942	18371.85	17479.3
822.4786	577.2299	18220.85	17329.3
822.6231	579.3648	18198.3	17322.25
822.7675	581.4992	18264.45	17394.85
822.912	583.6329	18480.3	17609.3
823.0565	585.766	18702.5	17826.15
823.201	587.8985	18862.8	17982.3
823.3454	590.0304	18864.9	17961.1
823.4899	592.1616	18824.55	17921.55
823.6345	594.2922	18746.15	17842.3
823.779	596.4222	18605.9	17699.2
823.9235	598.5515	18461.85	17553.95
824.068	600.6802	18262.8	17362.7
824.2126	602.8083	18086.4	17184.7
824.3571	604.9358	18070.3	17168.65
824.5017	607.0626	17989.9	17085.6
824.6462	609.1888	17947	17034.2
824.7908	611.3144	17901.7	16989.75
824.9354	613.4393	17817.4	16908.95
825.08	615.5636	17726.75	16814.4
825.2246	617.6873	17606.1	16696.45
825.3692	619.8103	17548.65	16638.95
825.5138	621.9327	17469.9	16561.8
825.6584	624.0544	17468.75	16566
825.803	626.1756	17450.1	16551.2
825.9477	628.2961	17414.45	16506.7
826.0923	630.4159	17347.95	16439.15
826.237	632.5351	17335.55	16425.05
826.3816	634.6537	17256.25	16344.8
826.5263	636.7716	17292.3	16376.3
826.6709	638.8889	17324.9	16406.35
826.8156	641.0056	17331.85	16413.5
826.9603	643.1216	17322.5	16400.75
827.105	645.237	17370	16456.05
827.2497	647.3518	17354.45	16448.25
827.3944	649.4659	17417.05	16515.8
827.5391	651.5793	17386.65	16484.2
827.6838	653.6922	17418.45	16513.6
827.8285	655.8043	17405.95	16499.5
827.9733	657.9159	17404.2	16496.95
828.118	660.0268	17315.6	16405.25
828.2627	662.137	17291.85	16382.2
828.4075	664.2466	17270.7	16350.2
828.5522	666.3556	17267.65	16348.8
828.697	668.4639	17275.15	16361.35
828.8418	670.5716	17329.05	16421.2
828.9865	672.6786	17369.8	16457.95
829.1313	674.785	17450.55	16529.45
829.2761	676.8907	17510.5	16599.15
829.4209	678.9958	17622.65	16714.75
829.5657	681.1002	17557.5	16642.35
829.7105	683.204	17623.1	16701
829.8553	685.3072	17590.45	16670.35
830.0001	687.4097	17493.35	16576.95
830.1449	689.5115	17492.2	16573.95
830.2898	691.6127	17446.5	16533.05
830.4346	693.7132	17393.25	16486.2
830.5794	695.8131	17362.35	16429.85
830.7243	697.9123	17368.1	16445.05
830.8691	700.0109	17330.75	16410.55
831.014	702.1089	17315.5	16392.85
831.1588	704.2061	17319.7	16400.45
831.3037	706.3028	17346	16421.75
831.4486	708.3987	17459.4	16535.7
831.5935	710.4941	17548.5	16630.95
831.7383	712.5887	17742.85	16823.05
831.8832	714.6827	18031.25	17110.65
832.0281	716.7761	18373.6	17460.25
832.173	718.8688	18788.75	17870.9
832.3179	720.9608	19002.1	18074.4
832.4628	723.0522	19066.9	18134.4
832.6077	725.1429	18832.85	17906.8
832.7527	727.233	18556.2	17632.95
832.8976	729.3224	18349.8	17427.6
833.0425	731.4112	18061.8	17139.9
833.1874	733.4993	17837.95	16912.8
833.3324	735.5867	17684.05	16761.6
833.4773	737.6735	17640.55	16715.65
833.6222	739.7596	17570.2	16646.35
833.7672	741.845	17524.65	16600.85
833.9122	743.9298	17484.8	16563
834.0571	746.014	17540	16617.8
834.2021	748.0974	17531.1	16602.15
834.347	750.1802	17550.4	16618.15
834.492	752.2624	17554.35	16624.55
834.637	754.3439	17567.8	16637.9
834.782	756.4247	17662.3	16726.3
834.9269	758.5048	17746.55	16820.45
835.0719	760.5843	18002.9	17071.35
835.2169	762.6631	18258.4	17328.85
835.3619	764.7413	18680.75	17749.2
835.5069	766.8188	19277.55	18351.2
835.6519	768.8956	19749.4	18818.85
835.7969	770.9718	20011.45	19077.45
835.9419	773.0473	19906.4	18979.65
836.0869	775.1221	19620.65	18692.35
836.232	777.1962	19238.55	18312.3
836.377	779.2697	19014.05	18083.35
836.522	781.3426	19113.35	18159.7
836.667	783.4147	19348.95	18419.1
836.8121	785.4862	19711.45	18781.95
836.9571	787.557	19764.65	18831.5
837.1021	789.6271	19427.95	18493.55
837.2472	791.6966	18900.95	17967.85
837.3922	793.7654	18412.15	17479.6
837.5373	795.8335	18085.4	17157.4
837.6823	797.901	17907.45	16976.65
837.8274	799.9678	17873.4	16936.15
837.9724	802.0339	17863	16929.75
838.1175	804.0993	17917.35	16972.2
838.2626	806.1641	17909.25	16978.15
838.4076	808.2282	17887.9	16954.7
838.5527	810.2916	17776.6	16843.8
838.6978	812.3544	17695.5	16763.95
838.8428	814.4164	17616.1	16685.05
838.9879	816.4778	17622.75	16683.2
839.133	818.5385	17632.25	16693.85
839.2781	820.5986	17709.85	16772.8
839.4232	822.658	17829.55	16890.95
839.5682	824.7166	17921.55	16984.85
839.7133	826.7747	18122.2	17183.9
839.8584	828.832	18324.1	17385.9
840.0035	830.8886	18408	17466.65
840.1486	832.9446	18567.9	17627.1
840.2937	834.9999	18624.6	17690
840.4388	837.0545	18686.8	17746.9
840.5839	839.1085	18685	17746.5
840.729	841.1618	18705.65	17762.85
840.8741	843.2143	18667.45	17732.4
841.0192	845.2662	18599.95	17657.05
841.1643	847.3175	18566.9	17629.35
841.3095	849.368	18453.25	17511.9
841.4546	851.4179	18330.5	17394.45
841.5997	853.467	18225.95	17292.45
841.7448	855.5155	18114.85	17179.2
841.8899	857.5633	17993.55	17057.3
842.0351	859.6105	17931.7	16991.75
842.1802	861.6569	17869.75	16927.8
842.3253	863.7027	17830.65	16885.95
842.4704	865.7478	17827	16888
842.6156	867.7922	17816.5	16876.3
842.7607	869.8359	17924.1	16983.7
842.9058	871.8789	18056.9	17117.65
843.0509	873.9212	18215.95	17238.4
843.1961	875.9629	18335	17394.8
843.3412	878.0039	18573	17630.5
843.4863	880.0441	18662.8	17724.8
843.6315	882.0837	18709.3	17770.25
843.7766	884.1226	18627.55	17686.75
843.9218	886.1609	18503.45	17562.1
844.0669	888.1984	18414.65	17474.15
844.212	890.2352	18446.95	17507.75
844.3572	892.2714	18417.6	17474.35
844.5023	894.3069	18423.9	17480.5
844.6475	896.3416	18345	17404.35
844.7926	898.3757	18303.65	17364.85
844.9377	900.4091	18336.4	17391.4
845.0829	902.4418	18342.6	17395.65
845.228	904.4739	18329.1	17383.3
845.3732	906.5052	18351.4	17404.6
845.5183	908.5358	18242.6	17297.95
845.6635	910.5658	18121.8	17178.75
845.8086	912.595	17945.8	17002.25
845.9538	914.6236	17805.1	16860
846.0989	916.6515	17793.45	16849.7
846.2441	918.6786	17785.25	16839
846.3892	920.7051	17840.75	16895.95
846.5344	922.7309	17994.35	17052.9
846.6795	924.756	18039.8	17097.05
846.8246	926.7804	18112.15	17170.85
846.9698	928.8041	18065.1	17118
847.1149	930.8272	18131.35	17188.7
847.2601	932.8495	18058.8	17113.7
847.4052	934.8711	18047.15	17101.45
847.5504	936.892	17856.65	16911.8
847.6955	938.9123	17726.4	16779.65
847.8407	940.9318	17591.35	16643.85
847.9858	942.9506	17500.15	16554.55
848.131	944.9688	17382.95	16441.2
848.2761	946.9862	17345.45	16401.2
848.4213	949.003	17265.45	16318.7
848.5664	951.019	17292.6	16352.65
848.7115	953.0344	17334.55	16389.65
848.8567	955.0491	17342	16396.3
849.0018	957.063	17453.85	16511.35
849.147	959.0763	17588.25	16646.9
849.2921	961.0888	17638.65	16693
849.4373	963.1007	17727.7	16786.65
849.5824	965.1119	17795.75	16861.6
849.7275	967.1223	17829.2	16902.25
849.8727	969.1321	17844.85	16916.6
850.0178	971.1412	17884.9	16952.7
850.1629	973.1495	17900.75	16960.8
850.3081	975.1572	18017.9	17032.6
850.4532	977.1641	18020.75	17074.35
850.5983	979.1704	17953.5	17009.05
850.7435	981.1759	17959.65	17011.45
850.8886	983.1808	18045.2	17100.65
851.0337	985.1849	18117.4	17163.65
851.1788	987.1884	18265.4	17320.1
851.324	989.1911	18444.5	17499.25
851.4691	991.1932	18585	17642.55
851.6142	993.1945	18624.4	17683.9
851.7593	995.1951	18592.45	17647.9
851.9045	997.1951	18570.85	17623.45
852.0496	999.1943	18483.3	17539.35
852.1947	1001.1928	18412.8	17466.4
852.3398	1003.1906	18429.7	17484.6
852.4849	1005.1877	18476.95	17532
852.63	1007.1841	18444.1	17501.65
852.7751	1009.1798	18320	17377.95
852.9202	1011.1748	18186.6	17242.6
853.0653	1013.1691	17959.55	17015.7
853.2104	1015.1627	17731.1	16789.4
853.3555	1017.1556	17533.45	16594.05
853.5006	1019.1477	17446.25	16505.75
853.6457	1021.1392	17321.55	16387
853.7908	1023.1299	17337	16405.25
853.9359	1025.12	17323.25	16398.75
854.081	1027.1093	17365.9	16448
854.2261	1029.0979	17480.9	16569.55
854.3712	1031.0859	17508.45	16590.1
854.5163	1033.0731	17515.7	16588.15
854.6613	1035.0596	17465.5	16531.6
854.8064	1037.0454	17276.3	16339.2
854.9515	1039.0304	17220.45	16281.75
855.0965	1041.0148	17076.7	16135.75
855.2416	1042.9985	16990.55	16046.9
855.3867	1044.9814	16949.55	16010.3
855.5317	1046.9636	16911.75	15971.4
855.6768	1048.9452	16865.25	15923.1
855.8219	1050.926	16877	15937.15
855.9669	1052.9061	16857.8	15913.05
856.112	1054.8855	16867.65	15926.05
856.257	1056.8642	16892.45	15952.55
856.4021	1058.8421	16964.85	16020.6
856.5471	1060.8194	16988.35	16043
856.6921	1062.7959	17041.45	16100.4
856.8372	1064.7717	17082.35	16140.75
856.9822	1066.7469	17078.4	16133.65
857.1272	1068.7213	17080.5	16138.75
857.2723	1070.695	17052.75	16109.3
857.4173	1072.6679	17006.05	16066
857.5623	1074.6402	16978.4	16040.05
857.7073	1076.6117	16948.6	15999.45
857.8523	1078.5826	16952.6	16008.45
857.9973	1080.5527	16953.4	16009.9
858.1423	1082.5221	17074.7	16129.8
858.2873	1084.4908	17234.75	16295
858.4323	1086.4587	17427.3	16484.9
858.5773	1088.426	17572.45	16626.85
858.7223	1090.3925	17574.65	16628.25
858.8673	1092.3584	17537.6	16594.3
859.0123	1094.3235	17403	16464.85
859.1573	1096.2879	17330.8	16388.55
859.3022	1098.2515	17309.35	16368
859.4472	1100.2145	17379.85	16441
859.5922	1102.1767	17443.55	16501.45
859.7371	1104.1382	17575.65	16635.4
859.8821	1106.099	17794.25	16851.05
860.027	1108.0591	17937.2	16992.7
860.172	1110.0185	18116.45	17174.9
860.3169	1111.9771	18143.75	17201.5
860.4619	1113.9351	17933.55	16993.6
860.6068	1115.8923	17632.75	16692
860.7517	1117.8488	17329.6	16387.4
860.8967	1119.8045	17038.4	16098.1
861.0416	1121.7596	16969.65	16027.55
861.1865	1123.7139	16872.1	15935.9
861.3314	1125.6675	16861.25	15919.7
861.4763	1127.6204	16963	16023.3
861.6212	1129.5726	16910.95	15970.25
861.7661	1131.524	16947.45	16006.95
861.911	1133.4748	16946.15	16004.9
862.0559	1135.4248	16911.95	15968.55
862.2008	1137.3741	16898	15956.95
862.3457	1139.3226	16873.85	15933.65
862.4905	1141.2705	16860.1	15915.15
862.6354	1143.2176	16747.3	15799.5
862.7803	1145.164	16786.9	15845.05
862.9251	1147.1097	16793.25	15854.05
863.07	1149.0546	16771.95	15830.55
863.2148	1150.9989	16702	15759.2
863.3597	1152.9424	16556.2	15614
863.5045	1154.8852	16389.95	15450.45
863.6493	1156.8272	16285.6	15348.65
863.7942	1158.7686	16237.1	15290.25
863.939	1160.7092	16198.8	15256.8
864.0838	1162.6491	16156.6	15213.15
864.2286	1164.5883	16233.55	15295.55
864.3734	1166.5267	16309.35	15368.8
864.5182	1168.4644	16436.3	15496.25
864.663	1170.4014	16666.85	15725.1
864.8078	1172.3377	16887.3	15950.4
864.9526	1174.2732	17082.9	16145.8
865.0974	1176.2081	17316.2	16377.6
865.2421	1178.1421	17516.55	16573.05
865.3869	1180.0755	17728.05	16790.45
865.5317	1182.0082	17827.15	16890.5
865.6764	1183.9401	17792.9	16855.35
865.8212	1185.8713	17649.45	16717.15
865.9659	1187.8017	17423.25	16500.05
866.1106	1189.7315	17171.45	16256.1
866.2554	1191.6605	16876.3	15958.8
866.4001	1193.5888	16676.7	15753.1
866.5448	1195.5163	16606.75	15676.8
866.6895	1197.4432	16482.3	15547.1
866.8342	1199.3693	16404.2	15468.4
866.9789	1201.2947	16359.2	15416.9
867.1236	1203.2193	16316.55	15381.9
867.2683	1205.1432	16351.65	15414.4
867.413	1207.0664	16384.75	15449.75
867.5576	1208.9889	16390.2	15451.65
867.7023	1210.9106	16428.75	15494.3
867.847	1212.8316	16478.1	15544.95
867.9916	1214.7519	16554.6	15611.6
868.1363	1216.6715	16547.7	15612.7
868.2809	1218.5903	16575.95	15638.7
868.4255	1220.5084	16467.8	15531
868.5701	1222.4257	16482.45	15548.3
868.7148	1224.3424	16442.8	15511.8
868.8594	1226.2583	16504.35	15566.95
869.004	1228.1735	16539.75	15606.6
869.1486	1230.0879	16659	15722.3
869.2932	1232.0016	16771.65	15837.8
869.4377	1233.9146	16797.05	15862.05
869.5823	1235.8269	16688.4	15752.4
869.7269	1237.7384	16591.65	15656.55
869.8715	1239.6492	16369.8	15436.8
870.016	1241.5592	16268.8	15332.65
870.1606	1243.4686	16211.45	15278.05
870.3051	1245.3772	16171.75	15234.45
870.4496	1247.285	16119.25	15187.35
870.5941	1249.1922	16070.8	15135.7
870.7387	1251.0986	16067	15137.75
870.8832	1253.0042	16077.2	15144.8
871.0277	1254.9092	16086.5	15153.1
871.1722	1256.8134	16164.45	15232.6
871.3167	1258.7169	16304.1	15368.6
871.4611	1260.6196	16459.8	15524.45
871.6056	1262.5216	16662.6	15727.55
871.7501	1264.4229	16806.75	15877.7
871.8945	1266.3234	16912.6	15980.15
872.039	1268.2232	16967.2	16031.9
872.1834	1270.1223	16983.65	16047.35
872.3278	1272.0207	16997.95	16060.1
872.4723	1273.9183	16949.45	16014.45
872.6167	1275.8151	16850.15	15920.25
872.7611	1277.7113	16781.45	15848.9
872.9055	1279.6067	16647.05	15713.6
873.0499	1281.5014	16535.5	15601.2
873.1943	1283.3953	16442.95	15507.15
873.3386	1285.2885	16413.2	15480.8
873.483	1287.181	16471.55	15541.85
873.6274	1289.0727	16543.65	15614.95
873.7717	1290.9637	16591.7	15658.2
873.9161	1292.854	16726.85	15795.2
874.0604	1294.7435	16842.8	15912
874.2047	1296.6323	17025.05	16092.75
874.349	1298.5204	17281.35	16344.45
874.4933	1300.4077	17519.65	16586.9
874.6376	1302.2943	17728.25	16794.3
874.7819	1304.1802	17784.4	16853.45
874.9262	1306.0653	17657.65	16722.55
875.0705	1307.9497	17477.85	16546.9
875.2147	1309.8333	17355.55	16425.9
875.359	1311.7162	17258.1	16326.1
875.5032	1313.5984	17255.6	16322.25
875.6475	1315.4798	17319.5	16377.9
875.7917	1317.3605	17398.3	16450.5
875.9359	1319.2405	17462.6	16528.5
876.0801	1321.1197	17418.55	16481.3
876.2243	1322.9982	17309.45	16372.3
876.3685	1324.876	17255.65	16321.5
876.5127	1326.753	17167.8	16234.15
876.6569	1328.6293	17163	16230.1
876.801	1330.5048	17150.5	16213.75
876.9452	1332.3796	17066	16135.7
877.0893	1334.2537	17052.15	16094.5
877.2335	1336.127	17014.95	16082.75
877.3776	1337.9996	16936.45	16006.75
877.5217	1339.8714	16937.15	16006.5
877.6658	1341.7426	16895.75	15921.2
877.8099	1343.6129	16842.9	15907.45
877.954	1345.4826	16746.1	15809.55
878.0981	1347.3515	16710.3	15776.05
878.2422	1349.2196	16652.7	15719.45
878.3862	1351.087	16672.4	15738.4
878.5303	1352.9537	16700.15	15765.5
878.6743	1354.8197	16823.45	15890.95
878.8184	1356.6849	16963.6	16031.3
878.9624	1358.5493	17041.65	16109.35
879.1064	1360.4131	17070.4	16136.25
879.2504	1362.276	16991.4	16059.65
879.3944	1364.1383	16848	15916.25
879.5384	1365.9998	16616.2	15676.15
879.6823	1367.8606	16298.35	15363.5
879.8263	1369.7206	15985.5	15052.45
879.9702	1371.5799	15813.55	14879.2
880.1142	1373.4384	15631.9	14696.9
880.2581	1375.2962	15513.85	14582.65
880.402	1377.1533	15212.35	14281.15
880.5459	1379.0096	14881.8	13953.3
880.6898	1380.8652	14626.6	13699.3
880.8337	1382.7201	14355.1	13425.15
880.9776	1384.5742	14142.8	13211.95
881.1215	1386.4275	13958.15	13024.4
881.2653	1388.2802	13823.6	12892.6
881.4092	1390.132	13707.15	12774.2
881.553	1391.9832	13651.1	12716.9
881.6968	1393.8336	13547	12615.6
881.8406	1395.6832	13484.9	12550.8
881.9844	1397.5322	13428.85	12495.15
882.1282	1399.3803	13415.95	12483.9
882.272	1401.2278	13338.45	12406.9
882.4158	1403.0745	13312.45	12382.65
882.5595	1404.9204	13283.65	12355.2
882.7033	1406.7656	13313.7	12385.8
882.847	1408.6101	13290.25	12360.25
882.9908	1410.4538	13290.35	12358.85
883.1345	1412.2968	13296.3	12368.6
883.2782	1414.139	13324.3	12394.75
883.4219	1415.9805	13408.7	12481
883.5656	1417.8213	13460.6	12526.55
883.7092	1419.6613	13562.05	12633.55
883.8529	1421.5006	13728.5	12802.1
883.9965	1423.3391	13969.2	13041.25
884.1402	1425.1769	14303.1	13371.7
884.2838	1427.0139	14752.7	13818.85
884.4274	1428.8502	15333.6	14401.3
884.571	1430.6858	15892.9	14965.45
884.7146	1432.5206	16288.15	15357.9
884.8582	1434.3547	16527.5	15596.75
885.0018	1436.188	16568.05	15637.25
885.1453	1438.0206	16484.65	15554.75
885.2889	1439.8524	16323.95	15393.65
885.4324	1441.6835	16246.95	15319.2
885.5759	1443.5139	16147.5	15214.45
885.7194	1445.3435	16047	15123.6
885.8629	1447.1724	15979.75	15053.3
886.0064	1449.0005	15916.55	14990.05
886.1499	1450.8279	15804.7	14878.1
886.2933	1452.6545	15791.7	14864.35
886.4368	1454.4804	15791.2	14867.85
886.5802	1456.3056	15760.15	14829.5
886.7237	1458.13	15675.8	14750.65
886.8671	1459.9536	15441.1	14512.75
887.0105	1461.7766	15088.85	14161.6
887.1539	1463.5987	14703.8	13777.6
887.2972	1465.4202	14319.15	13392.1
887.4406	1467.2409	13927.65	13000.9
887.584	1469.0608	13642.1	12716.8
887.7273	1470.88	13385.5	12457.25
887.8706	1472.6984	13143.65	12214.85
888.0139	1474.5161	12950.85	12020.6
888.1572	1476.3331	12752.4	11829.25
888.3005	1478.1493	12634.65	11707.35
888.4438	1479.9648	12505.2	11577.3
888.5871	1481.7795	12399.9	11472.7
888.7303	1483.5935	12335.6	11407.85
888.8736	1485.4067	12256.3	11329.75
889.0168	1487.2192	12205.75	11279
889.16	1489.031	12118.55	11189.95
889.3032	1490.842	12096.25	11168.15
889.4464	1492.6522	12053.85	11127.4
889.5896	1494.4618	12020.75	11094.4
889.7327	1496.2705	12030.6	11104.65
889.8759	1498.0785	11956.15	11029.6
890.019	1499.8858	11905.6	10980.85
890.1622	1501.6924	11878.6	10951.3
890.3053	1503.4981	11851	10925.5
890.4484	1505.3032	11807.65	10883.4
890.5914	1507.1075	11776.65	10849.6
890.7345	1508.911	11761.1	10835.85
890.8776	1510.7138	11696.2	10769.95
891.0206	1512.5159	11648.15	10724.5
891.1637	1514.3172	11588.7	10662.7
891.3067	1516.1178	11521.45	10598.85
891.4497	1517.9176	11488.9	10563.75
891.5927	1519.7166	11450.75	10525.15
891.7357	1521.515	11375.15	10443.35
891.8786	1523.3126	11357.5	10433.75
892.0216	1525.1094	11326.25	10401.55
892.1645	1526.9055	11246.65	10325.1
892.3074	1528.7008	11248.5	10326.2
892.4503	1530.4954	11200.3	10276
892.5932	1532.2893	11170.85	10252.8
892.7361	1534.0824	11112.8	10187.45
892.879	1535.8747	11110.3	10190.7
893.0218	1537.6663	11087.55	10167.25
893.1647	1539.4572	11030.45	10109.25
893.3075	1541.2473	11036.5	10117.35
893.4503	1543.0367	11010.1	10090.9
893.5931	1544.8253	10971.85	10048.05
893.7359	1546.6132	10996.25	10072.45
893.8787	1548.4003	10996.35	10065.3
894.0214	1550.1867	11007.55	10080.1
894.1642	1551.9723	11013.05	10091.2
894.3069	1553.7572	11013.6	10095.25
894.4496	1555.5414	11034.3	10117.65
894.5923	1557.3247	11079.05	10163.75
894.735	1559.1074	11107.05	10190.8
894.8777	1560.8893	11161.65	10247.3
895.0204	1562.6705	11220.9	10304.5
895.163	1564.4509	11278.45	10366
895.3056	1566.2305	11312	10405.2
895.4482	1568.0094	11408.75	10502.5
895.5908	1569.7876	11440.3	10529.8
895.7334	1571.565	11455.05	10538.4
895.876	1573.3417	11497.75	10586.5
896.0186	1575.1176	11485.1	10573.6
896.1611	1576.8928	11387.5	10480.35
896.3036	1578.6672	11288.75	10382.35
896.4461	1580.4409	11192.2	10290.45
896.5886	1582.2138	11069.1	10161.65
896.7311	1583.986	10945.35	10037.9
896.8736	1585.7575	10888.9	9980.3
897.0161	1587.5282	10808.75	9904
897.1585	1589.2981	10739.35	9836.45
897.3009	1591.0673	10682.4	9780.2
897.4433	1592.8358	10717.3	9813.95
897.5857	1594.6035	10695.3	9785.55
897.7281	1596.3704	10706.75	9796.25
897.8705	1598.1366	10697.1	9791.15
898.0128	1599.9021	10769.7	9864.95
898.1551	1601.6668	10763.3	9856.85
898.2975	1603.4308	10832.2	9922.35
898.4398	1605.194	10916.15	10007.15
898.5821	1606.9564	11002.95	10103.95
898.7243	1608.7182	11109.25	10209.4
898.8666	1610.4791	11261.7	10370.4
899.0088	1612.2394	11364.65	10475.8
899.1511	1613.9988	11575.9	10685
899.2933	1615.7576	11782.55	10883.85
899.4355	1617.5156	12005.75	11095.2
899.5776	1619.2728	12172.5	11264.25
899.7198	1621.0293	12328.8	11423.2
899.862	1622.785	12354	11447.85
900.0041	1624.54	12251.25	11348.65
900.1462	1626.2942	12070.25	11171.85
900.2883	1628.0477	11835.15	10933
900.4304	1629.8005	11619.6	10719.55
900.5725	1631.5525	11380.25	10483.35
900.7145	1633.3037	11186.25	10286
900.8566	1635.0542	11045.65	10144.85
900.9986	1636.804	10920.8	10020.65
901.1406	1638.553	10897.8	9907.45
901.2826	1640.3013	10791.55	9893.5
901.4245	1642.0488	10752.9	9853.65
901.5665	1643.7955	10782.2	9887.15
901.7085	1645.5416	10809.1	9914.55
901.8504	1647.2868	10870.45	9970.7
901.9923	1649.0313	10923.9	10022.85
902.1342	1650.7751	11087.15	10185.65
902.2761	1652.5181	11221.05	10325.55
902.4179	1654.2604	11411.25	10514.65
902.5598	1656.0019	11666.55	10773.1
902.7016	1657.7427	11992.05	11094.55
902.8434	1659.4828	12291.1	11392.7
902.9852	1661.222	12456.6	11555.9
903.127	1662.9606	12467.95	11570
903.2687	1664.6984	12263.3	11363.95
903.4105	1666.4354	11909.1	11004.6
903.5522	1668.1717	11425.2	10520.65
903.6939	1669.9072	10923.05	10016.85
903.8356	1671.642	10487.15	9580.1
903.9773	1673.3761	10166.15	9265.55
904.119	1675.1094	9872.65	8976
904.2606	1676.8419	9626.95	8727
904.4022	1678.5737	9460.1	8560.5
904.5439	1680.3048	9325.3	8424.55
904.6855	1682.0351	9197.4	8296.7
904.827	1683.7646	9088.55	8185.05
904.9686	1685.4934	9041.3	8141.6
905.1101	1687.2215	8952.45	8053.35
905.2517	1688.9488	8897.25	7998.2
905.3932	1690.6754	8826.65	7927.6
905.5347	1692.4012	8799.1	7902.55
905.6761	1694.1263	8739.65	7841.5
905.8176	1695.8506	8690.9	7791.5
905.9591	1697.5742	8655.55	7758.8
906.1005	1699.297	8607.15	7712.25
906.2419	1701.0191	8576.2	7682.3
906.3833	1702.7404	8554.5	7659.95
906.5246	1704.461	8484.6	7589.75
906.666	1706.1808	8448.75	7554.15
906.8073	1707.8999	8438.65	7544.25
906.9487	1709.6182	8388.9	7498.05
907.09	1711.3358	8325.25	7436.75
907.2313	1713.0527	8288.5	7399.8
907.3725	1714.7688	8265.3	7367.65
907.5138	1716.4841	8227	7330.35
907.655	1718.1987	8226.15	7329.2
907.7962	1719.9126	8216.55	7326.65
907.9374	1721.6257	8146.25	7254.5
908.0786	1723.338	8153.5	7263.95
908.2198	1725.0496	8088.25	7196.4
908.3609	1726.7605	8073.75	7179.25
908.502	1728.4706	8051.95	7159.05
908.6431	1730.18	8019.55	7127.1
908.7842	1731.8886	7989.4	7099.35
908.9253	1733.5964	7988.8	7077.95
909.0664	1735.3036	7949.5	7056.95
909.2074	1737.0099	7929.85	7037.95
909.3484	1738.7156	7873.5	6984.8
909.4894	1740.4204	7841.75	6948.25
909.6304	1742.1246	7826.1	6932.8
909.7714	1743.8279	7812.5	6920.1
909.9123	1745.5306	7789.9	6899.3
910.0532	1747.2325	7779.35	6890.9
910.1941	1748.9336	7757.45	6869.35
910.335	1750.634	7704.75	6811.85
910.4759	1752.3336	7703.4	6812.7
910.6168	1754.0325	7678.95	6791.9
910.7576	1755.7307	7647.55	6758.45
910.8984	1757.4281	7660.35	6769.35
911.0392	1759.1247	7630.9	6729.7
911.18	1760.8206	7619.5	6720.7
911.3208	1762.5158	7597.6	6700.4
911.4615	1764.2102	7552.95	6661.1
911.6022	1765.9039	7528.55	6638
911.7429	1767.5968	7506.75	6619.05
911.8836	1769.289	7483.05	6594.1
912.0243	1770.9804	7448.8	6558.95
912.1649	1772.6711	7464.9	6570.75
912.3056	1774.361	7420.15	6525.65
912.4462	1776.0502	7415.5	6524.2
912.5868	1777.7386	7397.7	6502.85
912.7274	1779.4263	7387.7	6496.6
912.8679	1781.1132	7379.9	6493.55
913.0084	1782.7994	7353.9	6468.1
913.149	1784.4849	7347	6461.3
913.2895	1786.1696	7320.05	6426.8
913.4299	1787.8535	7301.4	6413.8
913.5704	1789.5367	7276.9	6390.3
913.7108	1791.2192	7281.95	6394.4
913.8513	1792.9009	7256.2	6342.2
913.9917	1794.5818	7241.6	6349.7
914.132	1796.2621	7220.3	6329.55
914.2724	1797.9415	7221.45	6330
914.4128	1799.6202	7181	6290.95
914.5531	1801.2982	7176.95	6286.55
914.6934	1802.9755	7133.45	6239.35
914.8337	1804.6519	7117.3	6226.65
914.9739	1806.3277	7096.7	6207.5
915.1142	1808.0027	7080.65	6194.1
915.2544	1809.6769	7066.95	6181.65
915.3946	1811.3504	7054.6	6170.75
915.5348	1813.0231	7044.1	6162
915.675	1814.6951	7031.35	6145
915.8151	1816.3664	7039.1	6149.1
915.9553	1818.0369	6997.55	6107.7
916.0954	1819.7067	6993.5	6103.55
916.2355	1821.3757	6958.75	6065.95
916.3755	1823.044	6945.65	6054.75
916.5156	1824.7115	6939.4	6049.2
916.6556	1826.3783	6913.8	6025.75
916.7956	1828.0443	6892.95	6003.35
916.9356	1829.7096	6884.9	5995.1
917.0756	1831.3741	6878.35	5988.7
917.2155	1833.0379	6860.25	5972.3
917.3555	1834.701	6852.55	5967.05
917.4954	1836.3633	6801.95	5917.65
917.6353	1838.0248	6799.2	5911.75
917.7751	1839.6856	6772.8	5885.55
917.915	1841.3457	6769.1	5880.25
918.0548	1843.005	6785.35	5895.15
918.1946	1844.6636	6755.7	5866.45
918.3344	1846.3214	6735.6	5846.25
918.4742	1847.9785	6737.6	5851.25
918.6139	1849.6349	6706.4	5814.4
918.7537	1851.2904	6732.1	5833.4
918.8934	1852.9453	6692.25	5802.45
919.0331	1854.5994	6653.55	5761.95
919.1727	1856.2528	6683.2	5786.3
919.3124	1857.9054	6649.05	5758.4
919.452	1859.5572	6635.1	5747.1
919.5916	1861.2083	6626	5737.9
919.7312	1862.8587	6626.6	5737.65
919.8708	1864.5084	6610.2	5716.7
920.0103	1866.1572	6583.35	5691
920.1498	1867.8054	6548.35	5656.6
920.2893	1869.4528	6535.75	5644.35
920.4288	1871.0994	6545.4	5652.35
920.5683	1872.7453	6515.5	5623.2
920.7077	1874.3905	6521.3	5615.45
920.8471	1876.0349	6468.55	5577.6
920.9865	1877.6786	6472.75	5583.3
921.1259	1879.3215	6465.8	5576
921.2653	1880.9637	6449.2	5558.15
921.4046	1882.6051	6421.25	5532.75
921.5439	1884.2458	6442.85	5552.1
921.6832	1885.8858	6390.7	5502.5
921.8225	1887.525	6381.65	5491.85
921.9617	1889.1634	6353.9	5463.7
922.101	1890.8011	6320.4	5428.6
922.2402	1892.4381	6325.6	5435.2
922.3794	1894.0743	6324.4	5434.8
922.5185	1895.7098	6316.9	5426.8
922.6577	1897.3446	6288.4	5397.4
922.7968	1898.9786	6286.7	5391.95
922.9359	1900.6118	6272.75	5383.2
923.075	1902.2443	6231.15	5341.8
923.214	1903.8761	6213.7	5324.3
923.3531	1905.5071	6173.95	5282.05
923.4921	1907.1374	6180.7	5290.35
923.6311	1908.7669	6170.9	5283.45
923.77	1910.3957	6172.45	5283.75
923.909	1912.0237	6117.4	5229.85
924.0479	1913.651	6114.75	5225.15
924.1868	1915.2776	6094.65	5206.45
924.3257	1916.9034	6076.65	5189.1
924.4646	1918.5285	6052.25	5166.55
924.6034	1920.1528	6009	5121.95
924.7422	1921.7764	6018.05	5130.2
924.881	1923.3992	5981.55	5092.15
925.0198	1925.0213	5967.1	5080.55
925.1586	1926.6427	5931.6	5039.65
925.2973	1928.2633	6009.35	5022.15
925.436	1929.8832	5931.55	5042.6
925.5747	1931.5023	5899.25	5012.65
925.7134	1933.1207	5879.3	4991.1
925.852	1934.7383	5884.65	4995.35
925.9906	1936.3552	5833.75	4947.85
926.1292	1937.9714	5836.4	4950.5
926.2678	1939.5868	5821.4	4931.45
926.4064	1941.2015	5782.1	4894.35
926.5449	1942.8154	5758.3	4866.4
926.6834	1944.4286	5732.7	4844.65
926.8219	1946.041	5743.9	4832.55
926.9604	1947.6528	5706	4812.05
927.0988	1949.2637	5685.15	4798.25
927.2372	1950.8739	5662.8	4776.3
927.3756	1952.4834	5645.5	4759.65
927.514	1954.0921	5653.9	4767.1
927.6523	1955.7001	5632.6	4739.25
927.7907	1957.3074	5599.15	4714.05
927.929	1958.9139	5578.95	4696.3
928.0673	1960.5197	5565.9	4681.3
928.2055	1962.1247	5528.75	4645.5
928.3438	1963.729	5509.25	4625.1
928.482	1965.3325	5488.5	4599.15
928.6202	1966.9353	5487.2	4606.15
928.7584	1968.5374	5458.5	4572.45
928.8965	1970.1387	5453.55	4570.9
929.0346	1971.7393	5435.6	4553.35
929.1727	1973.3392	5430.1	4546.05
929.3108	1974.9383	5406.95	4523.7
929.4489	1976.5366	5391.1	4509.35
929.5869	1978.1342	5377	4496.15
929.7249	1979.7311	5370.25	4486.9
929.8629	1981.3273	5359.35	4476.85
930.0009	1982.9227	5338.75	4458.05
930.1388	1984.5173	5307.25	4425.2
930.2767	1986.1112	5285.25	4403.65
930.4146	1987.7044	5286.55	4405.7
930.5525	1989.2968	5267.4	4382.9
930.6904	1990.8885	5255.3	4371.75
930.8282	1992.4795	5276.85	4397.2
930.966	1994.0697	5220.75	4341.4
931.1038	1995.6592	5213.9	4335.2
931.2415	1997.2479	5204.6	4323.35
931.3793	1998.8359	5183.3	4304.2
931.517	2000.4232	5165.2	4289.1
931.6547	2002.0097	5144.1	4268.6
931.7923	2003.5955	5136.1	4260.1
931.93	2005.1805	5130.65	4248.95
932.0676	2006.7648	5117.25	4240.7
932.2052	2008.3484	5088.95	4210.75
932.3427	2009.9312	5096.75	4218.15
932.4803	2011.5133	5084.45	4209.5
932.6178	2013.0946	5067.2	4189.95
932.7553	2014.6752	5050.8	4174.95
932.8928	2016.2551	5035.65	4159.25
933.0302	2017.8342	5029.95	4150.6
933.1676	2019.4126	4993.9	4117.4
933.305	2020.9902	4979.2	4103.85
933.4424	2022.5672	4980	4104.6
933.5798	2024.1433	4958.2	4073.65
933.7171	2025.7188	4959.6	4086.8
933.8544	2027.2935	4947.5	4070.95
933.9917	2028.8674	4919.8	4046.65
934.129	2030.4406	4914.45	4041.05
934.2662	2032.0131	4898.95	4024.9
934.4034	2033.5849	4888.35	4010.25
934.5406	2035.1559	4871.25	3997.5
934.6778	2036.7261	4859	3983.2
934.8149	2038.2957	4848.6	3968.3
934.952	2039.8645	4863.35	3983.65
935.0891	2041.4325	4859.3	3977.5
935.2262	2042.9998	4813.5	3936.2
935.3632	2044.5664	4816.25	3937.75
935.5002	2046.1323	4806.5	3932.05
935.6372	2047.6974	4780.9	3904.6
935.7742	2049.2617	4756.65	3880.55
935.9111	2050.8254	4761.55	3880.35
936.048	2052.3883	4762.5	3881.15
936.1849	2053.9504	4760.2	3879.95
936.3218	2055.5118	4733.45	3852.45
936.4586	2057.0725	4717.55	3829.35
936.5955	2058.6325	4697.6	3816.4
936.7323	2060.1917	4676.4	3795.8
936.869	2061.7502	4685.4	3797.75
937.0058	2063.3079	4666.1	3784.35
937.1425	2064.8649	4651.55	3763.7
937.2792	2066.4212	4640.65	3756.55
937.4159	2067.9767	4640.55	3755.95
937.5525	2069.5315	4614	3730.85
937.6891	2071.0856	4597.9	3716.2
937.8257	2072.6389	4591.05	3710.35
937.9623	2074.1915	4565.4	3690.4
938.0989	2075.7433	4540.3	3661.5
938.2354	2077.2945	4548.95	3669.65
938.3719	2078.8448	4541.1	3659.8
938.5084	2080.3945	4527	3646.9
938.6448	2081.9434	4507.45	3628.85
938.7812	2083.4916	4517.05	3631.95
938.9176	2085.039	4496.05	3608.4
939.054	2086.5857	4488.55	3600.35
939.1903	2088.1317	4474.3	3585.5
939.3267	2089.677	4456.1	3565.95
939.463	2091.2215	4448.95	3560.15
939.5992	2092.7652	4430.15	3537
939.7355	2094.3083	4414	3525.75
939.8717	2095.8506	4418.55	3532.25
940.0079	2097.3921	4420.2	3534.2
940.1441	2098.933	4400.95	3518.55
940.2802	2100.4731	4406.65	3522.2
940.4163	2102.0124	4401.25	3503.35
940.5524	2103.5511	4399.85	3515.35
940.6885	2105.089	4373.05	3492.15
940.8245	2106.6261	4364.35	3482.3
940.9606	2108.1626	4343.85	3459.35
941.0965	2109.6983	4367.4	3456.6
941.2325	2111.2332	4329.75	3446.55
941.3684	2112.7675	4315.85	3433.1
941.5044	2114.301	4312.35	3426.25
941.6403	2115.8337	4317.2	3433.65
941.7761	2117.3657	4293.3	3410
941.912	2118.897	4292.5	3409.95
942.0478	2120.4276	4277.35	3388.4
942.1835	2121.9575	4265	3382.15
942.3193	2123.4866	4264.4	3367.1
942.455	2125.0149	4254.95	3369
942.5907	2126.5426	4230.9	3352.35
942.7264	2128.0695	4214.25	3332.35
942.8621	2129.5956	4199.25	3325.8
942.9977	2131.1211	4199.05	3317.35
943.1333	2132.6458	4188.05	3308.35
943.2689	2134.1698	4192	3309.25
943.4044	2135.693	4154.65	3267.7
943.54	2137.2155	4152.25	3266.2
943.6755	2138.7373	4151.55	3268.85
943.8109	2140.2584	4144.8	3266
943.9464	2141.7787	4145.55	3263.8
944.0818	2143.2983	4127.05	3250.7
944.2172	2144.8171	4102.75	3227.95
944.3526	2146.3353	4099.8	3221.95
944.4879	2147.8527	4081.35	3201.9
944.6232	2149.3693	4092.65	3210.75
944.7585	2150.8853	4064.9	3182.95
944.8938	2152.4005	4063.15	3178
945.029	2153.9149	4045.65	3164
945.1642	2155.4287	4034.55	3150.15
945.2994	2156.9417	4037.1	3153.15
945.4346	2158.454	4022.1	3139.75
945.5697	2159.9655	4009.4	3130.5
945.7048	2161.4764	4020.7	3144.2
945.8399	2162.9865	3996.75	3118.1
945.9749	2164.4958	3982.95	3104.45
946.1099	2166.0045	3967.5	3085.7
946.2449	2167.5124	3964.75	3084.25
946.3799	2169.0195	3951.8	3069.5
946.5148	2170.526	3959.9	3078.05
946.6498	2172.0317	3949.05	3065.4
946.7846	2173.5367	3939.65	3057.55
946.9195	2175.0409	3929.95	3048.55
947.0543	2176.5445	3925.4	3044.35
947.1891	2178.0473	3924.9	3039.9
947.3239	2179.5494	3902.6	3015.55
947.4587	2181.0507	3900.6	3018.1
947.5934	2182.5513	3887.15	3004.05
947.7281	2184.0512	3867.7	2984.25
947.8628	2185.5504	3848.45	2966.95
947.9974	2187.0488	3846.35	2967.2
948.132	2188.5465	3818.5	2940.95
948.2666	2190.0435	3826.75	2944.5
948.4012	2191.5397	3801.8	2920.7
948.5357	2193.0353	3805.5	2923.8
948.6702	2194.5301	3790.05	2904.9
948.8047	2196.0241	3791.85	2904.75
948.9392	2197.5175	3778.75	2892.15
949.0736	2199.0101	3772.65	2882.05
949.208	2200.502	3737.1	2855.05
949.3424	2201.9931	3743.55	2862.8
949.4767	2203.4835	3725.7	2844.7
949.611	2204.9733	3715.35	2829.9
949.7453	2206.4622	3715.4	2837.6
949.8796	2207.9505	3709.7	2829.15
950.0138	2209.438	3677.35	2800.95
950.148	2210.9248	3675.25	2796.15
950.2822	2212.4109	3657.85	2773.9
950.4164	2213.8962	3655.25	2769.5
950.5505	2215.3809	3657.05	2770.7
950.6846	2216.8648	3649.3	2761.35
950.8186	2218.3479	3647.35	2755.05
950.9527	2219.8304	3639.15	2748.35
951.0867	2221.3121	3635.4	2743.65
951.2207	2222.7931	3606.3	2723.15
951.3546	2224.2733	3601.4	2715.25
951.4886	2225.7529	3593.65	2710.1
951.6225	2227.2317	3580.65	2698.15
951.7563	2228.7098	3569.55	2690.6
951.8902	2230.1872	3542.8	2662.85
952.024	2231.6638	3543.85	2666.85
952.1578	2233.1397	3535.15	2651.45
952.2916	2234.6149	3528.35	2652.1
952.4253	2236.0894	3494.25	2613.3
952.559	2237.5632	3519.1	2628
952.6927	2239.0362	3487.4	2608.55
952.8263	2240.5085	3488.6	2606.8
952.9599	2241.9801	3479.8	2595.85
953.0935	2243.4509	3477.55	2594.35
953.2271	2244.921	3473.85	2587.7
953.3606	2246.3904	3463.75	2575.9
953.4941	2247.8591	3457.7	2574.8
953.6276	2249.3271	3440.45	2557.8
953.7611	2250.7943	3425.25	2541.95
953.8945	2252.2608	3431.05	2547.7
954.0279	2253.7266	3417.25	2532.5
954.1612	2255.1917	3412.3	2529.5
954.2946	2256.656	3389.1	2506.05
954.4279	2258.1197	3382.55	2501.05
954.5612	2259.5826	3376.15	2490.8
954.6944	2261.0447	3362.45	2477.75
954.8276	2262.5062	3368.7	2484.45
954.9608	2263.9669	3369.8	2484.55
955.094	2265.4269	3357.25	2472.65
955.2271	2266.8862	3348.4	2466.4
955.3602	2268.3448	3336.45	2454.5
955.4933	2269.8026	3328.2	2447.85
955.6264	2271.2598	3331.65	2448.25
955.7594	2272.7162	3319.25	2438.15
955.8924	2274.1719	3315.55	2432.35
956.0253	2275.6268	3309.3	2424
956.1583	2277.0811	3304.1	2417.5
956.2912	2278.5346	3295.5	2413.75
956.4241	2279.9874	3283.35	2402.95
956.5569	2281.4395	3285.75	2404.8
956.6897	2282.8908	3267.35	2379.9
956.8225	2284.3414	3269.95	2386.25
956.9553	2285.7914	3266.85	2385.3
957.088	2287.2406	3258.6	2374.85
957.2207	2288.689	3240.55	2353.3
957.3534	2290.1368	3237.95	2349
957.486	2291.5838	3243.7	2353.85
957.6186	2293.0302	3237.2	2348.45
957.7512	2294.4758	3218.65	2330.95
957.8838	2295.9206	3212.5	2327.2
958.0163	2297.3648	3199.35	2316.55
958.1488	2298.8082	3200.5	2318.95
958.2813	2300.251	3186.85	2304.2
958.4137	2301.693	3186.3	2296.7
958.5461	2303.1343	3169.9	2285.65
958.6785	2304.5748	3161.15	2280
958.8108	2306.0147	3154.95	2270.4
958.9432	2307.4538	3146.55	2262.35
959.0754	2308.8922	3137.75	2258.3
959.2077	2310.3299	3137.85	2256.6
959.3399	2311.7669	3135.7	2257.3
959.4721	2313.2031	3122.7	2242.25
959.6043	2314.6387	3119.15	2235.15
959.7365	2316.0735	3095.45	2210.65
959.8686	2317.5076	3097.9	2215.6
960.0006	2318.941	3091.8	2205.1
960.1327	2320.3737	3102.9	2216.05
960.2647	2321.8056	3086.15	2197.9
960.3967	2323.2369	3074.6	2191.2
960.5287	2324.6674	3066.2	2180.1
960.6606	2326.0972	3053.8	2167.05
960.7925	2327.5263	3051.2	2167.75
960.9244	2328.9547	3031.95	2146.85
961.0562	2330.3823	3042.8	2155.2
961.1881	2331.8092	3039.7	2151.55
961.3198	2333.2355	3026.75	2138.2
961.4516	2334.661	3026.1	2140.6
961.5833	2336.0858	3009.95	2124.05
961.715	2337.5098	3007.55	2123.15
961.8467	2338.9332	3007.8	2122.25
961.9783	2340.3558	2990.25	2104.4
962.1099	2341.7778	2981.6	2098.6
962.2415	2343.199	2975.75	2091.15
962.373	2344.6195	2973.2	2089.75
962.5045	2346.0393	2970.45	2090.15
962.636	2347.4583	2979.4	2095.35
962.7675	2348.8767	2966.6	2080.95
962.8989	2350.2943	2957.85	2072.5
963.0303	2351.7113	2949.8	2062.5
963.1617	2353.1275	2950.05	2061.4
963.293	2354.543	2972.8	2062.05
963.4243	2355.9578	2942.55	2060.85
963.5556	2357.3718	2918.1	2035.35
963.6868	2358.7852	2912.7	2029.55
963.818	2360.1978	2917.95	2037.8
963.9492	2361.6098	2898.95	2018.9
964.0803	2363.021	2904.6	2018.3
964.2114	2364.4315	2899.8	2017.65
964.3425	2365.8413	2880.35	1996.85
964.4736	2367.2504	2882.65	2002.6
964.6046	2368.6587	2859.15	1978.65
964.7356	2370.0664	2855.55	1975.65
964.8666	2371.4733	2845.2	1962.95
964.9975	2372.8795	2837.8	1955.85
965.1284	2374.285	2841.25	1959.95
965.2593	2375.6899	2811.45	1932.6
965.3901	2377.0939	2807.75	1923.95
965.5209	2378.4973	2798.5	1920.05
965.6517	2379.9	2811	1931.4
965.7825	2381.3019	2790.85	1909.9
965.9132	2382.7032	2787.25	1909.45
966.0439	2384.1037	2782.5	1904.1
966.1745	2385.5035	2777.05	1901.25
966.3051	2386.9027	2755.95	1879.1
966.4357	2388.3011	2769	1887.55
966.5663	2389.6987	2757.3	1879.45
966.6968	2391.0957	2754.4	1875.1
966.8273	2392.492	2746.85	1870.05
966.9578	2393.8876	2730.1	1854.15
967.0882	2395.2824	2713.8	1835.3
967.2186	2396.6765	2716.65	1836.15
967.349	2398.07	2695.5	1816.4
967.4793	2399.4627	2705.6	1824.85
967.6097	2400.8547	2720.3	1839.4
967.7399	2402.246	2711.15	1823.75
967.8702	2403.6366	2676.9	1796.75
968.0004	2405.0265	2675.7	1798.35
968.1306	2406.4156	2671.4	1788
968.2607	2407.8041	2665.1	1783.9
968.3909	2409.1918	2661	1779.8
968.521	2410.5789	2643	1762.95
968.651	2411.9652	2652.1	1768.4
968.781	2413.3508	2652.3	1772.7
968.911	2414.7358	2625.5	1742.4
969.041	2416.12	2618.45	1739.45
969.1709	2417.5035	2623	1743.55
969.3008	2418.8863	2602.85	1722.15
969.4307	2420.2684	2606.35	1726.35
969.5606	2421.6497	2595.9	1716.65
969.6904	2423.0304	2586.65	1707.7
969.8201	2424.4104	2582.85	1702.15
969.9499	2425.7896	2578.7	1698.8
970.0796	2427.1682	2584.8	1704.75
970.2093	2428.546	2571.95	1691.9
970.3389	2429.9232	2557.15	1673.2
970.4685	2431.2996	2559.6	1680.95
970.5981	2432.6753	2560.4	1680.5
970.7277	2434.0503	2554.25	1673.25
970.8572	2435.4246	2550.95	1671.95
970.9867	2436.7982	2538.35	1654.95
971.1161	2438.1711	2531.6	1652.95
971.2456	2439.5433	2532.6	1651.1
971.375	2440.9148	2524.85	1638.85
971.5043	2442.2856	2512.9	1634.1
971.6336	2443.6557	2514.3	1632.55
971.7629	2445.025	2504.85	1623.3
971.8922	2446.3937	2504.55	1623.25
972.0214	2447.7617	2498.2	1614.3
972.1506	2449.1289	2495.3	1614.05
972.2798	2450.4955	2496.4	1612.1
972.4089	2451.8613	2484.65	1605.75
972.538	2453.2265	2479.65	1598.35
972.6671	2454.5909	2482.15	1597.75
972.7961	2455.9546	2460.15	1581.5
972.9251	2457.3177	2460.25	1582.15
973.0541	2458.68	2462.35	1581.55
973.1831	2460.0416	2462	1582.9
973.312	2461.4025	2456.7	1575.6
973.4408	2462.7627	2459.05	1569.3
973.5697	2464.1222	2448.45	1572.1
973.6985	2465.4811	2427.1	1547.25
973.8273	2466.8392	2433.15	1556.3
973.956	2468.1966	2434.4	1550.15
974.0847	2469.5533	2440.55	1559.05
974.2134	2470.9093	2430.6	1549.35
974.3421	2472.2645	2424.35	1543.95
974.4707	2473.6191	2420.95	1541.1
974.5993	2474.973	2410.9	1530.05
974.7278	2476.3262	2407.5	1525.45
974.8563	2477.6787	2397.15	1517.8
974.9848	2479.0305	2390.5	1509.45
975.1132	2480.3816	2382.6	1499.65
975.2417	2481.7319	2388.8	1509.55
975.37	2483.0816	2377.55	1496.85
975.4984	2484.4306	2374.15	1493.15
975.6267	2485.7789	2371.7	1492.65
975.755	2487.1264	2348.55	1467.15
975.8833	2488.4733	2342.4	1463.55
976.0115	2489.8195	2357.05	1468.95
976.1397	2491.165	2346.2	1464.6
976.2678	2492.5097	2330.75	1451.5
976.3959	2493.8538	2324.7	1446.45
976.524	2495.1972	2314.6	1433.7
976.6521	2496.5398	2323.05	1441.5
976.7801	2497.8818	2314.35	1430.95
976.9081	2499.2231	2308.7	1426.5
977.036	2500.5637	2298.25	1415.2
977.164	2501.9035	2293.95	1407.3
977.2918	2503.2427	2308.25	1425.15
977.4197	2504.5812	2285.6	1404.6
977.5475	2505.919	2275.75	1391.55
977.6753	2507.256	2280.55	1403.5
977.8031	2508.5924	2262.4	1382.2
977.9308	2509.9281	2281.15	1393.5
978.0585	2511.2631	2264.75	1386.6
978.1861	2512.5974	2265.4	1384.3
978.3137	2513.9309	2258.65	1379.15
978.4413	2515.2638	2276.65	1366.45
978.5689	2516.596	2253.25	1372.6
978.6964	2517.9275	2250.6	1368.05
978.8239	2519.2583	2240.1	1358.25
978.9513	2520.5884	2231.55	1351.75
979.0788	2521.9178	2230.85	1351.4
979.2062	2523.2465	2229.1	1348.8
979.3335	2524.5745	2219.7	1340.9
979.4608	2525.9018	2225.05	1342.35
979.5881	2527.2284	2204.85	1325.2
979.7154	2528.5543	2215.55	1335.15
979.8426	2529.8796	2207.75	1326
979.9698	2531.2041	2202.9	1323.4
980.0969	2532.5279	2198.5	1317.75
980.224	2533.851	2198.25	1318.95
980.3511	2535.1735	2190.25	1311.3
980.4781	2536.4952	2192.1	1308.9
980.6052	2537.8163	2175	1292.65
980.7321	2539.1366	2181.05	1298.8
980.8591	2540.4562	2189.25	1308.5
980.986	2541.7752	2184.6	1302.6
981.1129	2543.0935	2169.1	1287.15
981.2397	2544.411	2173.85	1290.75
981.3665	2545.7279	2163.05	1281.95
981.4933	2547.0441	2163.05	1282.1
981.62	2548.3596	2168.3	1283.3
981.7467	2549.6744	2164.6	1280.75
981.8734	2550.9885	2167.05	1278.25
982.0001	2552.3019	2139.2	1255.15
982.1267	2553.6146	2144.8	1260.8
982.2532	2554.9266	2144.7	1265.35
982.3798	2556.2379	2131.05	1248.8
982.5063	2557.5485	2134.3	1254.7
982.6327	2558.8585	2131.8	1241.15
982.7592	2560.1677	2133.2	1248.6
982.8856	2561.4762	2119.7	1239.45
983.0119	2562.7841	2119	1233.3
983.1383	2564.0913	2124	1243.75
983.2646	2565.3977	2127.4	1246.35
983.3908	2566.7035	2119.9	1237.55
983.517	2568.0086	2119.45	1235.1
983.6432	2569.313	2111.55	1230.05
983.7694	2570.6167	2110.4	1225.5
983.8955	2571.9197	2100.7	1218.4
984.0216	2573.222	2104.5	1220.1
984.1476	2574.5236	2108.55	1226.05
984.2737	2575.8246	2104.05	1218.85
984.3996	2577.1248	2099.95	1217.7
984.5256	2578.4244	2096	1216.65
984.6515	2579.7232	2090.05	1206.75
984.7774	2581.0214	2112.5	1198.7
984.9032	2582.3189	2084.2	1201.9
985.029	2583.6157	2085.4	1201
985.1548	2584.9118	2079.1	1196.65
985.2806	2586.2072	2082.75	1202.5
985.4063	2587.5019	2081.3	1201.85
985.5319	2588.7959	2088.15	1205.05
985.6576	2590.0893	2079.2	1196.7
985.7832	2591.3819	2088.8	1208.5
985.9087	2592.6739	2068	1187.05
986.0343	2593.9652	2068.2	1185.15
986.1597	2595.2557	2069.6	1187.6
986.2852	2596.5456	2059.25	1177.1
986.4106	2597.8348	2059.6	1179
986.536	2599.1234	2066.7	1185.1
986.6614	2600.4112	2065.15	1184
986.7867	2601.6983	2065.4	1181.5
986.912	2602.9848	2059.75	1178.15
987.0372	2604.2705	2060.7	1172.9
987.1624	2605.5556	2046	1163.85
987.2876	2606.84	2052.6	1172.65
987.4128	2608.1237	2040.8	1158.45
987.5379	2609.4067	2040.25	1158.5
987.6629	2610.689	2029.8	1140.95
987.788	2611.9707	2031.1	1144.5
987.913	2613.2516	2029.95	1146.45
988.0379	2614.5319	2013.95	1133.8
988.1629	2615.8115	2009	1125.6
988.2878	2617.0903	2002.95	1118.2
988.4126	2618.3685	2004.95	1123.95
988.5375	2619.6461	2006.8	1124.45
988.6622	2620.9229	1997.3	1113.95
988.787	2622.199	1998.25	1113.6
988.9117	2623.4745	1997.7	1116.75
989.0364	2624.7493	1991.3	1109.9
989.161	2626.0234	1990.35	1108.3
989.2857	2627.2968	1985.65	1105.6
989.4102	2628.5695	1990.5	1108.5
989.5348	2629.8415	1984.55	1103.85
989.6593	2631.1128	1989.05	1106.25
989.7837	2632.3835	1977.9	1094.85
989.9082	2633.6535	1967.3	1086.35
990.0326	2634.9228	1974.4	1092.25
990.1569	2636.1914	1969.25	1090
990.2812	2637.4593	1963.55	1080.95
990.4055	2638.7265	1960.1	1077
990.5298	2639.9931	1957	1076.35
990.654	2641.259	1963.2	1079.4
990.7782	2642.5242	1957.35	1073.65
990.9023	2643.7887	1948.3	1065.15
991.0264	2645.0525	1942.05	1060.65
991.1505	2646.3156	1939.1	1059.05
991.2745	2647.5781	1935.35	1054.45
991.3985	2648.8398	1931.9	1050.2
991.5225	2650.1009	1933.55	1045.55
991.6464	2651.3613	1925.3	1044.1
991.7703	2652.6211	1914.45	1032.9
991.8942	2653.8801	1916.55	1035
992.018	2655.1385	1918.4	1033.1
992.1418	2656.3961	1913.7	1031.8
992.2655	2657.6531	1907.6	1027.5
992.3892	2658.9094	1917.35	1037.7
992.5129	2660.1651	1901.5	1019.25
992.6366	2661.42	1908.45	1026.05
992.7602	2662.6743	1906.15	1023.95
992.8837	2663.9279	1908.8	1029.25
993.0073	2665.1808	1903.5	1020.15
993.1307	2666.433	1913.1	1029.05
993.2542	2667.6846	1899.2	1017.95
993.3776	2668.9354	1908.25	1024.65
993.501	2670.1856	1912.7	1031
993.6244	2671.4351	1903.05	1021.75
993.7477	2672.6839	1918.5	1032.7
993.8709	2673.9321	1908.25	1029.25
993.9942	2675.1795	1914.55	1031.85
994.1174	2676.4263	1908.55	1027.8
994.2405	2677.6724	1906	1025.4
994.3637	2678.9179	1906.3	1024.75
994.4868	2680.1626	1906.55	1024.95
994.6098	2681.4067	1897.85	1016.25
994.7328	2682.6501	1902.35	1021.7
994.8558	2683.8928	1894.9	1015.05
994.9788	2685.1348	1893.1	1013.75
995.1017	2686.3761	1881.35	1000.6
995.2245	2687.6168	1887.2	1006.4
995.3474	2688.8568	1874.25	993.6
995.4702	2690.0961	1871.75	993.5
995.5929	2691.3348	1863.65	981.25
995.7156	2692.5727	1863.65	982.7
995.8383	2693.81	1855.65	974
995.961	2695.0466	1857.3	977.25
996.0836	2696.2826	1854.55	973.85
996.2062	2697.5178	1858.4	972.15
996.3287	2698.7524	1851.35	969.25
996.4512	2699.9863	1857.4	974.55
996.5737	2701.2195	1851.6	972.85
996.6961	2702.452	1855	972.85
996.8185	2703.6839	1856.6	975.9
996.9408	2704.9151	1857.15	978.3
997.0631	2706.1456	1858.1	975.3
997.1854	2707.3755	1865.55	983.6
997.3077	2708.6046	1863.8	980.4
997.4299	2709.8331	1865.7	984
997.552	2711.0609	1886.3	1007.1
997.6742	2712.2881	1887.2	1005.35
997.7963	2713.5145	1892.45	1008.3
997.9183	2714.7403	1891.75	1010.35
998.0403	2715.9654	1906.55	1024.7
998.1623	2717.1899	1924.7	1030.85
998.2842	2718.4136	1919.5	1039.85
998.4062	2719.6367	1936.95	1056.75
998.528	2720.8591	1957.7	1072.75
998.6498	2722.0809	1948.35	1066.2
998.7716	2723.3019	1973.15	1088.75
998.8934	2724.5223	1975.6	1092.3
999.0151	2725.7421	1973.95	1092.8
999.1368	2726.9611	1977.4	1094.5
999.2584	2728.1795	1974.05	1090.4
999.38	2729.3972	1961.05	1082.35
999.5016	2730.6142	1959.4	1067
999.6231	2731.8306	1928.8	1044.4
999.7446	2733.0462	1915.8	1034.05
999.8661	2734.2612	1897.8	1012.15
999.9875	2735.4756	1881.55	998.55
1000.1089	2736.6892	1858.1	978.75
1000.2302	2737.9022	1845.7	965.9
1000.3515	2739.1145	1826.4	946.9
1000.4728	2740.3262	1822.3	936.1
1000.594	2741.5372	1807.35	929.4
1000.7152	2742.7475	1780.15	900.3
1000.8363	2743.9571	1779.95	899.15
1000.9575	2745.1661	1763.95	879.7
1001.0785	2746.3744	1759.85	880.5
1001.1996	2747.582	1742.4	863.6
1001.3206	2748.7889	1732.95	851.65
1001.4415	2749.9952	1729.05	850.4
1001.5625	2751.2008	1722.85	841.95
1001.6833	2752.4057	1717.3	837.15
1001.8042	2753.61	1710.15	829.85
1001.925	2754.8136	1704.6	824.75
1002.0458	2756.0165	1703.95	824.25
1002.1665	2757.2188	1702.7	824.5
1002.2872	2758.4204	1708.15	827
1002.4078	2759.6213	1708.1	826
1002.5285	2760.8215	1702.35	819
1002.649	2762.0211	1699.75	817.65
1002.7696	2763.22	1695.6	811.45
1002.8901	2764.4182	1696.15	816.25
1003.0106	2765.6158	1689.25	810.25
1003.131	2766.8127	1682.5	804.7
1003.2514	2768.009	1682.45	803.15
1003.3717	2769.2045	1672.15	793.4
1003.492	2770.3994	1677.3	793.75
1003.6123	2771.5936	1668.75	788.6
1003.7325	2772.7872	1656.45	777
1003.8527	2773.9801	1660.25	777.8
1003.9729	2775.1723	1674.65	776.9
1004.093	2776.3639	1655.3	775.25
1004.2131	2777.5548	1659.4	780.45
1004.3331	2778.745	1654.8	775.3
1004.4531	2779.9346	1659	779.75
1004.5731	2781.1235	1661.15	780.85
1004.693	2782.3117	1656.15	777.2
1004.8129	2783.4992	1664.75	785.55
1004.9328	2784.6861	1662.7	783.65
1005.0526	2785.8723	1662.4	782.95
1005.1723	2787.0579	1671.05	791.25
1005.2921	2788.2428	1676.8	800.8
1005.4118	2789.427	1685.95	806.2
1005.5314	2790.6106	1694.6	817.5
1005.651	2791.7935	1699.2	819.2
1005.7706	2792.9757	1704.6	826.9
1005.8902	2794.1573	1720.55	839.15
1006.0097	2795.3382	1735.25	856.9
1006.1291	2796.5184	1747.4	872.35
1006.2485	2797.698	1763.95	883.4
1006.3679	2798.8769	1768.1	889.25
1006.4873	2800.0551	1783.45	905.45
1006.6066	2801.2327	1802.1	921.35
1006.7258	2802.4096	1822.75	944.35
1006.8451	2803.5859	1833.65	952.7
1006.9642	2804.7615	1850.75	970.6
1007.0834	2805.9364	1873.4	997.6
1007.2025	2807.1106	1901.3	1021.75
1007.3216	2808.2842	1931.4	1053.25
1007.4406	2809.4572	1957.55	1080.7
1007.5596	2810.6294	1995.85	1115
1007.6785	2811.801	2034.35	1158.9
1007.7975	2812.972	2073.35	1195.3
1007.9163	2814.1423	2120.25	1241.95
1008.0352	2815.3119	2163.3	1284.45
1008.154	2816.4808	2207.1	1328.35
1008.2727	2817.6491	2256.45	1377.85
1008.3914	2818.8167	2300.4	1422.65
1008.5101	2819.9837	2360.45	1479.35
1008.6288	2821.15	2399.35	1521.35
1008.7474	2822.3157	2447.35	1569.45
1008.8659	2823.4807	2470.8	1595.5
1008.9844	2824.645	2539.65	1660.9
1009.1029	2825.8086	2576.1	1698.95
1009.2214	2826.9716	2614.9	1736.65
1009.3398	2828.134	2653.05	1776.6
1009.4581	2829.2957	2700.65	1822.85
1009.5764	2830.4567	2724.25	1847.25
1009.6947	2831.617	2747.05	1869.15
1009.813	2832.7767	2764.25	1884.7
1009.9312	2833.9358	2760.3	1882.8
1010.0493	2835.0941	2750.2	1868.95
1010.1675	2836.2519	2748	1871.05
1010.2855	2837.4089	2727.1	1849.4
1010.4036	2838.5653	2725.6	1848.8
1010.5216	2839.7211	2724.2	1848.7
1010.6396	2840.8761	2736.95	1855.75
1010.7575	2842.0306	2754.5	1877.05
1010.8754	2843.1843	2787.1	1911.2
1010.9932	2844.3374	2834.35	1958.35
1011.111	2845.4899	2893.05	2013.45
1011.2288	2846.6417	2951.3	2075.25
1011.3465	2847.7928	3027.2	2151.1
1011.4642	2848.9433	3104.95	2228.45
1011.5818	2850.0931	3194.95	2318.6
1011.6995	2851.2422	3258.95	2378
1011.817	2852.3907	3325.85	2446.95
1011.9345	2853.5385	3384.7	2507.5
1012.052	2854.6857	3463.7	2558.5
1012.1695	2855.8323	3497.65	2620.05
1012.2869	2856.9781	3535.85	2657.9
1012.4042	2858.1233	3601.8	2724.6
1012.5216	2859.2679	3632.5	2756.85
1012.6389	2860.4118	3696.9	2817.25
1012.7561	2861.555	3739.8	2857.9
1012.8733	2862.6976	3768.65	2890.75
1012.9905	2863.8395	3778.2	2901
1013.1076	2864.9808	3813.8	2937.65
1013.2247	2866.1214	3841.15	2964.5
1013.3417	2867.2614	3839.45	2960.9
1013.4587	2868.4007	3856.4	2976.9
1013.5757	2869.5393	3867.8	2988.55
1013.6926	2870.6773	3870.15	2990
1013.8095	2871.8146	3879.7	2997.9
1013.9263	2872.9513	3887.3	3006.65
1014.0431	2874.0874	3882.2	3005.3
1014.1599	2875.2227	3881.35	3002.8
1014.2766	2876.3574	3864.05	2987.9
1014.3933	2877.4915	3833.2	2957.05
1014.51	2878.6249	3812.9	2936.45
1014.6266	2879.7577	3785.45	2908.4
1014.7431	2880.8898	3774.2	2887.45
1014.8596	2882.0212	3750.45	2876.3
1014.9761	2883.152	3750.05	2871
1015.0925	2884.2821	3727.25	2850.25
1015.2089	2885.4116	3706.7	2830.9
1015.3253	2886.5405	3715.1	2838.5
1015.4416	2887.6686	3725.3	2845.25
1015.5579	2888.7962	3723.9	2848.5
1015.6741	2889.923	3735.95	2861.55
1015.7903	2891.0493	3742.55	2867.9
1015.9065	2892.1748	3757.3	2879.5
1016.0226	2893.2997	3754.25	2877.25
1016.1387	2894.424	3770.3	2893.6
1016.2547	2895.5476	3792.1	2914.1
1016.3707	2896.6706	3813.4	2938.5
1016.4866	2897.7929	3857	2978.55
1016.6025	2898.9145	3876.35	3000.55
1016.7184	2900.0355	3900.8	3020.8
1016.8342	2901.1559	3924.7	3047.7
1016.95	2902.2756	3958.75	3084.3
1017.0658	2903.3946	4001	3125.95
1017.1815	2904.513	4037.7	3157
1017.2971	2905.6308	4063.7	3188
1017.4127	2906.7479	4072	3192.95
1017.5283	2907.8643	4100.9	3225.45
1017.6439	2908.9801	4104.45	3227.6
1017.7594	2910.0953	4116.6	3241.25
1017.8748	2911.2098	4132.4	3252.45
1017.9902	2912.3236	4106.4	3223.45
1018.1056	2913.4368	4109	3229.4
1018.2209	2914.5494	4087.65	3211.45
1018.3362	2915.6613	4056.45	3173.45
1018.4515	2916.7725	4014.65	3136.25
1018.5667	2917.8831	3995.85	3119.65
1018.6819	2918.9931	3979.25	3098.55
1018.797	2920.1024	3951.75	3074.9
1018.9121	2921.211	3932.6	3056.4
1019.0271	2922.319	3900.15	3024.3
1019.1421	2923.4264	3877.45	2999.4
1019.2571	2924.5331	3873.6	3000.25
1019.372	2925.6391	3846.5	2969.9
1019.4869	2926.7445	3834.9	2959.05
1019.6017	2927.8493	3837.8	2960.85
1019.7165	2928.9534	3829.45	2954.3
1019.8313	2930.0569	3831.6	2952.75
1019.946	2931.1597	3819.05	2941.15
1020.0606	2932.2619	3806.6	2930.15
1020.1753	2933.3634	3799.05	2921.9
1020.2899	2934.4643	3791	2909.3
1020.4044	2935.5645	3776.6	2895.7
1020.5189	2936.6641	3736.2	2852.85
1020.6334	2937.763	3693.85	2818.6
1020.7478	2938.8613	3647.05	2768.55
1020.8622	2939.959	3598.45	2716.55
1020.9765	2941.056	3511.9	2637.25
1021.0908	2942.1523	3436.15	2560.65
1021.2051	2943.248	3356.1	2479.15
1021.3193	2944.3431	3252	2376.75
1021.4334	2945.4375	3152.5	2275.65
1021.5476	2946.5313	3044.2	2170.15
1021.6617	2947.6244	2946.7	2071.75
1021.7757	2948.7169	2845.2	1965.15
1021.8897	2949.8087	2745.8	1871.8
1022.0037	2950.8999	2654.95	1780.3
1022.1176	2951.9904	2568.55	1693.25
1022.2315	2953.0803	2514.15	1638.05
1022.3453	2954.1696	2437.6	1562.55
1022.4591	2955.2582	2397.65	1522.05
1022.5728	2956.3462	2344.25	1468.65
1022.6865	2957.4335	2295.1	1417.85
1022.8002	2958.5202	2261.35	1383.65
1022.9138	2959.6062	2223.75	1347.8
1023.0274	2960.6916	2207.9	1333.05
1023.141	2961.7764	2179.6	1303.55
1023.2545	2962.8605	2176.5	1301.15
1023.3679	2963.9439	2157.9	1283.7
1023.4813	2965.0267	2151.15	1274.35
1023.5947	2966.1089	2170.45	1273.75
1023.708	2967.1905	2127.75	1254
1023.8213	2968.2714	2126.45	1252.5
1023.9346	2969.3516	2122.1	1247.1
1024.0478	2970.4312	2130.95	1248
1024.1609	2971.5102	2133.8	1257.5
1024.274	2972.5885	2133.4	1258.45
1024.3871	2973.6662	2130.7	1250.15
1024.5002	2974.7432	2114.15	1239.65
1024.6132	2975.8196	2114.35	1235.85
1024.7261	2976.8954	2103.05	1228.6
1024.839	2977.9705	2091.15	1215.1
1024.9519	2979.045	2072.6	1198
1025.0647	2980.1188	2061.2	1187.4
1025.1775	2981.192	2035.8	1163.45
1025.2902	2982.2645	2022.2	1145.8
1025.4029	2983.3364	1998.15	1123.75
1025.5156	2984.4077	1970.2	1096
1025.6282	2985.4783	1943.1	1063.2
1025.7407	2986.5483	1899.25	1025.35
1025.8532	2987.6177	1875.4	999.6
1025.9657	2988.6864	1836.55	959.25
1026.0782	2989.7545	1803.9	927.2
1026.1906	2990.8219	1769.35	894.7
1026.3029	2991.8887	1743.15	865.15
1026.4152	2992.9548	1708.1	835
1026.5275	2994.0204	1673.85	800.7
1026.6397	2995.0852	1638.1	765.5
1026.7519	2996.1495	1623	745.8
1026.864	2997.2131	1597.3	722.95
1026.9761	2998.276	1570.7	695.3
1027.0882	2999.3383	1556	680.85
1027.2002	3000.4	1526.7	651.65
1027.3122	3001.4611	1523.1	648.2
1027.4241	3002.5215	1511.25	636.5
1027.536	3003.5812	1488.7	612.3
1027.6478	3004.6404	1474.7	598.75
1027.7596	3005.6989	1464.35	588.8
1027.8714	3006.7567	1456.35	583.9
1027.9831	3007.8139	1478.4	572.5
1028.0947	3008.8705	1444.1	570.6
1028.2064	3009.9264	1436.05	559.45
1028.3179	3010.9818	1426.4	552.15
1028.4295	3012.0364	1421.85	545.2
1028.541	3013.0905	1421.1	544.7
1028.6524	3014.1439	1421.75	547.55
1028.7638	3015.1966	1415	540.65
1028.8752	3016.2487	1414.05	540.15
1028.9865	3017.3002	1410.55	532.35
1029.0978	3018.3511	1404.7	532.4
1029.209	3019.4013	1408.15	536.05
1029.3202	3020.4509	1404.45	529.5
1029.4314	3021.4998	1409.05	536.25
1029.5425	3022.5481	1406.15	532
1029.6535	3023.5958	1408.65	534.4
1029.7645	3024.6428	1410.4	534.3
1029.8755	3025.6892	1406.65	534.8
1029.9864	3026.735	1403.45	529.35
1030.0973	3027.7802	1402.9	530.6
1030.2082	3028.8247	1406.95	532.25
1030.319	3029.8685	1412	536.25
1030.4297	3030.9118	1419.2	542.4
1030.5404	3031.9544	1419.25	546.35
1030.6511	3032.9963	1418.7	544.9
1030.7617	3034.0376	1431.4	559.45
1030.8723	3035.0783	1434.55	557.1
1030.9829	3036.1184	1439.8	564.25
1031.0934	3037.1578	1436.2	562.5
1031.2038	3038.1966	1440.55	563.6
1031.3142	3039.2348	1438.25	564.6
1031.4246	3040.2723	1446.85	565.55
1031.5349	3041.3092	1434.35	561
1031.6452	3042.3455	1438.2	562.45
1031.7554	3043.3811	1431.8	557.05
1031.8656	3044.4161	1427.15	553.65
1031.9758	3045.4505	1419.7	546.3
1032.0859	3046.4842	1423.05	546.65
1032.1959	3047.5173	1408.9	537.45
1032.3059	3048.5498	1407.15	533.3
1032.4159	3049.5816	1401.6	528.5
1032.5258	3050.6128	1394.4	520.05
1032.6357	3051.6434	1385.6	509.75
1032.7455	3052.6734	1383.65	509.7
1032.8553	3053.7027	1376.75	502.4
1032.9651	3054.7314	1369.25	494.65
1033.0748	3055.7594	1363.85	490.4
1033.1845	3056.7868	1353.65	478
1033.2941	3057.8136	1351.05	476
1033.4037	3058.8398	1350.65	477.1
1033.5132	3059.8653	1340.3	466.25
1033.6227	3060.8902	1337.25	464.4
1033.7321	3061.9145	1326.9	451.5
1033.8415	3062.9381	1330.35	456.6
1033.9509	3063.9612	1337.5	449.4
1034.0602	3064.9835	1316.25	441.7
1034.1694	3066.0053	1311.1	433.75
1034.2787	3067.0264	1306.85	431.45
1034.3878	3068.0469	1299.55	424.25
1034.497	3069.0668	1294.3	417.1
1034.6061	3070.086	1275.55	402.85
1034.7151	3071.1046	1274.25	399.5
1034.8241	3072.1226	1266.95	392.6
1034.9331	3073.1399	1252.6	380.2
1035.042	3074.1567	1242.25	368.25
1035.1508	3075.1727	1233.95	357.75
1035.2597	3076.1882	1226.15	351.55
1035.3684	3077.203	1215	340.6
1035.4772	3078.2173	1210.5	333.9
1035.5859	3079.2308	1207.5	330.6
1035.6945	3080.2438	1199.4	324.1
1035.8031	3081.2561	1186.7	311.55
1035.9117	3082.2678	1178.1	305.85
1036.0202	3083.2789	1174.1	298.85
1036.1286	3084.2893	1168.15	294.35
1036.2371	3085.2991	1163.95	287.8
1036.3454	3086.3083	1165.15	287.75
1036.4538	3087.3169	1152.95	280.05
1036.562	3088.3248	1143.4	267.65
1036.6703	3089.3321	1144.7	268.45
1036.7785	3090.3388	1131.4	257.5
1036.8866	3091.3449	1126.25	251.75
1036.9948	3092.3503	1128.1	252.4
1037.1028	3093.3551	1123.75	251
1037.2108	3094.3593	1125.25	252.65
1037.3188	3095.3629	1113.25	238.7
1037.4267	3096.3658	1118.45	244.2
1037.5346	3097.3681	1108.75	234.6
1037.6425	3098.3698	1108.25	232.05
1037.7503	3099.3708	1114.65	232.9
1037.858	3100.3713	1099.2	227.6
1037.9657	3101.3711	1099.35	226.1
1038.0734	3102.3702	1215.75	223.8
1038.181	3103.3688	1101.25	226.35
1038.2886	3104.3667	1092.55	218.85
1038.3961	3105.364	1088.45	216.45
1038.5036	3106.3607	1088.3	214.25
1038.611	3107.3568	1081.45	207.45
1038.7184	3108.3522	1082.95	211.5
1038.8257	3109.347	1083.8	209.15
1038.933	3110.3412	1087.2	209.5
1039.0403	3111.3348	1076.9	201.9
1039.1475	3112.3277	1077.5	203.05
1039.2547	3113.32	1075.15	202.8
1039.3618	3114.3117	1068.05	193.6
1039.4689	3115.3028	1069.15	196.7
1039.5759	3116.2932	1069.45	193.45
1039.6829	3117.2831	1076.2	196.8
1039.7898	3118.2723	1066.75	193.6
1039.8967	3119.2608	1064.55	191.9
1040.0035	3120.2488	1064.85	190.2
1040.1103	3121.2361	1061.05	187.95
1040.2171	3122.2229	1058	183.7
1040.3238	3123.209	1057.2	181.85
1040.4305	3124.1944	1052.6	179.8
1040.5371	3125.1793	1056.1	182.8
1040.6437	3126.1635	1053	181.45
1040.7502	3127.1471	1049.6	176.55
1040.8567	3128.1301	1053.1	183.7
1040.9631	3129.1125	1049.5	175.7
1041.0695	3130.0942	1053.75	181.2
1041.1759	3131.0753	1057.1	175.2
1041.2822	3132.0558	1043.85	168.25
1041.3884	3133.0357	1042.95	168.9
1041.4946	3134.015	1043	170.55
1041.6008	3134.9936	1040.3	165.9
1041.7069	3135.9716	1064.35	166.7
1041.813	3136.949	1038.85	167.9
1041.919	3137.9258	1059.5	167.5
1042.025	3138.902	1041.3	163.15
1042.1309	3139.8775	1037.15	164.9
1042.2368	3140.8524	1033.1	159
1042.3427	3141.8267	1034.3	160.35
1042.4485	3142.8004	1029.25	156.4
1042.5542	3143.7735	1036.55	156.2
1042.6599	3144.7459	1036.85	162.15
1042.7656	3145.7178	1030.25	157.2
1042.8712	3146.689	1025.3	154
1042.9768	3147.6596	1022.05	146.65
1043.0823	3148.6295	1027.45	154.1
1043.1878	3149.5989	1023.5	152.45
1043.2932	3150.5676	1022.55	149
1043.3986	3151.5357	1018	144.25
1043.5039	3152.5032	1020.75	149.15
1043.6092	3153.4701	1020.5	147.4
1043.7145	3154.4364	1020.5	145.95
1043.8197	3155.402	1013.2	141.55
1043.9248	3156.367	1018.9	145.8
1044.03	3157.3315	1039.95	139.05
1044.135	3158.2952	1013.7	140
1044.24	3159.2584	1010.8	137.7
1044.345	3160.221	1015	141.1
1044.4499	3161.1829	1008.55	134.6
1044.5548	3162.1442	1007.35	133.05
1044.6596	3163.105	1007.8	134.75
1044.7644	3164.065	1004.8	131.9
1044.8692	3165.0245	1007.5	131.15
1044.9739	3165.9834	1000.9	128.8
1045.0785	3166.9416	1003.5	131.3
1045.1831	3167.8993	1002.1	128.45
1045.2877	3168.8563	1003.5	131.6
1045.3922	3169.8127	998.85	127.85
1045.4966	3170.7684	998.85	128.1
1045.6011	3171.7236	996.25	122.75
1045.7054	3172.6782	1000.95	127.45
1045.8098	3173.6321	995.65	121.45
1045.914	3174.5854	1005.25	127.3
1046.0183	3175.5381	1001.2	128.65
1046.1224	3176.4902	996.05	126
1046.2266	3177.4417	996.65	125.7
1046.3307	3178.3926	991.55	120
1046.4347	3179.3428	992.55	121.3
1046.5387	3180.2924	991.35	118.5
1046.6427	3181.2415	990.6	115.15
1046.7466	3182.1899	994.85	121.15
1046.8504	3183.1377	989.4	118
1046.9542	3184.0848	995.05	118.35
1047.058	3185.0314	991.7	118.55
1047.1617	3185.9773	991.8	118
1047.2654	3186.9227	986.3	112.2
1047.369	3187.8674	988.5	115.5
1047.4726	3188.8115	990.95	115.9
1047.5761	3189.755	986.55	116.7
1047.6796	3190.6979	981.1	109.4
1047.783	3191.6402	979.45	107.7
1047.8864	3192.5818	986.45	114.3
1047.9898	3193.5229	990.1	110.5
1048.0931	3194.4633	985.4	112.55
1048.1963	3195.4031	981.15	109.6
1048.2995	3196.3423	978.45	106.75
1048.4027	3197.2809	980.9	109.35
1048.5058	3198.2189	982.6	112.3
1048.6089	3199.1563	995.2	108.6
1048.7119	3200.0931	976.15	104.65
1048.8148	3201.0292	975.1	103.25
1048.9178	3201.9648	975.85	101.55
1049.0206	3202.8997	979.15	103.75
1049.1235	3203.834	975.1	103.35
1049.2262	3204.7677	978.25	104.6
1049.329	3205.7008	978.65	104.45
1049.4317	3206.6333	972.7	103.35
1049.5343	3207.5652	978.15	104.4
1049.6369	3208.4964	975.2	102.6
1049.7394	3209.4271	968.4	95.9
1049.8419	3210.3571	970.45	98.95
1049.9444	3211.2865	972	98.9
1050.0468	3212.2154	973.65	101.3
1050.1491	3213.1436	974	98.55
1050.2514	3214.0712	978.15	101.55
1050.3537	3214.9982	970.5	96.85
1050.4559	3215.9246	970.5	96.9
1050.5581	3216.8503	963.8	93.95
1050.6602	3217.7755	970.55	99.9
1050.7623	3218.7001	963.6	91.4
1050.8643	3219.624	967.7	96
1050.9663	3220.5473	967.8	97.65
1051.0682	3221.4701	966.85	91.8
1051.1701	3222.3922	964.35	89.7
1051.2719	3223.3137	965.15	93.2
1051.3737	3224.2346	964.15	91.9
1051.4754	3225.1549	959.65	87.7
1051.5771	3226.0746	962	90.75
1051.6788	3226.9937	961.65	88.6
1051.7804	3227.9121	962.25	90.95
1051.8819	3228.83	960.35	89.4
1051.9834	3229.7473	963	92.65
1052.0849	3230.6639	963.2	92.1
1052.1863	3231.5799	960.1	88.85
1052.2876	3232.4954	962.45	89.6
1052.3889	3233.4102	956.9	84.4
1052.4902	3234.3244	958.25	84.05
1052.5914	3235.238	958.1	86.1
1052.6926	3236.151	972.6	88.45
1052.7937	3237.0634	957	87.1
1052.8948	3237.9752	953.8	81.4
1052.9958	3238.8864	957.15	85.85
1053.0968	3239.797	955.25	81.5
1053.1977	3240.7069	955.55	82.1
1053.2986	3241.6163	959.75	85.6
1053.3994	3242.5251	950.4	78.2
1053.5002	3243.4332	954.15	83.75
1053.6009	3244.3408	950.65	80.15
1053.7016	3245.2477	949.75	78.1
1053.8022	3246.154	950.2	77.7
1053.9028	3247.0598	950.85	78.95
1054.0034	3247.9649	951.4	79.85
1054.1039	3248.8694	948.1	78.15
1054.2043	3249.7733	948.05	77.35
1054.3047	3250.6766	950.55	77.55
1054.4051	3251.5793	948.55	75.9
1054.5054	3252.4814	943.85	70.1
1054.6056	3253.3829	945.7	74.15
1054.7058	3254.2838	943.65	71.7
1054.806	3255.1841	947.35	76.35
1054.9061	3256.0838	942.3	72.45
1055.0061	3256.9829	942.8	72.65
1055.1062	3257.8814	945.85	71.9
1055.2061	3258.7792	943.3	67.2
1055.306	3259.6765	944.45	70.25
1055.4059	3260.5731	940.5	69.9
1055.5057	3261.4692	940.55	67.75
1055.6055	3262.3647	941.6	70.05
1055.7052	3263.2595	937.1	64.3
1055.8049	3264.1538	937.1	66.8
1055.9045	3265.0474	934.8	62.35
1056.0041	3265.9404	934.5	62.9
1056.1036	3266.8329	933.05	64.8
1056.2031	3267.7247	943.3	62.6
1056.3025	3268.616	930.65	58.95
1056.4019	3269.5066	929.25	58.3
1056.5013	3270.3966	929.4	57.25
1056.6005	3271.286	923.1	52.75
