Software Version:	3.9.2.0
Unit SN:	10000200
Spectrometer SN:	6960
Date:	3/8/2024 2:19:33 PM
Data Line Index:	25
Spectral Points:	2048
Integration time (ms):	125
Averages:	20
Delay (ms):	30000
Sequence Number:	1
Processing:	dark subtract
Laser Power (mW):	305
Laser Current (mA):	823
Laser Diode Temp (C):	25
Laser Case Temp (C):	26.1
System Temp (C):	26.1
Spectrometer Temp (C):	24.1
CCD Temp (C):	0.001
Secondary Temp (C):	20.007
Heatsink Temp (C):	20.591
CCDPCB Temp (C):	36.24
SecondaryPCB Temp (C):	29.76

Wavelength	RamanShift	Raw Counts	Dark Subtracted
787.061	30.1047	459.65	54.9
787.2016	32.3739	461.25	57.7
787.3422	34.6426	468.75	63.2
787.4828	36.9109	473.95	66.25
787.6235	39.1787	481.65	70.55
787.7642	41.4461	492.95	75.75
787.9049	43.7131	501.2	80.5
788.0456	45.9796	507.5	85.55
788.1863	48.2456	517.15	92.15
788.3271	50.5112	527.15	96.75
788.4679	52.7764	536.8	102.65
788.6087	55.0411	548.65	109.95
788.7496	57.3054	561.35	116.7
788.8904	59.5692	572.75	128.2
789.0313	61.8326	583.7	133.75
789.1722	64.0955	593.55	143.85
789.3132	66.3579	609.45	153.45
789.4541	68.6199	634.4	174.35
789.5951	70.8815	669.7	203.4
789.7361	73.1426	750.65	281
789.8771	75.4032	956.6	483.75
790.0181	77.6634	1468.15	991.1
790.1592	79.9231	2683.45	2198.5
790.3003	82.1824	5325.3	4822
790.4414	84.4412	10051.65	9520.6
790.5825	86.6995	16565.85	15995.8
790.7237	88.9574	22855.35	22252.1
790.8648	91.2148	27263.45	26639.1
791.006	93.4717	29283	28644.9
791.1472	95.7282	29794.25	29149.85
791.2885	97.9842	29752.15	29105.85
791.4297	100.2398	29283.6	28632.45
791.571	102.4949	28710.85	28055.9
791.7123	104.7495	27982.8	27324.4
791.8536	107.0036	27187.3	26528.5
791.9949	109.2573	26488.2	25829.35
792.1363	111.5105	25743.85	25081.5
792.2777	113.7632	25029.65	24361.5
792.4191	116.0154	24456.75	23782.9
792.5605	118.2672	23976.3	23304.55
792.7019	120.5185	23483.6	22809.9
792.8434	122.7693	23143.8	22468.95
792.9849	125.0197	22810.8	22132.25
793.1264	127.2696	22579.65	21897.35
793.2679	129.519	22450.7	21765.4
793.4094	131.7679	22289.5	21598.6
793.551	134.0163	22128.7	21437.15
793.6926	136.2642	21972.4	21278.55
793.8342	138.5117	21815.95	21110.8
793.9758	140.7587	21592.15	20889.9
794.1175	143.0052	21425.35	20720.95
794.2591	145.2512	21166.35	20466.35
794.4008	147.4967	20980.45	20276.4
794.5425	149.7417	20855.75	20153.3
794.6842	151.9863	20738.55	20024.7
794.826	154.2304	20692.1	19980.9
794.9677	156.4739	20575.05	19857.45
795.1095	158.717	20511.4	19793.35
795.2513	160.9596	20373.35	19651.1
795.3931	163.2017	20102.35	19378
795.535	165.4433	19831.2	19102.75
795.6768	167.6844	19512.3	18782.2
795.8187	169.925	19204.45	18474.65
795.9606	172.1651	18839.5	18104.55
796.1025	174.4047	18600.4	17863.25
796.2445	176.6439	18313.65	17578
796.3864	178.8825	18101	17359.25
796.5284	181.1206	17936.85	17184.4
796.6704	183.3582	17795.85	17038.65
796.8124	185.5954	17683.6	16930.95
796.9544	187.832	17614.05	16858.9
797.0965	190.0681	17599.75	16837.65
797.2386	192.3037	17600.4	16837.35
797.3806	194.5388	17598.3	16833.35
797.5228	196.7734	17676.85	16908.55
797.6649	199.0075	17732.45	16960.35
797.807	201.2411	17869.8	17098.4
797.9492	203.4742	17951.5	17173.95
798.0914	205.7068	18143.6	17363.2
798.2336	207.9389	18265.15	17486.2
798.3758	210.1704	18421.55	17650.65
798.518	212.4015	18516.8	17763.35
798.6603	214.632	18724.6	17969.45
798.8025	216.862	18885.4	18130.05
798.9448	219.0915	19090.15	18332.5
799.0871	221.3205	19334.9	18571.35
799.2294	223.549	19615.5	18858.25
799.3718	225.777	19947.7	19192
799.5141	228.0044	20358.2	19590.1
799.6565	230.2314	20799.4	20040.05
799.7989	232.4578	21256.75	20489.65
799.9413	234.6837	21661.2	20887.25
800.0837	236.909	21889.2	21113.25
800.2262	239.1339	21895.15	21087.75
800.3687	241.3582	21654.15	20861.8
800.5111	243.582	21342.3	20523.2
800.6536	245.8053	20971.85	20168.55
800.7961	248.0281	20661.05	19861.6
800.9387	250.2503	20371.15	19567.2
801.0812	252.472	20228.5	19418.85
801.2238	254.6932	20178.6	19378.7
801.3664	256.9139	20077.65	19274.1
801.509	259.134	20073.75	19258.55
801.6516	261.3536	20036	19226.5
801.7942	263.5727	20089.6	19274.95
801.9369	265.7912	19991.45	19180.75
802.0795	268.0092	20027.2	19216.9
802.2222	270.2267	19985.4	19174.6
802.3649	272.4436	19947.35	19132.15
802.5076	274.6601	19901.9	19081.7
802.6504	276.8759	19814.95	18999.7
802.7931	279.0913	19813.75	18996.6
802.9359	281.3061	19824.95	19007.65
803.0787	283.5204	19918.25	19094.45
803.2215	285.7341	20029.05	19201.35
803.3643	287.9473	20194.15	19358.55
803.5071	290.16	20435.85	19606.05
803.6499	292.3721	20775	19949.2
803.7928	294.5837	21213	20389.7
803.9357	296.7947	21580.4	20757.15
804.0786	299.0052	21793.65	20972
804.2215	301.2152	21655.15	20829.35
804.3644	303.4246	21321.15	20494.1
804.5074	305.6334	20773.3	19953.35
804.6503	307.8418	20263.7	19436.5
804.7933	310.0495	19875.7	19049.85
804.9363	312.2568	19548	18716
805.0793	314.4635	19344.05	18510.5
805.2223	316.6696	19295.55	18463.05
805.3653	318.8752	19233.6	18390.7
805.5084	321.0802	19294.7	18455.6
805.6514	323.2847	19432.65	18591.75
805.7945	325.4887	19512.7	18671.55
805.9376	327.692	19444.75	18607.55
806.0807	329.8949	19344	18502.7
806.2238	332.0972	19107.55	18266.45
806.367	334.2989	18831.95	17983.55
806.5101	336.5001	18528.35	17679.75
806.6533	338.7007	18352.95	17503.7
806.7965	340.9008	18264	17410.9
806.9397	343.1003	18170.55	17320.95
807.0829	345.2992	18103.6	17250.8
807.2261	347.4976	18093.3	17241.3
807.3693	349.6955	18104.75	17246.95
807.5126	351.8927	18183.05	17322.5
807.6559	354.0895	18202.4	17330.5
807.7991	356.2856	18235.05	17375.25
807.9424	358.4812	18214.75	17356.1
808.0857	360.6763	18306.1	17443.4
808.2291	362.8707	18252.15	17388.45
808.3724	365.0646	18313.5	17447.25
808.5158	367.258	18342.05	17473.7
808.6591	369.4508	18366.25	17493
808.8025	371.643	18488.4	17620.1
808.9459	373.8346	18470.65	17601.5
809.0893	376.0257	18449.95	17574.75
809.2327	378.2162	18340.8	17466.95
809.3762	380.4062	18259.05	17387.9
809.5196	382.5956	18111.55	17245.4
809.6631	384.7844	18018.5	17162.45
809.8066	386.9726	17890.95	17028.9
809.9501	389.1603	17886.05	17027.15
810.0936	391.3474	17851.05	16965.3
810.2371	393.5339	17834.6	16970.2
810.3806	395.7199	17775.15	16911.2
810.5241	397.9052	17829.55	16966.1
810.6677	400.09	17830.1	16969.75
810.8113	402.2743	17943.65	17082.35
810.9548	404.4579	17969.8	17107.3
811.0984	406.641	18178.1	17312.95
811.2421	408.8235	18396.7	17529.7
811.3857	411.0054	18718.95	17853.6
811.5293	413.1868	19202.55	18326.45
811.673	415.3675	19568.9	18691.6
811.8166	417.5477	19779.15	18898.45
811.9603	419.7273	19822.75	18940.65
812.104	421.9064	19707.65	18821.1
812.2477	424.0848	19588.75	18711.8
812.3914	426.2627	19356.7	18480.25
812.5351	428.4399	19071.5	18191.75
812.6788	430.6166	18734.65	17849.7
812.8226	432.7928	18347.25	17462.7
812.9663	434.9683	18020.2	17139.15
813.1101	437.1432	17863.7	16984.35
813.2539	439.3176	17662.25	16789
813.3977	441.4914	17566.2	16697.6
813.5415	443.6645	17571.8	16695.45
813.6853	445.8371	17461.9	16581.15
813.8291	448.0091	17429.15	16549.35
813.973	450.1806	17416.05	16541.9
814.1168	452.3514	17319.1	16441.65
814.2607	454.5216	17351.6	16464.2
814.4046	456.6913	17298.25	16420.85
814.5485	458.8603	17336.15	16462.15
814.6924	461.0288	17408.1	16537.95
814.8363	463.1967	17448.35	16577.85
814.9802	465.3639	17573.7	16699.85
815.1241	467.5306	17695.15	16819.8
815.2681	469.6967	17829.8	16955.55
815.412	471.8622	18016.1	17143.5
815.556	474.0271	18159.15	17283.6
815.7	476.1914	18257	17372.5
815.844	478.3551	18249.35	17370.85
815.988	480.5182	18241.15	17362.8
816.132	482.6807	18209.15	17342.75
816.276	484.8426	18325.6	17465.1
816.4201	487.0039	18622.7	17754.1
816.5641	489.1647	19029.75	18149.8
816.7082	491.3248	19476.05	18594.15
816.8522	493.4843	19652.65	18775.2
816.9963	495.6432	19688.65	18811.5
817.1404	497.8015	19573.25	18684.15
817.2845	499.9592	19631.75	18741.65
817.4286	502.1163	19572.7	18682.8
817.5727	504.2728	19362.1	18475.85
817.7168	506.4287	19104.7	18232.65
817.861	508.5839	18657.3	17783.8
818.0051	510.7386	18323.05	17437.6
818.1493	512.8927	18160	17274.25
818.2935	515.0461	18028.15	17139.45
818.4377	517.199	18017.65	17125.6
818.5818	519.3512	17969.15	17075.25
818.726	521.5029	18097.75	17203.25
818.8703	523.6539	18162.35	17273.35
819.0145	525.8043	18184.4	17287.1
819.1587	527.9541	18193.7	17295.7
819.303	530.1033	18199.7	17308.3
819.4472	532.2519	18275.45	17385.2
819.5915	534.3999	18417.95	17521.6
819.7357	536.5472	18698.1	17806.9
819.88	538.694	19159	18269.8
820.0243	540.8401	19835.75	18939.9
820.1686	542.9856	20366.7	19457.65
820.3129	545.1305	20530.45	19622.35
820.4572	547.2748	20379.75	19467.85
820.6016	549.4185	20039.95	19130.15
820.7459	551.5615	19666.55	18755.65
820.8902	553.704	19504.2	18597.05
821.0346	555.8458	19464.85	18562.9
821.1789	557.987	19471.5	18572.5
821.3233	560.1276	19457.3	18553.7
821.4677	562.2675	19425.85	18521.05
821.6121	564.4069	19445.25	18542.5
821.7565	566.5456	19399.55	18496
821.9009	568.6837	19330.1	18431.85
822.0453	570.8212	19049.85	18152.25
822.1897	572.958	18781.05	17884.1
822.3342	575.0942	18541.45	17647.05
822.4786	577.2299	18364.75	17468.75
822.6231	579.3648	18339.35	17458.25
822.7675	581.4992	18412.4	17539.95
822.912	583.6329	18602.75	17730.65
823.0565	585.766	18888.3	18012.25
823.201	587.8985	19016.5	18132.8
823.3454	590.0304	19019.3	18113.45
823.4899	592.1616	18941.65	18038
823.6345	594.2922	18902.65	17998
823.779	596.4222	18740.5	17833.15
823.9235	598.5515	18573.8	17659.4
824.068	600.6802	18407.95	17494.45
824.2126	602.8083	18240.45	17336
824.3571	604.9358	18216.95	17310.8
824.5017	607.0626	18145.45	17239.2
824.6462	609.1888	18117.25	17202.7
824.7908	611.3144	18072.4	17158.05
824.9354	613.4393	17928.3	17013.4
825.08	615.5636	17804.7	16884.2
825.2246	617.6873	17728.25	16814.9
825.3692	619.8103	17699.1	16785.75
825.5138	621.9327	17609.95	16696.55
825.6584	624.0544	17579.1	16673.55
825.803	626.1756	17597.1	16690.25
825.9477	628.2961	17569.25	16656.75
826.0923	630.4159	17510.05	16597.85
826.237	632.5351	17495.75	16579.25
826.3816	634.6537	17438.05	16519.65
826.5263	636.7716	17437.3	16521.1
826.6709	638.8889	17474.9	16553.4
826.8156	641.0056	17543.15	16617
826.9603	643.1216	17512.65	16587.1
827.105	645.237	17555.2	16635.75
827.2497	647.3518	17556.4	16650.65
827.3944	649.4659	17574.75	16669.6
827.5391	651.5793	17571.25	16669.9
827.6838	653.6922	17584.3	16674.15
827.8285	655.8043	17574.25	16663.45
827.9733	657.9159	17588.85	16676.65
828.118	660.0268	17490.7	16577.25
828.2627	662.137	17458.75	16542.35
828.4075	664.2466	17480.9	16559.4
828.5522	666.3556	17457.6	16538.1
828.697	668.4639	17407.75	16494.55
828.8418	670.5716	17485.65	16573.9
828.9865	672.6786	17580.3	16664.7
829.1313	674.785	17627.95	16701.85
829.2761	676.8907	17695.5	16777.2
829.4209	678.9958	17796.45	16883.65
829.5657	681.1002	17797.7	16880.7
829.7105	683.204	17809.85	16882.15
829.8553	685.3072	17755.25	16828.75
830.0001	687.4097	17697.6	16776.4
830.1449	689.5115	17638.35	16712.6
830.2898	691.6127	17613.15	16695.45
830.4346	693.7132	17527.75	16612.9
830.5794	695.8131	17533.05	16589.65
830.7243	697.9123	17509.7	16584.45
830.8691	700.0109	17481.65	16553.2
831.014	702.1089	17498.45	16572.95
831.1588	704.2061	17512.4	16588
831.3037	706.3028	17546.45	16621.6
831.4486	708.3987	17614.65	16691.8
831.5935	710.4941	17692.45	16766.55
831.7383	712.5887	17897.35	16972.45
831.8832	714.6827	18203.9	17279.2
832.0281	716.7761	18589.15	17665.1
832.173	718.8688	18962.7	18042.55
832.3179	720.9608	19209.35	18277.7
832.4628	723.0522	19272.4	18332.4
832.6077	725.1429	19035.3	18108.75
832.7527	727.233	18776.6	17846.25
832.8976	729.3224	18504.7	17579.6
833.0425	731.4112	18243.35	17318.8
833.1874	733.4993	17996	17067.25
833.3324	735.5867	17837.45	16911.3
833.4773	737.6735	17779.65	16850.8
833.6222	739.7596	17718.55	16788.4
833.7672	741.845	17685.35	16759.25
833.9122	743.9298	17691.2	16763.6
834.0571	746.014	17689	16763.85
834.2021	748.0974	17695.45	16761.8
834.347	750.1802	17742.15	16806.95
834.492	752.2624	17740.25	16806.7
834.637	754.3439	17770.65	16834.25
834.782	756.4247	17814.2	16871.85
834.9269	758.5048	17930.45	17001.3
835.0719	760.5843	18153.4	17216.4
835.2169	762.6631	18462.15	17529.75
835.3619	764.7413	18939.4	18009.05
835.5069	766.8188	19496.05	18562.7
835.6519	768.8956	19927.8	18993.1
835.7969	770.9718	20285.05	19351.7
835.9419	773.0473	20128.05	19196.65
836.0869	775.1221	19800.25	18868.75
836.232	777.1962	19426.1	18488.7
836.377	779.2697	19259.6	18323.4
836.522	781.3426	19337.75	18382.6
836.667	783.4147	19555.25	18621.15
836.8121	785.4862	19902.85	18969.2
836.9571	787.557	19945.35	19007.4
837.1021	789.6271	19582.4	18644.65
837.2472	791.6966	19068.7	18131.1
837.3922	793.7654	18549.8	17614.8
837.5373	795.8335	18265.8	17330.85
837.6823	797.901	18061.9	17125.75
837.8274	799.9678	18005.3	17068.1
837.9724	802.0339	18024.5	17088.25
838.1175	804.0993	18099.9	17151.05
838.2626	806.1641	18121.55	17182.85
838.4076	808.2282	18064.2	17127.55
838.5527	810.2916	17974.7	17038.6
838.6978	812.3544	17894.3	16962.15
838.8428	814.4164	17766.15	16832.8
838.9879	816.4778	17849	16907.6
839.133	818.5385	17829.4	16886.35
839.2781	820.5986	17915.45	16974.2
839.4232	822.658	18042.3	17104.45
839.5682	824.7166	18089.6	17152.05
839.7133	826.7747	18352.6	17411.25
839.8584	828.832	18524	17584.65
840.0035	830.8886	18626.15	17683.2
840.1486	832.9446	18789.95	17847.8
840.2937	834.9999	18791.55	17853.05
840.4388	837.0545	18881.1	17937.9
840.5839	839.1085	18917.85	17975.7
840.729	841.1618	18899.1	17953.35
840.8741	843.2143	18884.4	17938.85
841.0192	845.2662	18763.3	17825.95
841.1643	847.3175	18744.35	17801.85
841.3095	849.368	18648.5	17703.3
841.4546	851.4179	18545.45	17604.1
841.5997	853.467	18375.05	17434.35
841.7448	855.5155	18288.95	17349.2
841.8899	857.5633	18201.35	17260.7
842.0351	859.6105	18114.3	17168.95
842.1802	861.6569	18054.45	17108.1
842.3253	863.7027	18034.7	17089.65
842.4704	865.7478	18039.4	17095.65
842.6156	867.7922	18037.15	17091.2
842.7607	869.8359	18088.85	17142.85
842.9058	871.8789	18243.15	17300.3
843.0509	873.9212	18438.8	17461.7
843.1961	875.9629	18554.25	17607.25
843.3412	878.0039	18755.5	17812.25
843.4863	880.0441	18868.55	17925.85
843.6315	882.0837	18921.65	17980.5
843.7766	884.1226	18800.95	17856.95
843.9218	886.1609	18691.3	17753.45
844.0669	888.1984	18603.85	17659.9
844.212	890.2352	18615.25	17668.6
844.3572	892.2714	18564.85	17612.8
844.5023	894.3069	18553.4	17607.2
844.6475	896.3416	18471.5	17525.3
844.7926	898.3757	18477.7	17533.7
844.9377	900.4091	18460.1	17515.6
845.0829	902.4418	18509.45	17554.25
845.228	904.4739	18520	17565.95
845.3732	906.5052	18520.35	17569.25
845.5183	908.5358	18409.8	17460.6
845.6635	910.5658	18312.1	17362.2
845.8086	912.595	18170.65	17224.9
845.9538	914.6236	18022.25	17074.45
846.0989	916.6515	17993.95	17047.05
846.2441	918.6786	17978.5	17030.15
846.3892	920.7051	18054.85	17103.2
846.5344	922.7309	18216.1	17269.05
846.6795	924.756	18237.6	17287.45
846.8246	926.7804	18365.7	17415.75
846.9698	928.8041	18286.25	17335.1
847.1149	930.8272	18343.7	17395.85
847.2601	932.8495	18237.25	17290.55
847.4052	934.8711	18226.9	17277.3
847.5504	936.892	18072.35	17122.45
847.6955	938.9123	17895.7	16948.4
847.8407	940.9318	17785	16833.4
847.9858	942.9506	17678.35	16727.45
848.131	944.9688	17580.8	16634.5
848.2761	946.9862	17547.2	16599.95
848.4213	949.003	17473.15	16525.65
848.5664	951.019	17504.8	16555.15
848.7115	953.0344	17510.65	16560.85
848.8567	955.0491	17551.7	16603.7
849.0018	957.063	17659.95	16707.15
849.147	959.0763	17790.45	16843.85
849.2921	961.0888	17840.05	16890.25
849.4373	963.1007	17896.85	16953.6
849.5824	965.1119	17968.2	17031.9
849.7275	967.1223	18000.2	17065.8
849.8727	969.1321	18030	17100.65
850.0178	971.1412	18077	17137.4
850.1629	973.1495	18101.5	17155.05
850.3081	975.1572	18187.05	17199.35
850.4532	977.1641	18209.2	17260.3
850.5983	979.1704	18169.5	17215.7
850.7435	981.1759	18173.6	17225.15
850.8886	983.1808	18207.3	17258.15
851.0337	985.1849	18320.9	17366.4
851.1788	987.1884	18496.35	17543.15
851.324	989.1911	18686.75	17738.55
851.4691	991.1932	18807.45	17863.5
851.6142	993.1945	18844.4	17900.25
851.7593	995.1951	18789.05	17840.9
851.9045	997.1951	18756.4	17801.45
852.0496	999.1943	18702.4	17754.9
852.1947	1001.1928	18648.65	17696.15
852.3398	1003.1906	18613.9	17665.4
852.4849	1005.1877	18677.35	17730.2
852.63	1007.1841	18613.75	17663.25
852.7751	1009.1798	18529.6	17582.8
852.9202	1011.1748	18327.3	17380.55
853.0653	1013.1691	18153.6	17203.7
853.2104	1015.1627	17961.95	17016.15
853.3555	1017.1556	17713.15	16768.05
853.5006	1019.1477	17629	16686.75
853.6457	1021.1392	17527.1	16588.25
853.7908	1023.1299	17521	16584.45
853.9359	1025.12	17523.05	16593.6
854.081	1027.1093	17527.15	16609.8
854.2261	1029.0979	17672.4	16754.5
854.3712	1031.0859	17733.9	16810.5
854.5163	1033.0731	17724	16793.55
854.6613	1035.0596	17682.25	16747.1
854.8064	1037.0454	17511.2	16570.5
854.9515	1039.0304	17381.95	16437.45
855.0965	1041.0148	17235	16294.5
855.2416	1042.9985	17182.4	16235.2
855.3867	1044.9814	17153.7	16209.25
855.5317	1046.9636	17088.6	16145.85
855.6768	1048.9452	17097.75	16153.2
855.8219	1050.926	17119.3	16172.8
855.9669	1052.9061	17102.25	16159.25
856.112	1054.8855	17055.8	16111.35
856.257	1056.8642	17098.35	16149.8
856.4021	1058.8421	17195.75	16243.2
856.5471	1060.8194	17202.1	16256.6
856.6921	1062.7959	17233	16286.9
856.8372	1064.7717	17271.3	16319.9
856.9822	1066.7469	17288.2	16342.3
857.1272	1068.7213	17282.35	16330.6
857.2723	1070.695	17254.95	16307.75
857.4173	1072.6679	17181	16231.25
857.5623	1074.6402	17129	16178.4
857.7073	1076.6117	17135.3	16182.9
857.8523	1078.5826	17146.75	16197.25
857.9973	1080.5527	17165.45	16214.35
858.1423	1082.5221	17257.65	16313.45
858.2873	1084.4908	17454.75	16509.3
858.4323	1086.4587	17670.15	16721.3
858.5773	1088.426	17804.65	16860.55
858.7223	1090.3925	17780.75	16829.85
858.8673	1092.3584	17757.9	16807.5
859.0123	1094.3235	17574.75	16630.65
859.1573	1096.2879	17513	16567.8
859.3022	1098.2515	17477.05	16531.4
859.4472	1100.2145	17531.25	16586.5
859.5922	1102.1767	17624.45	16679.3
859.7371	1104.1382	17796.8	16852.55
859.8821	1106.099	17990.35	17043.9
860.027	1108.0591	18175.05	17231.85
860.172	1110.0185	18336.3	17385.15
860.3169	1111.9771	18344.95	17399.35
860.4619	1113.9351	18136.45	17193.45
860.6068	1115.8923	17811.7	16863.6
860.7517	1117.8488	17504.85	16558.35
860.8967	1119.8045	17259.75	16318.35
861.0416	1121.7596	17117.95	16174.3
861.1865	1123.7139	17039.4	16093.85
861.3314	1125.6675	17020.15	16077.7
861.4763	1127.6204	17140.05	16196.7
861.6212	1129.5726	17114.35	16168.85
861.7661	1131.524	17093.55	16151.3
861.911	1133.4748	17111.3	16167.4
862.0559	1135.4248	17060.85	16114.5
862.2008	1137.3741	17133.9	16191.85
862.3457	1139.3226	17064.25	16115.6
862.4905	1141.2705	17045.2	16099.8
862.6354	1143.2176	16905.45	15954.35
862.7803	1145.164	16978.5	16034.85
862.9251	1147.1097	16978	16031.75
863.07	1149.0546	17002.55	16057.55
863.2148	1150.9989	16927.1	15981.55
863.3597	1152.9424	16774.2	15829.55
863.5045	1154.8852	16576.45	15631.45
863.6493	1156.8272	16452.4	15510.1
863.7942	1158.7686	16429.1	15475.45
863.939	1160.7092	16378.95	15432.8
864.0838	1162.6491	16334.8	15388.7
864.2286	1164.5883	16437.5	15493.7
864.3734	1166.5267	16525.05	15581.5
864.5182	1168.4644	16659.3	15716.35
864.663	1170.4014	16833.35	15885.75
864.8078	1172.3377	17090.25	16149.55
864.9526	1174.2732	17276.55	16337.45
865.0974	1176.2081	17523.4	16579.85
865.2421	1178.1421	17736.45	16792.7
865.3869	1180.0755	17943.4	17003.1
865.5317	1182.0082	17984.25	17042.75
865.6764	1183.9401	18024.75	17085.85
865.8212	1185.8713	17814.25	16878.55
865.9659	1187.8017	17613.75	16684.3
866.1106	1189.7315	17365.15	16444.35
866.2554	1191.6605	17051.45	16131.05
866.4001	1193.5888	16867.3	15942.5
866.5448	1195.5163	16757.9	15825.4
866.6895	1197.4432	16649.3	15710.4
866.8342	1199.3693	16592.65	15652.45
866.9789	1201.2947	16505.65	15558.95
867.1236	1203.2193	16499.9	15561.35
867.2683	1205.1432	16515.5	15573.5
867.413	1207.0664	16526.95	15587.55
867.5576	1208.9889	16584	15641.45
867.7023	1210.9106	16617.3	15672.55
867.847	1212.8316	16676.8	15739.4
867.9916	1214.7519	16753.4	15802
868.1363	1216.6715	16727.85	15788.15
868.2809	1218.5903	16735.45	15794.05
868.4255	1220.5084	16688.9	15745.6
868.5701	1222.4257	16674.3	15735.6
868.7148	1224.3424	16603.65	15668.55
868.8594	1226.2583	16669.4	15728.55
869.004	1228.1735	16727.35	15786.8
869.1486	1230.0879	16813	15872.9
869.2932	1232.0016	16968.5	16027.8
869.4377	1233.9146	16964.8	16023.45
869.5823	1235.8269	16868.75	15931
869.7269	1237.7384	16766.05	15825.7
869.8715	1239.6492	16527.05	15587.7
870.016	1241.5592	16477.3	15536.1
870.1606	1243.4686	16362.4	15423.7
870.3051	1245.3772	16375.6	15437.4
870.4496	1247.285	16289.55	15350.4
870.5941	1249.1922	16267.8	15329.1
870.7387	1251.0986	16272.1	15334.35
870.8832	1253.0042	16258.65	15321.75
871.0277	1254.9092	16262.3	15324
871.1722	1256.8134	16335	15399.8
871.3167	1258.7169	16540.45	15605.85
871.4611	1260.6196	16637.4	15701.5
871.6056	1262.5216	16825.5	15885.3
871.7501	1264.4229	16996.1	16057.75
871.8945	1266.3234	17156.8	16220.95
872.039	1268.2232	17166.4	16227.1
872.1834	1270.1223	17186.85	16247.95
872.3278	1272.0207	17185.15	16248.2
872.4723	1273.9183	17143.7	16198.5
872.6167	1275.8151	17051.75	16114.65
872.7611	1277.7113	17001.3	16062.45
872.9055	1279.6067	16839.5	15905.85
873.0499	1281.5014	16709.2	15772.8
873.1943	1283.3953	16642.65	15702.95
873.3386	1285.2885	16619.25	15683.65
873.483	1287.181	16648	15713.45
873.6274	1289.0727	16702.7	15769.4
873.7717	1290.9637	16771.05	15834.8
873.9161	1292.854	16915.7	15979.95
874.0604	1294.7435	17047.9	16110.95
874.2047	1296.6323	17276.8	16339.05
874.349	1298.5204	17489.4	16548.9
874.4933	1300.4077	17680.15	16742.65
874.6376	1302.2943	17864.3	16927.4
874.7819	1304.1802	17924.1	16987.75
874.9262	1306.0653	17823.15	16884.3
875.0705	1307.9497	17630.85	16696.7
875.2147	1309.8333	17501.65	16567.7
875.359	1311.7162	17404.05	16466
875.5032	1313.5984	17392.1	16453.95
875.6475	1315.4798	17445	16499.3
875.7917	1317.3605	17574.7	16622.6
875.9359	1319.2405	17624.25	16684.75
876.0801	1321.1197	17569.2	16630.9
876.2243	1322.9982	17473.5	16533.95
876.3685	1324.876	17391.3	16456.5
876.5127	1326.753	17319.6	16383.1
876.6569	1328.6293	17287.7	16348.25
876.801	1330.5048	17320.05	16378.05
876.9452	1332.3796	17276.4	16337.35
877.0893	1334.2537	17226.2	16263.55
877.2335	1336.127	17171.15	16235.35
877.3776	1337.9996	17110.35	16178.55
877.5217	1339.8714	17072.05	16131.05
877.6658	1341.7426	17054	16073
877.8099	1343.6129	16977.65	16036.15
877.954	1345.4826	16920.8	15981.9
878.0981	1347.3515	16896.75	15955.75
878.2422	1349.2196	16817.35	15883.1
878.3862	1351.087	16812.6	15873.65
878.5303	1352.9537	16868.65	15930.7
878.6743	1354.8197	16994.1	16054.35
878.8184	1356.6849	17133.5	16199.2
878.9624	1358.5493	17196	16263.65
879.1064	1360.4131	17236.9	16300.65
879.2504	1362.276	17160.35	16225.05
879.3944	1364.1383	17009.35	16074
879.5384	1365.9998	16790.65	15848.25
879.6823	1367.8606	16458.5	15520.3
879.8263	1369.7206	16175.2	15236.7
879.9702	1371.5799	15940.5	15000.6
880.1142	1373.4384	15785.3	14847.6
880.2581	1375.2962	15664.4	14728.5
880.402	1377.1533	15353.05	14418.9
880.5459	1379.0096	15045.6	14114.65
880.6898	1380.8652	14754.3	13824.55
880.8337	1382.7201	14527.2	13594.2
880.9776	1384.5742	14303.6	13368.75
881.1215	1386.4275	14098.1	13162.55
881.2653	1388.2802	13962.9	13030.05
881.4092	1390.132	13853.75	12918.6
881.553	1391.9832	13798.5	12859.35
881.6968	1393.8336	13672.4	12735.35
881.8406	1395.6832	13660.3	12722.95
881.9844	1397.5322	13587.35	12652.5
882.1282	1399.3803	13533.3	12593.85
882.272	1401.2278	13514.4	12580.9
882.4158	1403.0745	13482.3	12547.95
882.5595	1404.9204	13448.75	12516.3
882.7033	1406.7656	13474	12537.35
882.847	1408.6101	13431.65	12494.7
882.9908	1410.4538	13462.3	12524.2
883.1345	1412.2968	13476.75	12539.95
883.2782	1414.139	13486.25	12552.45
883.4219	1415.9805	13563.75	12632.25
883.5656	1417.8213	13625.5	12687.1
883.7092	1419.6613	13742.7	12811.1
883.8529	1421.5006	13909.5	12976.2
883.9965	1423.3391	14150.25	13215.7
884.1402	1425.1769	14439.7	13504.05
884.2838	1427.0139	14927.9	13995.2
884.4274	1428.8502	15508.7	14575
884.571	1430.6858	16069.15	15133.45
884.7146	1432.5206	16463.3	15532.8
884.8582	1434.3547	16674.9	15742.75
885.0018	1436.188	16719.65	15787.6
885.1453	1438.0206	16640.95	15709
885.2889	1439.8524	16460.55	15526.65
885.4324	1441.6835	16375.85	15443.15
885.5759	1443.5139	16285.75	15350.95
885.7194	1445.3435	16200.65	15267.65
885.8629	1447.1724	16116.1	15186.4
886.0064	1449.0005	16034.3	15102.6
886.1499	1450.8279	15930.1	14999.95
886.2933	1452.6545	15914.25	14983.95
886.4368	1454.4804	15915.9	14987.85
886.5802	1456.3056	15909.85	14974.8
886.7237	1458.13	15807.15	14879.4
886.8671	1459.9536	15601.85	14668.05
887.0105	1461.7766	15208.3	14278.05
887.1539	1463.5987	14790.75	13856.35
887.2972	1465.4202	14424.6	13490.95
887.4406	1467.2409	14071.65	13141.55
887.584	1469.0608	13773.45	12844.95
887.7273	1470.88	13506.35	12574.5
887.8706	1472.6984	13314.4	12384.7
888.0139	1474.5161	13082.95	12149.7
888.1572	1476.3331	12854.4	11924.85
888.3005	1478.1493	12767.65	11835.1
888.4438	1479.9648	12661.35	11730.5
888.5871	1481.7795	12536.15	11602.75
888.7303	1483.5935	12483.05	11554.2
888.8736	1485.4067	12422.55	11494.15
889.0168	1487.2192	12343.85	11412.7
889.16	1489.031	12301.9	11370
889.3032	1490.842	12258.15	11329.6
889.4464	1492.6522	12245.75	11317.15
889.5896	1494.4618	12173.15	11244.3
889.7327	1496.2705	12165.3	11234.2
889.8759	1498.0785	12107.8	11176.45
890.019	1499.8858	12099.65	11169
890.1622	1501.6924	12031.8	11100.45
890.3053	1503.4981	11988.15	11060.05
890.4484	1505.3032	11964.8	11037.8
890.5914	1507.1075	11937.2	11006.35
890.7345	1508.911	11865.3	10934.3
890.8776	1510.7138	11828.8	10896.75
891.0206	1512.5159	11774.35	10844.9
891.1637	1514.3172	11720.6	10792.75
891.3067	1516.1178	11654.35	10727.45
891.4497	1517.9176	11650.05	10719.5
891.5927	1519.7166	11563.7	10636
891.7357	1521.515	11557.35	10625.55
891.8786	1523.3126	11501.2	10572.85
892.0216	1525.1094	11472.05	10541.75
892.1645	1526.9055	11432.3	10506.1
892.3074	1528.7008	11382.35	10457.25
892.4503	1530.4954	11316.85	10390.4
892.5932	1532.2893	11313.6	10389.1
892.7361	1534.0824	11243	10318.25
892.879	1535.8747	11239	10316.95
893.0218	1537.6663	11201.7	10281.9
893.1647	1539.4572	11181.9	10256.9
893.3075	1541.2473	11168.65	10243.3
893.4503	1543.0367	11162.8	10240.15
893.5931	1544.8253	11142.3	10213.45
893.7359	1546.6132	11143.05	10217.6
893.8787	1548.4003	11130.5	10200
894.0214	1550.1867	11119.2	10190.5
894.1642	1551.9723	11134.95	10209.4
894.3069	1553.7572	11142.45	10221.75
894.4496	1555.5414	11156.35	10238.15
894.5923	1557.3247	11225.8	10309.2
894.735	1559.1074	11267.55	10353.35
894.8777	1560.8893	11323.05	10407.5
895.0204	1562.6705	11370.7	10456.4
895.163	1564.4509	11454.45	10540.35
895.3056	1566.2305	11485.05	10576.8
895.4482	1568.0094	11529.25	10617
895.5908	1569.7876	11565.15	10649.85
895.7334	1571.565	11633.85	10717.45
895.876	1573.3417	11610.55	10695.05
896.0186	1575.1176	11569.6	10655.4
896.1611	1576.8928	11541.8	10630.85
896.3036	1578.6672	11427.35	10524.1
896.4461	1580.4409	11328.7	10424.75
896.5886	1582.2138	11197.55	10288.25
896.7311	1583.986	11081.2	10171.5
896.8736	1585.7575	11007.15	10096.8
897.0161	1587.5282	10953.7	10045.35
897.1585	1589.2981	10881.45	9974.05
897.3009	1591.0673	10814.9	9911.8
897.4433	1592.8358	10829.1	9924.4
897.5857	1594.6035	10838.05	9927.15
897.7281	1596.3704	10845.35	9931.25
897.8705	1598.1366	10836.6	9925.65
898.0128	1599.9021	10866.35	9957.55
898.1551	1601.6668	10909.8	10001.8
898.2975	1603.4308	10939.85	10026.3
898.4398	1605.194	11022.1	10110.1
898.5821	1606.9564	11150	10248.7
898.7243	1608.7182	11255.25	10357.15
898.8666	1610.4791	11388	10495.35
899.0088	1612.2394	11527.75	10634.55
899.1511	1613.9988	11715.5	10818.75
899.2933	1615.7576	11895	10992.7
899.4355	1617.5156	12145.7	11231.35
899.5776	1619.2728	12326.25	11414.85
899.7198	1621.0293	12437.1	11527.55
899.862	1622.785	12448.8	11538.3
900.0041	1624.54	12355.35	11454.15
900.1462	1626.2942	12194.6	11293.5
900.2883	1628.0477	11940	11037.45
900.4304	1629.8005	11707.8	10804.7
900.5725	1631.5525	11460.8	10559.1
900.7145	1633.3037	11305.75	10404.4
900.8566	1635.0542	11138	10237.45
900.9986	1636.804	11029.8	10127.15
901.1406	1638.553	11013.4	10017.65
901.2826	1640.3013	10918	10014.95
901.4245	1642.0488	10851.45	9948.95
901.5665	1643.7955	10896.4	9996.4
901.7085	1645.5416	10924.6	10026.75
901.8504	1647.2868	10997.5	10098.45
901.9923	1649.0313	11063.2	10157.7
902.1342	1650.7751	11202.9	10298.2
902.2761	1652.5181	11339.8	10440.4
902.4179	1654.2604	11536	10635.9
902.5598	1656.0019	11771.7	10873.7
902.7016	1657.7427	12107.5	11206.8
902.8434	1659.4828	12377.65	11476.95
902.9852	1661.222	12577.45	11674.4
903.127	1662.9606	12565.55	11662.85
903.2687	1664.6984	12383.35	11480.5
903.4105	1666.4354	11990.55	11083.15
903.5522	1668.1717	11498.4	10590
903.6939	1669.9072	10979.7	10075.4
903.8356	1671.642	10554.2	9646.3
903.9773	1673.3761	10248.45	9346.8
904.119	1675.1094	9952.85	9050.95
904.2606	1676.8419	9740.8	8836.2
904.4022	1678.5737	9524	8619.95
904.5439	1680.3048	9435.5	8529.65
904.6855	1682.0351	9302.05	8398.75
904.827	1683.7646	9184.75	8278.7
904.9686	1685.4934	9147.7	8245.5
905.1101	1687.2215	9056.65	8155.5
905.2517	1688.9488	8977.4	8079.95
905.3932	1690.6754	8933.85	8033.8
905.5347	1692.4012	8922.2	8019.4
905.6761	1694.1263	8856.7	7952.75
905.8176	1695.8506	8824.55	7921.6
905.9591	1697.5742	8765.45	7863.85
906.1005	1699.297	8727	7830.5
906.2419	1701.0191	8683.05	7787.3
906.3833	1702.7404	8639.7	7745.3
906.5246	1704.461	8586.6	7687.65
906.666	1706.1808	8531.1	7632.85
906.8073	1707.8999	8518.3	7619.6
906.9487	1709.6182	8470.25	7577.95
907.09	1711.3358	8455	7566
907.2313	1713.0527	8422.3	7532.75
907.3725	1714.7688	8374.9	7475.9
907.5138	1716.4841	8344	7445.4
907.655	1718.1987	8333.1	7428.7
907.7962	1719.9126	8278	7385.25
907.9374	1721.6257	8258.8	7363.85
908.0786	1723.338	8222.45	7331.15
908.2198	1725.0496	8204.4	7309.35
908.3609	1726.7605	8192.9	7296.2
908.502	1728.4706	8153.35	7258.35
908.6431	1730.18	8120.1	7226.5
908.7842	1731.8886	8105.95	7215.1
908.9253	1733.5964	8097.4	7185.3
909.0664	1735.3036	8052.85	7157.05
909.2074	1737.0099	8011.3	7119.25
909.3484	1738.7156	8000.2	7111.7
909.4894	1740.4204	7952.45	7058.5
909.6304	1742.1246	7946.45	7049.35
909.7714	1743.8279	7903.55	7012.55
909.9123	1745.5306	7888.6	6994.65
910.0532	1747.2325	7886.5	6996.45
910.1941	1748.9336	7832.4	6939.25
910.335	1750.634	7810.1	6913.45
910.4759	1752.3336	7807.7	6916.25
910.6168	1754.0325	7770.65	6883.9
910.7576	1755.7307	7755.4	6863.25
910.8984	1757.4281	7763.1	6871.35
911.0392	1759.1247	7749.95	6846.25
911.18	1760.8206	7727	6826.1
911.3208	1762.5158	7706.7	6805.4
911.4615	1764.2102	7662.05	6766.2
911.6022	1765.9039	7648.05	6756
911.7429	1767.5968	7640.95	6752.4
911.8836	1769.289	7600.8	6710.25
912.0243	1770.9804	7583.8	6689.3
912.1649	1772.6711	7576.5	6679.25
912.3056	1774.361	7548.05	6652.15
912.4462	1776.0502	7521	6625.9
912.5868	1777.7386	7522.75	6627.25
912.7274	1779.4263	7470.65	6576.65
912.8679	1781.1132	7474.9	6587.5
913.0084	1782.7994	7425.15	6534.6
913.149	1784.4849	7436.35	6551.45
913.2895	1786.1696	7422	6527.8
913.4299	1787.8535	7401.35	6516.45
913.5704	1789.5367	7368.05	6480.5
913.7108	1791.2192	7368.15	6479.55
913.8513	1792.9009	7344.5	6429.15
913.9917	1794.5818	7327.95	6435.05
914.132	1796.2621	7322.8	6429.7
914.2724	1797.9415	7289.8	6395.15
914.4128	1799.6202	7272.7	6378.95
914.5531	1801.2982	7253.5	6360.25
914.6934	1802.9755	7237.95	6343.35
914.8337	1804.6519	7231.1	6338.8
914.9739	1806.3277	7172.85	6283.55
915.1142	1808.0027	7150.65	6264.25
915.2544	1809.6769	7147.9	6260.9
915.3946	1811.3504	7146.65	6260.8
915.5348	1813.0231	7132.45	6247.6
915.675	1814.6951	7108.85	6220.45
915.8151	1816.3664	7124.6	6231.55
915.9553	1818.0369	7099.6	6206.4
916.0954	1819.7067	7067.4	6176.1
916.2355	1821.3757	7072.25	6175.25
916.3755	1823.044	7063.05	6171.2
916.5156	1824.7115	7024.15	6130
916.6556	1826.3783	7007.85	6117.25
916.7956	1828.0443	6978.7	6087.2
916.9356	1829.7096	6975.1	6082.9
917.0756	1831.3741	6947.7	6054.7
917.2155	1833.0379	6936.7	6047.15
917.3555	1834.701	6907.15	6017.6
917.4954	1836.3633	6895.95	6009.4
917.6353	1838.0248	6874.55	5986.75
917.7751	1839.6856	6863.05	5972.8
917.915	1841.3457	6878.4	5987
918.0548	1843.005	6862.7	5967.75
918.1946	1844.6636	6849.9	5958.6
918.3344	1846.3214	6826.25	5933.3
918.4742	1847.9785	6851.55	5962.35
918.6139	1849.6349	6799	5906.75
918.7537	1851.2904	6809.9	5908.55
918.8934	1852.9453	6778.7	5884.7
919.0331	1854.5994	6748.15	5851.9
919.1727	1856.2528	6758.65	5859.8
919.3124	1857.9054	6731.55	5837.5
919.452	1859.5572	6724.55	5834.7
919.5916	1861.2083	6697.9	5805.8
919.7312	1862.8587	6699.55	5806.4
919.8708	1864.5084	6671.85	5776.75
920.0103	1866.1572	6652.3	5757.4
920.1498	1867.8054	6623.9	5729.6
920.2893	1869.4528	6617.4	5722.2
920.4288	1871.0994	6597.4	5704.55
920.5683	1872.7453	6591.9	5698.6
920.7077	1874.3905	6593.5	5685.15
920.8471	1876.0349	6564.85	5671.15
920.9865	1877.6786	6557.25	5663.5
921.1259	1879.3215	6539.85	5648.4
921.2653	1880.9637	6520.2	5628.4
921.4046	1882.6051	6523.25	5635.1
921.5439	1884.2458	6504.1	5613.55
921.6832	1885.8858	6469.5	5580.15
921.8225	1887.525	6462.1	5571.1
921.9617	1889.1634	6439.05	5548.4
922.101	1890.8011	6406.9	5512.15
922.2402	1892.4381	6402.7	5511.05
922.3794	1894.0743	6378.95	5488.7
922.5185	1895.7098	6380.5	5489.2
922.6577	1897.3446	6354.3	5465.5
922.7968	1898.9786	6358.2	5461.7
922.9359	1900.6118	6318.95	5430.7
923.075	1902.2443	6295.2	5406.85
923.214	1903.8761	6297	5406.4
923.3531	1905.5071	6254.45	5362.45
923.4921	1907.1374	6235.9	5343.9
923.6311	1908.7669	6250.4	5361.75
923.77	1910.3957	6236.5	5347
923.909	1912.0237	6212.1	5322.2
924.0479	1913.651	6186.7	5295.05
924.1868	1915.2776	6154.1	5265
924.3257	1916.9034	6151.85	5265.65
924.4646	1918.5285	6119.3	5233.8
924.6034	1920.1528	6078.7	5190.05
924.7422	1921.7764	6092.1	5203.75
924.881	1923.3992	6054.85	5166.2
925.0198	1925.0213	6028.4	5138
925.1586	1926.6427	5997.35	5108.45
925.2973	1928.2633	6089.75	5100.05
925.436	1929.8832	6008.75	5115.5
925.5747	1931.5023	5963	5074.85
925.7134	1933.1207	5934	5045.3
925.852	1934.7383	5959.75	5069.7
925.9906	1936.3552	5910.7	5022.2
926.1292	1937.9714	5902.1	5014.6
926.2678	1939.5868	5878.55	4985.85
926.4064	1941.2015	5860.25	4970.25
926.5449	1942.8154	5838.95	4947.35
926.6834	1944.4286	5828.4	4936.65
926.8219	1946.041	5812.9	4895.55
926.9604	1947.6528	5784.8	4890.7
927.0988	1949.2637	5758.9	4868.9
927.2372	1950.8739	5746.1	4854.95
927.3756	1952.4834	5726.9	4835.6
927.514	1954.0921	5717	4828.15
927.6523	1955.7001	5691.85	4797.5
927.7907	1957.3074	5663.95	4778
927.929	1958.9139	5646.25	4762.3
928.0673	1960.5197	5643.55	4756.3
928.2055	1962.1247	5638	4751.85
928.3438	1963.729	5591.05	4705.15
928.482	1965.3325	5584.2	4696.9
928.6202	1966.9353	5551.5	4667.85
928.7584	1968.5374	5562.15	4678.2
928.8965	1970.1387	5523.95	4638.3
929.0346	1971.7393	5505.15	4620.25
929.1727	1973.3392	5469.55	4584.75
929.3108	1974.9383	5464	4581.05
929.4489	1976.5366	5457.55	4574.1
929.5869	1978.1342	5432.65	4548.9
929.7249	1979.7311	5410.9	4525.9
929.8629	1981.3273	5412.5	4529.35
930.0009	1982.9227	5400.9	4516.45
930.1388	1984.5173	5369.8	4488.8
930.2767	1986.1112	5361.5	4479.15
930.4146	1987.7044	5356	4473.75
930.5525	1989.2968	5338.35	4455.85
930.6904	1990.8885	5320.5	4433.5
930.8282	1992.4795	5311.5	4431.2
930.966	1994.0697	5290.35	4408.75
931.1038	1995.6592	5274.3	4393
931.2415	1997.2479	5269.15	4385.75
931.3793	1998.8359	5251	4368.05
931.517	2000.4232	5224.9	4347.95
931.6547	2002.0097	5203.55	4327.65
931.7923	2003.5955	5178	4299.4
931.93	2005.1805	5171.5	4290.85
932.0676	2006.7648	5175.45	4297.05
932.2052	2008.3484	5150.1	4269.4
932.3427	2009.9312	5163.5	4284.45
932.4803	2011.5133	5132	4256.25
932.6178	2013.0946	5110.95	4234.45
932.7553	2014.6752	5115.7	4238.15
932.8928	2016.2551	5104.5	4226.75
933.0302	2017.8342	5083.5	4205.4
933.1676	2019.4126	5077.6	4199
933.305	2020.9902	5065.75	4188.1
933.4424	2022.5672	5039.8	4163.55
933.5798	2024.1433	5018.55	4136.8
933.7171	2025.7188	5006	4131.95
933.8544	2027.2935	5000.75	4125.35
933.9917	2028.8674	4972.95	4096.25
934.129	2030.4406	4956.4	4081.6
934.2662	2032.0131	4956.5	4082.25
934.4034	2033.5849	4934.55	4055.25
934.5406	2035.1559	4910.6	4036.55
934.6778	2036.7261	4901.45	4024.55
934.8149	2038.2957	4909.15	4028.45
934.952	2039.8645	4911.6	4029.1
935.0891	2041.4325	4888.15	4003.75
935.2262	2042.9998	4858.55	3980.8
935.3632	2044.5664	4865.7	3985.1
935.5002	2046.1323	4864.85	3988.4
935.6372	2047.6974	4846.65	3970.1
935.7742	2049.2617	4832.25	3957.35
935.9111	2050.8254	4836.9	3955.3
936.048	2052.3883	4813.6	3935.55
936.1849	2053.9504	4808.5	3927.4
936.3218	2055.5118	4799.5	3919.45
936.4586	2057.0725	4765.5	3883
936.5955	2058.6325	4768.1	3888.35
936.7323	2060.1917	4747	3868.75
936.869	2061.7502	4743.3	3862.9
937.0058	2063.3079	4718.2	3843.2
937.1425	2064.8649	4693.15	3813.45
937.2792	2066.4212	4699.5	3821.65
937.4159	2067.9767	4679.05	3800.25
937.5525	2069.5315	4671.7	3792.9
937.6891	2071.0856	4662.4	3782.7
937.8257	2072.6389	4644.65	3767.5
937.9623	2074.1915	4608.95	3734.4
938.0989	2075.7433	4621.2	3741.4
938.2354	2077.2945	4606.75	3729.8
938.3719	2078.8448	4605.65	3725.1
938.5084	2080.3945	4581.7	3702.2
938.6448	2081.9434	4566.45	3684.75
938.7812	2083.4916	4565.35	3684.8
938.9176	2085.039	4559.7	3673.95
939.054	2086.5857	4541.95	3655.2
939.1903	2088.1317	4529.5	3642.55
939.3267	2089.677	4524.15	3635.9
939.463	2091.2215	4508.7	3622.2
939.5992	2092.7652	4498.75	3611.15
939.7355	2094.3083	4475.3	3590.8
939.8717	2095.8506	4473	3588.1
940.0079	2097.3921	4461.5	3578.5
940.1441	2098.933	4467.3	3583.8
940.2802	2100.4731	4452.3	3569.4
940.4163	2102.0124	4463.9	3563.3
940.5524	2103.5511	4429.15	3545.6
940.6885	2105.089	4420.5	3536.45
940.8245	2106.6261	4414.3	3531.7
940.9606	2108.1626	4397	3515.25
941.0965	2109.6983	4415.2	3505.25
941.2325	2111.2332	4397.15	3513.1
941.3684	2112.7675	4371.65	3488.1
941.5044	2114.301	4369.95	3483.95
941.6403	2115.8337	4362.9	3478.95
941.7761	2117.3657	4342.4	3457.15
941.912	2118.897	4339.3	3454.45
942.0478	2120.4276	4331	3439.7
942.1835	2121.9575	4302.7	3417.7
942.3193	2123.4866	4326.6	3427.3
942.455	2125.0149	4297.05	3411.1
942.5907	2126.5426	4257.65	3378.4
942.7264	2128.0695	4259.1	3376.85
942.8621	2129.5956	4259.8	3383.05
942.9977	2131.1211	4248.15	3364.95
943.1333	2132.6458	4244.15	3363.15
943.2689	2134.1698	4249.35	3363.6
943.4044	2135.693	4222.4	3332.65
943.54	2137.2155	4233.95	3344.3
943.6755	2138.7373	4216	3332.05
943.8109	2140.2584	4195.5	3314.8
943.9464	2141.7787	4170.2	3288.7
944.0818	2143.2983	4139.15	3261.6
944.2172	2144.8171	4127.8	3251.65
944.3526	2146.3353	4120.05	3237.8
944.4879	2147.8527	4125.15	3247.15
944.6232	2149.3693	4125.2	3241.7
944.7585	2150.8853	4105.75	3221.95
944.8938	2152.4005	4098.8	3215.25
945.029	2153.9149	4095.35	3210.2
945.1642	2155.4287	4073.65	3187.5
945.2994	2156.9417	4073.95	3191.1
945.4346	2158.454	4065.15	3183.2
945.5697	2159.9655	4064.65	3185.15
945.7048	2161.4764	4044.2	3162
945.8399	2162.9865	4029.3	3148.9
945.9749	2164.4958	4028	3145.25
946.1099	2166.0045	4002	3118.65
946.2449	2167.5124	4022.55	3140.85
946.3799	2169.0195	4003.15	3119.75
946.5148	2170.526	3997.3	3111.75
946.6498	2172.0317	3979.8	3098.15
946.7846	2173.5367	3984.2	3101.1
946.9195	2175.0409	3962.65	3080.2
947.0543	2176.5445	3977.5	3093.8
947.1891	2178.0473	3948.4	3062.35
947.3239	2179.5494	3936.1	3047.3
947.4587	2181.0507	3922.75	3039.15
947.5934	2182.5513	3916.35	3033.7
947.7281	2184.0512	3909.9	3024.7
947.8628	2185.5504	3885.55	3003.4
947.9974	2187.0488	3877.2	2997.95
948.132	2188.5465	3876.5	2996.9
948.2666	2190.0435	3879.05	2998.65
948.4012	2191.5397	3861.35	2978.3
948.5357	2193.0353	3850.8	2967.15
948.6702	2194.5301	3830.85	2943
948.8047	2196.0241	3818.9	2928.9
948.9392	2197.5175	3810.05	2921.65
949.0736	2199.0101	3802.25	2909.75
949.208	2200.502	3793.75	2908.05
949.3424	2201.9931	3784.25	2901.95
949.4767	2203.4835	3770.1	2887.85
949.611	2204.9733	3764.4	2882.4
949.7453	2206.4622	3753.55	2875.95
949.8796	2207.9505	3740.6	2859.1
950.0138	2209.438	3717.15	2840.65
950.148	2210.9248	3712	2832.35
950.2822	2212.4109	3715.2	2835.45
950.4164	2213.8962	3704.4	2817.1
950.5505	2215.3809	3695	2805.15
950.6846	2216.8648	3688.75	2800.35
950.8186	2218.3479	3685.3	2790.4
950.9527	2219.8304	3658.35	2765.15
951.0867	2221.3121	3654.95	2759.5
951.2207	2222.7931	3638.45	2750.35
951.3546	2224.2733	3629.55	2742.05
951.4886	2225.7529	3617.95	2734.25
951.6225	2227.2317	3623.4	2737.9
951.7563	2228.7098	3613.3	2736.8
951.8902	2230.1872	3599.85	2719.65
952.024	2231.6638	3589.2	2710.8
952.1578	2233.1397	3567.5	2681.5
952.2916	2234.6149	3566.35	2688.55
952.4253	2236.0894	3563.05	2678.55
952.559	2237.5632	3559.3	2665.65
952.6927	2239.0362	3542.65	2659.9
952.8263	2240.5085	3537.85	2657.65
952.9599	2241.9801	3522.9	2636.95
953.0935	2243.4509	3515.1	2630.2
953.2271	2244.921	3504.3	2617.15
953.3606	2246.3904	3495	2605.3
953.4941	2247.8591	3484.8	2598.35
953.6276	2249.3271	3480.85	2595
953.7611	2250.7943	3473.55	2587
953.8945	2252.2608	3462.25	2576.35
954.0279	2253.7266	3451.8	2566.45
954.1612	2255.1917	3430.35	2545.45
954.2946	2256.656	3416.85	2532.35
954.4279	2258.1197	3416.8	2537.1
954.5612	2259.5826	3419.4	2533.7
954.6944	2261.0447	3418.55	2535.4
954.8276	2262.5062	3402.05	2513.7
954.9608	2263.9669	3391.75	2503.75
955.094	2265.4269	3385.5	2497.75
955.2271	2266.8862	3374.65	2490.8
955.3602	2268.3448	3385.1	2502.55
955.4933	2269.8026	3376.95	2493.5
955.6264	2271.2598	3361.15	2480.2
955.7594	2272.7162	3349.8	2467.15
955.8924	2274.1719	3355.8	2471.05
956.0253	2275.6268	3340.05	2450.7
956.1583	2277.0811	3336.65	2450.15
956.2912	2278.5346	3331.45	2448.35
956.4241	2279.9874	3321.3	2441
956.5569	2281.4395	3321.4	2442.65
956.6897	2282.8908	3307.4	2419.3
956.8225	2284.3414	3304.85	2419.85
956.9553	2285.7914	3294.2	2408.1
957.088	2287.2406	3282.45	2395.55
957.2207	2288.689	3281.95	2392.9
957.3534	2290.1368	3273.6	2383.6
957.486	2291.5838	3260.15	2368.95
957.6186	2293.0302	3261.45	2368.2
957.7512	2294.4758	3248.85	2358.35
957.8838	2295.9206	3233	2345.75
958.0163	2297.3648	3225.95	2340.9
958.1488	2298.8082	3225.2	2340
958.2813	2300.251	3226.45	2342.5
958.4137	2301.693	3224.3	2334.35
958.5461	2303.1343	3216.8	2330.4
958.6785	2304.5748	3184.15	2299.4
958.8108	2306.0147	3184.5	2300.75
958.9432	2307.4538	3183.4	2298.8
959.0754	2308.8922	3169.25	2289.85
959.2077	2310.3299	3165.9	2284.45
959.3399	2311.7669	3143.5	2261.85
959.4721	2313.2031	3149.65	2265.15
959.6043	2314.6387	3129.3	2246.35
959.7365	2316.0735	3139.75	2256.55
959.8686	2317.5076	3136.65	2250.55
960.0006	2318.941	3125.15	2240.95
960.1327	2320.3737	3124.2	2234
960.2647	2321.8056	3124.9	2233.6
960.3967	2323.2369	3099.3	2213.65
960.5287	2324.6674	3092.6	2204.85
960.6606	2326.0972	3072.05	2185.85
960.7925	2327.5263	3085	2200.45
960.9244	2328.9547	3068.5	2181.25
961.0562	2330.3823	3071.7	2184.45
961.1881	2331.8092	3066.9	2176.85
961.3198	2333.2355	3058.25	2168.55
961.4516	2334.661	3049.45	2161.35
961.5833	2336.0858	3046.35	2157.5
961.715	2337.5098	3037.95	2150.55
961.8467	2338.9332	3042.1	2155
961.9783	2340.3558	3021.2	2133.2
962.1099	2341.7778	3014.45	2135.4
962.2415	2343.199	3002.25	2118.15
962.373	2344.6195	3004.65	2121.45
962.5045	2346.0393	2979.7	2096.3
962.636	2347.4583	2993.75	2109.15
962.7675	2348.8767	2990.75	2104.45
962.8989	2350.2943	2991.05	2103.05
963.0303	2351.7113	2993.65	2104.3
963.1617	2353.1275	2978.35	2088.75
963.293	2354.543	2983.85	2072.3
963.4243	2355.9578	2970.65	2084.2
963.5556	2357.3718	2952.05	2066.55
963.6868	2358.7852	2933.6	2050.95
963.818	2360.1978	2936.3	2053.45
963.9492	2361.6098	2925.65	2043.05
964.0803	2363.021	2914.95	2026.3
964.2114	2364.4315	2916.4	2033.35
964.3425	2365.8413	2913.55	2029.45
964.4736	2367.2504	2896	2014.25
964.6046	2368.6587	2890.75	2010.75
964.7356	2370.0664	2864.85	1982.1
964.8666	2371.4733	2876.75	1992.55
964.9975	2372.8795	2864.7	1983.6
965.1284	2374.285	2865.05	1981.5
965.2593	2375.6899	2851.85	1972
965.3901	2377.0939	2852.15	1970.85
965.5209	2378.4973	2845.45	1963
965.6517	2379.9	2830.8	1948.2
965.7825	2381.3019	2827.3	1946.35
965.9132	2382.7032	2817.55	1936.7
966.0439	2384.1037	2808.65	1934.1
966.1745	2385.5035	2809.6	1929.7
966.3051	2386.9027	2787.55	1911.4
966.4357	2388.3011	2795.2	1912.95
966.5663	2389.6987	2793.75	1911.2
966.6968	2391.0957	2774.1	1893.35
966.8273	2392.492	2766.25	1887
966.9578	2393.8876	2758.95	1878.85
967.0882	2395.2824	2748.25	1868.3
967.2186	2396.6765	2742.7	1863.5
967.349	2398.07	2736.7	1856.95
967.4793	2399.4627	2729.6	1847.9
967.6097	2400.8547	2719.55	1838.1
967.7399	2402.246	2727.75	1841.4
967.8702	2403.6366	2702.9	1821.5
968.0004	2405.0265	2707.75	1829.5
968.1306	2406.4156	2690.5	1805.1
968.2607	2407.8041	2694.8	1811.4
968.3909	2409.1918	2683.3	1801.1
968.521	2410.5789	2673.35	1792.8
968.651	2411.9652	2664.7	1781.6
968.781	2413.3508	2666.4	1783.3
968.911	2414.7358	2661.9	1778.5
969.041	2416.12	2656	1776.75
969.1709	2417.5035	2635.75	1755.35
969.3008	2418.8863	2633.95	1751.6
969.4307	2420.2684	2633.9	1751.9
969.5606	2421.6497	2621.55	1739.8
969.6904	2423.0304	2608.1	1729.55
969.8201	2424.4104	2611.25	1731.4
969.9499	2425.7896	2611.6	1729.35
970.0796	2427.1682	2600	1718.65
970.2093	2428.546	2593.35	1710.25
970.3389	2429.9232	2602.5	1717.9
970.4685	2431.2996	2591.6	1709.2
970.5981	2432.6753	2587.8	1707.1
970.7277	2434.0503	2579.55	1697.8
970.8572	2435.4246	2563.25	1681
970.9867	2436.7982	2570	1687
971.1161	2438.1711	2559.65	1677.95
971.2456	2439.5433	2558.35	1673.85
971.375	2440.9148	2555.85	1667.6
971.5043	2442.2856	2530.9	1648.7
971.6336	2443.6557	2534.55	1653.35
971.7629	2445.025	2523.75	1642.8
971.8922	2446.3937	2520.1	1637.65
972.0214	2447.7617	2510.2	1629.1
972.1506	2449.1289	2521.35	1639.4
972.2798	2450.4955	2514.5	1630.8
972.4089	2451.8613	2502.9	1624
972.538	2453.2265	2495.8	1614.55
972.6671	2454.5909	2499.45	1615.45
972.7961	2455.9546	2490.5	1609.05
972.9251	2457.3177	2484.35	1604.6
973.0541	2458.68	2489.9	1607.8
973.1831	2460.0416	2467.45	1584.5
973.312	2461.4025	2472.25	1587.45
973.4408	2462.7627	2483.05	1591.6
973.5697	2464.1222	2454.35	1575.25
973.6985	2465.4811	2459.9	1579.5
973.8273	2466.8392	2458.7	1576.1
973.956	2468.1966	2452.9	1567.15
974.0847	2469.5533	2458.75	1574.7
974.2134	2470.9093	2448.9	1567.1
974.3421	2472.2645	2437.9	1555.15
974.4707	2473.6191	2446.4	1563.55
974.5993	2474.973	2430.4	1550.15
974.7278	2476.3262	2436.3	1553.95
974.8563	2477.6787	2418.9	1535.05
974.9848	2479.0305	2411.45	1529.45
975.1132	2480.3816	2401.6	1517.25
975.2417	2481.7319	2403.05	1521.75
975.37	2483.0816	2394	1509.3
975.4984	2484.4306	2390.15	1509
975.6267	2485.7789	2387.3	1507.15
975.755	2487.1264	2382.2	1499.45
975.8833	2488.4733	2371.85	1492.1
976.0115	2489.8195	2376.05	1490.7
976.1397	2491.165	2350.4	1464.85
976.2678	2492.5097	2365.25	1483
976.3959	2493.8538	2343.65	1461.85
976.524	2495.1972	2352.6	1471.3
976.6521	2496.5398	2340.55	1457.15
976.7801	2497.8818	2329.65	1445.3
976.9081	2499.2231	2325.6	1443.6
977.036	2500.5637	2325.9	1440.65
977.164	2501.9035	2322.6	1439.1
977.2918	2503.2427	2308.75	1420.5
977.4197	2504.5812	2311.1	1428.6
977.5475	2505.919	2307.65	1420.9
977.6753	2507.256	2308.9	1426.95
977.8031	2508.5924	2295.75	1414.5
977.9308	2509.9281	2301.8	1413.75
978.0585	2511.2631	2291.1	1409.9
978.1861	2512.5974	2293.75	1410.35
978.3137	2513.9309	2285.6	1403.15
978.4413	2515.2638	2295.25	1386.25
978.5689	2516.596	2272.8	1392.3
978.6964	2517.9275	2265.25	1380.5
978.8239	2519.2583	2258.7	1374.1
978.9513	2520.5884	2241.9	1359
979.0788	2521.9178	2242.65	1361.2
979.2062	2523.2465	2247.15	1366.9
979.3335	2524.5745	2237.5	1357.2
979.4608	2525.9018	2238.35	1354.25
979.5881	2527.2284	2228.05	1346.95
979.7154	2528.5543	2225.2	1342.75
979.8426	2529.8796	2223.8	1342.65
979.9698	2531.2041	2219.1	1338.4
980.0969	2532.5279	2225.25	1344.55
980.224	2533.851	2219.3	1337.05
980.3511	2535.1735	2222.75	1337.85
980.4781	2536.4952	2214.65	1333.45
980.6052	2537.8163	2201.65	1316.9
980.7321	2539.1366	2197.35	1315.6
980.8591	2540.4562	2199.75	1315.3
980.986	2541.7752	2196.55	1313.45
981.1129	2543.0935	2197.4	1314.4
981.2397	2544.411	2181.65	1298.7
981.3665	2545.7279	2184.25	1298.85
981.4933	2547.0441	2183	1300.05
981.62	2548.3596	2181.2	1294.75
981.7467	2549.6744	2181.85	1299.5
981.8734	2550.9885	2180.2	1286.7
982.0001	2552.3019	2164.7	1282.85
982.1267	2553.6146	2165.55	1282.4
982.2532	2554.9266	2155.7	1272.9
982.3798	2556.2379	2147.55	1263.65
982.5063	2557.5485	2149.5	1267.35
982.6327	2558.8585	2153.95	1262.65
982.7592	2560.1677	2137.75	1249.2
982.8856	2561.4762	2142.65	1258.25
983.0119	2562.7841	2138.25	1251.75
983.1383	2564.0913	2132.55	1249.7
983.2646	2565.3977	2132	1249.55
983.3908	2566.7035	2138.6	1255.95
983.517	2568.0086	2129.9	1244.4
983.6432	2569.313	2129.1	1244.75
983.7694	2570.6167	2135.55	1249.05
983.8955	2571.9197	2123	1238.85
984.0216	2573.222	2118.45	1231.6
984.1476	2574.5236	2117.35	1231.5
984.2737	2575.8246	2111.4	1223.6
984.3996	2577.1248	2112.65	1229.6
984.5256	2578.4244	2107.25	1223.65
984.6515	2579.7232	2113.45	1229.3
984.7774	2581.0214	2130.1	1215.55
984.9032	2582.3189	2104.7	1219.6
985.029	2583.6157	2091.45	1203.3
985.1548	2584.9118	2098.45	1213
985.2806	2586.2072	2101.65	1218.55
985.4063	2587.5019	2096.9	1212.7
985.5319	2588.7959	2096	1210.85
985.6576	2590.0893	2106.1	1223.25
985.7832	2591.3819	2088.5	1203.4
985.9087	2592.6739	2095.85	1214.6
986.0343	2593.9652	2091.45	1205.7
986.1597	2595.2557	2073.5	1191.1
986.2852	2596.5456	2081.05	1196.75
986.4106	2597.8348	2072.85	1190.65
986.536	2599.1234	2076.55	1193.2
986.6614	2600.4112	2071.5	1185.95
986.7867	2601.6983	2073.35	1184.9
986.912	2602.9848	2070	1185.85
987.0372	2604.2705	2077.35	1187.35
987.1624	2605.5556	2057.7	1175.6
987.2876	2606.84	2062.55	1179.2
987.4128	2608.1237	2051.35	1165.1
987.5379	2609.4067	2054.55	1170.45
987.6629	2610.689	2057.1	1166.35
987.788	2611.9707	2039.15	1150.65
987.913	2613.2516	2052.9	1166.05
988.0379	2614.5319	2029.75	1146.55
988.1629	2615.8115	2024.15	1141.5
988.2878	2617.0903	2025.2	1140.3
988.4126	2618.3685	2022.95	1140.75
988.5375	2619.6461	2017.75	1135
988.6622	2620.9229	2018.45	1134.2
988.787	2622.199	2012.65	1128.95
988.9117	2623.4745	2005.95	1122.55
989.0364	2624.7493	2009.45	1126.7
989.161	2626.0234	2008.75	1126.25
989.2857	2627.2968	2000.85	1117.5
989.4102	2628.5695	2006.7	1122.1
989.5348	2629.8415	1991.95	1109.45
989.6593	2631.1128	1982.4	1097.15
989.7837	2632.3835	1986.8	1105.95
989.9082	2633.6535	1982.45	1098.05
990.0326	2634.9228	1981.35	1097.9
990.1569	2636.1914	1980.2	1100.2
990.2812	2637.4593	1972.8	1088.3
990.4055	2638.7265	1977.55	1093.9
990.5298	2639.9931	1963.95	1080.5
990.654	2641.259	1963.95	1080.8
990.7782	2642.5242	1963.2	1080.75
990.9023	2643.7887	1957.6	1071.45
991.0264	2645.0525	1954.4	1071.4
991.1505	2646.3156	1954.9	1070.6
991.2745	2647.5781	1938.55	1056.2
991.3985	2648.8398	1946.4	1064.35
991.5225	2650.1009	1956.85	1065.75
991.6464	2651.3613	1942.2	1059.65
991.7703	2652.6211	1921.55	1038.1
991.8942	2653.8801	1930.75	1051.8
992.018	2655.1385	1935.55	1049.8
992.1418	2656.3961	1931.45	1047.3
992.2655	2657.6531	1926.35	1043.65
992.3892	2658.9094	1923.15	1040.25
992.5129	2660.1651	1926.65	1044.85
992.6366	2661.42	1920.3	1036.2
992.7602	2662.6743	1924.95	1040.7
992.8837	2663.9279	1918.4	1034.55
993.0073	2665.1808	1920.8	1037.85
993.1307	2666.433	1907.85	1024.55
993.2542	2667.6846	1923.2	1039.6
993.3776	2668.9354	1925.7	1039
993.501	2670.1856	1912.4	1030.4
993.6244	2671.4351	1920.2	1039.6
993.7477	2672.6839	1926.5	1041.55
993.8709	2673.9321	1917.45	1034.7
993.9942	2675.1795	1918.15	1033.55
994.1174	2676.4263	1919.85	1038.8
994.2405	2677.6724	1919.5	1038.9
994.3637	2678.9179	1925.15	1041.45
994.4868	2680.1626	1919.75	1036.5
994.6098	2681.4067	1913.1	1029.45
994.7328	2682.6501	1919.15	1035.6
994.8558	2683.8928	1909	1026.05
994.9788	2685.1348	1906.15	1024.7
995.1017	2686.3761	1893.65	1012.45
995.2245	2687.6168	1897.45	1011.45
995.3474	2688.8568	1885.15	1003.1
995.4702	2690.0961	1880.35	997.25
995.5929	2691.3348	1876.9	995.75
995.7156	2692.5727	1877.5	994.1
995.8383	2693.81	1875.9	994.5
995.961	2695.0466	1872.95	991
996.0836	2696.2826	1866.15	983.8
996.2062	2697.5178	1872.8	986.5
996.3287	2698.7524	1871.85	990.55
996.4512	2699.9863	1863.1	978.3
996.5737	2701.2195	1864.4	983.4
996.6961	2702.452	1862.7	981.1
996.8185	2703.6839	1874.2	990.75
996.9408	2704.9151	1865.8	984.15
997.0631	2706.1456	1865.05	983.3
997.1854	2707.3755	1871.3	989.85
997.3077	2708.6046	1888.95	1006.65
997.4299	2709.8331	1879.4	998.15
997.552	2711.0609	1883.15	1000.2
997.6742	2712.2881	1891.45	1010.55
997.7963	2713.5145	1904.35	1020.65
997.9183	2714.7403	1911.8	1030.85
998.0403	2715.9654	1908.75	1025.5
998.1623	2717.1899	1935.6	1038.45
998.2842	2718.4136	1937.6	1056.6
998.4062	2719.6367	1943.95	1062.4
998.528	2720.8591	1954.7	1065.85
998.6498	2722.0809	1962.7	1080
998.7716	2723.3019	1975	1091.3
998.8934	2724.5223	1984.55	1102.5
999.0151	2725.7421	1980.55	1097
999.1368	2726.9611	1987.95	1103.1
999.2584	2728.1795	1978	1092.55
999.38	2729.3972	1962.8	1079.35
999.5016	2730.6142	1961.4	1067.65
999.6231	2731.8306	1948.25	1065.75
999.7446	2733.0462	1925.3	1043.85
999.8661	2734.2612	1904.4	1017.5
999.9875	2735.4756	1887.75	1005.85
1000.1089	2736.6892	1869.95	988.35
1000.2302	2737.9022	1844.4	964.7
1000.3515	2739.1145	1836.55	956.15
1000.4728	2740.3262	1828.35	937.7
1000.594	2741.5372	1804.35	924.7
1000.7152	2742.7475	1792.6	909.75
1000.8363	2743.9571	1787	905.9
1000.9575	2745.1661	1781.75	894.5
1001.0785	2746.3744	1762.6	880.15
1001.1996	2747.582	1754.9	873.8
1001.3206	2748.7889	1747.85	864.8
1001.4415	2749.9952	1732.7	850.2
1001.5625	2751.2008	1730.95	848.15
1001.6833	2752.4057	1733.9	849.75
1001.8042	2753.61	1724.3	841.85
1001.925	2754.8136	1724.05	840.85
1002.0458	2756.0165	1721.75	842.7
1002.1665	2757.2188	1716.15	836.25
1002.2872	2758.4204	1714.3	832.8
1002.4078	2759.6213	1708.15	825.65
1002.5285	2760.8215	1708.4	823.5
1002.649	2762.0211	1708.45	824.4
1002.7696	2763.22	1703	819.55
1002.8901	2764.4182	1703	821.9
1003.0106	2765.6158	1700.7	819.5
1003.131	2766.8127	1693.3	812.55
1003.2514	2768.009	1683.7	803.3
1003.3717	2769.2045	1682.2	801.75
1003.492	2770.3994	1689.55	806.2
1003.6123	2771.5936	1676.5	798.25
1003.7325	2772.7872	1666.3	785.25
1003.8527	2773.9801	1665.35	782.95
1003.9729	2775.1723	1686.75	790.6
1004.093	2776.3639	1665.95	783.35
1004.2131	2777.5548	1665	781.6
1004.3331	2778.745	1670	787.05
1004.4531	2779.9346	1663.55	784.4
1004.5731	2781.1235	1659.65	778
1004.693	2782.3117	1663.6	785.25
1004.8129	2783.4992	1662.95	783.05
1004.9328	2784.6861	1667.8	787.85
1005.0526	2785.8723	1680.05	797.8
1005.1723	2787.0579	1677.55	798.1
1005.2921	2788.2428	1677.65	798.05
1005.4118	2789.427	1686.7	808.25
1005.5314	2790.6106	1699.2	821.05
1005.651	2791.7935	1709.05	826.8
1005.7706	2792.9757	1714.65	835.4
1005.8902	2794.1573	1725.9	843.05
1006.0097	2795.3382	1727.35	847.25
1006.1291	2796.5184	1753.7	875.6
1006.2485	2797.698	1762	879.15
1006.3679	2798.8769	1777.1	897.7
1006.4873	2800.0551	1795.2	913.25
1006.6066	2801.2327	1809.85	926.25
1006.7258	2802.4096	1825.1	945.85
1006.8451	2803.5859	1849	968.2
1006.9642	2804.7615	1867.55	988.3
1007.0834	2805.9364	1893.2	1015.2
1007.2025	2807.1106	1914.7	1033.35
1007.3216	2808.2842	1943.5	1064.25
1007.4406	2809.4572	1958.35	1078.4
1007.5596	2810.6294	1999.8	1115.95
1007.6785	2811.801	2033.4	1154.3
1007.7975	2812.972	2072.3	1193.1
1007.9163	2814.1423	2125.3	1246.35
1008.0352	2815.3119	2167.7	1285.7
1008.154	2816.4808	2211.2	1332.1
1008.2727	2817.6491	2259.8	1377.45
1008.3914	2818.8167	2304.95	1427.95
1008.5101	2819.9837	2354.75	1471.15
1008.6288	2821.15	2399.65	1520.6
1008.7474	2822.3157	2440.1	1563.3
1008.8659	2823.4807	2486.55	1607.3
1008.9844	2824.645	2543.1	1661.35
1009.1029	2825.8086	2578.15	1698.85
1009.2214	2826.9716	2612.3	1735.5
1009.3398	2828.134	2670.95	1792
1009.4581	2829.2957	2710.45	1830.1
1009.5764	2830.4567	2726.3	1847
1009.6947	2831.617	2738.25	1857.85
1009.813	2832.7767	2750.9	1873.6
1009.9312	2833.9358	2762.9	1884.35
1010.0493	2835.0941	2752.45	1869.45
1010.1675	2836.2519	2739.7	1860.25
1010.2855	2837.4089	2735.85	1855.95
1010.4036	2838.5653	2730.45	1851.4
1010.5216	2839.7211	2716.75	1837.05
1010.6396	2840.8761	2739.1	1855.85
1010.7575	2842.0306	2753.95	1874.85
1010.8754	2843.1843	2788.4	1910.8
1010.9932	2844.3374	2843.6	1964.35
1011.111	2845.4899	2893.35	2015.05
1011.2288	2846.6417	2954.5	2075.4
1011.3465	2847.7928	3030.45	2150.95
1011.4642	2848.9433	3114.8	2238.35
1011.5818	2850.0931	3193.25	2314.65
1011.6995	2851.2422	3267.85	2386.45
1011.817	2852.3907	3331.1	2452.45
1011.9345	2853.5385	3388.9	2508.6
1012.052	2854.6857	3467.9	2563.75
1012.1695	2855.8323	3509	2629.8
1012.2869	2856.9781	3544.9	2665.55
1012.4042	2858.1233	3574.5	2695.6
1012.5216	2859.2679	3634.6	2756.15
1012.6389	2860.4118	3676.3	2796.2
1012.7561	2861.555	3723.95	2839.25
1012.8733	2862.6976	3764.7	2885
1012.9905	2863.8395	3764.8	2886.15
1013.1076	2864.9808	3802.85	2923.85
1013.2247	2866.1214	3829.5	2952.8
1013.3417	2867.2614	3841.25	2961.4
1013.4587	2868.4007	3840.75	2959.4
1013.5757	2869.5393	3869.35	2989.35
1013.6926	2870.6773	3877.6	2995.55
1013.8095	2871.8146	3878.95	2997.3
1013.9263	2872.9513	3878.1	2996.85
1014.0431	2874.0874	3864.95	2985.5
1014.1599	2875.2227	3875.65	2996.1
1014.2766	2876.3574	3853.55	2973.1
1014.3933	2877.4915	3834.45	2956.9
1014.51	2878.6249	3789.8	2912
1014.6266	2879.7577	3778	2899.05
1014.7431	2880.8898	3769.15	2881.85
1014.8596	2882.0212	3766.25	2890.5
1014.9761	2883.152	3733.65	2855.6
1015.0925	2884.2821	3708.65	2832.9
1015.2089	2885.4116	3706.75	2827.1
1015.3253	2886.5405	3707.45	2827.75
1015.4416	2887.6686	3716.5	2836
1015.5579	2888.7962	3713.55	2838.7
1015.6741	2889.923	3711.35	2836.1
1015.7903	2891.0493	3721.8	2843.55
1015.9065	2892.1748	3749.35	2869.4
1016.0226	2893.2997	3761.85	2882.25
1016.1387	2894.424	3771.55	2895.6
1016.2547	2895.5476	3780.9	2902.75
1016.3707	2896.6706	3812.5	2935.05
1016.4866	2897.7929	3849.85	2969.25
1016.6025	2898.9145	3865	2987.8
1016.7184	2900.0355	3889.8	3009
1016.8342	2901.1559	3931.75	3053.55
1016.95	2902.2756	3962.55	3086.85
1017.0658	2903.3946	4000.05	3123.35
1017.1815	2904.513	4018.7	3141.3
1017.2971	2905.6308	4065.4	3186.6
1017.4127	2906.7479	4067.4	3190.1
1017.5283	2907.8643	4089.35	3209.1
1017.6439	2908.9801	4101.8	3223.95
1017.7594	2910.0953	4122.2	3246
1017.8748	2911.2098	4106	3224.25
1017.9902	2912.3236	4126.35	3244.35
1018.1056	2913.4368	4099	3217.75
1018.2209	2914.5494	4077.5	3201.35
1018.3362	2915.6613	4058.35	3174.8
1018.4515	2916.7725	4019.3	3140.45
1018.5667	2917.8831	3980.15	3100
1018.6819	2918.9931	3949.75	3069.85
1018.797	2920.1024	3919.25	3039.3
1018.9121	2921.211	3897.85	3022.95
1019.0271	2922.319	3877.25	2998.45
1019.1421	2923.4264	3879.65	3003.55
1019.2571	2924.5331	3846.8	2970.55
1019.372	2925.6391	3836.65	2960.35
1019.4869	2926.7445	3822.8	2948.65
1019.6017	2927.8493	3818.65	2941
1019.7165	2928.9534	3818.2	2942.65
1019.8313	2930.0569	3809.9	2927.75
1019.946	2931.1597	3802.35	2922.1
1020.0606	2932.2619	3799.65	2923.35
1020.1753	2933.3634	3783.2	2905.45
1020.2899	2934.4643	3777.25	2891.75
1020.4044	2935.5645	3757.05	2875
1020.5189	2936.6641	3737.25	2857.05
1020.6334	2937.763	3669.7	2794.25
1020.7478	2938.8613	3638	2761.15
1020.8622	2939.959	3570.8	2688
1020.9765	2941.056	3487.9	2612.6
1021.0908	2942.1523	3413.05	2533.3
1021.2051	2943.248	3342.6	2463.1
1021.3193	2944.3431	3236.85	2358.2
1021.4334	2945.4375	3125.6	2248.05
1021.5476	2946.5313	3021.95	2146.15
1021.6617	2947.6244	2922.3	2045.35
1021.7757	2948.7169	2836.5	1959.4
1021.8897	2949.8087	2733.4	1856
1022.0037	2950.8999	2637.35	1761.8
1022.1176	2951.9904	2569.4	1694.55
1022.2315	2953.0803	2493.5	1614.1
1022.3453	2954.1696	2427.25	1550.2
1022.4591	2955.2582	2369.85	1494
1022.5728	2956.3462	2341.4	1463.95
1022.6865	2957.4335	2290.6	1413.5
1022.8002	2958.5202	2259.5	1380.2
1022.9138	2959.6062	2215.55	1337.4
1023.0274	2960.6916	2212.35	1335.95
1023.141	2961.7764	2192.45	1314.55
1023.2545	2962.8605	2164.75	1286.7
1023.3679	2963.9439	2164.9	1286.65
1023.4813	2965.0267	2146.6	1268.5
1023.5947	2966.1089	2147.25	1246.5
1023.708	2967.1905	2127.65	1252.95
1023.8213	2968.2714	2126.3	1252.15
1023.9346	2969.3516	2117.85	1241.1
1024.0478	2970.4312	2131.9	1247.65
1024.1609	2971.5102	2125.5	1249.75
1024.274	2972.5885	2135.1	1258
1024.3871	2973.6662	2128.3	1248.25
1024.5002	2974.7432	2117.8	1241.05
1024.6132	2975.8196	2116.05	1239.05
1024.7261	2976.8954	2107.05	1230.5
1024.839	2977.9705	2093	1214.5
1024.9519	2979.045	2070.1	1194.45
1025.0647	2980.1188	2060.6	1185.45
1025.1775	2981.192	2042.25	1166.55
1025.2902	2982.2645	2024.35	1146.55
1025.4029	2983.3364	1998.65	1122.5
1025.5156	2984.4077	1958.95	1083.8
1025.6282	2985.4783	1941.05	1058.2
1025.7407	2986.5483	1901.8	1028.25
1025.8532	2987.6177	1873.4	998.15
1025.9657	2988.6864	1829.85	952.25
1026.0782	2989.7545	1797.1	919.1
1026.1906	2990.8219	1756.55	879.55
1026.3029	2991.8887	1743.05	864.7
1026.4152	2992.9548	1709.4	832.1
1026.5275	2994.0204	1664.8	789.75
1026.6397	2995.0852	1642.2	766.75
1026.7519	2996.1495	1620.1	742.45
1026.864	2997.2131	1586.3	709.75
1026.9761	2998.276	1573.4	696
1027.0882	2999.3383	1552.8	675.15
1027.2002	3000.4	1526	648.65
1027.3122	3001.4611	1509.6	631.85
1027.4241	3002.5215	1501.1	624.35
1027.536	3003.5812	1483.55	607.4
1027.6478	3004.6404	1480.65	605.1
1027.7596	3005.6989	1466.3	588.7
1027.8714	3006.7567	1453.15	579.35
1027.9831	3007.8139	1468.85	560.45
1028.0947	3008.8705	1433.9	559.3
1028.2064	3009.9264	1431.2	551.7
1028.3179	3010.9818	1431.05	554.5
1028.4295	3012.0364	1425.55	549.8
1028.541	3013.0905	1418.5	542.75
1028.6524	3014.1439	1425.7	549.85
1028.7638	3015.1966	1416.25	540.5
1028.8752	3016.2487	1413.85	536.15
1028.9865	3017.3002	1415.55	536.95
1029.0978	3018.3511	1407.7	532.75
1029.209	3019.4013	1403.65	528.75
1029.3202	3020.4509	1403	527.15
1029.4314	3021.4998	1407.8	530.4
1029.5425	3022.5481	1403.85	530
1029.6535	3023.5958	1412.9	536.75
1029.7645	3024.6428	1410.25	532.65
1029.8755	3025.6892	1408.4	532.85
1029.9864	3026.735	1410.85	533.85
1030.0973	3027.7802	1412.8	537.8
1030.2082	3028.8247	1416.55	541.15
1030.319	3029.8685	1419.75	542.55
1030.4297	3030.9118	1418.4	541
1030.5404	3031.9544	1421	545.35
1030.6511	3032.9963	1419.4	544.3
1030.7617	3034.0376	1425.1	549.25
1030.8723	3035.0783	1437.55	559.15
1030.9829	3036.1184	1428.55	551.4
1031.0934	3037.1578	1427.15	553.05
1031.2038	3038.1966	1440.2	563.1
1031.3142	3039.2348	1443.25	568.4
1031.4246	3040.2723	1446.85	561.75
1031.5349	3041.3092	1436.45	564.35
1031.6452	3042.3455	1437.25	561.3
1031.7554	3043.3811	1434.05	559.45
1031.8656	3044.4161	1420.3	542.15
1031.9758	3045.4505	1426.75	551.4
1032.0859	3046.4842	1424.45	550.25
1032.1959	3047.5173	1414.7	540.5
1032.3059	3048.5498	1409.75	535
1032.4159	3049.5816	1398.65	523.05
1032.5258	3050.6128	1394.75	518.2
1032.6357	3051.6434	1394.15	516.1
1032.7455	3052.6734	1379.3	502.45
1032.8553	3053.7027	1374.8	499.85
1032.9651	3054.7314	1365.8	491.3
1033.0748	3055.7594	1362.1	487.85
1033.1845	3056.7868	1360.45	484.3
1033.2941	3057.8136	1344.35	467.4
1033.4037	3058.8398	1342.7	467.55
1033.5132	3059.8653	1342.75	466.3
1033.6227	3060.8902	1342.25	468.8
1033.7321	3061.9145	1328.05	452.35
1033.8415	3062.9381	1331.7	456.1
1033.9509	3063.9612	1338.2	447.7
1034.0602	3064.9835	1319.05	444.65
1034.1694	3066.0053	1310.65	433.8
1034.2787	3067.0264	1307.95	434
1034.3878	3068.0469	1291.85	416.45
1034.497	3069.0668	1287.1	409.05
1034.6061	3070.086	1275.2	401.75
1034.7151	3071.1046	1267.5	391.75
1034.8241	3072.1226	1264.95	388.6
1034.9331	3073.1399	1254.5	380.1
1035.042	3074.1567	1243.5	369.7
1035.1508	3075.1727	1235.45	359.6
1035.2597	3076.1882	1223.45	347.25
1035.3684	3077.203	1220	343.2
1035.4772	3078.2173	1208.6	335.05
1035.5859	3079.2308	1212.4	335.7
1035.6945	3080.2438	1200.3	322.8
1035.8031	3081.2561	1186.35	312.1
1035.9117	3082.2678	1180.4	306.25
1036.0202	3083.2789	1176.3	302.35
1036.1286	3084.2893	1174.25	299.85
1036.2371	3085.2991	1157.05	281.3
1036.3454	3086.3083	1162.35	282.05
1036.4538	3087.3169	1155.9	280.3
1036.562	3088.3248	1146.6	272.7
1036.6703	3089.3321	1146.95	268.6
1036.7785	3090.3388	1138.5	263.7
1036.8866	3091.3449	1132.9	258.1
1036.9948	3092.3503	1131.05	253.05
1037.1028	3093.3551	1123.8	250.7
1037.2108	3094.3593	1123.4	250.9
1037.3188	3095.3629	1118.75	246.75
1037.4267	3096.3658	1116.95	242.15
1037.5346	3097.3681	1112.05	235.95
1037.6425	3098.3698	1115.05	239.5
1037.7503	3099.3708	1111.05	232.7
1037.858	3100.3713	1098.3	224.5
1037.9657	3101.3711	1100.05	222.2
1038.0734	3102.3702	1215.4	225.3
1038.181	3103.3688	1096.75	220.5
1038.2886	3104.3667	1096.6	223.55
1038.3961	3105.364	1094.8	221.9
1038.5036	3106.3607	1089.9	215.2
1038.611	3107.3568	1089.05	214.1
1038.7184	3108.3522	1084.15	210.5
1038.8257	3109.347	1087.35	211.15
1038.933	3110.3412	1082.5	202.1
1039.0403	3111.3348	1078.2	203.5
1039.1475	3112.3277	1078.1	205.5
1039.2547	3113.32	1073.4	200.9
1039.3618	3114.3117	1074.65	200.05
1039.4689	3115.3028	1073.4	198.4
1039.5759	3116.2932	1070.85	195.45
1039.6829	3117.2831	1073.55	193
1039.7898	3118.2723	1065.85	189.85
1039.8967	3119.2608	1064.1	190.5
1040.0035	3120.2488	1066.6	192.05
1040.1103	3121.2361	1056.4	182.3
1040.2171	3122.2229	1061.4	189
1040.3238	3123.209	1058.8	184.55
1040.4305	3124.1944	1054.9	181.95
1040.5371	3125.1793	1058	182.7
1040.6437	3126.1635	1055.8	183.2
1040.7502	3127.1471	1054.25	180.95
1040.8567	3128.1301	1055.35	180.05
1040.9631	3129.1125	1052.85	179.2
1041.0695	3130.0942	1049.5	176
1041.1759	3131.0753	1061.2	179.05
1041.2822	3132.0558	1050.6	176.2
1041.3884	3133.0357	1050.4	173.8
1041.4946	3134.015	1046.05	172.25
1041.6008	3134.9936	1046.05	168.7
1041.7069	3135.9716	1060.85	165.95
1041.813	3136.949	1036.35	162.75
1041.919	3137.9258	1055.5	163.45
1042.025	3138.902	1039.55	160.85
1042.1309	3139.8775	1041.3	167.3
1042.2368	3140.8524	1040.1	166.2
1042.3427	3141.8267	1039.4	162.75
1042.4485	3142.8004	1034.85	160.2
1042.5542	3143.7735	1040.15	160.35
1042.6599	3144.7459	1031.1	155.85
1042.7656	3145.7178	1032.05	157
1042.8712	3146.689	1026.15	153.8
1042.9768	3147.6596	1026.75	153.1
1043.0823	3148.6295	1027.6	152.7
1043.1878	3149.5989	1025.9	151.75
1043.2932	3150.5676	1023	150.7
1043.3986	3151.5357	1024.4	152
1043.5039	3152.5032	1022.35	147
1043.6092	3153.4701	1021.55	148.1
1043.7145	3154.4364	1020.8	145.05
1043.8197	3155.402	1016.7	142.9
1043.9248	3156.367	1021.35	146.95
1044.03	3157.3315	1043.65	143.7
1044.135	3158.2952	1022.9	150.7
1044.24	3159.2584	1013	138.95
1044.345	3160.221	1013.25	138.1
1044.4499	3161.1829	1010.65	135.15
1044.5548	3162.1442	1014.2	141.65
1044.6596	3163.105	1009.9	135.9
1044.7644	3164.065	1009.6	135
1044.8692	3165.0245	1012.25	138.65
1044.9739	3165.9834	1004.45	131.8
1045.0785	3166.9416	1005.15	133.15
1045.1831	3167.8993	1006.75	132.45
1045.2877	3168.8563	1005.5	130.95
1045.3922	3169.8127	1002.7	129.55
1045.4966	3170.7684	1006.75	134.75
1045.6011	3171.7236	1003.85	131.25
1045.7054	3172.6782	1002.9	126.35
1045.8098	3173.6321	1004.5	129.65
1045.914	3174.5854	1004.3	127.15
1046.0183	3175.5381	1000.6	127.25
1046.1224	3176.4902	995.95	123.25
1046.2266	3177.4417	997.2	125.45
1046.3307	3178.3926	1000.25	126.3
1046.4347	3179.3428	995.4	123.9
1046.5387	3180.2924	997.65	125
1046.6427	3181.2415	996.3	122.6
1046.7466	3182.1899	999.75	124.65
1046.8504	3183.1377	991.85	119.3
1046.9542	3184.0848	991.65	114.4
1047.058	3185.0314	992.25	118.4
1047.1617	3185.9773	993.3	118.25
1047.2654	3186.9227	991.6	119.5
1047.369	3187.8674	986.35	112.05
1047.4726	3188.8115	992.65	115.35
1047.5761	3189.755	988.95	115.3
1047.6796	3190.6979	984.75	111.9
1047.783	3191.6402	985.6	114.05
1047.8864	3192.5818	985.55	113
1047.9898	3193.5229	992.5	113.15
1048.0931	3194.4633	984.85	111.95
1048.1963	3195.4031	984.95	111.35
1048.2995	3196.3423	984.2	110.95
1048.4027	3197.2809	982.35	109.65
1048.5058	3198.2189	983	111
1048.6089	3199.1563	994.5	104.95
1048.7119	3200.0931	979.5	107.35
1048.8148	3201.0292	977.05	103.3
1048.9178	3201.9648	978.9	106.35
1049.0206	3202.8997	981.4	105.35
1049.1235	3203.834	978.05	105.7
1049.2262	3204.7677	976.05	103.75
1049.329	3205.7008	981.4	107.25
1049.4317	3206.6333	977.1	104.4
1049.5343	3207.5652	978.3	103.65
1049.6369	3208.4964	976.45	103
1049.7394	3209.4271	972.9	101.4
1049.8419	3210.3571	973.1	100.9
1049.9444	3211.2865	975.35	100.4
1050.0468	3212.2154	973.05	97.75
1050.1491	3213.1436	974.5	98.45
1050.2514	3214.0712	979.1	100.8
1050.3537	3214.9982	970.3	100.1
1050.4559	3215.9246	969.6	94.9
1050.5581	3216.8503	965.3	93.2
1050.6602	3217.7755	971.45	98
1050.7623	3218.7001	969.25	97.55
1050.8643	3219.624	965.25	92.85
1050.9663	3220.5473	967.25	93.75
1051.0682	3221.4701	968.85	95.8
1051.1701	3222.3922	965	91.95
1051.2719	3223.3137	969.65	99.4
1051.3737	3224.2346	968	96.65
1051.4754	3225.1549	962.9	90.1
1051.5771	3226.0746	962.9	92.5
1051.6788	3226.9937	965.7	92.85
1051.7804	3227.9121	962.75	89.6
1051.8819	3228.83	966.8	93.15
1051.9834	3229.7473	962.7	88.85
1052.0849	3230.6639	965.85	94.35
1052.1863	3231.5799	957.05	84.75
1052.2876	3232.4954	960.3	87.3
1052.3889	3233.4102	959.15	88.5
1052.4902	3234.3244	960.85	88.1
1052.5914	3235.238	957.7	86.35
1052.6926	3236.151	973.6	88.75
1052.7937	3237.0634	958.15	87.35
1052.8948	3237.9752	955.9	83.75
1052.9958	3238.8864	952.7	78.35
1053.0968	3239.797	962.5	89.9
1053.1977	3240.7069	955.6	82.75
1053.2986	3241.6163	957.95	84.3
1053.3994	3242.5251	955.05	85.35
1053.5002	3243.4332	953.3	83.6
1053.6009	3244.3408	953.8	82.1
1053.7016	3245.2477	952.3	81.3
1053.8022	3246.154	956.5	83.2
1053.9028	3247.0598	952.95	79.45
1054.0034	3247.9649	954.65	82
1054.1039	3248.8694	949.05	77.65
1054.2043	3249.7733	951.75	82.35
1054.3047	3250.6766	950.3	76.95
1054.4051	3251.5793	950.4	77.55
1054.5054	3252.4814	947.65	76.2
1054.6056	3253.3829	947.3	75.75
1054.7058	3254.2838	946.75	72.8
1054.806	3255.1841	943.55	72.45
1054.9061	3256.0838	943.1	71.4
1055.0061	3256.9829	945.05	74.75
1055.1062	3257.8814	946.3	71.75
1055.2061	3258.7792	946.6	73.7
1055.306	3259.6765	943.7	69.1
1055.4059	3260.5731	939.25	67.85
1055.5057	3261.4692	941.95	70.45
1055.6055	3262.3647	939.7	67.25
1055.7052	3263.2595	935.75	65.35
1055.8049	3264.1538	936.9	65.2
1055.9045	3265.0474	938.75	64.75
1056.0041	3265.9404	936.45	67.7
1056.1036	3266.8329	932.7	61.95
1056.2031	3267.7247	942.25	62.7
1056.3025	3268.616	929.55	59.75
1056.4019	3269.5066	932.2	59.95
1056.5013	3270.3966	927.55	53.95
1056.6005	3271.286	925.2	54.55
