Software Version:	3.9.2.0
Unit SN:	10000200
Spectrometer SN:	6960
Date:	3/8/2024 1:54:53 PM
Data Line Index:	25
Spectral Points:	2048
Integration time (ms):	125
Averages:	20
Delay (ms):	30000
Sequence Number:	1
Processing:	dark subtract
Laser Power (mW):	300
Laser Current (mA):	822
Laser Diode Temp (C):	25.1
Laser Case Temp (C):	26.3
System Temp (C):	26.3
Spectrometer Temp (C):	24.1
CCD Temp (C):	0.016
Secondary Temp (C):	20.008
Heatsink Temp (C):	20.45
CCDPCB Temp (C):	36.185
SecondaryPCB Temp (C):	30.049

Wavelength	RamanShift	Raw Counts	Dark Subtracted
787.061	30.1047	469.85	62.2
787.2016	32.3739	472.3	66.35
787.3422	34.6426	475.55	68.45
787.4828	36.9109	483.8	74.15
787.6235	39.1787	493.75	82
787.7642	41.4461	500.25	81.75
787.9049	43.7131	511.95	91.3
788.0456	45.9796	521.2	97.1
788.1863	48.2456	532.6	108.85
788.3271	50.5112	540.4	110.85
788.4679	52.7764	551.7	118.05
788.6087	55.0411	560.75	120.45
788.7496	57.3054	578.6	133.65
788.8904	59.5692	586.15	140.15
789.0313	61.8326	596.55	149.3
789.1722	64.0955	610	156.9
789.3132	66.3579	630.15	174.65
789.4541	68.6199	651	189.05
789.5951	70.8815	684.55	217.95
789.7361	73.1426	773.65	302.85
789.8771	75.4032	998.1	523.05
790.0181	77.6634	1528	1049.85
790.1592	79.9231	2814.75	2328.75
790.3003	82.1824	5595.8	5091.1
790.4414	84.4412	10633.15	10101.35
790.5825	86.6995	17593.85	17022.2
790.7237	88.9574	24407.5	23803.85
790.8648	91.2148	29163.6	28536.4
791.006	93.4717	31364.85	30725.75
791.1472	95.7282	31943.45	31298.1
791.2885	97.9842	31928.75	31277.35
791.4297	100.2398	31480.6	30826.65
791.571	102.4949	30904.45	30248.3
791.7123	104.7495	30194.35	29533.95
791.8536	107.0036	29452.75	28795.9
791.9949	109.2573	28676.15	28022.1
792.1363	111.5105	28026.55	27366.25
792.2777	113.7632	27315.45	26652.4
792.4191	116.0154	26756.9	26081.4
792.5605	118.2672	26327.25	25656.5
792.7019	120.5185	25906.2	25233.8
792.8434	122.7693	25532.45	24857.45
792.9849	125.0197	25300.65	24626.6
793.1264	127.2696	25020.55	24338
793.2679	129.519	24923	24239.65
793.4094	131.7679	24733.05	24046.15
793.551	134.0163	24633.45	23941
793.6926	136.2642	24439	23743.05
793.8342	138.5117	24266.55	23570.5
793.9758	140.7587	24033.6	23338.75
794.1175	143.0052	23846.45	23143.6
794.2591	145.2512	23646.05	22947.4
794.4008	147.4967	23422.75	22725.55
794.5425	149.7417	23302.25	22593.75
794.6842	151.9863	23198	22489.65
794.826	154.2304	23116.65	22401.4
794.9677	156.4739	22997.8	22278.6
795.1095	158.717	22938.85	22219.5
795.2513	160.9596	22796.75	22074.65
795.3931	163.2017	22601.05	21877.7
795.535	165.4433	22338.5	21610.7
795.6768	167.6844	22004.95	21272.3
795.8187	169.925	21757.35	21027.9
795.9606	172.1651	21398.45	20665.85
796.1025	174.4047	21111.85	20374.9
796.2445	176.6439	20862.35	20125.1
796.3864	178.8825	20647.3	19907.8
796.5284	181.1206	20540.35	19790.9
796.6704	183.3582	20373.85	19624.4
796.8124	185.5954	20297.6	19545.65
796.9544	187.832	20223.85	19467.55
797.0965	190.0681	20256.5	19496.45
797.2386	192.3037	20280.8	19517.05
797.3806	194.5388	20268.95	19504.7
797.5228	196.7734	20349.9	19582.55
797.6649	199.0075	20446.25	19680.6
797.807	201.2411	20614.5	19846.1
797.9492	203.4742	20684.75	19915
798.0914	205.7068	20856.55	20077.9
798.2336	207.9389	20981.85	20206.7
798.3758	210.1704	21199.45	20431.55
798.518	212.4015	21315.7	20553.6
798.6603	214.632	21539.95	20787.45
798.8025	216.862	21739.9	20986.3
798.9448	219.0915	21876.75	21117.8
799.0871	221.3205	22120.85	21363.05
799.2294	223.549	22388.55	21632.15
799.3718	225.777	22704.75	21947.75
799.5141	228.0044	23098.65	22339.5
799.6565	230.2314	23541.35	22777.4
799.7989	232.4578	23968.8	23205.6
799.9413	234.6837	24369.6	23596.85
800.0837	236.909	24575.55	23800.95
800.2262	239.1339	24638	23837.3
800.3687	241.3582	24437.65	23646.75
800.5111	243.582	24090.75	23274.7
800.6536	245.8053	23759.8	22953.8
800.7961	248.0281	23464.7	22664.9
800.9387	250.2503	23271.55	22465.75
801.0812	252.472	23160.2	22356.85
801.2238	254.6932	23086.6	22283.45
801.3664	256.9139	23080.75	22272.25
801.509	259.134	23110.95	22301.3
801.6516	261.3536	23144.9	22335.3
801.7942	263.5727	23220.65	22410.9
801.9369	265.7912	23176.6	22369.55
802.0795	268.0092	23240.6	22431.65
802.2222	270.2267	23233.25	22424
802.3649	272.4436	23188.7	22379.2
802.5076	274.6601	23167.5	22348.15
802.6504	276.8759	23114	22302.9
802.7931	279.0913	23108.65	22289.25
802.9359	281.3061	23079.6	22263.8
803.0787	283.5204	23174.7	22355.75
803.2215	285.7341	23299.7	22472.95
803.3643	287.9473	23439.4	22609.55
803.5071	290.16	23688.6	22860.25
803.6499	292.3721	24020.2	23197.4
803.7928	294.5837	24459.5	23637.7
803.9357	296.7947	24776.6	23951.9
804.0786	299.0052	24992.55	24169.65
804.2215	301.2152	24890.75	24065.9
804.3644	303.4246	24594.75	23775.35
804.5074	305.6334	24063.4	23241.1
804.6503	307.8418	23545.55	22719.7
804.7933	310.0495	23181.85	22353.45
804.9363	312.2568	22917.1	22089.2
805.0793	314.4635	22692.65	21858.2
805.2223	316.6696	22598.95	21763.75
805.3653	318.8752	22538.1	21692.55
805.5084	321.0802	22596.7	21759.35
805.6514	323.2847	22753.75	21918.1
805.7945	325.4887	22763.65	21924.95
805.9376	327.692	22710.6	21869.25
806.0807	329.8949	22684.7	21841.05
806.2238	332.0972	22423.65	21581.8
806.367	334.2989	22204.05	21360.75
806.5101	336.5001	21949.15	21104.9
806.6533	338.7007	21734.55	20891.1
806.7965	340.9008	21630.95	20784.7
806.9397	343.1003	21567.4	20716
807.0829	345.2992	21552.95	20702.05
807.2261	347.4976	21514	20663.35
807.3693	349.6955	21530.45	20673.8
807.5126	351.8927	21621.3	20770.5
807.6559	354.0895	21633.65	20765.65
807.7991	356.2856	21704.95	20847.2
807.9424	358.4812	21665.65	20809.85
808.0857	360.6763	21742	20882
808.2291	362.8707	21755.85	20892.3
808.3724	365.0646	21815.15	20950.05
808.5158	367.258	21805.3	20945.85
808.6591	369.4508	21836.4	20969.4
808.8025	371.643	21966.5	21100.4
808.9459	373.8346	21970.85	21099.7
809.0893	376.0257	21936.8	21064.8
809.2327	378.2162	21879.25	21009.85
809.3762	380.4062	21786.35	20916.4
809.5196	382.5956	21683.85	20817.05
809.6631	384.7844	21557.75	20693.45
809.8066	386.9726	21473.4	20613.15
809.9501	389.1603	21491.55	20636.25
810.0936	391.3474	21491.05	20598.5
810.2371	393.5339	21469.5	20603.3
810.3806	395.7199	21388.85	20529.55
810.5241	397.9052	21442.85	20583.85
810.6677	400.09	21445	20581.7
810.8113	402.2743	21578.55	20712.3
810.9548	404.4579	21654.9	20788.1
811.0984	406.641	21859.6	20993.25
811.2421	408.8235	22139.2	21270.85
811.3857	411.0054	22389.35	21523.4
811.5293	413.1868	22849.85	21976.45
811.673	415.3675	23162.7	22287.55
811.8166	417.5477	23367	22490.55
811.9603	419.7273	23409.85	22529.7
812.104	421.9064	23352.5	22473.45
812.2477	424.0848	23228.1	22349.55
812.3914	426.2627	23024.85	22151.35
812.5351	428.4399	22739.6	21859.25
812.6788	430.6166	22418.6	21538.4
812.8226	432.7928	22024.45	21140.85
812.9663	434.9683	21727.5	20842.9
813.1101	437.1432	21553.55	20673.45
813.2539	439.3176	21378.8	20503.8
813.3977	441.4914	21283.45	20411.45
813.5415	443.6645	21269.95	20393.25
813.6853	445.8371	21224.4	20343.75
813.8291	448.0091	21131.85	20252.15
813.973	450.1806	21134.15	20258.75
814.1168	452.3514	21100.2	20223.6
814.2607	454.5216	21103.6	20215.35
814.4046	456.6913	21026.15	20145.45
814.5485	458.8603	21108.05	20229.35
814.6924	461.0288	21166.3	20292.15
814.8363	463.1967	21177.45	20303.1
814.9802	465.3639	21289.05	20411.15
815.1241	467.5306	21439	20561.6
815.2681	469.6967	21578.7	20705.7
815.412	471.8622	21716.8	20843.45
815.556	474.0271	21840.4	20963.65
815.7	476.1914	21980.45	21098.45
815.844	478.3551	21984.6	21102.6
815.988	480.5182	22003.8	21126.4
816.132	482.6807	22007.25	21135.05
816.276	484.8426	22113.8	21247.6
816.4201	487.0039	22435.8	21561.55
816.5641	489.1647	22815.45	21934.15
816.7082	491.3248	23292.9	22410.6
816.8522	493.4843	23529.75	22651.8
816.9963	495.6432	23520	22645.65
817.1404	497.8015	23443.25	22555.55
817.2845	499.9592	23458.05	22566.25
817.4286	502.1163	23447.15	22553.2
817.5727	504.2728	23204.2	22319.2
817.7168	506.4287	22901.7	22024.5
817.861	508.5839	22470.35	21596.4
818.0051	510.7386	22196.5	21313.6
818.1493	512.8927	22030.4	21139.05
818.2935	515.0461	21937.4	21053.6
818.4377	517.199	21918.85	21031.2
818.5818	519.3512	21937.45	21046
818.726	521.5029	22044.65	21150
818.8703	523.6539	22131.3	21243.45
819.0145	525.8043	22230.1	21338.7
819.1587	527.9541	22265.65	21368.35
819.303	530.1033	22228.65	21334.1
819.4472	532.2519	22263.1	21370.95
819.5915	534.3999	22398.65	21505.9
819.7357	536.5472	22679.3	21790.25
819.88	538.694	23143.45	22257.85
820.0243	540.8401	23766.1	22870.75
820.1686	542.9856	24259.35	23359.95
820.3129	545.1305	24416.1	23507.9
820.4572	547.2748	24310.45	23402.4
820.6016	549.4185	23974.75	23069.15
820.7459	551.5615	23662.6	22752.55
820.8902	553.704	23512.65	22607.55
821.0346	555.8458	23462.2	22560.7
821.1789	557.987	23535.65	22635.15
821.3233	560.1276	23527.8	22624.85
821.4677	562.2675	23597	22691.45
821.6121	564.4069	23669.45	22763.15
821.7565	566.5456	23659.6	22756.9
821.9009	568.6837	23605.9	22699.5
822.0453	570.8212	23318.3	22414.25
822.1897	572.958	23031.4	22124.95
822.3342	575.0942	22727.9	21826.65
822.4786	577.2299	22553.5	21655.5
822.6231	579.3648	22477.55	21593.55
822.7675	581.4992	22530.1	21656.25
822.912	583.6329	22729.35	21854.6
823.0565	585.766	22960.5	22078.1
823.201	587.8985	23127	22241
823.3454	590.0304	23157.1	22251.8
823.4899	592.1616	23064.6	22157.45
823.6345	594.2922	22990.8	22080.7
823.779	596.4222	22849.2	21940.7
823.9235	598.5515	22694.8	21785.1
824.068	600.6802	22551.65	21642
824.2126	602.8083	22360.9	21453.8
824.3571	604.9358	22318.85	21410.8
824.5017	607.0626	22280.5	21370
824.6462	609.1888	22283.9	21367.6
824.7908	611.3144	22276.45	21361.95
824.9354	613.4393	22178.8	21261.75
825.08	615.5636	22054.25	21136.8
825.2246	617.6873	22014.6	21102.7
825.3692	619.8103	22028.5	21112.05
825.5138	621.9327	21904.2	20990.55
825.6584	624.0544	21899	20994.55
825.803	626.1756	21885.65	20978.5
825.9477	628.2961	21861.65	20948.85
826.0923	630.4159	21782.3	20867.4
826.237	632.5351	21791.75	20876.1
826.3816	634.6537	21743.05	20826.85
826.5263	636.7716	21767.4	20844.45
826.6709	638.8889	21775.3	20853.4
826.8156	641.0056	21854.25	20930.2
826.9603	643.1216	21811.6	20888.35
827.105	645.237	21899.6	20982.05
827.2497	647.3518	21892.5	20986.95
827.3944	649.4659	21935.8	21029.15
827.5391	651.5793	21909.5	21003.1
827.6838	653.6922	21911.6	21001.9
827.8285	655.8043	21927.45	21015.65
827.9733	657.9159	21935.65	21022.8
828.118	660.0268	21867	20954.35
828.2627	662.137	21815.8	20900.2
828.4075	664.2466	21840.35	20915.7
828.5522	666.3556	21853.3	20933.65
828.697	668.4639	21801.5	20886.45
828.8418	670.5716	21890.5	20978.5
828.9865	672.6786	21968.4	21048.95
829.1313	674.785	22015.25	21092.95
829.2761	676.8907	22086.1	21171.35
829.4209	678.9958	22195.4	21280.1
829.5657	681.1002	22181.8	21265.05
829.7105	683.204	22143.6	21215.8
829.8553	685.3072	22136.1	21214.9
830.0001	687.4097	22098.05	21180.5
830.1449	689.5115	22073	21151.1
830.2898	691.6127	22040.65	21119.4
830.4346	693.7132	22005.8	21088.4
830.5794	695.8131	21962.15	21039.45
830.7243	697.9123	21995.6	21068.6
830.8691	700.0109	21940.95	21015.7
831.014	702.1089	21989.3	21063.3
831.1588	704.2061	21983.05	21063.35
831.3037	706.3028	22039.25	21110.8
831.4486	708.3987	22123.55	21198.1
831.5935	710.4941	22212.65	21289.05
831.7383	712.5887	22392.65	21471.5
831.8832	714.6827	22677.4	21751.85
832.0281	716.7761	23022.75	22100.45
832.173	718.8688	23416.15	22495.05
832.3179	720.9608	23607.25	22674.6
832.4628	723.0522	23740.1	22804.8
832.6077	725.1429	23533.95	22601
832.7527	727.233	23278.55	22351.25
832.8976	729.3224	23054.05	22125.65
833.0425	731.4112	22795.8	21869.9
833.1874	733.4993	22614.45	21688.15
833.3324	735.5867	22461.9	21535.5
833.4773	737.6735	22380.55	21455.7
833.6222	739.7596	22313.2	21383.4
833.7672	741.845	22315	21386.8
833.9122	743.9298	22251.4	21321.3
834.0571	746.014	22296.3	21365.8
834.2021	748.0974	22326.35	21392.5
834.347	750.1802	22303.5	21366.7
834.492	752.2624	22322.8	21391.95
834.637	754.3439	22346.95	21413.85
834.782	756.4247	22437.8	21494.25
834.9269	758.5048	22519.45	21584.7
835.0719	760.5843	22801.8	21865.35
835.2169	762.6631	23100.15	22165.75
835.3619	764.7413	23497.35	22565.95
835.5069	766.8188	24131.9	23196.4
835.6519	768.8956	24539.55	23604.15
835.7969	770.9718	24928.55	23994.35
835.9419	773.0473	24761.7	23828.4
836.0869	775.1221	24466.2	23532.9
836.232	777.1962	24044.4	23112.25
836.377	779.2697	23904.65	22968.9
836.522	781.3426	23932.5	22977.6
836.667	783.4147	24167.35	23232.35
836.8121	785.4862	24474.15	23539.45
836.9571	787.557	24541.2	23606.25
837.1021	789.6271	24218.6	23282.3
837.2472	791.6966	23651	22714.7
837.3922	793.7654	23148.1	22213.25
837.5373	795.8335	22878.85	21947.6
837.6823	797.901	22684.55	21750.35
837.8274	799.9678	22644.1	21705.05
837.9724	802.0339	22686.75	21750.05
838.1175	804.0993	22723.1	21773.2
838.2626	806.1641	22680.95	21742.1
838.4076	808.2282	22641.8	21706.65
838.5527	810.2916	22554.2	21618.4
838.6978	812.3544	22498.2	21562.85
838.8428	814.4164	22411.25	21477.45
838.9879	816.4778	22465.8	21526.6
839.133	818.5385	22438	21498.15
839.2781	820.5986	22561.25	21621.05
839.4232	822.658	22718.15	21778.25
839.5682	824.7166	22773.35	21833.05
839.7133	826.7747	23074.1	22134.8
839.8584	828.832	23263.25	22322
840.0035	830.8886	23380.3	22441.85
840.1486	832.9446	23566.65	22625.5
840.2937	834.9999	23597.6	22659.3
840.4388	837.0545	23607.5	22663.15
840.5839	839.1085	23652.2	22711.7
840.729	841.1618	23581.45	22636.25
840.8741	843.2143	23533.85	22592.5
841.0192	845.2662	23405.35	22464.55
841.1643	847.3175	23384.85	22444.35
841.3095	849.368	23280.9	22337.7
841.4546	851.4179	23205.05	22263
841.5997	853.467	23029.4	22085.05
841.7448	855.5155	22988.85	22048.05
841.8899	857.5633	22938.35	21996.8
842.0351	859.6105	22767.85	21824.7
842.1802	861.6569	22734.75	21794.2
842.3253	863.7027	22699.35	21756
842.4704	865.7478	22705.45	21758.95
842.6156	867.7922	22740.75	21800.1
842.7607	869.8359	22791.95	21850.7
842.9058	871.8789	22940.75	21997.35
843.0509	873.9212	23148.15	22170.95
843.1961	875.9629	23210.35	22266.45
843.3412	878.0039	23413.65	22470.45
843.4863	880.0441	23531.55	22589.4
843.6315	882.0837	23568.35	22628.45
843.7766	884.1226	23470.45	22530.85
843.9218	886.1609	23364.35	22425.3
844.0669	888.1984	23354.15	22406.95
844.212	890.2352	23403.4	22462.75
844.3572	892.2714	23375.85	22428.05
844.5023	894.3069	23390.85	22445.6
844.6475	896.3416	23280.9	22336.85
844.7926	898.3757	23278	22332.25
844.9377	900.4091	23308.25	22361.3
845.0829	902.4418	23343.55	22391.45
845.228	904.4739	23356.55	22405.55
845.3732	906.5052	23329.2	22383.4
845.5183	908.5358	23255.1	22308.4
845.6635	910.5658	23117.8	22166.9
845.8086	912.595	22940.7	21991.85
845.9538	914.6236	22804.9	21854.35
846.0989	916.6515	22807.15	21863.85
846.2441	918.6786	22759.8	21808.9
846.3892	920.7051	22876.9	21931.4
846.5344	922.7309	22999.5	22051.3
846.6795	924.756	23030.1	22082.75
846.8246	926.7804	23162.65	22214
846.9698	928.8041	23065.45	22119.3
847.1149	930.8272	23124.15	22176.45
847.2601	932.8495	23037.35	22084.95
847.4052	934.8711	23011	22061.1
847.5504	936.892	22854.05	21904
847.6955	938.9123	22690.95	21741.95
847.8407	940.9318	22586.9	21639.55
847.9858	942.9506	22506.45	21556.9
848.131	944.9688	22424.65	21476.9
848.2761	946.9862	22339.9	21391.65
848.4213	949.003	22291.65	21340.45
848.5664	951.019	22254.8	21309.35
848.7115	953.0344	22299.1	21353.55
848.8567	955.0491	22324.1	21373.85
849.0018	957.063	22454.1	21505.1
849.147	959.0763	22586.9	21639.35
849.2921	961.0888	22614.6	21667.7
849.4373	963.1007	22723.7	21779.55
849.5824	965.1119	22783.75	21847.2
849.7275	967.1223	22804.55	21874.75
849.8727	969.1321	22788.45	21855.75
850.0178	971.1412	22891.9	21950
850.1629	973.1495	22868.4	21924.45
850.3081	975.1572	22991.45	21992.65
850.4532	977.1641	23006.15	22056.05
850.5983	979.1704	22937.85	21991.15
850.7435	981.1759	22943.5	21995.45
850.8886	983.1808	22998.8	22050.1
851.0337	985.1849	23114	22153.65
851.1788	987.1884	23199.55	22251.65
851.324	989.1911	23438.7	22491.8
851.4691	991.1932	23530.7	22585
851.6142	993.1945	23560.3	22614
851.7593	995.1951	23470.7	22525.4
851.9045	997.1951	23465.95	22510.75
852.0496	999.1943	23402.5	22455.1
852.1947	1001.1928	23358.15	22410.65
852.3398	1003.1906	23326.05	22382.05
852.4849	1005.1877	23373.15	22426.15
852.63	1007.1841	23338.3	22391.4
852.7751	1009.1798	23241.7	22296.25
852.9202	1011.1748	23048.5	22101.8
853.0653	1013.1691	22888.6	21941.75
853.2104	1015.1627	22640.75	21694.8
853.3555	1017.1556	22391.35	21444.95
853.5006	1019.1477	22347.45	21402.4
853.6457	1021.1392	22213.6	21277.05
853.7908	1023.1299	22205.65	21271.75
853.9359	1025.12	22188.7	21258.85
854.081	1027.1093	22217.35	21300.45
854.2261	1029.0979	22309.35	21395.05
854.3712	1031.0859	22346.5	21424.45
854.5163	1033.0731	22372.05	21439.95
854.6613	1035.0596	22294.85	21357.2
854.8064	1037.0454	22081.9	21142
854.9515	1039.0304	22045.9	21102.25
855.0965	1041.0148	21892	20950.6
855.2416	1042.9985	21766.35	20821.85
855.3867	1044.9814	21764.35	20823.1
855.5317	1046.9636	21682.65	20734.1
855.6768	1048.9452	21646	20704.4
855.8219	1050.926	21672.85	20730.6
855.9669	1052.9061	21684.65	20740.85
856.112	1054.8855	21664.05	20719.35
856.257	1056.8642	21750.6	20806.4
856.4021	1058.8421	21773.05	20821.25
856.5471	1060.8194	21786.3	20841.95
856.6921	1062.7959	21831.25	20885
856.8372	1064.7717	21847.6	20898.9
856.9822	1066.7469	21888.65	20942.45
857.1272	1068.7213	21865.05	20921.3
857.2723	1070.695	21859.6	20915.35
857.4173	1072.6679	21794	20847.8
857.5623	1074.6402	21765.75	20818
857.7073	1076.6117	21794.35	20841.95
857.8523	1078.5826	21757.4	20811.45
857.9973	1080.5527	21738.2	20791.35
858.1423	1082.5221	21824.65	20879.95
858.2873	1084.4908	21989.95	21047.2
858.4323	1086.4587	22183.8	21237.35
858.5773	1088.426	22320	21375.35
858.7223	1090.3925	22282.25	21333.15
858.8673	1092.3584	22239.15	21291.5
859.0123	1094.3235	22089.95	21146.2
859.1573	1096.2879	22003.25	21057.3
859.3022	1098.2515	22052.55	21108.3
859.4472	1100.2145	22107.35	21164.9
859.5922	1102.1767	22182.7	21234
859.7371	1104.1382	22383.3	21440.95
859.8821	1106.099	22559.95	21610.8
860.027	1108.0591	22737.6	21795.8
860.172	1110.0185	22868.7	21922.5
860.3169	1111.9771	22939.35	21997.75
860.4619	1113.9351	22671.8	21727.6
860.6068	1115.8923	22401.7	21458.35
860.7517	1117.8488	22127.9	21182.75
860.8967	1119.8045	21855.65	20914.15
861.0416	1121.7596	21698.45	20752.85
861.1865	1123.7139	21632.15	20691.3
861.3314	1125.6675	21635.55	20694.25
861.4763	1127.6204	21722.25	20777.95
861.6212	1129.5726	21710.8	20766.1
861.7661	1131.524	21649.75	20705.55
861.911	1133.4748	21687.8	20744.95
862.0559	1135.4248	21644.3	20698.3
862.2008	1137.3741	21600	20655
862.3457	1139.3226	21564.05	20619.55
862.4905	1141.2705	21545.55	20601.35
862.6354	1143.2176	21420.15	20471.15
862.7803	1145.164	21423.85	20477.5
862.9251	1147.1097	21450.2	20506.55
863.07	1149.0546	21471.75	20527.85
863.2148	1150.9989	21403.7	20460.3
863.3597	1152.9424	21270.85	20327.4
863.5045	1154.8852	21064.15	20118.2
863.6493	1156.8272	20959.45	20014.5
863.7942	1158.7686	20948	19994.85
863.939	1160.7092	20906.25	19962.35
864.0838	1162.6491	20858.25	19911.45
864.2286	1164.5883	20947.3	20001.6
864.3734	1166.5267	21003.25	20058.05
864.5182	1168.4644	21116.75	20172.95
864.663	1170.4014	21340.95	20397.35
864.8078	1172.3377	21587.75	20647.1
864.9526	1174.2732	21831.2	20890.05
865.0974	1176.2081	22107.55	21166.35
865.2421	1178.1421	22288.5	21341.65
865.3869	1180.0755	22542	21599.35
865.5317	1182.0082	22591.95	21648.8
865.6764	1183.9401	22650.8	21711.6
865.8212	1185.8713	22464.55	21531.55
865.9659	1187.8017	22236.95	21309.4
866.1106	1189.7315	21955.55	21036.05
866.2554	1191.6605	21682.25	20759.75
866.4001	1193.5888	21453.3	20526.55
866.5448	1195.5163	21357.4	20424.4
866.6895	1197.4432	21262.7	20328.2
866.8342	1199.3693	21221.9	20283.2
866.9789	1201.2947	21125.95	20179.85
867.1236	1203.2193	21082.3	20141.8
867.2683	1205.1432	21106.35	20168.3
867.413	1207.0664	21110.85	20169.5
867.5576	1208.9889	21135.45	20194.55
867.7023	1210.9106	21140.55	20203.7
867.847	1212.8316	21202.6	20265.75
867.9916	1214.7519	21262.4	20313.3
868.1363	1216.6715	21193.1	20255.3
868.2809	1218.5903	21226.75	20286.3
868.4255	1220.5084	21178.35	20237.8
868.5701	1222.4257	21213.05	20276.5
868.7148	1224.3424	21080.7	20141.3
868.8594	1226.2583	21140.5	20198.55
869.004	1228.1735	21238.6	20298.1
869.1486	1230.0879	21310.05	20372
869.2932	1232.0016	21431.05	20491.2
869.4377	1233.9146	21456.7	20515.65
869.5823	1235.8269	21330.8	20390.35
869.7269	1237.7384	21228.65	20289.95
869.8715	1239.6492	21018.05	20080.75
870.016	1241.5592	20909.5	19974.95
870.1606	1243.4686	20814.1	19876.7
870.3051	1245.3772	20775.9	19838.2
870.4496	1247.285	20803.15	19864.6
870.5941	1249.1922	20754.95	19815.95
870.7387	1251.0986	20747.35	19807.75
870.8832	1253.0042	20697.5	19760.8
871.0277	1254.9092	20743	19805.4
871.1722	1256.8134	20792.05	19856.75
871.3167	1258.7169	20983.4	20043.3
871.4611	1260.6196	21113.75	20181
871.6056	1262.5216	21313.85	20373.85
871.7501	1264.4229	21462.75	20528.1
871.8945	1266.3234	21622.25	20686.2
872.039	1268.2232	21686.7	20748
872.1834	1270.1223	21664.1	20722.95
872.3278	1272.0207	21668.5	20729.15
872.4723	1273.9183	21618.05	20679.2
872.6167	1275.8151	21499.85	20560.85
872.7611	1277.7113	21425.5	20488.2
872.9055	1279.6067	21323	20387.2
873.0499	1281.5014	21231.3	20295.15
873.1943	1283.3953	21230.75	20291.2
873.3386	1285.2885	21227.65	20291.6
873.483	1287.181	21301.6	20367.2
873.6274	1289.0727	21395.55	20463.4
873.7717	1290.9637	21475.1	20539.9
873.9161	1292.854	21633.55	20694.05
874.0604	1294.7435	21688.45	20751.7
874.2047	1296.6323	21839.9	20900.5
874.349	1298.5204	22034.65	21100.45
874.4933	1300.4077	22269.3	21333.15
874.6376	1302.2943	22412.75	21474.8
874.7819	1304.1802	22432.15	21495.9
874.9262	1306.0653	22241.35	21304.6
875.0705	1307.9497	22016.95	21082.7
875.2147	1309.8333	21861.55	20925.05
875.359	1311.7162	21732.8	20796.7
875.5032	1313.5984	21736.75	20797.9
875.6475	1315.4798	21772.45	20820.65
875.7917	1317.3605	21820.6	20868.45
875.9359	1319.2405	21885.1	20945.65
876.0801	1321.1197	21850.05	20909.9
876.2243	1322.9982	21691.3	20751.45
876.3685	1324.876	21584.25	20645.65
876.5127	1326.753	21467	20529.5
876.6569	1328.6293	21435.55	20497.95
876.801	1330.5048	21442.4	20504.6
876.9452	1332.3796	21360.1	20422.3
877.0893	1334.2537	21367.15	20407.25
877.2335	1336.127	21250.65	20312.35
877.3776	1337.9996	21212.25	20275.85
877.5217	1339.8714	21226.5	20289.55
877.6658	1341.7426	21194.95	20213.7
877.8099	1343.6129	21102.35	20163.65
877.954	1345.4826	21045.7	20108.35
878.0981	1347.3515	21031.45	20089.5
878.2422	1349.2196	20957.15	20022.1
878.3862	1351.087	20973.7	20036.65
878.5303	1352.9537	21036.8	20099.55
878.6743	1354.8197	21117.9	20180.15
878.8184	1356.6849	21304	20367.5
878.9624	1358.5493	21379.15	20442.35
879.1064	1360.4131	21391.15	20457.4
879.2504	1362.276	21351	20415.85
879.3944	1364.1383	21204.05	20267.55
879.5384	1365.9998	20941.6	20004.15
879.6823	1367.8606	20583.45	19644.45
879.8263	1369.7206	20293.75	19358.35
879.9702	1371.5799	20087.5	19146.45
880.1142	1373.4384	19863.9	18924.1
880.2581	1375.2962	19720.25	18783.1
880.402	1377.1533	19398.35	18464.45
880.5459	1379.0096	19035.9	18104.65
880.6898	1380.8652	18794.4	17864.45
880.8337	1382.7201	18513.55	17581.55
880.9776	1384.5742	18255.9	17319.3
881.1215	1386.4275	18056.4	17118.65
881.2653	1388.2802	17895.6	16962.75
881.4092	1390.132	17762.9	16828.15
881.553	1391.9832	17715.3	16775
881.6968	1393.8336	17586.6	16649.65
881.8406	1395.6832	17521.3	16584.5
881.9844	1397.5322	17467.4	16532.2
882.1282	1399.3803	17405.2	16466.35
882.272	1401.2278	17334.35	16402.2
882.4158	1403.0745	17305.2	16373.55
882.5595	1404.9204	17280.05	16347.5
882.7033	1406.7656	17313.15	16380.15
882.847	1408.6101	17247.05	16312.45
882.9908	1410.4538	17235.05	16300.95
883.1345	1412.2968	17266.4	16329.05
883.2782	1414.139	17269.55	16336
883.4219	1415.9805	17347.35	16414.9
883.5656	1417.8213	17381.8	16441.3
883.7092	1419.6613	17469.1	16535.4
883.8529	1421.5006	17659.65	16725.55
883.9965	1423.3391	17850.15	16917.65
884.1402	1425.1769	18134.05	17199.25
884.2838	1427.0139	18574.8	17642.35
884.4274	1428.8502	19166.95	18231.7
884.571	1430.6858	19713.55	18778.95
884.7146	1432.5206	20022.75	19090.45
884.8582	1434.3547	20269.1	19335.35
885.0018	1436.188	20296.45	19361.2
885.1453	1438.0206	20226.9	19295.25
885.2889	1439.8524	20025.3	19092.35
885.4324	1441.6835	19897	18965.15
885.5759	1443.5139	19804.35	18871.75
885.7194	1445.3435	19677.35	18745.65
885.8629	1447.1724	19660.4	18729.85
886.0064	1449.0005	19582.75	18651.2
886.1499	1450.8279	19446.4	18514.05
886.2933	1452.6545	19429.45	18500.2
886.4368	1454.4804	19446.3	18518
886.5802	1456.3056	19464.2	18527.05
886.7237	1458.13	19341.65	18414.05
886.8671	1459.9536	19101.85	18170.7
887.0105	1461.7766	18759.6	17828.65
887.1539	1463.5987	18341.55	17409.65
887.2972	1465.4202	17943.25	17011.75
887.4406	1467.2409	17599.5	16665
887.584	1469.0608	17335.95	16404.6
887.7273	1470.88	17050.45	16119.7
887.8706	1472.6984	16791.2	15862.6
888.0139	1474.5161	16567.65	15635.65
888.1572	1476.3331	16419.65	15487.75
888.3005	1478.1493	16267.25	15335.05
888.4438	1479.9648	16174.3	15245.15
888.5871	1481.7795	16038.9	15103.65
888.7303	1483.5935	15948.65	15016.65
888.8736	1485.4067	15868.7	14939.1
889.0168	1487.2192	15832.85	14900.9
889.16	1489.031	15790.55	14857.2
889.3032	1490.842	15736.5	14806.9
889.4464	1492.6522	15656.65	14722.5
889.5896	1494.4618	15639.05	14705.1
889.7327	1496.2705	15624.95	14695.65
889.8759	1498.0785	15574.75	14643.15
890.019	1499.8858	15485.9	14555.4
890.1622	1501.6924	15459.4	14530.9
890.3053	1503.4981	15444.45	14517.1
890.4484	1505.3032	15375.6	14446.05
890.5914	1507.1075	15334.8	14405.45
890.7345	1508.911	15306.1	14374.1
890.8776	1510.7138	15251.25	14319.1
891.0206	1512.5159	15151.95	14222.8
891.1637	1514.3172	15095.2	14168.55
891.3067	1516.1178	15004.9	14077.95
891.4497	1517.9176	14994.7	14065.4
891.5927	1519.7166	14966.85	14043.45
891.7357	1521.515	14898.8	13966.5
891.8786	1523.3126	14855.25	13927.1
892.0216	1525.1094	14802.25	13873.6
892.1645	1526.9055	14744.4	13818.05
892.3074	1528.7008	14674.75	13749.8
892.4503	1530.4954	14593	13668.35
892.5932	1532.2893	14583.9	13660.5
892.7361	1534.0824	14528.75	13601.65
892.879	1535.8747	14497.95	13575.05
893.0218	1537.6663	14467.25	13544.45
893.1647	1539.4572	14420.45	13495.55
893.3075	1541.2473	14405.85	13479
893.4503	1543.0367	14376.6	13454.6
893.5931	1544.8253	14335.75	13406.35
893.7359	1546.6132	14355.85	13429.3
893.8787	1548.4003	14306.4	13372
894.0214	1550.1867	14311.6	13384.65
894.1642	1551.9723	14311.5	13387.15
894.3069	1553.7572	14363.15	13439.55
894.4496	1555.5414	14356.15	13434.6
894.5923	1557.3247	14401.1	13483.2
894.735	1559.1074	14427.45	13509.6
894.8777	1560.8893	14484.35	13567.6
895.0204	1562.6705	14521.55	13604.95
895.163	1564.4509	14576.65	13663.15
895.3056	1566.2305	14629.95	13717.75
895.4482	1568.0094	14707.05	13793.05
895.5908	1569.7876	14739	13822.85
895.7334	1571.565	14718.5	13801.05
895.876	1573.3417	14722.2	13805.65
896.0186	1575.1176	14701.25	13784.9
896.1611	1576.8928	14656.4	13743.1
896.3036	1578.6672	14537.25	13630.75
896.4461	1580.4409	14441.6	13533.8
896.5886	1582.2138	14293.05	13381.3
896.7311	1583.986	14194.95	13282.6
896.8736	1585.7575	14122.95	13210
897.0161	1587.5282	14048.9	13137.75
897.1585	1589.2981	13996.7	13087.6
897.3009	1591.0673	13932.6	13025.85
897.4433	1592.8358	13957.65	13046.85
897.5857	1594.6035	13970.15	13058.95
897.7281	1596.3704	13936.95	13023.3
897.8705	1598.1366	13935.2	13024.4
898.0128	1599.9021	13993.7	13088.85
898.1551	1601.6668	14026.4	13114.6
898.2975	1603.4308	14060.7	13146.45
898.4398	1605.194	14161.45	13245.35
898.5821	1606.9564	14264.4	13360.7
898.7243	1608.7182	14372.1	13469.1
898.8666	1610.4791	14531.2	13636.45
899.0088	1612.2394	14689.35	13792.15
899.1511	1613.9988	14833	13933.45
899.2933	1615.7576	15073.2	14167.55
899.4355	1617.5156	15228	14312.55
899.5776	1619.2728	15414.25	14500.5
899.7198	1621.0293	15495.8	14586.9
899.862	1622.785	15496.6	14586.25
900.0041	1624.54	15359.9	14453.2
900.1462	1626.2942	15181.2	14278.25
900.2883	1628.0477	14911	14005.25
900.4304	1629.8005	14672.1	13764.95
900.5725	1631.5525	14451.5	13547.9
900.7145	1633.3037	14239.65	13336.75
900.8566	1635.0542	14093.25	13192.3
900.9986	1636.804	13975.05	13073.5
901.1406	1638.553	13923.3	12953.75
901.2826	1640.3013	13813.3	12911.6
901.4245	1642.0488	13797	12891.9
901.5665	1643.7955	13804.35	12905.2
901.7085	1645.5416	13846.6	12945.7
901.8504	1647.2868	13908.15	13005.65
901.9923	1649.0313	13988.85	13083.45
902.1342	1650.7751	14136.1	13230.7
902.2761	1652.5181	14239.7	13337.15
902.4179	1654.2604	14401.85	13501.25
902.5598	1656.0019	14676.15	13775.05
902.7016	1657.7427	14942.05	14039.4
902.8434	1659.4828	15230.4	14323.5
902.9852	1661.222	15421.15	14515.5
903.127	1662.9606	15404.4	14500
903.2687	1664.6984	15167.45	14262.35
903.4105	1666.4354	14732.7	13825
903.5522	1668.1717	14250.4	13343.5
903.6939	1669.9072	13758.5	12851.55
903.8356	1671.642	13316.7	12408.1
903.9773	1673.3761	12957.25	12050.9
904.119	1675.1094	12648.3	11744.6
904.2606	1676.8419	12417.5	11514.45
904.4022	1678.5737	12201.2	11296.55
904.5439	1680.3048	12061	11155.4
904.6855	1682.0351	11913.55	11010.35
904.827	1683.7646	11788.35	10882.6
904.9686	1685.4934	11728	10825.6
905.1101	1687.2215	11632.75	10729.85
905.2517	1688.9488	11556.5	10654.45
905.3932	1690.6754	11465.25	10563.1
905.5347	1692.4012	11446.7	10542.15
905.6761	1694.1263	11389.5	10484.6
905.8176	1695.8506	11329.45	10426
905.9591	1697.5742	11294.25	10395.4
906.1005	1699.297	11235.6	10338.05
906.2419	1701.0191	11144.7	10248.4
906.3833	1702.7404	11114	10216.45
906.5246	1704.461	11054.9	10153.1
906.666	1706.1808	10983.3	10083.95
906.8073	1707.8999	10958.9	10059.2
906.9487	1709.6182	10931.3	10034.45
907.09	1711.3358	10865.95	9971.7
907.2313	1713.0527	10825.6	9931.4
907.3725	1714.7688	10788.45	9885.35
907.5138	1716.4841	10725.65	9826.05
907.655	1718.1987	10712.5	9808.2
907.7962	1719.9126	10673.05	9777.95
907.9374	1721.6257	10623.35	9727.55
908.0786	1723.338	10611.15	9717.6
908.2198	1725.0496	10564.65	9666.15
908.3609	1726.7605	10519.65	9623.15
908.502	1728.4706	10479.8	9581.8
908.6431	1730.18	10411.85	9516.65
908.7842	1731.8886	10426.25	9531.7
908.9253	1733.5964	10392.45	9476.3
909.0664	1735.3036	10347.25	9447.95
909.2074	1737.0099	10322.55	9428.1
909.3484	1738.7156	10261.9	9367.3
909.4894	1740.4204	10254.1	9357.55
909.6304	1742.1246	10240.95	9345.1
909.7714	1743.8279	10190.6	9294.55
909.9123	1745.5306	10166.2	9273.4
910.0532	1747.2325	10137.9	9243
910.1941	1748.9336	10081.2	9185.45
910.335	1750.634	10022.1	9124.2
910.4759	1752.3336	10007.85	9113.05
910.6168	1754.0325	9999.25	9108.2
910.7576	1755.7307	9959.4	9065.05
910.8984	1757.4281	9967	9073
911.0392	1759.1247	9942.4	9037.6
911.18	1760.8206	9921.7	9018.5
911.3208	1762.5158	9905.7	9003.55
911.4615	1764.2102	9860	8964.4
911.6022	1765.9039	9819.15	8922.75
911.7429	1767.5968	9790.25	8899.4
911.8836	1769.289	9772.2	8879.7
912.0243	1770.9804	9730.15	8836.6
912.1649	1772.6711	9721.65	8823.2
912.3056	1774.361	9697.9	8799.95
912.4462	1776.0502	9680.8	8783.75
912.5868	1777.7386	9672.15	8771.85
912.7274	1779.4263	9629.35	8733.25
912.8679	1781.1132	9618.4	8726.65
913.0084	1782.7994	9580.15	8688.4
913.149	1784.4849	9550.55	8661.05
913.2895	1786.1696	9547.1	8647.6
913.4299	1787.8535	9499.7	8609.8
913.5704	1789.5367	9459.1	8569.05
913.7108	1791.2192	9488	8598.3
913.8513	1792.9009	9439.55	8519.6
913.9917	1794.5818	9426.05	8528.2
914.132	1796.2621	9404	8508.9
914.2724	1797.9415	9366.45	8469.5
914.4128	1799.6202	9319.35	8424.4
914.5531	1801.2982	9328.1	8434.25
914.6934	1802.9755	9306.95	8412
914.8337	1804.6519	9275.45	8382.25
914.9739	1806.3277	9223.85	8332.2
915.1142	1808.0027	9185.6	8294.1
915.2544	1809.6769	9180	8289.15
915.3946	1811.3504	9170.5	8280.3
915.5348	1813.0231	9150.6	8259.65
915.675	1814.6951	9111.15	8223.65
915.8151	1816.3664	9135.85	8241.4
915.9553	1818.0369	9110.3	8218.35
916.0954	1819.7067	9070.35	8178.85
916.2355	1821.3757	9063.15	8167.9
916.3755	1823.044	9036.45	8142.5
916.5156	1824.7115	9027.8	8131
916.6556	1826.3783	8968.2	8075.75
916.7956	1828.0443	8946.2	8053.45
916.9356	1829.7096	8924.1	8030.9
917.0756	1831.3741	8916.15	8018.75
917.2155	1833.0379	8888.9	7999
917.3555	1834.701	8848.2	7958.05
917.4954	1836.3633	8838.75	7951.25
917.6353	1838.0248	8828.15	7937.25
917.7751	1839.6856	8808.15	7916.2
917.915	1841.3457	8790.7	7897.5
918.0548	1843.005	8774	7880.4
918.1946	1844.6636	8779.45	7885.95
918.3344	1846.3214	8747.8	7853.05
918.4742	1847.9785	8747.85	7856
918.6139	1849.6349	8717.75	7823.55
918.7537	1851.2904	8693.05	7790.1
918.8934	1852.9453	8666	7769.35
919.0331	1854.5994	8638.7	7741.45
919.1727	1856.2528	8636.25	7736.2
919.3124	1857.9054	8608.45	7713.55
919.452	1859.5572	8622.15	7729.85
919.5916	1861.2083	8567.8	7673.8
919.7312	1862.8587	8560.35	7667.4
919.8708	1864.5084	8555.25	7659.9
920.0103	1866.1572	8551.3	7653.8
920.1498	1867.8054	8492.5	7597.35
920.2893	1869.4528	8460.8	7563
920.4288	1871.0994	8457.4	7561.25
920.5683	1872.7453	8442.35	7547.25
920.7077	1874.3905	8448.25	7539.8
920.8471	1876.0349	8401.85	7506.7
920.9865	1877.6786	8393.4	7496.75
921.1259	1879.3215	8356.1	7463.45
921.2653	1880.9637	8347.45	7452.85
921.4046	1882.6051	8330.25	7436.25
921.5439	1884.2458	8320.2	7425
921.6832	1885.8858	8295.1	7402.2
921.8225	1887.525	8242.75	7347.3
921.9617	1889.1634	8222.05	7327.5
922.101	1890.8011	8216.5	7319.95
922.2402	1892.4381	8188.4	7294.05
922.3794	1894.0743	8187	7294.05
922.5185	1895.7098	8163.65	7270.9
922.6577	1897.3446	8145.9	7251.6
922.7968	1898.9786	8119.05	7222.8
922.9359	1900.6118	8094.85	7203.5
923.075	1902.2443	8055.35	7163.65
923.214	1903.8761	8055.75	7160.7
923.3531	1905.5071	8013.85	7121.7
923.4921	1907.1374	7974.35	7082.3
923.6311	1908.7669	7961.55	7069.2
923.77	1910.3957	7952.9	7062.85
923.909	1912.0237	7916.3	7022.75
924.0479	1913.651	7876.65	6984.45
924.1868	1915.2776	7885.65	6994.5
924.3257	1916.9034	7819	6928.45
924.4646	1918.5285	7802.4	6911.65
924.6034	1920.1528	7775.5	6882.55
924.7422	1921.7764	7764.3	6871.05
924.881	1923.3992	7753.8	6860.5
925.0198	1925.0213	7695.1	6801.9
925.1586	1926.6427	7659.15	6769.95
925.2973	1928.2633	7721.45	6736.8
925.436	1929.8832	7653.1	6759.6
925.5747	1931.5023	7599.35	6707.55
925.7134	1933.1207	7564.25	6671.9
925.852	1934.7383	7563.4	6674.45
925.9906	1936.3552	7527.5	6637.1
926.1292	1937.9714	7504.8	6614.2
926.2678	1939.5868	7488.15	6592.75
926.4064	1941.2015	7457.25	6562.05
926.5449	1942.8154	7427.9	6532.4
926.6834	1944.4286	7395.1	6502.2
926.8219	1946.041	7385.95	6472.05
926.9604	1947.6528	7338.8	6443.3
927.0988	1949.2637	7321.85	6432.45
927.2372	1950.8739	7297.85	6407.75
927.3756	1952.4834	7297	6404.65
927.514	1954.0921	7265.45	6374.1
927.6523	1955.7001	7245.95	6352.05
927.7907	1957.3074	7223.8	6334.55
927.929	1958.9139	7173.75	6284.95
928.0673	1960.5197	7174.8	6285.15
928.2055	1962.1247	7140.55	6250.9
928.3438	1963.729	7100.1	6211
928.482	1965.3325	7084.3	6191.15
928.6202	1966.9353	7055.6	6169.6
928.7584	1968.5374	7028	6139.6
928.8965	1970.1387	7001.9	6112.45
929.0346	1971.7393	6991.6	6103.5
929.1727	1973.3392	6974.55	6084.4
929.3108	1974.9383	6935.5	6047.7
929.4489	1976.5366	6915.3	6029.25
929.5869	1978.1342	6892.25	6006.6
929.7249	1979.7311	6879.85	5993.1
929.8629	1981.3273	6882.5	5995.85
930.0009	1982.9227	6854.7	5969.2
930.1388	1984.5173	6823.5	5939.3
930.2767	1986.1112	6789.55	5905.05
930.4146	1987.7044	6784.35	5899.65
930.5525	1989.2968	6765.45	5878.45
930.6904	1990.8885	6753.25	5864.65
930.8282	1992.4795	6745.7	5860.15
930.966	1994.0697	6695.25	5811.85
931.1038	1995.6592	6671	5786.4
931.2415	1997.2479	6664.75	5779.65
931.3793	1998.8359	6663.8	5779.1
931.517	2000.4232	6624.7	5747.15
931.6547	2002.0097	6614.6	5734.25
931.7923	2003.5955	6568.55	5687.15
931.93	2005.1805	6555.65	5672.55
932.0676	2006.7648	6549.5	5666.6
932.2052	2008.3484	6527.65	5645.6
932.3427	2009.9312	6549.15	5666.7
932.4803	2011.5133	6479.95	5601.85
932.6178	2013.0946	6479.15	5597.55
932.7553	2014.6752	6464.4	5583.4
932.8928	2016.2551	6450.75	5568.5
933.0302	2017.8342	6435.55	5552.6
933.1676	2019.4126	6404.35	5524.95
933.305	2020.9902	6382.6	5503.55
933.4424	2022.5672	6384.55	5504.25
933.5798	2024.1433	6348.5	5466.4
933.7171	2025.7188	6333	5454.15
933.8544	2027.2935	6314.8	5433.95
933.9917	2028.8674	6289.95	5409.5
934.129	2030.4406	6287.6	5411
934.2662	2032.0131	6243.1	5367.55
934.4034	2033.5849	6248.5	5363.4
934.5406	2035.1559	6234.85	5356.95
934.6778	2036.7261	6209.8	5327.65
934.8149	2038.2957	6196.25	5313
934.952	2039.8645	6188.85	5304.15
935.0891	2041.4325	6201.8	5315.95
935.2262	2042.9998	6155.6	5272.4
935.3632	2044.5664	6162.95	5280.7
935.5002	2046.1323	6125.2	5243.05
935.6372	2047.6974	6112	5235.6
935.7742	2049.2617	6084.9	5203.35
935.9111	2050.8254	6102.5	5199.55
936.048	2052.3883	6083.65	5199.65
936.1849	2053.9504	6058.55	5174.85
936.3218	2055.5118	6041.1	5158.55
936.4586	2057.0725	6011.2	5122.6
936.5955	2058.6325	6014.3	5133.85
936.7323	2060.1917	5973.9	5093.25
936.869	2061.7502	5989.45	5106.5
937.0058	2063.3079	5951.25	5073.85
937.1425	2064.8649	5950.85	5066.15
937.2792	2066.4212	5916.9	5036.3
937.4159	2067.9767	5911.2	5028.9
937.5525	2069.5315	5896.4	5012.8
937.6891	2071.0856	5855.15	4973.2
937.8257	2072.6389	5819.75	4936.8
937.9623	2074.1915	5819.8	4940.7
938.0989	2075.7433	5787.4	4905.65
938.2354	2077.2945	5780.8	4896.55
938.3719	2078.8448	5768.05	4883.95
938.5084	2080.3945	5757.4	4874.65
938.6448	2081.9434	5755.35	4870.75
938.7812	2083.4916	5722.55	4834.35
938.9176	2085.039	5720.6	4828.05
939.054	2086.5857	5696.6	4806.4
939.1903	2088.1317	5669.85	4779.15
939.3267	2089.677	5678.65	4784.75
939.463	2091.2215	5656.05	4766.2
939.5992	2092.7652	5643.2	4748.7
939.7355	2094.3083	5626.7	4736.9
939.8717	2095.8506	5614.35	4727.15
940.0079	2097.3921	5617	4728.4
940.1441	2098.933	5583.45	4699.1
940.2802	2100.4731	5574	4689
940.4163	2102.0124	5577	4680.9
940.5524	2103.5511	5555.75	4668.55
940.6885	2105.089	5546.6	4658.9
940.8245	2106.6261	5532.85	4645.1
940.9606	2108.1626	5526.7	4639.5
941.0965	2109.6983	5530.5	4617.5
941.2325	2111.2332	5512.7	4624.65
941.3684	2112.7675	5496.55	4605.85
941.5044	2114.301	5471.95	4582.6
941.6403	2115.8337	5456.1	4568.5
941.7761	2117.3657	5446.2	4559.85
941.912	2118.897	5417.6	4531.65
942.0478	2120.4276	5404.9	4509.6
942.1835	2121.9575	5386.5	4498.7
942.3193	2123.4866	5422.55	4518.3
942.455	2125.0149	5380.05	4491.5
942.5907	2126.5426	5349.75	4466.95
942.7264	2128.0695	5310.7	4424.6
942.8621	2129.5956	5337.55	4458.55
942.9977	2131.1211	5330.3	4442.1
943.1333	2132.6458	5305.55	4421.4
943.2689	2134.1698	5300.9	4411.9
943.4044	2135.693	5303.55	4411.7
943.54	2137.2155	5290	4397.65
943.6755	2138.7373	5247.2	4361.9
943.8109	2140.2584	5233.55	4349.95
943.9464	2141.7787	5236.65	4350.1
944.0818	2143.2983	5202.3	4325.05
944.2172	2144.8171	5172.8	4293.55
944.3526	2146.3353	5168.65	4283.4
944.4879	2147.8527	5151.1	4267.9
944.6232	2149.3693	5164.65	4278.55
944.7585	2150.8853	5128.2	4238.1
944.8938	2152.4005	5097.2	4208.5
945.029	2153.9149	5107.4	4217.6
945.1642	2155.4287	5102.3	4212.6
945.2994	2156.9417	5104.5	4214.85
945.4346	2158.454	5081.05	4193.15
945.5697	2159.9655	5058.35	4178.35
945.7048	2161.4764	5063.95	4179.8
945.8399	2162.9865	5025.95	4142.55
945.9749	2164.4958	5022.3	4139.15
946.1099	2166.0045	5021.95	4134.2
946.2449	2167.5124	5000.5	4115.3
946.3799	2169.0195	4993.35	4106.7
946.5148	2170.526	4980.35	4090.95
946.6498	2172.0317	4964.15	4076.3
946.7846	2173.5367	4953.85	4066.2
946.9195	2175.0409	4932.65	4049
947.0543	2176.5445	4945.9	4058.65
947.1891	2178.0473	4925.4	4035
947.3239	2179.5494	4912.35	4022.6
947.4587	2181.0507	4895.95	4006.7
947.5934	2182.5513	4871.95	3986
947.7281	2184.0512	4876.95	3987.35
947.8628	2185.5504	4844.9	3957.9
947.9974	2187.0488	4829.25	3945.65
948.132	2188.5465	4818.1	3935.1
948.2666	2190.0435	4805.85	3921
948.4012	2191.5397	4791.65	3903.65
948.5357	2193.0353	4781.6	3890.25
948.6702	2194.5301	4758.85	3870.75
948.8047	2196.0241	4766.6	3873.95
948.9392	2197.5175	4742.35	3851.5
949.0736	2199.0101	4725.95	3831.15
949.208	2200.502	4698.4	3811
949.3424	2201.9931	4684.3	3797.2
949.4767	2203.4835	4689.75	3804.85
949.611	2204.9733	4654.55	3765.65
949.7453	2206.4622	4643	3760.75
949.8796	2207.9505	4620	3735.4
950.0138	2209.438	4616.85	3736.1
950.148	2210.9248	4619.35	3733.3
950.2822	2212.4109	4590.15	3703.6
950.4164	2213.8962	4584.85	3693.1
950.5505	2215.3809	4577.95	3685.25
950.6846	2216.8648	4568.55	3675.65
950.8186	2218.3479	4554.2	3656.85
950.9527	2219.8304	4554.7	3657.45
951.0867	2221.3121	4520.15	3624.75
951.2207	2222.7931	4515.2	3624.15
951.3546	2224.2733	4495.1	3602.5
951.4886	2225.7529	4489.2	3601.7
951.6225	2227.2317	4470.75	3583.15
951.7563	2228.7098	4464.45	3582.9
951.8902	2230.1872	4443.8	3562.2
952.024	2231.6638	4439.3	3556.85
952.1578	2233.1397	4421.7	3533.15
952.2916	2234.6149	4415.75	3530.95
952.4253	2236.0894	4400.45	3513
952.559	2237.5632	4397.05	3500.3
952.6927	2239.0362	4367.2	3479.55
952.8263	2240.5085	4366.55	3480
952.9599	2241.9801	4338.2	3449.35
953.0935	2243.4509	4331	3442.55
953.2271	2244.921	4321.85	3430.8
953.3606	2246.3904	4308.4	3415.7
953.4941	2247.8591	4292.85	3404.35
953.6276	2249.3271	4277.85	3389.45
953.7611	2250.7943	4284.2	3393.7
953.8945	2252.2608	4257.15	3367.55
954.0279	2253.7266	4250.15	3363
954.1612	2255.1917	4242.25	3352.65
954.2946	2256.656	4225.1	3336
954.4279	2258.1197	4198.55	3314.85
954.5612	2259.5826	4209.7	3321.85
954.6944	2261.0447	4191.2	3302.2
954.8276	2262.5062	4184.9	3294.3
954.9608	2263.9669	4198.9	3305.65
955.094	2265.4269	4178	3291.5
955.2271	2266.8862	4174	3285.6
955.3602	2268.3448	4152.1	3265.2
955.4933	2269.8026	4146.9	3260.15
955.6264	2271.2598	4133.85	3245.25
955.7594	2272.7162	4135.75	3250.15
955.8924	2274.1719	4115.25	3225.15
956.0253	2275.6268	4114.35	3222.7
956.1583	2277.0811	4118.75	3227.85
956.2912	2278.5346	4082.1	3194.25
956.4241	2279.9874	4072.65	3188.15
956.5569	2281.4395	4061	3177.45
956.6897	2282.8908	4079.15	3192
956.8225	2284.3414	4061	3172.65
956.9553	2285.7914	4041.45	3153.65
957.088	2287.2406	4027.4	3136.8
957.2207	2288.689	4023.1	3131.9
957.3534	2290.1368	4001.55	3105.9
957.486	2291.5838	4004.25	3109.45
957.6186	2293.0302	4001.65	3105.7
957.7512	2294.4758	3974.4	3082.15
957.8838	2295.9206	3964	3073.1
958.0163	2297.3648	3971.35	3084.45
958.1488	2298.8082	3957.85	3071.2
958.2813	2300.251	3947.3	3056.05
958.4137	2301.693	3955.75	3060.55
958.5461	2303.1343	3925.35	3034.75
958.6785	2304.5748	3930.25	3043.8
958.8108	2306.0147	3894.95	3009.05
958.9432	2307.4538	3899.05	3012.2
959.0754	2308.8922	3874.75	2988.4
959.2077	2310.3299	3876.55	2991.75
959.3399	2311.7669	3862.65	2976.4
959.4721	2313.2031	3869.5	2983.75
959.6043	2314.6387	3840.65	2951.6
959.7365	2316.0735	3825.1	2937.2
959.8686	2317.5076	3842.2	2951.5
960.0006	2318.941	3811.4	2921.2
960.1327	2320.3737	3805.8	2915.95
960.2647	2321.8056	3800.45	2907.8
960.3967	2323.2369	3796.4	2906.75
960.5287	2324.6674	3790.95	2902.35
960.6606	2326.0972	3771.05	2881.2
960.7925	2327.5263	3746.8	2856.95
960.9244	2328.9547	3748.15	2856.75
961.0562	2330.3823	3739.35	2849
961.1881	2331.8092	3748.4	2853.35
961.3198	2333.2355	3710.65	2817.6
961.4516	2334.661	3717.75	2826.8
961.5833	2336.0858	3714.9	2821.65
961.715	2337.5098	3697.8	2808.15
961.8467	2338.9332	3712.3	2824.85
961.9783	2340.3558	3676.85	2786.95
962.1099	2341.7778	3670.3	2786
962.2415	2343.199	3668.55	2777.45
962.373	2344.6195	3657.4	2768.15
962.5045	2346.0393	3654.25	2767.75
962.636	2347.4583	3651.25	2761
962.7675	2348.8767	3640.35	2748.95
962.8989	2350.2943	3635.8	2746.7
963.0303	2351.7113	3635.1	2741.7
963.1617	2353.1275	3629.55	2740
963.293	2354.543	3617.2	2718.7
963.4243	2355.9578	3599.8	2710.6
963.5556	2357.3718	3576.45	2689
963.6868	2358.7852	3581.7	2694.05
963.818	2360.1978	3561.3	2676.5
963.9492	2361.6098	3549.95	2663.45
964.0803	2363.021	3535.45	2644.05
964.2114	2364.4315	3542.9	2655.25
964.3425	2365.8413	3532.65	2643.9
964.4736	2367.2504	3520.25	2636.75
964.6046	2368.6587	3510.5	2626.05
964.7356	2370.0664	3489.35	2602.6
964.8666	2371.4733	3493.35	2606.65
964.9975	2372.8795	3472.45	2585.1
965.1284	2374.285	3461.05	2575.15
965.2593	2375.6899	3444.85	2560.75
965.3901	2377.0939	3445.25	2560.75
965.5209	2378.4973	3428.95	2543.75
965.6517	2379.9	3425.2	2536.5
965.7825	2381.3019	3428.65	2545.25
965.9132	2382.7032	3412.75	2528.7
966.0439	2384.1037	3396.45	2517.6
966.1745	2385.5035	3385.85	2503.1
966.3051	2386.9027	3384.55	2502.4
966.4357	2388.3011	3362.25	2475.5
966.5663	2389.6987	3370.8	2488.85
966.6968	2391.0957	3354.45	2469.55
966.8273	2392.492	3336.25	2455.4
966.9578	2393.8876	3334	2449.75
967.0882	2395.2824	3332.3	2448.7
967.2186	2396.6765	3311.35	2427.75
967.349	2398.07	3295.85	2412.3
967.4793	2399.4627	3291.75	2405.6
967.6097	2400.8547	3284.25	2399.4
967.7399	2402.246	3277.3	2386.85
967.8702	2403.6366	3260	2377.15
968.0004	2405.0265	3251.9	2368.7
968.1306	2406.4156	3240.25	2352.95
968.2607	2407.8041	3237.5	2350.5
968.3909	2409.1918	3226.8	2340.45
968.521	2410.5789	3215.1	2331.4
968.651	2411.9652	3216.35	2329.7
968.781	2413.3508	3202.2	2316.1
968.911	2414.7358	3175.45	2289.55
969.041	2416.12	3179.6	2297.4
969.1709	2417.5035	3178.75	2295.65
969.3008	2418.8863	3169.6	2284.85
969.4307	2420.2684	3173.55	2287.95
969.5606	2421.6497	3165.3	2279.8
969.6904	2423.0304	3138.2	2254.15
969.8201	2424.4104	3137.45	2252
969.9499	2425.7896	3129.8	2243.3
970.0796	2427.1682	3124.05	2241.05
970.2093	2428.546	3120.15	2235.65
970.3389	2429.9232	3102.65	2218.4
970.4685	2431.2996	3105.2	2221.15
970.5981	2432.6753	3090.9	2205.6
970.7277	2434.0503	3090.85	2206
970.8572	2435.4246	3080.75	2197.25
970.9867	2436.7982	3082.9	2196
971.1161	2438.1711	3067.35	2183.8
971.2456	2439.5433	3059.1	2171.5
971.375	2440.9148	3041.9	2151.85
971.5043	2442.2856	3031.95	2148.35
971.6336	2443.6557	3024.95	2139.75
971.7629	2445.025	3019.35	2134.6
971.8922	2446.3937	3009.25	2124.1
972.0214	2447.7617	3006.35	2118.4
972.1506	2449.1289	3002.95	2118.65
972.2798	2450.4955	3006.15	2116.4
972.4089	2451.8613	2996.35	2112.3
972.538	2453.2265	2988.75	2104.05
972.6671	2454.5909	2986.8	2103.05
972.7961	2455.9546	2973.2	2087.85
972.9251	2457.3177	2972.45	2088.5
973.0541	2458.68	2971.4	2085
973.1831	2460.0416	2961.1	2074.4
973.312	2461.4025	2955.35	2070.75
973.4408	2462.7627	2953.9	2056.1
973.5697	2464.1222	2934.6	2050.15
973.6985	2465.4811	2937.55	2053.2
973.8273	2466.8392	2922.65	2036.85
973.956	2468.1966	2926.4	2038.95
974.0847	2469.5533	2927.45	2041.15
974.2134	2470.9093	2914	2027.4
974.3421	2472.2645	2900.85	2016.5
974.4707	2473.6191	2901.9	2019.35
974.5993	2474.973	2891.6	2005.35
974.7278	2476.3262	2893.5	2006.45
974.8563	2477.6787	2872.9	1987.5
974.9848	2479.0305	2871.05	1986.05
975.1132	2480.3816	2861.5	1974.05
975.2417	2481.7319	2857.65	1973.6
975.37	2483.0816	2847.75	1959.4
975.4984	2484.4306	2845.45	1957.25
975.6267	2485.7789	2833.15	1949.45
975.755	2487.1264	2816.3	1929.35
975.8833	2488.4733	2808.7	1925.65
976.0115	2489.8195	2816.95	1925.2
976.1397	2491.165	2801.8	1914.9
976.2678	2492.5097	2782.8	1897.4
976.3959	2493.8538	2786.05	1900.9
976.524	2495.1972	2766.45	1881.05
976.6521	2496.5398	2754.8	1868.45
976.7801	2497.8818	2763.7	1875.55
976.9081	2499.2231	2753.55	1868.7
977.036	2500.5637	2748.95	1858.8
977.164	2501.9035	2747.95	1859.65
977.2918	2503.2427	2733.65	1844.3
977.4197	2504.5812	2732.45	1845.95
977.5475	2505.919	2728.95	1841.1
977.6753	2507.256	2717.15	1831.65
977.8031	2508.5924	2714.4	1830.3
977.9308	2509.9281	2704.55	1812.8
978.0585	2511.2631	2707.4	1820.3
978.1861	2512.5974	2694	1809.55
978.3137	2513.9309	2685.4	1800.5
978.4413	2515.2638	2706.1	1792.45
978.5689	2516.596	2678.6	1792.6
978.6964	2517.9275	2663.35	1773.2
978.8239	2519.2583	2641.25	1754.45
978.9513	2520.5884	2651.5	1765.4
979.0788	2521.9178	2641.8	1755.05
979.2062	2523.2465	2648.5	1765.25
979.3335	2524.5745	2643.9	1758.45
979.4608	2525.9018	2619	1733.95
979.5881	2527.2284	2612.45	1728.15
979.7154	2528.5543	2626.4	1741.3
979.8426	2529.8796	2612.8	1727.75
979.9698	2531.2041	2612.55	1726.55
980.0969	2532.5279	2611.7	1729.65
980.224	2533.851	2595.2	1710.25
980.3511	2535.1735	2601.65	1716.7
980.4781	2536.4952	2606.95	1722.95
980.6052	2537.8163	2596.75	1710.5
980.7321	2539.1366	2580.25	1694.3
980.8591	2540.4562	2572.1	1682.95
980.986	2541.7752	2572	1684.85
981.1129	2543.0935	2573.6	1684.8
981.2397	2544.411	2578	1692.5
981.3665	2545.7279	2560.1	1672.95
981.4933	2547.0441	2562.2	1675.5
981.62	2548.3596	2565.85	1676.9
981.7467	2549.6744	2546.85	1661.2
981.8734	2550.9885	2554.25	1658.4
982.0001	2552.3019	2543.15	1655.3
982.1267	2553.6146	2532	1644.7
982.2532	2554.9266	2527.4	1638.25
982.3798	2556.2379	2521.8	1635.4
982.5063	2557.5485	2516.1	1630.4
982.6327	2558.8585	2524.75	1631.55
982.7592	2560.1677	2510.45	1621.15
982.8856	2561.4762	2510.3	1622.15
983.0119	2562.7841	2501.55	1613.05
983.1383	2564.0913	2485.75	1600.8
983.2646	2565.3977	2497.75	1609.45
983.3908	2566.7035	2492.55	1606.85
983.517	2568.0086	2490.65	1602
983.6432	2569.313	2485.3	1597.8
983.7694	2570.6167	2491.7	1598.8
983.8955	2571.9197	2479.05	1590.4
984.0216	2573.222	2479.5	1588.6
984.1476	2574.5236	2474.15	1587.5
984.2737	2575.8246	2470.15	1580.4
984.3996	2577.1248	2469.15	1579.75
984.5256	2578.4244	2466	1580.15
984.6515	2579.7232	2460.8	1575.2
984.7774	2581.0214	2477.5	1556.65
984.9032	2582.3189	2459.8	1573.7
985.029	2583.6157	2450.8	1558
985.1548	2584.9118	2454.5	1567.15
985.2806	2586.2072	2447.2	1561.8
985.4063	2587.5019	2436.95	1550.2
985.5319	2588.7959	2439.5	1552.15
985.6576	2590.0893	2440.65	1551.8
985.7832	2591.3819	2430.85	1544.4
985.9087	2592.6739	2423.2	1535.9
986.0343	2593.9652	2428.15	1541.7
986.1597	2595.2557	2427.15	1539.8
986.2852	2596.5456	2422.95	1535.8
986.4106	2597.8348	2414.65	1529.25
986.536	2599.1234	2407.95	1522.8
986.6614	2600.4112	2403.6	1516.95
986.7867	2601.6983	2405.65	1514.4
986.912	2602.9848	2404.5	1517.55
987.0372	2604.2705	2398.2	1504.2
987.1624	2605.5556	2399	1512.2
987.2876	2606.84	2392.75	1504.8
987.4128	2608.1237	2379.4	1492.1
987.5379	2609.4067	2361	1475.6
987.6629	2610.689	2373.25	1480.15
987.788	2611.9707	2368.4	1478.45
987.913	2613.2516	2357.55	1468.1
988.0379	2614.5319	2346	1460.45
988.1629	2615.8115	2342.95	1455.6
988.2878	2617.0903	2329.3	1442.7
988.4126	2618.3685	2321.85	1435.25
988.5375	2619.6461	2324.1	1436.95
988.6622	2620.9229	2320	1432.5
988.787	2622.199	2329.15	1441.7
988.9117	2623.4745	2325.65	1437.95
989.0364	2624.7493	2306.2	1418.7
989.161	2626.0234	2308.55	1424.8
989.2857	2627.2968	2299.4	1412.25
989.4102	2628.5695	2303.8	1416.05
989.5348	2629.8415	2298	1411.4
989.6593	2631.1128	2294.8	1407.25
989.7837	2632.3835	2279.55	1393.4
989.9082	2633.6535	2278.25	1391.9
990.0326	2634.9228	2276.85	1391.45
990.1569	2636.1914	2272.2	1387.4
990.2812	2637.4593	2267.25	1382.5
990.4055	2638.7265	2270.25	1380.95
990.5298	2639.9931	2264.5	1379.5
990.654	2641.259	2255.7	1368.55
990.7782	2642.5242	2244.9	1357.9
990.9023	2643.7887	2245	1359.9
991.0264	2645.0525	2245.45	1359.6
991.1505	2646.3156	2236.45	1349.45
991.2745	2647.5781	2237.4	1353.2
991.3985	2648.8398	2227.6	1342.05
991.5225	2650.1009	2219.1	1323.2
991.6464	2651.3613	2214.5	1329.4
991.7703	2652.6211	2214.15	1327.8
991.8942	2653.8801	2193.4	1306.5
992.018	2655.1385	2202.45	1314.35
992.1418	2656.3961	2198.85	1313.5
992.2655	2657.6531	2202.85	1316.6
992.3892	2658.9094	2192.15	1305.15
992.5129	2660.1651	2195.45	1311.3
992.6366	2661.42	2207.8	1324
992.7602	2662.6743	2201.15	1311.5
992.8837	2663.9279	2191.8	1306.75
993.0073	2665.1808	2191.75	1304.1
993.1307	2666.433	2192.35	1306.2
993.2542	2667.6846	2179.35	1293.85
993.3776	2668.9354	2191.5	1302.9
993.501	2670.1856	2181.25	1294.35
993.6244	2671.4351	2186.85	1302
993.7477	2672.6839	2180.65	1292.25
993.8709	2673.9321	2181.3	1296.15
993.9942	2675.1795	2183.2	1296.35
994.1174	2676.4263	2177.5	1292.8
994.2405	2677.6724	2171.25	1286.1
994.3637	2678.9179	2179	1294.7
994.4868	2680.1626	2170.45	1285.2
994.6098	2681.4067	2176.35	1288.7
994.7328	2682.6501	2160.65	1275.95
994.8558	2683.8928	2167.3	1282.35
994.9788	2685.1348	2158.55	1274.1
995.1017	2686.3761	2137.5	1252.75
995.2245	2687.6168	2149.3	1264.25
995.3474	2688.8568	2128.2	1244.2
995.4702	2690.0961	2127.75	1243.95
995.5929	2691.3348	2130.4	1243.9
995.7156	2692.5727	2117.7	1230.85
995.8383	2693.81	2116.8	1230.05
995.961	2695.0466	2104.9	1221.3
996.0836	2696.2826	2114.25	1227.65
996.2062	2697.5178	2121.05	1216.95
996.3287	2698.7524	2109.9	1223.75
996.4512	2699.9863	2103.95	1215.2
996.5737	2701.2195	2097.85	1214.65
996.6961	2702.452	2091.35	1203.3
996.8185	2703.6839	2103.65	1215.9
996.9408	2704.9151	2094.9	1211.55
997.0631	2706.1456	2102.6	1215.4
997.1854	2707.3755	2109.4	1222
997.3077	2708.6046	2118.65	1230
997.4299	2709.8331	2119.1	1232.55
997.552	2711.0609	2125.55	1241.95
997.6742	2712.2881	2129.5	1244.9
997.7963	2713.5145	2127.7	1240.7
997.9183	2714.7403	2134.7	1249.55
998.0403	2715.9654	2137.25	1250.9
998.1623	2717.1899	2160.95	1262.65
998.2842	2718.4136	2155.65	1270.15
998.4062	2719.6367	2161.25	1278.2
998.528	2720.8591	2188.7	1295.7
998.6498	2722.0809	2186.4	1301.2
998.7716	2723.3019	2189.6	1301.8
998.8934	2724.5223	2193.1	1305.6
999.0151	2725.7421	2203.3	1316.25
999.1368	2726.9611	2201.6	1314
999.2584	2728.1795	2198.95	1308.1
999.38	2729.3972	2179.2	1294.2
999.5016	2730.6142	2177	1282.5
999.6231	2731.8306	2142.45	1254.7
999.7446	2733.0462	2134	1248.1
999.8661	2734.2612	2126.35	1238.8
999.9875	2735.4756	2097.25	1209.2
1000.1089	2736.6892	2078.55	1192.45
1000.2302	2737.9022	2058.65	1174.05
1000.3515	2739.1145	2042.75	1158.15
1000.4728	2740.3262	2045.6	1153.55
1000.594	2741.5372	2016.3	1131.95
1000.7152	2742.7475	1998.4	1112.8
1000.8363	2743.9571	1988.4	1102.15
1000.9575	2745.1661	1980.15	1090.55
1001.0785	2746.3744	1978.55	1092.7
1001.1996	2747.582	1966.7	1082.35
1001.3206	2748.7889	1955.25	1069.9
1001.4415	2749.9952	1943.6	1058.85
1001.5625	2751.2008	1931.85	1045.6
1001.6833	2752.4057	1933.35	1047.4
1001.8042	2753.61	1918.3	1033.25
1001.925	2754.8136	1919	1029.85
1002.0458	2756.0165	1914.6	1030.7
1002.1665	2757.2188	1907.15	1022
1002.2872	2758.4204	1917.3	1032.95
1002.4078	2759.6213	1908.3	1023.2
1002.5285	2760.8215	1911.75	1022.25
1002.649	2762.0211	1899.9	1014
1002.7696	2763.22	1905	1018.5
1002.8901	2764.4182	1889.4	1003.2
1003.0106	2765.6158	1881.65	997.8
1003.131	2766.8127	1895.1	1010.7
1003.2514	2768.009	1875.25	990.5
1003.3717	2769.2045	1882.1	998.5
1003.492	2770.3994	1861.5	973.25
1003.6123	2771.5936	1864.8	980.1
1003.7325	2772.7872	1852.4	967.8
1003.8527	2773.9801	1850.8	965.75
1003.9729	2775.1723	1858.75	958.3
1004.093	2776.3639	1844.15	959.95
1004.2131	2777.5548	1848.3	964.5
1004.3331	2778.745	1842.85	955.95
1004.4531	2779.9346	1842.5	959.25
1004.5731	2781.1235	1846.1	961.55
1004.693	2782.3117	1835.6	952
1004.8129	2783.4992	1842	960.5
1004.9328	2784.6861	1840.05	955.95
1005.0526	2785.8723	1857	971.75
1005.1723	2787.0579	1847.1	963.85
1005.2921	2788.2428	1856.25	973.95
1005.4118	2789.427	1860.3	977.5
1005.5314	2790.6106	1870	986
1005.651	2791.7935	1877.1	993.25
1005.7706	2792.9757	1900.9	1019.75
1005.8902	2794.1573	1886.65	1001.05
1006.0097	2795.3382	1895.05	1013.75
1006.1291	2796.5184	1919.8	1037.55
1006.2485	2797.698	1921.55	1035.8
1006.3679	2798.8769	1940.7	1057.45
1006.4873	2800.0551	1944.9	1059.9
1006.6066	2801.2327	1969.95	1081.65
1006.7258	2802.4096	1984.75	1100.05
1006.8451	2803.5859	2000.65	1116.7
1006.9642	2804.7615	2017.35	1133.25
1007.0834	2805.9364	2045.6	1162.75
1007.2025	2807.1106	2057.7	1175.65
1007.3216	2808.2842	2091.05	1207.5
1007.4406	2809.4572	2116.25	1232.6
1007.5596	2810.6294	2153.2	1269.65
1007.6785	2811.801	2186.1	1303.5
1007.7975	2812.972	2228.25	1344.15
1007.9163	2814.1423	2263.9	1380.15
1008.0352	2815.3119	2300.6	1415.5
1008.154	2816.4808	2356.45	1476.6
1008.2727	2817.6491	2398.3	1514.7
1008.3914	2818.8167	2450.6	1570.05
1008.5101	2819.9837	2506.1	1619.3
1008.6288	2821.15	2534.75	1652.55
1008.7474	2822.3157	2588.4	1706.7
1008.8659	2823.4807	2642.85	1759.9
1008.9844	2824.645	2675.4	1790.7
1009.1029	2825.8086	2718.25	1837.15
1009.2214	2826.9716	2761.4	1880.2
1009.3398	2828.134	2812.95	1930.9
1009.4581	2829.2957	2841.1	1957.75
1009.5764	2830.4567	2870.2	1988.8
1009.6947	2831.617	2903.2	2019.95
1009.813	2832.7767	2904.65	2020.65
1009.9312	2833.9358	2909.8	2028.25
1010.0493	2835.0941	2899.55	2014.15
1010.1675	2836.2519	2889.9	2007.05
1010.2855	2837.4089	2861.6	1978.25
1010.4036	2838.5653	2862.4	1981.25
1010.5216	2839.7211	2867.55	1986
1010.6396	2840.8761	2866.6	1982.5
1010.7575	2842.0306	2886.7	2002.55
1010.8754	2843.1843	2915.75	2033.75
1010.9932	2844.3374	2960.1	2078.65
1011.111	2845.4899	3014.45	2131.25
1011.2288	2846.6417	3093.4	2212.5
1011.3465	2847.7928	3155.15	2275.35
1011.4642	2848.9433	3237.35	2355.85
1011.5818	2850.0931	3295.25	2413.6
1011.6995	2851.2422	3382.4	2495.9
1011.817	2852.3907	3440.15	2558.35
1011.9345	2853.5385	3518.3	2633.25
1012.052	2854.6857	3586.85	2677.65
1012.1695	2855.8323	3604.7	2722.15
1012.2869	2856.9781	3647.3	2765.15
1012.4042	2858.1233	3698.45	2816.65
1012.5216	2859.2679	3747.3	2867.2
1012.6389	2860.4118	3799.3	2916
1012.7561	2861.555	3821.3	2934.6
1012.8733	2862.6976	3879.3	2996.75
1012.9905	2863.8395	3901.65	3020.1
1013.1076	2864.9808	3913.75	3032.85
1013.2247	2866.1214	3926.75	3047.85
1013.3417	2867.2614	3947.3	3065.95
1013.4587	2868.4007	3965.35	3081.2
1013.5757	2869.5393	3971.35	3087.85
1013.6926	2870.6773	3982.8	3099.45
1013.8095	2871.8146	4002.1	3116.9
1013.9263	2872.9513	4006.65	3121.6
1014.0431	2874.0874	3989.6	3108.7
1014.1599	2875.2227	3986.5	3102.8
1014.2766	2876.3574	3954.55	3071.4
1014.3933	2877.4915	3927.75	3047.2
1014.51	2878.6249	3882.2	3001.15
1014.6266	2879.7577	3873.7	2990.05
1014.7431	2880.8898	3864.25	2972.4
1014.8596	2882.0212	3833.15	2952.35
1014.9761	2883.152	3828.75	2947.05
1015.0925	2884.2821	3819	2939.7
1015.2089	2885.4116	3793.65	2911.85
1015.3253	2886.5405	3807.5	2927.55
1015.4416	2887.6686	3807.85	2925.25
1015.5579	2888.7962	3815	2935.7
1015.6741	2889.923	3817.75	2936.45
1015.7903	2891.0493	3826.4	2945.75
1015.9065	2892.1748	3845	2963.2
1016.0226	2893.2997	3843.95	2960.5
1016.1387	2894.424	3860.6	2981.2
1016.2547	2895.5476	3875.85	2993.4
1016.3707	2896.6706	3900.4	3020.15
1016.4866	2897.7929	3924.45	3043
1016.6025	2898.9145	3954.45	3070.25
1016.7184	2900.0355	3985.4	3102.6
1016.8342	2901.1559	4026.35	3144.45
1016.95	2902.2756	4044.15	3163.55
1017.0658	2903.3946	4084.2	3203.55
1017.1815	2904.513	4105.05	3220.55
1017.2971	2905.6308	4120.2	3239.75
1017.4127	2906.7479	4131.25	3246.8
1017.5283	2907.8643	4183.55	3302.25
1017.6439	2908.9801	4178.95	3297.7
1017.7594	2910.0953	4183	3302
1017.8748	2911.2098	4193.8	3308.5
1017.9902	2912.3236	4193.3	3304.85
1018.1056	2913.4368	4167.3	3284.3
1018.2209	2914.5494	4152.35	3272.05
1018.3362	2915.6613	4122.4	3234.55
1018.4515	2916.7725	4095.55	3210.7
1018.5667	2917.8831	4066.55	3184.65
1018.6819	2918.9931	4024.95	3142.4
1018.797	2920.1024	3997.75	3115.35
1018.9121	2921.211	3990.45	3112.35
1019.0271	2922.319	3955.15	3073.3
1019.1421	2923.4264	3939.6	3059.4
1019.2571	2924.5331	3922.9	3043.1
1019.372	2925.6391	3910.15	3030.3
1019.4869	2926.7445	3905.05	3025.9
1019.6017	2927.8493	3907.8	3027.45
1019.7165	2928.9534	3897.05	3015.55
1019.8313	2930.0569	3877.3	2993.35
1019.946	2931.1597	3868.8	2984.45
1020.0606	2932.2619	3877.65	2996.5
1020.1753	2933.3634	3867.5	2987
1020.2899	2934.4643	3855.4	2968
1020.4044	2935.5645	3846	2958.65
1020.5189	2936.6641	3816.05	2930.5
1020.6334	2937.763	3762.4	2882.15
1020.7478	2938.8613	3720.55	2839.9
1020.8622	2939.959	3661.95	2774.35
1020.9765	2941.056	3586.7	2705.85
1021.0908	2942.1523	3511.05	2631.1
1021.2051	2943.248	3418.75	2539.8
1021.3193	2944.3431	3332.15	2451.9
1021.4334	2945.4375	3216.35	2337.55
1021.5476	2946.5313	3114.8	2234.45
1021.6617	2947.6244	3014.75	2134.6
1021.7757	2948.7169	2917.4	2036.85
1021.8897	2949.8087	2826.45	1946.3
1022.0037	2950.8999	2731	1850.2
1022.1176	2951.9904	2660	1780.65
1022.2315	2953.0803	2584.6	1704
1022.3453	2954.1696	2522.4	1644.05
1022.4591	2955.2582	2469.35	1590.35
1022.5728	2956.3462	2419.35	1539.7
1022.6865	2957.4335	2364.85	1483.8
1022.8002	2958.5202	2344.3	1463.75
1022.9138	2959.6062	2316.25	1436.6
1023.0274	2960.6916	2286.9	1407.75
1023.141	2961.7764	2269.25	1387.3
1023.2545	2962.8605	2253.3	1372.5
1023.3679	2963.9439	2241.7	1361.9
1023.4813	2965.0267	2220.85	1339.9
1023.5947	2966.1089	2235.15	1332.75
1023.708	2967.1905	2206.7	1328.2
1023.8213	2968.2714	2207.8	1328.65
1023.9346	2969.3516	2209.9	1330.85
1024.0478	2970.4312	2212.45	1325.25
1024.1609	2971.5102	2210.15	1329.05
1024.274	2972.5885	2203.5	1323.8
1024.3871	2973.6662	2209.05	1324
1024.5002	2974.7432	2210.15	1331.05
1024.6132	2975.8196	2194	1316.5
1024.7261	2976.8954	2175	1295.35
1024.839	2977.9705	2170.45	1290.95
1024.9519	2979.045	2158.15	1278.75
1025.0647	2980.1188	2142.8	1264.8
1025.1775	2981.192	2105.45	1228.5
1025.2902	2982.2645	2096.75	1217.1
1025.4029	2983.3364	2078.5	1198.65
1025.5156	2984.4077	2038.85	1157.75
1025.6282	2985.4783	2022.65	1136.75
1025.7407	2986.5483	1984.7	1106.45
1025.8532	2987.6177	1943.1	1063.35
1025.9657	2988.6864	1910.85	1032.75
1026.0782	2989.7545	1879.45	998.7
1026.1906	2990.8219	1843.4	965.6
1026.3029	2991.8887	1811.7	929.85
1026.4152	2992.9548	1789.55	911.4
1026.5275	2994.0204	1743.75	866.05
1026.6397	2995.0852	1722.6	842.8
1026.7519	2996.1495	1710.75	828.85
1026.864	2997.2131	1668.55	790.95
1026.9761	2998.276	1648.1	766.4
1027.0882	2999.3383	1620.95	739.5
1027.2002	3000.4	1618.05	737.7
1027.3122	3001.4611	1595.65	717.45
1027.4241	3002.5215	1573.4	695.6
1027.536	3003.5812	1560.4	681.7
1027.6478	3004.6404	1544.35	666.1
1027.7596	3005.6989	1540.55	659.1
1027.8714	3006.7567	1524.75	645.15
1027.9831	3007.8139	1545.6	635.35
1028.0947	3008.8705	1508.25	628.15
1028.2064	3009.9264	1500.95	618.3
1028.3179	3010.9818	1498.35	619.1
1028.4295	3012.0364	1485	605.8
1028.541	3013.0905	1489.75	609.5
1028.6524	3014.1439	1484.8	605.45
1028.7638	3015.1966	1484.45	606.75
1028.8752	3016.2487	1479.2	601.45
1028.9865	3017.3002	1481.45	598.25
1029.0978	3018.3511	1464.3	586.65
1029.209	3019.4013	1468.8	589.3
1029.3202	3020.4509	1473.15	593.65
1029.4314	3021.4998	1477.8	598.25
1029.5425	3022.5481	1471.95	590.45
1029.6535	3023.5958	1470.8	590
1029.7645	3024.6428	1464.7	585.95
1029.8755	3025.6892	1469.65	593.05
1029.9864	3026.735	1470.8	592.7
1030.0973	3027.7802	1469.5	589.3
1030.2082	3028.8247	1473.25	595.65
1030.319	3029.8685	1468.9	589.35
1030.4297	3030.9118	1478.45	597.55
1030.5404	3031.9544	1477.2	600.55
1030.6511	3032.9963	1484.4	605.45
1030.7617	3034.0376	1490.35	613.65
1030.8723	3035.0783	1483.7	603.6
1030.9829	3036.1184	1486.45	605.55
1031.0934	3037.1578	1487.2	609.05
1031.2038	3038.1966	1489.85	609.45
1031.3142	3039.2348	1495	617.3
1031.4246	3040.2723	1498.05	609.05
1031.5349	3041.3092	1493.35	615.6
1031.6452	3042.3455	1489.1	611.1
1031.7554	3043.3811	1486.4	607.65
1031.8656	3044.4161	1486.85	606.6
1031.9758	3045.4505	1473.6	595.1
1032.0859	3046.4842	1469.7	591.35
1032.1959	3047.5173	1463.55	586.5
1032.3059	3048.5498	1460.9	581
1032.4159	3049.5816	1447.6	569.3
1032.5258	3050.6128	1453	572.75
1032.6357	3051.6434	1440	558.9
1032.7455	3052.6734	1437.35	559.9
1032.8553	3053.7027	1426.2	546.45
1032.9651	3054.7314	1418.65	540.55
1033.0748	3055.7594	1421.35	546.45
1033.1845	3056.7868	1418.7	539.2
1033.2941	3057.8136	1409.65	532.1
1033.4037	3058.8398	1398.95	522.25
1033.5132	3059.8653	1397	519.8
1033.6227	3060.8902	1389.2	510.4
1033.7321	3061.9145	1391.7	514.25
1033.8415	3062.9381	1379.55	502.15
1033.9509	3063.9612	1389.7	494.85
1034.0602	3064.9835	1371.55	494.25
1034.1694	3066.0053	1365.55	485.8
1034.2787	3067.0264	1352.1	475.05
1034.3878	3068.0469	1345.2	464.95
1034.497	3069.0668	1347.3	467.15
1034.6061	3070.086	1331.65	454.55
1034.7151	3071.1046	1332.7	453.8
1034.8241	3072.1226	1318	438
1034.9331	3073.1399	1309.25	430.55
1035.042	3074.1567	1297.7	420.5
1035.1508	3075.1727	1292.45	412.4
1035.2597	3076.1882	1285	407
1035.3684	3077.203	1269.7	391.65
1035.4772	3078.2173	1267.85	388.3
1035.5859	3079.2308	1262.9	381.45
1035.6945	3080.2438	1250.9	371.35
1035.8031	3081.2561	1240.65	363
1035.9117	3082.2678	1236.25	357.5
1036.0202	3083.2789	1226.05	347.1
1036.1286	3084.2893	1225.15	347.6
1036.2371	3085.2991	1214.4	335.6
1036.3454	3086.3083	1216.45	334.05
1036.4538	3087.3169	1209.9	330.9
1036.562	3088.3248	1205.85	325.2
1036.6703	3089.3321	1199.2	321
1036.7785	3090.3388	1188.1	310.15
1036.8866	3091.3449	1179.6	301.5
1036.9948	3092.3503	1185.15	302.55
1037.1028	3093.3551	1172.7	296.9
1037.2108	3094.3593	1176.8	300.7
1037.3188	3095.3629	1170.45	291.75
1037.4267	3096.3658	1169.05	289.55
1037.5346	3097.3681	1160.15	281.5
1037.6425	3098.3698	1157.75	279.85
1037.7503	3099.3708	1157.25	272.1
1037.858	3100.3713	1153.25	277.1
1037.9657	3101.3711	1145.5	266.3
1038.0734	3102.3702	1287.9	273.2
1038.181	3103.3688	1153.65	274.15
1038.2886	3104.3667	1138.85	261.85
1038.3961	3105.364	1139.1	262.55
1038.5036	3106.3607	1137.45	259.4
1038.611	3107.3568	1138.45	258.25
1038.7184	3108.3522	1130.5	253.05
1038.8257	3109.347	1132.95	254.8
1038.933	3110.3412	1134.8	252.25
1039.0403	3111.3348	1123.4	246.05
1039.1475	3112.3277	1122.9	246.45
1039.2547	3113.32	1119.7	243.4
1039.3618	3114.3117	1122.8	246.5
1039.4689	3115.3028	1114.9	238.65
1039.5759	3116.2932	1114.5	235.25
1039.6829	3117.2831	1115.05	232.9
1039.7898	3118.2723	1110.25	231.1
1039.8967	3119.2608	1110.15	232.4
1040.0035	3120.2488	1111.25	233.25
1040.1103	3121.2361	1105.6	227.75
1040.2171	3122.2229	1101.65	224.3
1040.3238	3123.209	1105.4	226.2
1040.4305	3124.1944	1102.7	228.35
1040.5371	3125.1793	1103.8	226.85
1040.6437	3126.1635	1098.85	223.25
1040.7502	3127.1471	1093	217.45
1040.8567	3128.1301	1094.45	216.3
1040.9631	3129.1125	1095.15	220
1041.0695	3130.0942	1091.95	216
1041.1759	3131.0753	1100.5	215
1041.2822	3132.0558	1092.95	214.7
1041.3884	3133.0357	1088.9	211.7
1041.4946	3134.015	1083.2	203.35
1041.6008	3134.9936	1084.5	206.6
1041.7069	3135.9716	1105.3	206.4
1041.813	3136.949	1078.9	201.45
1041.919	3137.9258	1096.45	201.55
1042.025	3138.902	1077.1	195.3
1042.1309	3139.8775	1073.1	196.35
1042.2368	3140.8524	1073.55	197.05
1042.3427	3141.8267	1075.05	195.7
1042.4485	3142.8004	1071.65	195.55
1042.5542	3143.7735	1079.5	194.3
1042.6599	3144.7459	1070.75	192.9
1042.7656	3145.7178	1068.95	189.7
1042.8712	3146.689	1070.75	194.8
1042.9768	3147.6596	1067.6	188.7
1043.0823	3148.6295	1068.3	189.95
1043.1878	3149.5989	1061.25	183.45
1043.2932	3150.5676	1056.35	180.65
1043.3986	3151.5357	1058.1	180.55
1043.5039	3152.5032	1062.6	186.85
1043.6092	3153.4701	1059.05	183.75
1043.7145	3154.4364	1059.6	182.3
1043.8197	3155.402	1054.65	178.05
1043.9248	3156.367	1056.2	178
1044.03	3157.3315	1082.2	176.35
1044.135	3158.2952	1055.9	178.6
1044.24	3159.2584	1051.25	174.45
1044.345	3160.221	1044.35	166.85
1044.4499	3161.1829	1047.15	171.6
1044.5548	3162.1442	1044.6	169.3
1044.6596	3163.105	1043.7	166.45
1044.7644	3164.065	1042.7	166.65
1044.8692	3165.0245	1045.85	166.65
1044.9739	3165.9834	1039.8	165.25
1045.0785	3166.9416	1041.15	163.55
1045.1831	3167.8993	1037.25	159.55
1045.2877	3168.8563	1038.35	160.1
1045.3922	3169.8127	1034.65	159.5
1045.4966	3170.7684	1037.4	161.15
1045.6011	3171.7236	1039.3	160.8
1045.7054	3172.6782	1030.55	152.25
1045.8098	3173.6321	1035.05	157.85
1045.914	3174.5854	1039.1	157.9
1046.0183	3175.5381	1037.15	160.65
1046.1224	3176.4902	1029.5	153.3
1046.2266	3177.4417	1027.35	150.9
1046.3307	3178.3926	1028.6	154.35
1046.4347	3179.3428	1029.45	155.05
1046.5387	3180.2924	1030.65	155.75
1046.6427	3181.2415	1025.35	148.4
1046.7466	3182.1899	1028.9	151.3
1046.8504	3183.1377	1021.5	146.35
1046.9542	3184.0848	1023.7	143.6
1047.058	3185.0314	1024.95	148.9
1047.1617	3185.9773	1025.85	148.9
1047.2654	3186.9227	1021.95	143.5
1047.369	3187.8674	1020.05	143.9
1047.4726	3188.8115	1024.9	144.15
1047.5761	3189.755	1016.4	141.9
1047.6796	3190.6979	1017.95	143.6
1047.783	3191.6402	1014.5	141
1047.8864	3192.5818	1016.05	138.75
1047.9898	3193.5229	1019.3	136.2
1048.0931	3194.4633	1014.25	137.55
1048.1963	3195.4031	1012.35	134.95
1048.2995	3196.3423	1013.3	136.05
1048.4027	3197.2809	1008.9	134.75
1048.5058	3198.2189	1007.1	131.3
1048.6089	3199.1563	1022.95	132.45
1048.7119	3200.0931	1009.95	134.75
1048.8148	3201.0292	1005.85	133
1048.9178	3201.9648	1011.05	136.75
1049.0206	3202.8997	1008.7	129.5
1049.1235	3203.834	1004.85	128.5
1049.2262	3204.7677	1004.6	127.85
1049.329	3205.7008	1006.1	129
1049.4317	3206.6333	998.7	125
1049.5343	3207.5652	1005.1	127.6
1049.6369	3208.4964	1004.15	128.6
1049.7394	3209.4271	1002.35	126.1
1049.8419	3210.3571	1000.5	124.8
1049.9444	3211.2865	1001.35	123
1050.0468	3212.2154	999.95	121.75
1050.1491	3213.1436	998.9	117.65
1050.2514	3214.0712	1003.8	121.25
1050.3537	3214.9982	996.25	120.8
1050.4559	3215.9246	994.75	118.95
1050.5581	3216.8503	996.05	122.8
1050.6602	3217.7755	997.85	122.25
1050.7623	3218.7001	993.45	117.9
1050.8643	3219.624	994.1	118.3
1050.9663	3220.5473	992.5	116.1
1051.0682	3221.4701	989.75	112.35
1051.1701	3222.3922	994.25	116.15
1051.2719	3223.3137	991	116
1051.3737	3224.2346	992.7	115.05
1051.4754	3225.1549	991.6	117.15
1051.5771	3226.0746	992.15	116.5
1051.6788	3226.9937	990.15	114.25
1051.7804	3227.9121	986.8	112.95
1051.8819	3228.83	991.15	117.4
1051.9834	3229.7473	986.15	110.6
1052.0849	3230.6639	990.6	114.1
1052.1863	3231.5799	981.85	106.8
1052.2876	3232.4954	984.45	107.95
1052.3889	3233.4102	979.95	103.6
1052.4902	3234.3244	984.85	109.65
1052.5914	3235.238	987	113.3
1052.6926	3236.151	1008.8	111.75
1052.7937	3237.0634	979.6	107.15
1052.8948	3237.9752	979.5	104.05
1052.9958	3238.8864	979.05	102.3
1053.0968	3239.797	981.75	105.4
1053.1977	3240.7069	977.65	101.7
1053.2986	3241.6163	978.1	102
1053.3994	3242.5251	982.4	108
1053.5002	3243.4332	973.2	98.15
1053.6009	3244.3408	977.9	102.25
1053.7016	3245.2477	975.55	98.45
1053.8022	3246.154	975.8	99.15
1053.9028	3247.0598	974.6	98.55
1054.0034	3247.9649	969.1	92.3
1054.1039	3248.8694	973.1	98.45
1054.2043	3249.7733	969	94.45
1054.3047	3250.6766	969.85	95.1
1054.4051	3251.5793	971.8	93.7
1054.5054	3252.4814	967.1	93.3
1054.6056	3253.3829	970.35	94.4
1054.7058	3254.2838	963.85	87.8
1054.806	3255.1841	965.95	91.95
1054.9061	3256.0838	964.9	89.8
1055.0061	3256.9829	963.3	89.45
1055.1062	3257.8814	964.4	86.85
1055.2061	3258.7792	964.45	88.4
1055.306	3259.6765	961.2	84
1055.4059	3260.5731	960.2	86.8
1055.5057	3261.4692	958	82.5
1055.6055	3262.3647	959.95	86.05
1055.7052	3263.2595	954.3	79.85
1055.8049	3264.1538	955.25	82.2
1055.9045	3265.0474	954.2	79.35
1056.0041	3265.9404	953.1	78
1056.1036	3266.8329	952	77.85
1056.2031	3267.7247	957.75	72.65
1056.3025	3268.616	948.8	76.65
1056.4019	3269.5066	945.9	71.55
1056.5013	3270.3966	942.7	67.5
1056.6005	3271.286	944.05	70.05
