Software Version:	3.9.2.0
Unit SN:	10000200
Spectrometer SN:	6960
Date:	3/8/2024 11:54:03 AM
Data Line Index:	25
Spectral Points:	2048
Integration time (ms):	125
Averages:	20
Delay (ms):	30000
Sequence Number:	1
Processing:	dark subtract
Laser Power (mW):	305
Laser Current (mA):	822
Laser Diode Temp (C):	25
Laser Case Temp (C):	25.4
System Temp (C):	25.4
Spectrometer Temp (C):	23.3
CCD Temp (C):	0.007
Secondary Temp (C):	20.006
Heatsink Temp (C):	20.114
CCDPCB Temp (C):	34.551
SecondaryPCB Temp (C):	28.092

Wavelength	RamanShift	Raw Counts	Dark Subtracted
787.061	30.1047	414.4	5.6
787.2016	32.3739	413.3	6.25
787.3422	34.6426	414.1	6.8
787.4828	36.9109	417.15	8.65
787.6235	39.1787	419.6	6.15
787.7642	41.4461	427.85	10
787.9049	43.7131	429.1	9.5
788.0456	45.9796	433.8	10.75
788.1863	48.2456	436.2	8.3
788.3271	50.5112	440.8	8.7
788.4679	52.7764	443.65	8.15
788.6087	55.0411	451.75	12.2
788.7496	57.3054	455.25	9.6
788.8904	59.5692	458.6	10.7
789.0313	61.8326	459.6	9.65
789.1722	64.0955	466.05	13.05
789.3132	66.3579	473.7	17.05
789.4541	68.6199	482.8	22.6
789.5951	70.8815	491.05	23.55
789.7361	73.1426	507.7	37.95
789.8771	75.4032	542.85	69.15
790.0181	77.6634	615.9	140
790.1592	79.9231	781.05	298.1
790.3003	82.1824	1124.55	632.45
790.4414	84.4412	1702.35	1192.3
790.5825	86.6995	2408.85	1878.45
790.7237	88.9574	3086.8	2539
790.8648	91.2148	3546.4	2987.15
791.006	93.4717	3744.25	3177.6
791.1472	95.7282	3740.65	3170.75
791.2885	97.9842	3733.25	3156.75
791.4297	100.2398	3689.4	3110.05
791.571	102.4949	3640.3	3060
791.7123	104.7495	3581.35	2998.2
791.8536	107.0036	3526.85	2944.65
791.9949	109.2573	3461.3	2879.95
792.1363	111.5105	3376.3	2792.7
792.2777	113.7632	3265.45	2681.7
792.4191	116.0154	3171.95	2570.6
792.5605	118.2672	3047.15	2454.8
792.7019	120.5185	2944.85	2351.05
792.8434	122.7693	2848.55	2252.25
792.9849	125.0197	2768.25	2166.45
793.1264	127.2696	2696.15	2094.2
793.2679	129.519	2664.7	2056.35
793.4094	131.7679	2639.45	2029.65
793.551	134.0163	2623.7	2011.9
793.6926	136.2642	2606.2	1989.25
793.8342	138.5117	2587.65	1961.75
793.9758	140.7587	2564.15	1944.25
794.1175	143.0052	2518.7	1896.05
794.2591	145.2512	2475.2	1848.6
794.4008	147.4967	2410.45	1784.1
794.5425	149.7417	2364.45	1736.05
794.6842	151.9863	2353.95	1723.2
794.826	154.2304	2346.1	1709.5
794.9677	156.4739	2329.8	1687.95
795.1095	158.717	2340.65	1699.7
795.2513	160.9596	2379.8	1731.35
795.3931	163.2017	2389.35	1740.3
795.535	165.4433	2395.6	1743.55
795.6768	167.6844	2387.45	1733.2
795.8187	169.925	2358.2	1701.8
795.9606	172.1651	2303.9	1646.3
796.1025	174.4047	2250.6	1586.4
796.2445	176.6439	2222.35	1560.6
796.3864	178.8825	2191.2	1524
796.5284	181.1206	2177.15	1505.75
796.6704	183.3582	2171.55	1497.9
796.8124	185.5954	2164.4	1485.8
796.9544	187.832	2167.15	1483.9
797.0965	190.0681	2163.75	1479.15
797.2386	192.3037	2176.45	1492.1
797.3806	194.5388	2173.9	1485.4
797.5228	196.7734	2196.3	1504.65
797.6649	199.0075	2207.95	1517.3
797.807	201.2411	2223.95	1530.3
797.9492	203.4742	2255.75	1560.35
798.0914	205.7068	2269.95	1571.9
798.2336	207.9389	2291.8	1586.75
798.3758	210.1704	2291.9	1593.95
798.518	212.4015	2297.95	1612.95
798.6603	214.632	2302.25	1625.1
798.8025	216.862	2293.15	1621.8
798.9448	219.0915	2301.25	1622.25
799.0871	221.3205	2335.3	1655.5
799.2294	223.549	2312.85	1637.2
799.3718	225.777	2324.65	1651.85
799.5141	228.0044	2314.6	1632.2
799.6565	230.2314	2313.65	1626.95
799.7989	232.4578	2287.8	1598.95
799.9413	234.6837	2288.4	1593
800.0837	236.909	2283.65	1585.95
800.2262	239.1339	2293.5	1568.05
800.3687	241.3582	2273.75	1563.65
800.5111	243.582	2296.95	1555.3
800.6536	245.8053	2292.6	1567.9
800.7961	248.0281	2292.5	1572.1
800.9387	250.2503	2301.2	1572.9
801.0812	252.472	2312.4	1586.55
801.2238	254.6932	2315.3	1589.2
801.3664	256.9139	2316.75	1590.2
801.509	259.134	2335.75	1601.45
801.6516	261.3536	2372	1638.7
801.7942	263.5727	2425.15	1693.25
801.9369	265.7912	2467.05	1737.75
802.0795	268.0092	2519.25	1786.7
802.2222	270.2267	2565.85	1833.5
802.3649	272.4436	2607.25	1870.55
802.5076	274.6601	2655.1	1906.3
802.6504	276.8759	2658.85	1916.85
802.7931	279.0913	2697.5	1957.15
802.9359	281.3061	2708.2	1963.8
803.0787	283.5204	2724.45	1980.8
803.2215	285.7341	2754.85	2004.15
803.3643	287.9473	2761.55	2008.6
803.5071	290.16	2766.9	2014.85
803.6499	292.3721	2733.75	1985.2
803.7928	294.5837	2711.4	1963.05
803.9357	296.7947	2686	1934.55
804.0786	299.0052	2671.4	1925
804.2215	301.2152	2641.2	1887.2
804.3644	303.4246	2635.15	1886.75
804.5074	305.6334	2611.8	1865.95
804.6503	307.8418	2599.2	1842.8
804.7933	310.0495	2570.4	1814.5
804.9363	312.2568	2527.85	1769.9
805.0793	314.4635	2494	1736.3
805.2223	316.6696	2433.75	1673.3
805.3653	318.8752	2387.1	1617.05
805.5084	321.0802	2376.4	1612.2
805.6514	323.2847	2363.85	1596.9
805.7945	325.4887	2364	1597.45
805.9376	327.692	2383.9	1619.7
806.0807	329.8949	2439.95	1673.6
806.2238	332.0972	2456.15	1686.9
806.367	334.2989	2473.15	1699.5
806.5101	336.5001	2472.5	1701.95
806.6533	338.7007	2438.75	1664.75
806.7965	340.9008	2398.25	1625.4
806.9397	343.1003	2343.25	1567.3
807.0829	345.2992	2306.6	1530.5
807.2261	347.4976	2275.5	1499.35
807.3693	349.6955	2248.85	1466.95
807.5126	351.8927	2237.55	1455.7
807.6559	354.0895	2220.75	1428.2
807.7991	356.2856	2202.65	1418.55
807.9424	358.4812	2186.15	1402.15
808.0857	360.6763	2181.5	1393.55
808.2291	362.8707	2188.25	1398.65
808.3724	365.0646	2193.6	1402.1
808.5158	367.258	2196.65	1400.6
808.6591	369.4508	2220.25	1424.35
808.8025	371.643	2248.55	1454.3
808.9459	373.8346	2276.4	1481.05
809.0893	376.0257	2301.55	1499.9
809.2327	378.2162	2322.5	1522.35
809.3762	380.4062	2325.9	1525.8
809.5196	382.5956	2296.95	1502.6
809.6631	384.7844	2262.95	1473.15
809.8066	386.9726	2233.2	1442.45
809.9501	389.1603	2193.7	1402.75
810.0936	391.3474	2221.25	1398.7
810.2371	393.5339	2191.85	1397.4
810.3806	395.7199	2206.45	1418.55
810.5241	397.9052	2223.65	1432
810.6677	400.09	2261.45	1469.2
810.8113	402.2743	2303.6	1511.3
810.9548	404.4579	2346.65	1552
811.0984	406.641	2389.75	1590.95
811.2421	408.8235	2431.75	1634.25
811.3857	411.0054	2477	1675.05
811.5293	413.1868	2537.95	1736.6
811.673	415.3675	2590.1	1781.7
811.8166	417.5477	2593.8	1784.35
811.9603	419.7273	2521.55	1708.6
812.104	421.9064	2437.9	1620.9
812.2477	424.0848	2382.1	1570.25
812.3914	426.2627	2335.05	1524.3
812.5351	428.4399	2272.55	1461.75
812.6788	430.6166	2222.8	1403.7
812.8226	432.7928	2173.25	1355.1
812.9663	434.9683	2133.95	1316.65
813.1101	437.1432	2112.75	1293.35
813.2539	439.3176	2073.25	1261.4
813.3977	441.4914	2077.1	1263.4
813.5415	443.6645	2078.35	1262.7
813.6853	445.8371	2075.7	1256.7
813.8291	448.0091	2059.5	1243.05
813.973	450.1806	2073.65	1257.55
814.1168	452.3514	2065.25	1248.05
814.2607	454.5216	2068.45	1242
814.4046	456.6913	2065.75	1243.5
814.5485	458.8603	2069.2	1249.55
814.6924	461.0288	2087	1270.45
814.8363	463.1967	2068.05	1253.3
814.9802	465.3639	2082.15	1261.85
815.1241	467.5306	2061.15	1241.05
815.2681	469.6967	2059	1238
815.412	471.8622	2044.45	1226.5
815.556	474.0271	2047.2	1227.55
815.7	476.1914	2053.95	1230.95
815.844	478.3551	2043.65	1221.65
815.988	480.5182	2044.45	1223.05
816.132	482.6807	2060.7	1241.7
816.276	484.8426	2068.85	1253.1
816.4201	487.0039	2104.95	1283.1
816.5641	489.1647	2166.15	1342.35
816.7082	491.3248	2207.3	1383.25
816.8522	493.4843	2218.2	1397.55
816.9963	495.6432	2206.75	1381.6
817.1404	497.8015	2196.2	1368.7
817.2845	499.9592	2140	1309.05
817.4286	502.1163	2081.15	1245.4
817.5727	504.2728	2055.4	1226.4
817.7168	506.4287	2027.15	1202.65
817.861	508.5839	2010.75	1185.55
818.0051	510.7386	1999.05	1171.55
818.1493	512.8927	2015.3	1181.35
818.2935	515.0461	2026.45	1194.35
818.4377	517.199	2039.55	1205.2
818.5818	519.3512	2082.3	1247.35
818.726	521.5029	2151.05	1310.25
818.8703	523.6539	2200.6	1364.6
819.0145	525.8043	2207.15	1371.3
819.1587	527.9541	2151.45	1311.75
819.303	530.1033	2088.3	1249.2
819.4472	532.2519	2053.2	1214.6
819.5915	534.3999	2025.9	1186.25
819.7357	536.5472	2015.45	1177.2
819.88	538.694	2010.25	1171.6
820.0243	540.8401	2023.5	1183.55
820.1686	542.9856	2053.7	1207.45
820.3129	545.1305	2060.95	1212.55
820.4572	547.2748	2081.65	1234.25
820.6016	549.4185	2083.1	1233
820.7459	551.5615	2081.95	1234.8
820.8902	553.704	2107.7	1260.25
821.0346	555.8458	2139.15	1295.1
821.1789	557.987	2142.65	1298.05
821.3233	560.1276	2170.65	1327.4
821.4677	562.2675	2230.55	1386.85
821.6121	564.4069	2274.95	1431.1
821.7565	566.5456	2320.7	1477.85
821.9009	568.6837	2305.4	1467.6
822.0453	570.8212	2246.1	1405.35
822.1897	572.958	2170.45	1323.9
822.3342	575.0942	2120.05	1276.35
822.4786	577.2299	2079	1236.75
822.6231	579.3648	2042.2	1204.4
822.7675	581.4992	2030.8	1195.1
822.912	583.6329	2046.65	1211
823.0565	585.766	2082.85	1245.25
823.201	587.8985	2123.45	1286.7
823.3454	590.0304	2167.3	1308.45
823.4899	592.1616	2193.4	1343.3
823.6345	594.2922	2183.55	1333.1
823.779	596.4222	2135.25	1279.9
823.9235	598.5515	2082	1228.5
824.068	600.6802	2046.85	1195.65
824.2126	602.8083	1998.45	1148.05
824.3571	604.9358	1995.8	1142.15
824.5017	607.0626	1992.25	1138.8
824.6462	609.1888	2000.2	1146.6
824.7908	611.3144	2025.1	1169.4
824.9354	613.4393	2064.1	1209.9
825.08	615.5636	2108.5	1252.6
825.2246	617.6873	2151.45	1295.65
825.3692	619.8103	2185.8	1326.5
825.5138	621.9327	2189.3	1331.5
825.6584	624.0544	2135.65	1281.7
825.803	626.1756	2092.55	1237.3
825.9477	628.2961	2048.7	1192.85
826.0923	630.4159	2026.1	1169.1
826.237	632.5351	2015.2	1157.45
826.3816	634.6537	2009.45	1151.1
826.5263	636.7716	2003	1141.55
826.6709	638.8889	1996.4	1128.3
826.8156	641.0056	2002.1	1140.65
826.9603	643.1216	2009.15	1146.7
827.105	645.237	2007.1	1145.9
827.2497	647.3518	1987.5	1132.25
827.3944	649.4659	1960.55	1104.35
827.5391	651.5793	1951.05	1093.75
827.6838	653.6922	1928.95	1070.25
827.8285	655.8043	1931.4	1073.75
827.9733	657.9159	1917.95	1059.2
828.118	660.0268	1915.45	1055.35
828.2627	662.137	1908.2	1047.1
828.4075	664.2466	1909.3	1044.15
828.5522	666.3556	1910.3	1046.25
828.697	668.4639	1905.9	1042.9
828.8418	670.5716	1894.75	1033.4
828.9865	672.6786	1888.55	1026.3
829.1313	674.785	1882.1	1013.05
829.2761	676.8907	1885.95	1021
829.4209	678.9958	1874.6	1012.85
829.5657	681.1002	1881.05	1017.05
829.7105	683.204	1881.8	1010.45
829.8553	685.3072	1878.6	1009.25
830.0001	687.4097	1876.65	1007.4
830.1449	689.5115	1866.65	997.65
830.2898	691.6127	1876.8	1009.1
830.4346	693.7132	1864.2	995.6
830.5794	695.8131	1897.95	1009.2
830.7243	697.9123	1881.45	1013.4
830.8691	700.0109	1890.15	1021.65
831.014	702.1089	1894	1025.9
831.1588	704.2061	1908.55	1037.95
831.3037	706.3028	1934.6	1063.8
831.4486	708.3987	1948.15	1076.45
831.5935	710.4941	1961.8	1091.9
831.7383	712.5887	1966.75	1094.15
831.8832	714.6827	1965.65	1091.55
832.0281	716.7761	1967.75	1099.1
832.173	718.8688	1958.65	1084.15
832.3179	720.9608	1971.55	1095.4
832.4628	723.0522	1974.45	1098.35
832.6077	725.1429	1997.05	1121
832.7527	727.233	2048.45	1175.8
832.8976	729.3224	2102.85	1227.65
833.0425	731.4112	2142.6	1265.35
833.1874	733.4993	2149.45	1273.55
833.3324	735.5867	2098	1223.3
833.4773	737.6735	2029.9	1153.7
833.6222	739.7596	1978.05	1103.4
833.7672	741.845	1950.95	1074.95
833.9122	743.9298	1951.55	1076.65
834.0571	746.014	1949.6	1072.2
834.2021	748.0974	1958.1	1078.95
834.347	750.1802	1972.8	1096.3
834.492	752.2624	1953.1	1076
834.637	754.3439	1951.25	1070.7
834.782	756.4247	1952.35	1063.25
834.9269	758.5048	1948.4	1070.75
835.0719	760.5843	1967.7	1089
835.2169	762.6631	1998.1	1118.6
835.3619	764.7413	2048.75	1172.65
835.5069	766.8188	2141.4	1261.55
835.6519	768.8956	2210.4	1328.75
835.7969	770.9718	2265.8	1386.6
835.9419	773.0473	2264.55	1383.1
836.0869	775.1221	2229.55	1349.05
836.232	777.1962	2222.35	1341.8
836.377	779.2697	2290.1	1407.65
836.522	781.3426	2372.5	1474.55
836.667	783.4147	2432.45	1549.6
836.8121	785.4862	2399.65	1520.25
836.9571	787.557	2313.5	1430.6
837.1021	789.6271	2202.2	1320.35
837.2472	791.6966	2077.6	1195.55
837.3922	793.7654	1988.5	1106.65
837.5373	795.8335	1941.05	1060.55
837.6823	797.901	1916.25	1035.9
837.8274	799.9678	1899.3	1016.65
837.9724	802.0339	1899.1	1018.2
838.1175	804.0993	1913.1	1020.7
838.2626	806.1641	1897.45	1014.55
838.4076	808.2282	1878.5	996.4
838.5527	810.2916	1857.75	968.45
838.6978	812.3544	1843.5	960.4
838.8428	814.4164	1827.8	944.4
838.9879	816.4778	1845.25	960.95
839.133	818.5385	1856.85	969.5
839.2781	820.5986	1887.15	1003.15
839.4232	822.658	1922.9	1036
839.5682	824.7166	1991.45	1108.5
839.7133	826.7747	2093.45	1210.4
839.8584	828.832	2162.5	1273.3
840.0035	830.8886	2220	1334.55
840.1486	832.9446	2236.9	1350.7
840.2937	834.9999	2204.1	1319.95
840.4388	837.0545	2136.1	1246.8
840.5839	839.1085	2045.5	1159
840.729	841.1618	1984.7	1095.95
840.8741	843.2143	1938.1	1053.05
841.0192	845.2662	1905.05	1020.55
841.1643	847.3175	1886.45	1000.5
841.3095	849.368	1877.35	992.65
841.4546	851.4179	1877.25	991.4
841.5997	853.467	1873.4	984.8
841.7448	855.5155	1885	999.55
841.8899	857.5633	1876.3	988.7
842.0351	859.6105	1873.45	984.15
842.1802	861.6569	1865.45	981.4
842.3253	863.7027	1849.5	960.3
842.4704	865.7478	1840.95	949.5
842.6156	867.7922	1832.95	943.45
842.7607	869.8359	1821	930.7
842.9058	871.8789	1820.85	928.75
843.0509	873.9212	1839.45	917.3
843.1961	875.9629	1824.85	933.2
843.3412	878.0039	1837.75	945.6
843.4863	880.0441	1852.75	963.2
843.6315	882.0837	1872.95	982.25
843.7766	884.1226	1910.6	1022.35
843.9218	886.1609	1935.8	1048.95
844.0669	888.1984	1978.85	1089.25
844.212	890.2352	2018.05	1131.35
844.3572	892.2714	2022.65	1130.65
844.5023	894.3069	1998.35	1106.95
844.6475	896.3416	1942.3	1052.2
844.7926	898.3757	1913.1	1022.9
844.9377	900.4091	1896.8	1000.9
845.0829	902.4418	1898.75	1001.3
845.228	904.4739	1911.3	1015.65
845.3732	906.5052	1922.65	1028.65
845.5183	908.5358	1919.1	1028.05
845.6635	910.5658	1892.05	997.15
845.8086	912.595	1852.1	961.7
845.9538	914.6236	1828.55	935.55
846.0989	916.6515	1799.45	909.3
846.2441	918.6786	1785.15	890.05
846.3892	920.7051	1777.75	882.4
846.5344	922.7309	1774.4	881.65
846.6795	924.756	1760.9	868.15
846.8246	926.7804	1782.25	889.8
846.9698	928.8041	1787.1	893.6
847.1149	930.8272	1815.2	923.55
847.2601	932.8495	1826.1	929.35
847.4052	934.8711	1829.45	935.8
847.5504	936.892	1831.4	936.8
847.6955	938.9123	1851.5	955.85
847.8407	940.9318	1874.4	981.25
847.9858	942.9506	1888.6	992.5
848.131	944.9688	1866.85	972.45
848.2761	946.9862	1840.4	946.15
848.4213	949.003	1822.15	924.1
848.5664	951.019	1789	892.8
848.7115	953.0344	1769.7	874
848.8567	955.0491	1764.3	869.8
849.0018	957.063	1764.3	870.8
849.147	959.0763	1763.75	872.9
849.2921	961.0888	1761.1	865.15
849.4373	963.1007	1762.6	869.9
849.5824	965.1119	1754.1	863.1
849.7275	967.1223	1744.75	856.5
849.8727	969.1321	1729.4	839.7
850.0178	971.1412	1732.2	840.9
850.1629	973.1495	1726	832.95
850.3081	975.1572	1757.8	830.3
850.4532	977.1641	1730.35	836
850.5983	979.1704	1727.6	831.05
850.7435	981.1759	1726.65	828
850.8886	983.1808	1720.75	825.25
851.0337	985.1849	1725.25	820.35
851.1788	987.1884	1726.7	829.45
851.324	989.1911	1721.95	825.6
851.4691	991.1932	1736.6	840.8
851.6142	993.1945	1724	828.35
851.7593	995.1951	1728.2	833.5
851.9045	997.1951	1728.95	829.8
852.0496	999.1943	1716.35	821
852.1947	1001.1928	1725	828.25
852.3398	1003.1906	1733.95	838.95
852.4849	1005.1877	1759	862.55
852.63	1007.1841	1778.1	884.75
852.7751	1009.1798	1785.3	889.9
852.9202	1011.1748	1778.5	883.05
853.0653	1013.1691	1758.55	860.25
853.2104	1015.1627	1731.75	838.1
853.3555	1017.1556	1703.9	809.8
853.5006	1019.1477	1683.65	788.2
853.6457	1021.1392	1662.95	772.35
853.7908	1023.1299	1666.85	776.6
853.9359	1025.12	1660.5	769.4
854.081	1027.1093	1669.6	787.35
854.2261	1029.0979	1681.1	797.9
854.3712	1031.0859	1694.15	807.95
854.5163	1033.0731	1711.05	820.55
854.6613	1035.0596	1714.85	822.85
854.8064	1037.0454	1711.9	818.4
854.9515	1039.0304	1689	791.05
855.0965	1041.0148	1669.25	774.95
855.2416	1042.9985	1665.6	768.9
855.3867	1044.9814	1653.25	757.2
855.5317	1046.9636	1651.8	756
855.6768	1048.9452	1652.05	758.9
855.8219	1050.926	1676	782.15
855.9669	1052.9061	1670.85	774.75
856.112	1054.8855	1691.6	794.8
856.257	1056.8642	1678	782.75
856.4021	1058.8421	1684.55	784.95
856.5471	1060.8194	1690.15	796.9
856.6921	1062.7959	1678.85	783.7
856.8372	1064.7717	1688.3	789
856.9822	1066.7469	1684.4	785.7
857.1272	1068.7213	1695	795.45
857.2723	1070.695	1692.5	797.85
857.4173	1072.6679	1723.25	827.5
857.5623	1074.6402	1738.7	840.3
857.7073	1076.6117	1746.85	842.85
857.8523	1078.5826	1722.15	822.95
857.9973	1080.5527	1689.6	789.15
858.1423	1082.5221	1655.15	755.8
858.2873	1084.4908	1626.25	728.45
858.4323	1086.4587	1623.85	724.9
858.5773	1088.426	1616.5	717.45
858.7223	1090.3925	1616.95	715.25
858.8673	1092.3584	1621.1	723.65
859.0123	1094.3235	1629.45	733.05
859.1573	1096.2879	1652.8	753.65
859.3022	1098.2515	1670.8	772.7
859.4472	1100.2145	1694.6	799.15
859.5922	1102.1767	1724.6	828.6
859.7371	1104.1382	1779.4	881.4
859.8821	1106.099	1818.2	918.3
860.027	1108.0591	1863.8	968.45
860.172	1110.0185	1895	997.1
860.3169	1111.9771	1936.3	1042.9
860.4619	1113.9351	1980	1083.05
860.6068	1115.8923	2027.5	1131.3
860.7517	1117.8488	2049.7	1150.8
860.8967	1119.8045	2004.55	1107.3
861.0416	1121.7596	1910.65	1015.9
861.1865	1123.7139	1817.25	918.8
861.3314	1125.6675	1776.35	878.55
861.4763	1127.6204	1782	884.4
861.6212	1129.5726	1784.95	884.75
861.7661	1131.524	1786	889.15
861.911	1133.4748	1750.8	852.6
862.0559	1135.4248	1690.7	792.45
862.2008	1137.3741	1654.7	756
862.3457	1139.3226	1632.35	731.7
862.4905	1141.2705	1633.2	737.1
862.6354	1143.2176	1642.2	738.8
862.7803	1145.164	1650.3	750.9
862.9251	1147.1097	1641.95	741.7
863.07	1149.0546	1616.35	715.85
863.2148	1150.9989	1591.1	694.9
863.3597	1152.9424	1584.4	685
863.5045	1154.8852	1565.2	667.65
863.6493	1156.8272	1557.65	659.5
863.7942	1158.7686	1571.5	664.65
863.939	1160.7092	1566.6	669.05
864.0838	1162.6491	1576.2	676.4
864.2286	1164.5883	1579.25	679.9
864.3734	1166.5267	1595.85	697.05
864.5182	1168.4644	1618.65	723.05
864.663	1170.4014	1645.35	743.2
864.8078	1172.3377	1687.25	791.5
864.9526	1174.2732	1748.2	848.8
865.0974	1176.2081	1832.9	936.2
865.2421	1178.1421	1947.4	1045.35
865.3869	1180.0755	2039.6	1141.2
865.5317	1182.0082	2085.95	1187
865.6764	1183.9401	2060.95	1162.85
865.8212	1185.8713	1969.75	1076.65
865.9659	1187.8017	1840.65	947.7
866.1106	1189.7315	1758.1	869.75
866.2554	1191.6605	1710.05	793.15
866.4001	1193.5888	1655.7	765.25
866.5448	1195.5163	1617.9	724.3
866.6895	1197.4432	1597.5	697.9
866.8342	1199.3693	1598.35	701.65
866.9789	1201.2947	1584.45	683.25
867.1236	1203.2193	1572	675.2
867.2683	1205.1432	1567.2	672.05
867.413	1207.0664	1570.95	670.6
867.5576	1208.9889	1579.15	678.8
867.7023	1210.9106	1570.95	672.7
867.847	1212.8316	1576.85	677.7
867.9916	1214.7519	1591.8	682.75
868.1363	1216.6715	1593.85	695.9
868.2809	1218.5903	1617.7	718.25
868.4255	1220.5084	1622.15	723.55
868.5701	1222.4257	1630.85	730.35
868.7148	1224.3424	1646.7	750.9
868.8594	1226.2583	1670.95	770.2
869.004	1228.1735	1691.2	790.85
869.1486	1230.0879	1735.2	833.45
869.2932	1232.0016	1774.45	875.75
869.4377	1233.9146	1811.9	913.75
869.5823	1235.8269	1830.15	932.15
869.7269	1237.7384	1831.9	932.2
869.8715	1239.6492	1836.8	939.15
870.016	1241.5592	1863.25	966
870.1606	1243.4686	1899.6	1002.8
870.3051	1245.3772	1968.1	1071.65
870.4496	1247.285	2048.15	1150.2
870.5941	1249.1922	2124.5	1226.55
870.7387	1251.0986	2192.35	1292.4
870.8832	1253.0042	2252.1	1355.05
871.0277	1254.9092	2334.65	1437.9
871.1722	1256.8134	2412.3	1514.9
871.3167	1258.7169	2471.15	1569.4
871.4611	1260.6196	2480.55	1583.6
871.6056	1262.5216	2487.6	1587.3
871.7501	1264.4229	2469.95	1573.1
871.8945	1266.3234	2442.45	1545.85
872.039	1268.2232	2399.75	1499.2
872.1834	1270.1223	2354.7	1455.35
872.3278	1272.0207	2326.8	1426.75
872.4723	1273.9183	2305.45	1399.4
872.6167	1275.8151	2312.95	1416.35
872.7611	1277.7113	2361.2	1463.6
872.9055	1279.6067	2444.5	1547.6
873.0499	1281.5014	2576	1675.3
873.1943	1283.3953	2734.65	1834.25
873.3386	1285.2885	2889.05	1990.55
873.483	1287.181	2992.95	2095.5
873.6274	1289.0727	3020.5	2124.25
873.7717	1290.9637	2983.55	2085.4
873.9161	1292.854	2916.9	2019.8
874.0604	1294.7435	2824	1924.35
874.2047	1296.6323	2721.9	1823.1
874.349	1298.5204	2658.35	1756.05
874.4933	1300.4077	2595.6	1696.6
874.6376	1302.2943	2537.8	1640.6
874.7819	1304.1802	2521.4	1621.2
874.9262	1306.0653	2484.15	1584.1
875.0705	1307.9497	2429.6	1530.1
875.2147	1309.8333	2403.45	1505.3
875.359	1311.7162	2377.55	1478.8
875.5032	1313.5984	2344.5	1445.05
875.6475	1315.4798	2312.15	1401.65
875.7917	1317.3605	2299.65	1399.05
875.9359	1319.2405	2280.65	1378.6
876.0801	1321.1197	2267.15	1365.05
876.2243	1322.9982	2210.25	1307.65
876.3685	1324.876	2137.35	1238.35
876.5127	1326.753	2051.6	1153.5
876.6569	1328.6293	1979.4	1079.55
876.801	1330.5048	1899.15	998.05
876.9452	1332.3796	1842.45	941.85
877.0893	1334.2537	1819.6	893.4
877.2335	1336.127	1764.5	865.35
877.3776	1337.9996	1731.9	834.1
877.5217	1339.8714	1718.45	819
877.6658	1341.7426	1741.65	796.3
877.8099	1343.6129	1696.7	796.15
877.954	1345.4826	1681.75	780.75
878.0981	1347.3515	1675.2	774.35
878.2422	1349.2196	1659.95	761.15
878.3862	1351.087	1649.2	748.1
878.5303	1352.9537	1655.5	756.45
878.6743	1354.8197	1648.55	748.4
878.8184	1356.6849	1659.6	759.4
878.9624	1358.5493	1671.75	772.35
879.1064	1360.4131	1700.5	801.2
879.2504	1362.276	1741.65	843.7
879.3944	1364.1383	1768.4	869.05
879.5384	1365.9998	1785.8	880.05
879.6823	1367.8606	1762.6	863.1
879.8263	1369.7206	1754.9	853.8
879.9702	1371.5799	1752.05	851.9
880.1142	1373.4384	1738.9	838.65
880.2581	1375.2962	1716.8	814.4
880.402	1377.1533	1667.45	767.9
880.5459	1379.0096	1622.2	723.9
880.6898	1380.8652	1593.1	695.45
880.8337	1382.7201	1564.35	667.6
880.9776	1384.5742	1544.35	645.2
881.1215	1386.4275	1527.5	629.05
881.2653	1388.2802	1501.4	600.75
881.4092	1390.132	1491.45	592.9
881.553	1391.9832	1493.6	594.5
881.6968	1393.8336	1476.2	577.2
881.8406	1395.6832	1475.65	574.75
881.9844	1397.5322	1459.85	559.45
882.1282	1399.3803	1460.4	559.05
882.272	1401.2278	1450.7	551.15
882.4158	1403.0745	1439.55	539.75
882.5595	1404.9204	1429.65	531.6
882.7033	1406.7656	1430.65	530.9
882.847	1408.6101	1428.35	527.75
882.9908	1410.4538	1424.1	525.55
883.1345	1412.2968	1423.6	523.6
883.2782	1414.139	1427.75	528.65
883.4219	1415.9805	1440.3	542.55
883.5656	1417.8213	1454.25	550.55
883.7092	1419.6613	1459.45	560.7
883.8529	1421.5006	1486.4	583.7
883.9965	1423.3391	1524.8	625.4
884.1402	1425.1769	1564.25	663.4
884.2838	1427.0139	1637.55	737.4
884.4274	1428.8502	1717.1	814.45
884.571	1430.6858	1777.6	878.75
884.7146	1432.5206	1796.45	897.4
884.8582	1434.3547	1791.1	890.65
885.0018	1436.188	1764.5	864.7
885.1453	1438.0206	1758.55	861.1
885.2889	1439.8524	1746.15	846.65
885.4324	1441.6835	1736.5	837.3
885.5759	1443.5139	1740.4	839
885.7194	1445.3435	1749.85	851.1
885.8629	1447.1724	1750.15	852.65
886.0064	1449.0005	1746.35	847.15
886.1499	1450.8279	1740.4	841.85
886.2933	1452.6545	1726.8	828.85
886.4368	1454.4804	1726.75	829.3
886.5802	1456.3056	1726.4	821.55
886.7237	1458.13	1702.25	805.6
886.8671	1459.9536	1686.5	786.45
887.0105	1461.7766	1649.85	751.85
887.1539	1463.5987	1614.45	715
887.2972	1465.4202	1588.2	691.1
887.4406	1467.2409	1542.85	643.5
887.584	1469.0608	1522.55	623.95
887.7273	1470.88	1489.1	591.95
887.8706	1472.6984	1468.5	571.1
888.0139	1474.5161	1453.25	551.4
888.1572	1476.3331	1435	536.3
888.3005	1478.1493	1432.3	533.95
888.4438	1479.9648	1427.6	530.5
888.5871	1481.7795	1428.35	530.65
888.7303	1483.5935	1428.65	529.75
888.8736	1485.4067	1420.85	521.75
889.0168	1487.2192	1427.6	529.85
889.16	1489.031	1429.75	529.45
889.3032	1490.842	1425.35	526.55
889.4464	1492.6522	1425.35	526.7
889.5896	1494.4618	1412.65	511.1
889.7327	1496.2705	1406.65	508.3
889.8759	1498.0785	1408.1	510.7
890.019	1499.8858	1397.3	501.2
890.1622	1501.6924	1393.4	497.2
890.3053	1503.4981	1382.6	483.35
890.4484	1505.3032	1383.05	484.9
890.5914	1507.1075	1378.05	480
890.7345	1508.911	1366.05	466.95
890.8776	1510.7138	1364.05	466.1
891.0206	1512.5159	1363.95	468.2
891.1637	1514.3172	1357.3	460.45
891.3067	1516.1178	1344.25	447.95
891.4497	1517.9176	1347.3	445.4
891.5927	1519.7166	1337.95	442.05
891.7357	1521.515	1345.35	441.7
891.8786	1523.3126	1318.7	421.25
892.0216	1525.1094	1332.35	433.95
892.1645	1526.9055	1322.55	424.15
892.3074	1528.7008	1318.85	424.3
892.4503	1530.4954	1316.8	413.75
892.5932	1532.2893	1311.7	417.35
892.7361	1534.0824	1312.75	410.45
892.879	1535.8747	1306.35	411.4
893.0218	1537.6663	1311.55	414.5
893.1647	1539.4572	1310.35	413.45
893.3075	1541.2473	1307.2	410.5
893.4503	1543.0367	1312.2	420.1
893.5931	1544.8253	1317.45	418.4
893.7359	1546.6132	1322.2	422.7
893.8787	1548.4003	1328.85	420
894.0214	1550.1867	1333.6	428.65
894.1642	1551.9723	1339.2	440.15
894.3069	1553.7572	1347.95	451.2
894.4496	1555.5414	1363.6	469.6
894.5923	1557.3247	1390.1	495.65
894.735	1559.1074	1421.6	529.3
894.8777	1560.8893	1456.9	563.8
895.0204	1562.6705	1483.9	589.25
895.163	1564.4509	1508.2	614.35
895.3056	1566.2305	1511.3	620.55
895.4482	1568.0094	1512.35	620.75
895.5908	1569.7876	1512.05	620.8
895.7334	1571.565	1504.95	610.45
895.876	1573.3417	1505.75	613.25
896.0186	1575.1176	1509.95	617.9
896.1611	1576.8928	1525.6	634.4
896.3036	1578.6672	1542.2	652.35
896.4461	1580.4409	1570.75	682.9
896.5886	1582.2138	1596.15	702.55
896.7311	1583.986	1626.9	734.75
896.8736	1585.7575	1662.6	770.25
897.0161	1587.5282	1679.45	789.3
897.1585	1589.2981	1710.15	821.15
897.3009	1591.0673	1718.2	827.3
897.4433	1592.8358	1723.35	832.25
897.5857	1594.6035	1723.3	828.75
897.7281	1596.3704	1722.75	830.8
897.8705	1598.1366	1696.55	806.15
898.0128	1599.9021	1688.2	795.65
898.1551	1601.6668	1676.85	785.35
898.2975	1603.4308	1658.55	764.85
898.4398	1605.194	1680.75	783.15
898.5821	1606.9564	1696.45	807.15
898.7243	1608.7182	1750.1	856.7
898.8666	1610.4791	1815.8	929.7
899.0088	1612.2394	1900.2	1014.85
899.1511	1613.9988	1978.05	1091
899.2933	1615.7576	2047.1	1158
899.4355	1617.5156	2049.35	1152
899.5776	1619.2728	2014	1121.6
899.7198	1621.0293	1932.2	1042.65
899.862	1622.785	1835.65	942.9
900.0041	1624.54	1728.35	837.65
900.1462	1626.2942	1630.4	739.6
900.2883	1628.0477	1551.75	659.6
900.4304	1629.8005	1483.75	590.55
900.5725	1631.5525	1429.55	539
900.7145	1633.3037	1384	494.95
900.8566	1635.0542	1358.35	470.6
900.9986	1636.804	1327.1	438.45
901.1406	1638.553	1372.15	413.35
901.2826	1640.3013	1288	395.85
901.4245	1642.0488	1274.25	383.6
901.5665	1643.7955	1264.05	377.65
901.7085	1645.5416	1248.25	360.2
901.8504	1647.2868	1245.6	357.95
901.9923	1649.0313	1240.2	347.6
902.1342	1650.7751	1239.6	347.55
902.2761	1652.5181	1234.65	345.55
902.4179	1654.2604	1233.35	343.9
902.5598	1656.0019	1239.4	352.8
902.7016	1657.7427	1243.7	354.5
902.8434	1659.4828	1265.9	378
902.9852	1661.222	1292.85	400.35
903.127	1662.9606	1319.85	428.55
903.2687	1664.6984	1341.2	446.65
903.4105	1666.4354	1340.75	447.6
903.5522	1668.1717	1320.5	429.35
903.6939	1669.9072	1284.85	391.15
903.8356	1671.642	1245.55	353.45
903.9773	1673.3761	1212.95	322.45
904.119	1675.1094	1191.15	301.25
904.2606	1676.8419	1172.35	282.3
904.4022	1678.5737	1169.4	279.4
904.5439	1680.3048	1159.1	266.9
904.6855	1682.0351	1149.55	257.5
904.827	1683.7646	1145.6	252.9
904.9686	1685.4934	1141.45	253.4
905.1101	1687.2215	1134.9	244.65
905.2517	1688.9488	1130.5	241.65
905.3932	1690.6754	1123.3	234.35
905.5347	1692.4012	1129.55	237.85
905.6761	1694.1263	1125.7	234.2
905.8176	1695.8506	1125.95	234.7
905.9591	1697.5742	1114.2	225.8
906.1005	1699.297	1118.55	228.45
906.2419	1701.0191	1114.95	226.75
906.3833	1702.7404	1108.05	221.45
906.5246	1704.461	1112.3	222.45
906.666	1706.1808	1108.35	217.8
906.8073	1707.8999	1111.45	221.05
906.9487	1709.6182	1102.75	213.45
907.09	1711.3358	1103.95	216.75
907.2313	1713.0527	1099.75	213.95
907.3725	1714.7688	1103.8	210.6
907.5138	1716.4841	1100.4	209.95
907.655	1718.1987	1106.25	211.25
907.7962	1719.9126	1095.55	208.55
907.9374	1721.6257	1103.1	215.65
908.0786	1723.338	1092.55	205.5
908.2198	1725.0496	1094.85	207.45
908.3609	1726.7605	1093.4	204.25
908.502	1728.4706	1090.05	201.35
908.6431	1730.18	1090	201.75
908.7842	1731.8886	1091.25	206.55
908.9253	1733.5964	1108.7	201.05
909.0664	1735.3036	1094.25	204.65
909.2074	1737.0099	1087.95	199.9
909.3484	1738.7156	1085.4	201
909.4894	1740.4204	1086.65	195.15
909.6304	1742.1246	1088.3	199.5
909.7714	1743.8279	1085.75	196.75
909.9123	1745.5306	1092.05	206.15
910.0532	1747.2325	1081.75	196.1
910.1941	1748.9336	1083.85	196.65
910.335	1750.634	1081.35	191.55
910.4759	1752.3336	1081.5	193.15
910.6168	1754.0325	1079.95	195.15
910.7576	1755.7307	1081.5	195.55
910.8984	1757.4281	1083.1	193.55
911.0392	1759.1247	1089.55	191.4
911.18	1760.8206	1088.2	193.35
911.3208	1762.5158	1090.4	197.3
911.4615	1764.2102	1079.85	191.25
911.6022	1765.9039	1080.6	192.05
911.7429	1767.5968	1075	188.95
911.8836	1769.289	1073.95	187.15
912.0243	1770.9804	1074.3	184.95
912.1649	1772.6711	1074.6	184.55
912.3056	1774.361	1079.55	191
912.4462	1776.0502	1077.7	190.2
912.5868	1777.7386	1081.7	188.85
912.7274	1779.4263	1075.5	188.45
912.8679	1781.1132	1068.25	184.4
913.0084	1782.7994	1074.55	187.4
913.149	1784.4849	1068.2	183.1
913.2895	1786.1696	1088.5	183.5
913.4299	1787.8535	1070.2	185.85
913.5704	1789.5367	1067.85	181.55
913.7108	1791.2192	1063.9	178.45
913.8513	1792.9009	1098.3	185.45
913.9917	1794.5818	1072.1	183.55
914.132	1796.2621	1066.2	179.4
914.2724	1797.9415	1073.15	184.85
914.4128	1799.6202	1069.75	181.45
914.5531	1801.2982	1072.65	182.8
914.6934	1802.9755	1064.45	173.1
914.8337	1804.6519	1067.2	179.1
914.9739	1806.3277	1060.4	173.1
915.1142	1808.0027	1064.3	181.85
915.2544	1809.6769	1058.85	172.7
915.3946	1811.3504	1062.9	177.05
915.5348	1813.0231	1062.05	175.35
915.675	1814.6951	1059.3	174.65
915.8151	1816.3664	1063.8	176.95
915.9553	1818.0369	1063.5	175.75
916.0954	1819.7067	1059.5	172.85
916.2355	1821.3757	1061	170.05
916.3755	1823.044	1057.6	169.55
916.5156	1824.7115	1058.75	167.3
916.6556	1826.3783	1053.95	165.9
916.7956	1828.0443	1054.35	167.6
916.9356	1829.7096	1056.55	168.5
917.0756	1831.3741	1063.8	173.25
917.2155	1833.0379	1054.8	169.45
917.3555	1834.701	1055.1	167.35
917.4954	1836.3633	1059.85	175.5
917.6353	1838.0248	1054.05	165.8
917.7751	1839.6856	1053.3	168.2
917.915	1841.3457	1052.35	165.6
918.0548	1843.005	1055.4	166.85
918.1946	1844.6636	1058.55	171.65
918.3344	1846.3214	1051.3	163.4
918.4742	1847.9785	1047.4	159.45
918.6139	1849.6349	1054.6	164.6
918.7537	1851.2904	1063.2	165.2
918.8934	1852.9453	1054	165.4
919.0331	1854.5994	1053.8	163.4
919.1727	1856.2528	1057.55	163.65
919.3124	1857.9054	1050.5	164.6
919.452	1859.5572	1051.3	163.35
919.5916	1861.2083	1051.1	161.75
919.7312	1862.8587	1051.3	162.1
919.8708	1864.5084	1048.95	159.75
920.0103	1866.1572	1052.75	165.75
920.1498	1867.8054	1046.8	157
920.2893	1869.4528	1048.75	159.8
920.4288	1871.0994	1049.5	159.2
920.5683	1872.7453	1047.8	158.4
920.7077	1874.3905	1051.95	156.5
920.8471	1876.0349	1046.1	156.4
920.9865	1877.6786	1046.65	156.55
921.1259	1879.3215	1050.15	162.85
921.2653	1880.9637	1051.25	162.05
921.4046	1882.6051	1040.7	155.4
921.5439	1884.2458	1047.2	158
921.6832	1885.8858	1043.95	155.4
921.8225	1887.525	1046.25	160.3
921.9617	1889.1634	1045	156.05
922.101	1890.8011	1048.85	160
922.2402	1892.4381	1038.7	150.4
922.3794	1894.0743	1037.6	152.35
922.5185	1895.7098	1039.2	151.5
922.6577	1897.3446	1043.7	155.1
922.7968	1898.9786	1044.45	152.75
922.9359	1900.6118	1039.7	150.95
923.075	1902.2443	1040.05	154.1
923.214	1903.8761	1035.75	148.45
923.3531	1905.5071	1038.6	147.7
923.4921	1907.1374	1036.95	147.3
923.6311	1908.7669	1036.45	149.95
923.77	1910.3957	1035	146.9
923.909	1912.0237	1037.45	150.35
924.0479	1913.651	1040.65	151.2
924.1868	1915.2776	1032.35	145.45
924.3257	1916.9034	1036.25	150.3
924.4646	1918.5285	1029.25	143.15
924.6034	1920.1528	1033.35	143.7
924.7422	1921.7764	1035.4	146.35
924.881	1923.3992	1032.95	147.05
925.0198	1925.0213	1031.9	143.6
925.1586	1926.6427	1027.55	143.4
925.2973	1928.2633	1244.55	146.4
925.436	1929.8832	1038.3	145.5
925.5747	1931.5023	1031.5	143.75
925.7134	1933.1207	1029.45	143.5
925.852	1934.7383	1032.15	145.55
925.9906	1936.3552	1026.25	141.3
926.1292	1937.9714	1026.95	140.8
926.2678	1939.5868	1030.15	141.5
926.4064	1941.2015	1025.15	137.5
926.5449	1942.8154	1026.75	139.55
926.6834	1944.4286	1028	137.85
926.8219	1946.041	1052.95	142.4
926.9604	1947.6528	1029	134.85
927.0988	1949.2637	1024.6	136.8
927.2372	1950.8739	1025.95	137.1
927.3756	1952.4834	1029	143.25
927.514	1954.0921	1030.35	144.7
927.6523	1955.7001	1027.2	136.65
927.7907	1957.3074	1018.75	135.75
927.929	1958.9139	1019.75	134.75
928.0673	1960.5197	1024	137.25
928.2055	1962.1247	1019	133.2
928.3438	1963.729	1021.85	138.4
928.482	1965.3325	1026.25	137.55
928.6202	1966.9353	1017.8	134.15
928.7584	1968.5374	1019.4	134.15
928.8965	1970.1387	1020.35	133.9
929.0346	1971.7393	1018.45	133.75
929.1727	1973.3392	1021.1	137.75
929.3108	1974.9383	1016.75	134.15
929.4489	1976.5366	1011.75	128.15
929.5869	1978.1342	1015.85	130.75
929.7249	1979.7311	1017.55	131.65
929.8629	1981.3273	1013.9	131
930.0009	1982.9227	1018	131.15
930.1388	1984.5173	1013.55	131.25
930.2767	1986.1112	1012.4	130.85
930.4146	1987.7044	1009.25	127.65
930.5525	1989.2968	1014.05	130.2
930.6904	1990.8885	1015.6	129.2
930.8282	1992.4795	1013.5	130.35
930.966	1994.0697	1012.35	131.15
931.1038	1995.6592	1010.9	129.9
931.2415	1997.2479	1012.6	129.8
931.3793	1998.8359	1011.65	129.7
931.517	2000.4232	1010.5	130.65
931.6547	2002.0097	1006.1	126.35
931.7923	2003.5955	1008.65	128.35
931.93	2005.1805	1007.85	125.85
932.0676	2006.7648	1008.8	127.5
932.2052	2008.3484	1010.1	130.4
932.3427	2009.9312	1008.55	127.2
932.4803	2011.5133	1005.4	128.25
932.6178	2013.0946	1005.6	128.1
932.7553	2014.6752	1008.6	128.95
932.8928	2016.2551	1006.05	125.8
933.0302	2017.8342	1006.25	125.2
933.1676	2019.4126	1001.9	122.6
933.305	2020.9902	1001.4	123.7
933.4424	2022.5672	1005.9	124.8
933.5798	2024.1433	1008.3	126.75
933.7171	2025.7188	1002.5	127.15
933.8544	2027.2935	1006.95	127.35
933.9917	2028.8674	997.7	119.4
934.129	2030.4406	1004.6	129.05
934.2662	2032.0131	1002.2	123.05
934.4034	2033.5849	1003.75	122.85
934.5406	2035.1559	1000.15	121.95
934.6778	2036.7261	1005.3	126.2
934.8149	2038.2957	1005.6	124
934.952	2039.8645	1007.3	126.8
935.0891	2041.4325	1007.6	123.15
935.2262	2042.9998	1001.15	121.4
935.3632	2044.5664	1004.1	123.1
935.5002	2046.1323	1000.4	120.85
935.6372	2047.6974	1002.75	123.5
935.7742	2049.2617	1000.2	122.1
935.9111	2050.8254	1007.85	123.8
936.048	2052.3883	1000.65	120.45
936.1849	2053.9504	1003.5	121.7
936.3218	2055.5118	1000.7	118.1
936.4586	2057.0725	1010.75	126.65
936.5955	2058.6325	999.3	119.75
936.7323	2060.1917	997.45	116.65
936.869	2061.7502	1003.95	122.65
937.0058	2063.3079	999.55	120.4
937.1425	2064.8649	1005.8	124.15
937.2792	2066.4212	1000.15	119.5
937.4159	2067.9767	1003.2	124.6
937.5525	2069.5315	998.55	119.1
937.6891	2071.0856	1000.8	120.7
937.8257	2072.6389	997.65	116.85
937.9623	2074.1915	995	119.05
938.0989	2075.7433	1000	117.8
938.2354	2077.2945	999.75	122.15
938.3719	2078.8448	1002.4	121.6
938.5084	2080.3945	1001.25	116.75
938.6448	2081.9434	1001.9	120.7
938.7812	2083.4916	999.95	118.75
938.9176	2085.039	1005.1	121.25
939.054	2086.5857	1001.6	116.55
939.1903	2088.1317	1002.15	116.3
939.3267	2089.677	1006.65	121.2
939.463	2091.2215	1000	114.7
939.5992	2092.7652	1002.65	117.3
939.7355	2094.3083	1004.5	120.25
939.8717	2095.8506	1002.65	122.65
940.0079	2097.3921	997.65	116.85
940.1441	2098.933	995.7	113.65
940.2802	2100.4731	999.45	118.05
940.4163	2102.0124	1015.65	114.45
940.5524	2103.5511	1000.15	120.5
940.6885	2105.089	999.05	117.15
940.8245	2106.6261	1000.2	117.65
940.9606	2108.1626	997.05	114.1
941.0965	2109.6983	1031.05	117.5
941.2325	2111.2332	1001.2	117.1
941.3684	2112.7675	997.9	115.8
941.5044	2114.301	996.8	112
941.6403	2115.8337	998.45	116
941.7761	2117.3657	998.45	116.3
941.912	2118.897	996.25	112.65
942.0478	2120.4276	1004	115.55
942.1835	2121.9575	1002.05	118.1
942.3193	2123.4866	998.9	112.35
942.455	2125.0149	999.35	114.9
942.5907	2126.5426	996.05	116.1
942.7264	2128.0695	998.45	115.7
942.8621	2129.5956	992.9	115.5
942.9977	2131.1211	998.1	114.9
943.1333	2132.6458	995.65	115.75
943.2689	2134.1698	999.2	118.15
943.4044	2135.693	1000.8	115.7
943.54	2137.2155	998.45	114.3
943.6755	2138.7373	994.95	112.7
943.8109	2140.2584	993.55	114.3
943.9464	2141.7787	1000.3	116.7
944.0818	2143.2983	992.4	113.65
944.2172	2144.8171	990.5	112.95
944.3526	2146.3353	1001	118.15
944.4879	2147.8527	988.75	110.55
944.6232	2149.3693	995.85	112.8
944.7585	2150.8853	994.5	110.15
944.8938	2152.4005	997.85	114.8
945.029	2153.9149	994.2	113.1
945.1642	2155.4287	991.95	110.85
945.2994	2156.9417	996.2	112.35
945.4346	2158.454	995.95	111.5
945.5697	2159.9655	992.5	112.8
945.7048	2161.4764	989.45	108.45
945.8399	2162.9865	989.9	111.75
945.9749	2164.4958	992.55	110.95
946.1099	2166.0045	994	111.6
946.2449	2167.5124	992.6	112.25
946.3799	2169.0195	993.7	112.7
946.5148	2170.526	996.2	113.45
946.6498	2172.0317	994.55	112.75
946.7846	2173.5367	994.8	112.9
946.9195	2175.0409	989.25	109.7
947.0543	2176.5445	987.4	107.7
947.1891	2178.0473	992.3	109.2
947.3239	2179.5494	995.85	109.1
947.4587	2181.0507	988.7	108.15
947.5934	2182.5513	989.2	106.95
947.7281	2184.0512	990.25	105.7
947.8628	2185.5504	993	112.9
947.9974	2187.0488	990.4	111.25
948.132	2188.5465	988.8	108.55
948.2666	2190.0435	990.9	111.3
948.4012	2191.5397	989.45	107.75
948.5357	2193.0353	989.8	109.1
948.6702	2194.5301	991.75	106.35
948.8047	2196.0241	991.05	107.85
948.9392	2197.5175	991.15	106.45
949.0736	2199.0101	996.4	109.4
949.208	2200.502	989.85	108.9
949.3424	2201.9931	986.35	105.65
949.4767	2203.4835	988.55	107.05
949.611	2204.9733	1004.85	108.55
949.7453	2206.4622	986.4	107.8
949.8796	2207.9505	988.4	106.3
950.0138	2209.438	983.4	106.5
950.148	2210.9248	983.4	102.2
950.2822	2212.4109	985.25	105.85
950.4164	2213.8962	990.1	105.85
950.5505	2215.3809	991.7	106.7
950.6846	2216.8648	989.9	106.8
950.8186	2218.3479	995.2	107.05
950.9527	2219.8304	987.55	100.45
951.0867	2221.3121	990.45	104.6
951.2207	2222.7931	986.05	102.25
951.3546	2224.2733	986.05	102.6
951.4886	2225.7529	986.75	104.35
951.6225	2227.2317	987.45	104.3
951.7563	2228.7098	980.75	99.8
951.8902	2230.1872	981.75	102.25
952.024	2231.6638	981.45	101
952.1578	2233.1397	986.75	100.8
952.2916	2234.6149	982.55	103.85
952.4253	2236.0894	981.5	100.05
952.559	2237.5632	990.4	100.8
952.6927	2239.0362	980.9	101.6
952.8263	2240.5085	977.95	95.4
952.9599	2241.9801	981.15	99.9
953.0935	2243.4509	978.55	96.05
953.2271	2244.921	979.8	97.25
953.3606	2246.3904	982.35	97.8
953.4941	2247.8591	981.75	101.05
953.6276	2249.3271	981.4	101.9
953.7611	2250.7943	981.15	100.4
953.8945	2252.2608	980.65	98.6
954.0279	2253.7266	980.75	98.6
954.1612	2255.1917	976.25	93.35
954.2946	2256.656	978.6	97
954.4279	2258.1197	976.2	95.45
954.5612	2259.5826	981.25	97.75
954.6944	2261.0447	982.1	99.1
954.8276	2262.5062	979	96.45
954.9608	2263.9669	981.3	98.25
955.094	2265.4269	975.2	94.3
955.2271	2266.8862	975.9	94.3
955.3602	2268.3448	977.5	94.35
955.4933	2269.8026	973.7	92.55
955.6264	2271.2598	971.55	91.8
955.7594	2272.7162	971.7	91.9
955.8924	2274.1719	974.25	92.5
956.0253	2275.6268	975.55	91.75
956.1583	2277.0811	976.85	95.75
956.2912	2278.5346	973.2	93.85
956.4241	2279.9874	974.2	93.5
956.5569	2281.4395	974.75	95.95
956.6897	2282.8908	979.45	94.2
956.8225	2284.3414	974.35	89.7
956.9553	2285.7914	969.75	88.45
957.088	2287.2406	976.65	91.3
957.2207	2288.689	973.05	91.15
957.3534	2290.1368	975.1	91.55
957.486	2291.5838	979.45	93.55
957.6186	2293.0302	978.7	93.85
957.7512	2294.4758	972.7	88.45
957.8838	2295.9206	974.15	90.6
958.0163	2297.3648	971.8	92.55
958.1488	2298.8082	973.5	89.7
958.2813	2300.251	970.9	89.65
958.4137	2301.693	975.9	89.75
958.5461	2303.1343	973.15	91.1
958.6785	2304.5748	976.1	93.45
958.8108	2306.0147	969.1	88.5
958.9432	2307.4538	971.6	90.4
959.0754	2308.8922	971.45	92.35
959.2077	2310.3299	969.95	89.25
959.3399	2311.7669	969.3	90.95
959.4721	2313.2031	970.05	89.2
959.6043	2314.6387	973.5	94.05
959.7365	2316.0735	971.55	89.75
959.8686	2317.5076	972.85	89.5
960.0006	2318.941	971.8	91.1
960.1327	2320.3737	973.55	90
960.2647	2321.8056	973.15	89.35
960.3967	2323.2369	977.1	96.75
960.5287	2324.6674	974.9	90.2
960.6606	2326.0972	976.75	95.3
960.7925	2327.5263	976.5	94.9
960.9244	2328.9547	983.65	99.25
961.0562	2330.3823	977.35	94.3
961.1881	2331.8092	980.15	90.4
961.3198	2333.2355	975.25	91.75
961.4516	2334.661	969.55	86.05
961.5833	2336.0858	970.2	86.1
961.715	2337.5098	968.75	85.25
961.8467	2338.9332	967.85	85.15
961.9783	2340.3558	972.8	87.85
962.1099	2341.7778	965.75	83.45
962.2415	2343.199	969.55	87.15
962.373	2344.6195	968.9	85.05
962.5045	2346.0393	967.05	85.35
962.636	2347.4583	968.4	87.2
962.7675	2348.8767	969.1	83.85
962.8989	2350.2943	970.55	85.75
963.0303	2351.7113	969.3	83.55
963.1617	2353.1275	970.2	85.05
963.293	2354.543	993	86.15
963.4243	2355.9578	969.45	85.35
963.5556	2357.3718	965.9	84.2
963.6868	2358.7852	967.6	82.75
963.818	2360.1978	962.25	79.95
963.9492	2361.6098	964	80.55
964.0803	2363.021	967.45	80.7
964.2114	2364.4315	967.15	83.7
964.3425	2365.8413	970.6	84.9
964.4736	2367.2504	961.95	78.4
964.6046	2368.6587	964.15	82.7
964.7356	2370.0664	965.7	83.3
964.8666	2371.4733	963.55	77.5
964.9975	2372.8795	963.5	80.95
965.1284	2374.285	964.8	80.6
965.2593	2375.6899	960.5	78
965.3901	2377.0939	961.45	80.1
965.5209	2378.4973	962.4	78.6
965.6517	2379.9	968	86.05
965.7825	2381.3019	964.55	80.85
965.9132	2382.7032	960.8	79.25
966.0439	2384.1037	961.95	81
966.1745	2385.5035	961.6	80.3
966.3051	2386.9027	957.6	75.35
966.4357	2388.3011	965.6	79.45
966.5663	2389.6987	962.2	78.6
966.6968	2391.0957	963.45	81.1
966.8273	2392.492	958.15	76.7
966.9578	2393.8876	955.5	73.15
967.0882	2395.2824	960.8	75.1
967.2186	2396.6765	960.55	77.2
967.349	2398.07	960.75	75.9
967.4793	2399.4627	961.05	77.05
967.6097	2400.8547	957.95	74.75
967.7399	2402.246	964.8	75.7
967.8702	2403.6366	960.95	74.75
968.0004	2405.0265	959.15	75.75
968.1306	2406.4156	960.4	74.7
968.2607	2407.8041	962.2	75.9
968.3909	2409.1918	962	74.95
968.521	2410.5789	958.9	75
968.651	2411.9652	961.4	74.55
968.781	2413.3508	957.35	73.8
968.911	2414.7358	959.9	75.05
969.041	2416.12	955.8	72.5
969.1709	2417.5035	954.3	69.3
969.3008	2418.8863	958.45	73.8
969.4307	2420.2684	957	72.05
969.5606	2421.6497	959.2	74.85
969.6904	2423.0304	955.65	70.9
969.8201	2424.4104	952.85	69
969.9499	2425.7896	962.6	74.85
970.0796	2427.1682	955.45	73.6
970.2093	2428.546	958.35	72.05
970.3389	2429.9232	960.95	74.75
970.4685	2431.2996	957.05	72.85
970.5981	2432.6753	953.95	70.9
970.7277	2434.0503	957.05	73.85
970.8572	2435.4246	952.5	68.85
970.9867	2436.7982	954.15	68.95
971.1161	2438.1711	953.3	71.8
971.2456	2439.5433	955.45	71.1
971.375	2440.9148	953.15	68.3
971.5043	2442.2856	952.55	68.75
971.6336	2443.6557	952.1	66.35
971.7629	2445.025	955.6	72.85
971.8922	2446.3937	950.7	66.25
972.0214	2447.7617	952.15	68.15
972.1506	2449.1289	952.4	68.3
972.2798	2450.4955	954.7	67.4
972.4089	2451.8613	952.05	70.55
972.538	2453.2265	951.75	64.8
972.6671	2454.5909	949.85	65.5
972.7961	2455.9546	953.6	69.45
972.9251	2457.3177	947.65	65.35
973.0541	2458.68	949.1	65
973.1831	2460.0416	953.2	68.95
973.312	2461.4025	951.5	66.4
973.4408	2462.7627	964.3	69.4
973.5697	2464.1222	951.2	67.1
973.6985	2465.4811	949.2	65.75
973.8273	2466.8392	946.95	64.3
973.956	2468.1966	952.6	68.25
974.0847	2469.5533	952.3	69.6
974.2134	2470.9093	948.8	63.35
974.3421	2472.2645	950.45	65.95
974.4707	2473.6191	947.15	64.6
974.5993	2474.973	951	68.1
974.7278	2476.3262	952.3	69.25
974.8563	2477.6787	947.7	66.7
974.9848	2479.0305	946.95	65.15
975.1132	2480.3816	951.7	68.3
975.2417	2481.7319	950.8	67.95
975.37	2483.0816	949.15	64.9
975.4984	2484.4306	945.5	63.8
975.6267	2485.7789	946.6	62.7
975.755	2487.1264	950.75	65.05
975.8833	2488.4733	945.05	63.8
976.0115	2489.8195	952.95	63.7
976.1397	2491.165	948.3	61.2
976.2678	2492.5097	948	63.35
976.3959	2493.8538	945	63.1
976.524	2495.1972	949.4	65.55
976.6521	2496.5398	949.2	63.05
976.7801	2497.8818	950.7	65.3
976.9081	2499.2231	948.8	64.4
977.036	2500.5637	952.25	66.35
977.164	2501.9035	949.9	66.95
977.2918	2503.2427	950.4	63.85
977.4197	2504.5812	945.1	61.35
977.5475	2505.919	949.45	65.85
977.6753	2507.256	948.1	65.7
977.8031	2508.5924	945.55	63.9
977.9308	2509.9281	953.8	64.1
978.0585	2511.2631	947.1	65.75
978.1861	2512.5974	939.75	56.05
978.3137	2513.9309	946.15	63.2
978.4413	2515.2638	973.55	63.5
978.5689	2516.596	942.05	59.8
978.6964	2517.9275	945.6	60.25
978.8239	2519.2583	945.25	62.25
978.9513	2520.5884	944.45	62.5
979.0788	2521.9178	943.95	61.6
979.2062	2523.2465	943.75	62
979.3335	2524.5745	943.05	60.4
979.4608	2525.9018	943.95	60.4
979.5881	2527.2284	941.55	60.8
979.7154	2528.5543	943.8	60.15
979.8426	2529.8796	942.15	58
979.9698	2531.2041	945.4	61.4
980.0969	2532.5279	939.05	60.75
980.224	2533.851	943.35	58.2
980.3511	2535.1735	939.25	57.05
980.4781	2536.4952	941.95	60.65
980.6052	2537.8163	942.2	58.25
980.7321	2539.1366	940.8	57.3
980.8591	2540.4562	943.95	59.3
980.986	2541.7752	941.6	57.3
981.1129	2543.0935	941.75	60.8
981.2397	2544.411	942.6	59.65
981.3665	2545.7279	943.4	62.3
981.4933	2547.0441	939.05	56.35
981.62	2548.3596	944.5	59.3
981.7467	2549.6744	937.85	55.95
981.8734	2550.9885	946.9	55.8
982.0001	2552.3019	937.4	56.15
982.1267	2553.6146	937.45	52.95
982.2532	2554.9266	939.1	56.4
982.3798	2556.2379	941.6	58
982.5063	2557.5485	936.3	56
982.6327	2558.8585	945.75	55.25
982.7592	2560.1677	941.25	54.4
982.8856	2561.4762	939.85	58.35
983.0119	2562.7841	946.05	64.05
983.1383	2564.0913	936.75	53.1
983.2646	2565.3977	939.15	57.55
983.3908	2566.7035	934.55	49.4
983.517	2568.0086	940.55	55.3
983.6432	2569.313	939	57
983.7694	2570.6167	941.75	52.4
983.8955	2571.9197	941.95	60.4
984.0216	2573.222	940.65	56.5
984.1476	2574.5236	940.75	57.35
984.2737	2575.8246	938.8	53.95
984.3996	2577.1248	940.15	54.15
984.5256	2578.4244	941.9	59.8
984.6515	2579.7232	935.1	52.1
984.7774	2581.0214	963.1	53.8
984.9032	2582.3189	933.4	49.85
985.029	2583.6157	941.2	55.85
985.1548	2584.9118	939.3	56.55
985.2806	2586.2072	937.6	54.45
985.4063	2587.5019	936.65	52.8
985.5319	2588.7959	936.85	52.3
985.6576	2590.0893	938.35	54.3
985.7832	2591.3819	938.85	57.05
985.9087	2592.6739	936.75	53.7
986.0343	2593.9652	939.85	58.65
986.1597	2595.2557	937.25	54.8
986.2852	2596.5456	942.6	57.9
986.4106	2597.8348	935.05	54.35
986.536	2599.1234	936.4	54.7
986.6614	2600.4112	940.4	58.5
986.7867	2601.6983	940.85	54.8
986.912	2602.9848	939.65	55.7
987.0372	2604.2705	947.75	57.7
987.1624	2605.5556	939.35	56.45
987.2876	2606.84	938.2	55.25
987.4128	2608.1237	938.9	57.95
987.5379	2609.4067	938.55	56.1
987.6629	2610.689	945.45	54.05
987.788	2611.9707	939.35	55.1
987.913	2613.2516	939.45	51.4
988.0379	2614.5319	938.25	55.05
988.1629	2615.8115	936.9	54.3
988.2878	2617.0903	939.6	56.3
988.4126	2618.3685	933.35	49.5
988.5375	2619.6461	932.4	48.55
988.6622	2620.9229	933.55	50.15
988.787	2622.199	930.35	46.4
988.9117	2623.4745	935.6	51.65
989.0364	2624.7493	932.85	50.45
989.161	2626.0234	931.05	51.1
989.2857	2627.2968	934.6	51.1
989.4102	2628.5695	934.75	53.8
989.5348	2629.8415	932.9	49.6
989.6593	2631.1128	932.95	50.25
989.7837	2632.3835	931.45	48.4
989.9082	2633.6535	931.35	49.1
990.0326	2634.9228	931.15	50
990.1569	2636.1914	931.7	49.85
990.2812	2637.4593	937.45	50.1
990.4055	2638.7265	932.35	49.4
990.5298	2639.9931	932.35	52
990.654	2641.259	934.4	51.95
990.7782	2642.5242	931.35	46.75
990.9023	2643.7887	930	47.35
991.0264	2645.0525	929.75	48.75
991.1505	2646.3156	931.45	48.05
991.2745	2647.5781	931.35	49
991.3985	2648.8398	927.45	46.5
991.5225	2650.1009	937.45	47.1
991.6464	2651.3613	930.7	47.8
991.7703	2652.6211	930.4	48.5
991.8942	2653.8801	929.7	49.05
992.018	2655.1385	930.25	43.65
992.1418	2656.3961	927.05	47.15
992.2655	2657.6531	930.5	49.85
992.3892	2658.9094	927.35	43.45
992.5129	2660.1651	928.3	48.8
992.6366	2661.42	928.2	44.7
992.7602	2662.6743	929.6	46.6
992.8837	2663.9279	928.55	46.55
993.0073	2665.1808	929.45	45.95
993.1307	2666.433	928.15	42.9
993.2542	2667.6846	927.4	44.6
993.3776	2668.9354	933.55	49.15
993.501	2670.1856	932.15	48.45
993.6244	2671.4351	928.75	48.1
993.7477	2672.6839	930.5	47.9
993.8709	2673.9321	929.95	48.85
993.9942	2675.1795	927.95	45.1
994.1174	2676.4263	929.95	49.5
994.2405	2677.6724	931.8	51
994.3637	2678.9179	927.15	43
994.4868	2680.1626	930.7	49.65
994.6098	2681.4067	929.15	47.35
994.7328	2682.6501	930.95	46.6
994.8558	2683.8928	926.45	46.6
994.9788	2685.1348	928.15	47.25
995.1017	2686.3761	925	46.25
995.2245	2687.6168	926.4	43.55
995.3474	2688.8568	926.25	46.4
995.4702	2690.0961	925.75	44.4
995.5929	2691.3348	924.7	44.5
995.7156	2692.5727	926.55	45.4
995.8383	2693.81	926.15	44.15
995.961	2695.0466	922.9	41.65
996.0836	2696.2826	925	41.45
996.2062	2697.5178	925.7	40.8
996.3287	2698.7524	924.8	42.25
996.4512	2699.9863	926.05	42.55
996.5737	2701.2195	927.05	47.8
996.6961	2702.452	929.55	46.1
996.8185	2703.6839	927.45	44.15
996.9408	2704.9151	926.6	47.15
997.0631	2706.1456	926.65	45.15
997.1854	2707.3755	924.1	42.2
997.3077	2708.6046	930.3	46.95
997.4299	2709.8331	925.15	43.35
997.552	2711.0609	925.85	44.2
997.6742	2712.2881	927.75	46.05
997.7963	2713.5145	938.3	43.8
997.9183	2714.7403	929	47.85
998.0403	2715.9654	931	48.5
998.1623	2717.1899	945.9	51
998.2842	2718.4136	932.15	48.75
998.4062	2719.6367	930.4	50
998.528	2720.8591	940.7	53.35
998.6498	2722.0809	936.3	53.6
998.7716	2723.3019	938.65	53.05
998.8934	2724.5223	935.8	54.2
999.0151	2725.7421	933.95	51.55
999.1368	2726.9611	935.65	53.7
999.2584	2728.1795	938.5	52.55
999.38	2729.3972	932.55	52.15
999.5016	2730.6142	936.45	46.85
999.6231	2731.8306	930.55	49.15
999.7446	2733.0462	932.6	51.1
999.8661	2734.2612	933.95	47.25
999.9875	2735.4756	929.25	45.25
1000.1089	2736.6892	925.75	45.35
1000.2302	2737.9022	924.7	45.7
1000.3515	2739.1145	926.4	45.1
1000.4728	2740.3262	930.25	40.15
1000.594	2741.5372	921.2	42.75
1000.7152	2742.7475	925	44.1
1000.8363	2743.9571	923.55	42.8
1000.9575	2745.1661	927.15	42.05
1001.0785	2746.3744	923.65	43.55
1001.1996	2747.582	922.15	41.35
1001.3206	2748.7889	921.15	37.5
1001.4415	2749.9952	917.95	37.7
1001.5625	2751.2008	917.9	36.15
1001.6833	2752.4057	922	39.45
1001.8042	2753.61	918.4	36.8
1001.925	2754.8136	922	38
1002.0458	2756.0165	919.7	40.25
1002.1665	2757.2188	916.7	37.8
1002.2872	2758.4204	918.6	38.4
1002.4078	2759.6213	920.75	38.6
1002.5285	2760.8215	925.5	39.25
1002.649	2762.0211	922.2	39.95
1002.7696	2763.22	919.4	37.8
1002.8901	2764.4182	918.65	34.95
1003.0106	2765.6158	916.7	37.15
1003.131	2766.8127	918.65	34.65
1003.2514	2768.009	916.3	35.75
1003.3717	2769.2045	919.65	39.65
1003.492	2770.3994	919.65	37.65
1003.6123	2771.5936	918.35	35.4
1003.7325	2772.7872	916.6	37.65
1003.8527	2773.9801	916.15	34.15
1003.9729	2775.1723	934.05	39.2
1004.093	2776.3639	917.85	38.4
1004.2131	2777.5548	914.9	34.05
1004.3331	2778.745	919.3	38.1
1004.4531	2779.9346	913.55	32.3
1004.5731	2781.1235	915.15	34.45
1004.693	2782.3117	916.4	35.9
1004.8129	2783.4992	912.65	33.05
1004.9328	2784.6861	915.5	34.6
1005.0526	2785.8723	918.6	38.15
1005.1723	2787.0579	915.4	33.8
1005.2921	2788.2428	915.05	31.4
1005.4118	2789.427	914.45	35.15
1005.5314	2790.6106	915.55	34.55
1005.651	2791.7935	914.6	33.45
1005.7706	2792.9757	914.15	36.2
1005.8902	2794.1573	919.2	35.15
1006.0097	2795.3382	916.5	37.8
1006.1291	2796.5184	913.35	35.6
1006.2485	2797.698	917.45	35.1
1006.3679	2798.8769	914.65	35.05
1006.4873	2800.0551	917.7	38.4
1006.6066	2801.2327	918.35	34.75
1006.7258	2802.4096	915.25	35.3
1006.8451	2803.5859	918.15	38.2
1006.9642	2804.7615	916.85	36.9
1007.0834	2805.9364	917.4	37.75
1007.2025	2807.1106	920.55	41
1007.3216	2808.2842	916.15	35.8
1007.4406	2809.4572	921.3	39.45
1007.5596	2810.6294	922.1	42.8
1007.6785	2811.801	923.35	45.2
1007.7975	2812.972	923.85	46.95
1007.9163	2814.1423	925.7	46.2
1008.0352	2815.3119	927.7	47.65
1008.154	2816.4808	930	51.2
1008.2727	2817.6491	933.4	51.35
1008.3914	2818.8167	937.35	57.9
1008.5101	2819.9837	943.45	61.35
1008.6288	2821.15	943.15	62.25
1008.7474	2822.3157	945.2	67.7
1008.8659	2823.4807	954.9	74.6
1008.9844	2824.645	956.7	75.1
1009.1029	2825.8086	964.7	87.65
1009.2214	2826.9716	974.4	94.45
1009.3398	2828.134	983.55	105.8
1009.4581	2829.2957	986.85	106.95
1009.5764	2830.4567	990.3	114.1
1009.6947	2831.617	991.2	111.2
1009.813	2832.7767	993.8	116.5
1009.9312	2833.9358	994.4	118.65
1010.0493	2835.0941	996.15	114.6
1010.1675	2836.2519	993.35	113.1
1010.2855	2837.4089	987.1	107.7
1010.4036	2838.5653	983.75	105.15
1010.5216	2839.7211	980.05	103.2
1010.6396	2840.8761	980.65	99.9
1010.7575	2842.0306	979.05	100.85
1010.8754	2843.1843	976.95	98.8
1010.9932	2844.3374	979.4	98.7
1011.111	2845.4899	981.25	99
1011.2288	2846.6417	982.6	102.9
1011.3465	2847.7928	982.9	103.25
1011.4642	2848.9433	983.8	104.35
1011.5818	2850.0931	987.95	109
1011.6995	2851.2422	988.45	108.1
1011.817	2852.3907	991.8	111.85
1011.9345	2853.5385	993.2	112.55
1012.052	2854.6857	1018.65	112.55
1012.1695	2855.8323	992.2	114.5
1012.2869	2856.9781	995.05	116.25
1012.4042	2858.1233	999.1	120.15
1012.5216	2859.2679	1001.3	121.9
1012.6389	2860.4118	1002.85	124.55
1012.7561	2861.555	1009.75	125.3
1012.8733	2862.6976	1011.4	132.8
1012.9905	2863.8395	1009.2	129.95
1013.1076	2864.9808	1010	131.65
1013.2247	2866.1214	1012.65	134
1013.3417	2867.2614	1014.95	134.6
1013.4587	2868.4007	1016.55	134.7
1013.5757	2869.5393	1015.4	134.85
1013.6926	2870.6773	1019.75	134.75
1013.8095	2871.8146	1023.55	141.1
1013.9263	2872.9513	1024.4	142.55
1014.0431	2874.0874	1020.9	141
1014.1599	2875.2227	1027.2	146.65
1014.2766	2876.3574	1026.55	147.25
1014.3933	2877.4915	1030.25	152.95
1014.51	2878.6249	1025.85	149.6
1014.6266	2879.7577	1031.4	152.65
1014.7431	2880.8898	1041.9	151.35
1014.8596	2882.0212	1033.4	156.8
1014.9761	2883.152	1038.25	157.55
1015.0925	2884.2821	1038.15	159.05
1015.2089	2885.4116	1037.5	159.3
1015.3253	2886.5405	1039	159.75
1015.4416	2887.6686	1040.45	159.25
1015.5579	2888.7962	1039.75	163.6
1015.6741	2889.923	1038	159.6
1015.7903	2891.0493	1038.9	161.35
1015.9065	2892.1748	1039.4	160.35
1016.0226	2893.2997	1041.65	162.75
1016.1387	2894.424	1038.55	160.15
1016.2547	2895.5476	1039.1	162.8
1016.3707	2896.6706	1038.2	159.65
1016.4866	2897.7929	1040.85	161.5
1016.6025	2898.9145	1042.95	163.25
1016.7184	2900.0355	1041.9	162.15
1016.8342	2901.1559	1044.25	166.5
1016.95	2902.2756	1044.5	159.3
1017.0658	2903.3946	1037.1	159.05
1017.1815	2904.513	1043.95	161.3
1017.2971	2905.6308	1037.05	159.65
1017.4127	2906.7479	1037.8	157.95
1017.5283	2907.8643	1041.75	160.15
1017.6439	2908.9801	1038.45	159.5
1017.7594	2910.0953	1040.6	161.9
1017.8748	2911.2098	1040.7	158.85
1017.9902	2912.3236	1049	164.7
1018.1056	2913.4368	1045.6	165
1018.2209	2914.5494	1038.1	161.05
1018.3362	2915.6613	1042.5	159.75
1018.4515	2916.7725	1037.45	155.2
1018.5667	2917.8831	1033.65	153.7
1018.6819	2918.9931	1032.65	150.55
1018.797	2920.1024	1029.45	149.9
1018.9121	2921.211	1023.25	144.45
1019.0271	2922.319	1026.85	147.15
1019.1421	2923.4264	1022.35	145.8
1019.2571	2924.5331	1024.95	147.65
1019.372	2925.6391	1020.5	142.15
1019.4869	2926.7445	1019.2	142.95
1019.6017	2927.8493	1020.9	141.6
1019.7165	2928.9534	1022.6	145.05
1019.8313	2930.0569	1025.5	142.7
1019.946	2931.1597	1026.75	146.15
1020.0606	2932.2619	1025.9	149.1
1020.1753	2933.3634	1026.05	148.65
1020.2899	2934.4643	1031.9	144.2
1020.4044	2935.5645	1036.35	151.65
1020.5189	2936.6641	1031.15	149.45
1020.6334	2937.763	1026.3	149.85
1020.7478	2938.8613	1032.25	151.35
1020.8622	2939.959	1029.85	147.7
1020.9765	2941.056	1022.15	144.1
1021.0908	2942.1523	1020.45	142.2
1021.2051	2943.248	1011.9	132.75
1021.3193	2944.3431	1004	128
1021.4334	2945.4375	1000.75	120.3
1021.5476	2946.5313	991.75	113.85
1021.6617	2947.6244	985.6	107.3
1021.7757	2948.7169	978.2	97.55
1021.8897	2949.8087	977.65	97.7
1022.0037	2950.8999	971.15	92.5
1022.1176	2951.9904	964.65	84.25
1022.2315	2953.0803	964	84.65
1022.3453	2954.1696	959.3	81.15
1022.4591	2955.2582	954.6	75.75
1022.5728	2956.3462	953.65	74.5
1022.6865	2957.4335	957	77.35
1022.8002	2958.5202	955	75.3
1022.9138	2959.6062	951.9	75
1023.0274	2960.6916	950.4	71.15
1023.141	2961.7764	952.5	74.75
1023.2545	2962.8605	952.15	73.4
1023.3679	2963.9439	950.45	73
1023.4813	2965.0267	952	72.6
1023.5947	2966.1089	970.85	70.95
1023.708	2967.1905	952.7	76.1
1023.8213	2968.2714	949.2	70.85
1023.9346	2969.3516	950.3	73.15
1024.0478	2970.4312	952.65	67.4
1024.1609	2971.5102	952.2	73.1
1024.274	2972.5885	948.95	71.95
1024.3871	2973.6662	954.05	71.55
1024.5002	2974.7432	947.5	70.6
1024.6132	2975.8196	946.5	67.05
1024.7261	2976.8954	949.9	70.35
1024.839	2977.9705	946.6	69.15
1024.9519	2979.045	948.25	70.85
1025.0647	2980.1188	947.85	71.25
1025.1775	2981.192	947	70.4
1025.2902	2982.2645	948.05	69
1025.4029	2983.3364	944.35	67.35
1025.5156	2984.4077	942.8	65.85
1025.6282	2985.4783	949.05	64.5
1025.7407	2986.5483	938.4	60.8
1025.8532	2987.6177	934.75	57.05
1025.9657	2988.6864	935.7	58.75
1026.0782	2989.7545	936.55	58.1
1026.1906	2990.8219	930.5	54.15
1026.3029	2991.8887	929.8	49.2
1026.4152	2992.9548	928.85	51.45
1026.5275	2994.0204	924.65	46.05
1026.6397	2995.0852	918.9	41.6
1026.7519	2996.1495	920.75	42.45
1026.864	2997.2131	919.6	44.3
1026.9761	2998.276	916.9	39.5
1027.0882	2999.3383	916.05	36.25
1027.2002	3000.4	913.5	36.4
1027.3122	3001.4611	911.85	33.25
1027.4241	3002.5215	910.25	32.55
1027.536	3003.5812	907.25	28.4
1027.6478	3004.6404	907.8	31.15
1027.7596	3005.6989	911.05	31
1027.8714	3006.7567	905.95	28.5
1027.9831	3007.8139	938.95	30.2
1028.0947	3008.8705	906.05	28.35
1028.2064	3009.9264	908.05	26.05
1028.3179	3010.9818	904.9	27.45
1028.4295	3012.0364	904.4	25.8
1028.541	3013.0905	902.05	24.65
1028.6524	3014.1439	902.7	27.3
1028.7638	3015.1966	901.45	24.85
1028.8752	3016.2487	902.5	25.15
1028.9865	3017.3002	909.25	25.05
1029.0978	3018.3511	902.2	26
1029.209	3019.4013	905.05	28
1029.3202	3020.4509	900.6	24.6
1029.4314	3021.4998	900.85	23
1029.5425	3022.5481	898.8	21.55
1029.6535	3023.5958	902	22.85
1029.7645	3024.6428	901.8	23.5
1029.8755	3025.6892	900.45	25.2
1029.9864	3026.735	901.75	24.75
1030.0973	3027.7802	902.2	26.15
1030.2082	3028.8247	898.9	23.3
1030.319	3029.8685	898.75	20.1
1030.4297	3030.9118	900.6	22.1
1030.5404	3031.9544	901.75	24.55
1030.6511	3032.9963	900.45	23.45
1030.7617	3034.0376	899.65	21.55
1030.8723	3035.0783	901	21.1
1030.9829	3036.1184	900.15	20.05
1031.0934	3037.1578	899.15	21.7
1031.2038	3038.1966	899.25	20.45
1031.3142	3039.2348	897.85	19.65
1031.4246	3040.2723	908.15	23.35
1031.5349	3041.3092	899.2	25.4
1031.6452	3042.3455	899.35	22.4
1031.7554	3043.3811	900.45	22.75
1031.8656	3044.4161	901.05	22.7
1031.9758	3045.4505	898.75	21.45
1032.0859	3046.4842	900.55	23
1032.1959	3047.5173	898.6	22.55
1032.3059	3048.5498	902.65	23.85
1032.4159	3049.5816	898.55	21.45
1032.5258	3050.6128	900.4	21.55
1032.6357	3051.6434	899.55	20
1032.7455	3052.6734	900.75	22
1032.8553	3053.7027	899.5	21.45
1032.9651	3054.7314	900.85	23.8
1033.0748	3055.7594	901.95	25.4
1033.1845	3056.7868	899.2	19.5
1033.2941	3057.8136	897.85	20.6
1033.4037	3058.8398	898.8	22.5
1033.5132	3059.8653	901.05	23
1033.6227	3060.8902	899.6	22.35
1033.7321	3061.9145	900.45	22.45
1033.8415	3062.9381	903.25	26.6
1033.9509	3063.9612	914.55	21.45
1034.0602	3064.9835	903.95	26.85
1034.1694	3066.0053	905.75	26.25
1034.2787	3067.0264	901.1	25.5
1034.3878	3068.0469	900.2	22.1
1034.497	3069.0668	905.7	25.1
1034.6061	3070.086	902.2	26.7
1034.7151	3071.1046	900.8	23.3
1034.8241	3072.1226	903.25	25.8
1034.9331	3073.1399	903.45	25.35
1035.042	3074.1567	898.15	20.4
1035.1508	3075.1727	902.05	22.15
1035.2597	3076.1882	896.8	20.55
1035.3684	3077.203	897.8	21.4
1035.4772	3078.2173	898.2	19.2
1035.5859	3079.2308	902.95	21.05
1035.6945	3080.2438	899.9	22.8
1035.8031	3081.2561	898.7	19.2
1035.9117	3082.2678	896.85	20.7
1036.0202	3083.2789	895.35	19.75
1036.1286	3084.2893	893.15	17.7
1036.2371	3085.2991	895.95	17.8
1036.3454	3086.3083	899.15	18.75
1036.4538	3087.3169	896.75	17.5
1036.562	3088.3248	895.5	17.9
1036.6703	3089.3321	896.5	18.3
1036.7785	3090.3388	892.65	14.15
1036.8866	3091.3449	892.9	16.1
1036.9948	3092.3503	897.3	18.55
1037.1028	3093.3551	894.2	17.2
1037.2108	3094.3593	894.25	17.25
1037.3188	3095.3629	890.95	13.95
1037.4267	3096.3658	893.2	15.05
1037.5346	3097.3681	890.95	12.9
1037.6425	3098.3698	893	14.45
1037.7503	3099.3708	893.55	17.35
1037.858	3100.3713	893.15	18.4
1037.9657	3101.3711	894.4	17.05
1038.0734	3102.3702	1031.65	19.3
1038.181	3103.3688	895.6	17.1
1038.2886	3104.3667	888.65	11.1
1038.3961	3105.364	890.5	13.6
1038.5036	3106.3607	893.3	15.15
1038.611	3107.3568	892.25	13.05
1038.7184	3108.3522	890.15	14.45
1038.8257	3109.347	893.4	15.4
1038.933	3110.3412	895.8	15.05
1039.0403	3111.3348	893.35	16.4
1039.1475	3112.3277	890.9	13.75
1039.2547	3113.32	889.7	13.75
1039.3618	3114.3117	889.85	13.55
1039.4689	3115.3028	889.3	12.8
1039.5759	3116.2932	891.5	13.85
1039.6829	3117.2831	896.8	14.95
1039.7898	3118.2723	890.35	14.15
1039.8967	3119.2608	889.6	12.15
1040.0035	3120.2488	889.45	12.25
1040.1103	3121.2361	891.2	13.2
1040.2171	3122.2229	889.85	14.35
1040.3238	3123.209	891.1	12.1
1040.4305	3124.1944	885.85	7.35
1040.5371	3125.1793	889.7	11.75
1040.6437	3126.1635	887.15	10.75
1040.7502	3127.1471	887.05	9.65
1040.8567	3128.1301	886.95	9.65
1040.9631	3129.1125	886.1	8.9
1041.0695	3130.0942	887.85	10.4
1041.1759	3131.0753	894.3	8.55
1041.2822	3132.0558	891.7	11.85
1041.3884	3133.0357	888.2	11.65
1041.4946	3134.015	886.9	11.75
1041.6008	3134.9936	889.95	9.8
1041.7069	3135.9716	909.35	11.05
1041.813	3136.949	888.4	12.85
1041.919	3137.9258	905.9	11.05
1042.025	3138.902	891.55	9.15
1042.1309	3139.8775	887.75	10.85
1042.2368	3140.8524	883.7	7.25
1042.3427	3141.8267	887.4	8
1042.4485	3142.8004	888.95	10.2
1042.5542	3143.7735	892	9.8
1042.6599	3144.7459	891.15	12.95
1042.7656	3145.7178	886.75	12.2
1042.8712	3146.689	885.65	10.05
1042.9768	3147.6596	889.3	10.4
1043.0823	3148.6295	885.9	8.7
1043.1878	3149.5989	885.5	6.45
1043.2932	3150.5676	883.55	7.85
1043.3986	3151.5357	885.65	9.35
1043.5039	3152.5032	885.35	7.5
1043.6092	3153.4701	885.2	9.2
1043.7145	3154.4364	888.5	9.75
1043.8197	3155.402	881.15	6.15
1043.9248	3156.367	887.2	8.45
1044.03	3157.3315	930.6	8.4
1044.135	3158.2952	885.15	9.15
1044.24	3159.2584	883.25	6.35
1044.345	3160.221	886.5	7.15
1044.4499	3161.1829	885.8	8.5
1044.5548	3162.1442	884.8	7.15
1044.6596	3163.105	884.15	8.4
1044.7644	3164.065	884.45	6.6
1044.8692	3165.0245	888.55	10.4
1044.9739	3165.9834	884.75	8.6
1045.0785	3166.9416	885.35	8.55
1045.1831	3167.8993	883.45	7
1045.2877	3168.8563	883.9	5
1045.3922	3169.8127	883.05	5.6
1045.4966	3170.7684	884.3	6.95
1045.6011	3171.7236	886.3	8.4
1045.7054	3172.6782	885.9	9.2
1045.8098	3173.6321	885.3	7.25
1045.914	3174.5854	889.6	7.9
1046.0183	3175.5381	884.7	8.75
1046.1224	3176.4902	883.85	5.3
1046.2266	3177.4417	884	7.05
1046.3307	3178.3926	883.9	8.45
1046.4347	3179.3428	880.85	5.15
1046.5387	3180.2924	884.65	10.15
1046.6427	3181.2415	882.7	5.65
1046.7466	3182.1899	883.6	5.55
1046.8504	3183.1377	883.95	8.7
1046.9542	3184.0848	888.35	7.5
1047.058	3185.0314	884.25	6.9
1047.1617	3185.9773	885.9	7.8
1047.2654	3186.9227	884.2	6.95
1047.369	3187.8674	882.65	5.55
1047.4726	3188.8115	888.4	5.4
1047.5761	3189.755	884.65	8.95
1047.6796	3190.6979	882.7	7.3
1047.783	3191.6402	882.8	6.25
1047.8864	3192.5818	882.95	6.6
1047.9898	3193.5229	891.05	9.95
1048.0931	3194.4633	881.85	5.65
1048.1963	3195.4031	884.4	6.4
1048.2995	3196.3423	881.5	6.25
1048.4027	3197.2809	882.95	7.3
1048.5058	3198.2189	883.9	7.55
1048.6089	3199.1563	887.75	3.35
1048.7119	3200.0931	881.4	5.15
1048.8148	3201.0292	880.3	2.9
1048.9178	3201.9648	883.3	7.5
1049.0206	3202.8997	889.2	8.65
1049.1235	3203.834	883.7	7.75
1049.2262	3204.7677	883.45	8.6
1049.329	3205.7008	885.55	9.8
1049.4317	3206.6333	881.45	8.45
1049.5343	3207.5652	886.45	6.65
1049.6369	3208.4964	882.8	5.3
1049.7394	3209.4271	881.35	5.75
1049.8419	3210.3571	882.5	5.75
1049.9444	3211.2865	881.95	6.3
1050.0468	3212.2154	882.45	7.05
1050.1491	3213.1436	886.15	7.5
1050.2514	3214.0712	888.05	5.45
1050.3537	3214.9982	881.6	6.4
1050.4559	3215.9246	884.25	6.55
1050.5581	3216.8503	882.6	6.65
1050.6602	3217.7755	884.1	7.8
1050.7623	3218.7001	882.45	7.2
1050.8643	3219.624	882.85	6.1
1050.9663	3220.5473	881.5	4
1051.0682	3221.4701	883.7	7.8
1051.1701	3222.3922	885.2	7.3
1051.2719	3223.3137	881.55	6.6
1051.3737	3224.2346	883.35	6.75
1051.4754	3225.1549	880.15	5.85
1051.5771	3226.0746	883	7.35
1051.6788	3226.9937	883.55	6
1051.7804	3227.9121	879.9	3.8
1051.8819	3228.83	882.55	5.35
1051.9834	3229.7473	883.9	8.35
1052.0849	3230.6639	881	3.8
1052.1863	3231.5799	882.05	7.45
1052.2876	3232.4954	880.75	2.5
1052.3889	3233.4102	882.85	6.1
1052.4902	3234.3244	883.3	6.8
1052.5914	3235.238	881.25	4.95
1052.6926	3236.151	906.85	6.15
1052.7937	3237.0634	879.85	6.25
1052.8948	3237.9752	880.75	4.7
1052.9958	3238.8864	881.45	6
1053.0968	3239.797	877.9	2.55
1053.1977	3240.7069	882.25	5.85
1053.2986	3241.6163	879.9	5.05
1053.3994	3242.5251	883.85	9.6
1053.5002	3243.4332	879.25	2.95
1053.6009	3244.3408	880.55	4.4
1053.7016	3245.2477	882.85	6.6
1053.8022	3246.154	883.75	6.75
1053.9028	3247.0598	880.6	2.55
1054.0034	3247.9649	880.25	3.9
1054.1039	3248.8694	882.9	6.4
1054.2043	3249.7733	880.85	4.75
1054.3047	3250.6766	883.1	6.2
1054.4051	3251.5793	881.2	5.2
1054.5054	3252.4814	881.65	7.7
1054.6056	3253.3829	880.25	4.25
1054.7058	3254.2838	878.6	2.3
1054.806	3255.1841	879.9	2.8
1054.9061	3256.0838	878.8	3.25
1055.0061	3256.9829	879.3	3.35
1055.1062	3257.8814	883.1	4.25
1055.2061	3258.7792	880.25	1.5
1055.306	3259.6765	881.6	3.5
1055.4059	3260.5731	879.6	3.7
1055.5057	3261.4692	880.45	3.45
1055.6055	3262.3647	880.7	3.5
1055.7052	3263.2595	878.8	2.8
1055.8049	3264.1538	879.3	3.1
1055.9045	3265.0474	879.75	3.5
1056.0041	3265.9404	879.2	2.15
1056.1036	3266.8329	878.7	3.5
1056.2031	3267.7247	891.65	4.1
1056.3025	3268.616	878.45	4.9
1056.4019	3269.5066	881.65	4.15
1056.5013	3270.3966	883.05	4.4
1056.6005	3271.286	877.65	0.7
