Software Version:	3.9.2.0
Unit SN:	10000200
Spectrometer SN:	6960
Date:	3/8/2024 11:31:45 AM
Data Line Index:	25
Spectral Points:	2048
Integration time (ms):	125
Averages:	20
Delay (ms):	30000
Sequence Number:	1
Processing:	dark subtract
Laser Power (mW):	300
Laser Current (mA):	822
Laser Diode Temp (C):	25
Laser Case Temp (C):	25.1
System Temp (C):	25
Spectrometer Temp (C):	22.9
CCD Temp (C):	0.009
Secondary Temp (C):	20.004
Heatsink Temp (C):	19.553
CCDPCB Temp (C):	34.073
SecondaryPCB Temp (C):	27.225

Wavelength	RamanShift	Raw Counts	Dark Subtracted
787.061	30.1047	414.6	4.95
787.2016	32.3739	413.15	7
787.3422	34.6426	418.45	10.5
787.4828	36.9109	416.75	7.5
787.6235	39.1787	421.15	8.7
787.7642	41.4461	427.55	10.9
787.9049	43.7131	430.5	8.1
788.0456	45.9796	434.8	12.25
788.1863	48.2456	437.1	8.8
788.3271	50.5112	442.05	10.25
788.4679	52.7764	446.8	11.2
788.6087	55.0411	453.75	13.5
788.7496	57.3054	458.15	13.85
788.8904	59.5692	459.15	12.8
789.0313	61.8326	465.05	15.55
789.1722	64.0955	469.65	16.65
789.3132	66.3579	475	16.65
789.4541	68.6199	482	20.4
789.5951	70.8815	492.65	28.05
789.7361	73.1426	512	44.9
789.8771	75.4032	547.8	77.35
790.0181	77.6634	630.15	153.55
790.1592	79.9231	815.3	335.7
790.3003	82.1824	1204.3	717.1
790.4414	84.4412	1832.65	1335.5
790.5825	86.6995	2630.85	2123.9
790.7237	88.9574	3391.6	2874.8
790.8648	91.2148	3909.4	3385.5
791.006	93.4717	4141.75	3610.95
791.1472	95.7282	4172.65	3640.4
791.2885	97.9842	4157.85	3623.15
791.4297	100.2398	4089.55	3552.8
791.571	102.4949	4023.8	3484.8
791.7123	104.7495	3997.05	3453
791.8536	107.0036	3937.8	3391.3
791.9949	109.2573	3855.2	3310.85
792.1363	111.5105	3766.45	3222.3
792.2777	113.7632	3665.65	3120
792.4191	116.0154	3559.85	3001.25
792.5605	118.2672	3433.7	2879.7
792.7019	120.5185	3337.8	2786.05
792.8434	122.7693	3220.15	2662.7
792.9849	125.0197	3128.8	2566.8
793.1264	127.2696	3050	2483.35
793.2679	129.519	2991	2420.6
793.4094	131.7679	2965.65	2395.75
793.551	134.0163	2941.85	2366.8
793.6926	136.2642	2936.75	2359.75
793.8342	138.5117	2937.45	2357.1
793.9758	140.7587	2897.3	2315.8
794.1175	143.0052	2859.6	2277.65
794.2591	145.2512	2797.5	2213.3
794.4008	147.4967	2743	2157.9
794.5425	149.7417	2696.8	2107.35
794.6842	151.9863	2662.1	2069.7
794.826	154.2304	2651.3	2054.05
794.9677	156.4739	2638.55	2037.65
795.1095	158.717	2652.55	2050.15
795.2513	160.9596	2685.05	2077.3
795.3931	163.2017	2714.3	2105.3
795.535	165.4433	2734.4	2125.55
795.6768	167.6844	2719.05	2103.6
795.8187	169.925	2695.95	2080.4
795.9606	172.1651	2635.5	2013.85
796.1025	174.4047	2584.45	1958.15
796.2445	176.6439	2539.6	1913.2
796.3864	178.8825	2513.35	1885.15
796.5284	181.1206	2486.6	1854.25
796.6704	183.3582	2488.8	1851.15
796.8124	185.5954	2472.7	1834.05
796.9544	187.832	2479.45	1834.85
797.0965	190.0681	2478.1	1832.9
797.2386	192.3037	2479.9	1829.6
797.3806	194.5388	2494.9	1842.55
797.5228	196.7734	2512.25	1860.15
797.6649	199.0075	2522.45	1870.15
797.807	201.2411	2551.25	1894.55
797.9492	203.4742	2566.5	1910.35
798.0914	205.7068	2596	1933.55
798.2336	207.9389	2618.5	1958.5
798.3758	210.1704	2637.5	1979.2
798.518	212.4015	2638.4	1990.25
798.6603	214.632	2630.4	1989.65
798.8025	216.862	2639.45	2001.35
798.9448	219.0915	2645.6	2004.35
799.0871	221.3205	2655.7	2012.4
799.2294	223.549	2672.25	2032
799.3718	225.777	2676.7	2038.35
799.5141	228.0044	2669.6	2023.05
799.6565	230.2314	2668.2	2021.2
799.7989	232.4578	2641.75	1989.4
799.9413	234.6837	2633.9	1970.2
800.0837	236.909	2621.75	1959.65
800.2262	239.1339	2631.8	1943.45
800.3687	241.3582	2618.25	1945.65
800.5111	243.582	2630.55	1925.4
800.6536	245.8053	2640.85	1952.8
800.7961	248.0281	2634.85	1947.85
800.9387	250.2503	2651.95	1964
801.0812	252.472	2640.2	1949.35
801.2238	254.6932	2659	1966.95
801.3664	256.9139	2663.75	1971.75
801.509	259.134	2682.35	1987.15
801.6516	261.3536	2705	2012.5
801.7942	263.5727	2764.5	2067.75
801.9369	265.7912	2801.1	2104.85
802.0795	268.0092	2860.1	2163.95
802.2222	270.2267	2928.05	2231.85
802.3649	272.4436	2981.65	2283.2
802.5076	274.6601	3032	2320.9
802.6504	276.8759	3047.35	2340.1
802.7931	279.0913	3065.9	2357.6
802.9359	281.3061	3082	2374.4
803.0787	283.5204	3117.75	2406.45
803.2215	285.7341	3144.2	2431.8
803.3643	287.9473	3163.35	2448.6
803.5071	290.16	3166.55	2448.85
803.6499	292.3721	3129.6	2420.15
803.7928	294.5837	3079.85	2368.15
803.9357	296.7947	3039.6	2328.7
804.0786	299.0052	3033.2	2318.4
804.2215	301.2152	3016.05	2298.95
804.3644	303.4246	2998.9	2286.65
804.5074	305.6334	2972.8	2258.3
804.6503	307.8418	2954.4	2235.8
804.7933	310.0495	2923.3	2204.2
804.9363	312.2568	2894.95	2174.35
805.0793	314.4635	2843.45	2120.95
805.2223	316.6696	2795.35	2069.95
805.3653	318.8752	2742.35	2009.45
805.5084	321.0802	2708.15	1982.45
805.6514	323.2847	2700.25	1972.4
805.7945	325.4887	2709.6	1982.9
805.9376	327.692	2728.45	1999.15
806.0807	329.8949	2773.4	2042.95
806.2238	332.0972	2831.35	2098.4
806.367	334.2989	2861.7	2126.05
806.5101	336.5001	2852	2117
806.6533	338.7007	2810.8	2074.05
806.7965	340.9008	2773.85	2038.5
806.9397	343.1003	2702.7	1963.45
807.0829	345.2992	2652.9	1911.7
807.2261	347.4976	2601	1860.8
807.3693	349.6955	2560.95	1813.1
807.5126	351.8927	2555.05	1806.7
807.6559	354.0895	2540.45	1780.8
807.7991	356.2856	2523.4	1772.35
807.9424	358.4812	2508.45	1760.05
808.0857	360.6763	2495.9	1744.3
808.2291	362.8707	2488.7	1736.3
808.3724	365.0646	2508.15	1749.65
808.5158	367.258	2521.65	1765.65
808.6591	369.4508	2539	1777.9
808.8025	371.643	2578.15	1817.35
808.9459	373.8346	2608.35	1845.7
809.0893	376.0257	2649.2	1882
809.2327	378.2162	2663.05	1898.35
809.3762	380.4062	2673.35	1908.75
809.5196	382.5956	2646.3	1882.4
809.6631	384.7844	2612.15	1851.45
809.8066	386.9726	2544.3	1787.8
809.9501	389.1603	2521.4	1767.7
810.0936	391.3474	2527.1	1737.7
810.2371	393.5339	2506.75	1746.45
810.3806	395.7199	2512.45	1753.9
810.5241	397.9052	2547.25	1788.15
810.6677	400.09	2590.85	1831.25
810.8113	402.2743	2644.25	1883.65
810.9548	404.4579	2691	1928.55
811.0984	406.641	2733.65	1968.4
811.2421	408.8235	2778.4	2011.8
811.3857	411.0054	2828.1	2061.25
811.5293	413.1868	2893.25	2123.05
811.673	415.3675	2945.15	2169.55
811.8166	417.5477	2955	2178.75
811.9603	419.7273	2874.05	2095.75
812.104	421.9064	2800.6	2014.65
812.2477	424.0848	2723.6	1946.85
812.3914	426.2627	2646.05	1866.05
812.5351	428.4399	2597.15	1820.4
812.6788	430.6166	2538.05	1755.45
812.8226	432.7928	2481.85	1696
812.9663	434.9683	2436.7	1650.9
813.1101	437.1432	2421.9	1633.95
813.2539	439.3176	2383.4	1597.7
813.3977	441.4914	2373.7	1588.85
813.5415	443.6645	2366.6	1579.3
813.6853	445.8371	2368.05	1579.9
813.8291	448.0091	2361.9	1574.85
813.973	450.1806	2368.8	1581.95
814.1168	452.3514	2367.4	1577.95
814.2607	454.5216	2366.7	1570.05
814.4046	456.6913	2352.9	1560.2
814.5485	458.8603	2369.2	1578.55
814.6924	461.0288	2375	1586.35
814.8363	463.1967	2360.1	1569.6
814.9802	465.3639	2374.8	1582.1
815.1241	467.5306	2353.1	1562.3
815.2681	469.6967	2350.05	1557.35
815.412	471.8622	2348.25	1557.8
815.556	474.0271	2345.6	1554.6
815.7	476.1914	2334.25	1538.85
815.844	478.3551	2327.85	1534.85
815.988	480.5182	2324.85	1528.9
816.132	482.6807	2331.8	1537.85
816.276	484.8426	2361.2	1568.15
816.4201	487.0039	2404.85	1610.05
816.5641	489.1647	2467.85	1669.9
816.7082	491.3248	2501.15	1704.6
816.8522	493.4843	2526.05	1730.7
816.9963	495.6432	2517.25	1721.3
817.1404	497.8015	2500.35	1696.4
817.2845	499.9592	2456.45	1653.8
817.4286	502.1163	2378.1	1575.45
817.5727	504.2728	2326.95	1523.35
817.7168	506.4287	2295.9	1493
817.861	508.5839	2279.5	1475.35
818.0051	510.7386	2285.2	1482.3
818.1493	512.8927	2290.05	1480.4
818.2935	515.0461	2293.65	1487.4
818.4377	517.199	2309.15	1505.25
818.5818	519.3512	2351.5	1545.15
818.726	521.5029	2442.4	1630.55
818.8703	523.6539	2504	1695.65
819.0145	525.8043	2498.45	1689.45
819.1587	527.9541	2462.35	1651
819.303	530.1033	2370.45	1560.55
819.4472	532.2519	2315.35	1505.7
819.5915	534.3999	2287.65	1473.6
819.7357	536.5472	2284.35	1473
819.88	538.694	2288.25	1478.8
820.0243	540.8401	2295.65	1484.05
820.1686	542.9856	2323.15	1507.45
820.3129	545.1305	2334.7	1515.4
820.4572	547.2748	2351.55	1533.35
820.6016	549.4185	2364.65	1544.8
820.7459	551.5615	2375.3	1560.5
820.8902	553.704	2391.55	1576.1
821.0346	555.8458	2412.85	1598.7
821.1789	557.987	2420.45	1606.3
821.3233	560.1276	2459.95	1642.05
821.4677	562.2675	2519.4	1701.3
821.6121	564.4069	2599.05	1782.05
821.7565	566.5456	2649.05	1831.9
821.9009	568.6837	2634.5	1817.05
822.0453	570.8212	2538	1720.7
822.1897	572.958	2451.2	1632.4
822.3342	575.0942	2378.2	1560.2
822.4786	577.2299	2342.7	1525.3
822.6231	579.3648	2307.75	1491.5
822.7675	581.4992	2290.35	1473.1
822.912	583.6329	2304.6	1488.8
823.0565	585.766	2333.05	1517.5
823.201	587.8985	2386.4	1569.05
823.3454	590.0304	2447.45	1615.25
823.4899	592.1616	2479.35	1652.25
823.6345	594.2922	2470.55	1648.85
823.779	596.4222	2431.45	1605.9
823.9235	598.5515	2356.9	1531.8
824.068	600.6802	2291.85	1465.95
824.2126	602.8083	2263.95	1438.2
824.3571	604.9358	2247.3	1420.55
824.5017	607.0626	2227.7	1400.9
824.6462	609.1888	2239.5	1410.8
824.7908	611.3144	2268.2	1438.65
824.9354	613.4393	2314.9	1487.15
825.08	615.5636	2386.2	1557.95
825.2246	617.6873	2435.75	1605.7
825.3692	619.8103	2466.2	1636.5
825.5138	621.9327	2468.25	1634
825.6584	624.0544	2430.4	1603.45
825.803	626.1756	2359.8	1530.55
825.9477	628.2961	2303.2	1470.8
826.0923	630.4159	2265.8	1435.2
826.237	632.5351	2273	1441.85
826.3816	634.6537	2270.3	1436.85
826.5263	636.7716	2240.7	1409.3
826.6709	638.8889	2242.5	1408
826.8156	641.0056	2248.4	1413.6
826.9603	643.1216	2250.35	1416.6
827.105	645.237	2255.2	1421.4
827.2497	647.3518	2245.9	1411.3
827.3944	649.4659	2207.75	1374.35
827.5391	651.5793	2194.45	1360.2
827.6838	653.6922	2178.65	1345.15
827.8285	655.8043	2163.9	1329.6
827.9733	657.9159	2150.15	1314.6
828.118	660.0268	2142.95	1305.6
828.2627	662.137	2131.65	1295.15
828.4075	664.2466	2123.8	1283.1
828.5522	666.3556	2135.3	1296.35
828.697	668.4639	2120.45	1279.5
828.8418	670.5716	2119.75	1281.2
828.9865	672.6786	2109.25	1270.7
829.1313	674.785	2106.05	1262.6
829.2761	676.8907	2107.35	1268
829.4209	678.9958	2113.4	1277.6
829.5657	681.1002	2093.15	1249.5
829.7105	683.204	2104.1	1258.2
829.8553	685.3072	2098.3	1253.4
830.0001	687.4097	2102.35	1259.75
830.1449	689.5115	2097.45	1253.65
830.2898	691.6127	2099.05	1256.95
830.4346	693.7132	2092.35	1252.4
830.5794	695.8131	2100	1243.85
830.7243	697.9123	2100.8	1254.45
830.8691	700.0109	2105.4	1260.35
831.014	702.1089	2101.8	1259.45
831.1588	704.2061	2126.2	1283.4
831.3037	706.3028	2156.4	1307.5
831.4486	708.3987	2185.6	1340.6
831.5935	710.4941	2184.9	1340
831.7383	712.5887	2205.9	1359.3
831.8832	714.6827	2203.5	1353.9
832.0281	716.7761	2190.85	1343.45
832.173	718.8688	2184.5	1339.5
832.3179	720.9608	2183.6	1331.3
832.4628	723.0522	2200.45	1349.2
832.6077	725.1429	2220.5	1370.9
832.7527	727.233	2266.5	1416.85
832.8976	729.3224	2336.15	1484.95
833.0425	731.4112	2399.15	1550.3
833.1874	733.4993	2414.45	1563.25
833.3324	735.5867	2349.6	1500.85
833.4773	737.6735	2272.55	1421.9
833.6222	739.7596	2192.6	1340
833.7672	741.845	2177.3	1323.35
833.9122	743.9298	2161.5	1308.2
834.0571	746.014	2163.05	1311.45
834.2021	748.0974	2175.7	1323.75
834.347	750.1802	2165.9	1313.95
834.492	752.2624	2170.15	1319.75
834.637	754.3439	2168.35	1313.3
834.782	756.4247	2159.5	1298.4
834.9269	758.5048	2156.45	1302.95
835.0719	760.5843	2168	1313.55
835.2169	762.6631	2218.9	1365.4
835.3619	764.7413	2267.3	1413.65
835.5069	766.8188	2369.15	1514.2
835.6519	768.8956	2466.15	1612.85
835.7969	770.9718	2534.95	1679.65
835.9419	773.0473	2523.65	1670.3
836.0869	775.1221	2483.35	1629.25
836.232	777.1962	2474.6	1619.55
836.377	779.2697	2522.8	1665.9
836.522	781.3426	2657.55	1783.55
836.667	783.4147	2713.6	1856.8
836.8121	785.4862	2701.7	1849.5
836.9571	787.557	2605.1	1750.2
837.1021	789.6271	2465.25	1609.05
837.2472	791.6966	2315.55	1459.3
837.3922	793.7654	2206.35	1347.3
837.5373	795.8335	2145.35	1287.2
837.6823	797.901	2115	1259.35
837.8274	799.9678	2098.1	1239
837.9724	802.0339	2096.15	1239.85
838.1175	804.0993	2107.45	1240.25
838.2626	806.1641	2096.45	1237.85
838.4076	808.2282	2079.05	1221.5
838.5527	810.2916	2058	1197.3
838.6978	812.3544	2040.8	1182.8
838.8428	814.4164	2024.6	1168.45
838.9879	816.4778	2041.55	1182.15
839.133	818.5385	2050.55	1189.3
839.2781	820.5986	2084.7	1225.4
839.4232	822.658	2147.8	1285.75
839.5682	824.7166	2212.7	1352.3
839.7133	826.7747	2316.1	1457.6
839.8584	828.832	2411.7	1552.25
840.0035	830.8886	2475.8	1614.5
840.1486	832.9446	2503.9	1641.25
840.2937	834.9999	2464.25	1604.35
840.4388	837.0545	2397.25	1531.9
840.5839	839.1085	2296.45	1435
840.729	841.1618	2210.5	1344.45
840.8741	843.2143	2150	1288.5
841.0192	845.2662	2108.9	1248.3
841.1643	847.3175	2090.65	1228.7
841.3095	849.368	2077.3	1214.7
841.4546	851.4179	2057.15	1192.8
841.5997	853.467	2062.55	1200.4
841.7448	855.5155	2065.05	1202.45
841.8899	857.5633	2083.9	1220.15
842.0351	859.6105	2071.9	1209.05
842.1802	861.6569	2057.8	1193.5
842.3253	863.7027	2036	1171.45
842.4704	865.7478	2021.65	1158.95
842.6156	867.7922	2024.3	1160.45
842.7607	869.8359	2017.85	1151.45
842.9058	871.8789	2001	1136.8
843.0509	873.9212	2033.8	1135.65
843.1961	875.9629	2020.4	1155.45
843.3412	878.0039	2030.85	1164.65
843.4863	880.0441	2038.45	1172.85
843.6315	882.0837	2064	1196.55
843.7766	884.1226	2090.4	1222.55
843.9218	886.1609	2129.05	1264.25
844.0669	888.1984	2177.2	1313.05
844.212	890.2352	2224.15	1359
844.3572	892.2714	2247.25	1377.35
844.5023	894.3069	2216.35	1349.5
844.6475	896.3416	2156.85	1288.9
844.7926	898.3757	2108.3	1242.8
844.9377	900.4091	2086.7	1219
845.0829	902.4418	2096.45	1224.65
845.228	904.4739	2105.6	1233.5
845.3732	906.5052	2120.8	1252.5
845.5183	908.5358	2128.5	1263.25
845.6635	910.5658	2094.7	1224.4
845.8086	912.595	2060.95	1192.75
845.9538	914.6236	2011.55	1141.95
846.0989	916.6515	1983.45	1114.85
846.2441	918.6786	1963.95	1092.4
846.3892	920.7051	1948.55	1076.85
846.5344	922.7309	1950.75	1081.8
846.6795	924.756	1940.1	1071.75
846.8246	926.7804	1960.5	1087.35
846.9698	928.8041	1971.1	1100.65
847.1149	930.8272	1987.1	1116.45
847.2601	932.8495	1996.25	1122.2
847.4052	934.8711	2014.75	1142.2
847.5504	936.892	2019.75	1149.4
847.6955	938.9123	2048.2	1176.45
847.8407	940.9318	2069	1198.3
847.9858	942.9506	2087.85	1217.55
848.131	944.9688	2082.25	1211.3
848.2761	946.9862	2057.9	1186.4
848.4213	949.003	2013.5	1143.1
848.5664	951.019	1976	1103.1
848.7115	953.0344	1949.35	1077.25
848.8567	955.0491	1942.3	1069.75
849.0018	957.063	1942.3	1072
849.147	959.0763	1936	1067.35
849.2921	961.0888	1939	1065.9
849.4373	963.1007	1929.55	1059.2
849.5824	965.1119	1937.5	1065.7
849.7275	967.1223	1917.4	1050.25
849.8727	969.1321	1910.6	1045.1
850.0178	971.1412	1913.85	1046.1
850.1629	973.1495	1903.95	1032.35
850.3081	975.1572	1929.55	1023.95
850.4532	977.1641	1903.65	1030.35
850.5983	979.1704	1905.85	1033.2
850.7435	981.1759	1902.25	1024.9
850.8886	983.1808	1890.2	1016.5
851.0337	985.1849	1899.45	1015.2
851.1788	987.1884	1881.45	1007.1
851.324	989.1911	1885.35	1011.6
851.4691	991.1932	1905.85	1032.5
851.6142	993.1945	1901.25	1030.25
851.7593	995.1951	1903.15	1031
851.9045	997.1951	1894.6	1015.15
852.0496	999.1943	1877.9	1005.55
852.1947	1001.1928	1884.7	1009.7
852.3398	1003.1906	1902	1028.9
852.4849	1005.1877	1935.05	1057.75
852.63	1007.1841	1955.05	1081.8
852.7751	1009.1798	1975.05	1102.35
852.9202	1011.1748	1957.7	1082.85
853.0653	1013.1691	1924.35	1049.5
853.2104	1015.1627	1894.7	1020.65
853.3555	1017.1556	1868.7	994.35
853.5006	1019.1477	1851.55	977.6
853.6457	1021.1392	1829.75	959.1
853.7908	1023.1299	1813	938.6
853.9359	1025.12	1815.05	942.75
854.081	1027.1093	1817.2	946.5
854.2261	1029.0979	1847.1	978.05
854.3712	1031.0859	1864.4	995.8
854.5163	1033.0731	1880.8	1009
854.6613	1035.0596	1887.3	1014.5
854.8064	1037.0454	1876.95	1002.15
854.9515	1039.0304	1855.75	981.4
855.0965	1041.0148	1830.45	955.65
855.2416	1042.9985	1808.15	932.4
855.3867	1044.9814	1799.2	925.8
855.5317	1046.9636	1797.45	920.8
855.6768	1048.9452	1801.7	928.85
855.8219	1050.926	1817.7	941.55
855.9669	1052.9061	1830.8	954.7
856.112	1054.8855	1845.4	968.05
856.257	1056.8642	1844.95	966.45
856.4021	1058.8421	1840.2	959.65
856.5471	1060.8194	1847.75	973
856.6921	1062.7959	1836.6	959.5
856.8372	1064.7717	1841.95	964.9
856.9822	1066.7469	1824.95	947.8
857.1272	1068.7213	1841	961.3
857.2723	1070.695	1854.2	978.1
857.4173	1072.6679	1879.1	1001.35
857.5623	1074.6402	1900.25	1021.8
857.7073	1076.6117	1920.3	1036.75
857.8523	1078.5826	1893.75	1016.9
857.9973	1080.5527	1849.4	968.45
858.1423	1082.5221	1801.65	922.7
858.2873	1084.4908	1783.4	907.45
858.4323	1086.4587	1768.55	890.35
858.5773	1088.426	1747.5	869.5
858.7223	1090.3925	1762.9	881.9
858.8673	1092.3584	1763.7	887.4
859.0123	1094.3235	1771.05	895.9
859.1573	1096.2879	1786.6	906.9
859.3022	1098.2515	1810.2	930.6
859.4472	1100.2145	1852.3	975.75
859.5922	1102.1767	1881.35	999.7
859.7371	1104.1382	1940.25	1061.75
859.8821	1106.099	1986.55	1108.85
860.027	1108.0591	2031.95	1153.55
860.172	1110.0185	2080.55	1202.9
860.3169	1111.9771	2122.95	1243.9
860.4619	1113.9351	2186.55	1311.55
860.6068	1115.8923	2241.65	1363.25
860.7517	1117.8488	2282.6	1402.5
860.8967	1119.8045	2228.15	1349.05
861.0416	1121.7596	2109.65	1230.1
861.1865	1123.7139	2010.05	1131.45
861.3314	1125.6675	1952.5	1075
861.4763	1127.6204	1935.2	1054.6
861.6212	1129.5726	1965.8	1085.9
861.7661	1131.524	1969.65	1092.45
861.911	1133.4748	1931.05	1054.45
862.0559	1135.4248	1859.15	981.15
862.2008	1137.3741	1799.65	920.9
862.3457	1139.3226	1774.85	894.15
862.4905	1141.2705	1771.5	892.5
862.6354	1143.2176	1778.85	893.75
862.7803	1145.164	1796.65	914
862.9251	1147.1097	1795.35	917.55
863.07	1149.0546	1768.1	889.6
863.2148	1150.9989	1739.7	860
863.3597	1152.9424	1722.25	842.45
863.5045	1154.8852	1710.25	829.7
863.6493	1156.8272	1690.4	810.3
863.7942	1158.7686	1703.7	819.2
863.939	1160.7092	1700	820.95
864.0838	1162.6491	1701.8	820.7
864.2286	1164.5883	1717.35	838.5
864.3734	1166.5267	1730.5	850.75
864.5182	1168.4644	1765.95	885.05
864.663	1170.4014	1797.1	915.35
864.8078	1172.3377	1833.1	953.8
864.9526	1174.2732	1893.3	1013.65
865.0974	1176.2081	1989.1	1109.9
865.2421	1178.1421	2120.95	1238.65
865.3869	1180.0755	2257.5	1377
865.5317	1182.0082	2329.15	1451.65
865.6764	1183.9401	2316.85	1435
865.8212	1185.8713	2200.15	1322.7
865.9659	1187.8017	2057.65	1179.35
866.1106	1189.7315	1933.75	1058.05
866.2554	1191.6605	1882.45	976.9
866.4001	1193.5888	1802.25	922.95
866.5448	1195.5163	1770.2	890.7
866.6895	1197.4432	1751.5	872.8
866.8342	1199.3693	1731.05	851.95
866.9789	1201.2947	1718	835.45
867.1236	1203.2193	1702.25	820.6
867.2683	1205.1432	1698.3	817.4
867.413	1207.0664	1695.7	815.45
867.5576	1208.9889	1693.8	809.9
867.7023	1210.9106	1704.65	824.65
867.847	1212.8316	1707.95	827.6
867.9916	1214.7519	1723.35	833.4
868.1363	1216.6715	1730.55	849.75
868.2809	1218.5903	1736.9	858
868.4255	1220.5084	1755.8	873.65
868.5701	1222.4257	1770.85	890.35
868.7148	1224.3424	1779.1	900.35
868.8594	1226.2583	1800.95	913.9
869.004	1228.1735	1835.1	953.15
869.1486	1230.0879	1878.4	997.25
869.2932	1232.0016	1919.6	1040.7
869.4377	1233.9146	1949.3	1065.15
869.5823	1235.8269	1970.4	1090.5
869.7269	1237.7384	1980.4	1100.4
869.8715	1239.6492	1977.6	1097.4
870.016	1241.5592	1999.9	1117.25
870.1606	1243.4686	2052.25	1170.85
870.3051	1245.3772	2135.3	1255.2
870.4496	1247.285	2223.75	1341.5
870.5941	1249.1922	2314.1	1432.6
870.7387	1251.0986	2396	1514.3
870.8832	1253.0042	2457.25	1576.5
871.0277	1254.9092	2566.6	1684.95
871.1722	1256.8134	2653.95	1771.3
871.3167	1258.7169	2733.55	1849.95
871.4611	1260.6196	2799.5	1920.65
871.6056	1262.5216	2821.25	1939.35
871.7501	1264.4229	2788.4	1907.65
871.8945	1266.3234	2754.85	1873.4
872.039	1268.2232	2723	1839.8
872.1834	1270.1223	2645.95	1761.15
872.3278	1272.0207	2598.6	1718.75
872.4723	1273.9183	2587.25	1697.8
872.6167	1275.8151	2583.5	1702.95
872.7611	1277.7113	2633.4	1750.4
872.9055	1279.6067	2706.35	1825.15
873.0499	1281.5014	2869.05	1986.65
873.1943	1283.3953	3068.45	2183.9
873.3386	1285.2885	3272.05	2390.75
873.483	1287.181	3432.95	2548.45
873.6274	1289.0727	3504.45	2624.4
873.7717	1290.9637	3442.45	2559.2
873.9161	1292.854	3335	2451.95
874.0604	1294.7435	3210.1	2326.45
874.2047	1296.6323	3071.15	2187.35
874.349	1298.5204	2961.45	2075.4
874.4933	1300.4077	2881.35	1998.7
874.6376	1302.2943	2821.3	1937.45
874.7819	1304.1802	2793.75	1911.8
874.9262	1306.0653	2756.55	1874.4
875.0705	1307.9497	2714.25	1832.5
875.2147	1309.8333	2681.45	1796.8
875.359	1311.7162	2643	1758.5
875.5032	1313.5984	2617.1	1731.6
875.6475	1315.4798	2601.6	1703.1
875.7917	1317.3605	2588.5	1701.4
875.9359	1319.2405	2571.85	1687.8
876.0801	1321.1197	2561.75	1677.8
876.2243	1322.9982	2502.5	1614.6
876.3685	1324.876	2437.55	1554.15
876.5127	1326.753	2337.8	1454.15
876.6569	1328.6293	2233.05	1348.9
876.801	1330.5048	2135.45	1248.9
876.9452	1332.3796	2056.5	1172.95
877.0893	1334.2537	2013	1104.9
877.2335	1336.127	1950.05	1067.75
877.3776	1337.9996	1915.5	1030.55
877.5217	1339.8714	1888.55	1004.35
877.6658	1341.7426	1908.5	983.95
877.8099	1343.6129	1857.6	976.35
877.954	1345.4826	1841.75	958.45
878.0981	1347.3515	1825.3	939.6
878.2422	1349.2196	1803.5	919.25
878.3862	1351.087	1795.55	913.35
878.5303	1352.9537	1798.55	914.2
878.6743	1354.8197	1796.85	913.9
878.8184	1356.6849	1809.75	926.25
878.9624	1358.5493	1826.1	945.7
879.1064	1360.4131	1858.95	975.3
879.2504	1362.276	1896.75	1013.75
879.3944	1364.1383	1930.7	1047.8
879.5384	1365.9998	1957.2	1067.4
879.6823	1367.8606	1935.3	1051.2
879.8263	1369.7206	1923.7	1039.2
879.9702	1371.5799	1928.5	1042.85
880.1142	1373.4384	1917.2	1032.5
880.2581	1375.2962	1887.75	1004.45
880.402	1377.1533	1831.1	949.15
880.5459	1379.0096	1765.35	881.55
880.6898	1380.8652	1735.8	851.45
880.8337	1382.7201	1705.7	824.8
880.9776	1384.5742	1679.8	796.05
881.1215	1386.4275	1658.95	775.15
881.2653	1388.2802	1636.45	753
881.4092	1390.132	1622.65	740.4
881.553	1391.9832	1612.3	725.85
881.6968	1393.8336	1604.65	721.05
881.8406	1395.6832	1604.85	721
881.9844	1397.5322	1589.75	704.45
882.1282	1399.3803	1591.5	702.4
882.272	1401.2278	1579.95	698.9
882.4158	1403.0745	1569.55	688.95
882.5595	1404.9204	1551.35	666.6
882.7033	1406.7656	1540.95	658.75
882.847	1408.6101	1544.4	660.8
882.9908	1410.4538	1540.3	657.4
883.1345	1412.2968	1539.95	655.7
883.2782	1414.139	1548.25	664
883.4219	1415.9805	1562.15	678.8
883.5656	1417.8213	1564.8	673.75
883.7092	1419.6613	1580.3	696.8
883.8529	1421.5006	1612	728.5
883.9965	1423.3391	1654	770.65
884.1402	1425.1769	1705.7	822.2
884.2838	1427.0139	1785.85	900.25
884.4274	1428.8502	1873.25	988.9
884.571	1430.6858	1956.6	1072
884.7146	1432.5206	1983.45	1098.8
884.8582	1434.3547	1972.95	1087.7
885.0018	1436.188	1956.55	1073.35
885.1453	1438.0206	1932.8	1048.2
885.2889	1439.8524	1925.1	1041.9
885.4324	1441.6835	1923.2	1036.25
885.5759	1443.5139	1927.35	1039.05
885.7194	1445.3435	1928.25	1044.65
885.8629	1447.1724	1941.35	1056.2
886.0064	1449.0005	1927.95	1045.2
886.1499	1450.8279	1932.9	1047.1
886.2933	1452.6545	1922	1038.2
886.4368	1454.4804	1915.45	1034
886.5802	1456.3056	1914.05	1024.85
886.7237	1458.13	1879.95	999.35
886.8671	1459.9536	1861.55	977.85
887.0105	1461.7766	1817.8	935.7
887.1539	1463.5987	1773.45	888.6
887.2972	1465.4202	1735.55	852.4
887.4406	1467.2409	1698.4	813.8
887.584	1469.0608	1658.45	775.75
887.7273	1470.88	1624.75	738.2
887.8706	1472.6984	1594.6	712.2
888.0139	1474.5161	1573.2	687.35
888.1572	1476.3331	1546.55	665.45
888.3005	1478.1493	1547.6	661.85
888.4438	1479.9648	1542.1	660.4
888.5871	1481.7795	1536.2	652.85
888.7303	1483.5935	1539.4	656.15
888.8736	1485.4067	1536.95	654.4
889.0168	1487.2192	1538.3	654.5
889.16	1489.031	1538.65	653.95
889.3032	1490.842	1537.25	653.2
889.4464	1492.6522	1537.9	655.6
889.5896	1494.4618	1531.25	644.95
889.7327	1496.2705	1525.2	642.85
889.8759	1498.0785	1528.7	646.4
890.019	1499.8858	1519.2	635.3
890.1622	1501.6924	1504.75	621.1
890.3053	1503.4981	1505.8	622.3
890.4484	1505.3032	1488.9	604.05
890.5914	1507.1075	1486.15	602.75
890.7345	1508.911	1480.15	597.2
890.8776	1510.7138	1478.55	593.75
891.0206	1512.5159	1470.85	588.45
891.1637	1514.3172	1460.3	575.5
891.3067	1516.1178	1458.25	576.7
891.4497	1517.9176	1455.65	567.05
891.5927	1519.7166	1441.2	555.05
891.7357	1521.515	1447.55	557.95
891.8786	1523.3126	1435.65	552.1
892.0216	1525.1094	1427.4	540.65
892.1645	1526.9055	1421.95	539.1
892.3074	1528.7008	1419.2	535.4
892.4503	1530.4954	1422.2	533.9
892.5932	1532.2893	1413.1	530.75
892.7361	1534.0824	1411.6	521.3
892.879	1535.8747	1404.35	523.9
893.0218	1537.6663	1403.75	520.5
893.1647	1539.4572	1403.7	518.7
893.3075	1541.2473	1406.9	522.5
893.4503	1543.0367	1406.1	523.6
893.5931	1544.8253	1413.25	524.1
893.7359	1546.6132	1417.95	532.4
893.8787	1548.4003	1423.7	532.25
894.0214	1550.1867	1432.95	541.55
894.1642	1551.9723	1438.15	551.3
894.3069	1553.7572	1446.85	560.75
894.4496	1555.5414	1467.15	582.65
894.5923	1557.3247	1496.05	612.35
894.735	1559.1074	1533.8	652.65
894.8777	1560.8893	1578.4	696.15
895.0204	1562.6705	1616.4	735.85
895.163	1564.4509	1648.6	766
895.3056	1566.2305	1659.9	779.5
895.4482	1568.0094	1665	784.85
895.5908	1569.7876	1655.9	772.85
895.7334	1571.565	1651.25	767.2
895.876	1573.3417	1648	764.15
896.0186	1575.1176	1661.55	778.15
896.1611	1576.8928	1668.8	787.65
896.3036	1578.6672	1695.15	813.45
896.4461	1580.4409	1717.6	838.45
896.5886	1582.2138	1754.65	871.25
896.7311	1583.986	1795.45	914.45
896.8736	1585.7575	1828.4	946
897.0161	1587.5282	1874.05	994.55
897.1585	1589.2981	1896.05	1014.7
897.3009	1591.0673	1925.55	1045.75
897.4433	1592.8358	1933	1053.1
897.5857	1594.6035	1917.7	1033.2
897.7281	1596.3704	1912.35	1030.2
897.8705	1598.1366	1891.55	1010.25
898.0128	1599.9021	1869.65	989.35
898.1551	1601.6668	1848.25	963.8
898.2975	1603.4308	1819.95	937.55
898.4398	1605.194	1835.45	949.1
898.5821	1606.9564	1846.7	967.15
898.7243	1608.7182	1917	1033.85
898.8666	1610.4791	1998.25	1118.7
899.0088	1612.2394	2110.6	1231.2
899.1511	1613.9988	2211	1330.6
899.2933	1615.7576	2294.8	1414.85
899.4355	1617.5156	2342.65	1455.55
899.5776	1619.2728	2297.65	1418.8
899.7198	1621.0293	2193.25	1311.55
899.862	1622.785	2086.1	1202.75
900.0041	1624.54	1958.25	1073.85
900.1462	1626.2942	1833.95	950.95
900.2883	1628.0477	1732.25	849.25
900.4304	1629.8005	1642.95	759.55
900.5725	1631.5525	1570.05	691.4
900.7145	1633.3037	1515.4	636.9
900.8566	1635.0542	1478.75	597.3
900.9986	1636.804	1440	560
901.1406	1638.553	1472.4	531.55
901.2826	1640.3013	1394.95	515.45
901.4245	1642.0488	1378.9	497.45
901.5665	1643.7955	1360	481.7
901.7085	1645.5416	1344.1	462.9
901.8504	1647.2868	1335.4	454.15
901.9923	1649.0313	1320.55	439.1
902.1342	1650.7751	1332.85	446.7
902.2761	1652.5181	1319.9	440.8
902.4179	1654.2604	1315.6	434.9
902.5598	1656.0019	1313.05	431.8
902.7016	1657.7427	1331.05	448.7
902.8434	1659.4828	1364.65	484.6
902.9852	1661.222	1387.9	505.2
903.127	1662.9606	1421.85	540.7
903.2687	1664.6984	1447.95	567.2
903.4105	1666.4354	1462.4	582.1
903.5522	1668.1717	1446.6	564
903.6939	1669.9072	1404.4	522.7
903.8356	1671.642	1358.35	476
903.9773	1673.3761	1307.95	428.25
904.119	1675.1094	1278.4	397.4
904.2606	1676.8419	1267.5	386.55
904.4022	1678.5737	1248.5	365.95
904.5439	1680.3048	1236.9	354.85
904.6855	1682.0351	1229.3	347.5
904.827	1683.7646	1220.05	337.2
904.9686	1685.4934	1210.3	330.3
905.1101	1687.2215	1210.55	327.6
905.2517	1688.9488	1204.65	322.95
905.3932	1690.6754	1209.2	327
905.5347	1692.4012	1201.7	320.3
905.6761	1694.1263	1197.15	317.25
905.8176	1695.8506	1192.1	310.4
905.9591	1697.5742	1188.65	307.25
906.1005	1699.297	1185.9	305.15
906.2419	1701.0191	1181.4	301
906.3833	1702.7404	1180.5	300.35
906.5246	1704.461	1179.15	296.65
906.666	1706.1808	1180.3	299.1
906.8073	1707.8999	1174.65	293.7
906.9487	1709.6182	1168.9	290.5
907.09	1711.3358	1169.8	291.2
907.2313	1713.0527	1165.8	285.95
907.3725	1714.7688	1172.6	285.85
907.5138	1716.4841	1166	282.95
907.655	1718.1987	1176.35	288.35
907.7962	1719.9126	1161.6	281.3
907.9374	1721.6257	1169.4	287.45
908.0786	1723.338	1158.8	276.8
908.2198	1725.0496	1157.4	275.35
908.3609	1726.7605	1162.4	281.35
908.502	1728.4706	1154.4	273.65
908.6431	1730.18	1159.6	276.15
908.7842	1731.8886	1153	271.4
908.9253	1733.5964	1172.1	271.1
909.0664	1735.3036	1158	274.55
909.2074	1737.0099	1149.75	269.25
909.3484	1738.7156	1149.8	271.55
909.4894	1740.4204	1145.8	263.25
909.6304	1742.1246	1156.55	275.1
909.7714	1743.8279	1148.05	265.95
909.9123	1745.5306	1146.5	265.5
910.0532	1747.2325	1149.6	270.85
910.1941	1748.9336	1144.05	262.85
910.335	1750.634	1143.15	262.35
910.4759	1752.3336	1148.4	267.3
910.6168	1754.0325	1136.9	258.75
910.7576	1755.7307	1146.6	268.4
910.8984	1757.4281	1144.95	264.25
911.0392	1759.1247	1149.85	261.2
911.18	1760.8206	1150.15	264.75
911.3208	1762.5158	1147.9	262.4
911.4615	1764.2102	1141.45	260.4
911.6022	1765.9039	1142.25	262.15
911.7429	1767.5968	1135.8	254.9
911.8836	1769.289	1136.55	254
912.0243	1770.9804	1132.9	252.8
912.1649	1772.6711	1138.95	257.7
912.3056	1774.361	1138.3	257.45
912.4462	1776.0502	1137.55	258.45
912.5868	1777.7386	1142.35	256.5
912.7274	1779.4263	1136.5	257.7
912.8679	1781.1132	1136	255.2
913.0084	1782.7994	1131.45	248.15
913.149	1784.4849	1131.5	251.65
913.2895	1786.1696	1153.6	255.95
913.4299	1787.8535	1131.55	253.7
913.5704	1789.5367	1130.9	251.5
913.7108	1791.2192	1124.3	244.35
913.8513	1792.9009	1152.2	246.6
913.9917	1794.5818	1120.4	238.15
914.132	1796.2621	1122.3	240
914.2724	1797.9415	1120.75	238.6
914.4128	1799.6202	1123.5	242.75
914.5531	1801.2982	1120.8	239.1
914.6934	1802.9755	1126.45	247.3
914.8337	1804.6519	1119.5	236.55
914.9739	1806.3277	1119.85	240.7
915.1142	1808.0027	1113.55	233.75
915.2544	1809.6769	1117.4	236.2
915.3946	1811.3504	1112.55	231.55
915.5348	1813.0231	1114.65	234.55
915.675	1814.6951	1114.2	234.1
915.8151	1816.3664	1117.1	232.7
915.9553	1818.0369	1114.95	234.1
916.0954	1819.7067	1113.6	234.05
916.2355	1821.3757	1118.3	234.95
916.3755	1823.044	1115.75	234.95
916.5156	1824.7115	1111.5	228.45
916.6556	1826.3783	1111.7	232
916.7956	1828.0443	1107.9	229.75
916.9356	1829.7096	1113	231.1
917.0756	1831.3741	1113	230.75
917.2155	1833.0379	1108.75	228.3
917.3555	1834.701	1112.15	230.55
917.4954	1836.3633	1111.75	232.05
917.6353	1838.0248	1112.1	231.45
917.7751	1839.6856	1108.25	229.75
917.915	1841.3457	1104.9	226.65
918.0548	1843.005	1102.95	223
918.1946	1844.6636	1102.5	223.75
918.3344	1846.3214	1105.8	225.5
918.4742	1847.9785	1104.55	226.3
918.6139	1849.6349	1109.45	226.1
918.7537	1851.2904	1110.95	220.2
918.8934	1852.9453	1101.45	222.2
919.0331	1854.5994	1107.05	222.75
919.1727	1856.2528	1107.8	223.1
919.3124	1857.9054	1101.45	220.45
919.452	1859.5572	1095.45	216.55
919.5916	1861.2083	1107.25	227.4
919.7312	1862.8587	1101.85	218.85
919.8708	1864.5084	1105.4	223.5
920.0103	1866.1572	1098.35	218
920.1498	1867.8054	1097.4	213.75
920.2893	1869.4528	1099.6	218.15
920.4288	1871.0994	1103	222.55
920.5683	1872.7453	1100.9	219.15
920.7077	1874.3905	1102.75	217.4
920.8471	1876.0349	1091.4	211.4
920.9865	1877.6786	1096.05	216.2
921.1259	1879.3215	1093.35	211.2
921.2653	1880.9637	1090.35	209.3
921.4046	1882.6051	1094	211.85
921.5439	1884.2458	1097	213.7
921.6832	1885.8858	1090.9	211.15
921.8225	1887.525	1092.9	214.4
921.9617	1889.1634	1088.9	207.05
922.101	1890.8011	1091.25	209.65
922.2402	1892.4381	1090.45	210.4
922.3794	1894.0743	1093	212.45
922.5185	1895.7098	1088.95	206.15
922.6577	1897.3446	1092	210.1
922.7968	1898.9786	1094.65	210.8
922.9359	1900.6118	1087.1	208
923.075	1902.2443	1086.75	204.75
923.214	1903.8761	1085.8	207.05
923.3531	1905.5071	1084.5	202.5
923.4921	1907.1374	1087.95	207.15
923.6311	1908.7669	1088.5	208.45
923.77	1910.3957	1081.35	200.15
923.909	1912.0237	1080.6	199.25
924.0479	1913.651	1079.9	197.65
924.1868	1915.2776	1078.85	201.3
924.3257	1916.9034	1076.15	196.2
924.4646	1918.5285	1078.95	199.35
924.6034	1920.1528	1078.95	198.45
924.7422	1921.7764	1076.25	195.9
924.881	1923.3992	1075.25	192.8
925.0198	1925.0213	1074.9	194.7
925.1586	1926.6427	1073.7	195.75
925.2973	1928.2633	1291.05	197.15
925.436	1929.8832	1079.5	196.3
925.5747	1931.5023	1074.9	195.2
925.7134	1933.1207	1075.35	195.95
925.852	1934.7383	1072.3	191
925.9906	1936.3552	1074.75	195.85
926.1292	1937.9714	1069.55	189.8
926.2678	1939.5868	1072.8	190.65
926.4064	1941.2015	1070.15	191
926.5449	1942.8154	1072.25	190.9
926.6834	1944.4286	1067.55	186.5
926.8219	1946.041	1092.3	188.25
926.9604	1947.6528	1074.1	187.9
927.0988	1949.2637	1070.5	191.65
927.2372	1950.8739	1066.6	184.7
927.3756	1952.4834	1064.25	182.65
927.514	1954.0921	1066.7	184.4
927.6523	1955.7001	1071.9	187.25
927.7907	1957.3074	1065.3	185.85
927.929	1958.9139	1062.75	182.7
928.0673	1960.5197	1064.8	184.7
928.2055	1962.1247	1062.15	184.25
928.3438	1963.729	1060.2	181.15
928.482	1965.3325	1068.85	185.6
928.6202	1966.9353	1060.05	181.45
928.7584	1968.5374	1059.35	178.85
928.8965	1970.1387	1055.4	177.35
929.0346	1971.7393	1064.3	183.35
929.1727	1973.3392	1057.15	179.05
929.3108	1974.9383	1057.4	178.35
929.4489	1976.5366	1054.3	175.7
929.5869	1978.1342	1059.45	181
929.7249	1979.7311	1058.15	179.35
929.8629	1981.3273	1059.5	181.05
930.0009	1982.9227	1056.15	176.55
930.1388	1984.5173	1055.75	177.55
930.2767	1986.1112	1054.4	175.35
930.4146	1987.7044	1056.3	178.95
930.5525	1989.2968	1055	172.35
930.6904	1990.8885	1054	173.2
930.8282	1992.4795	1049.55	170.8
930.966	1994.0697	1048.45	170.3
931.1038	1995.6592	1045.7	167.35
931.2415	1997.2479	1053.45	175.3
931.3793	1998.8359	1050.5	170.65
931.517	2000.4232	1048.3	171.5
931.6547	2002.0097	1048.15	171.7
931.7923	2003.5955	1046.2	168.75
931.93	2005.1805	1048.85	171.85
932.0676	2006.7648	1047.05	170.95
932.2052	2008.3484	1046.75	168.8
932.3427	2009.9312	1054.55	174.8
932.4803	2011.5133	1044.35	166.85
932.6178	2013.0946	1043.9	165.7
932.7553	2014.6752	1045.4	168.4
932.8928	2016.2551	1045.25	167.9
933.0302	2017.8342	1049.05	170.3
933.1676	2019.4126	1040	160.75
933.305	2020.9902	1040.95	165.55
933.4424	2022.5672	1044	165.1
933.5798	2024.1433	1044.85	162.1
933.7171	2025.7188	1041.45	165.3
933.8544	2027.2935	1043.7	165.8
933.9917	2028.8674	1044.05	166.55
934.129	2030.4406	1041.25	164.35
934.2662	2032.0131	1041	165.4
934.4034	2033.5849	1043.4	161.2
934.5406	2035.1559	1043	166.7
934.6778	2036.7261	1044.3	166.9
934.8149	2038.2957	1040.6	161.1
934.952	2039.8645	1041.75	164.75
935.0891	2041.4325	1046.8	163.9
935.2262	2042.9998	1043.6	167.25
935.3632	2044.5664	1038.75	159.2
935.5002	2046.1323	1040.65	162.75
935.6372	2047.6974	1036.9	160.6
935.7742	2049.2617	1037.7	162.05
935.9111	2050.8254	1049.1	168.2
936.048	2052.3883	1040.95	162.8
936.1849	2053.9504	1037.75	158.5
936.3218	2055.5118	1039.75	161.05
936.4586	2057.0725	1042.9	160.15
936.5955	2058.6325	1039.4	161.1
936.7323	2060.1917	1040.1	162.35
936.869	2061.7502	1041.2	161.05
937.0058	2063.3079	1036.45	158.95
937.1425	2064.8649	1040.05	160.35
937.2792	2066.4212	1038.15	160.65
937.4159	2067.9767	1037.05	161.8
937.5525	2069.5315	1041.2	164.75
937.6891	2071.0856	1038.25	159.85
937.8257	2072.6389	1035.2	155.7
937.9623	2074.1915	1037.55	161.65
938.0989	2075.7433	1039.05	161.1
938.2354	2077.2945	1032.3	156.55
938.3719	2078.8448	1033.6	156.55
938.5084	2080.3945	1033.35	157.4
938.6448	2081.9434	1035.15	158.6
938.7812	2083.4916	1041.3	162.55
938.9176	2085.039	1033.45	152.9
939.054	2086.5857	1031.35	151.2
939.1903	2088.1317	1034.2	155.4
939.3267	2089.677	1030.7	151.65
939.463	2091.2215	1032.7	153.6
939.5992	2092.7652	1035.6	154.05
939.7355	2094.3083	1032.05	151.8
939.8717	2095.8506	1031.25	153.45
940.0079	2097.3921	1033.5	153.6
940.1441	2098.933	1032.7	155.9
940.2802	2100.4731	1033	154.4
940.4163	2102.0124	1049.8	154.1
940.5524	2103.5511	1032.35	155.2
940.6885	2105.089	1033.5	155.15
940.8245	2106.6261	1030.05	152.6
940.9606	2108.1626	1035.45	155.05
941.0965	2109.6983	1059.1	152.25
941.2325	2111.2332	1034.1	154.95
941.3684	2112.7675	1031.45	150.35
941.5044	2114.301	1028.45	148.25
941.6403	2115.8337	1030.15	153.1
941.7761	2117.3657	1026.55	149.05
941.912	2118.897	1029.9	150.75
942.0478	2120.4276	1037.4	152.65
942.1835	2121.9575	1027.7	148.25
942.3193	2123.4866	1045.55	151.6
942.455	2125.0149	1035.5	156.5
942.5907	2126.5426	1031.4	152.05
942.7264	2128.0695	1033.7	154.05
942.8621	2129.5956	1024.2	150.45
942.9977	2131.1211	1033.55	152.25
943.1333	2132.6458	1022.5	146.6
943.2689	2134.1698	1028.85	149.5
943.4044	2135.693	1026.45	145.45
943.54	2137.2155	1031.5	152.25
943.6755	2138.7373	1028.8	150.5
943.8109	2140.2584	1029.9	152
943.9464	2141.7787	1031.6	149.7
944.0818	2143.2983	1027.1	152.2
944.2172	2144.8171	1024	146.8
944.3526	2146.3353	1027.8	148.75
944.4879	2147.8527	1024.1	146.85
944.6232	2149.3693	1027.55	148.6
944.7585	2150.8853	1023.05	144.3
944.8938	2152.4005	1027.15	148.4
945.029	2153.9149	1021.35	141.1
945.1642	2155.4287	1022.85	144.7
945.2994	2156.9417	1024.55	145.95
945.4346	2158.454	1026.3	144.2
945.5697	2159.9655	1022.25	144.65
945.7048	2161.4764	1025	146.8
945.8399	2162.9865	1025.05	148.1
945.9749	2164.4958	1022.25	144.8
946.1099	2166.0045	1024.7	143.65
946.2449	2167.5124	1021.9	143
946.3799	2169.0195	1023.35	144.1
946.5148	2170.526	1021.45	143.8
946.6498	2172.0317	1020.7	142.95
946.7846	2173.5367	1021.65	143.2
946.9195	2175.0409	1023.95	146.9
947.0543	2176.5445	1021.45	146.35
947.1891	2178.0473	1025.3	148.85
947.3239	2179.5494	1023.6	141.95
947.4587	2181.0507	1019.25	140.65
947.5934	2182.5513	1021.05	142
947.7281	2184.0512	1019.8	143.8
947.8628	2185.5504	1019.15	139.1
947.9974	2187.0488	1017.15	138.5
948.132	2188.5465	1020.6	141.8
948.2666	2190.0435	1016.3	139.95
948.4012	2191.5397	1018.15	138.75
948.5357	2193.0353	1018.85	142.15
948.6702	2194.5301	1019.35	141.15
948.8047	2196.0241	1018.2	138.55
948.9392	2197.5175	1015	137.15
949.0736	2199.0101	1022.7	140.15
949.208	2200.502	1018.35	140.4
949.3424	2201.9931	1014.8	138.4
949.4767	2203.4835	1019.15	139.95
949.611	2204.9733	1031.05	134.8
949.7453	2206.4622	1017.3	140.3
949.8796	2207.9505	1017.05	135.45
950.0138	2209.438	1009.25	133.95
950.148	2210.9248	1015.75	136.45
950.2822	2212.4109	1012.45	135.2
950.4164	2213.8962	1018.75	138.25
950.5505	2215.3809	1017	136.55
950.6846	2216.8648	1018.1	138.4
950.8186	2218.3479	1018.85	133.75
950.9527	2219.8304	1018.75	134.35
951.0867	2221.3121	1013.95	131.1
951.2207	2222.7931	1011.85	132.55
951.3546	2224.2733	1010.8	133.05
951.4886	2225.7529	1010.75	132.2
951.6225	2227.2317	1011.1	129.35
951.7563	2228.7098	1008.6	133.45
951.8902	2230.1872	1007.25	129.3
952.024	2231.6638	1009.1	133.45
952.1578	2233.1397	1010.6	127.85
952.2916	2234.6149	1003.65	126.05
952.4253	2236.0894	1005.35	126.75
952.559	2237.5632	1017.35	130.95
952.6927	2239.0362	1007.6	129.75
952.8263	2240.5085	1004.5	126.45
952.9599	2241.9801	1007.05	128
953.0935	2243.4509	1001.65	124.7
953.2271	2244.921	1009	129.05
953.3606	2246.3904	1006.7	125.2
953.4941	2247.8591	1003.2	126.1
953.6276	2249.3271	1000.95	123.1
953.7611	2250.7943	1002.25	122.75
953.8945	2252.2608	1005.35	127.6
954.0279	2253.7266	1001	123.55
954.1612	2255.1917	1003.85	125.95
954.2946	2256.656	1002.55	124.55
954.4279	2258.1197	997.3	118.9
954.5612	2259.5826	1002.65	123.7
954.6944	2261.0447	1003.5	124.1
954.8276	2262.5062	1001.65	120.9
954.9608	2263.9669	1006.3	126.5
955.094	2265.4269	998	121.2
955.2271	2266.8862	1003.15	126.5
955.3602	2268.3448	999.8	122.95
955.4933	2269.8026	998.75	122.1
955.6264	2271.2598	996	117.7
955.7594	2272.7162	997.6	121.35
955.8924	2274.1719	998.6	121
956.0253	2275.6268	997.7	121.05
956.1583	2277.0811	998.35	118.5
956.2912	2278.5346	994.8	117.8
956.4241	2279.9874	995.95	117.15
956.5569	2281.4395	996.8	120.15
956.6897	2282.8908	1001	115.3
956.8225	2284.3414	999.15	118.9
956.9553	2285.7914	998.5	120.2
957.088	2287.2406	998.65	117.1
957.2207	2288.689	992.8	112.7
957.3534	2290.1368	999.15	121
957.486	2291.5838	999.5	117.65
957.6186	2293.0302	1000.5	119.25
957.7512	2294.4758	994.8	116.95
957.8838	2295.9206	996.6	116.4
958.0163	2297.3648	993.2	115.4
958.1488	2298.8082	996.45	116.55
958.2813	2300.251	994.6	116.75
958.4137	2301.693	997.15	116.05
958.5461	2303.1343	999.4	120.7
958.6785	2304.5748	996.25	117.9
958.8108	2306.0147	991.85	112.85
958.9432	2307.4538	990.8	110.6
959.0754	2308.8922	986.25	110.55
959.2077	2310.3299	996.3	118.6
959.3399	2311.7669	991.2	113.75
959.4721	2313.2031	992.95	116.7
959.6043	2314.6387	996.4	117.6
959.7365	2316.0735	993.9	115.4
959.8686	2317.5076	996	117.25
960.0006	2318.941	993.95	112.6
960.1327	2320.3737	993.25	114.5
960.2647	2321.8056	995.7	114.05
960.3967	2323.2369	993.85	114
960.5287	2324.6674	996.2	115.1
960.6606	2326.0972	996.75	116.3
960.7925	2327.5263	1002.75	125.7
960.9244	2328.9547	1001.25	122.45
961.0562	2330.3823	999.55	119.85
961.1881	2331.8092	999.5	118.1
961.3198	2333.2355	989.35	110.35
961.4516	2334.661	986.7	108.15
961.5833	2336.0858	988.9	109.3
961.715	2337.5098	986.6	108.1
961.8467	2338.9332	988	107.75
961.9783	2340.3558	989.5	107.9
962.1099	2341.7778	984.1	105.6
962.2415	2343.199	989.15	108.45
962.373	2344.6195	984.7	106.4
962.5045	2346.0393	988.7	110.65
962.636	2347.4583	988.4	107.95
962.7675	2348.8767	988.55	109.8
962.8989	2350.2943	989.25	111.05
963.0303	2351.7113	986.7	106.3
963.1617	2353.1275	989.15	109.25
963.293	2354.543	1008.65	104.2
963.4243	2355.9578	982.05	102.95
963.5556	2357.3718	983	104.45
963.6868	2358.7852	986.15	104.6
963.818	2360.1978	984.65	104.85
963.9492	2361.6098	983.75	105.05
964.0803	2363.021	988.75	108.25
964.2114	2364.4315	984.15	107
964.3425	2365.8413	987.8	100.55
964.4736	2367.2504	984.15	106.8
964.6046	2368.6587	982.65	102
964.7356	2370.0664	981.3	103.8
964.8666	2371.4733	980.95	99.3
964.9975	2372.8795	981.9	104.15
965.1284	2374.285	983.05	102.95
965.2593	2375.6899	982.85	104.9
965.3901	2377.0939	984.5	104.25
965.5209	2378.4973	978.2	99.5
965.6517	2379.9	982.15	101.2
965.7825	2381.3019	980.2	102.05
965.9132	2382.7032	976.4	97.6
966.0439	2384.1037	978.95	102.65
966.1745	2385.5035	977.25	98.65
966.3051	2386.9027	979.4	101.2
966.4357	2388.3011	983.85	102.75
966.5663	2389.6987	982.75	104.25
966.6968	2391.0957	976.85	98.7
966.8273	2392.492	976	96.8
966.9578	2393.8876	977.6	97.75
967.0882	2395.2824	978.85	99.55
967.2186	2396.6765	976	97.2
967.349	2398.07	975.5	96.7
967.4793	2399.4627	978.05	95.85
967.6097	2400.8547	978.2	99.3
967.7399	2402.246	978.7	93.65
967.8702	2403.6366	978.75	99.65
968.0004	2405.0265	979.15	98.3
968.1306	2406.4156	980.35	96.85
968.2607	2407.8041	978.25	92.55
968.3909	2409.1918	976.55	95.85
968.521	2410.5789	973.3	93.95
968.651	2411.9652	976.25	94.3
968.781	2413.3508	974.7	94.9
968.911	2414.7358	972.4	93.15
969.041	2416.12	971	90.85
969.1709	2417.5035	969.6	90.3
969.3008	2418.8863	975.05	93.65
969.4307	2420.2684	972.3	91.9
969.5606	2421.6497	970.45	91.55
969.6904	2423.0304	969.55	90.15
969.8201	2424.4104	969.25	88.15
969.9499	2425.7896	976.15	90.45
970.0796	2427.1682	970.7	92.85
970.2093	2428.546	970.3	89.65
970.3389	2429.9232	973.95	92.8
970.4685	2431.2996	968.9	89.15
970.5981	2432.6753	966.65	87.05
970.7277	2434.0503	969.2	90.75
970.8572	2435.4246	969.15	90.6
970.9867	2436.7982	973.3	92.3
971.1161	2438.1711	969.25	92.55
971.2456	2439.5433	966.15	86.95
971.375	2440.9148	969.35	90.15
971.5043	2442.2856	967.7	88.65
971.6336	2443.6557	971.25	89.6
971.7629	2445.025	964.25	86.2
971.8922	2446.3937	967.45	88.85
972.0214	2447.7617	968.2	89.2
972.1506	2449.1289	968.3	86.25
972.2798	2450.4955	971.7	89.15
972.4089	2451.8613	968.3	91.75
972.538	2453.2265	969.35	90.95
972.6671	2454.5909	967.4	88.15
972.7961	2455.9546	964.25	85.85
972.9251	2457.3177	962.7	84.7
973.0541	2458.68	965.75	85.65
973.1831	2460.0416	966.55	86.2
973.312	2461.4025	969	89.95
973.4408	2462.7627	976.1	84.55
973.5697	2464.1222	961.95	86.35
973.6985	2465.4811	965.95	86.7
973.8273	2466.8392	962.65	84.25
973.956	2468.1966	965.55	84.4
974.0847	2469.5533	967.1	86.75
974.2134	2470.9093	965.6	85.4
974.3421	2472.2645	966.65	85.75
974.4707	2473.6191	961.55	81.75
974.5993	2474.973	962.35	83.05
974.7278	2476.3262	964.15	84.2
974.8563	2477.6787	962.2	82.7
974.9848	2479.0305	958.55	80.55
975.1132	2480.3816	964.1	84
975.2417	2481.7319	963.5	84.35
975.37	2483.0816	967.4	88.1
975.4984	2484.4306	963.95	83.3
975.6267	2485.7789	962.2	86
975.755	2487.1264	965.35	84.65
975.8833	2488.4733	960.55	82.3
976.0115	2489.8195	966.45	79.35
976.1397	2491.165	963.7	82.4
976.2678	2492.5097	964.5	84.85
976.3959	2493.8538	958.75	79.55
976.524	2495.1972	959.2	77.95
976.6521	2496.5398	963.15	83.45
976.7801	2497.8818	962.9	80.75
976.9081	2499.2231	957.5	78.45
977.036	2500.5637	962.45	79.55
977.164	2501.9035	958.85	79.5
977.2918	2503.2427	962.4	80.75
977.4197	2504.5812	956.65	78.05
977.5475	2505.919	959.05	78.1
977.6753	2507.256	957.3	76.85
977.8031	2508.5924	957.25	78.65
977.9308	2509.9281	964.7	79.45
978.0585	2511.2631	958.7	81.45
978.1861	2512.5974	956.1	76.95
978.3137	2513.9309	958.45	80.35
978.4413	2515.2638	983.05	78.95
978.5689	2516.596	957.55	79.65
978.6964	2517.9275	955.3	75.25
978.8239	2519.2583	957.6	77.75
978.9513	2520.5884	958.85	76.55
979.0788	2521.9178	954.8	74.45
979.2062	2523.2465	956.45	78.1
979.3335	2524.5745	953.35	72.8
979.4608	2525.9018	957.75	80.95
979.5881	2527.2284	952.4	74.4
979.7154	2528.5543	952.2	74.05
979.8426	2529.8796	953.75	74.65
979.9698	2531.2041	952.15	73.95
980.0969	2532.5279	953.05	74.95
980.224	2533.851	954.2	76.2
980.3511	2535.1735	953.65	73.6
980.4781	2536.4952	953.15	73.1
980.6052	2537.8163	955.05	75.1
980.7321	2539.1366	954.25	76.6
980.8591	2540.4562	952.6	73.3
980.986	2541.7752	950.95	72.6
981.1129	2543.0935	949.85	69.65
981.2397	2544.411	955	74.65
981.3665	2545.7279	952.55	74.55
981.4933	2547.0441	953.55	73.2
981.62	2548.3596	955.4	71.1
981.7467	2549.6744	949.7	72.05
981.8734	2550.9885	958.5	71.85
982.0001	2552.3019	951.85	72.65
982.1267	2553.6146	951.55	73.4
982.2532	2554.9266	954.05	74.6
982.3798	2556.2379	951.9	71.05
982.5063	2557.5485	948.7	71.35
982.6327	2558.8585	957.3	72.85
982.7592	2560.1677	953.05	71.55
982.8856	2561.4762	952.8	73.8
983.0119	2562.7841	955.9	74.4
983.1383	2564.0913	949.5	70.5
983.2646	2565.3977	946.6	67.4
983.3908	2566.7035	949.45	69.65
983.517	2568.0086	951.5	70.5
983.6432	2569.313	948.55	69.2
983.7694	2570.6167	950.4	67.25
983.8955	2571.9197	948.5	69.35
984.0216	2573.222	951.35	69.25
984.1476	2574.5236	950.45	71.05
984.2737	2575.8246	951.05	70.8
984.3996	2577.1248	952.6	71.7
984.5256	2578.4244	948	69.4
984.6515	2579.7232	950.4	70.95
984.7774	2581.0214	974.5	68.65
984.9032	2582.3189	950.55	73.65
985.029	2583.6157	951.25	69.1
985.1548	2584.9118	948.45	69.9
985.2806	2586.2072	948.35	70.95
985.4063	2587.5019	946.5	67.3
985.5319	2588.7959	949.8	71.5
985.6576	2590.0893	952.75	71.25
985.7832	2591.3819	948.25	69.1
985.9087	2592.6739	948.4	70.05
986.0343	2593.9652	951.55	70.8
986.1597	2595.2557	949.65	71.95
986.2852	2596.5456	953.6	73.8
986.4106	2597.8348	949.25	71.45
986.536	2599.1234	947.1	68.95
986.6614	2600.4112	948	69.45
986.7867	2601.6983	955	73.8
986.912	2602.9848	945.8	66.25
987.0372	2604.2705	954.5	68.05
987.1624	2605.5556	947.4	68.1
987.2876	2606.84	947.5	68.5
987.4128	2608.1237	952.1	72.45
987.5379	2609.4067	946.05	67.75
987.6629	2610.689	958.4	69.45
987.788	2611.9707	950.9	69.7
987.913	2613.2516	949.9	66.05
988.0379	2614.5319	946.6	68
988.1629	2615.8115	943.6	63.95
988.2878	2617.0903	946	65.5
988.4126	2618.3685	944.4	65.7
988.5375	2619.6461	945.1	67.1
988.6622	2620.9229	943.5	66.3
988.787	2622.199	945.65	66.3
988.9117	2623.4745	944.7	65.4
989.0364	2624.7493	944.25	65.9
989.161	2626.0234	940.9	63.3
989.2857	2627.2968	942.55	62.5
989.4102	2628.5695	944.55	65.35
989.5348	2629.8415	944.35	64.6
989.6593	2631.1128	947.7	67.45
989.7837	2632.3835	942.75	64.25
989.9082	2633.6535	941.6	61.75
990.0326	2634.9228	942.05	63.55
990.1569	2636.1914	939.7	61.15
990.2812	2637.4593	947.2	69.1
990.4055	2638.7265	944.75	64
990.5298	2639.9931	943.55	66.45
990.654	2641.259	942.1	61.3
990.7782	2642.5242	938.9	60.2
990.9023	2643.7887	941.9	62.8
991.0264	2645.0525	938.2	59.55
991.1505	2646.3156	938.8	58.95
991.2745	2647.5781	938.65	61.5
991.3985	2648.8398	939.35	61.55
991.5225	2650.1009	977.45	61
991.6464	2651.3613	939.95	61.3
991.7703	2652.6211	939.65	60.6
991.8942	2653.8801	934.75	56.45
992.018	2655.1385	941.05	58.5
992.1418	2656.3961	939.05	62.8
992.2655	2657.6531	937.75	60.35
992.3892	2658.9094	937.2	60.1
992.5129	2660.1651	936.95	59.9
992.6366	2661.42	937.85	59.05
992.7602	2662.6743	937.55	59.3
992.8837	2663.9279	939.45	61.75
993.0073	2665.1808	935.95	57.35
993.1307	2666.433	937.1	57.1
993.2542	2667.6846	937.95	58.35
993.3776	2668.9354	941.95	60.85
993.501	2670.1856	939.5	61.55
993.6244	2671.4351	940.45	63
993.7477	2672.6839	940.2	59.35
993.8709	2673.9321	942.9	63.55
993.9942	2675.1795	939.85	60.75
994.1174	2676.4263	938.45	60.4
994.2405	2677.6724	938	57.75
994.3637	2678.9179	939.55	61.4
994.4868	2680.1626	937.9	59.85
994.6098	2681.4067	938.2	59.15
994.7328	2682.6501	938.8	60.1
994.8558	2683.8928	939.45	59.05
994.9788	2685.1348	937.9	60.4
995.1017	2686.3761	935.8	56.7
995.2245	2687.6168	937.35	60.7
995.3474	2688.8568	932.65	55
995.4702	2690.0961	933.3	58.2
995.5929	2691.3348	936.85	59.25
995.7156	2692.5727	935.5	57.95
995.8383	2693.81	934.2	56.5
995.961	2695.0466	933.1	56.65
996.0836	2696.2826	935	54.05
996.2062	2697.5178	936.2	55.95
996.3287	2698.7524	932.35	53.2
996.4512	2699.9863	936.85	56.25
996.5737	2701.2195	932.55	55.4
996.6961	2702.452	935.6	54.65
996.8185	2703.6839	937.35	58.6
996.9408	2704.9151	938.65	60.4
997.0631	2706.1456	936.2	56.65
997.1854	2707.3755	937.15	59.3
997.3077	2708.6046	940.15	58.6
997.4299	2709.8331	934	55.75
997.552	2711.0609	939.15	60.45
997.6742	2712.2881	938.2	58.55
997.7963	2713.5145	939.45	59.5
997.9183	2714.7403	935.45	57.25
998.0403	2715.9654	938.4	60.7
998.1623	2717.1899	951.85	60.75
998.2842	2718.4136	940.6	62.6
998.4062	2719.6367	939.7	59.7
998.528	2720.8591	948.7	62
998.6498	2722.0809	944.6	65.4
998.7716	2723.3019	948.5	67.85
998.8934	2724.5223	946.05	65.9
999.0151	2725.7421	948.5	70.35
999.1368	2726.9611	944.6	63
999.2584	2728.1795	949.9	65.7
999.38	2729.3972	944.2	67.3
999.5016	2730.6142	945.5	58.75
999.6231	2731.8306	938.2	59.3
999.7446	2733.0462	941	62.8
999.8661	2734.2612	943.2	61.5
999.9875	2735.4756	936.7	57.85
1000.1089	2736.6892	937.35	57.85
1000.2302	2737.9022	936.4	58.7
1000.3515	2739.1145	935	55.6
1000.4728	2740.3262	942.75	57.15
1000.594	2741.5372	931.5	55.2
1000.7152	2742.7475	932.45	52.05
1000.8363	2743.9571	932.4	54.2
1000.9575	2745.1661	937	54.75
1001.0785	2746.3744	930.5	51
1001.1996	2747.582	929.55	51.35
1001.3206	2748.7889	930.7	48.5
1001.4415	2749.9952	928.75	49.5
1001.5625	2751.2008	927.35	48.4
1001.6833	2752.4057	927.95	48.25
1001.8042	2753.61	924.3	46.2
1001.925	2754.8136	927.5	46.8
1002.0458	2756.0165	927.5	51.8
1002.1665	2757.2188	926.8	50.9
1002.2872	2758.4204	926.4	48.7
1002.4078	2759.6213	928	48.7
1002.5285	2760.8215	931.1	47.25
1002.649	2762.0211	928.9	49.9
1002.7696	2763.22	931	48.05
1002.8901	2764.4182	927.4	48.25
1003.0106	2765.6158	923.7	45.25
1003.131	2766.8127	923.45	46.05
1003.2514	2768.009	924.05	48
1003.3717	2769.2045	924.95	46
1003.492	2770.3994	927.75	44.1
1003.6123	2771.5936	925.55	47.1
1003.7325	2772.7872	923	46.75
1003.8527	2773.9801	922.8	42.95
1003.9729	2775.1723	938.9	42.15
1004.093	2776.3639	920.65	43.65
1004.2131	2777.5548	923.65	44.7
1004.3331	2778.745	923.65	44.2
1004.4531	2779.9346	921.05	42.3
1004.5731	2781.1235	921	44.7
1004.693	2782.3117	921.7	44.85
1004.8129	2783.4992	920.7	43.7
1004.9328	2784.6861	921.1	40.9
1005.0526	2785.8723	922.4	42.95
1005.1723	2787.0579	921.75	44.3
1005.2921	2788.2428	921.55	41.8
1005.4118	2789.427	921.25	43.4
1005.5314	2790.6106	923.55	45.55
1005.651	2791.7935	922.2	42.3
1005.7706	2792.9757	923	46.75
1005.8902	2794.1573	927.4	46.45
1006.0097	2795.3382	923.05	45.95
1006.1291	2796.5184	921.45	44.8
1006.2485	2797.698	923.2	44.3
1006.3679	2798.8769	922.55	47.7
1006.4873	2800.0551	925.45	48.9
1006.6066	2801.2327	926.35	45.7
1006.7258	2802.4096	921.9	45.3
1006.8451	2803.5859	927.45	49.85
1006.9642	2804.7615	925.35	45.05
1007.0834	2805.9364	925.05	46.55
1007.2025	2807.1106	927.65	51.55
1007.3216	2808.2842	926.9	49.1
1007.4406	2809.4572	931.8	54.75
1007.5596	2810.6294	930.45	52.95
1007.6785	2811.801	929.2	49.85
1007.7975	2812.972	934.4	57.4
1007.9163	2814.1423	934.4	57.1
1008.0352	2815.3119	937.55	58.8
1008.154	2816.4808	939.7	64.2
1008.2727	2817.6491	942.9	64.25
1008.3914	2818.8167	947.15	71.4
1008.5101	2819.9837	955.35	74.3
1008.6288	2821.15	955.85	77.3
1008.7474	2822.3157	957.9	82
1008.8659	2823.4807	971.7	92.9
1008.9844	2824.645	979.2	100.45
1009.1029	2825.8086	984.55	109.8
1009.2214	2826.9716	990.9	115.65
1009.3398	2828.134	999.35	123.05
1009.4581	2829.2957	1008.25	131.25
1009.5764	2830.4567	1017.35	143.5
1009.6947	2831.617	1021.8	143
1009.813	2832.7767	1020.05	141.95
1009.9312	2833.9358	1023.35	147
1010.0493	2835.0941	1019.5	140.8
1010.1675	2836.2519	1013.85	137.95
1010.2855	2837.4089	1014.65	136.55
1010.4036	2838.5653	1006.25	130.05
1010.5216	2839.7211	1003.2	126.8
1010.6396	2840.8761	1001.75	125.2
1010.7575	2842.0306	1000.65	125.55
1010.8754	2843.1843	996.6	119.6
1010.9932	2844.3374	1002.75	125.2
1011.111	2845.4899	1005.85	127.4
1011.2288	2846.6417	1007.15	130.4
1011.3465	2847.7928	1004	126.8
1011.4642	2848.9433	1005.6	128.75
1011.5818	2850.0931	1008.8	133.7
1011.6995	2851.2422	1014.65	136.5
1011.817	2852.3907	1012.85	133.25
1011.9345	2853.5385	1016.85	136.7
1012.052	2854.6857	1042.3	136.55
1012.1695	2855.8323	1018.1	141.55
1012.2869	2856.9781	1018.85	141.25
1012.4042	2858.1233	1019.8	142.1
1012.5216	2859.2679	1028.35	149.95
1012.6389	2860.4118	1033.75	158.7
1012.7561	2861.555	1038.6	155.5
1012.8733	2862.6976	1036.05	158.85
1012.9905	2863.8395	1038.35	162.2
1013.1076	2864.9808	1037.8	159.2
1013.2247	2866.1214	1044.2	167.95
1013.3417	2867.2614	1044.5	167.4
1013.4587	2868.4007	1048.35	168.25
1013.5757	2869.5393	1048.15	170.2
1013.6926	2870.6773	1050.05	171.45
1013.8095	2871.8146	1055.3	175.9
1013.9263	2872.9513	1051.65	172.6
1014.0431	2874.0874	1054.75	177.05
1014.1599	2875.2227	1059.45	182.9
1014.2766	2876.3574	1062.95	185.5
1014.3933	2877.4915	1061.9	186.3
1014.51	2878.6249	1063.2	185.5
1014.6266	2879.7577	1068.35	190.1
1014.7431	2880.8898	1080.65	194.15
1014.8596	2882.0212	1070.8	192.6
1014.9761	2883.152	1074.8	197.75
1015.0925	2884.2821	1074.6	197.55
1015.2089	2885.4116	1078.3	202.05
1015.3253	2886.5405	1082.45	203.1
1015.4416	2887.6686	1083.1	203.05
1015.5579	2888.7962	1079.6	204.65
1015.6741	2889.923	1080.6	205.5
1015.7903	2891.0493	1078.95	201.85
1015.9065	2892.1748	1083.15	205.65
1016.0226	2893.2997	1089.45	211.5
1016.1387	2894.424	1078.35	202.25
1016.2547	2895.5476	1076.6	198.8
1016.3707	2896.6706	1074.9	199.2
1016.4866	2897.7929	1077.55	200.45
1016.6025	2898.9145	1083.5	207.25
1016.7184	2900.0355	1077.85	200.1
1016.8342	2901.1559	1084.15	207.05
1016.95	2902.2756	1087.65	204.6
1017.0658	2903.3946	1078.7	205.4
1017.1815	2904.513	1082.4	202.4
1017.2971	2905.6308	1072.5	195.25
1017.4127	2906.7479	1076.4	198.8
1017.5283	2907.8643	1080.45	202.75
1017.6439	2908.9801	1080.05	203.8
1017.7594	2910.0953	1076.55	197.3
1017.8748	2911.2098	1080.8	199.6
1017.9902	2912.3236	1084.95	202.8
1018.1056	2913.4368	1077.6	199.05
1018.2209	2914.5494	1075.25	198.4
1018.3362	2915.6613	1076.75	193.95
1018.4515	2916.7725	1069.15	188.8
1018.5667	2917.8831	1066.65	189.65
1018.6819	2918.9931	1066.8	185.65
1018.797	2920.1024	1068.05	191.05
1018.9121	2921.211	1059.05	182.9
1019.0271	2922.319	1058.95	182
1019.1421	2923.4264	1054.6	178.6
1019.2571	2924.5331	1049.35	170.65
1019.372	2925.6391	1049.05	173.5
1019.4869	2926.7445	1052.2	175.3
1019.6017	2927.8493	1055	175.95
1019.7165	2928.9534	1056.85	180
1019.8313	2930.0569	1055.95	173.75
1019.946	2931.1597	1059.1	181.9
1020.0606	2932.2619	1057.4	179.85
1020.1753	2933.3634	1059.3	182.65
1020.2899	2934.4643	1070.7	188.5
1020.4044	2935.5645	1070.4	186.95
1020.5189	2936.6641	1070.9	191.15
1020.6334	2937.763	1067.6	191.35
1020.7478	2938.8613	1068.9	190.1
1020.8622	2939.959	1070.85	188.75
1020.9765	2941.056	1061	184.35
1021.0908	2942.1523	1054.65	179.1
1021.2051	2943.248	1045.35	167.5
1021.3193	2944.3431	1033.6	156.75
1021.4334	2945.4375	1024.85	148.4
1021.5476	2946.5313	1017	138.9
1021.6617	2947.6244	1014.4	137.25
1021.7757	2948.7169	1007.55	130.4
1021.8897	2949.8087	998.7	119.45
1022.0037	2950.8999	992	116.25
1022.1176	2951.9904	985.6	109.8
1022.2315	2953.0803	981.65	101.45
1022.3453	2954.1696	973.35	97.6
1022.4591	2955.2582	975.5	99.15
1022.5728	2956.3462	973.1	96
1022.6865	2957.4335	973.1	96.05
1022.8002	2958.5202	973.45	93
1022.9138	2959.6062	967.35	91.5
1023.0274	2960.6916	967.2	89.6
1023.141	2961.7764	968.95	91.75
1023.2545	2962.8605	970.35	90.4
1023.3679	2963.9439	969.65	93.85
1023.4813	2965.0267	970.05	90.3
1023.5947	2966.1089	988.85	88.95
1023.708	2967.1905	968.1	91.95
1023.8213	2968.2714	965.7	89.05
1023.9346	2969.3516	965	87.55
1024.0478	2970.4312	970.8	87.35
1024.1609	2971.5102	964.15	86.3
1024.274	2972.5885	964.2	88.15
1024.3871	2973.6662	970.85	87.8
1024.5002	2974.7432	963.05	86.7
1024.6132	2975.8196	968.9	91.35
1024.7261	2976.8954	964.95	88.2
1024.839	2977.9705	963.6	87.45
1024.9519	2979.045	963.25	85.25
1025.0647	2980.1188	962.7	85.7
1025.1775	2981.192	962.8	88.1
1025.2902	2982.2645	964.1	85.9
1025.4029	2983.3364	961.8	84.55
1025.5156	2984.4077	958.7	81.1
1025.6282	2985.4783	962.05	78.45
1025.7407	2986.5483	954.95	81.1
1025.8532	2987.6177	949.35	70.65
1025.9657	2988.6864	950.75	74.3
1026.0782	2989.7545	949.55	69.75
1026.1906	2990.8219	944.95	69.3
1026.3029	2991.8887	942.95	66
1026.4152	2992.9548	940.4	61.4
1026.5275	2994.0204	936.6	61.35
1026.6397	2995.0852	932.15	57.75
1026.7519	2996.1495	931.35	55.85
1026.864	2997.2131	928.6	54.75
1026.9761	2998.276	925.5	47.4
1027.0882	2999.3383	925.5	49.25
1027.2002	3000.4	922.4	46.4
1027.3122	3001.4611	918.35	39.7
1027.4241	3002.5215	914	38.65
1027.536	3003.5812	916.95	38.8
1027.6478	3004.6404	915.85	40.35
1027.7596	3005.6989	915.5	38.6
1027.8714	3006.7567	914.7	38.45
1027.9831	3007.8139	942.8	34.95
1028.0947	3008.8705	915.3	39.4
1028.2064	3009.9264	911.4	32.05
1028.3179	3010.9818	910.25	33.2
1028.4295	3012.0364	908.6	30.9
1028.541	3013.0905	906.95	31.8
1028.6524	3014.1439	908.2	30.35
1028.7638	3015.1966	906.05	32.25
1028.8752	3016.2487	906.7	29.75
1028.9865	3017.3002	913.85	30.15
1029.0978	3018.3511	904.35	28.3
1029.209	3019.4013	905.2	28.6
1029.3202	3020.4509	905.6	28.2
1029.4314	3021.4998	906.05	29.15
1029.5425	3022.5481	906.35	28.9
1029.6535	3023.5958	905.6	30.85
1029.7645	3024.6428	906.35	29.35
1029.8755	3025.6892	904.3	27.75
1029.9864	3026.735	907.05	31
1030.0973	3027.7802	904.6	29.15
1030.2082	3028.8247	905.6	30.65
1030.319	3029.8685	903.9	27.95
1030.4297	3030.9118	906.65	29.95
1030.5404	3031.9544	901.85	25.5
1030.6511	3032.9963	904	24.65
1030.7617	3034.0376	905.25	29.25
1030.8723	3035.0783	905.65	28.1
1030.9829	3036.1184	905.6	27.55
1031.0934	3037.1578	904.1	29.05
1031.2038	3038.1966	908.1	30.65
1031.3142	3039.2348	905.3	29.8
1031.4246	3040.2723	915.5	32.45
1031.5349	3041.3092	905.95	30.95
1031.6452	3042.3455	903.55	29.25
1031.7554	3043.3811	905.6	28.7
1031.8656	3044.4161	905.15	28.4
1031.9758	3045.4505	903.7	29.1
1032.0859	3046.4842	905.6	28.65
1032.1959	3047.5173	903.85	27.25
1032.3059	3048.5498	903.5	26.5
1032.4159	3049.5816	905.15	28.95
1032.5258	3050.6128	905.15	25.6
1032.6357	3051.6434	908.55	29.1
1032.7455	3052.6734	907.2	30.2
1032.8553	3053.7027	905.05	28.35
1032.9651	3054.7314	903.15	27.85
1033.0748	3055.7594	904.25	27.6
1033.1845	3056.7868	906.1	27.2
1033.2941	3057.8136	905.4	30.9
1033.4037	3058.8398	906.15	29.1
1033.5132	3059.8653	907.15	32.75
1033.6227	3060.8902	905.05	29
1033.7321	3061.9145	905.75	28.85
1033.8415	3062.9381	907.4	32.35
1033.9509	3063.9612	922.35	32.45
1034.0602	3064.9835	908.35	32.6
1034.1694	3066.0053	909.15	30.3
1034.2787	3067.0264	906.2	27.8
1034.3878	3068.0469	907.1	30.15
1034.497	3069.0668	911.15	29.5
1034.6061	3070.086	906.65	30.6
1034.7151	3071.1046	908.2	30.25
1034.8241	3072.1226	907.95	31.25
1034.9331	3073.1399	908	31.3
1035.042	3074.1567	907	31.1
1035.1508	3075.1727	905.2	26.75
1035.2597	3076.1882	902.5	27.75
1035.3684	3077.203	904.6	26.35
1035.4772	3078.2173	901.25	24.35
1035.5859	3079.2308	905.5	24.6
1035.6945	3080.2438	903.9	23.55
1035.8031	3081.2561	901.75	26.95
1035.9117	3082.2678	901.25	25.95
1036.0202	3083.2789	898.2	23.45
1036.1286	3084.2893	900.35	26.05
1036.2371	3085.2991	899.45	23.6
1036.3454	3086.3083	902.75	24.65
1036.4538	3087.3169	901.5	22
1036.562	3088.3248	902.4	22.95
1036.6703	3089.3321	901.05	22.7
1036.7785	3090.3388	895.55	18.75
1036.8866	3091.3449	897.5	21.55
1036.9948	3092.3503	897.1	19.05
1037.1028	3093.3551	896.3	21.15
1037.2108	3094.3593	896.8	22.65
1037.3188	3095.3629	897.1	21.45
1037.4267	3096.3658	897.6	23.4
1037.5346	3097.3681	895.25	20.15
1037.6425	3098.3698	897.1	19.35
1037.7503	3099.3708	896.2	19.7
1037.858	3100.3713	894	17.35
1037.9657	3101.3711	896.9	20.45
1038.0734	3102.3702	1033.25	19.9
1038.181	3103.3688	894.45	16.85
1038.2886	3104.3667	894.1	19.2
1038.3961	3105.364	895.6	18.5
1038.5036	3106.3607	895.55	16.55
1038.611	3107.3568	894.8	16.9
1038.7184	3108.3522	893.4	19.3
1038.8257	3109.347	895.1	19.1
1038.933	3110.3412	896.65	15.85
1039.0403	3111.3348	893.35	18.1
1039.1475	3112.3277	891.2	15.8
1039.2547	3113.32	890.5	14.45
1039.3618	3114.3117	893.15	16.25
1039.4689	3115.3028	892.45	14.8
1039.5759	3116.2932	895	16.15
1039.6829	3117.2831	897.3	15.65
1039.7898	3118.2723	890.45	15.05
1039.8967	3119.2608	890.55	14.05
1040.0035	3120.2488	891.75	12.65
1040.1103	3121.2361	891.4	14.45
1040.2171	3122.2229	891.35	14.65
1040.3238	3123.209	890.45	12
1040.4305	3124.1944	892	17.35
1040.5371	3125.1793	892.05	15.3
1040.6437	3126.1635	888.05	12.2
1040.7502	3127.1471	889.65	16.7
1040.8567	3128.1301	890.85	14.35
1040.9631	3129.1125	890.8	14.7
1041.0695	3130.0942	890.35	13.6
1041.1759	3131.0753	897.15	12.35
1041.2822	3132.0558	893.35	14.8
1041.3884	3133.0357	891.15	13.8
1041.4946	3134.015	891.15	13.85
1041.6008	3134.9936	890.35	13.35
1041.7069	3135.9716	907.8	7.9
1041.813	3136.949	887.35	13.35
1041.919	3137.9258	905.1	9.8
1042.025	3138.902	893.95	13.7
1042.1309	3139.8775	887	11.9
1042.2368	3140.8524	888.7	13.15
1042.3427	3141.8267	890.25	12.2
1042.4485	3142.8004	887.55	10.65
1042.5542	3143.7735	895.6	13.7
1042.6599	3144.7459	890.2	12.65
1042.7656	3145.7178	889.9	13
1042.8712	3146.689	887.4	11.35
1042.9768	3147.6596	889.6	11.45
1043.0823	3148.6295	890	13.9
1043.1878	3149.5989	885.65	10.15
1043.2932	3150.5676	884	10.3
1043.3986	3151.5357	885	11.55
1043.5039	3152.5032	886.1	10.15
1043.6092	3153.4701	889.1	15.4
1043.7145	3154.4364	888.5	9.95
1043.8197	3155.402	888.15	12.65
1043.9248	3156.367	889	12.45
1044.03	3157.3315	930.65	7.85
1044.135	3158.2952	886.8	11.5
1044.24	3159.2584	886.45	10.35
1044.345	3160.221	888.05	10.45
1044.4499	3161.1829	887.25	11.05
1044.5548	3162.1442	887.2	10.7
1044.6596	3163.105	886.9	12.45
1044.7644	3164.065	887.4	10.75
1044.8692	3165.0245	888.15	9.55
1044.9739	3165.9834	884.55	9.8
1045.0785	3166.9416	886.5	11.4
1045.1831	3167.8993	886.5	10.05
1045.2877	3168.8563	885.1	8.3
1045.3922	3169.8127	884.1	7.6
1045.4966	3170.7684	887.1	11.4
1045.6011	3171.7236	886.15	8.9
1045.7054	3172.6782	886.7	11.9
1045.8098	3173.6321	887.75	11.95
1045.914	3174.5854	889.65	10.7
1046.0183	3175.5381	885.3	11.15
1046.1224	3176.4902	885.6	9.95
1046.2266	3177.4417	884.4	6.95
1046.3307	3178.3926	884.05	7.75
1046.4347	3179.3428	885.5	10.9
1046.5387	3180.2924	884.85	10.8
1046.6427	3181.2415	885.5	9.3
1046.7466	3182.1899	888.65	11.85
1046.8504	3183.1377	884.6	10.55
1046.9542	3184.0848	889.4	8.8
1047.058	3185.0314	885.1	9.55
1047.1617	3185.9773	885.45	10.7
1047.2654	3186.9227	884.4	7.35
1047.369	3187.8674	884	7.35
1047.4726	3188.8115	888	7.55
1047.5761	3189.755	885.1	9.05
1047.6796	3190.6979	883.35	7.75
1047.783	3191.6402	884.7	10.85
1047.8864	3192.5818	883.55	9.6
1047.9898	3193.5229	911.35	9.5
1048.0931	3194.4633	884	8.9
1048.1963	3195.4031	885.15	7.35
1048.2995	3196.3423	885.15	10.25
1048.4027	3197.2809	883.35	7.9
1048.5058	3198.2189	885.3	8.5
1048.6089	3199.1563	892.05	10.55
1048.7119	3200.0931	885.85	11.25
1048.8148	3201.0292	882.55	8
1048.9178	3201.9648	883.2	7.05
1049.0206	3202.8997	886.35	5.65
1049.1235	3203.834	884.15	8.5
1049.2262	3204.7677	883.85	7.6
1049.329	3205.7008	884.5	5.35
1049.4317	3206.6333	882.35	7.9
1049.5343	3207.5652	887.35	8.65
1049.6369	3208.4964	883.95	8.65
1049.7394	3209.4271	882.9	7.55
1049.8419	3210.3571	882.9	7.3
1049.9444	3211.2865	884.95	7.45
1050.0468	3212.2154	883.1	3.95
1050.1491	3213.1436	884.25	6.35
1050.2514	3214.0712	889.05	5.25
1050.3537	3214.9982	883.5	7.1
1050.4559	3215.9246	883.35	6.3
1050.5581	3216.8503	884.2	10.4
1050.6602	3217.7755	883.7	7.55
1050.7623	3218.7001	884.05	9.15
1050.8643	3219.624	881.3	5.25
1050.9663	3220.5473	881.1	4.8
1051.0682	3221.4701	884.3	7.25
1051.1701	3222.3922	885.4	7.4
1051.2719	3223.3137	883	5.8
1051.3737	3224.2346	884.75	8.55
1051.4754	3225.1549	883.95	9.5
1051.5771	3226.0746	882.75	7.8
1051.6788	3226.9937	884.35	7.4
1051.7804	3227.9121	878.6	4.2
1051.8819	3228.83	883.2	7.15
1051.9834	3229.7473	883.65	6.7
1052.0849	3230.6639	883.65	7.85
1052.1863	3231.5799	882.7	6.8
1052.2876	3232.4954	883.8	9
1052.3889	3233.4102	884.25	8.9
1052.4902	3234.3244	882.8	5.9
1052.5914	3235.238	879.7	4.7
1052.6926	3236.151	907.25	7
1052.7937	3237.0634	881.35	6.75
1052.8948	3237.9752	881.2	4.8
1052.9958	3238.8864	883.6	8
1053.0968	3239.797	881.1	3.3
1053.1977	3240.7069	880.75	4.45
1053.2986	3241.6163	884.6	6.8
1053.3994	3242.5251	881.2	5.45
1053.5002	3243.4332	880.7	5.65
1053.6009	3244.3408	883	6.65
1053.7016	3245.2477	881.95	5.95
1053.8022	3246.154	883.35	7
1053.9028	3247.0598	882.15	4.55
1054.0034	3247.9649	883.2	9.1
1054.1039	3248.8694	882.8	5.35
1054.2043	3249.7733	880.8	6.1
1054.3047	3250.6766	884.7	9.45
1054.4051	3251.5793	882.7	5.05
1054.5054	3252.4814	883.35	7.55
1054.6056	3253.3829	878.9	3.4
1054.7058	3254.2838	882.3	5.55
1054.806	3255.1841	881.25	6.8
1054.9061	3256.0838	882.65	7.9
1055.0061	3256.9829	880.95	7.7
1055.1062	3257.8814	884.15	7.15
1055.2061	3258.7792	881.3	3.4
1055.306	3259.6765	883.3	5.7
1055.4059	3260.5731	880.65	3.75
1055.5057	3261.4692	881.15	3.15
1055.6055	3262.3647	881.85	5.65
1055.7052	3263.2595	880.9	3.15
1055.8049	3264.1538	880.7	4.35
1055.9045	3265.0474	882.2	5.4
1056.0041	3265.9404	880.35	5.2
1056.1036	3266.8329	879.95	6.75
1056.2031	3267.7247	890.65	5.45
1056.3025	3268.616	880.05	4.65
1056.4019	3269.5066	881.85	5.15
1056.5013	3270.3966	884.2	4.45
1056.6005	3271.286	879	4.5
