Software Version:	3.9.2.0
Unit SN:	10000200
Spectrometer SN:	6960
Date:	3/8/2024 12:33:43 PM
Data Line Index:	25
Spectral Points:	2048
Integration time (ms):	125
Averages:	20
Delay (ms):	30000
Sequence Number:	1
Processing:	dark subtract
Laser Power (mW):	305
Laser Current (mA):	822
Laser Diode Temp (C):	25
Laser Case Temp (C):	26
System Temp (C):	26
Spectrometer Temp (C):	23.9
CCD Temp (C):	0.007
Secondary Temp (C):	20.01
Heatsink Temp (C):	20.485
CCDPCB Temp (C):	35.84
SecondaryPCB Temp (C):	30.26

Wavelength	RamanShift	Raw Counts	Dark Subtracted
787.061	30.1047	451.8	41.6
787.2016	32.3739	451.3	42.7
787.3422	34.6426	452.65	41.85
787.4828	36.9109	463.05	53.5
787.6235	39.1787	467.45	52.9
787.7642	41.4461	477.5	57.55
787.9049	43.7131	484.7	63.1
788.0456	45.9796	491.25	64.65
788.1863	48.2456	504.1	74.45
788.3271	50.5112	509.95	76.9
788.4679	52.7764	518.05	81.65
788.6087	55.0411	530.45	89.95
788.7496	57.3054	541.6	95
788.8904	59.5692	549.95	103.85
789.0313	61.8326	559.25	110.25
789.1722	64.0955	566.05	113.45
789.3132	66.3579	586.2	128.15
789.4541	68.6199	606.25	145
789.5951	70.8815	639.6	173
789.7361	73.1426	716.8	245.7
789.8771	75.4032	919.4	444.15
790.0181	77.6634	1423.25	944.25
790.1592	79.9231	2595.45	2108.55
790.3003	82.1824	5099.45	4594.5
790.4414	84.4412	9542.4	9009.9
790.5825	86.6995	15570.9	15001.05
790.7237	88.9574	21345.05	20741.75
790.8648	91.2148	25247.85	24628
791.006	93.4717	26897.25	26257.55
791.1472	95.7282	27059.2	26415.1
791.2885	97.9842	26735.95	26090.4
791.4297	100.2398	25959.6	25310.9
791.571	102.4949	25045.35	24393.1
791.7123	104.7495	24069.45	23411.6
791.8536	107.0036	23164.45	22510.25
791.9949	109.2573	22323.55	21669.6
792.1363	111.5105	21561.75	20904.3
792.2777	113.7632	20871.6	20212.8
792.4191	116.0154	20378.35	19702.9
792.5605	118.2672	19992.7	19328.75
792.7019	120.5185	19584.35	18917.65
792.8434	122.7693	19284.9	18614.65
792.9849	125.0197	19050.5	18375.3
793.1264	127.2696	18769.25	18089.85
793.2679	129.519	18543.05	17859.75
793.4094	131.7679	18252.05	17567.45
793.551	134.0163	17992.75	17302.8
793.6926	136.2642	17628.95	16941.15
793.8342	138.5117	17226.55	16525.85
793.9758	140.7587	16883.55	16189.05
794.1175	143.0052	16538.65	15843.15
794.2591	145.2512	16161.85	15462.75
794.4008	147.4967	15870.15	15171.1
794.5425	149.7417	15615.6	14913.5
794.6842	151.9863	15437	14729
794.826	154.2304	15286.9	14574.55
794.9677	156.4739	15141.4	14425.4
795.1095	158.717	15042.85	14325.15
795.2513	160.9596	14846.2	14123.2
795.3931	163.2017	14598.9	13875.75
795.535	165.4433	14312.55	13586.85
795.6768	167.6844	13986.15	13259.95
795.8187	169.925	13698.6	12970
795.9606	172.1651	13366.1	12635.2
796.1025	174.4047	13106.45	12374.9
796.2445	176.6439	12840.1	12105.7
796.3864	178.8825	12659.1	11922.45
796.5284	181.1206	12511.25	11764.7
796.6704	183.3582	12413.5	11665.5
796.8124	185.5954	12308.85	11562.3
796.9544	187.832	12258.4	11503.15
797.0965	190.0681	12249	11495.05
797.2386	192.3037	12226.7	11467.1
797.3806	194.5388	12204.75	11445.75
797.5228	196.7734	12253.05	11488.65
797.6649	199.0075	12283.75	11520.6
797.807	201.2411	12397.2	11631.15
797.9492	203.4742	12507.1	11741.55
798.0914	205.7068	12641.05	11868.2
798.2336	207.9389	12757.75	11983.9
798.3758	210.1704	12924.2	12152.55
798.518	212.4015	12976.85	12219.8
798.6603	214.632	13126.55	12371.2
798.8025	216.862	13272.8	12525.4
798.9448	219.0915	13347.9	12598.1
799.0871	221.3205	13457.35	12700.1
799.2294	223.549	13518.4	12766.45
799.3718	225.777	13603.5	12848.1
799.5141	228.0044	13681	12925.25
799.6565	230.2314	13754.15	12992.5
799.7989	232.4578	13824.1	13063.8
799.9413	234.6837	13910.2	13145.15
800.0837	236.909	13965.3	13194.45
800.2262	239.1339	13969.3	13172.9
800.3687	241.3582	13891.45	13105.25
800.5111	243.582	13810.15	13000.4
800.6536	245.8053	13763.25	12963.9
800.7961	248.0281	13726.8	12934.95
800.9387	250.2503	13777.3	12978.4
801.0812	252.472	13835.65	13035.05
801.2238	254.6932	13971.35	13173.2
801.3664	256.9139	14094.3	13291.1
801.509	259.134	14311	13501
801.6516	261.3536	14554.25	13751.2
801.7942	263.5727	14898.3	14093.7
801.9369	265.7912	15187.9	14385.5
802.0795	268.0092	15516.1	14710.45
802.2222	270.2267	15734.3	14929.05
802.3649	272.4436	15884.55	15078.3
802.5076	274.6601	15900.25	15083.1
802.6504	276.8759	15823.7	15013.1
802.7931	279.0913	15713.15	14898.35
802.9359	281.3061	15586.5	14774.35
803.0787	283.5204	15509.35	14692.45
803.2215	285.7341	15528.75	14707.3
803.3643	287.9473	15531.75	14702.55
803.5071	290.16	15556.15	14734
803.6499	292.3721	15595.85	14775.85
803.7928	294.5837	15808.2	14989.7
803.9357	296.7947	15958.55	15137.5
804.0786	299.0052	16128.35	15308.05
804.2215	301.2152	16102.9	15282.25
804.3644	303.4246	15966.15	15145.2
804.5074	305.6334	15655.85	14839.4
804.6503	307.8418	15306.75	14488.4
804.7933	310.0495	14920.85	14095.55
804.9363	312.2568	14505.15	13676.8
805.0793	314.4635	14091.75	13265.5
805.2223	316.6696	13779.1	12949.65
805.3653	318.8752	13546.8	12707.1
805.5084	321.0802	13428.85	12597.8
805.6514	323.2847	13445.5	12611.3
805.7945	325.4887	13474.55	12642.2
805.9376	327.692	13476.15	12636.95
806.0807	329.8949	13415.2	12577.1
806.2238	332.0972	13274.6	12438.15
806.367	334.2989	13059.2	12218.05
806.5101	336.5001	12826.9	11981.05
806.6533	338.7007	12642.15	11799.05
806.7965	340.9008	12481.3	11641.2
806.9397	343.1003	12293.65	11450.35
807.0829	345.2992	12191.6	11349.3
807.2261	347.4976	12093.85	11250.5
807.3693	349.6955	12004.3	11154.6
807.5126	351.8927	11984.4	11128.25
807.6559	354.0895	11890.65	11025.4
807.7991	356.2856	11892.55	11034.6
807.9424	358.4812	11797.15	10942.65
808.0857	360.6763	11812.65	10957
808.2291	362.8707	11788.25	10930.65
808.3724	365.0646	11824.8	10967.35
808.5158	367.258	11878.95	11023.15
808.6591	369.4508	11961.25	11100.4
808.8025	371.643	12074.55	11209.9
808.9459	373.8346	12147.75	11281.6
809.0893	376.0257	12259.8	11393.4
809.2327	378.2162	12309.95	11448.2
809.3762	380.4062	12299.25	11432.75
809.5196	382.5956	12211.55	11344.45
809.6631	384.7844	12106.8	11245.5
809.8066	386.9726	11963.95	11104
809.9501	389.1603	11883.5	11026.95
810.0936	391.3474	11831.95	10941.6
810.2371	393.5339	11793.55	10931.45
810.3806	395.7199	11781.4	10925.85
810.5241	397.9052	11825.35	10967.8
810.6677	400.09	11921.9	11063.8
810.8113	402.2743	12082.25	11222.15
810.9548	404.4579	12240.85	11382.35
811.0984	406.641	12449.05	11589.85
811.2421	408.8235	12612.3	11747.15
811.3857	411.0054	12745.7	11880
811.5293	413.1868	12879.1	12009.8
811.673	415.3675	12925.05	12051.7
811.8166	417.5477	12889.8	12016.35
811.9603	419.7273	12836.3	11962.7
812.104	421.9064	12746.65	11865
812.2477	424.0848	12692.5	11818.3
812.3914	426.2627	12552.25	11671.85
812.5351	428.4399	12326.5	11449.5
812.6788	430.6166	12035.85	11157.3
812.8226	432.7928	11715.55	10835.6
812.9663	434.9683	11445.3	10570.1
813.1101	437.1432	11233.1	10355.45
813.2539	439.3176	11051.75	10179.05
813.3977	441.4914	10934.5	10067.35
813.5415	443.6645	10900.15	10028.85
813.6853	445.8371	10849.8	9973.4
813.8291	448.0091	10839.65	9960.5
813.973	450.1806	10817.25	9943.5
814.1168	452.3514	10799	9925.45
814.2607	454.5216	10844.55	9956.15
814.4046	456.6913	10843.75	9968.3
814.5485	458.8603	10905.7	10032.9
814.6924	461.0288	10931.45	10058.35
814.8363	463.1967	10909.9	10043.4
814.9802	465.3639	10953.15	10078.5
815.1241	467.5306	10903.85	10027.3
815.2681	469.6967	10904.9	10034
815.412	471.8622	10884.9	10013.5
815.556	474.0271	10930.35	10055.95
815.7	476.1914	10960.7	10082.05
815.844	478.3551	10992.75	10112.55
815.988	480.5182	11043.25	10166.45
816.132	482.6807	11115.9	10245.45
816.276	484.8426	11301.25	10436.6
816.4201	487.0039	11624.1	10748.95
816.5641	489.1647	11976.15	11096.8
816.7082	491.3248	12301.05	11418.1
816.8522	493.4843	12398.2	11525.9
816.9963	495.6432	12337.8	11463.75
817.1404	497.8015	12186	11299.8
817.2845	499.9592	12091.25	11202.6
817.4286	502.1163	11898.2	11008.9
817.5727	504.2728	11603.6	10719.9
817.7168	506.4287	11311.75	10439.6
817.861	508.5839	11030.2	10154.55
818.0051	510.7386	10858.75	9979.7
818.1493	512.8927	10783.8	9890.8
818.2935	515.0461	10791.15	9906.3
818.4377	517.199	10886.95	9998.95
818.5818	519.3512	11069.5	10180.6
818.726	521.5029	11353.55	10461.75
818.8703	523.6539	11608.2	10720.2
819.0145	525.8043	11720.9	10829.4
819.1587	527.9541	11645.85	10753.8
819.303	530.1033	11429.25	10540
819.4472	532.2519	11264.85	10374.5
819.5915	534.3999	11199.45	10308.35
819.7357	536.5472	11236.35	10346.9
819.88	538.694	11388.25	10502.5
820.0243	540.8401	11617.95	10729.85
820.1686	542.9856	11787.5	10888.1
820.3129	545.1305	11820.85	10916.8
820.4572	547.2748	11769.9	10864.35
820.6016	549.4185	11601.6	10692.9
820.7459	551.5615	11502.9	10596.45
820.8902	553.704	11509.85	10607.05
821.0346	555.8458	11627.6	10727.35
821.1789	557.987	11787.45	10890.25
821.3233	560.1276	12061.4	11163
821.4677	562.2675	12479.9	11579.5
821.6121	564.4069	13030.75	12129.7
821.7565	566.5456	13543.75	12643.5
821.9009	568.6837	13706.95	12807.9
822.0453	570.8212	13313.75	12417
822.1897	572.958	12622.25	11721.7
822.3342	575.0942	11951.95	11054.8
822.4786	577.2299	11475	10576.6
822.6231	579.3648	11253.2	10369.55
822.7675	581.4992	11187.75	10312.8
822.912	583.6329	11213.95	10340.05
823.0565	585.766	11391.95	10513.15
823.201	587.8985	11499.55	10616.4
823.3454	590.0304	11632	10717.6
823.4899	592.1616	11581.25	10678.5
823.6345	594.2922	11468.4	10567.25
823.779	596.4222	11271.4	10366.25
823.9235	598.5515	11106.9	10198.1
824.068	600.6802	10939	10029
824.2126	602.8083	10781.8	9880.45
824.3571	604.9358	10765.7	9861.85
824.5017	607.0626	10789.35	9882.05
824.6462	609.1888	10897.7	9982.2
824.7908	611.3144	11072.15	10157.05
824.9354	613.4393	11231.9	10319.15
825.08	615.5636	11353.65	10440.15
825.2246	617.6873	11398.05	10486.05
825.3692	619.8103	11336.6	10426.9
825.5138	621.9327	11110.35	10200.4
825.6584	624.0544	10897.75	9991.7
825.803	626.1756	10727.55	9821.45
825.9477	628.2961	10554.2	9645.9
826.0923	630.4159	10480.4	9568.55
826.237	632.5351	10480.95	9571.55
826.3816	634.6537	10458.5	9546.5
826.5263	636.7716	10432.05	9518.1
826.6709	638.8889	10448.5	9532.15
826.8156	641.0056	10491.5	9575.05
826.9603	643.1216	10482.95	9565.35
827.105	645.237	10423.35	9506.5
827.2497	647.3518	10348.3	9439.75
827.3944	649.4659	10252.6	9348.2
827.5391	651.5793	10213	9306.85
827.6838	653.6922	10176.05	9269.75
827.8285	655.8043	10134.35	9223
827.9733	657.9159	10144	9233
828.118	660.0268	10137.1	9225.6
828.2627	662.137	10175.4	9260.1
828.4075	664.2466	10161.25	9239.8
828.5522	666.3556	10159.8	9242.3
828.697	668.4639	10117.5	9205.45
828.8418	670.5716	10068.2	9160.2
828.9865	672.6786	10014.85	9100.2
829.1313	674.785	9971.55	9052.65
829.2761	676.8907	9920.9	9004.1
829.4209	678.9958	9924.4	9015.7
829.5657	681.1002	9894.7	8977.2
829.7105	683.204	9883.8	8958.45
829.8553	685.3072	9872.95	8950.65
830.0001	687.4097	9847.15	8928.35
830.1449	689.5115	9860.1	8936.15
830.2898	691.6127	9869.8	8954.3
830.4346	693.7132	9844.95	8928.35
830.5794	695.8131	9874.15	8936.3
830.7243	697.9123	9926.85	9002.6
830.8691	700.0109	9918.8	8994.4
831.014	702.1089	9975.5	9051.05
831.1588	704.2061	10033.6	9114.05
831.3037	706.3028	10105.45	9182.75
831.4486	708.3987	10156.55	9234.4
831.5935	710.4941	10153.95	9234.05
831.7383	712.5887	10197.05	9272.45
831.8832	714.6827	10263.85	9339.65
832.0281	716.7761	10354.7	9433.8
832.173	718.8688	10493.3	9575.4
832.3179	720.9608	10604.35	9677.9
832.4628	723.0522	10772.25	9842.9
832.6077	725.1429	10849.85	9924.7
832.7527	727.233	10936.1	10010.85
832.8976	729.3224	11037.35	10111.25
833.0425	731.4112	11019.1	10096.6
833.1874	733.4993	10902.85	9978.7
833.3324	735.5867	10681.95	9757.45
833.4773	737.6735	10432.3	9502.45
833.6222	739.7596	10245.1	9319.1
833.7672	741.845	10087.8	9163.4
833.9122	743.9298	10015.15	9090
834.0571	746.014	9957.45	9033.3
834.2021	748.0974	9941.35	9010.65
834.347	750.1802	9945.9	9017.15
834.492	752.2624	9961	9032.95
834.637	754.3439	10031.35	9098.6
834.782	756.4247	10142.85	9204.3
834.9269	758.5048	10315	9383.8
835.0719	760.5843	10588.5	9658.65
835.2169	762.6631	10991.25	10058.4
835.3619	764.7413	11563.3	10635
835.5069	766.8188	12235.9	11304.35
835.6519	768.8956	12825.85	11894.15
835.7969	770.9718	13230.7	12300.65
835.9419	773.0473	13183.15	12251.4
836.0869	775.1221	12959.05	12030.05
836.232	777.1962	12715.05	11782.15
836.377	779.2697	12654.95	11721.75
836.522	781.3426	12709.6	11769.85
836.667	783.4147	12830.05	11894.95
836.8121	785.4862	12844.3	11911.7
836.9571	787.557	12628.25	11694.65
837.1021	789.6271	12155.7	11221.2
837.2472	791.6966	11536.5	10605.85
837.3922	793.7654	10956.7	10021.6
837.5373	795.8335	10540.3	9606.75
837.6823	797.901	10213.7	9282.7
837.8274	799.9678	10055.35	9119.85
837.9724	802.0339	9965.7	9031.15
838.1175	804.0993	9897.15	8950.7
838.2626	806.1641	9845.95	8910.2
838.4076	808.2282	9778.15	8844.55
838.5527	810.2916	9691.9	8756.1
838.6978	812.3544	9645.2	8715.6
838.8428	814.4164	9584.45	8651.25
838.9879	816.4778	9615.75	8678.35
839.133	818.5385	9647.5	8709.7
839.2781	820.5986	9822.2	8883.4
839.4232	822.658	10056.3	9120.4
839.5682	824.7166	10418.1	9483.6
839.7133	826.7747	10956.9	10023.65
839.8584	828.832	11505.35	10568.45
840.0035	830.8886	11946.6	11009.65
840.1486	832.9446	12109.95	11169.9
840.2937	834.9999	11980.2	11042.8
840.4388	837.0545	11655.45	10712.7
840.5839	839.1085	11278.05	10341.25
840.729	841.1618	10929.3	9988.7
840.8741	843.2143	10637.05	9701.45
841.0192	845.2662	10414.55	9480.6
841.1643	847.3175	10274.55	9338.65
841.3095	849.368	10168.95	9232.1
841.4546	851.4179	10061.9	9125.6
841.5997	853.467	9997.6	9057.25
841.7448	855.5155	9943.5	9005.45
841.8899	857.5633	9890.5	8955.7
842.0351	859.6105	9788.4	8849.85
842.1802	861.6569	9703.4	8764.35
842.3253	863.7027	9627.8	8687.9
842.4704	865.7478	9595.35	8658.1
842.6156	867.7922	9539.8	8595.95
842.7607	869.8359	9519.85	8579.7
842.9058	871.8789	9517.3	8574.75
843.0509	873.9212	9615.05	8642.7
843.1961	875.9629	9676.25	8735.25
843.3412	878.0039	9803.3	8866.1
843.4863	880.0441	9850.4	8911.85
843.6315	882.0837	9912.95	8978.35
843.7766	884.1226	9960.3	9017.4
843.9218	886.1609	10035.2	9096.8
844.0669	888.1984	10149.4	9208.5
844.212	890.2352	10337.35	9397.9
844.3572	892.2714	10352.55	9409.6
844.5023	894.3069	10294.2	9354.25
844.6475	896.3416	10128.55	9186.45
844.7926	898.3757	9989.55	9047.75
844.9377	900.4091	9887.95	8944.2
845.0829	902.4418	9862.3	8915.2
845.228	904.4739	9886.1	8943
845.3732	906.5052	9927.25	8980.45
845.5183	908.5358	9924	8982.7
845.6635	910.5658	9793.4	8846.75
845.8086	912.595	9579.85	8637.15
845.9538	914.6236	9354.35	8414.65
846.0989	916.6515	9240.05	8295.7
846.2441	918.6786	9115.45	8169.1
846.3892	920.7051	9110.45	8163.25
846.5344	922.7309	9154.8	8213.2
846.6795	924.756	9178.75	8237.5
846.8246	926.7804	9245.35	8302.55
846.9698	928.8041	9238.05	8292.7
847.1149	930.8272	9306.55	8361.6
847.2601	932.8495	9271.85	8325.35
847.4052	934.8711	9291.4	8349
847.5504	936.892	9254.2	8309.4
847.6955	938.9123	9271.4	8328.1
847.8407	940.9318	9327.15	8381.65
847.9858	942.9506	9318.8	8373.2
848.131	944.9688	9294.85	8353.3
848.2761	946.9862	9174.45	8229.55
848.4213	949.003	9045	8103
848.5664	951.019	8907.7	7963.25
848.7115	953.0344	8822.7	7876.45
848.8567	955.0491	8817.65	7873.15
849.0018	957.063	8864.35	7920.85
849.147	959.0763	8945.8	8005.2
849.2921	961.0888	8970.45	8026.7
849.4373	963.1007	9019.65	8075.45
849.5824	965.1119	9004.65	8070.05
849.7275	967.1223	8993.3	8062.6
849.8727	969.1321	8978.95	8050.6
850.0178	971.1412	8964.15	8026.8
850.1629	973.1495	8942.65	8003.95
850.3081	975.1572	8980.9	7990.45
850.4532	977.1641	8984	8042.15
850.5983	979.1704	8955.3	8012.45
850.7435	981.1759	8940.35	7992.35
850.8886	983.1808	8948.95	8002.7
851.0337	985.1849	8935.6	7981.3
851.1788	987.1884	8972.05	8023.45
851.324	989.1911	9064.75	8118.6
851.4691	991.1932	9102.55	8163.25
851.6142	993.1945	9095.9	8153.05
851.7593	995.1951	9094.8	8152.85
851.9045	997.1951	9079	8127.45
852.0496	999.1943	9037.85	8095
852.1947	1001.1928	9049.55	8105.8
852.3398	1003.1906	9111.9	8169.55
852.4849	1005.1877	9234	8286.65
852.63	1007.1841	9317.45	8374.3
852.7751	1009.1798	9371.65	8432.55
852.9202	1011.1748	9288.75	8347.85
853.0653	1013.1691	9154.55	8212.95
853.2104	1015.1627	8963.25	8021.3
853.3555	1017.1556	8780.3	7840.55
853.5006	1019.1477	8654.55	7713.15
853.6457	1021.1392	8551.5	7616.35
853.7908	1023.1299	8510	7577.6
853.9359	1025.12	8527.55	7601.6
854.081	1027.1093	8577	7664.05
854.2261	1029.0979	8689.85	7778.2
854.3712	1031.0859	8796.2	7875.15
854.5163	1033.0731	8825.25	7894.05
854.6613	1035.0596	8789.85	7854.85
854.8064	1037.0454	8713.9	7775.35
854.9515	1039.0304	8631.95	7693.2
855.0965	1041.0148	8507.65	7570.05
855.2416	1042.9985	8407.25	7466.75
855.3867	1044.9814	8373.85	7433.6
855.5317	1046.9636	8326.5	7388.4
855.6768	1048.9452	8316	7374.4
855.8219	1050.926	8340.1	7400.25
855.9669	1052.9061	8370.3	7431
856.112	1054.8855	8419.65	7479.55
856.257	1056.8642	8444.45	7500.85
856.4021	1058.8421	8487.1	7541.8
856.5471	1060.8194	8509.75	7566.2
856.6921	1062.7959	8566.55	7626.2
856.8372	1064.7717	8629.9	7689.85
856.9822	1066.7469	8712.05	7770.05
857.1272	1068.7213	8803.2	7858.25
857.2723	1070.695	8891.05	7951.65
857.4173	1072.6679	8954.75	8014.45
857.5623	1074.6402	8971.95	8032.45
857.7073	1076.6117	8937.45	7992.7
857.8523	1078.5826	8820.95	7878.25
857.9973	1080.5527	8650.5	7707.05
858.1423	1082.5221	8535.25	7593.8
858.2873	1084.4908	8500.85	7558.85
858.4323	1086.4587	8489.3	7548.45
858.5773	1088.426	8502.45	7559.05
858.7223	1090.3925	8508.45	7562.75
858.8673	1092.3584	8578.3	7638.25
859.0123	1094.3235	8594.4	7656.75
859.1573	1096.2879	8698.9	7758.65
859.3022	1098.2515	8814.35	7872.1
859.4472	1100.2145	9016.85	8075.4
859.5922	1102.1767	9201.55	8259.65
859.7371	1104.1382	9439.4	8500.65
859.8821	1106.099	9680.2	8739.95
860.027	1108.0591	9871.95	8932.5
860.172	1110.0185	10049.2	9104.6
860.3169	1111.9771	10107.8	9165.25
860.4619	1113.9351	10055.5	9115.65
860.6068	1115.8923	9961.9	9021.9
860.7517	1117.8488	9854.45	8912.05
860.8967	1119.8045	9679.4	8744.9
861.0416	1121.7596	9550.3	8608.9
861.1865	1123.7139	9418.3	8480.45
861.3314	1125.6675	9328.4	8391
861.4763	1127.6204	9365.7	8429.1
861.6212	1129.5726	9304	8361.95
861.7661	1131.524	9255.75	8312.8
861.911	1133.4748	9077.6	8138.5
862.0559	1135.4248	8887.5	7948.85
862.2008	1137.3741	8723.65	7786.4
862.3457	1139.3226	8590.15	7651.45
862.4905	1141.2705	8542.85	7599.45
862.6354	1143.2176	8451.7	7506.2
862.7803	1145.164	8422.85	7480.65
862.9251	1147.1097	8342.95	7401.65
863.07	1149.0546	8250.8	7308.3
863.2148	1150.9989	8173.75	7234.25
863.3597	1152.9424	8063.75	7123.35
863.5045	1154.8852	8004.4	7064
863.6493	1156.8272	7977.7	7038.65
863.7942	1158.7686	7986.75	7042.9
863.939	1160.7092	8007.35	7065.65
864.0838	1162.6491	8057.35	7112.8
864.2286	1164.5883	8164.5	7226.25
864.3734	1166.5267	8282.65	7344
864.5182	1168.4644	8436.85	7498.45
864.663	1170.4014	8631.1	7692.75
864.8078	1172.3377	8890.4	7954.5
864.9526	1174.2732	9172.4	8238.5
865.0974	1176.2081	9637.5	8699.7
865.2421	1178.1421	10173.55	9230.85
865.3869	1180.0755	10689.25	9754.4
865.5317	1182.0082	11076.8	10141.05
865.6764	1183.9401	11265.25	10331.1
865.8212	1185.8713	11135.4	10204.2
865.9659	1187.8017	10769.3	9845.3
866.1106	1189.7315	10354.8	9439.55
866.2554	1191.6605	9952.05	9034.75
866.4001	1193.5888	9662.1	8738.8
866.5448	1195.5163	9487.45	8562.05
866.6895	1197.4432	9422.45	8487.25
866.8342	1199.3693	9375.25	8439.95
866.9789	1201.2947	9314.2	8377.05
867.1236	1203.2193	9272.2	8337.15
867.2683	1205.1432	9265.55	8330.65
867.413	1207.0664	9219.5	8284.95
867.5576	1208.9889	9174.7	8236.2
867.7023	1210.9106	9176.75	8241.4
867.847	1212.8316	9154.7	8220.75
867.9916	1214.7519	9203.95	8257.4
868.1363	1216.6715	9230.85	8293.55
868.2809	1218.5903	9321.05	8386.85
868.4255	1220.5084	9406.65	8472.45
868.5701	1222.4257	9516.35	8578.6
868.7148	1224.3424	9607.7	8680.35
868.8594	1226.2583	9726.65	8791.4
869.004	1228.1735	9905.85	8968.75
869.1486	1230.0879	10048.15	9111.6
869.2932	1232.0016	10236.5	9301.5
869.4377	1233.9146	10371.5	9436.1
869.5823	1235.8269	10459.15	9526.9
869.7269	1237.7384	10436.65	9504.05
869.8715	1239.6492	10348.8	9414.75
870.016	1241.5592	10363.65	9427.3
870.1606	1243.4686	10417.75	9483.85
870.3051	1245.3772	10640.2	9705.5
870.4496	1247.285	10888.7	9956.5
870.5941	1249.1922	11127.25	10195.6
870.7387	1251.0986	11355.25	10420.7
870.8832	1253.0042	11443.2	10514.3
871.0277	1254.9092	11571.5	10638.3
871.1722	1256.8134	11661.45	10730.75
871.3167	1258.7169	11820.25	10888.7
871.4611	1260.6196	11945.75	11013.75
871.6056	1262.5216	12174.2	11240.65
871.7501	1264.4229	12342.6	11411.15
871.8945	1266.3234	12502.4	11569.25
872.039	1268.2232	12680.75	11749.3
872.1834	1270.1223	12793.25	11860.15
872.3278	1272.0207	12817.25	11881.3
872.4723	1273.9183	12814.75	11876.25
872.6167	1275.8151	12753.1	11823.2
872.7611	1277.7113	12753.7	11819.65
872.9055	1279.6067	12876	11944.9
873.0499	1281.5014	13157.45	12223
873.1943	1283.3953	13636.75	12700.55
873.3386	1285.2885	14269	13335.6
873.483	1287.181	14839.45	13907.4
873.6274	1289.0727	15422.2	14493.1
873.7717	1290.9637	15799.7	14870.85
873.9161	1292.854	16080.75	15147.95
874.0604	1294.7435	16011.2	15081.6
874.2047	1296.6323	15850.25	14918.25
874.349	1298.5204	15621.8	14683.9
874.4933	1300.4077	15308.9	14374.65
874.6376	1302.2943	15007.15	14076.15
874.7819	1304.1802	14632.05	13700.55
874.9262	1306.0653	14095.05	13162.05
875.0705	1307.9497	13582.7	12648.75
875.2147	1309.8333	13129.6	12200.2
875.359	1311.7162	12745.8	11814.65
875.5032	1313.5984	12539.05	11602.9
875.6475	1315.4798	12355.85	11420.9
875.7917	1317.3605	12244.75	11296.9
875.9359	1319.2405	12045.4	11114.3
876.0801	1321.1197	11795.2	10861.35
876.2243	1322.9982	11426.6	10489.35
876.3685	1324.876	11120.45	10188.45
876.5127	1326.753	10810.3	9877.6
876.6569	1328.6293	10562.95	9628.5
876.801	1330.5048	10344.9	9407.85
876.9452	1332.3796	10162.15	9230.7
877.0893	1334.2537	10051.25	9094.55
877.2335	1336.127	9922.55	8991.1
877.3776	1337.9996	9892.45	8959.65
877.5217	1339.8714	9872.8	8940.3
877.6658	1341.7426	9906.05	8926.9
877.8099	1343.6129	9899.15	8964.25
877.954	1345.4826	9887.65	8955.85
878.0981	1347.3515	9929.6	8992.65
878.2422	1349.2196	9910.8	8979.5
878.3862	1351.087	9945.85	9013
878.5303	1352.9537	9968.6	9036.3
878.6743	1354.8197	10059.85	9125.65
878.8184	1356.6849	10228.2	9296.9
878.9624	1358.5493	10406.35	9476.75
879.1064	1360.4131	10583.95	9655.65
879.2504	1362.276	10751.05	9820.15
879.3944	1364.1383	10805.95	9873.15
879.5384	1365.9998	10656.8	9719.45
879.6823	1367.8606	10342.15	9409.4
879.8263	1369.7206	9964.45	9030
879.9702	1371.5799	9642.45	8706.6
880.1142	1373.4384	9367.5	8433.6
880.2581	1375.2962	9134.15	8204.2
880.402	1377.1533	8819.75	7890.05
880.5459	1379.0096	8454.15	7526.35
880.6898	1380.8652	8136.45	7210.1
880.8337	1382.7201	7830.05	6902.75
880.9776	1384.5742	7601.2	6670.95
881.1215	1386.4275	7433.6	6501.1
881.2653	1388.2802	7295.55	6366.05
881.4092	1390.132	7187.6	6256.75
881.553	1391.9832	7114.3	6181.35
881.6968	1393.8336	7026.9	6096.15
881.8406	1395.6832	6985.05	6055.5
881.9844	1397.5322	6932	6000.95
882.1282	1399.3803	6937	6004.2
882.272	1401.2278	6867.3	5938.7
882.4158	1403.0745	6848.3	5919.85
882.5595	1404.9204	6835.2	5906.25
882.7033	1406.7656	6869.6	5939.25
882.847	1408.6101	6861.2	5931.85
882.9908	1410.4538	6899.8	5970.6
883.1345	1412.2968	6928.2	5999.05
883.2782	1414.139	6971.05	6040.8
883.4219	1415.9805	7041.8	6113.1
883.5656	1417.8213	7105.95	6169.5
883.7092	1419.6613	7191.7	6264.45
883.8529	1421.5006	7317.95	6388.1
883.9965	1423.3391	7502.4	6572.45
884.1402	1425.1769	7799.5	6869.4
884.2838	1427.0139	8205.25	7275.7
884.4274	1428.8502	8684.7	7752.4
884.571	1430.6858	9190.9	8261.95
884.7146	1432.5206	9577.85	8650.35
884.8582	1434.3547	9798.65	8870.7
885.0018	1436.188	9784.95	8855.65
885.1453	1438.0206	9723	8794.55
885.2889	1439.8524	9554.2	8626.05
885.4324	1441.6835	9428.3	8500.2
885.5759	1443.5139	9352.55	8423.9
885.7194	1445.3435	9300.85	8374.7
885.8629	1447.1724	9269.45	8344.7
886.0064	1449.0005	9242.6	8319.1
886.1499	1450.8279	9158.5	8233.25
886.2933	1452.6545	9168.9	8245.15
886.4368	1454.4804	9189.05	8265.6
886.5802	1456.3056	9199.75	8269.5
886.7237	1458.13	9136.7	8210.5
886.8671	1459.9536	9002	8076.05
887.0105	1461.7766	8746.9	7821.8
887.1539	1463.5987	8461.5	7535.9
887.2972	1465.4202	8150.25	7223.95
887.4406	1467.2409	7823.75	6896.75
887.584	1469.0608	7572.15	6645.35
887.7273	1470.88	7328.9	6402.3
887.8706	1472.6984	7099.35	6172.85
888.0139	1474.5161	6925.4	5996.05
888.1572	1476.3331	6787.25	5860.55
888.3005	1478.1493	6662.15	5735
888.4438	1479.9648	6599.3	5673.3
888.5871	1481.7795	6526.25	5599.85
888.7303	1483.5935	6472.25	5548.6
888.8736	1485.4067	6435.85	5511.25
889.0168	1487.2192	6383.65	5457.7
889.16	1489.031	6360.4	5433.9
889.3032	1490.842	6340.55	5415.15
889.4464	1492.6522	6297.3	5372.1
889.5896	1494.4618	6261	5335
889.7327	1496.2705	6232.1	5307.25
889.8759	1498.0785	6204.75	5278.05
890.019	1499.8858	6147.45	5222.8
890.1622	1501.6924	6105.2	5180.7
890.3053	1503.4981	6061	5135.4
890.4484	1505.3032	6033.65	5112
890.5914	1507.1075	5978.55	5054.95
890.7345	1508.911	5953.25	5028.3
890.8776	1510.7138	5903.05	4977
891.0206	1512.5159	5842.45	4920.3
891.1637	1514.3172	5817.2	4896
891.3067	1516.1178	5784.35	4863
891.4497	1517.9176	5753.05	4824.9
891.5927	1519.7166	5707.8	4785.1
891.7357	1521.515	5678.35	4751.25
891.8786	1523.3126	5667.55	4747.95
892.0216	1525.1094	5638.6	4715.7
892.1645	1526.9055	5604.1	4681.5
892.3074	1528.7008	5593.95	4671.2
892.4503	1530.4954	5564.4	4644.1
892.5932	1532.2893	5537.15	4621.25
892.7361	1534.0824	5537.4	4616.8
892.879	1535.8747	5533.7	4616.1
893.0218	1537.6663	5530.8	4613.3
893.1647	1539.4572	5528.8	4612.55
893.3075	1541.2473	5536.85	4616.4
893.4503	1543.0367	5539.05	4620.45
893.5931	1544.8253	5568.45	4648.25
893.7359	1546.6132	5614.8	4693.85
893.8787	1548.4003	5631	4706.6
894.0214	1550.1867	5674.4	4748.75
894.1642	1551.9723	5758.2	4836.6
894.3069	1553.7572	5866.9	4950.2
894.4496	1555.5414	5963.95	5050.3
894.5923	1557.3247	6139	5226.9
894.735	1559.1074	6325.35	5413.55
894.8777	1560.8893	6499.85	5590.6
895.0204	1562.6705	6655	5738.15
895.163	1564.4509	6787.45	5876.6
895.3056	1566.2305	6871.05	5961.95
895.4482	1568.0094	6879.75	5970.35
895.5908	1569.7876	6914.55	6006.6
895.7334	1571.565	6884.05	5971.1
895.876	1573.3417	6862.25	5951.45
896.0186	1575.1176	6876.1	5964.1
896.1611	1576.8928	6872.75	5963.4
896.3036	1578.6672	6879.7	5972.9
896.4461	1580.4409	6936.95	6033.4
896.5886	1582.2138	6979	6070.5
896.7311	1583.986	7087.75	6179.1
896.8736	1585.7575	7207.25	6297.5
897.0161	1587.5282	7331.55	6426.6
897.1585	1589.2981	7449.35	6543.95
897.3009	1591.0673	7529.1	6626.2
897.4433	1592.8358	7698.2	6795.35
897.5857	1594.6035	7793.1	6885.2
897.7281	1596.3704	7898.9	6990.85
897.8705	1598.1366	8032.7	7126.1
898.0128	1599.9021	8124.2	7218.4
898.1551	1601.6668	8219.1	7310.7
898.2975	1603.4308	8345.5	7438.55
898.4398	1605.194	8524.1	7613.25
898.5821	1606.9564	8704.75	7802.05
898.7243	1608.7182	8994.05	8093
898.8666	1610.4791	9318.6	8423.7
899.0088	1612.2394	9675	8778.5
899.1511	1613.9988	9960.45	9064
899.2933	1615.7576	10266.55	9366.85
899.4355	1617.5156	10484.35	9571.55
899.5776	1619.2728	10566.9	9660.15
899.7198	1621.0293	10415.4	9509.5
899.862	1622.785	10137.05	9231.05
900.0041	1624.54	9769.95	8865.4
900.1462	1626.2942	9337.5	8436.1
900.2883	1628.0477	8861.8	7958.05
900.4304	1629.8005	8460.65	7554.85
900.5725	1631.5525	8110.45	7210.95
900.7145	1633.3037	7810.95	6912.5
900.8566	1635.0542	7544.2	6644.9
900.9986	1636.804	7365.4	6466.95
901.1406	1638.553	7285.55	6297.25
901.2826	1640.3013	7132.3	6230.95
901.4245	1642.0488	7069.55	6168.3
901.5665	1643.7955	7071.8	6176.75
901.7085	1645.5416	7111	6214.05
901.8504	1647.2868	7212	6314.2
901.9923	1649.0313	7313	6411.5
902.1342	1650.7751	7440.95	6539.3
902.2761	1652.5181	7603.8	6707.8
902.4179	1654.2604	7763.95	6865.8
902.5598	1656.0019	7972.15	7075
902.7016	1657.7427	8219.75	7323.2
902.8434	1659.4828	8450.65	7549.1
902.9852	1661.222	8586.45	7684.8
903.127	1662.9606	8603.3	7703.6
903.2687	1664.6984	8403.5	7501.1
903.4105	1666.4354	7976.6	7071.5
903.5522	1668.1717	7448.35	6546.4
903.6939	1669.9072	6899.7	5995.25
903.8356	1671.642	6452.15	5549.05
903.9773	1673.3761	6069.25	5169.9
904.119	1675.1094	5760.05	4862
904.2606	1676.8419	5510	4611.65
904.4022	1678.5737	5331.85	4431.45
904.5439	1680.3048	5162.5	4262.7
904.6855	1682.0351	5057.25	4155.6
904.827	1683.7646	4919.5	4012.95
904.9686	1685.4934	4834.65	3934.85
905.1101	1687.2215	4758.8	3858.2
905.2517	1688.9488	4694.9	3798.35
905.3932	1690.6754	4628.65	3732.65
905.5347	1692.4012	4591.85	3692.95
905.6761	1694.1263	4532.45	3633.6
905.8176	1695.8506	4498.65	3598.95
905.9591	1697.5742	4440.1	3544.75
906.1005	1699.297	4415.25	3520.9
906.2419	1701.0191	4364.6	3471.6
906.3833	1702.7404	4331.1	3437.65
906.5246	1704.461	4296.2	3400.2
906.666	1706.1808	4260.3	3362.6
906.8073	1707.8999	4227.9	3331.15
906.9487	1709.6182	4208.85	3313.45
907.09	1711.3358	4166.55	3272.55
907.2313	1713.0527	4152.05	3258.4
907.3725	1714.7688	4143.55	3244.15
907.5138	1716.4841	4125.05	3230.05
907.655	1718.1987	4109.65	3207.45
907.7962	1719.9126	4096.4	3203.75
907.9374	1721.6257	4070.2	3175.15
908.0786	1723.338	4074.05	3183.05
908.2198	1725.0496	4022.5	3129.15
908.3609	1726.7605	4020.05	3124.8
908.502	1728.4706	4028.4	3132.5
908.6431	1730.18	4011.85	3117
908.7842	1731.8886	3996.4	3104.35
908.9253	1733.5964	3983	3069.75
909.0664	1735.3036	3972.85	3075.05
909.2074	1737.0099	3933.1	3041.45
909.3484	1738.7156	3907	3014.4
909.4894	1740.4204	3901.15	3005.8
909.6304	1742.1246	3878.85	2983.5
909.7714	1743.8279	3850.1	2957.55
909.9123	1745.5306	3836.7	2943.85
910.0532	1747.2325	3808.85	2916.6
910.1941	1748.9336	3808.6	2916.5
910.335	1750.634	3783.85	2889.2
910.4759	1752.3336	3773.3	2878.6
910.6168	1754.0325	3752.85	2861.75
910.7576	1755.7307	3756.3	2867.75
910.8984	1757.4281	3763.85	2871.6
911.0392	1759.1247	3751.9	2848.15
911.18	1760.8206	3740	2836.5
911.3208	1762.5158	3734.15	2832.1
911.4615	1764.2102	3699.8	2805.75
911.6022	1765.9039	3683.5	2791.95
911.7429	1767.5968	3677.85	2788.8
911.8836	1769.289	3669.3	2776.6
912.0243	1770.9804	3686.25	2794.95
912.1649	1772.6711	3689.35	2793.3
912.3056	1774.361	3658.7	2760.75
912.4462	1776.0502	3661.4	2767.85
912.5868	1777.7386	3663.85	2763.75
912.7274	1779.4263	3627.7	2734.85
912.8679	1781.1132	3635.55	2745.15
913.0084	1782.7994	3607.6	2717
913.149	1784.4849	3612.7	2725.1
913.2895	1786.1696	3605.95	2697.9
913.4299	1787.8535	3595.75	2707.05
913.5704	1789.5367	3583.3	2694.2
913.7108	1791.2192	3568.05	2677.9
913.8513	1792.9009	3577.6	2663
913.9917	1794.5818	3545.4	2650.9
914.132	1796.2621	3557.45	2665.55
914.2724	1797.9415	3553.25	2660.85
914.4128	1799.6202	3544.5	2651.5
914.5531	1801.2982	3528.55	2633.65
914.6934	1802.9755	3533.7	2640.4
914.8337	1804.6519	3523.35	2629.85
914.9739	1806.3277	3510.15	2620.25
915.1142	1808.0027	3470	2580.8
915.2544	1809.6769	3486.2	2599.4
915.3946	1811.3504	3477.2	2586.75
915.5348	1813.0231	3483.1	2593.8
915.675	1814.6951	3482.55	2595.15
915.8151	1816.3664	3477.05	2581.75
915.9553	1818.0369	3461.55	2569
916.0954	1819.7067	3461.05	2567.7
916.2355	1821.3757	3467.6	2573
916.3755	1823.044	3459.8	2567.95
916.5156	1824.7115	3445.7	2551.55
916.6556	1826.3783	3420.35	2527.9
916.7956	1828.0443	3419.65	2531.9
916.9356	1829.7096	3427.35	2535.35
917.0756	1831.3741	3394.9	2499.35
917.2155	1833.0379	3400.05	2508.6
917.3555	1834.701	3395	2505.6
917.4954	1836.3633	3386.1	2495.8
917.6353	1838.0248	3381.7	2491.85
917.7751	1839.6856	3382.6	2492.8
917.915	1841.3457	3386.25	2498.25
918.0548	1843.005	3370.5	2478.5
918.1946	1844.6636	3381.55	2491.05
918.3344	1846.3214	3368.35	2477.8
918.4742	1847.9785	3358.35	2467.55
918.6139	1849.6349	3361.65	2468.85
918.7537	1851.2904	3367.7	2464.8
918.8934	1852.9453	3352.7	2458.95
919.0331	1854.5994	3325.75	2428.8
919.1727	1856.2528	3343.1	2447.15
919.3124	1857.9054	3336.3	2443.4
919.452	1859.5572	3338.2	2446.85
919.5916	1861.2083	3317.75	2425.5
919.7312	1862.8587	3327.2	2433.25
919.8708	1864.5084	3308	2414.7
920.0103	1866.1572	3291.25	2399.7
920.1498	1867.8054	3291.85	2399.2
920.2893	1869.4528	3287.45	2394.3
920.4288	1871.0994	3275.5	2381.95
920.5683	1872.7453	3274.45	2381.95
920.7077	1874.3905	3278.5	2380.2
920.8471	1876.0349	3256	2361.95
920.9865	1877.6786	3265.65	2369.45
921.1259	1879.3215	3258.75	2366.05
921.2653	1880.9637	3265.2	2372.35
921.4046	1882.6051	3229.2	2339.7
921.5439	1884.2458	3248.85	2355.2
921.6832	1885.8858	3221.95	2330.6
921.8225	1887.525	3213.85	2322.1
921.9617	1889.1634	3212.05	2320.45
922.101	1890.8011	3207	2316.3
922.2402	1892.4381	3212.85	2321.15
922.3794	1894.0743	3215.8	2325.05
922.5185	1895.7098	3201.3	2310.35
922.6577	1897.3446	3194.2	2302.95
922.7968	1898.9786	3191.65	2296.45
922.9359	1900.6118	3171.35	2280.1
923.075	1902.2443	3161.3	2270.75
923.214	1903.8761	3158.2	2266.45
923.3531	1905.5071	3148.3	2255.3
923.4921	1907.1374	3141.6	2249.85
923.6311	1908.7669	3134.6	2243.75
923.77	1910.3957	3135.85	2245.6
923.909	1912.0237	3120.7	2229.85
924.0479	1913.651	3110.55	2218.85
924.1868	1915.2776	3104.2	2216.95
924.3257	1916.9034	3095.1	2205.4
924.4646	1918.5285	3076.6	2187.45
924.6034	1920.1528	3064.45	2173.05
924.7422	1921.7764	3073	2182.4
924.881	1923.3992	3076.05	2185.7
925.0198	1925.0213	3051.75	2161.35
925.1586	1926.6427	3044.1	2153.6
925.2973	1928.2633	3119.9	2141.7
925.436	1929.8832	3045.85	2155.35
925.5747	1931.5023	3031.45	2142.6
925.7134	1933.1207	3002.65	2111.1
925.852	1934.7383	3022.9	2134.55
925.9906	1936.3552	2999.1	2108.55
926.1292	1937.9714	3008.35	2117.9
926.2678	1939.5868	2996.85	2103.6
926.4064	1941.2015	2985.45	2094.6
926.5449	1942.8154	2977.25	2086.4
926.6834	1944.4286	2974.2	2082.95
926.8219	1946.041	2975	2064.2
926.9604	1947.6528	2954.05	2060
927.0988	1949.2637	2946.4	2056.75
927.2372	1950.8739	2926.8	2036.85
927.3756	1952.4834	2940.9	2051
927.514	1954.0921	2939	2048.6
927.6523	1955.7001	2932.75	2036.8
927.7907	1957.3074	2904	2017.3
927.929	1958.9139	2903.2	2018.7
928.0673	1960.5197	2898.95	2010.7
928.2055	1962.1247	2890.3	2002.4
928.3438	1963.729	2882.95	1999.25
928.482	1965.3325	2883.5	1993.2
928.6202	1966.9353	2854.15	1966.8
928.7584	1968.5374	2865.15	1975.2
928.8965	1970.1387	2856.75	1967.4
929.0346	1971.7393	2832.4	1943.6
929.1727	1973.3392	2838.85	1952.7
929.3108	1974.9383	2820.65	1936.4
929.4489	1976.5366	2826.8	1942
929.5869	1978.1342	2836.75	1951.6
929.7249	1979.7311	2808.3	1924.35
929.8629	1981.3273	2812.05	1924.7
930.0009	1982.9227	2816.3	1929.85
930.1388	1984.5173	2799.45	1914.45
930.2767	1986.1112	2780.15	1897.4
930.4146	1987.7044	2785.3	1902.4
930.5525	1989.2968	2771.95	1885.35
930.6904	1990.8885	2762	1875.5
930.8282	1992.4795	2757.95	1872.1
930.966	1994.0697	2768.55	1885.9
931.1038	1995.6592	2748.2	1861.7
931.2415	1997.2479	2749.5	1862.4
931.3793	1998.8359	2738.2	1853.85
931.517	2000.4232	2734.8	1854.7
931.6547	2002.0097	2733.65	1853.45
931.7923	2003.5955	2720.85	1841.05
931.93	2005.1805	2723.5	1838.75
932.0676	2006.7648	2722.75	1841.4
932.2052	2008.3484	2711.8	1828.9
932.3427	2009.9312	2706.85	1825.1
932.4803	2011.5133	2688.2	1807.7
932.6178	2013.0946	2706.65	1824.75
932.7553	2014.6752	2686.3	1806.3
932.8928	2016.2551	2696.35	1814.15
933.0302	2017.8342	2681.15	1798.3
933.1676	2019.4126	2682	1800.6
933.305	2020.9902	2672.35	1792.6
933.4424	2022.5672	2662.35	1780.05
933.5798	2024.1433	2663.85	1779.45
933.7171	2025.7188	2655.1	1775.7
933.8544	2027.2935	2651.8	1770.65
933.9917	2028.8674	2635.95	1756.7
934.129	2030.4406	2626.35	1748.7
934.2662	2032.0131	2626.85	1749.05
934.4034	2033.5849	2632.9	1746.6
934.5406	2035.1559	2616.45	1737.6
934.6778	2036.7261	2616.25	1735.55
934.8149	2038.2957	2624.35	1741.4
934.952	2039.8645	2613.9	1729.45
935.0891	2041.4325	2616.4	1729.5
935.2262	2042.9998	2602.15	1721.1
935.3632	2044.5664	2601.9	1719.5
935.5002	2046.1323	2588.8	1708
935.6372	2047.6974	2587.8	1708.05
935.7742	2049.2617	2586.7	1704.3
935.9111	2050.8254	2583.85	1697.4
936.048	2052.3883	2588.3	1705.5
936.1849	2053.9504	2574.7	1689.15
936.3218	2055.5118	2571.15	1687.95
936.4586	2057.0725	2558.85	1672.1
936.5955	2058.6325	2557.15	1677.35
936.7323	2060.1917	2544.7	1663.1
936.869	2061.7502	2551.5	1667.3
937.0058	2063.3079	2543.9	1666
937.1425	2064.8649	2548.1	1665.1
937.2792	2066.4212	2533.7	1650.4
937.4159	2067.9767	2538.5	1656.35
937.5525	2069.5315	2517.3	1632.15
937.6891	2071.0856	2513.9	1633.25
937.8257	2072.6389	2511.95	1628.6
937.9623	2074.1915	2495.4	1614.95
938.0989	2075.7433	2493.95	1611.75
938.2354	2077.2945	2499.75	1618.85
938.3719	2078.8448	2485.3	1601.3
938.5084	2080.3945	2493.35	1609.15
938.6448	2081.9434	2480.4	1596.25
938.7812	2083.4916	2479.6	1595.8
938.9176	2085.039	2477.85	1586.6
939.054	2086.5857	2471.85	1582.4
939.1903	2088.1317	2479	1587.5
939.3267	2089.677	2462.9	1574.4
939.463	2091.2215	2455.55	1565.6
939.5992	2092.7652	2454.8	1564.85
939.7355	2094.3083	2451.65	1562.55
939.8717	2095.8506	2439.8	1554.25
940.0079	2097.3921	2450.25	1567.5
940.1441	2098.933	2433.55	1548.75
940.2802	2100.4731	2436.15	1549.65
940.4163	2102.0124	2448.9	1544.95
940.5524	2103.5511	2435.85	1549.75
940.6885	2105.089	2427.5	1541.45
940.8245	2106.6261	2410.65	1524.95
940.9606	2108.1626	2419.4	1531.6
941.0965	2109.6983	2430.25	1515.75
941.2325	2111.2332	2412.05	1527.35
941.3684	2112.7675	2419.6	1530.8
941.5044	2114.301	2412.55	1524.3
941.6403	2115.8337	2402.55	1514.8
941.7761	2117.3657	2404.8	1517.65
941.912	2118.897	2385.35	1497.9
942.0478	2120.4276	2390.4	1496.7
942.1835	2121.9575	2382.1	1493.85
942.3193	2123.4866	2389.45	1500.15
942.455	2125.0149	2382.3	1492.9
942.5907	2126.5426	2359.4	1474.05
942.7264	2128.0695	2365.05	1479.35
942.8621	2129.5956	2359.2	1481.5
942.9977	2131.1211	2354.9	1466.3
943.1333	2132.6458	2354.15	1468.25
943.2689	2134.1698	2355.1	1469.1
943.4044	2135.693	2349.55	1456.85
943.54	2137.2155	2352.65	1464.5
943.6755	2138.7373	2339.65	1453.35
943.8109	2140.2584	2328.25	1443.65
943.9464	2141.7787	2328.3	1440.35
944.0818	2143.2983	2323.55	1444.1
944.2172	2144.8171	2308.05	1429
944.3526	2146.3353	2308.7	1426.5
944.4879	2147.8527	2323.75	1442.95
944.6232	2149.3693	2303.9	1415.55
944.7585	2150.8853	2301.9	1414.9
944.8938	2152.4005	2291.85	1403.3
945.029	2153.9149	2302.6	1415
945.1642	2155.4287	2304.8	1417.1
945.2994	2156.9417	2298.15	1409.45
945.4346	2158.454	2282.1	1392.35
945.5697	2159.9655	2284.5	1399.8
945.7048	2161.4764	2275.3	1390.75
945.8399	2162.9865	2277.5	1392.55
945.9749	2164.4958	2279.35	1396.6
946.1099	2166.0045	2258.4	1369.75
946.2449	2167.5124	2275.15	1389.1
946.3799	2169.0195	2262.3	1375.5
946.5148	2170.526	2256.15	1369.2
946.6498	2172.0317	2247.4	1361.45
946.7846	2173.5367	2256.55	1369.4
946.9195	2175.0409	2244.85	1359.6
947.0543	2176.5445	2242.2	1355.95
947.1891	2178.0473	2248.1	1359.05
947.3239	2179.5494	2249.35	1358.7
947.4587	2181.0507	2238.7	1353.35
947.5934	2182.5513	2231.7	1341.55
947.7281	2184.0512	2222.45	1334.25
947.8628	2185.5504	2225.9	1339.55
947.9974	2187.0488	2206.55	1321.05
948.132	2188.5465	2200	1316.2
948.2666	2190.0435	2207.05	1320.65
948.4012	2191.5397	2210.4	1324.55
948.5357	2193.0353	2211.45	1325.6
948.6702	2194.5301	2207.1	1315.1
948.8047	2196.0241	2196.2	1305.8
948.9392	2197.5175	2197.9	1305.55
949.0736	2199.0101	2187.5	1295.55
949.208	2200.502	2179.1	1293.9
949.3424	2201.9931	2190.8	1305.5
949.4767	2203.4835	2165.75	1281
949.611	2204.9733	2193.05	1294.5
949.7453	2206.4622	2160.05	1277.5
949.8796	2207.9505	2158.7	1272.4
950.0138	2209.438	2148.4	1265.75
950.148	2210.9248	2133.05	1249
950.2822	2212.4109	2156.4	1270.8
950.4164	2213.8962	2158.9	1267.2
950.5505	2215.3809	2143	1249.05
950.6846	2216.8648	2147.85	1255.65
950.8186	2218.3479	2142.5	1248.35
950.9527	2219.8304	2141.05	1246.75
951.0867	2221.3121	2131.1	1236.25
951.2207	2222.7931	2124.1	1233.3
951.3546	2224.2733	2116.95	1228.15
951.4886	2225.7529	2104.55	1217.95
951.6225	2227.2317	2102.25	1214.5
951.7563	2228.7098	2102.5	1219
951.8902	2230.1872	2100.2	1216.7
952.024	2231.6638	2091.7	1205.95
952.1578	2233.1397	2107.2	1218.4
952.2916	2234.6149	2090.75	1207.75
952.4253	2236.0894	2089.75	1204.65
952.559	2237.5632	2090.7	1193.8
952.6927	2239.0362	2077.55	1192.1
952.8263	2240.5085	2082.15	1196.25
952.9599	2241.9801	2070.65	1182.8
953.0935	2243.4509	2076.8	1187.6
953.2271	2244.921	2060.55	1171.2
953.3606	2246.3904	2056.15	1164.4
953.4941	2247.8591	2051.2	1164.6
953.6276	2249.3271	2053.1	1165.7
953.7611	2250.7943	2061.1	1172.05
953.8945	2252.2608	2048.4	1159.8
954.0279	2253.7266	2040.25	1152.05
954.1612	2255.1917	2042.4	1153.1
954.2946	2256.656	2027.65	1142.65
954.4279	2258.1197	2029	1143.75
954.5612	2259.5826	2022.7	1135.65
954.6944	2261.0447	2026.45	1139.8
954.8276	2262.5062	2019.15	1129
954.9608	2263.9669	2019.5	1131.65
955.094	2265.4269	2010.45	1122.35
955.2271	2266.8862	2020.9	1134.9
955.3602	2268.3448	2008.15	1121.8
955.4933	2269.8026	2002.75	1117.6
955.6264	2271.2598	2005.5	1118.95
955.7594	2272.7162	1997.8	1110.5
955.8924	2274.1719	2005.65	1116.85
956.0253	2275.6268	1999.75	1108.4
956.1583	2277.0811	1994.05	1102.85
956.2912	2278.5346	1993.35	1107.55
956.4241	2279.9874	1988.3	1103.75
956.5569	2281.4395	1981.95	1097.55
956.6897	2282.8908	1990.8	1099.95
956.8225	2284.3414	1979.05	1090.5
956.9553	2285.7914	1980.85	1095.2
957.088	2287.2406	1976.8	1086.8
957.2207	2288.689	1967.7	1077.4
957.3534	2290.1368	1984.2	1090.1
957.486	2291.5838	1975.7	1081.05
957.6186	2293.0302	1975.9	1082.85
957.7512	2294.4758	1972	1079.95
957.8838	2295.9206	1966.85	1076.7
958.0163	2297.3648	1964.2	1078.7
958.1488	2298.8082	1951.85	1062.85
958.2813	2300.251	1961.4	1074.6
958.4137	2301.693	1951.7	1058.9
958.5461	2303.1343	1963.25	1072.7
958.6785	2304.5748	1944.3	1055.8
958.8108	2306.0147	1941.95	1054.8
958.9432	2307.4538	1936.15	1049.05
959.0754	2308.8922	1926.8	1042.3
959.2077	2310.3299	1924.2	1039.55
959.3399	2311.7669	1925.3	1040.5
959.4721	2313.2031	1920.15	1032.35
959.6043	2314.6387	1914.1	1027.05
959.7365	2316.0735	1907.2	1018.55
959.8686	2317.5076	1917.95	1028.85
960.0006	2318.941	1915.75	1029.05
960.1327	2320.3737	1914.2	1022.85
960.2647	2321.8056	1911.6	1018.15
960.3967	2323.2369	1912.1	1023.4
960.5287	2324.6674	1903.7	1013.45
960.6606	2326.0972	1898	1007.7
960.7925	2327.5263	1894	1006.25
960.9244	2328.9547	1903.85	1014.55
961.0562	2330.3823	1888.3	998.1
961.1881	2331.8092	1897.1	1002
961.3198	2333.2355	1883.55	992.8
961.4516	2334.661	1885.5	996.4
961.5833	2336.0858	1883.05	992.3
961.715	2337.5098	1880.55	989.55
961.8467	2338.9332	1876.3	985.8
961.9783	2340.3558	1864.05	972.1
962.1099	2341.7778	1867.65	982.4
962.2415	2343.199	1867.95	978.7
962.373	2344.6195	1865.9	979.45
962.5045	2346.0393	1863.9	977.15
962.636	2347.4583	1864.95	975.6
962.7675	2348.8767	1869.35	980.45
962.8989	2350.2943	1869.8	977.55
963.0303	2351.7113	1868.6	975.6
963.1617	2353.1275	1852.1	960.6
963.293	2354.543	1866.8	968.95
963.4243	2355.9578	1859.75	968.2
963.5556	2357.3718	1857.05	969.65
963.6868	2358.7852	1837.45	947.8
963.818	2360.1978	1836.75	948.55
963.9492	2361.6098	1846.3	960.95
964.0803	2363.021	1840.3	949.55
964.2114	2364.4315	1831.15	941.65
964.3425	2365.8413	1836.9	947.25
964.4736	2367.2504	1818.95	932.55
964.6046	2368.6587	1818.7	930.25
964.7356	2370.0664	1819.4	932.25
964.8666	2371.4733	1825.6	937.65
964.9975	2372.8795	1815.3	927.3
965.1284	2374.285	1814.3	926.2
965.2593	2375.6899	1800.2	913.15
965.3901	2377.0939	1802.45	915.6
965.5209	2378.4973	1803.2	916.15
965.6517	2379.9	1812.85	925.5
965.7825	2381.3019	1791.65	902.7
965.9132	2382.7032	1790.95	905.6
966.0439	2384.1037	1790.1	905.35
966.1745	2385.5035	1786.65	902.65
966.3051	2386.9027	1785.25	900.35
966.4357	2388.3011	1792.6	902.7
966.5663	2389.6987	1783.9	897.55
966.6968	2391.0957	1776.8	889.4
966.8273	2392.492	1771.35	888.05
966.9578	2393.8876	1761.9	873.95
967.0882	2395.2824	1775.85	890.25
967.2186	2396.6765	1760.2	871.35
967.349	2398.07	1763	876.2
967.4793	2399.4627	1755.95	865.9
967.6097	2400.8547	1757.45	867.05
967.7399	2402.246	1761.5	866.3
967.8702	2403.6366	1745.15	855.5
968.0004	2405.0265	1745.45	858.2
968.1306	2406.4156	1750.9	861.35
968.2607	2407.8041	1748.95	858.6
968.3909	2409.1918	1745.05	853.25
968.521	2410.5789	1739.25	850.65
968.651	2411.9652	1733.7	842.85
968.781	2413.3508	1730.55	840.6
968.911	2414.7358	1723.6	834.5
969.041	2416.12	1730.95	843.7
969.1709	2417.5035	1726	840.15
969.3008	2418.8863	1726.5	838.3
969.4307	2420.2684	1726.3	837.95
969.5606	2421.6497	1712.45	821.55
969.6904	2423.0304	1717.3	830.4
969.8201	2424.4104	1717.8	829.45
969.9499	2425.7896	1718	823.6
970.0796	2427.1682	1717	830.35
970.2093	2428.546	1707	817.5
970.3389	2429.9232	1709.5	819.7
970.4685	2431.2996	1711.45	823.75
970.5981	2432.6753	1711.45	823.25
970.7277	2434.0503	1696.35	806.15
970.8572	2435.4246	1694.85	806.85
970.9867	2436.7982	1698.7	807.45
971.1161	2438.1711	1692.8	802.45
971.2456	2439.5433	1694.1	803.2
971.375	2440.9148	1693.9	800.5
971.5043	2442.2856	1690.2	804.15
971.6336	2443.6557	1685.95	795.7
971.7629	2445.025	1677	790.6
971.8922	2446.3937	1671.25	783.25
972.0214	2447.7617	1676.05	785.45
972.1506	2449.1289	1671.25	781.9
972.2798	2450.4955	1669.25	776.75
972.4089	2451.8613	1665.25	777.7
972.538	2453.2265	1669.1	782.35
972.6671	2454.5909	1662.55	773.85
972.7961	2455.9546	1665.5	777.4
972.9251	2457.3177	1653.65	767.5
973.0541	2458.68	1659.15	770.65
973.1831	2460.0416	1657.6	770.25
973.312	2461.4025	1653.65	765.45
973.4408	2462.7627	1658.75	759.2
973.5697	2464.1222	1643.4	757.65
973.6985	2465.4811	1641.15	755.55
973.8273	2466.8392	1648.35	761.6
973.956	2468.1966	1648.05	758.6
974.0847	2469.5533	1648.95	757.35
974.2134	2470.9093	1644.05	759.45
974.3421	2472.2645	1642.4	754.5
974.4707	2473.6191	1644.25	757.45
974.5993	2474.973	1638.4	748.45
974.7278	2476.3262	1637.95	748.9
974.8563	2477.6787	1633.75	746.7
974.9848	2479.0305	1630.4	745.6
975.1132	2480.3816	1634.3	744.4
975.2417	2481.7319	1631.8	744.6
975.37	2483.0816	1629.95	742.25
975.4984	2484.4306	1621.5	733.3
975.6267	2485.7789	1629.5	744.2
975.755	2487.1264	1625.2	736.8
975.8833	2488.4733	1613.85	726.65
976.0115	2489.8195	1632.95	730.45
976.1397	2491.165	1617.35	727.1
976.2678	2492.5097	1614.95	724.95
976.3959	2493.8538	1608.5	720.5
976.524	2495.1972	1604.95	715.5
976.6521	2496.5398	1601.85	712.05
976.7801	2497.8818	1603.8	711.95
976.9081	2499.2231	1600.85	710.6
977.036	2500.5637	1603.15	714.15
977.164	2501.9035	1593.75	704
977.2918	2503.2427	1599.4	708.35
977.4197	2504.5812	1588.05	698.85
977.5475	2505.919	1597.5	708.2
977.6753	2507.256	1593.3	705.4
977.8031	2508.5924	1585	695.65
977.9308	2509.9281	1594.9	703.75
978.0585	2511.2631	1586.35	699.75
978.1861	2512.5974	1583.5	698.25
978.3137	2513.9309	1572.55	685.3
978.4413	2515.2638	1605.05	692.65
978.5689	2516.596	1576.95	688.5
978.6964	2517.9275	1578.25	687.55
978.8239	2519.2583	1564.2	676.7
978.9513	2520.5884	1573.6	683.15
979.0788	2521.9178	1559.3	672.2
979.2062	2523.2465	1568.2	681.5
979.3335	2524.5745	1558.6	670.25
979.4608	2525.9018	1556	669.35
979.5881	2527.2284	1557.7	671.4
979.7154	2528.5543	1561.4	673.9
979.8426	2529.8796	1556.3	669.15
979.9698	2531.2041	1560.45	674.5
980.0969	2532.5279	1558.1	672.05
980.224	2533.851	1554.55	667.4
980.3511	2535.1735	1548.35	662.95
980.4781	2536.4952	1546.6	658.4
980.6052	2537.8163	1553.15	663.05
980.7321	2539.1366	1544	655.55
980.8591	2540.4562	1544.6	655.6
980.986	2541.7752	1547.45	657.6
981.1129	2543.0935	1554.7	665.9
981.2397	2544.411	1559.05	668.65
981.3665	2545.7279	1546.85	658.75
981.4933	2547.0441	1545.8	655.75
981.62	2548.3596	1550.05	659.55
981.7467	2549.6744	1541.1	654
981.8734	2550.9885	1550.8	656.1
982.0001	2552.3019	1540	653.05
982.1267	2553.6146	1534.15	646.95
982.2532	2554.9266	1530.2	642.6
982.3798	2556.2379	1532.4	643.9
982.5063	2557.5485	1539	652.15
982.6327	2558.8585	1543.1	648.45
982.7592	2560.1677	1537.65	646.7
982.8856	2561.4762	1531.55	643.25
983.0119	2562.7841	1535.1	643.9
983.1383	2564.0913	1527.9	642.35
983.2646	2565.3977	1524.5	639.2
983.3908	2566.7035	1528.5	638.7
983.517	2568.0086	1528.4	639.3
983.6432	2569.313	1529.1	640.55
983.7694	2570.6167	1519.45	627.5
983.8955	2571.9197	1524.35	637.95
984.0216	2573.222	1525.7	632.4
984.1476	2574.5236	1517.15	627.4
984.2737	2575.8246	1524.5	635.1
984.3996	2577.1248	1527.2	638.15
984.5256	2578.4244	1516.05	630.95
984.6515	2579.7232	1518.65	630.15
984.7774	2581.0214	1541.7	629.4
984.9032	2582.3189	1524.8	635.55
985.029	2583.6157	1522.55	629.6
985.1548	2584.9118	1521.45	631.15
985.2806	2586.2072	1512.7	626.3
985.4063	2587.5019	1510.85	624.4
985.5319	2588.7959	1515.85	627.5
985.6576	2590.0893	1516.75	627.05
985.7832	2591.3819	1515.5	629.65
985.9087	2592.6739	1519.3	632.1
986.0343	2593.9652	1526.7	636.9
986.1597	2595.2557	1520.2	634.9
986.2852	2596.5456	1515.65	627.6
986.4106	2597.8348	1511	625.25
986.536	2599.1234	1514.15	626.5
986.6614	2600.4112	1509.35	621.75
986.7867	2601.6983	1516.5	627.1
986.912	2602.9848	1515.4	625.25
987.0372	2604.2705	1512.45	619.4
987.1624	2605.5556	1514.9	627.15
987.2876	2606.84	1510.8	625
987.4128	2608.1237	1503.95	617.15
987.5379	2609.4067	1502.65	615.25
987.6629	2610.689	1510.2	615.05
987.788	2611.9707	1500.75	609.75
987.913	2613.2516	1493.65	605
988.0379	2614.5319	1490.15	605.55
988.1629	2615.8115	1497.65	611.7
988.2878	2617.0903	1487.65	601.25
988.4126	2618.3685	1481.55	594.5
988.5375	2619.6461	1486	601.15
988.6622	2620.9229	1483.45	598.8
988.787	2622.199	1481.4	593.35
988.9117	2623.4745	1485	599.2
989.0364	2624.7493	1479.15	594.3
989.161	2626.0234	1483.95	601.35
989.2857	2627.2968	1473.1	586.65
989.4102	2628.5695	1474.9	588.1
989.5348	2629.8415	1467.75	584.5
989.6593	2631.1128	1472	584.25
989.7837	2632.3835	1468.75	583.75
989.9082	2633.6535	1477.55	593.6
990.0326	2634.9228	1463.4	577.75
990.1569	2636.1914	1468.8	585.4
990.2812	2637.4593	1475.25	587.25
990.4055	2638.7265	1467	581.9
990.5298	2639.9931	1461.5	576.8
990.654	2641.259	1459.7	572.5
990.7782	2642.5242	1459.5	573.15
990.9023	2643.7887	1456.05	570.8
991.0264	2645.0525	1450.1	565.55
991.1505	2646.3156	1451	567.75
991.2745	2647.5781	1451.7	566.1
991.3985	2648.8398	1443.6	558.3
991.5225	2650.1009	1482.1	560.25
991.6464	2651.3613	1443.1	556.1
991.7703	2652.6211	1447.85	562.85
991.8942	2653.8801	1446.25	563.2
992.018	2655.1385	1442.9	554.05
992.1418	2656.3961	1441.55	557.35
992.2655	2657.6531	1443.5	558.8
992.3892	2658.9094	1445.25	562.6
992.5129	2660.1651	1448.05	563.1
992.6366	2661.42	1448.4	563.15
992.7602	2662.6743	1448	563.1
992.8837	2663.9279	1447.75	564.9
993.0073	2665.1808	1452.05	566.2
993.1307	2666.433	1447.35	563.15
993.2542	2667.6846	1446.75	562.05
993.3776	2668.9354	1458.7	571.2
993.501	2670.1856	1454.4	570.25
993.6244	2671.4351	1455.1	571.15
993.7477	2672.6839	1462.6	577.85
993.8709	2673.9321	1452.25	567.65
993.9942	2675.1795	1458.15	573.45
994.1174	2676.4263	1463.3	579.2
994.2405	2677.6724	1456.85	572.75
994.3637	2678.9179	1458.1	574
994.4868	2680.1626	1465.45	581.9
994.6098	2681.4067	1455.25	572.2
994.7328	2682.6501	1450.5	565.2
994.8558	2683.8928	1456.35	571.85
994.9788	2685.1348	1446.7	561.5
995.1017	2686.3761	1442.8	557.75
995.2245	2687.6168	1443.6	560.15
995.3474	2688.8568	1435.7	550.15
995.4702	2690.0961	1441.4	559.6
995.5929	2691.3348	1436	551.65
995.7156	2692.5727	1432.35	548.2
995.8383	2693.81	1430.95	547.8
995.961	2695.0466	1430.45	546.4
996.0836	2696.2826	1431.9	546.45
996.2062	2697.5178	1434.15	546.35
996.3287	2698.7524	1427	543.15
996.4512	2699.9863	1435	548.6
996.5737	2701.2195	1433.8	551.3
996.6961	2702.452	1439.55	554.65
996.8185	2703.6839	1448.95	565.8
996.9408	2704.9151	1448.3	564.6
997.0631	2706.1456	1447.2	564.6
997.1854	2707.3755	1450.55	565.45
997.3077	2708.6046	1456.35	569.15
997.4299	2709.8331	1468.8	585.1
997.552	2711.0609	1466.75	582.95
997.6742	2712.2881	1479.55	595.25
997.7963	2713.5145	1484.7	596.4
997.9183	2714.7403	1489.25	607.4
998.0403	2715.9654	1498.25	614.35
998.1623	2717.1899	1526.1	628.05
998.2842	2718.4136	1516	631.55
998.4062	2719.6367	1525.3	641.15
998.528	2720.8591	1550.8	658.75
998.6498	2722.0809	1545.6	660.75
998.7716	2723.3019	1566.5	680
998.8934	2724.5223	1565.75	681.8
999.0151	2725.7421	1570.2	685.05
999.1368	2726.9611	1576.8	690.45
999.2584	2728.1795	1574.5	686.15
999.38	2729.3972	1561.45	677.15
999.5016	2730.6142	1560.25	672.4
999.6231	2731.8306	1543.6	659.2
999.7446	2733.0462	1528.2	643.05
999.8661	2734.2612	1514.6	625.1
999.9875	2735.4756	1499.7	613.85
1000.1089	2736.6892	1495.05	610.6
1000.2302	2737.9022	1472.3	588.9
1000.3515	2739.1145	1456.85	572.5
1000.4728	2740.3262	1453.65	562.25
1000.594	2741.5372	1442	557.1
1000.7152	2742.7475	1428.65	544.85
1000.8363	2743.9571	1419.65	536
1000.9575	2745.1661	1415.85	526.6
1001.0785	2746.3744	1403.45	518.5
1001.1996	2747.582	1395.8	512.25
1001.3206	2748.7889	1388.65	501.85
1001.4415	2749.9952	1385.3	503.1
1001.5625	2751.2008	1368.05	482.7
1001.6833	2752.4057	1376.15	490.95
1001.8042	2753.61	1372.5	487.3
1001.925	2754.8136	1366.25	481.55
1002.0458	2756.0165	1364.5	481.25
1002.1665	2757.2188	1363.9	481.1
1002.2872	2758.4204	1372.55	489.4
1002.4078	2759.6213	1363.05	476.8
1002.5285	2760.8215	1374.45	489.55
1002.649	2762.0211	1364.65	479.15
1002.7696	2763.22	1361.5	475.1
1002.8901	2764.4182	1360.55	474.3
1003.0106	2765.6158	1358.9	476.4
1003.131	2766.8127	1354.4	471.15
1003.2514	2768.009	1349.9	465.8
1003.3717	2769.2045	1350.8	466.7
1003.492	2770.3994	1354.05	470.2
1003.6123	2771.5936	1349.4	464.7
1003.7325	2772.7872	1342.55	460.45
1003.8527	2773.9801	1338.25	452.35
1003.9729	2775.1723	1355.6	455.1
1004.093	2776.3639	1332.45	448.35
1004.2131	2777.5548	1338	453.95
1004.3331	2778.745	1336.65	451.95
1004.4531	2779.9346	1336.05	451.85
1004.5731	2781.1235	1337.5	453.05
1004.693	2782.3117	1338.2	458.6
1004.8129	2783.4992	1336.4	453.9
1004.9328	2784.6861	1338.4	453.95
1005.0526	2785.8723	1341.7	457.7
1005.1723	2787.0579	1349.45	464
1005.2921	2788.2428	1353.95	471.7
1005.4118	2789.427	1348.4	468.3
1005.5314	2790.6106	1359.95	477.75
1005.651	2791.7935	1365.55	483.25
1005.7706	2792.9757	1369	488.5
1005.8902	2794.1573	1378.75	493.4
1006.0097	2795.3382	1381.95	501.5
1006.1291	2796.5184	1388.65	506.25
1006.2485	2797.698	1396.25	511.2
1006.3679	2798.8769	1404.4	520.6
1006.4873	2800.0551	1414.1	529.25
1006.6066	2801.2327	1428.85	545.05
1006.7258	2802.4096	1432.45	552.6
1006.8451	2803.5859	1446.05	562.3
1006.9642	2804.7615	1456.8	572.6
1007.0834	2805.9364	1479.85	597.15
1007.2025	2807.1106	1502.4	621.45
1007.3216	2808.2842	1516.1	632.55
1007.4406	2809.4572	1545.2	661.5
1007.5596	2810.6294	1563.6	682.1
1007.6785	2811.801	1593.45	712.95
1007.7975	2812.972	1622.8	743.55
1007.9163	2814.1423	1663.2	781.85
1008.0352	2815.3119	1714.3	829.75
1008.154	2816.4808	1754.4	872.35
1008.2727	2817.6491	1792.65	910.05
1008.3914	2818.8167	1835	955.2
1008.5101	2819.9837	1899.75	1013.8
1008.6288	2821.15	1934.45	1053.65
1008.7474	2822.3157	1992.95	1113.35
1008.8659	2823.4807	2045.75	1162.05
1008.9844	2824.645	2110.85	1228
1009.1029	2825.8086	2164.3	1285.2
1009.2214	2826.9716	2219	1337.4
1009.3398	2828.134	2271.6	1388.95
1009.4581	2829.2957	2316.55	1435
1009.5764	2830.4567	2351.8	1470.55
1009.6947	2831.617	2373.15	1491.95
1009.813	2832.7767	2377.65	1497.7
1009.9312	2833.9358	2381.05	1500.2
1010.0493	2835.0941	2376.1	1492.6
1010.1675	2836.2519	2357.2	1476.1
1010.2855	2837.4089	2349.3	1467
1010.4036	2838.5653	2325.55	1444.75
1010.5216	2839.7211	2303.2	1421.35
1010.6396	2840.8761	2309.05	1425.95
1010.7575	2842.0306	2313.55	1433.45
1010.8754	2843.1843	2332.45	1452.1
1010.9932	2844.3374	2353.25	1471.5
1011.111	2845.4899	2393.25	1509.9
1011.2288	2846.6417	2439.15	1557.95
1011.3465	2847.7928	2485.95	1606.3
1011.4642	2848.9433	2537.9	1656.55
1011.5818	2850.0931	2586.85	1706.25
1011.6995	2851.2422	2651.65	1768.9
1011.817	2852.3907	2704.2	1822.7
1011.9345	2853.5385	2757.3	1874.75
1012.052	2854.6857	2815.5	1907.4
1012.1695	2855.8323	2830.15	1949.85
1012.2869	2856.9781	2879.95	1998.5
1012.4042	2858.1233	2939.8	2059.4
1012.5216	2859.2679	2972.3	2092
1012.6389	2860.4118	3023.95	2144.75
1012.7561	2861.555	3067.05	2181.6
1012.8733	2862.6976	3107.3	2226.65
1012.9905	2863.8395	3131.45	2251.45
1013.1076	2864.9808	3172.6	2292.95
1013.2247	2866.1214	3191.6	2312.1
1013.3417	2867.2614	3205.15	2324.05
1013.4587	2868.4007	3217.6	2335.45
1013.5757	2869.5393	3237.45	2353.55
1013.6926	2870.6773	3257.55	2373.35
1013.8095	2871.8146	3259.95	2375.05
1013.9263	2872.9513	3258.75	2377.6
1014.0431	2874.0874	3260.25	2378.3
1014.1599	2875.2227	3244	2363.15
1014.2766	2876.3574	3234.05	2353.25
1014.3933	2877.4915	3196.2	2315.1
1014.51	2878.6249	3162.55	2282.6
1014.6266	2879.7577	3159.4	2276.15
1014.7431	2880.8898	3138.45	2248.85
1014.8596	2882.0212	3120.85	2240.65
1014.9761	2883.152	3118.25	2238.35
1015.0925	2884.2821	3086.75	2207.7
1015.2089	2885.4116	3096.15	2215.25
1015.3253	2886.5405	3102.75	2222.95
1015.4416	2887.6686	3121.7	2240.6
1015.5579	2888.7962	3110.3	2232.7
1015.6741	2889.923	3111.85	2231.45
1015.7903	2891.0493	3129.4	2249.15
1015.9065	2892.1748	3131.55	2249.45
1016.0226	2893.2997	3138.3	2256.95
1016.1387	2894.424	3157.45	2278.65
1016.2547	2895.5476	3185.5	2303.8
1016.3707	2896.6706	3189.05	2309.4
1016.4866	2897.7929	3198.2	2318.75
1016.6025	2898.9145	3224.65	2342.7
1016.7184	2900.0355	3244	2362
1016.8342	2901.1559	3282.25	2402.5
1016.95	2902.2756	3300.05	2416.95
1017.0658	2903.3946	3330.8	2448.9
1017.1815	2904.513	3357.4	2474.2
1017.2971	2905.6308	3377.2	2498.1
1017.4127	2906.7479	3406.75	2524.85
1017.5283	2907.8643	3427.6	2546.3
1017.6439	2908.9801	3446.05	2566.1
1017.7594	2910.0953	3448.1	2570.7
1017.8748	2911.2098	3450.05	2565.9
1017.9902	2912.3236	3450.15	2565.1
1018.1056	2913.4368	3444.5	2562.35
1018.2209	2914.5494	3409.5	2527.4
1018.3362	2915.6613	3392.15	2506.35
1018.4515	2916.7725	3362.15	2480
1018.5667	2917.8831	3347.25	2465.55
1018.6819	2918.9931	3294.35	2411.7
1018.797	2920.1024	3279.35	2397.9
1018.9121	2921.211	3259.8	2379.6
1019.0271	2922.319	3248.45	2369.8
1019.1421	2923.4264	3239.55	2360.7
1019.2571	2924.5331	3233.35	2354.8
1019.372	2925.6391	3218.1	2337.7
1019.4869	2926.7445	3223.45	2344.5
1019.6017	2927.8493	3227.45	2347.7
1019.7165	2928.9534	3227.45	2348.25
1019.8313	2930.0569	3229.95	2346.65
1019.946	2931.1597	3231.95	2351.45
1020.0606	2932.2619	3245.75	2367.4
1020.1753	2933.3634	3264.3	2385.1
1020.2899	2934.4643	3260.3	2374.65
1020.4044	2935.5645	3245.7	2358.95
1020.5189	2936.6641	3237.6	2354.75
1020.6334	2937.763	3209.9	2329.7
1020.7478	2938.8613	3160.4	2278.45
1020.8622	2939.959	3132.85	2247.7
1020.9765	2941.056	3078.9	2199.15
1021.0908	2942.1523	3019.3	2138.3
1021.2051	2943.248	2949.75	2070.35
1021.3193	2944.3431	2868.2	1989.25
1021.4334	2945.4375	2782.5	1904.2
1021.5476	2946.5313	2683.7	1806.15
1021.6617	2947.6244	2612.2	1731.75
1021.7757	2948.7169	2509.7	1629.45
1021.8897	2949.8087	2429.05	1549.1
1022.0037	2950.8999	2347.1	1465.5
1022.1176	2951.9904	2269.1	1392
1022.2315	2953.0803	2215.9	1336.75
1022.3453	2954.1696	2153.4	1272.65
1022.4591	2955.2582	2106.6	1226.55
1022.5728	2956.3462	2065.5	1187.15
1022.6865	2957.4335	2036.7	1157.65
1022.8002	2958.5202	1999.15	1116.3
1022.9138	2959.6062	1972.45	1094.9
1023.0274	2960.6916	1960.5	1081.35
1023.141	2961.7764	1940.65	1059.05
1023.2545	2962.8605	1922.15	1040.2
1023.3679	2963.9439	1908.6	1029.5
1023.4813	2965.0267	1894.25	1015.05
1023.5947	2966.1089	1911.65	1011.35
1023.708	2967.1905	1889.1	1011.3
1023.8213	2968.2714	1878.05	998.9
1023.9346	2969.3516	1881	1001.25
1024.0478	2970.4312	1898.5	1010.65
1024.1609	2971.5102	1878.6	999.45
1024.274	2972.5885	1894.95	1015.7
1024.3871	2973.6662	1901.45	1017.2
1024.5002	2974.7432	1900.65	1021.7
1024.6132	2975.8196	1890.35	1009.1
1024.7261	2976.8954	1886.55	1009.75
1024.839	2977.9705	1879.25	997.15
1024.9519	2979.045	1875	996.95
1025.0647	2980.1188	1865.65	987.25
1025.1775	2981.192	1845.95	970.4
1025.2902	2982.2645	1831.1	952.75
1025.4029	2983.3364	1809.95	929.05
1025.5156	2984.4077	1784.5	904.95
1025.6282	2985.4783	1769.25	882.95
1025.7407	2986.5483	1730.65	854.45
1025.8532	2987.6177	1707.35	830.1
1025.9657	2988.6864	1677.3	798.55
1026.0782	2989.7545	1648.1	767.2
1026.1906	2990.8219	1617.3	738.65
1026.3029	2991.8887	1585.6	704
1026.4152	2992.9548	1557.65	678.15
1026.5275	2994.0204	1533.75	656.8
1026.6397	2995.0852	1501.05	622.6
1026.7519	2996.1495	1473.25	594.25
1026.864	2997.2131	1455.25	576
1026.9761	2998.276	1426.5	550.45
1027.0882	2999.3383	1409.8	530.05
1027.2002	3000.4	1400.2	518.25
1027.3122	3001.4611	1363.2	483.45
1027.4241	3002.5215	1359.55	480.95
1027.536	3003.5812	1350.3	470.15
1027.6478	3004.6404	1329.55	449.9
1027.7596	3005.6989	1321.95	441.35
1027.8714	3006.7567	1312.4	434.1
1027.9831	3007.8139	1333	421.45
1028.0947	3008.8705	1291.75	414.25
1028.2064	3009.9264	1278.2	395.3
1028.3179	3010.9818	1275.9	398.05
1028.4295	3012.0364	1260.9	381.15
1028.541	3013.0905	1256.9	378.3
1028.6524	3014.1439	1252.15	372.35
1028.7638	3015.1966	1246.35	368.25
1028.8752	3016.2487	1247.95	369.8
1028.9865	3017.3002	1244.1	360.85
1029.0978	3018.3511	1236.75	358.15
1029.209	3019.4013	1234.7	354.15
1029.3202	3020.4509	1234.6	356.45
1029.4314	3021.4998	1229.75	350.65
1029.5425	3022.5481	1227.8	350.15
1029.6535	3023.5958	1227.7	349.85
1029.7645	3024.6428	1229.55	349.85
1029.8755	3025.6892	1226.95	347.7
1029.9864	3026.735	1217.75	339.75
1030.0973	3027.7802	1223.3	346.6
1030.2082	3028.8247	1219.9	340.95
1030.319	3029.8685	1222.6	345.2
1030.4297	3030.9118	1222.55	342.7
1030.5404	3031.9544	1227	349.3
1030.6511	3032.9963	1224.55	345.85
1030.7617	3034.0376	1230.7	351.25
1030.8723	3035.0783	1227.15	346.35
1030.9829	3036.1184	1228.9	349.25
1031.0934	3037.1578	1229.45	351.6
1031.2038	3038.1966	1235.9	358.15
1031.3142	3039.2348	1225.05	349.1
1031.4246	3040.2723	1237.2	350.65
1031.5349	3041.3092	1231.1	355.6
1031.6452	3042.3455	1235.35	358.75
1031.7554	3043.3811	1233.3	351.45
1031.8656	3044.4161	1232.65	354.65
1031.9758	3045.4505	1230.9	351.9
1032.0859	3046.4842	1225.75	346
1032.1959	3047.5173	1224.25	345.65
1032.3059	3048.5498	1225.45	347.05
1032.4159	3049.5816	1224.55	346.3
1032.5258	3050.6128	1226.2	347.2
1032.6357	3051.6434	1217.6	338.05
1032.7455	3052.6734	1217.25	336.3
1032.8553	3053.7027	1216.15	336
1032.9651	3054.7314	1216	338.85
1033.0748	3055.7594	1204.45	327.05
1033.1845	3056.7868	1210.2	331.25
1033.2941	3057.8136	1201.3	324.2
1033.4037	3058.8398	1211.2	333
1033.5132	3059.8653	1200.9	323.85
1033.6227	3060.8902	1196.9	319.1
1033.7321	3061.9145	1197.9	320.35
1033.8415	3062.9381	1200.8	322.65
1033.9509	3063.9612	1212.4	319.3
1034.0602	3064.9835	1193.1	315.15
1034.1694	3066.0053	1189.85	310.5
1034.2787	3067.0264	1181.95	304.5
1034.3878	3068.0469	1188	309.95
1034.497	3069.0668	1183.5	302.45
1034.6061	3070.086	1174.15	296.65
1034.7151	3071.1046	1176.4	296.2
1034.8241	3072.1226	1167.5	288.65
1034.9331	3073.1399	1161.5	282
1035.042	3074.1567	1160	282.9
1035.1508	3075.1727	1155.8	274.55
1035.2597	3076.1882	1141.95	265.6
1035.3684	3077.203	1139.8	262.7
1035.4772	3078.2173	1132.65	252.75
1035.5859	3079.2308	1132.5	252.4
1035.6945	3080.2438	1120.3	240.15
1035.8031	3081.2561	1112.35	234.35
1035.9117	3082.2678	1115.6	240.55
1036.0202	3083.2789	1108.25	230.25
1036.1286	3084.2893	1101.8	223.15
1036.2371	3085.2991	1101.25	224.75
1036.3454	3086.3083	1093.95	212
1036.4538	3087.3169	1090.6	213.65
1036.562	3088.3248	1085.05	206.15
1036.6703	3089.3321	1080.55	201.7
1036.7785	3090.3388	1077.8	200.25
1036.8866	3091.3449	1071.25	194.1
1036.9948	3092.3503	1074.1	193.6
1037.1028	3093.3551	1068.8	189.35
1037.2108	3094.3593	1062.4	185.9
1037.3188	3095.3629	1065.95	186.25
1037.4267	3096.3658	1061.8	184.45
1037.5346	3097.3681	1053.85	177.5
1037.6425	3098.3698	1052.1	174.1
1037.7503	3099.3708	1058.5	174
1037.858	3100.3713	1049.05	173.8
1037.9657	3101.3711	1045.9	168.3
1038.0734	3102.3702	1162.35	169.2
1038.181	3103.3688	1042.55	162.65
1038.2886	3104.3667	1039.95	161.25
1038.3961	3105.364	1033.3	155.9
1038.5036	3106.3607	1038.95	159.55
1038.611	3107.3568	1035.1	155.95
1038.7184	3108.3522	1029.85	153.5
1038.8257	3109.347	1033.8	156.7
1038.933	3110.3412	1033.6	152.85
1039.0403	3111.3348	1029.6	151.45
1039.1475	3112.3277	1024.8	147.65
1039.2547	3113.32	1026.45	147.9
1039.3618	3114.3117	1022.7	143.7
1039.4689	3115.3028	1018.3	141.6
1039.5759	3116.2932	1020.85	139.2
1039.6829	3117.2831	1026.35	144.3
1039.7898	3118.2723	1013.25	134.45
1039.8967	3119.2608	1008.45	131.35
1040.0035	3120.2488	1013.45	136.3
1040.1103	3121.2361	1010.65	132.9
1040.2171	3122.2229	1007.5	129.35
1040.3238	3123.209	1011.95	133.65
1040.4305	3124.1944	1005.05	125.9
1040.5371	3125.1793	1007.95	128.75
1040.6437	3126.1635	1002.35	125.4
1040.7502	3127.1471	1003.5	125.75
1040.8567	3128.1301	1003.85	126.25
1040.9631	3129.1125	995.55	117.25
1041.0695	3130.0942	1002.3	125.75
1041.1759	3131.0753	1005.3	117.55
1041.2822	3132.0558	1002.2	121.75
1041.3884	3133.0357	994.55	115.45
1041.4946	3134.015	991	113.95
1041.6008	3134.9936	994.5	115.4
1041.7069	3135.9716	1011.75	114.55
1041.813	3136.949	995.15	118.75
1041.919	3137.9258	1009.95	112.95
1042.025	3138.902	996.2	114.5
1042.1309	3139.8775	988.55	112.25
1042.2368	3140.8524	987.55	109
1042.3427	3141.8267	987.75	108.6
1042.4485	3142.8004	987.45	107.95
1042.5542	3143.7735	993.1	108.1
1042.6599	3144.7459	985	106.35
1042.7656	3145.7178	984.8	105.7
1042.8712	3146.689	980.75	104.45
1042.9768	3147.6596	984.1	104.55
1043.0823	3148.6295	980.35	103.6
1043.1878	3149.5989	982.2	107.25
1043.2932	3150.5676	976.05	100.55
1043.3986	3151.5357	978.75	101.85
1043.5039	3152.5032	977.95	100.45
1043.6092	3153.4701	980.5	103
1043.7145	3154.4364	978.45	96.8
1043.8197	3155.402	974.2	97.75
1043.9248	3156.367	976.9	97.9
1044.03	3157.3315	1012.85	101.4
1044.135	3158.2952	975.6	98.7
1044.24	3159.2584	974.7	97.25
1044.345	3160.221	975.45	99.15
1044.4499	3161.1829	969.8	90.6
1044.5548	3162.1442	971.4	94.15
1044.6596	3163.105	969.7	93.7
1044.7644	3164.065	971.2	94.2
1044.8692	3165.0245	974.05	92.65
1044.9739	3165.9834	965.6	91.35
1045.0785	3166.9416	965.2	87.7
1045.1831	3167.8993	966.6	90.45
1045.2877	3168.8563	968.2	90
1045.3922	3169.8127	966.25	89.8
1045.4966	3170.7684	963.9	86.6
1045.6011	3171.7236	964.05	88.1
1045.7054	3172.6782	965.2	87.75
1045.8098	3173.6321	965.6	87.65
1045.914	3174.5854	968.1	88.15
1046.0183	3175.5381	966.25	89.8
1046.1224	3176.4902	962.25	86.35
1046.2266	3177.4417	959.7	82.6
1046.3307	3178.3926	957.7	81.3
1046.4347	3179.3428	957.8	81.45
1046.5387	3180.2924	959.7	83.85
1046.6427	3181.2415	962.7	86.7
1046.7466	3182.1899	960.7	81.7
1046.8504	3183.1377	961.35	85.85
1046.9542	3184.0848	959.3	79.35
1047.058	3185.0314	956.55	78.4
1047.1617	3185.9773	958.35	80.05
1047.2654	3186.9227	955.9	78.2
1047.369	3187.8674	954.9	78.05
1047.4726	3188.8115	957.1	77.6
1047.5761	3189.755	956.45	80.4
1047.6796	3190.6979	953.3	77.9
1047.783	3191.6402	952.5	76.65
1047.8864	3192.5818	952	76.05
1047.9898	3193.5229	959	75.75
1048.0931	3194.4633	949	73.3
1048.1963	3195.4031	954.35	76.25
1048.2995	3196.3423	950.05	72.75
1048.4027	3197.2809	948.1	69.2
1048.5058	3198.2189	948.8	71.4
1048.6089	3199.1563	967.7	74.35
1048.7119	3200.0931	947.05	72
1048.8148	3201.0292	948.1	72.2
1048.9178	3201.9648	947.15	71
1049.0206	3202.8997	952.6	72.95
1049.1235	3203.834	946.8	71.25
1049.2262	3204.7677	943.65	66.65
1049.329	3205.7008	948.1	71.65
1049.4317	3206.6333	946.3	69.05
1049.5343	3207.5652	946.9	66.85
1049.6369	3208.4964	947.55	72.45
1049.7394	3209.4271	942.5	65.8
1049.8419	3210.3571	943.3	66.65
1049.9444	3211.2865	944.6	66.75
1050.0468	3212.2154	946.85	68.7
1050.1491	3213.1436	946	66
1050.2514	3214.0712	948.4	64.75
1050.3537	3214.9982	939.55	61.85
1050.4559	3215.9246	943.5	64.45
1050.5581	3216.8503	941.35	64.3
1050.6602	3217.7755	943.5	65.65
1050.7623	3218.7001	938.05	61.65
1050.8643	3219.624	941.75	64.2
1050.9663	3220.5473	940.8	63.95
1051.0682	3221.4701	940.75	63.5
1051.1701	3222.3922	941.15	61.75
1051.2719	3223.3137	937.05	61.3
1051.3737	3224.2346	941.5	62.75
1051.4754	3225.1549	937.1	61.15
1051.5771	3226.0746	935.85	60.45
1051.6788	3226.9937	934.65	56.9
1051.7804	3227.9121	933.5	55.7
1051.8819	3228.83	934.75	59
1051.9834	3229.7473	935.75	57.8
1052.0849	3230.6639	938.1	63.2
1052.1863	3231.5799	933.95	56.65
1052.2876	3232.4954	935.2	56.05
1052.3889	3233.4102	937.15	61.25
1052.4902	3234.3244	934.25	58.55
1052.5914	3235.238	933.05	57.35
1052.6926	3236.151	952.5	53.95
1052.7937	3237.0634	931.8	56.05
1052.8948	3237.9752	930.25	53.45
1052.9958	3238.8864	933.1	54.05
1053.0968	3239.797	933.5	55.8
1053.1977	3240.7069	931.85	55.5
1053.2986	3241.6163	934.15	55.8
1053.3994	3242.5251	929.4	52.85
1053.5002	3243.4332	928.55	52.9
1053.6009	3244.3408	929.05	50.5
1053.7016	3245.2477	926.95	51.5
1053.8022	3246.154	929.5	50.7
1053.9028	3247.0598	929.15	51.8
1054.0034	3247.9649	928.75	53.4
1054.1039	3248.8694	926.85	50.3
1054.2043	3249.7733	927.55	52.15
1054.3047	3250.6766	928.4	54.1
1054.4051	3251.5793	928.4	51.5
1054.5054	3252.4814	924.75	48.25
1054.6056	3253.3829	924.5	48.85
1054.7058	3254.2838	925.7	47.45
1054.806	3255.1841	920.85	44.1
1054.9061	3256.0838	923.5	48.05
1055.0061	3256.9829	922.15	46.6
1055.1062	3257.8814	925.05	46.5
1055.2061	3258.7792	925.25	49.1
1055.306	3259.6765	923.45	44.1
1055.4059	3260.5731	922.7	47.8
1055.5057	3261.4692	919.7	41.15
1055.6055	3262.3647	919.2	42.3
1055.7052	3263.2595	919.15	44.95
1055.8049	3264.1538	915.2	38.7
1055.9045	3265.0474	918	41.85
1056.0041	3265.9404	917.65	41.9
1056.1036	3266.8329	914.6	41.25
1056.2031	3267.7247	927.6	42.7
1056.3025	3268.616	912.8	38.75
1056.4019	3269.5066	913.45	35.35
1056.5013	3270.3966	913.2	34.85
1056.6005	3271.286	910.35	33.75
