Software Version:	3.9.2.0
Unit SN:	10000200
Spectrometer SN:	6960
Date:	3/8/2024 11:15:46 AM
Data Line Index:	25
Spectral Points:	2048
Integration time (ms):	125
Averages:	20
Delay (ms):	30000
Sequence Number:	1
Processing:	dark subtract
Laser Power (mW):	300
Laser Current (mA):	823
Laser Diode Temp (C):	25.1
Laser Case Temp (C):	24.7
System Temp (C):	24.6
Spectrometer Temp (C):	22.4
CCD Temp (C):	0.007
Secondary Temp (C):	20.008
Heatsink Temp (C):	19.426
CCDPCB Temp (C):	33.317
SecondaryPCB Temp (C):	26.147

Wavelength	RamanShift	Raw Counts	Dark Subtracted
787.061	30.1047	418.95	8.65
787.2016	32.3739	419.75	12.75
787.3422	34.6426	421.9	13
787.4828	36.9109	421.7	11.05
787.6235	39.1787	427.8	12
787.7642	41.4461	435.1	17.3
787.9049	43.7131	440.45	16.8
788.0456	45.9796	442.9	18.1
788.1863	48.2456	446	17
788.3271	50.5112	451.95	19.45
788.4679	52.7764	456.35	21.65
788.6087	55.0411	462.1	23
788.7496	57.3054	468.75	22.5
788.8904	59.5692	470.15	25.85
789.0313	61.8326	475.1	25.55
789.1722	64.0955	482.25	30.45
789.3132	66.3579	492.4	33.55
789.4541	68.6199	499.65	37.65
789.5951	70.8815	515.35	49.95
789.7361	73.1426	539.15	69.4
789.8771	75.4032	597.65	124.25
790.0181	77.6634	735.25	259.95
790.1592	79.9231	1055.95	574.3
790.3003	82.1824	1717.1	1232.85
790.4414	84.4412	2807.65	2313.05
790.5825	86.6995	4209.1	3705.25
790.7237	88.9574	5555.05	5041.45
790.8648	91.2148	6461	5940.05
791.006	93.4717	6884.85	6358.45
791.1472	95.7282	6964.2	6438
791.2885	97.9842	6938.95	6407.75
791.4297	100.2398	6826.2	6293.2
791.571	102.4949	6711.15	6176
791.7123	104.7495	6637.45	6097.9
791.8536	107.0036	6547.85	6006.45
791.9949	109.2573	6409.8	5870.25
792.1363	111.5105	6264.85	5723.5
792.2777	113.7632	6086.2	5542.25
792.4191	116.0154	5916.8	5362.05
792.5605	118.2672	5681.65	5131
792.7019	120.5185	5462.9	4913.1
792.8434	122.7693	5264.6	4711.2
792.9849	125.0197	5073.05	4515.8
793.1264	127.2696	4911.75	4350.95
793.2679	129.519	4801.05	4237.65
793.4094	131.7679	4721.35	4156.8
793.551	134.0163	4670.55	4101.05
793.6926	136.2642	4648.85	4076.1
793.8342	138.5117	4628.2	4052.55
793.9758	140.7587	4579.6	4003.8
794.1175	143.0052	4523.5	3943.4
794.2591	145.2512	4434.1	3854
794.4008	147.4967	4306.15	3723.5
794.5425	149.7417	4182.9	3596.3
794.6842	151.9863	4126.25	3538.95
794.826	154.2304	4094.4	3502.75
794.9677	156.4739	4071.2	3475.3
795.1095	158.717	4096.65	3498.9
795.2513	160.9596	4146.35	3543.9
795.3931	163.2017	4220.95	3614.85
795.535	165.4433	4277.55	3670.55
795.6768	167.6844	4259.1	3650.25
795.8187	169.925	4201.7	3589.2
795.9606	172.1651	4100.95	3485.65
796.1025	174.4047	3994.25	3372.9
796.2445	176.6439	3901.05	3279.65
796.3864	178.8825	3826.45	3204.05
796.5284	181.1206	3796.5	3166.7
796.6704	183.3582	3771.65	3138.85
796.8124	185.5954	3762.7	3129.1
796.9544	187.832	3743.5	3106.7
797.0965	190.0681	3738.5	3098.2
797.2386	192.3037	3748.8	3105.9
797.3806	194.5388	3770.4	3124.55
797.5228	196.7734	3788.2	3139.9
797.6649	199.0075	3824.7	3175.05
797.807	201.2411	3869.9	3220.4
797.9492	203.4742	3911.85	3259.15
798.0914	205.7068	3970.65	3312.3
798.2336	207.9389	4014.95	3359.25
798.3758	210.1704	4042.05	3390.9
798.518	212.4015	4034.75	3392.45
798.6603	214.632	4042.6	3408.85
798.8025	216.862	4033.1	3398.85
798.9448	219.0915	4054.9	3417.85
799.0871	221.3205	4102.15	3459.6
799.2294	223.549	4103.95	3470.05
799.3718	225.777	4123.3	3484.6
799.5141	228.0044	4131.85	3490.2
799.6565	230.2314	4099.55	3458.05
799.7989	232.4578	4083.3	3437.7
799.9413	234.6837	4045.95	3387.8
800.0837	236.909	4017.05	3358.65
800.2262	239.1339	4006	3323.25
800.3687	241.3582	3974.05	3304.9
800.5111	243.582	3982.7	3282.5
800.6536	245.8053	3996.05	3308.05
800.7961	248.0281	4009.3	3329.15
800.9387	250.2503	4025	3338.3
801.0812	252.472	4046.6	3358.55
801.2238	254.6932	4040.95	3356.7
801.3664	256.9139	4036.35	3348.4
801.509	259.134	4071.8	3378
801.6516	261.3536	4122.5	3431.85
801.7942	263.5727	4185.25	3494.45
801.9369	265.7912	4279.1	3590.05
802.0795	268.0092	4416.6	3725.8
802.2222	270.2267	4544.65	3852.2
802.3649	272.4436	4656.8	3960.9
802.5076	274.6601	4721.35	4015.1
802.6504	276.8759	4775.2	4072.75
802.7931	279.0913	4832.95	4131.35
802.9359	281.3061	4854.95	4154
803.0787	283.5204	4919.7	4215.75
803.2215	285.7341	4963.5	4255.7
803.3643	287.9473	5020.85	4309.85
803.5071	290.16	5014.75	4306.55
803.6499	292.3721	4933.45	4226.3
803.7928	294.5837	4848.65	4141.25
803.9357	296.7947	4748.15	4041.35
804.0786	299.0052	4702.35	3992.75
804.2215	301.2152	4659.2	3948.1
804.3644	303.4246	4632.55	3924.15
804.5074	305.6334	4629.7	3917.8
804.6503	307.8418	4605.9	3891.75
804.7933	310.0495	4552.2	3835.35
804.9363	312.2568	4482.05	3767.25
805.0793	314.4635	4383.4	3667.05
805.2223	316.6696	4289.35	3568.65
805.3653	318.8752	4190.45	3462
805.5084	321.0802	4126.95	3403
805.6514	323.2847	4095.05	3369.85
805.7945	325.4887	4107.8	3382.85
805.9376	327.692	4138.75	3410.1
806.0807	329.8949	4236.15	3508.6
806.2238	332.0972	4340.6	3611
806.367	334.2989	4424.8	3693.65
806.5101	336.5001	4440.95	3710.55
806.6533	338.7007	4384.15	3651.15
806.7965	340.9008	4272.85	3537.15
806.9397	343.1003	4148.55	3410.3
807.0829	345.2992	4027.4	3289.3
807.2261	347.4976	3913.95	3175.7
807.3693	349.6955	3852.7	3110.05
807.5126	351.8927	3810.4	3069.05
807.6559	354.0895	3762	3005.85
807.7991	356.2856	3740.9	2993.15
807.9424	358.4812	3712.9	2965.6
808.0857	360.6763	3711.75	2962.55
808.2291	362.8707	3690	2940.9
808.3724	365.0646	3695.75	2942.1
808.5158	367.258	3706.8	2952.6
808.6591	369.4508	3730.75	2973.7
808.8025	371.643	3797.45	3040.55
808.9459	373.8346	3863	3104.35
809.0893	376.0257	3939.85	3179
809.2327	378.2162	4010.65	3247.95
809.3762	380.4062	4045.5	3282.25
809.5196	382.5956	3998.5	3238.8
809.6631	384.7844	3922.05	3169.45
809.8066	386.9726	3822.2	3069.55
809.9501	389.1603	3744.1	2992.5
810.0936	391.3474	3726.6	2932.35
810.2371	393.5339	3690.5	2934.6
810.3806	395.7199	3707.35	2954.15
810.5241	397.9052	3770.3	3015.2
810.6677	400.09	3858.05	3100.75
810.8113	402.2743	3970.95	3212.6
810.9548	404.4579	4055.25	3296.55
811.0984	406.641	4120.4	3359.9
811.2421	408.8235	4225.1	3463.05
811.3857	411.0054	4311.8	3547.05
811.5293	413.1868	4370.2	3601.35
811.673	415.3675	4410.35	3637.45
811.8166	417.5477	4390.75	3616.45
811.9603	419.7273	4324.05	3546.7
812.104	421.9064	4245.2	3461.95
812.2477	424.0848	4119.05	3342.65
812.3914	426.2627	3982.85	3205.45
812.5351	428.4399	3847.35	3070.95
812.6788	430.6166	3737.3	2957.8
812.8226	432.7928	3642.05	2858.45
812.9663	434.9683	3545.25	2763.2
813.1101	437.1432	3489.25	2704.85
813.2539	439.3176	3455.05	2673.25
813.3977	441.4914	3429.8	2647.4
813.5415	443.6645	3419.85	2636.05
813.6853	445.8371	3417.65	2633.4
813.8291	448.0091	3423.45	2639.65
813.973	450.1806	3405.4	2622.45
814.1168	452.3514	3389.4	2601.4
814.2607	454.5216	3400.55	2603.7
814.4046	456.6913	3412.6	2622.55
814.5485	458.8603	3415.1	2627.15
814.6924	461.0288	3428.65	2641.75
814.8363	463.1967	3423.45	2636.35
814.9802	465.3639	3434.8	2644.1
815.1241	467.5306	3415.85	2626
815.2681	469.6967	3392.3	2601.6
815.412	471.8622	3375.35	2584.25
815.556	474.0271	3381.5	2592.95
815.7	476.1914	3373.85	2579.7
815.844	478.3551	3354.55	2562.25
815.988	480.5182	3359.2	2567.3
816.132	482.6807	3366.6	2574.05
816.276	484.8426	3393.6	2601.35
816.4201	487.0039	3486.4	2692.95
816.5641	489.1647	3612.05	2814.7
816.7082	491.3248	3731.6	2937.25
816.8522	493.4843	3755.85	2959.65
816.9963	495.6432	3748.25	2953.15
817.1404	497.8015	3676.8	2875.25
817.2845	499.9592	3568	2767.25
817.4286	502.1163	3452.85	2650
817.5727	504.2728	3356.9	2553.6
817.7168	506.4287	3305.35	2508
817.861	508.5839	3255.65	2456.55
818.0051	510.7386	3233.5	2435.25
818.1493	512.8927	3248.25	2440.5
818.2935	515.0461	3274.6	2471.15
818.4377	517.199	3297.6	2493.05
818.5818	519.3512	3396.05	2590.7
818.726	521.5029	3544.15	2729.6
818.8703	523.6539	3700.6	2893.2
819.0145	525.8043	3723.55	2915.5
819.1587	527.9541	3609.05	2799.2
819.303	530.1033	3436.6	2627.2
819.4472	532.2519	3314	2504.35
819.5915	534.3999	3272.2	2461.65
819.7357	536.5472	3253.1	2442.4
819.88	538.694	3253.7	2444
820.0243	540.8401	3262.3	2450.35
820.1686	542.9856	3307.45	2494.9
820.3129	545.1305	3351.75	2536.3
820.4572	547.2748	3390.95	2575.55
820.6016	549.4185	3402.1	2585.85
820.7459	551.5615	3417.05	2603.45
820.8902	553.704	3451.1	2637.9
821.0346	555.8458	3476.25	2663.85
821.1789	557.987	3535.3	2722.5
821.3233	560.1276	3608.55	2795.15
821.4677	562.2675	3745.3	2932.8
821.6121	564.4069	3917.35	3102.2
821.7565	566.5456	4016.85	3203.4
821.9009	568.6837	3973.65	3158.95
822.0453	570.8212	3789.9	2976.1
822.1897	572.958	3566.65	2746.45
822.3342	575.0942	3407.9	2592.45
822.4786	577.2299	3336.65	2519
822.6231	579.3648	3287.8	2470
822.7675	581.4992	3260.6	2443.8
822.912	583.6329	3280.2	2462.5
823.0565	585.766	3353.45	2537.35
823.201	587.8985	3438.1	2622.35
823.3454	590.0304	3571.7	2740
823.4899	592.1616	3657.15	2833.75
823.6345	594.2922	3686.65	2862.65
823.779	596.4222	3612.15	2788.85
823.9235	598.5515	3479.5	2655.85
824.068	600.6802	3327.95	2504.15
824.2126	602.8083	3232.65	2406.6
824.3571	604.9358	3192.55	2366
824.5017	607.0626	3169.8	2342.85
824.6462	609.1888	3197	2369.6
824.7908	611.3144	3242.1	2415.35
824.9354	613.4393	3339.8	2512.1
825.08	615.5636	3441.6	2613.35
825.2246	617.6873	3570.8	2744.55
825.3692	619.8103	3662.4	2834.45
825.5138	621.9327	3661.6	2828.9
825.6584	624.0544	3594.3	2765.6
825.803	626.1756	3451.6	2622.5
825.9477	628.2961	3317.55	2486.5
826.0923	630.4159	3252	2423.05
826.237	632.5351	3228.05	2396.5
826.3816	634.6537	3234.1	2401.45
826.5263	636.7716	3208.9	2377.15
826.6709	638.8889	3198.8	2364.9
826.8156	641.0056	3210.25	2376.4
826.9603	643.1216	3230.4	2395.05
827.105	645.237	3239.65	2402.25
827.2497	647.3518	3195.05	2361.6
827.3944	649.4659	3140.7	2308.9
827.5391	651.5793	3103.1	2271.05
827.6838	653.6922	3044.75	2213.05
827.8285	655.8043	3034.45	2201.55
827.9733	657.9159	3007.4	2171.6
828.118	660.0268	2990.8	2154.15
828.2627	662.137	2989.65	2152.8
828.4075	664.2466	2992.05	2153.15
828.5522	666.3556	2992.05	2154.6
828.697	668.4639	2975.35	2136.3
828.8418	670.5716	2962.5	2124.7
828.9865	672.6786	2940.75	2103.6
829.1313	674.785	2918.3	2077.25
829.2761	676.8907	2912.4	2072.4
829.4209	678.9958	2913.35	2076.2
829.5657	681.1002	2919.7	2077.4
829.7105	683.204	2916.95	2072.6
829.8553	685.3072	2924.7	2079.45
830.0001	687.4097	2914.1	2071.6
830.1449	689.5115	2920.85	2078.1
830.2898	691.6127	2895.8	2053.55
830.4346	693.7132	2897.35	2056.5
830.5794	695.8131	2905.1	2049.2
830.7243	697.9123	2908.65	2063.4
830.8691	700.0109	2909.65	2066.75
831.014	702.1089	2932.9	2088.9
831.1588	704.2061	2967.15	2123.5
831.3037	706.3028	3034.85	2189.7
831.4486	708.3987	3075.1	2230.05
831.5935	710.4941	3116.95	2271.4
831.7383	712.5887	3126.45	2280.25
831.8832	714.6827	3121.5	2271.15
832.0281	716.7761	3103.65	2258.8
832.173	718.8688	3093.45	2249.85
832.3179	720.9608	3085.35	2234.7
832.4628	723.0522	3118.65	2268
832.6077	725.1429	3139.1	2291.55
832.7527	727.233	3225.05	2376.6
832.8976	729.3224	3373.7	2524.5
833.0425	731.4112	3507.1	2657.65
833.1874	733.4993	3546.65	2696.25
833.3324	735.5867	3447.75	2598.1
833.4773	737.6735	3271.6	2423.1
833.6222	739.7596	3117.95	2268.15
833.7672	741.845	3028.35	2177.15
833.9122	743.9298	2982.75	2130.8
834.0571	746.014	2985.9	2136.45
834.2021	748.0974	2993.35	2140.6
834.347	750.1802	2992.7	2140.65
834.492	752.2624	2981	2129.6
834.637	754.3439	2986.7	2131.1
834.782	756.4247	2994.35	2131.35
834.9269	758.5048	3001.5	2150
835.0719	760.5843	3054.15	2201.45
835.2169	762.6631	3118.25	2264
835.3619	764.7413	3250.2	2398.7
835.5069	766.8188	3442.7	2585.85
835.6519	768.8956	3651.5	2795.25
835.7969	770.9718	3775.5	2922.05
835.9419	773.0473	3762.5	2909.05
836.0869	775.1221	3678.7	2824.8
836.232	777.1962	3634.45	2780.75
836.377	779.2697	3764.35	2908.85
836.522	781.3426	4029.5	3155.95
836.667	783.4147	4215.4	3357.65
836.8121	785.4862	4219.55	3364.35
836.9571	787.557	4021.6	3166.6
837.1021	789.6271	3729.15	2872.55
837.2472	791.6966	3430.45	2571.2
837.3922	793.7654	3172	2316.05
837.5373	795.8335	3032.25	2176.1
837.6823	797.901	2954.6	2098.7
837.8274	799.9678	2928.7	2069.55
837.9724	802.0339	2938.35	2082
838.1175	804.0993	2950.25	2081.65
838.2626	806.1641	2942.2	2084.6
838.4076	808.2282	2911.15	2051.45
838.5527	810.2916	2873.15	2011.1
838.6978	812.3544	2832.25	1976.7
838.8428	814.4164	2805.35	1949.2
838.9879	816.4778	2830.35	1971.6
839.133	818.5385	2846.25	1986.7
839.2781	820.5986	2921.55	2064.45
839.4232	822.658	3048.85	2187.1
839.5682	824.7166	3187.9	2328.05
839.7133	826.7747	3382.45	2522.65
839.8584	828.832	3580.45	2720.25
840.0035	830.8886	3731.35	2867.6
840.1486	832.9446	3780.25	2921.3
840.2937	834.9999	3725.25	2866.35
840.4388	837.0545	3592.35	2727.55
840.5839	839.1085	3375.15	2513.95
840.729	841.1618	3192.6	2328.25
840.8741	843.2143	3067	2205.5
841.0192	845.2662	2970.3	2109.05
841.1643	847.3175	2918.45	2054.95
841.3095	849.368	2904.05	2041.25
841.4546	851.4179	2886.05	2025.7
841.5997	853.467	2899.9	2039.05
841.7448	855.5155	2899.25	2034.1
841.8899	857.5633	2918.5	2055.65
842.0351	859.6105	2905.1	2042.65
842.1802	861.6569	2885.85	2022.55
842.3253	863.7027	2853.25	1986.6
842.4704	865.7478	2825.85	1961.45
842.6156	867.7922	2789.05	1924.8
842.7607	869.8359	2768.6	1905.8
842.9058	871.8789	2758.55	1895
843.0509	873.9212	2785.4	1888.1
843.1961	875.9629	2775.55	1910.5
843.3412	878.0039	2808.35	1940.3
843.4863	880.0441	2833.5	1968.45
843.6315	882.0837	2866.6	2001.7
843.7766	884.1226	2928.2	2060.5
843.9218	886.1609	3012.55	2147.6
844.0669	888.1984	3131.35	2266.55
844.212	890.2352	3233.25	2367.3
844.3572	892.2714	3266.75	2397.4
844.5023	894.3069	3226.45	2357.9
844.6475	896.3416	3099.55	2233.95
844.7926	898.3757	2986.9	2119.65
844.9377	900.4091	2915.9	2047.35
845.0829	902.4418	2928.25	2055.95
845.228	904.4739	2979.8	2108.8
845.3732	906.5052	3026.95	2159.5
845.5183	908.5358	3042.15	2173.95
845.6635	910.5658	2994.6	2123.2
845.8086	912.595	2903.35	2034.95
845.9538	914.6236	2825.9	1957.05
846.0989	916.6515	2756.45	1888.05
846.2441	918.6786	2719.95	1849.4
846.3892	920.7051	2689.2	1817.35
846.5344	922.7309	2690.6	1821.25
846.6795	924.756	2686.35	1817.6
846.8246	926.7804	2731.5	1861.65
846.9698	928.8041	2748.7	1879.55
847.1149	930.8272	2784.8	1916
847.2601	932.8495	2803.85	1933.45
847.4052	934.8711	2814.85	1942.2
847.5504	936.892	2840.5	1967.95
847.6955	938.9123	2884.1	2010.4
847.8407	940.9318	2950.35	2079.65
847.9858	942.9506	2987.4	2116.65
848.131	944.9688	2986.8	2115.55
848.2761	946.9862	2927	2055.75
848.4213	949.003	2840.5	1967.9
848.5664	951.019	2785.95	1915.3
848.7115	953.0344	2747.05	1875.75
848.8567	955.0491	2708.3	1836.4
849.0018	957.063	2678.6	1806.55
849.147	959.0763	2697.35	1825.45
849.2921	961.0888	2690.5	1817.7
849.4373	963.1007	2677.05	1805.2
849.5824	965.1119	2656.4	1786.6
849.7275	967.1223	2650.9	1782.7
849.8727	969.1321	2624.2	1753.6
850.0178	971.1412	2623.7	1755.45
850.1629	973.1495	2615.25	1743
850.3081	975.1572	2631.35	1728.4
850.4532	977.1641	2626.35	1753.05
850.5983	979.1704	2624.95	1753.6
850.7435	981.1759	2619.05	1740.6
850.8886	983.1808	2599.6	1726.25
851.0337	985.1849	2579.9	1694.4
851.1788	987.1884	2562.5	1686.4
851.324	989.1911	2589.65	1712.95
851.4691	991.1932	2612.65	1739.9
851.6142	993.1945	2618.1	1744.55
851.7593	995.1951	2615.9	1740.2
851.9045	997.1951	2611.5	1733.25
852.0496	999.1943	2607.3	1733.9
852.1947	1001.1928	2604.6	1731.2
852.3398	1003.1906	2631.4	1757.5
852.4849	1005.1877	2664.55	1789.05
852.63	1007.1841	2751.95	1876.3
852.7751	1009.1798	2780.1	1907.25
852.9202	1011.1748	2766.65	1891.4
853.0653	1013.1691	2711.55	1835.7
853.2104	1015.1627	2648.25	1773
853.3555	1017.1556	2556.15	1680.3
853.5006	1019.1477	2527.4	1651.9
853.6457	1021.1392	2482.65	1610.65
853.7908	1023.1299	2469.55	1595.1
853.9359	1025.12	2459.25	1586
854.081	1027.1093	2483.9	1613.75
854.2261	1029.0979	2520.25	1651.5
854.3712	1031.0859	2578.7	1706.95
854.5163	1033.0731	2624.85	1750.7
854.6613	1035.0596	2624.65	1753.3
854.8064	1037.0454	2606.8	1731.2
854.9515	1039.0304	2581.1	1705.15
855.0965	1041.0148	2532.1	1656
855.2416	1042.9985	2481.9	1603.8
855.3867	1044.9814	2444.3	1566.95
855.5317	1046.9636	2437.75	1557.75
855.6768	1048.9452	2449.65	1578.25
855.8219	1050.926	2497	1622.2
855.9669	1052.9061	2537.65	1663.45
856.112	1054.8855	2563.35	1685.3
856.257	1056.8642	2555.6	1679.25
856.4021	1058.8421	2543.2	1661.35
856.5471	1060.8194	2546.55	1669.2
856.6921	1062.7959	2544.15	1666.9
856.8372	1064.7717	2542.7	1664.05
856.9822	1066.7469	2530.55	1652.6
857.1272	1068.7213	2545.05	1665.15
857.2723	1070.695	2572.2	1695.05
857.4173	1072.6679	2615.15	1734.8
857.5623	1074.6402	2665.7	1787.25
857.7073	1076.6117	2715.65	1832.75
857.8523	1078.5826	2672.3	1791
857.9973	1080.5527	2591	1711.8
858.1423	1082.5221	2500.6	1623.45
858.2873	1084.4908	2437.65	1560.95
858.4323	1086.4587	2397.35	1516.3
858.5773	1088.426	2388.5	1510.75
858.7223	1090.3925	2382.2	1498.15
858.8673	1092.3584	2385.4	1509
859.0123	1094.3235	2403.4	1526.25
859.1573	1096.2879	2448.55	1570.1
859.3022	1098.2515	2488.35	1611.5
859.4472	1100.2145	2553.4	1676.8
859.5922	1102.1767	2627.6	1747.45
859.7371	1104.1382	2717.45	1839.8
859.8821	1106.099	2863.1	1981.4
860.027	1108.0591	2978.8	2098
860.172	1110.0185	3062	2178.65
860.3169	1111.9771	3148.85	2271.25
860.4619	1113.9351	3273.35	2394.35
860.6068	1115.8923	3420.4	2541.95
860.7517	1117.8488	3525.7	2645.3
860.8967	1119.8045	3454.15	2575.35
861.0416	1121.7596	3237.55	2356.65
861.1865	1123.7139	2965.95	2087.65
861.3314	1125.6675	2808.15	1927.6
861.4763	1127.6204	2793.75	1915.6
861.6212	1129.5726	2835.85	1955.45
861.7661	1131.524	2854.7	1976.9
861.911	1133.4748	2769.05	1887.4
862.0559	1135.4248	2634.95	1752.7
862.2008	1137.3741	2514.35	1636.1
862.3457	1139.3226	2448.95	1566.9
862.4905	1141.2705	2426.35	1547.4
862.6354	1143.2176	2454.1	1565.85
862.7803	1145.164	2501.2	1619.7
862.9251	1147.1097	2501.55	1621.5
863.07	1149.0546	2464.05	1582.6
863.2148	1150.9989	2388.4	1508.85
863.3597	1152.9424	2350.5	1470.8
863.5045	1154.8852	2315.85	1435.5
863.6493	1156.8272	2302.3	1422.25
863.7942	1158.7686	2299.6	1410.75
863.939	1160.7092	2291.4	1408.6
864.0838	1162.6491	2301.1	1418.45
864.2286	1164.5883	2311.25	1430.55
864.3734	1166.5267	2347.6	1465.2
864.5182	1168.4644	2392.35	1509.5
864.663	1170.4014	2476.2	1594.75
864.8078	1172.3377	2557.35	1676.25
864.9526	1174.2732	2679.7	1799.7
865.0974	1176.2081	2860.85	1979.85
865.2421	1178.1421	3146.35	2262.6
865.3869	1180.0755	3454.35	2576.05
865.5317	1182.0082	3646.8	2765.35
865.6764	1183.9401	3644.8	2764.25
865.8212	1185.8713	3452.05	2571.4
865.9659	1187.8017	3127.1	2249.1
866.1106	1189.7315	2876	1997.9
866.2554	1191.6605	2688.9	1784.45
866.4001	1193.5888	2554.85	1677.4
866.5448	1195.5163	2476.55	1597.05
866.6895	1197.4432	2425.45	1542.65
866.8342	1199.3693	2385.45	1506.8
866.9789	1201.2947	2349	1461
867.1236	1203.2193	2331.35	1452.8
867.2683	1205.1432	2320	1437.95
867.413	1207.0664	2327.65	1446.05
867.5576	1208.9889	2330.9	1445
867.7023	1210.9106	2314.9	1434.6
867.847	1212.8316	2334.7	1454.45
867.9916	1214.7519	2352.1	1461.4
868.1363	1216.6715	2369.65	1489.7
868.2809	1218.5903	2405.25	1525.1
868.4255	1220.5084	2442.4	1560.35
868.5701	1222.4257	2463.8	1581.85
868.7148	1224.3424	2492.15	1611.65
868.8594	1226.2583	2531.8	1644.75
869.004	1228.1735	2590.25	1708.25
869.1486	1230.0879	2663.85	1781.25
869.2932	1232.0016	2765.15	1883.95
869.4377	1233.9146	2863.85	1978.95
869.5823	1235.8269	2893.05	2011
869.7269	1237.7384	2913.65	2029.95
869.8715	1239.6492	2887.6	2007.8
870.016	1241.5592	2922.45	2037.45
870.1606	1243.4686	3000.1	2119.4
870.3051	1245.3772	3171.55	2286.7
870.4496	1247.285	3372.35	2489.9
870.5941	1249.1922	3568.65	2686.65
870.7387	1251.0986	3716.35	2835.05
870.8832	1253.0042	3882.05	2998.35
871.0277	1254.9092	4065.65	3185
871.1722	1256.8134	4309.1	3425.85
871.3167	1258.7169	4532.05	3648.6
871.4611	1260.6196	4714.85	3832.2
871.6056	1262.5216	4821.95	3936.75
871.7501	1264.4229	4826.05	3944.15
871.8945	1266.3234	4759.35	3877.1
872.039	1268.2232	4607.95	3721.4
872.1834	1270.1223	4469.65	3587.5
872.3278	1272.0207	4353.05	3468.3
872.4723	1273.9183	4315.45	3427.15
872.6167	1275.8151	4313.25	3428.85
872.7611	1277.7113	4382.4	3496.75
872.9055	1279.6067	4569.75	3687.1
873.0499	1281.5014	4895.3	4010.4
873.1943	1283.3953	5332.65	4445.35
873.3386	1285.2885	5820.85	4937.75
873.483	1287.181	6211	5326.35
873.6274	1289.0727	6388.05	5506
873.7717	1290.9637	6307.6	5423.3
873.9161	1292.854	6041.95	5159.3
874.0604	1294.7435	5679.95	4796
874.2047	1296.6323	5368.75	4484.5
874.349	1298.5204	5092.35	4205.65
874.4933	1300.4077	4890.25	4003.8
874.6376	1302.2943	4745.75	3864.05
874.7819	1304.1802	4645.15	3761.7
874.9262	1306.0653	4547.25	3661.85
875.0705	1307.9497	4476.9	3592.95
875.2147	1309.8333	4408.25	3526.45
875.359	1311.7162	4335.65	3452.45
875.5032	1313.5984	4283.1	3395.7
875.6475	1315.4798	4255.2	3353
875.7917	1317.3605	4275.5	3376.8
875.9359	1319.2405	4286.05	3398.6
876.0801	1321.1197	4289.55	3402.75
876.2243	1322.9982	4221.75	3334.25
876.3685	1324.876	4093	3208.3
876.5127	1326.753	3895	3010.65
876.6569	1328.6293	3664.35	2778.4
876.801	1330.5048	3441.15	2553.45
876.9452	1332.3796	3216.4	2330.75
877.0893	1334.2537	3084.4	2174.1
877.2335	1336.127	2949.1	2065.1
877.3776	1337.9996	2865	1981.45
877.5217	1339.8714	2816.5	1933.55
877.6658	1341.7426	2801.4	1871.45
877.8099	1343.6129	2731.95	1846.25
877.954	1345.4826	2681.8	1796.35
878.0981	1347.3515	2648.85	1761.45
878.2422	1349.2196	2610.6	1725.6
878.3862	1351.087	2583.75	1697.3
878.5303	1352.9537	2573.65	1688.9
878.6743	1354.8197	2566.4	1680.9
878.8184	1356.6849	2597	1711.15
878.9624	1358.5493	2622.2	1737.2
879.1064	1360.4131	2695.65	1812.5
879.2504	1362.276	2767.15	1881.8
879.3944	1364.1383	2854.95	1972.35
879.5384	1365.9998	2922.9	2030.75
879.6823	1367.8606	2895.35	2009.45
879.8263	1369.7206	2878.8	1993.3
879.9702	1371.5799	2881.4	1995.65
880.1142	1373.4384	2864.05	1978.65
880.2581	1375.2962	2804.8	1920
880.402	1377.1533	2681.8	1798.4
880.5459	1379.0096	2578.6	1693.35
880.6898	1380.8652	2503.75	1619.35
880.8337	1382.7201	2441.5	1556.9
880.9776	1384.5742	2371.25	1485.65
881.1215	1386.4275	2321.9	1435.7
881.2653	1388.2802	2278.2	1395.9
881.4092	1390.132	2249.55	1362.9
881.553	1391.9832	2234.2	1347.15
881.6968	1393.8336	2210.05	1324.05
881.8406	1395.6832	2204.45	1316.95
881.9844	1397.5322	2188	1304.5
882.1282	1399.3803	2158.65	1270
882.272	1401.2278	2137.75	1250.15
882.4158	1403.0745	2132.05	1246.25
882.5595	1404.9204	2089.4	1207.4
882.7033	1406.7656	2098.4	1212.15
882.847	1408.6101	2082.45	1196.7
882.9908	1410.4538	2077.1	1192.05
883.1345	1412.2968	2079.3	1191.9
883.2782	1414.139	2085	1201.15
883.4219	1415.9805	2096.25	1211.5
883.5656	1417.8213	2128.95	1237.35
883.7092	1419.6613	2163.35	1280.4
883.8529	1421.5006	2230.55	1346.2
883.9965	1423.3391	2321.3	1438.25
884.1402	1425.1769	2442.75	1556.75
884.2838	1427.0139	2617.95	1731.8
884.4274	1428.8502	2835.7	1948.35
884.571	1430.6858	2995.6	2111.15
884.7146	1432.5206	3057.1	2171.55
884.8582	1434.3547	3051.5	2164.35
885.0018	1436.188	3017.45	2132.9
885.1453	1438.0206	2984.25	2097.9
885.2889	1439.8524	2972.6	2087.55
885.4324	1441.6835	2950.85	2064.65
885.5759	1443.5139	2954.25	2064.6
885.7194	1445.3435	2970	2084.5
885.8629	1447.1724	2975.65	2089.75
886.0064	1449.0005	2947.25	2062.25
886.1499	1450.8279	2958.8	2072.9
886.2933	1452.6545	2945.05	2057.75
886.4368	1454.4804	2927.3	2041.7
886.5802	1456.3056	2914	2021.9
886.7237	1458.13	2870.75	1985.5
886.8671	1459.9536	2805.4	1916.4
887.0105	1461.7766	2738.3	1851.8
887.1539	1463.5987	2634.85	1749.45
887.2972	1465.4202	2545.6	1661.15
887.4406	1467.2409	2469.5	1583.8
887.584	1469.0608	2388.8	1503.5
887.7273	1470.88	2302.65	1416.5
887.8706	1472.6984	2235.35	1349.15
888.0139	1474.5161	2182.1	1295.25
888.1572	1476.3331	2141.65	1257.1
888.3005	1478.1493	2109.1	1223.05
888.4438	1479.9648	2103.55	1215.8
888.5871	1481.7795	2095.3	1209.9
888.7303	1483.5935	2108.65	1221.9
888.8736	1485.4067	2098.4	1212.2
889.0168	1487.2192	2116.5	1231.2
889.16	1489.031	2111.2	1223.6
889.3032	1490.842	2115.65	1229.4
889.4464	1492.6522	2115.25	1231.85
889.5896	1494.4618	2116.1	1228.25
889.7327	1496.2705	2104.65	1220.65
889.8759	1498.0785	2094.6	1208.2
890.019	1499.8858	2084.2	1197.85
890.1622	1501.6924	2070	1184.3
890.3053	1503.4981	2059.5	1175
890.4484	1505.3032	2056.55	1171.3
890.5914	1507.1075	2041.15	1153.65
890.7345	1508.911	2019.2	1132.05
890.8776	1510.7138	2009.4	1123.35
891.0206	1512.5159	1990.55	1105.55
891.1637	1514.3172	1968.95	1086.1
891.3067	1516.1178	1955.15	1072.45
891.4497	1517.9176	1948.85	1057.35
891.5927	1519.7166	1936.05	1051.45
891.7357	1521.515	1942.55	1050.5
891.8786	1523.3126	1915.95	1029.9
892.0216	1525.1094	1906.7	1020.25
892.1645	1526.9055	1900.65	1016.55
892.3074	1528.7008	1886.5	1002.1
892.4503	1530.4954	1887.65	997.35
892.5932	1532.2893	1874.05	989.95
892.7361	1534.0824	1881.3	990.6
892.879	1535.8747	1875.4	990.6
893.0218	1537.6663	1874.4	990.3
893.1647	1539.4572	1867.25	979.2
893.3075	1541.2473	1873.25	985.55
893.4503	1543.0367	1869.8	985.3
893.5931	1544.8253	1880.65	990.8
893.7359	1546.6132	1889.75	1002.6
893.8787	1548.4003	1909.95	1014.7
894.0214	1550.1867	1917.25	1022.95
894.1642	1551.9723	1936	1045.85
894.3069	1553.7572	1955.55	1069.5
894.4496	1555.5414	2012.85	1126.9
894.5923	1557.3247	2066.75	1183
894.735	1559.1074	2154.8	1268.95
894.8777	1560.8893	2247.5	1363.6
895.0204	1562.6705	2348.7	1465
895.163	1564.4509	2410.25	1525.95
895.3056	1566.2305	2449.8	1567.5
895.4482	1568.0094	2460.65	1576.15
895.5908	1569.7876	2462.6	1579.45
895.7334	1571.565	2441.75	1556.25
895.876	1573.3417	2453.5	1568.7
896.0186	1575.1176	2468.25	1585.65
896.1611	1576.8928	2513.8	1628.95
896.3036	1578.6672	2553.95	1669.55
896.4461	1580.4409	2637.3	1756.8
896.5886	1582.2138	2716.85	1832.55
896.7311	1583.986	2831.45	1944.9
896.8736	1585.7575	2940.65	2056.9
897.0161	1587.5282	3019.85	2137.4
897.1585	1589.2981	3090	2208
897.3009	1591.0673	3119.25	2235.8
897.4433	1592.8358	3143.15	2260.75
897.5857	1594.6035	3152	2265.1
897.7281	1596.3704	3113.05	2228.95
897.8705	1598.1366	3065.5	2179.8
898.0128	1599.9021	2998.95	2115.4
898.1551	1601.6668	2937.3	2053.3
898.2975	1603.4308	2879.65	1994.6
898.4398	1605.194	2882.05	1993.3
898.5821	1606.9564	2935.35	2055.35
898.7243	1608.7182	3060.1	2172.8
898.8666	1610.4791	3256.5	2376.1
899.0088	1612.2394	3506.95	2625.15
899.1511	1613.9988	3767.25	2885.75
899.2933	1615.7576	4021.15	3138.05
899.4355	1617.5156	4126.85	3240.6
899.5776	1619.2728	4108.4	3224.95
899.7198	1621.0293	3914.75	3031.8
899.862	1622.785	3641.35	2756.2
900.0041	1624.54	3326.4	2439.8
900.1462	1626.2942	3027.45	2143.7
900.2883	1628.0477	2757.65	1872.25
900.4304	1629.8005	2535.45	1646.8
900.5725	1631.5525	2369.85	1488
900.7145	1633.3037	2250.75	1366.15
900.8566	1635.0542	2125.85	1244.4
900.9986	1636.804	2049.15	1165.1
901.1406	1638.553	2034.5	1090.85
901.2826	1640.3013	1931.1	1048.4
901.4245	1642.0488	1880.15	993.05
901.5665	1643.7955	1851.45	969.95
901.7085	1645.5416	1827.15	943.75
901.8504	1647.2868	1804.75	924.25
901.9923	1649.0313	1772.85	889.1
902.1342	1650.7751	1766.45	879.35
902.2761	1652.5181	1771.6	888.6
902.4179	1654.2604	1761.85	880.6
902.5598	1656.0019	1761.6	879.7
902.7016	1657.7427	1792.55	910.5
902.8434	1659.4828	1837.6	954.5
902.9852	1661.222	1904.7	1018.9
903.127	1662.9606	1990.55	1104.8
903.2687	1664.6984	2085.3	1200.35
903.4105	1666.4354	2133.35	1246.95
903.5522	1668.1717	2107.8	1224.15
903.6939	1669.9072	2031.85	1146.05
903.8356	1671.642	1904.85	1017.9
903.9773	1673.3761	1804.6	923.1
904.119	1675.1094	1720.35	836.55
904.2606	1676.8419	1666.65	785.3
904.4022	1678.5737	1624	740.3
904.5439	1680.3048	1594.9	710.9
904.6855	1682.0351	1575.3	691.75
904.827	1683.7646	1560.35	673.5
904.9686	1685.4934	1550	667.75
905.1101	1687.2215	1539.95	655.75
905.2517	1688.9488	1527.7	644.15
905.3932	1690.6754	1527.7	645.45
905.5347	1692.4012	1520	636.2
905.6761	1694.1263	1505.6	622.85
905.8176	1695.8506	1507.3	623.5
905.9591	1697.5742	1499.35	616.5
906.1005	1699.297	1493.9	610.9
906.2419	1701.0191	1489.95	607.55
906.3833	1702.7404	1478.5	594.4
906.5246	1704.461	1481.6	599.4
906.666	1706.1808	1471.45	587.6
906.8073	1707.8999	1469.35	585.2
906.9487	1709.6182	1458.55	574.85
907.09	1711.3358	1468.3	584.2
907.2313	1713.0527	1458.65	578.4
907.3725	1714.7688	1447.95	560.1
907.5138	1716.4841	1450.8	565.75
907.655	1718.1987	1453.45	564.2
907.7962	1719.9126	1436	554.2
907.9374	1721.6257	1446.45	561.35
908.0786	1723.338	1445.5	563.15
908.2198	1725.0496	1430.75	547.25
908.3609	1726.7605	1430.9	547
908.502	1728.4706	1423.3	539.6
908.6431	1730.18	1430.5	546
908.7842	1731.8886	1423.3	541.7
908.9253	1733.5964	1443.2	538.8
909.0664	1735.3036	1427.95	541.6
909.2074	1737.0099	1415.7	530.2
909.3484	1738.7156	1423	543.65
909.4894	1740.4204	1421.45	535.35
909.6304	1742.1246	1415.75	532.55
909.7714	1743.8279	1407.7	523.6
909.9123	1745.5306	1410.35	526.75
910.0532	1747.2325	1407.3	522.75
910.1941	1748.9336	1414.25	530.45
910.335	1750.634	1400.9	517.3
910.4759	1752.3336	1404.15	520.8
910.6168	1754.0325	1398.75	517.5
910.7576	1755.7307	1396.9	512.9
910.8984	1757.4281	1396.65	514.75
911.0392	1759.1247	1407.3	514.6
911.18	1760.8206	1399.7	512.6
911.3208	1762.5158	1394.95	506.4
911.4615	1764.2102	1390.25	509.75
911.6022	1765.9039	1383.45	498.15
911.7429	1767.5968	1388.4	504.95
911.8836	1769.289	1387.3	502.5
912.0243	1770.9804	1381.25	499
912.1649	1772.6711	1385.25	503.25
912.3056	1774.361	1383.85	499.4
912.4462	1776.0502	1386.45	502.25
912.5868	1777.7386	1380.1	492.85
912.7274	1779.4263	1380.45	496
912.8679	1781.1132	1379.35	495.15
913.0084	1782.7994	1374.9	492.8
913.149	1784.4849	1374.25	490.8
913.2895	1786.1696	1394.25	490.8
913.4299	1787.8535	1365.95	484.05
913.5704	1789.5367	1373.1	490.8
913.7108	1791.2192	1363.4	479.45
913.8513	1792.9009	1379.1	481.4
913.9917	1794.5818	1368.65	483.75
914.132	1796.2621	1364.7	483.85
914.2724	1797.9415	1358.15	473.6
914.4128	1799.6202	1366.75	482.7
914.5531	1801.2982	1360	476.05
914.6934	1802.9755	1361.7	476.4
914.8337	1804.6519	1355.3	472.6
914.9739	1806.3277	1356.9	473.85
915.1142	1808.0027	1346.5	465.95
915.2544	1809.6769	1353.05	471.3
915.3946	1811.3504	1348.2	464.05
915.5348	1813.0231	1340.8	459.3
915.675	1814.6951	1350.05	466.85
915.8151	1816.3664	1351.9	468.15
915.9553	1818.0369	1342.9	459.3
916.0954	1819.7067	1344.25	462.25
916.2355	1821.3757	1343	456.6
916.3755	1823.044	1340	454.2
916.5156	1824.7115	1337.85	453.65
916.6556	1826.3783	1335.15	454.2
916.7956	1828.0443	1338.65	455
916.9356	1829.7096	1332.1	448.1
917.0756	1831.3741	1337.15	451.75
917.2155	1833.0379	1335.3	452.25
917.3555	1834.701	1340.65	457.8
917.4954	1836.3633	1329.75	446.45
917.6353	1838.0248	1333	446.1
917.7751	1839.6856	1334.7	449.55
917.915	1841.3457	1329.15	446.05
918.0548	1843.005	1327.5	444.45
918.1946	1844.6636	1330.65	449
918.3344	1846.3214	1332.85	448.85
918.4742	1847.9785	1324.7	441.15
918.6139	1849.6349	1330.55	445.65
918.7537	1851.2904	1330.75	438.6
918.8934	1852.9453	1329.5	446.95
919.0331	1854.5994	1322.8	435.3
919.1727	1856.2528	1320.9	431.75
919.3124	1857.9054	1321.85	439
919.452	1859.5572	1316.4	435.75
919.5916	1861.2083	1313.95	429
919.7312	1862.8587	1316.85	432.65
919.8708	1864.5084	1318.05	433.1
920.0103	1866.1572	1313.4	430.6
920.1498	1867.8054	1312.8	428.6
920.2893	1869.4528	1314.05	429.2
920.4288	1871.0994	1314.95	431.6
920.5683	1872.7453	1309.5	427.95
920.7077	1874.3905	1318.4	429.25
920.8471	1876.0349	1305.55	423.05
920.9865	1877.6786	1308.95	424.25
921.1259	1879.3215	1307.75	425.2
921.2653	1880.9637	1310.75	425.55
921.4046	1882.6051	1303.7	420.05
921.5439	1884.2458	1304.7	418.6
921.6832	1885.8858	1296.8	413.4
921.8225	1887.525	1299.55	417.35
921.9617	1889.1634	1298	415.55
922.101	1890.8011	1289.7	403.15
922.2402	1892.4381	1303.3	421.45
922.3794	1894.0743	1299.25	415.5
922.5185	1895.7098	1291.4	408.8
922.6577	1897.3446	1291.15	406.6
922.7968	1898.9786	1294.55	406.35
922.9359	1900.6118	1284.95	405.05
923.075	1902.2443	1292.05	406.7
923.214	1903.8761	1281.05	397.05
923.3531	1905.5071	1290.1	406.6
923.4921	1907.1374	1283.6	399.45
923.6311	1908.7669	1283.7	401.65
923.77	1910.3957	1278.95	397.55
923.909	1912.0237	1281.9	398.7
924.0479	1913.651	1276.05	392.15
924.1868	1915.2776	1275.5	394.35
924.3257	1916.9034	1272.1	389.2
924.4646	1918.5285	1277.2	394.25
924.6034	1920.1528	1270.6	388.5
924.7422	1921.7764	1269.85	386.85
924.881	1923.3992	1266.6	382.4
925.0198	1925.0213	1265.1	381.2
925.1586	1926.6427	1261.8	379.7
925.2973	1928.2633	1475.55	379.3
925.436	1929.8832	1270.1	382.85
925.5747	1931.5023	1260	377.7
925.7134	1933.1207	1268.1	382.65
925.852	1934.7383	1264.05	381.65
925.9906	1936.3552	1258.6	375.65
926.1292	1937.9714	1260.35	377.5
926.2678	1939.5868	1254.9	370.4
926.4064	1941.2015	1256.95	371.3
926.5449	1942.8154	1249.05	366.85
926.6834	1944.4286	1258.6	374.45
926.8219	1946.041	1275.9	368.45
926.9604	1947.6528	1252.1	362.5
927.0988	1949.2637	1248.3	366
927.2372	1950.8739	1249.1	364.65
927.3756	1952.4834	1255.65	372.75
927.514	1954.0921	1251.25	368.05
927.6523	1955.7001	1249.9	363.55
927.7907	1957.3074	1244.15	361.15
927.929	1958.9139	1241.15	361.35
928.0673	1960.5197	1243	358.55
928.2055	1962.1247	1238.35	355.3
928.3438	1963.729	1237.4	354.45
928.482	1965.3325	1263.75	358.1
928.6202	1966.9353	1229.65	350.15
928.7584	1968.5374	1236.9	352.05
928.8965	1970.1387	1231.85	349.95
929.0346	1971.7393	1228.9	344
929.1727	1973.3392	1230.55	347.8
929.3108	1974.9383	1219.3	335.4
929.4489	1976.5366	1231.45	349.9
929.5869	1978.1342	1232.8	349.95
929.7249	1979.7311	1226.7	343.25
929.8629	1981.3273	1226.45	343.5
930.0009	1982.9227	1223.15	340.25
930.1388	1984.5173	1224.95	342.55
930.2767	1986.1112	1228.55	348.1
930.4146	1987.7044	1223.55	342
930.5525	1989.2968	1222.65	340.65
930.6904	1990.8885	1222.3	339.2
930.8282	1992.4795	1221.8	338.75
930.966	1994.0697	1215.75	335.05
931.1038	1995.6592	1217.35	337.95
931.2415	1997.2479	1216.7	334.85
931.3793	1998.8359	1215.5	335.65
931.517	2000.4232	1209.05	329.25
931.6547	2002.0097	1207.85	328.25
931.7923	2003.5955	1213.35	333.45
931.93	2005.1805	1212.4	330.05
932.0676	2006.7648	1208.55	328
932.2052	2008.3484	1205	322.1
932.3427	2009.9312	1210.15	327.65
932.4803	2011.5133	1207.95	329.8
932.6178	2013.0946	1203.45	323.25
932.7553	2014.6752	1204.8	326.25
932.8928	2016.2551	1207.2	328
933.0302	2017.8342	1203.65	323.4
933.1676	2019.4126	1203.75	322.8
933.305	2020.9902	1201.15	320
933.4424	2022.5672	1201.45	319.5
933.5798	2024.1433	1208.25	321.8
933.7171	2025.7188	1198.45	319.35
933.8544	2027.2935	1200.3	318.15
933.9917	2028.8674	1197.65	317.4
934.129	2030.4406	1197.95	319.3
934.2662	2032.0131	1196.55	320.15
934.4034	2033.5849	1200.1	314.55
934.5406	2035.1559	1200.1	319.95
934.6778	2036.7261	1195.5	315.85
934.8149	2038.2957	1196.35	316.6
934.952	2039.8645	1196.05	313.9
935.0891	2041.4325	1200.2	317.55
935.2262	2042.9998	1193.2	314.55
935.3632	2044.5664	1195.55	312.8
935.5002	2046.1323	1198.9	320.85
935.6372	2047.6974	1188.2	308.25
935.7742	2049.2617	1189.15	309.5
935.9111	2050.8254	1221.65	309.3
936.048	2052.3883	1192.45	311.3
936.1849	2053.9504	1186.95	305.9
936.3218	2055.5118	1191.85	309.25
936.4586	2057.0725	1192.3	307.5
936.5955	2058.6325	1183.25	301.7
936.7323	2060.1917	1183.25	303.2
936.869	2061.7502	1188.25	305.75
937.0058	2063.3079	1188.1	307.05
937.1425	2064.8649	1186.85	303
937.2792	2066.4212	1189.4	310.4
937.4159	2067.9767	1186.65	305.55
937.5525	2069.5315	1184.8	304.2
937.6891	2071.0856	1180.45	299.9
937.8257	2072.6389	1183.3	301.95
937.9623	2074.1915	1174.8	297.6
938.0989	2075.7433	1178.9	295.95
938.2354	2077.2945	1170.85	293.65
938.3719	2078.8448	1182.1	302.2
938.5084	2080.3945	1177.95	295.25
938.6448	2081.9434	1178.95	297.6
938.7812	2083.4916	1173.9	292.35
938.9176	2085.039	1178.4	295.25
939.054	2086.5857	1178.6	295.3
939.1903	2088.1317	1170.4	288.2
939.3267	2089.677	1175.45	293.85
939.463	2091.2215	1171.45	290.25
939.5992	2092.7652	1173.7	289.55
939.7355	2094.3083	1169.3	287.85
939.8717	2095.8506	1167.45	285.25
940.0079	2097.3921	1170.3	291.3
940.1441	2098.933	1166.25	283.5
940.2802	2100.4731	1171.85	293.2
940.4163	2102.0124	1188.75	288.65
940.5524	2103.5511	1170.2	290.5
940.6885	2105.089	1172.65	290.95
940.8245	2106.6261	1170.55	290.65
940.9606	2108.1626	1164.1	281.8
941.0965	2109.6983	1189.7	279.2
941.2325	2111.2332	1172	289.1
941.3684	2112.7675	1169.95	288.85
941.5044	2114.301	1165.65	282.1
941.6403	2115.8337	1168.45	287.6
941.7761	2117.3657	1160.15	279.35
941.912	2118.897	1169.15	289.5
942.0478	2120.4276	1167.7	280.95
942.1835	2121.9575	1158.8	276.85
942.3193	2123.4866	1173.35	277
942.455	2125.0149	1163.5	279.35
942.5907	2126.5426	1161.25	278.8
942.7264	2128.0695	1164.4	282.85
942.8621	2129.5956	1153.2	275
942.9977	2131.1211	1159.8	274.65
943.1333	2132.6458	1152.95	273.4
943.2689	2134.1698	1157.55	276.4
943.4044	2135.693	1159.4	275.55
943.54	2137.2155	1158.7	275.1
943.6755	2138.7373	1156.9	275.65
943.8109	2140.2584	1154.85	275.35
943.9464	2141.7787	1155.4	269.8
944.0818	2143.2983	1158.6	279.3
944.2172	2144.8171	1147.55	268.55
944.3526	2146.3353	1150	266.45
944.4879	2147.8527	1153.15	274.15
944.6232	2149.3693	1154.55	274.7
944.7585	2150.8853	1150.15	268.95
944.8938	2152.4005	1150.5	268.1
945.029	2153.9149	1154.9	275.05
945.1642	2155.4287	1150.05	267.85
945.2994	2156.9417	1150.1	269.2
945.4346	2158.454	1148.3	265.5
945.5697	2159.9655	1145.05	264.25
945.7048	2161.4764	1147.3	266.6
945.8399	2162.9865	1135.55	256.3
945.9749	2164.4958	1147.2	266.5
946.1099	2166.0045	1143.55	259.75
946.2449	2167.5124	1146.3	265.35
946.3799	2169.0195	1146.2	266.7
946.5148	2170.526	1146.25	264.05
946.6498	2172.0317	1142.75	263.1
946.7846	2173.5367	1142.65	259.65
946.9195	2175.0409	1140.35	258.7
947.0543	2176.5445	1140.7	261.35
947.1891	2178.0473	1140.95	259.2
947.3239	2179.5494	1144.05	258.35
947.4587	2181.0507	1139.45	259.55
947.5934	2182.5513	1138.65	256.25
947.7281	2184.0512	1140	256.8
947.8628	2185.5504	1138.75	257.95
947.9974	2187.0488	1137.55	258.25
948.132	2188.5465	1142.5	263.15
948.2666	2190.0435	1139.05	255.5
948.4012	2191.5397	1135	253.9
948.5357	2193.0353	1135.75	254.6
948.6702	2194.5301	1132.35	250.15
948.8047	2196.0241	1136.5	256.5
948.9392	2197.5175	1136.4	255.95
949.0736	2199.0101	1139.9	255.15
949.208	2200.502	1126.75	247.2
949.3424	2201.9931	1134.1	253
949.4767	2203.4835	1134.6	251.85
949.611	2204.9733	1150.6	252.75
949.7453	2206.4622	1129.3	249.25
949.8796	2207.9505	1130.25	246.95
950.0138	2209.438	1122.45	243.65
950.148	2210.9248	1128.2	247.4
950.2822	2212.4109	1125.4	243.75
950.4164	2213.8962	1126.8	241.7
950.5505	2215.3809	1121.8	239.95
950.6846	2216.8648	1124.25	242.2
950.8186	2218.3479	1125.2	237.75
950.9527	2219.8304	1127.3	242.45
951.0867	2221.3121	1126.35	240.7
951.2207	2222.7931	1119.05	238.45
951.3546	2224.2733	1123.1	239.75
951.4886	2225.7529	1125.55	242.45
951.6225	2227.2317	1117.5	235.45
951.7563	2228.7098	1120.6	239.9
951.8902	2230.1872	1116.9	237.25
952.024	2231.6638	1115.45	235.35
952.1578	2233.1397	1121.2	235.65
952.2916	2234.6149	1109.4	230.55
952.4253	2236.0894	1115.05	234.6
952.559	2237.5632	1123.55	232.05
952.6927	2239.0362	1109.2	228.05
952.8263	2240.5085	1109.8	228.25
952.9599	2241.9801	1112.85	229.75
953.0935	2243.4509	1113.85	231.2
953.2271	2244.921	1110.55	228.95
953.3606	2246.3904	1111.45	229.3
953.4941	2247.8591	1106.8	225.95
953.6276	2249.3271	1109.75	229.8
953.7611	2250.7943	1109.15	226.75
953.8945	2252.2608	1104.8	224.15
954.0279	2253.7266	1106.65	226.05
954.1612	2255.1917	1105.05	223.7
954.2946	2256.656	1106.1	224.95
954.4279	2258.1197	1103.95	222.55
954.5612	2259.5826	1102.55	221.3
954.6944	2261.0447	1104.95	224.75
954.8276	2262.5062	1106	221.95
954.9608	2263.9669	1102.05	219.85
955.094	2265.4269	1094.9	214.8
955.2271	2266.8862	1101.25	221.5
955.3602	2268.3448	1094.1	213.85
955.4933	2269.8026	1099.5	218.05
955.6264	2271.2598	1098.45	217.4
955.7594	2272.7162	1097.2	217
955.8924	2274.1719	1097.1	215.3
956.0253	2275.6268	1100.2	219.9
956.1583	2277.0811	1100.35	218.6
956.2912	2278.5346	1096.45	215.65
956.4241	2279.9874	1093.9	213.7
956.5569	2281.4395	1095.5	216.25
956.6897	2282.8908	1100.5	213.2
956.8225	2284.3414	1097.15	216.3
956.9553	2285.7914	1088.2	208.85
957.088	2287.2406	1096	214
957.2207	2288.689	1095.05	213.45
957.3534	2290.1368	1099.35	217.55
957.486	2291.5838	1094.5	212.2
957.6186	2293.0302	1098.3	216
957.7512	2294.4758	1092.75	211.9
957.8838	2295.9206	1090.9	206.35
958.0163	2297.3648	1091.55	211.9
958.1488	2298.8082	1091.05	209.7
958.2813	2300.251	1097.85	218.8
958.4137	2301.693	1094	210.6
958.5461	2303.1343	1088.5	207.2
958.6785	2304.5748	1086.95	206.6
958.8108	2306.0147	1087.95	208
958.9432	2307.4538	1091.15	208.2
959.0754	2308.8922	1088.45	209.45
959.2077	2310.3299	1084.65	204.25
959.3399	2311.7669	1089.5	208.35
959.4721	2313.2031	1091.45	210.35
959.6043	2314.6387	1082.65	199.7
959.7365	2316.0735	1087.35	206.75
959.8686	2317.5076	1084.85	202.45
960.0006	2318.941	1084	201.4
960.1327	2320.3737	1084.6	202.9
960.2647	2321.8056	1084.85	202.25
960.3967	2323.2369	1086.5	204.35
960.5287	2324.6674	1087.35	204.1
960.6606	2326.0972	1094.3	212.25
960.7925	2327.5263	1094.3	214.85
960.9244	2328.9547	1091	207.55
961.0562	2330.3823	1089.75	206.6
961.1881	2331.8092	1094.4	209.95
961.3198	2333.2355	1078.15	196.25
961.4516	2334.661	1075.4	192.1
961.5833	2336.0858	1080.5	197.45
961.715	2337.5098	1075.4	196.05
961.8467	2338.9332	1082.5	200.55
961.9783	2340.3558	1079.25	195.4
962.1099	2341.7778	1076.35	193.5
962.2415	2343.199	1076.65	192.5
962.373	2344.6195	1074.45	193.7
962.5045	2346.0393	1071.3	190.75
962.636	2347.4583	1076.95	197
962.7675	2348.8767	1077.6	195.25
962.8989	2350.2943	1074.75	192.1
963.0303	2351.7113	1078.45	195.7
963.1617	2353.1275	1076.45	195.45
963.293	2354.543	1081.6	188.7
963.4243	2355.9578	1076	194.85
963.5556	2357.3718	1070.2	187.95
963.6868	2358.7852	1076.85	192.35
963.818	2360.1978	1072.2	192.1
963.9492	2361.6098	1068.6	188.5
964.0803	2363.021	1077.65	192
964.2114	2364.4315	1067.5	184.75
964.3425	2365.8413	1073.2	190.35
964.4736	2367.2504	1069.15	189.25
964.6046	2368.6587	1069	185.95
964.7356	2370.0664	1070.5	188.95
964.8666	2371.4733	1065.9	183.1
964.9975	2372.8795	1065.15	182.7
965.1284	2374.285	1069.6	189.45
965.2593	2375.6899	1071.85	190.9
965.3901	2377.0939	1067.35	186.9
965.5209	2378.4973	1068.5	186.55
965.6517	2379.9	1069.35	188.65
965.7825	2381.3019	1069.4	189
965.9132	2382.7032	1066.55	185.6
966.0439	2384.1037	1065.35	186.4
966.1745	2385.5035	1064.5	183.75
966.3051	2386.9027	1062	180.35
966.4357	2388.3011	1064.6	178.75
966.5663	2389.6987	1063	182
966.6968	2391.0957	1063.6	179.95
966.8273	2392.492	1062.9	182.45
966.9578	2393.8876	1062.85	181.45
967.0882	2395.2824	1059.95	176.85
967.2186	2396.6765	1056.9	176.7
967.349	2398.07	1055	172.95
967.4793	2399.4627	1058.45	176.6
967.6097	2400.8547	1060.7	179.2
967.7399	2402.246	1062.7	174.1
967.8702	2403.6366	1062.6	182.4
968.0004	2405.0265	1053.5	172.85
968.1306	2406.4156	1062.3	176.05
968.2607	2407.8041	1058.1	170.6
968.3909	2409.1918	1054.55	168.85
968.521	2410.5789	1058.45	175.45
968.651	2411.9652	1054.75	170.05
968.781	2413.3508	1053.4	170.15
968.911	2414.7358	1058	173.75
969.041	2416.12	1051.05	172.25
969.1709	2417.5035	1050.85	169.3
969.3008	2418.8863	1053.55	170.65
969.4307	2420.2684	1054.8	170.85
969.5606	2421.6497	1054.5	169.95
969.6904	2423.0304	1055.65	175
969.8201	2424.4104	1047.05	163.6
969.9499	2425.7896	1051	168.65
970.0796	2427.1682	1048.35	166.25
970.2093	2428.546	1050.35	169.5
970.3389	2429.9232	1052.8	168.8
970.4685	2431.2996	1046.15	165.85
970.5981	2432.6753	1044.4	163.05
970.7277	2434.0503	1048.9	167.35
970.8572	2435.4246	1048.5	166.6
970.9867	2436.7982	1045.8	160.1
971.1161	2438.1711	1045.8	163.1
971.2456	2439.5433	1045.5	161.2
971.375	2440.9148	1046.85	163.95
971.5043	2442.2856	1046.15	164.2
971.6336	2443.6557	1043.85	160.7
971.7629	2445.025	1038.7	156.6
971.8922	2446.3937	1041.8	157.6
972.0214	2447.7617	1040.7	159.65
972.1506	2449.1289	1041.95	158.5
972.2798	2450.4955	1045.65	158.6
972.4089	2451.8613	1040.45	159.15
972.538	2453.2265	1044.25	162.1
972.6671	2454.5909	1040.15	156.65
972.7961	2455.9546	1038.3	157.9
972.9251	2457.3177	1031.95	150.35
973.0541	2458.68	1040	153.85
973.1831	2460.0416	1040.3	159.35
973.312	2461.4025	1040.4	155.85
973.4408	2462.7627	1050.05	158.1
973.5697	2464.1222	1037.25	155.8
973.6985	2465.4811	1035.7	155.1
973.8273	2466.8392	1037.2	155.4
973.956	2468.1966	1039.05	153.75
974.0847	2469.5533	1041.8	156.5
974.2134	2470.9093	1039.85	157.25
974.3421	2472.2645	1037.2	151.7
974.4707	2473.6191	1037.6	157.55
974.5993	2474.973	1037.7	155.8
974.7278	2476.3262	1033	149.55
974.8563	2477.6787	1037.1	155.2
974.9848	2479.0305	1034.7	152.1
975.1132	2480.3816	1037.5	153.3
975.2417	2481.7319	1037.05	154.5
975.37	2483.0816	1038.45	154.65
975.4984	2484.4306	1037.1	155.65
975.6267	2485.7789	1034.4	153.65
975.755	2487.1264	1034.85	152.05
975.8833	2488.4733	1035.85	154.3
976.0115	2489.8195	1037.95	149.1
976.1397	2491.165	1039.25	153.9
976.2678	2492.5097	1034.75	150.1
976.3959	2493.8538	1032.4	149.05
976.524	2495.1972	1030.8	148.85
976.6521	2496.5398	1028.75	144.15
976.7801	2497.8818	1034.4	151.85
976.9081	2499.2231	1031.65	148.85
977.036	2500.5637	1031.2	149.4
977.164	2501.9035	1036	152.6
977.2918	2503.2427	1033.5	148.4
977.4197	2504.5812	1031.4	149.3
977.5475	2505.919	1032.55	148.6
977.6753	2507.256	1027.65	145.3
977.8031	2508.5924	1030	145.9
977.9308	2509.9281	1031.6	144.9
978.0585	2511.2631	1025.7	144.55
978.1861	2512.5974	1027.85	146.8
978.3137	2513.9309	1025.55	142.2
978.4413	2515.2638	1058.9	145.15
978.5689	2516.596	1027.45	147.05
978.6964	2517.9275	1025.15	141.45
978.8239	2519.2583	1027.8	145.15
978.9513	2520.5884	1027.25	142.85
979.0788	2521.9178	1024.55	142.95
979.2062	2523.2465	1025.35	144.15
979.3335	2524.5745	1023.5	143.2
979.4608	2525.9018	1024.8	142.1
979.5881	2527.2284	1021.7	142.35
979.7154	2528.5543	1022.35	142.6
979.8426	2529.8796	1025.6	144.5
979.9698	2531.2041	1022.95	140.55
980.0969	2532.5279	1021	141.65
980.224	2533.851	1022.55	139.4
980.3511	2535.1735	1017.15	136
980.4781	2536.4952	1023.55	143.3
980.6052	2537.8163	1021.4	140
980.7321	2539.1366	1017.8	138.35
980.8591	2540.4562	1019.5	136
980.986	2541.7752	1019.95	138.7
981.1129	2543.0935	1017.85	137.7
981.2397	2544.411	1022	139.7
981.3665	2545.7279	1018.2	137.55
981.4933	2547.0441	1013.75	133.6
981.62	2548.3596	1023.7	138.4
981.7467	2549.6744	1016.9	134.15
981.8734	2550.9885	1026.85	136.6
982.0001	2552.3019	1016.75	135.45
982.1267	2553.6146	1017.05	135.55
982.2532	2554.9266	1017.75	136.05
982.3798	2556.2379	1016.95	134.05
982.5063	2557.5485	1013.4	133.55
982.6327	2558.8585	1023.55	132.7
982.7592	2560.1677	1019.8	135.5
982.8856	2561.4762	1017.8	134.6
983.0119	2562.7841	1017.7	130.4
983.1383	2564.0913	1014.3	134.25
983.2646	2565.3977	1015.55	132.1
983.3908	2566.7035	1015.25	134.6
983.517	2568.0086	1015.65	132
983.6432	2569.313	1014	132.6
983.7694	2570.6167	1018.4	133.05
983.8955	2571.9197	1012.3	129.85
984.0216	2573.222	1019.05	134.25
984.1476	2574.5236	1015.9	133.25
984.2737	2575.8246	1012.5	127.9
984.3996	2577.1248	1017.1	133.6
984.5256	2578.4244	1017.7	136.6
984.6515	2579.7232	1011.4	129
984.7774	2581.0214	1044.25	134.35
984.9032	2582.3189	1013.6	134.6
985.029	2583.6157	1018.55	134.1
985.1548	2584.9118	1016.1	133.9
985.2806	2586.2072	1009.9	128.75
985.4063	2587.5019	1016.25	135.55
985.5319	2588.7959	1015.05	132.85
985.6576	2590.0893	1018.15	134.05
985.7832	2591.3819	1011.35	129.35
985.9087	2592.6739	1014.25	132.9
986.0343	2593.9652	1015.8	131.55
986.1597	2595.2557	1018.25	138
986.2852	2596.5456	1017.05	134.25
986.4106	2597.8348	1014.35	134.45
986.536	2599.1234	1015.05	136.1
986.6614	2600.4112	1015.9	134.9
986.7867	2601.6983	1016.85	132.8
986.912	2602.9848	1018.4	135.05
987.0372	2604.2705	1022.85	133.05
987.1624	2605.5556	1015.75	133.85
987.2876	2606.84	1013.9	131.8
987.4128	2608.1237	1016.15	134
987.5379	2609.4067	1014.4	133.8
987.6629	2610.689	1026.15	136.35
987.788	2611.9707	1019.1	133.45
987.913	2613.2516	1015.15	130.45
988.0379	2614.5319	1012.5	131.55
988.1629	2615.8115	1015.15	134.45
988.2878	2617.0903	1010.8	129.85
988.4126	2618.3685	1006.75	124.3
988.5375	2619.6461	1004.5	122.1
988.6622	2620.9229	1009.55	127.45
988.787	2622.199	1010.25	128.2
988.9117	2623.4745	1009.95	127.05
989.0364	2624.7493	1008.3	126.75
989.161	2626.0234	1004.8	121.75
989.2857	2627.2968	1008.2	128.15
989.4102	2628.5695	1005.15	123
989.5348	2629.8415	1007	128.5
989.6593	2631.1128	1007.65	125.75
989.7837	2632.3835	1007.45	126.55
989.9082	2633.6535	1005.4	123.65
990.0326	2634.9228	1006.95	126.1
990.1569	2636.1914	1006.75	124.4
990.2812	2637.4593	1006.7	125.05
990.4055	2638.7265	1006.45	123.8
990.5298	2639.9931	1004.25	121.8
990.654	2641.259	1005.95	122.95
990.7782	2642.5242	1001.7	119.4
990.9023	2643.7887	1001.75	118.1
991.0264	2645.0525	1003.7	121.55
991.1505	2646.3156	1000.9	117.55
991.2745	2647.5781	1001.35	121.15
991.3985	2648.8398	998.3	118.4
991.5225	2650.1009	1037.55	118.6
991.6464	2651.3613	1000	118.4
991.7703	2652.6211	997.8	116.2
991.8942	2653.8801	997	116.85
992.018	2655.1385	996	110.7
992.1418	2656.3961	999.05	118.05
992.2655	2657.6531	994.95	114.25
992.3892	2658.9094	996.2	116.1
992.5129	2660.1651	995.25	114.55
992.6366	2661.42	998.5	116.6
992.7602	2662.6743	998.45	115.4
992.8837	2663.9279	994	114.5
993.0073	2665.1808	995.7	114.2
993.1307	2666.433	999.05	115.8
993.2542	2667.6846	996.1	115.15
993.3776	2668.9354	1005.35	120.15
993.501	2670.1856	1000.1	118.15
993.6244	2671.4351	1005.05	124.5
993.7477	2672.6839	1005.1	123.3
993.8709	2673.9321	1001.1	120.75
993.9942	2675.1795	1004.05	123.2
994.1174	2676.4263	1002.25	124.2
994.2405	2677.6724	1003.85	120.65
994.3637	2678.9179	1004.55	121.85
994.4868	2680.1626	1004.5	122.85
994.6098	2681.4067	1000.85	121.25
994.7328	2682.6501	999.95	119.35
994.8558	2683.8928	1004.75	124.25
994.9788	2685.1348	999.5	119.4
995.1017	2686.3761	995.1	115.5
995.2245	2687.6168	999.05	118.85
995.3474	2688.8568	996.75	116.85
995.4702	2690.0961	988.3	108.95
995.5929	2691.3348	992.3	109.6
995.7156	2692.5727	993.65	111.3
995.8383	2693.81	988.3	107.45
995.961	2695.0466	991.35	111.1
996.0836	2696.2826	993.25	111.85
996.2062	2697.5178	1012.75	112.8
996.3287	2698.7524	992.85	113.4
996.4512	2699.9863	996.3	111.25
996.5737	2701.2195	994.05	114.2
996.6961	2702.452	995	112.95
996.8185	2703.6839	995.5	114.25
996.9408	2704.9151	996.3	116.65
997.0631	2706.1456	997	116.95
997.1854	2707.3755	1001.65	119.85
997.3077	2708.6046	1000.8	118.6
997.4299	2709.8331	1000.1	118.45
997.552	2711.0609	1001.25	119.65
997.6742	2712.2881	1002.25	121.4
997.7963	2713.5145	1010.1	125.55
997.9183	2714.7403	1003.45	124.25
998.0403	2715.9654	1008.8	127.6
998.1623	2717.1899	1024.05	129.05
998.2842	2718.4136	1010.9	129.7
998.4062	2719.6367	1011.35	128.4
998.528	2720.8591	1021.5	133.65
998.6498	2722.0809	1023.05	142.8
998.7716	2723.3019	1025.95	142.75
998.8934	2724.5223	1015.95	132.9
999.0151	2725.7421	1022.6	139.95
999.1368	2726.9611	1019.2	136.55
999.2584	2728.1795	1016.45	130.45
999.38	2729.3972	1011.75	131.7
999.5016	2730.6142	1016.3	126.7
999.6231	2731.8306	1006.25	124.05
999.7446	2733.0462	1006.8	123.35
999.8661	2734.2612	1006	121.25
999.9875	2735.4756	1000.4	117.8
1000.1089	2736.6892	998.55	116.45
1000.2302	2737.9022	994.7	115
1000.3515	2739.1145	997.25	114.9
1000.4728	2740.3262	999.5	109.4
1000.594	2741.5372	991.8	112.5
1000.7152	2742.7475	989.5	108.35
1000.8363	2743.9571	994.6	111.55
1000.9575	2745.1661	992.25	107.25
1001.0785	2746.3744	989.9	107.3
1001.1996	2747.582	982.45	101.4
1001.3206	2748.7889	984.75	101.25
1001.4415	2749.9952	984.15	104.55
1001.5625	2751.2008	981.5	100.65
1001.6833	2752.4057	984.85	101.75
1001.8042	2753.61	981.25	98.75
1001.925	2754.8136	981.55	96.35
1002.0458	2756.0165	981.6	101.3
1002.1665	2757.2188	977.8	97.55
1002.2872	2758.4204	978.35	99
1002.4078	2759.6213	979.15	95.25
1002.5285	2760.8215	981.9	97.65
1002.649	2762.0211	981.4	97.75
1002.7696	2763.22	980.9	98.9
1002.8901	2764.4182	975.95	93.35
1003.0106	2765.6158	977	96.05
1003.131	2766.8127	977.35	97.95
1003.2514	2768.009	975.25	95.5
1003.3717	2769.2045	974.45	92.35
1003.492	2770.3994	980.35	97.8
1003.6123	2771.5936	974	93.15
1003.7325	2772.7872	970.35	90.9
1003.8527	2773.9801	976.4	93.85
1003.9729	2775.1723	988.5	91.95
1004.093	2776.3639	967.75	89.75
1004.2131	2777.5548	969.25	85
1004.3331	2778.745	969.05	88.55
1004.4531	2779.9346	974.6	94.55
1004.5731	2781.1235	974.5	91.5
1004.693	2782.3117	972	93.35
1004.8129	2783.4992	970.4	89.45
1004.9328	2784.6861	967.4	86.25
1005.0526	2785.8723	972.85	90.8
1005.1723	2787.0579	971.55	90.45
1005.2921	2788.2428	969.1	88.85
1005.4118	2789.427	972.15	92.75
1005.5314	2790.6106	971.5	90.9
1005.651	2791.7935	971.95	91.2
1005.7706	2792.9757	971.15	91.8
1005.8902	2794.1573	975.3	91.25
1006.0097	2795.3382	974.35	94.1
1006.1291	2796.5184	974.85	94.7
1006.2485	2797.698	977.7	94.5
1006.3679	2798.8769	975.55	95.7
1006.4873	2800.0551	976.15	96.7
1006.6066	2801.2327	978.45	95.75
1006.7258	2802.4096	975.5	96.25
1006.8451	2803.5859	978.8	96.65
1006.9642	2804.7615	980.6	98.5
1007.0834	2805.9364	978.85	99.1
1007.2025	2807.1106	980.5	99.5
1007.3216	2808.2842	988.85	107.45
1007.4406	2809.4572	990.5	109.3
1007.5596	2810.6294	993.4	111.6
1007.6785	2811.801	993	113.65
1007.7975	2812.972	994.9	116.6
1007.9163	2814.1423	999.05	118.55
1008.0352	2815.3119	1012.7	132.15
1008.154	2816.4808	1013.7	135.7
1008.2727	2817.6491	1019.8	137.75
1008.3914	2818.8167	1030	151.95
1008.5101	2819.9837	1045.9	159.1
1008.6288	2821.15	1055.6	175.35
1008.7474	2822.3157	1065.4	187.45
1008.8659	2823.4807	1085.4	201.95
1008.9844	2824.645	1109.9	230.3
1009.1029	2825.8086	1119.95	240.8
1009.2214	2826.9716	1140.8	258.35
1009.3398	2828.134	1166.05	288.6
1009.4581	2829.2957	1173.15	293.1
1009.5764	2830.4567	1190	309.2
1009.6947	2831.617	1204.4	322.25
1009.813	2832.7767	1210.75	332.5
1009.9312	2833.9358	1211.35	331.25
1010.0493	2835.0941	1204.45	322.75
1010.1675	2836.2519	1198.4	317.05
1010.2855	2837.4089	1194.85	313.05
1010.4036	2838.5653	1178.15	298
1010.5216	2839.7211	1171.35	291.25
1010.6396	2840.8761	1169.25	287.1
1010.7575	2842.0306	1171.1	292.7
1010.8754	2843.1843	1168.4	288.2
1010.9932	2844.3374	1166.8	287.4
1011.111	2845.4899	1174.45	292.05
1011.2288	2846.6417	1182.45	303.15
1011.3465	2847.7928	1183.15	303.6
1011.4642	2848.9433	1183.65	304
1011.5818	2850.0931	1186.95	306.25
1011.6995	2851.2422	1196	312.15
1011.817	2852.3907	1197.55	317.05
1011.9345	2853.5385	1193.25	310.25
1012.052	2854.6857	1222.75	316.35
1012.1695	2855.8323	1206.55	327.4
1012.2869	2856.9781	1208.95	329.65
1012.4042	2858.1233	1222.15	342.25
1012.5216	2859.2679	1229.55	350.6
1012.6389	2860.4118	1234.45	354.85
1012.7561	2861.555	1256.45	371.05
1012.8733	2862.6976	1255.9	373.95
1012.9905	2863.8395	1252.05	372.55
1013.1076	2864.9808	1260.65	380.4
1013.2247	2866.1214	1267.35	385.75
1013.3417	2867.2614	1268	386.45
1013.4587	2868.4007	1270.25	387.35
1013.5757	2869.5393	1281.3	399.45
1013.6926	2870.6773	1294.3	411.3
1013.8095	2871.8146	1296.05	412.35
1013.9263	2872.9513	1302.6	421
1014.0431	2874.0874	1300.65	420.1
1014.1599	2875.2227	1312.3	432.1
1014.2766	2876.3574	1313.65	431.6
1014.3933	2877.4915	1323.5	443.2
1014.51	2878.6249	1321.55	442.65
1014.6266	2879.7577	1330.9	448
1014.7431	2880.8898	1355.1	466.5
1014.8596	2882.0212	1341.25	461.75
1014.9761	2883.152	1345.6	466.7
1015.0925	2884.2821	1345.3	465.95
1015.2089	2885.4116	1354.45	475
1015.3253	2886.5405	1370.4	492.5
1015.4416	2887.6686	1370.95	488.1
1015.5579	2888.7962	1368.6	490.3
1015.6741	2889.923	1362.35	484.2
1015.7903	2891.0493	1365.7	487.25
1015.9065	2892.1748	1365.45	487.4
1016.0226	2893.2997	1368.4	486.9
1016.1387	2894.424	1363.9	484.55
1016.2547	2895.5476	1360.45	481.5
1016.3707	2896.6706	1365.2	487.15
1016.4866	2897.7929	1377.6	495.45
1016.6025	2898.9145	1371.75	491.9
1016.7184	2900.0355	1371.95	491
1016.8342	2901.1559	1358.65	479.3
1016.95	2902.2756	1365.1	479.7
1017.0658	2903.3946	1359.95	480.8
1017.1815	2904.513	1367.6	483.4
1017.2971	2905.6308	1352	472.1
1017.4127	2906.7479	1349.35	469.1
1017.5283	2907.8643	1354.45	474.35
1017.6439	2908.9801	1352.5	473.5
1017.7594	2910.0953	1348.95	469.3
1017.8748	2911.2098	1352.9	470.85
1017.9902	2912.3236	1349.35	459.95
1018.1056	2913.4368	1353.8	469.45
1018.2209	2914.5494	1343.05	461.25
1018.3362	2915.6613	1347.15	461.5
1018.4515	2916.7725	1334.8	451.25
1018.5667	2917.8831	1324.3	442.3
1018.6819	2918.9931	1325.8	442.3
1018.797	2920.1024	1318.7	439.5
1018.9121	2921.211	1310.7	430.4
1019.0271	2922.319	1307.2	426.8
1019.1421	2923.4264	1300.3	422.5
1019.2571	2924.5331	1297.7	417.55
1019.372	2925.6391	1293.8	414.95
1019.4869	2926.7445	1292.3	412.4
1019.6017	2927.8493	1296.35	417.3
1019.7165	2928.9534	1299.95	418.05
1019.8313	2930.0569	1304.5	421.3
1019.946	2931.1597	1301.55	420
1020.0606	2932.2619	1304.1	424.95
1020.1753	2933.3634	1305.9	425.9
1020.2899	2934.4643	1321.8	435.05
1020.4044	2935.5645	1319.45	434.05
1020.5189	2936.6641	1321	436.6
1020.6334	2937.763	1320.05	443.6
1020.7478	2938.8613	1327.95	447.15
1020.8622	2939.959	1327.1	440.75
1020.9765	2941.056	1312.3	434.9
1021.0908	2942.1523	1287.1	406.05
1021.2051	2943.248	1279.05	400.45
1021.3193	2944.3431	1256.2	378.8
1021.4334	2945.4375	1231.25	349.45
1021.5476	2946.5313	1213.8	335.9
1021.6617	2947.6244	1195.4	315.25
1021.7757	2948.7169	1183.1	300.25
1021.8897	2949.8087	1164.8	284.85
1022.0037	2950.8999	1149.05	267.25
1022.1176	2951.9904	1141.65	261.95
1022.2315	2953.0803	1125.1	244.4
1022.3453	2954.1696	1113.1	233.4
1022.4591	2955.2582	1106	226.95
1022.5728	2956.3462	1102.2	222.4
1022.6865	2957.4335	1100.1	218.95
1022.8002	2958.5202	1098.9	216.75
1022.9138	2959.6062	1093.2	213.1
1023.0274	2960.6916	1093.6	214.05
1023.141	2961.7764	1099.5	218.6
1023.2545	2962.8605	1093.2	212.5
1023.3679	2963.9439	1090.65	211.85
1023.4813	2965.0267	1091.55	211.1
1023.5947	2966.1089	1110.4	207.4
1023.708	2967.1905	1090.5	210.7
1023.8213	2968.2714	1087.55	209.5
1023.9346	2969.3516	1082.4	202.75
1024.0478	2970.4312	1088.3	199
1024.1609	2971.5102	1081.45	201.35
1024.274	2972.5885	1079.7	199.85
1024.3871	2973.6662	1090.6	208.15
1024.5002	2974.7432	1088.3	210.2
1024.6132	2975.8196	1084.95	204.5
1024.7261	2976.8954	1082.9	203.05
1024.839	2977.9705	1081.95	201.65
1024.9519	2979.045	1085.45	207.55
1025.0647	2980.1188	1082.85	203.8
1025.1775	2981.192	1084.2	205.95
1025.2902	2982.2645	1078.8	197.7
1025.4029	2983.3364	1076.35	197.6
1025.5156	2984.4077	1072.7	192.5
1025.6282	2985.4783	1068.05	182.25
1025.7407	2986.5483	1057.85	178.25
1025.8532	2987.6177	1050.65	170.85
1025.9657	2988.6864	1048.25	169.55
1026.0782	2989.7545	1044.45	162
1026.1906	2990.8219	1037.3	162.15
1026.3029	2991.8887	1029.6	148.5
1026.4152	2992.9548	1022.1	142.5
1026.5275	2994.0204	1016.05	137.2
1026.6397	2995.0852	1007.85	129.4
1026.7519	2996.1495	1004.1	123.2
1026.864	2997.2131	997.3	118.3
1026.9761	2998.276	988.5	107.7
1027.0882	2999.3383	985.5	104.25
1027.2002	3000.4	983	102.15
1027.3122	3001.4611	973.7	93.8
1027.4241	3002.5215	973.7	94.95
1027.536	3003.5812	968.6	88.35
1027.6478	3004.6404	966.1	86.1
1027.7596	3005.6989	962.15	80.4
1027.8714	3006.7567	959.8	82.05
1027.9831	3007.8139	988.2	76.45
1028.0947	3008.8705	955.3	74.45
1028.2064	3009.9264	957.45	74.1
1028.3179	3010.9818	949.35	68.7
1028.4295	3012.0364	951.6	70.65
1028.541	3013.0905	949.95	68.65
1028.6524	3014.1439	946.4	65.5
1028.7638	3015.1966	949.25	71.65
1028.8752	3016.2487	944.95	66
1028.9865	3017.3002	951.25	68.5
1029.0978	3018.3511	945.25	67.2
1029.209	3019.4013	944.05	65.8
1029.3202	3020.4509	941.15	63.3
1029.4314	3021.4998	942.9	63.2
1029.5425	3022.5481	940.85	62
1029.6535	3023.5958	940.45	60.45
1029.7645	3024.6428	938.75	59.4
1029.8755	3025.6892	943.55	64.2
1029.9864	3026.735	940.2	60.1
1030.0973	3027.7802	941.35	62.35
1030.2082	3028.8247	939.65	61.05
1030.319	3029.8685	937.1	57.25
1030.4297	3030.9118	940.85	62.1
1030.5404	3031.9544	936.4	56
1030.6511	3032.9963	938.2	59.4
1030.7617	3034.0376	939.95	60.9
1030.8723	3035.0783	943.7	61
1030.9829	3036.1184	943.25	63.65
1031.0934	3037.1578	938.75	59.3
1031.2038	3038.1966	941.75	60.6
1031.3142	3039.2348	938.5	58.45
1031.4246	3040.2723	947.6	57.65
1031.5349	3041.3092	940.15	63
1031.6452	3042.3455	944.3	63.7
1031.7554	3043.3811	941.65	62.35
1031.8656	3044.4161	942.1	59.65
1031.9758	3045.4505	942.45	62.7
1032.0859	3046.4842	940.9	59.4
1032.1959	3047.5173	938.75	60
1032.3059	3048.5498	942.2	63.15
1032.4159	3049.5816	943.05	64.45
1032.5258	3050.6128	942.4	62.6
1032.6357	3051.6434	942.75	62
1032.7455	3052.6734	945.35	64.7
1032.8553	3053.7027	941	61.25
1032.9651	3054.7314	942.9	63.8
1033.0748	3055.7594	938.75	61.45
1033.1845	3056.7868	944.4	65
1033.2941	3057.8136	943.55	62.8
1033.4037	3058.8398	942.65	63.65
1033.5132	3059.8653	944.55	65.35
1033.6227	3060.8902	945.5	65.2
1033.7321	3061.9145	945.3	65.25
1033.8415	3062.9381	945.9	64.9
1033.9509	3063.9612	961.5	66.9
1034.0602	3064.9835	950.35	71.15
1034.1694	3066.0053	949.8	66.95
1034.2787	3067.0264	945.65	66.7
1034.3878	3068.0469	949.8	69.25
1034.497	3069.0668	951.9	69.75
1034.6061	3070.086	946.4	68.45
1034.7151	3071.1046	945.95	65.4
1034.8241	3072.1226	947.7	67.85
1034.9331	3073.1399	946.2	66.85
1035.042	3074.1567	942.75	61.95
1035.1508	3075.1727	946.35	67.3
1035.2597	3076.1882	941.65	61.95
1035.3684	3077.203	940.35	61.6
1035.4772	3078.2173	938.45	60
1035.5859	3079.2308	940.6	57.75
1035.6945	3080.2438	936.2	54.6
1035.8031	3081.2561	933.55	52.5
1035.9117	3082.2678	932.05	52.75
1036.0202	3083.2789	929.6	49.55
1036.1286	3084.2893	930.85	51.7
1036.2371	3085.2991	928.8	49.6
1036.3454	3086.3083	934.25	52.25
1036.4538	3087.3169	931.85	50.65
1036.562	3088.3248	929.35	46.55
1036.6703	3089.3321	927.3	45.5
1036.7785	3090.3388	923.7	45.6
1036.8866	3091.3449	927	46.15
1036.9948	3092.3503	924.5	43.65
1037.1028	3093.3551	922.2	45.15
1037.2108	3094.3593	923.35	44.95
1037.3188	3095.3629	920.3	40.7
1037.4267	3096.3658	923.5	43.6
1037.5346	3097.3681	922.05	41
1037.6425	3098.3698	922.1	42.25
1037.7503	3099.3708	918.25	38.9
1037.858	3100.3713	920.4	43.1
1037.9657	3101.3711	921.7	43.15
1038.0734	3102.3702	1055.2	40.5
1038.181	3103.3688	923.1	41.9
1038.2886	3104.3667	918.6	42.3
1038.3961	3105.364	917.5	37.5
1038.5036	3106.3607	919.65	40.45
1038.611	3107.3568	917	37.4
1038.7184	3108.3522	914.05	35.4
1038.8257	3109.347	916.35	36.55
1038.933	3110.3412	919.5	33.5
1039.0403	3111.3348	916	36.4
1039.1475	3112.3277	913	34.2
1039.2547	3113.32	910.25	30.8
1039.3618	3114.3117	914.75	34.95
1039.4689	3115.3028	914	34.7
1039.5759	3116.2932	913.6	32.05
1039.6829	3117.2831	917.8	33.55
1039.7898	3118.2723	909.8	32.2
1039.8967	3119.2608	909.75	28.65
1040.0035	3120.2488	908.45	29
1040.1103	3121.2361	911.1	31.5
1040.2171	3122.2229	908.6	29.15
1040.3238	3123.209	908.45	29.75
1040.4305	3124.1944	906.65	28.1
1040.5371	3125.1793	909	27.2
1040.6437	3126.1635	908.15	30.75
1040.7502	3127.1471	906.35	26.45
1040.8567	3128.1301	905.2	27.65
1040.9631	3129.1125	906.1	26.6
1041.0695	3130.0942	906.3	26.55
1041.1759	3131.0753	914.75	27.9
1041.2822	3132.0558	907.95	25.1
1041.3884	3133.0357	905.35	24.85
1041.4946	3134.015	906.75	26.35
1041.6008	3134.9936	907.5	27.2
1041.7069	3135.9716	923.3	24.55
1041.813	3136.949	905.65	25.35
1041.919	3137.9258	921.4	24
1042.025	3138.902	908.55	23.75
1042.1309	3139.8775	902.55	22.6
1042.2368	3140.8524	901.8	22.3
1042.3427	3141.8267	906.9	26.35
1042.4485	3142.8004	901.85	20.65
1042.5542	3143.7735	909.6	23.7
1042.6599	3144.7459	905.45	24.95
1042.7656	3145.7178	903.8	23.3
1042.8712	3146.689	902.1	23.65
1042.9768	3147.6596	904	24.5
1043.0823	3148.6295	903.65	21.7
1043.1878	3149.5989	900.6	22.5
1043.2932	3150.5676	899.7	21.1
1043.3986	3151.5357	899.05	22.95
1043.5039	3152.5032	899.65	20.35
1043.6092	3153.4701	899.45	21.1
1043.7145	3154.4364	901.15	18.4
1043.8197	3155.402	901.45	22.75
1043.9248	3156.367	903.25	19.8
1044.03	3157.3315	935.85	19.2
1044.135	3158.2952	901.4	22.9
1044.24	3159.2584	898.8	19.85
1044.345	3160.221	898.7	18.6
1044.4499	3161.1829	900.75	22.1
1044.5548	3162.1442	901.8	23.7
1044.6596	3163.105	899.65	19.7
1044.7644	3164.065	901.1	24.7
1044.8692	3165.0245	901	20.15
1044.9739	3165.9834	898.1	22
1045.0785	3166.9416	899.5	20.3
1045.1831	3167.8993	899.15	19.9
1045.2877	3168.8563	897.25	17.3
1045.3922	3169.8127	899	20.85
1045.4966	3170.7684	899.25	19.65
1045.6011	3171.7236	898.4	18.3
1045.7054	3172.6782	899.45	19.35
1045.8098	3173.6321	899.5	20.4
1045.914	3174.5854	902.95	18.9
1046.0183	3175.5381	898.6	20.3
1046.1224	3176.4902	897.9	18.2
1046.2266	3177.4417	897.85	18.35
1046.3307	3178.3926	896.1	16.95
1046.4347	3179.3428	896	17.3
1046.5387	3180.2924	894.95	17.15
1046.6427	3181.2415	897	18.6
1046.7466	3182.1899	898.55	18.05
1046.8504	3183.1377	898.25	19.85
1046.9542	3184.0848	900.45	19.15
1047.058	3185.0314	894.4	13.85
1047.1617	3185.9773	895.55	15.4
1047.2654	3186.9227	896.75	18.2
1047.369	3187.8674	895.8	15.95
1047.4726	3188.8115	900.05	16.8
1047.5761	3189.755	896.55	18.9
1047.6796	3190.6979	894.75	14.55
1047.783	3191.6402	895.1	18.05
1047.8864	3192.5818	896.55	17.3
1047.9898	3193.5229	921.15	18.7
1048.0931	3194.4633	895.55	16.25
1048.1963	3195.4031	892.45	12.7
1048.2995	3196.3423	894.8	17.7
1048.4027	3197.2809	895.9	15.3
1048.5058	3198.2189	894.9	16.1
1048.6089	3199.1563	899.75	13.45
1048.7119	3200.0931	893.1	16.25
1048.8148	3201.0292	892.5	13.95
1048.9178	3201.9648	892.6	13.15
1049.0206	3202.8997	895	13.6
1049.1235	3203.834	892.1	13.3
1049.2262	3204.7677	892.55	13.7
1049.329	3205.7008	896.7	16.15
1049.4317	3206.6333	892.05	13.15
1049.5343	3207.5652	896.6	14.05
1049.6369	3208.4964	893.9	14.1
1049.7394	3209.4271	893.8	15.95
1049.8419	3210.3571	892.4	13.95
1049.9444	3211.2865	894.5	15.1
1050.0468	3212.2154	893.75	14.45
1050.1491	3213.1436	895.5	14.1
1050.2514	3214.0712	899.7	14.25
1050.3537	3214.9982	892.85	15.65
1050.4559	3215.9246	892.4	14.1
1050.5581	3216.8503	891.95	14.5
1050.6602	3217.7755	893	15.7
1050.7623	3218.7001	892.1	15.3
1050.8643	3219.624	890.75	11.25
1050.9663	3220.5473	891.8	12.5
1051.0682	3221.4701	895.8	15.2
1051.1701	3222.3922	893.75	12.55
1051.2719	3223.3137	892.35	13.25
1051.3737	3224.2346	893.2	14.05
1051.4754	3225.1549	891.55	15.85
1051.5771	3226.0746	890.3	13.25
1051.6788	3226.9937	890.85	10.65
1051.7804	3227.9121	890.7	11.7
1051.8819	3228.83	890.85	12.5
1051.9834	3229.7473	892.9	12.6
1052.0849	3230.6639	893.25	13.4
1052.1863	3231.5799	892.1	12.75
1052.2876	3232.4954	891.45	12.4
1052.3889	3233.4102	890.6	13.7
1052.4902	3234.3244	891.45	9.8
1052.5914	3235.238	890.75	14.7
1052.6926	3236.151	914.45	11.85
1052.7937	3237.0634	891.7	14.2
1052.8948	3237.9752	889.8	9.6
1052.9958	3238.8864	890.85	11.3
1053.0968	3239.797	890.25	10.65
1053.1977	3240.7069	889.5	9.3
1053.2986	3241.6163	892.7	13.05
1053.3994	3242.5251	891.35	14.3
1053.5002	3243.4332	889.5	11.3
1053.6009	3244.3408	890.75	10.3
1053.7016	3245.2477	889.05	11.2
1053.8022	3246.154	891.45	11.1
1053.9028	3247.0598	890.9	12.6
1054.0034	3247.9649	891.4	12.5
1054.1039	3248.8694	889	9.3
1054.2043	3249.7733	888.55	9.2
1054.3047	3250.6766	889.9	10.7
1054.4051	3251.5793	890.2	10
1054.5054	3252.4814	889.85	12.05
1054.6056	3253.3829	888.55	10.8
1054.7058	3254.2838	889.25	10.85
1054.806	3255.1841	889.65	12.3
1054.9061	3256.0838	887.4	8.15
1055.0061	3256.9829	886.7	9.6
1055.1062	3257.8814	889.45	7.9
1055.2061	3258.7792	893.2	11.7
1055.306	3259.6765	889.45	10.5
1055.4059	3260.5731	888.15	9.55
1055.5057	3261.4692	888.1	8.7
1055.6055	3262.3647	888.25	8.85
1055.7052	3263.2595	888.7	7.45
1055.8049	3264.1538	887	9.25
1055.9045	3265.0474	888.9	9.4
1056.0041	3265.9404	887.25	8.4
1056.1036	3266.8329	886.7	8.2
1056.2031	3267.7247	897.5	8.45
1056.3025	3268.616	886.75	9.15
1056.4019	3269.5066	888.6	9.2
1056.5013	3270.3966	887.7	7.2
1056.6005	3271.286	886.05	9.1
