Software Version:	3.9.2.0
Unit SN:	10000200
Spectrometer SN:	6960
Date:	3/8/2024 1:47:00 PM
Data Line Index:	25
Spectral Points:	2048
Integration time (ms):	125
Averages:	20
Delay (ms):	30000
Sequence Number:	1
Processing:	dark subtract
Laser Power (mW):	300
Laser Current (mA):	823
Laser Diode Temp (C):	25.1
Laser Case Temp (C):	26.3
System Temp (C):	26.3
Spectrometer Temp (C):	24.1
CCD Temp (C):	0.007
Secondary Temp (C):	20.004
Heatsink Temp (C):	21.404
CCDPCB Temp (C):	36.351
SecondaryPCB Temp (C):	32.038

Wavelength	RamanShift	Raw Counts	Dark Subtracted
787.061	30.1047	470.4	61.85
787.2016	32.3739	474	67.65
787.3422	34.6426	476.4	70
787.4828	36.9109	481.45	73.2
787.6235	39.1787	492.95	80.6
787.7642	41.4461	500.7	82.55
787.9049	43.7131	510.55	90.05
788.0456	45.9796	517.95	94.05
788.1863	48.2456	528.75	101.1
788.3271	50.5112	545.9	112.8
788.4679	52.7764	553.25	116.45
788.6087	55.0411	559.65	118.85
788.7496	57.3054	572	127.5
788.8904	59.5692	585.3	138
789.0313	61.8326	594.95	145.65
789.1722	64.0955	609.3	156.85
789.3132	66.3579	626.7	169.4
789.4541	68.6199	649.05	186.7
789.5951	70.8815	683.25	219.8
789.7361	73.1426	773.6	303.95
789.8771	75.4032	989.6	517.45
790.0181	77.6634	1528.55	1051.35
790.1592	79.9231	2804.2	2317.7
790.3003	82.1824	5582.95	5079.05
790.4414	84.4412	10598.95	10061.6
790.5825	86.6995	17558.3	16984.35
790.7237	88.9574	24379.95	23771.65
790.8648	91.2148	29100.15	28467.4
791.006	93.4717	31314.45	30667.9
791.1472	95.7282	31924.05	31273.2
791.2885	97.9842	31886.6	31230.4
791.4297	100.2398	31400.1	30738.25
791.571	102.4949	30828.35	30169.1
791.7123	104.7495	30087.15	29423.3
791.8536	107.0036	29253.1	28584
791.9949	109.2573	28567.15	27905.95
792.1363	111.5105	27846.7	27179.75
792.2777	113.7632	27153.95	26480
792.4191	116.0154	26615.8	25937.1
792.5605	118.2672	26194	25518.9
792.7019	120.5185	25753.5	25077.15
792.8434	122.7693	25449.3	24763.05
792.9849	125.0197	25234.25	24549.05
793.1264	127.2696	24932.7	24244.2
793.2679	129.519	24826.05	24134.2
793.4094	131.7679	24610.95	23917.1
793.551	134.0163	24495.75	23796.95
793.6926	136.2642	24291.75	23596.8
793.8342	138.5117	24111.85	23402.85
793.9758	140.7587	23916.65	23212.25
794.1175	143.0052	23720.8	23016.55
794.2591	145.2512	23489.55	22784.3
794.4008	147.4967	23246.9	22539.95
794.5425	149.7417	23098.1	22387.35
794.6842	151.9863	23008.45	22294.55
794.826	154.2304	22978.6	22254.15
794.9677	156.4739	22832.7	22107.4
795.1095	158.717	22814.95	22087.2
795.2513	160.9596	22650.6	21918.5
795.3931	163.2017	22424.6	21690.15
795.535	165.4433	22148.1	21415.45
795.6768	167.6844	21835.75	21101.75
795.8187	169.925	21560.25	20822.9
795.9606	172.1651	21186.15	20448.4
796.1025	174.4047	20961.2	20216.15
796.2445	176.6439	20672.9	19930.15
796.3864	178.8825	20485.6	19735.35
796.5284	181.1206	20346.65	19592.1
796.6704	183.3582	20205.55	19450.05
796.8124	185.5954	20102.45	19342.15
796.9544	187.832	20042.9	19277.6
797.0965	190.0681	20060.8	19296.2
797.2386	192.3037	20019.8	19252.65
797.3806	194.5388	20049	19276.85
797.5228	196.7734	20111.8	19330.1
797.6649	199.0075	20252.1	19476.05
797.807	201.2411	20445.7	19668
797.9492	203.4742	20523.75	19741.65
798.0914	205.7068	20720.8	19936.5
798.2336	207.9389	20821.7	20036.9
798.3758	210.1704	21010	20232.25
798.518	212.4015	21086.65	20324.15
798.6603	214.632	21309	20547.5
798.8025	216.862	21526.15	20764.9
798.9448	219.0915	21692.75	20927.9
799.0871	221.3205	21920.35	21154.9
799.2294	223.549	22153.9	21391.2
799.3718	225.777	22475.8	21715.25
799.5141	228.0044	22844.85	22075.95
799.6565	230.2314	23294.9	22527.55
799.7989	232.4578	23715.15	22943.35
799.9413	234.6837	24090	23315.25
800.0837	236.909	24290.45	23506.65
800.2262	239.1339	24319.9	23505.45
800.3687	241.3582	24132.2	23335.3
800.5111	243.582	23820.2	22996.45
800.6536	245.8053	23528.8	22718
800.7961	248.0281	23220.85	22411.25
800.9387	250.2503	23030.05	22222.85
801.0812	252.472	22918.85	22112.65
801.2238	254.6932	22932.15	22127.4
801.3664	256.9139	22843.2	22036.1
801.509	259.134	22878.2	22058.85
801.6516	261.3536	22910.7	22094.65
801.7942	263.5727	23066.75	22247.95
801.9369	265.7912	23010.1	22196.75
802.0795	268.0092	23088.05	22276.85
802.2222	270.2267	23100.45	22284.05
802.3649	272.4436	23108.9	22291.5
802.5076	274.6601	23045.6	22222.85
802.6504	276.8759	22972.55	22154.15
802.7931	279.0913	22948.65	22132
802.9359	281.3061	22914.2	22089.05
803.0787	283.5204	23019.15	22189.6
803.2215	285.7341	23106.9	22275.75
803.3643	287.9473	23301.7	22461.05
803.5071	290.16	23498.4	22664.4
803.6499	292.3721	23813.95	22983.05
803.7928	294.5837	24226.15	23395.65
803.9357	296.7947	24581.1	23751.9
804.0786	299.0052	24780.35	23950.95
804.2215	301.2152	24662.2	23830.05
804.3644	303.4246	24373.05	23545.1
804.5074	305.6334	23862.85	23035.8
804.6503	307.8418	23382.1	22551.75
804.7933	310.0495	22962.35	22127.55
804.9363	312.2568	22660.65	21826.35
805.0793	314.4635	22443.2	21604.9
805.2223	316.6696	22349.8	21511.15
805.3653	318.8752	22319.9	21468.9
805.5084	321.0802	22390.45	21552.2
805.6514	323.2847	22488.45	21642.2
805.7945	325.4887	22535.2	21692.45
805.9376	327.692	22480.7	21632.6
806.0807	329.8949	22413.35	21566.9
806.2238	332.0972	22152.2	21304.15
806.367	334.2989	21926.6	21076.5
806.5101	336.5001	21652.05	20800.05
806.6533	338.7007	21478.1	20626.6
806.7965	340.9008	21412.55	20557
806.9397	343.1003	21324.35	20469.7
807.0829	345.2992	21296.05	20445.05
807.2261	347.4976	21252.55	20395.3
807.3693	349.6955	21267.3	20411.15
807.5126	351.8927	21374.05	20512.7
807.6559	354.0895	21339.2	20465.75
807.7991	356.2856	21432.2	20569
807.9424	358.4812	21407.5	20539.95
808.0857	360.6763	21497.35	20631.45
808.2291	362.8707	21475.05	20610.6
808.3724	365.0646	21537.75	20668.5
808.5158	367.258	21534.7	20666.9
808.6591	369.4508	21565.5	20694.75
808.8025	371.643	21682.75	20812.6
808.9459	373.8346	21666.4	20794.3
809.0893	376.0257	21703.3	20825.35
809.2327	378.2162	21635.8	20764.05
809.3762	380.4062	21554.1	20685.15
809.5196	382.5956	21427.5	20557
809.6631	384.7844	21352.2	20484.45
809.8066	386.9726	21269.05	20406.45
809.9501	389.1603	21219.25	20356.65
810.0936	391.3474	21211.3	20309.75
810.2371	393.5339	21192.45	20318.6
810.3806	395.7199	21133.45	20268.6
810.5241	397.9052	21198.55	20329.5
810.6677	400.09	21180.85	20313.75
810.8113	402.2743	21287.75	20415.95
810.9548	404.4579	21397.25	20525.9
811.0984	406.641	21574.85	20706.35
811.2421	408.8235	21800.25	20932.2
811.3857	411.0054	22090.15	21215.25
811.5293	413.1868	22562.2	21684.35
811.673	415.3675	22869.5	21984.45
811.8166	417.5477	23085.95	22207.2
811.9603	419.7273	23113.95	22231.1
812.104	421.9064	22997.5	22112.6
812.2477	424.0848	22876.55	21996.6
812.3914	426.2627	22683	21802.4
812.5351	428.4399	22413.7	21527.6
812.6788	430.6166	22061.25	21171.35
812.8226	432.7928	21688.05	20797.8
812.9663	434.9683	21408.15	20526.75
813.1101	437.1432	21224.7	20341.1
813.2539	439.3176	21054.1	20174.6
813.3977	441.4914	20944.15	20067.05
813.5415	443.6645	20968.55	20090.4
813.6853	445.8371	20906.8	20021.3
813.8291	448.0091	20826.75	19937.9
813.973	450.1806	20800.15	19918.35
814.1168	452.3514	20720.15	19837.65
814.2607	454.5216	20766.2	19873.75
814.4046	456.6913	20690.55	19807.25
814.5485	458.8603	20741.65	19856.15
814.6924	461.0288	20799.75	19920.45
814.8363	463.1967	20832	19957.35
814.9802	465.3639	20975.9	20093.95
815.1241	467.5306	21046.5	20163.75
815.2681	469.6967	21231.8	20352.2
815.412	471.8622	21370	20494.25
815.556	474.0271	21502.55	20618.6
815.7	476.1914	21582.05	20692.3
815.844	478.3551	21591.3	20703.75
815.988	480.5182	21616.05	20733.35
816.132	482.6807	21620.75	20742.15
816.276	484.8426	21760.45	20892
816.4201	487.0039	22109.7	21231.1
816.5641	489.1647	22523.45	21638.05
816.7082	491.3248	22970.4	22081.1
816.8522	493.4843	23121.95	22242.9
816.9963	495.6432	23138.15	22257.05
817.1404	497.8015	23029.2	22133.15
817.2845	499.9592	23076.35	22178.95
817.4286	502.1163	22979.7	22082.2
817.5727	504.2728	22760.45	21871
817.7168	506.4287	22472.9	21594.15
817.861	508.5839	22106	21227.1
818.0051	510.7386	21783.5	20899.1
818.1493	512.8927	21636.55	20745.9
818.2935	515.0461	21527.65	20637.55
818.4377	517.199	21537.35	20644.65
818.5818	519.3512	21568.9	20668.05
818.726	521.5029	21688.75	20793.5
818.8703	523.6539	21760.75	20865.4
819.0145	525.8043	21848.25	20953.25
819.1587	527.9541	21873.95	20974.5
819.303	530.1033	21849.9	20956.15
819.4472	532.2519	21882.5	20988.8
819.5915	534.3999	21987.55	21089.2
819.7357	536.5472	22265.75	21368.3
819.88	538.694	22727.85	21837.2
820.0243	540.8401	23304.1	22405.1
820.1686	542.9856	23785.65	22878.75
820.3129	545.1305	23926.65	23012.8
820.4572	547.2748	23856.8	22940.25
820.6016	549.4185	23486.25	22571.7
820.7459	551.5615	23151.5	22238.65
820.8902	553.704	23053.45	22142.5
821.0346	555.8458	23036.7	22130.25
821.1789	557.987	23101.15	22195.5
821.3233	560.1276	23103.35	22195.4
821.4677	562.2675	23154.85	22245.9
821.6121	564.4069	23249.5	22337.45
821.7565	566.5456	23303.15	22396.3
821.9009	568.6837	23262.2	22359.15
822.0453	570.8212	22929.25	22023.15
822.1897	572.958	22592.55	21685
822.3342	575.0942	22314.85	21412.65
822.4786	577.2299	22109.3	21208.85
822.6231	579.3648	22055.55	21167.5
822.7675	581.4992	22081.95	21203.05
822.912	583.6329	22292.25	21412.9
823.0565	585.766	22524.1	21640.7
823.201	587.8985	22659.75	21773.35
823.3454	590.0304	22694.2	21771.5
823.4899	592.1616	22622.15	21712.25
823.6345	594.2922	22540.8	21628.4
823.779	596.4222	22364.2	21451.25
823.9235	598.5515	22213.75	21298.95
824.068	600.6802	22075.7	21160.95
824.2126	602.8083	21907.1	20999.6
824.3571	604.9358	21853.25	20938.6
824.5017	607.0626	21851.35	20935.9
824.6462	609.1888	21790.6	20867.35
824.7908	611.3144	21777.25	20853.4
824.9354	613.4393	21708.9	20788.8
825.08	615.5636	21622.2	20699.6
825.2246	617.6873	21552.75	20634.45
825.3692	619.8103	21553.55	20636.65
825.5138	621.9327	21452.9	20535
825.6584	624.0544	21419.45	20511.1
825.803	626.1756	21385.3	20470.4
825.9477	628.2961	21343.15	20423.15
826.0923	630.4159	21292.35	20372.95
826.237	632.5351	21291.7	20368.85
826.3816	634.6537	21267.65	20347.8
826.5263	636.7716	21287	20361.65
826.6709	638.8889	21282.2	20355.1
826.8156	641.0056	21345.35	20419.45
826.9603	643.1216	21336.7	20409.95
827.105	645.237	21386.25	20464.75
827.2497	647.3518	21349.15	20436.45
827.3944	649.4659	21393.8	20484.95
827.5391	651.5793	21379.3	20470.3
827.6838	653.6922	21344.6	20431.5
827.8285	655.8043	21365.8	20454.95
827.9733	657.9159	21403.2	20486.9
828.118	660.0268	21307.95	20393.25
828.2627	662.137	21289.65	20369.55
828.4075	664.2466	21297.25	20369.25
828.5522	666.3556	21316.1	20389.35
828.697	668.4639	21260.7	20336.9
828.8418	670.5716	21311.55	20397.6
828.9865	672.6786	21409.8	20491.4
829.1313	674.785	21480.35	20554.8
829.2761	676.8907	21508.05	20585.95
829.4209	678.9958	21612.15	20694.55
829.5657	681.1002	21574.85	20653.95
829.7105	683.204	21584.45	20654.55
829.8553	685.3072	21547.5	20620.65
830.0001	687.4097	21458.4	20533.4
830.1449	689.5115	21471.8	20545.1
830.2898	691.6127	21464.45	20539.15
830.4346	693.7132	21393.55	20474.3
830.5794	695.8131	21429.15	20497.3
830.7243	697.9123	21423.25	20492.75
830.8691	700.0109	21418.65	20487.3
831.014	702.1089	21405.1	20475.95
831.1588	704.2061	21419.75	20492.3
831.3037	706.3028	21466.8	20533.95
831.4486	708.3987	21508.5	20576.65
831.5935	710.4941	21616.6	20688.05
831.7383	712.5887	21793	20865.55
831.8832	714.6827	22090.15	21161.75
832.0281	716.7761	22387.05	21461.25
832.173	718.8688	22764.6	21838.95
832.3179	720.9608	22966.35	22035.65
832.4628	723.0522	23037.55	22102.9
832.6077	725.1429	22907.25	21973.25
832.7527	727.233	22671.45	21738.7
832.8976	729.3224	22483.45	21554.05
833.0425	731.4112	22216.35	21283.45
833.1874	733.4993	22022.65	21095.2
833.3324	735.5867	21866.2	20937.75
833.4773	737.6735	21758.6	20823.3
833.6222	739.7596	21721.25	20783.9
833.7672	741.845	21654.05	20723.15
833.9122	743.9298	21628.65	20698.1
834.0571	746.014	21629.15	20694.8
834.2021	748.0974	21624.3	20689.3
834.347	750.1802	21629.8	20690.75
834.492	752.2624	21690.5	20758.55
834.637	754.3439	21663.9	20726.55
834.782	756.4247	21770.85	20825
834.9269	758.5048	21876.65	20941.7
835.0719	760.5843	22111	21175.3
835.2169	762.6631	22453.85	21513.1
835.3619	764.7413	22889.75	21954.95
835.5069	766.8188	23525.7	22589
835.6519	768.8956	23932.05	22994.75
835.7969	770.9718	24265	23326.1
835.9419	773.0473	24114.45	23177.55
836.0869	775.1221	23819.85	22880.35
836.232	777.1962	23458.75	22517.45
836.377	779.2697	23263.3	22322.4
836.522	781.3426	23303.1	22347.55
836.667	783.4147	23558	22615.75
836.8121	785.4862	23848.3	22911.55
836.9571	787.557	23852.35	22911.7
837.1021	789.6271	23547.4	22605.5
837.2472	791.6966	22999.15	22060.8
837.3922	793.7654	22447.35	21507.15
837.5373	795.8335	22203.25	21263.45
837.6823	797.901	21995.85	21057.5
837.8274	799.9678	21937.2	20992.35
837.9724	802.0339	21943.3	21004
838.1175	804.0993	22010.85	21060.4
838.2626	806.1641	21973.45	21029.75
838.4076	808.2282	21908.45	20967.45
838.5527	810.2916	21851.55	20909.9
838.6978	812.3544	21768.35	20825.75
838.8428	814.4164	21715.7	20774.95
838.9879	816.4778	21723.85	20781.35
839.133	818.5385	21713.2	20765.4
839.2781	820.5986	21835.2	20892.2
839.4232	822.658	21951.4	21007.7
839.5682	824.7166	22057.6	21111.8
839.7133	826.7747	22341.3	21400.5
839.8584	828.832	22570.75	21624.35
840.0035	830.8886	22764.8	21822.45
840.1486	832.9446	22883.75	21937.15
840.2937	834.9999	22891.4	21948.2
840.4388	837.0545	22924	21975.65
840.5839	839.1085	22889.95	21945.4
840.729	841.1618	22818.7	21869.6
840.8741	843.2143	22763.45	21818.6
841.0192	845.2662	22675.1	21733.15
841.1643	847.3175	22623.45	21678.95
841.3095	849.368	22537.6	21591.6
841.4546	851.4179	22450.35	21506.9
841.5997	853.467	22289.25	21342.05
841.7448	855.5155	22204.75	21257.8
841.8899	857.5633	22119.9	21174.75
842.0351	859.6105	22009.85	21064.65
842.1802	861.6569	22011.6	21067.4
842.3253	863.7027	21923.6	20975.85
842.4704	865.7478	21910.45	20967.15
842.6156	867.7922	21930.55	20985.25
842.7607	869.8359	22035.35	21088.85
842.9058	871.8789	22134.05	21187.65
843.0509	873.9212	22323.8	21344.45
843.1961	875.9629	22436.6	21486.15
843.3412	878.0039	22571.8	21623.55
843.4863	880.0441	22729.85	21787.85
843.6315	882.0837	22718.85	21771.5
843.7766	884.1226	22695.25	21749.75
843.9218	886.1609	22617.05	21672.5
844.0669	888.1984	22569.25	21622.95
844.212	890.2352	22603	21657.3
844.3572	892.2714	22537.5	21584.8
844.5023	894.3069	22570.55	21623.45
844.6475	896.3416	22485.7	21539.5
844.7926	898.3757	22474.6	21527.35
844.9377	900.4091	22467.95	21517.4
845.0829	902.4418	22474.8	21525.85
845.228	904.4739	22498.45	21546.25
845.3732	906.5052	22506.4	21554.9
845.5183	908.5358	22405.55	21454.9
845.6635	910.5658	22301.85	21346.55
845.8086	912.595	22168.1	21219.55
845.9538	914.6236	21977.75	21029.1
846.0989	916.6515	21915.85	20964.6
846.2441	918.6786	21891.05	20938.6
846.3892	920.7051	21957.95	21004.75
846.5344	922.7309	22149.85	21200.7
846.6795	924.756	22196.6	21248.7
846.8246	926.7804	22281.35	21326.4
846.9698	928.8041	22184.65	21229.55
847.1149	930.8272	22254.5	21302.9
847.2601	932.8495	22160.4	21207.4
847.4052	934.8711	22147	21195.35
847.5504	936.892	22006.55	21053.65
847.6955	938.9123	21868.5	20916.2
847.8407	940.9318	21720.75	20769.3
847.9858	942.9506	21648.95	20696.85
848.131	944.9688	21553.55	20602.85
848.2761	946.9862	21483.05	20531.55
848.4213	949.003	21414.4	20461.4
848.5664	951.019	21421.35	20471.35
848.7115	953.0344	21420	20468.5
848.8567	955.0491	21434.95	20484.5
849.0018	957.063	21541.25	20589.75
849.147	959.0763	21702.05	20751.7
849.2921	961.0888	21723.25	20773.55
849.4373	963.1007	21819.65	20873.25
849.5824	965.1119	21897.65	20958.6
849.7275	967.1223	21907	20970.75
849.8727	969.1321	21929.4	20996.4
850.0178	971.1412	21980.95	21038.7
850.1629	973.1495	21951.15	21006.85
850.3081	975.1572	22068.15	21068.45
850.4532	977.1641	22070.85	21118.1
850.5983	979.1704	22015.55	21064.9
850.7435	981.1759	22012.6	21057.45
850.8886	983.1808	22121.9	21165.45
851.0337	985.1849	22156.7	21195.45
851.1788	987.1884	22336.7	21385.2
851.324	989.1911	22501.4	21551.7
851.4691	991.1932	22604.25	21654
851.6142	993.1945	22605.15	21654.8
851.7593	995.1951	22575.85	21626.15
851.9045	997.1951	22547.7	21591.55
852.0496	999.1943	22443.8	21493.65
852.1947	1001.1928	22386.7	21436.5
852.3398	1003.1906	22373	21420.9
852.4849	1005.1877	22454.1	21505.8
852.63	1007.1841	22459.1	21507.55
852.7751	1009.1798	22344.75	21396.25
852.9202	1011.1748	22155.4	21204.9
853.0653	1013.1691	21949.95	21001.15
853.2104	1015.1627	21752.85	20804.65
853.3555	1017.1556	21504.2	20556.7
853.5006	1019.1477	21432.6	20484.75
853.6457	1021.1392	21299	20354.65
853.7908	1023.1299	21287.15	20348.9
853.9359	1025.12	21282.05	20348.15
854.081	1027.1093	21303.45	20379.55
854.2261	1029.0979	21426.75	20508
854.3712	1031.0859	21492.35	20567.25
854.5163	1033.0731	21443.55	20506.35
854.6613	1035.0596	21372.4	20435.75
854.8064	1037.0454	21206.7	20265.15
854.9515	1039.0304	21115.15	20170.75
855.0965	1041.0148	20944.65	19999
855.2416	1042.9985	20879.85	19928.4
855.3867	1044.9814	20837.5	19889.35
855.5317	1046.9636	20793.15	19843.05
855.6768	1048.9452	20699.75	19753.3
855.8219	1050.926	20788.45	19842.5
855.9669	1052.9061	20783.6	19837.15
856.112	1054.8855	20774.45	19825.25
856.257	1056.8642	20824.8	19877.7
856.4021	1058.8421	20881.9	19931.65
856.5471	1060.8194	20891.95	19941.3
856.6921	1062.7959	20934.85	19986.3
856.8372	1064.7717	20937.8	19986.5
856.9822	1066.7469	20966.3	20017
857.1272	1068.7213	20959.7	20010.2
857.2723	1070.695	20981.85	20032.5
857.4173	1072.6679	20915.2	19969.2
857.5623	1074.6402	20887.85	19939.3
857.7073	1076.6117	20851.4	19899.1
857.8523	1078.5826	20856.2	19900.95
857.9973	1080.5527	20872	19920.55
858.1423	1082.5221	20947.2	19998.8
858.2873	1084.4908	21105.4	20157.05
858.4323	1086.4587	21220.2	20273.35
858.5773	1088.426	21363.45	20412.8
858.7223	1090.3925	21316.6	20365.3
858.8673	1092.3584	21322.2	20374.65
859.0123	1094.3235	21182.4	20236.7
859.1573	1096.2879	21083.5	20140.15
859.3022	1098.2515	21111.85	20164.3
859.4472	1100.2145	21243.9	20299.15
859.5922	1102.1767	21329.4	20379.7
859.7371	1104.1382	21446.55	20498.3
859.8821	1106.099	21620.9	20671.55
860.027	1108.0591	21858.8	20910
860.172	1110.0185	21998.35	21048.45
860.3169	1111.9771	22028.8	21079.9
860.4619	1113.9351	21793.45	20845.05
860.6068	1115.8923	21538.45	20591.9
860.7517	1117.8488	21281.95	20334.65
860.8967	1119.8045	20963.65	20017.45
861.0416	1121.7596	20837.75	19890.1
861.1865	1123.7139	20777.05	19831.3
861.3314	1125.6675	20766.5	19823.7
861.4763	1127.6204	20854.25	19909.55
861.6212	1129.5726	20818.05	19866.5
861.7661	1131.524	20829	19883.75
861.911	1133.4748	20793.15	19848.6
862.0559	1135.4248	20742.6	19794.8
862.2008	1137.3741	20725.95	19779.8
862.3457	1139.3226	20671.35	19723
862.4905	1141.2705	20614.8	19669.05
862.6354	1143.2176	20529.65	19575.15
862.7803	1145.164	20524.4	19575.55
862.9251	1147.1097	20516.6	19569.05
863.07	1149.0546	20502.3	19555.95
863.2148	1150.9989	20435.85	19490.4
863.3597	1152.9424	20302.8	19355.1
863.5045	1154.8852	20153.65	19204.05
863.6493	1156.8272	20078	19128.95
863.7942	1158.7686	20041.2	19086.7
863.939	1160.7092	20021	19077.3
864.0838	1162.6491	19958.85	19009.65
864.2286	1164.5883	20059.9	19113.9
864.3734	1166.5267	20136.6	19187.85
864.5182	1168.4644	20287.85	19344.05
864.663	1170.4014	20464.05	19518.65
864.8078	1172.3377	20735.85	19789.8
864.9526	1174.2732	20945.4	20003.75
865.0974	1176.2081	21221.9	20278
865.2421	1178.1421	21455.65	20509.05
865.3869	1180.0755	21725.3	20780.65
865.5317	1182.0082	21781.4	20835.65
865.6764	1183.9401	21832.2	20889.95
865.8212	1185.8713	21644.9	20706.6
865.9659	1187.8017	21428.35	20496.4
866.1106	1189.7315	21188.35	20264.5
866.2554	1191.6605	20796.95	19871.6
866.4001	1193.5888	20584.3	19656.05
866.5448	1195.5163	20494.65	19556.3
866.6895	1197.4432	20375.85	19436.05
866.8342	1199.3693	20381.7	19443.65
866.9789	1201.2947	20302.5	19352.05
867.1236	1203.2193	20248.9	19307.55
867.2683	1205.1432	20277.05	19338.9
867.413	1207.0664	20240.2	19301.2
867.5576	1208.9889	20252.55	19307.1
867.7023	1210.9106	20266.75	19321.4
867.847	1212.8316	20324.8	19382.3
867.9916	1214.7519	20389.45	19436.55
868.1363	1216.6715	20353.85	19413.9
868.2809	1218.5903	20377.9	19435.4
868.4255	1220.5084	20353.5	19406.05
868.5701	1222.4257	20341.65	19398.35
868.7148	1224.3424	20287.6	19347
868.8594	1226.2583	20333.05	19388.9
869.004	1228.1735	20401.7	19463.55
869.1486	1230.0879	20495.4	19553.05
869.2932	1232.0016	20609.9	19670.3
869.4377	1233.9146	20621.65	19676.05
869.5823	1235.8269	20512.45	19569.25
869.7269	1237.7384	20422.5	19481.1
869.8715	1239.6492	20237.4	19295.8
870.016	1241.5592	20112.15	19170.75
870.1606	1243.4686	20004.15	19062.6
870.3051	1245.3772	20019.5	19079.85
870.4496	1247.285	19994.7	19052.65
870.5941	1249.1922	19962.5	19020.3
870.7387	1251.0986	19979.6	19039.45
870.8832	1253.0042	19950.05	19010.35
871.0277	1254.9092	19999.4	19058.15
871.1722	1256.8134	20066	19131.5
871.3167	1258.7169	20247	19307
871.4611	1260.6196	20370	19427.05
871.6056	1262.5216	20552.15	19610.5
871.7501	1264.4229	20684.25	19747.15
871.8945	1266.3234	20874.95	19938.6
872.039	1268.2232	20911.15	19968.45
872.1834	1270.1223	20917.7	19976.45
872.3278	1272.0207	20932.35	19990.9
872.4723	1273.9183	20862.7	19914.85
872.6167	1275.8151	20826.75	19888
872.7611	1277.7113	20743.75	19807.15
872.9055	1279.6067	20607.65	19667.65
873.0499	1281.5014	20491.3	19552.05
873.1943	1283.3953	20503.1	19563.25
873.3386	1285.2885	20575.15	19637.2
873.483	1287.181	20636.4	19694.2
873.6274	1289.0727	20825.15	19887.9
873.7717	1290.9637	20901.7	19963
873.9161	1292.854	21034.5	20095.9
874.0604	1294.7435	21085.25	20146.55
874.2047	1296.6323	21235.6	20295.55
874.349	1298.5204	21453.2	20514.2
874.4933	1300.4077	21593.4	20653.15
874.6376	1302.2943	21693.4	20755.55
874.7819	1304.1802	21718.35	20781.4
874.9262	1306.0653	21544	20600.1
875.0705	1307.9497	21287.9	20348.6
875.2147	1309.8333	21156.35	20222.75
875.359	1311.7162	21032.2	20094.35
875.5032	1313.5984	21030.9	20087.55
875.6475	1315.4798	21032.25	20084.2
875.7917	1317.3605	21080.85	20134.15
875.9359	1319.2405	21117.25	20174.15
876.0801	1321.1197	21050.7	20109.7
876.2243	1322.9982	20865.5	19920.1
876.3685	1324.876	20764.7	19828.5
876.5127	1326.753	20673.65	19736.35
876.6569	1328.6293	20653.45	19711.95
876.801	1330.5048	20652.1	19709.4
876.9452	1332.3796	20550.9	19610.35
877.0893	1334.2537	20522.35	19557.6
877.2335	1336.127	20415.5	19477.1
877.3776	1337.9996	20403.2	19466.5
877.5217	1339.8714	20381.3	19440
877.6658	1341.7426	20345.1	19363.25
877.8099	1343.6129	20304.65	19366.95
877.954	1345.4826	20248.5	19306.2
878.0981	1347.3515	20222.95	19278.95
878.2422	1349.2196	20168.6	19228.4
878.3862	1351.087	20190.1	19250.05
878.5303	1352.9537	20234.65	19293.95
878.6743	1354.8197	20374.15	19433.3
878.8184	1356.6849	20499.35	19557.9
878.9624	1358.5493	20576.95	19636.5
879.1064	1360.4131	20616.15	19678.85
879.2504	1362.276	20579	19643.3
879.3944	1364.1383	20411.7	19474.05
879.5384	1365.9998	20168.8	19223.85
879.6823	1367.8606	19860.45	18917.05
879.8263	1369.7206	19542.4	18600.95
879.9702	1371.5799	19266.4	18325.65
880.1142	1373.4384	19096.95	18157.9
880.2581	1375.2962	18915.95	17976.9
880.402	1377.1533	18624.6	17688.85
880.5459	1379.0096	18271.6	17337.2
880.6898	1380.8652	17996.55	17064
880.8337	1382.7201	17756.4	16822.95
880.9776	1384.5742	17468.2	16530
881.1215	1386.4275	17258.05	16317.65
881.2653	1388.2802	17124.75	16188.35
881.4092	1390.132	16994	16057.15
881.553	1391.9832	16943.95	16002.15
881.6968	1393.8336	16804.1	15865.2
881.8406	1395.6832	16741.55	15802.3
881.9844	1397.5322	16687.05	15748.75
882.1282	1399.3803	16644.2	15701.15
882.272	1401.2278	16572.55	15640.05
882.4158	1403.0745	16563.8	15623.8
882.5595	1404.9204	16525.8	15593.45
882.7033	1406.7656	16544.95	15605.5
882.847	1408.6101	16513.85	15574.95
882.9908	1410.4538	16512.15	15576.9
883.1345	1412.2968	16517	15580.45
883.2782	1414.139	16531.95	15595.25
883.4219	1415.9805	16606.6	15669.55
883.5656	1417.8213	16655.7	15715.1
883.7092	1419.6613	16751.5	15815.05
883.8529	1421.5006	16921.15	15985.3
883.9965	1423.3391	17160	16222.95
884.1402	1425.1769	17443.25	16502.55
884.2838	1427.0139	17905.4	16969.6
884.4274	1428.8502	18457.45	17522
884.571	1430.6858	19001.1	18066.75
884.7146	1432.5206	19341.15	18409.6
884.8582	1434.3547	19558.35	18620.1
885.0018	1436.188	19592.25	18656.55
885.1453	1438.0206	19506.2	18569.35
885.2889	1439.8524	19304.3	18367.75
885.4324	1441.6835	19212.25	18277.6
885.5759	1443.5139	19095.5	18156
885.7194	1445.3435	19000.25	18065.35
885.8629	1447.1724	18949.55	18020.9
886.0064	1449.0005	18859.2	17924.45
886.1499	1450.8279	18769.45	17837.5
886.2933	1452.6545	18730.65	17797.85
886.4368	1454.4804	18763.55	17831.15
886.5802	1456.3056	18733.25	17794.5
886.7237	1458.13	18608.9	17678.8
886.8671	1459.9536	18429.4	17499.5
887.0105	1461.7766	18039.3	17103.35
887.1539	1463.5987	17648.4	16712.1
887.2972	1465.4202	17249	16317.15
887.4406	1467.2409	16884.1	15952.5
887.584	1469.0608	16651.35	15718.8
887.7273	1470.88	16356.85	15423.8
887.8706	1472.6984	16112.1	15179.35
888.0139	1474.5161	15864.2	14931.35
888.1572	1476.3331	15724.8	14792.7
888.3005	1478.1493	15593.75	14659.2
888.4438	1479.9648	15529.6	14596.15
888.5871	1481.7795	15377.45	14442.85
888.7303	1483.5935	15315.95	14383.45
888.8736	1485.4067	15210.45	14280.05
889.0168	1487.2192	15157.35	14222.25
889.16	1489.031	15113.15	14176.4
889.3032	1490.842	15067.9	14139.8
889.4464	1492.6522	15017.75	14085.45
889.5896	1494.4618	14955.95	14024.15
889.7327	1496.2705	14938.7	14005.95
889.8759	1498.0785	14877.6	13944.65
890.019	1499.8858	14836.2	13903.2
890.1622	1501.6924	14795.3	13864.8
890.3053	1503.4981	14754.1	13822.3
890.4484	1505.3032	14729.3	13796.95
890.5914	1507.1075	14686.1	13753.55
890.7345	1508.911	14629	13698.3
890.8776	1510.7138	14581.1	13651.35
891.0206	1512.5159	14479	13545.9
891.1637	1514.3172	14456.55	13525.2
891.3067	1516.1178	14362.9	13435.1
891.4497	1517.9176	14318.95	13387.3
891.5927	1519.7166	14276.55	13347.1
891.7357	1521.515	14239.9	13304.9
891.8786	1523.3126	14172.25	13240.95
892.0216	1525.1094	14112.95	13182.05
892.1645	1526.9055	14100.65	13174.25
892.3074	1528.7008	14065.05	13138.4
892.4503	1530.4954	13980.9	13050.7
892.5932	1532.2893	13953.65	13028.45
892.7361	1534.0824	13885	12955.95
892.879	1535.8747	13854.3	12930.65
893.0218	1537.6663	13841.15	12918.35
893.1647	1539.4572	13831.85	12900.9
893.3075	1541.2473	13812.95	12887.35
893.4503	1543.0367	13763.2	12836.2
893.5931	1544.8253	13752.35	12823
893.7359	1546.6132	13731.3	12801.5
893.8787	1548.4003	13669.2	12735.15
894.0214	1550.1867	13695.05	12762.6
894.1642	1551.9723	13697.55	12769.85
894.3069	1553.7572	13737.7	12814.95
894.4496	1555.5414	13779.9	12857.4
894.5923	1557.3247	13831.9	12911.65
894.735	1559.1074	13877.35	12958.1
894.8777	1560.8893	13905.45	12984.95
895.0204	1562.6705	13974.5	13056.55
895.163	1564.4509	14051.25	13132.55
895.3056	1566.2305	14112.45	13195.9
895.4482	1568.0094	14182.95	13272.05
895.5908	1569.7876	14170.75	13254.8
895.7334	1571.565	14203.45	13282.25
895.876	1573.3417	14168.35	13246.7
896.0186	1575.1176	14150.05	13232.65
896.1611	1576.8928	14087.85	13173.9
896.3036	1578.6672	13964.9	13054.95
896.4461	1580.4409	13864.1	12956.7
896.5886	1582.2138	13798.7	12884.1
896.7311	1583.986	13662.35	12747.15
896.8736	1585.7575	13603.2	12688.8
897.0161	1587.5282	13514.05	12603
897.1585	1589.2981	13476.4	12568.2
897.3009	1591.0673	13456.9	12550.3
897.4433	1592.8358	13440.7	12528.05
897.5857	1594.6035	13474.85	12560.2
897.7281	1596.3704	13472.2	12556.8
897.8705	1598.1366	13478	12562.2
898.0128	1599.9021	13516.7	12608.1
898.1551	1601.6668	13495.25	12584.25
898.2975	1603.4308	13586.4	12669.55
898.4398	1605.194	13713.8	12796.7
898.5821	1606.9564	13808.5	12902.95
898.7243	1608.7182	13963.1	13059.1
898.8666	1610.4791	14100.25	13204.4
899.0088	1612.2394	14250.5	13353.15
899.1511	1613.9988	14404.1	13502.2
899.2933	1615.7576	14630.05	13726.1
899.4355	1617.5156	14827.65	13911.25
899.5776	1619.2728	14991.35	14076.1
899.7198	1621.0293	15064.55	14153.35
899.862	1622.785	15046.2	14136.5
900.0041	1624.54	14929.2	14022.65
900.1462	1626.2942	14756.25	13850.9
900.2883	1628.0477	14470.1	13564.15
900.4304	1629.8005	14188.55	13279.2
900.5725	1631.5525	13988.2	13083.9
900.7145	1633.3037	13781.6	12878.8
900.8566	1635.0542	13644.45	12740
900.9986	1636.804	13510	12605.3
901.1406	1638.553	13492.6	12515.6
901.2826	1640.3013	13387.3	12480.95
901.4245	1642.0488	13340.9	12436.65
901.5665	1643.7955	13383.55	12481.95
901.7085	1645.5416	13450.15	12546.8
901.8504	1647.2868	13492.1	12586.25
901.9923	1649.0313	13546.5	12639.25
902.1342	1650.7751	13724.05	12814.35
902.2761	1652.5181	13848.8	12947.25
902.4179	1654.2604	14018.6	13116.2
902.5598	1656.0019	14244.6	13340.9
902.7016	1657.7427	14542.45	13638.65
902.8434	1659.4828	14844.9	13939.05
902.9852	1661.222	15017.1	14108.45
903.127	1662.9606	14958.05	14052
903.2687	1664.6984	14741.95	13832.95
903.4105	1666.4354	14325.9	13413.55
903.5522	1668.1717	13786.35	12875.5
903.6939	1669.9072	13271.8	12362.5
903.8356	1671.642	12839.95	11930.8
903.9773	1673.3761	12440.45	11531.3
904.119	1675.1094	12189.7	11284.4
904.2606	1676.8419	11927.05	11020.85
904.4022	1678.5737	11733.5	10829
904.5439	1680.3048	11604.9	10697.95
904.6855	1682.0351	11470.25	10563.4
904.827	1683.7646	11362.1	10451.15
904.9686	1685.4934	11272.05	10367.1
905.1101	1687.2215	11173.25	10269.15
905.2517	1688.9488	11074.15	10170.75
905.3932	1690.6754	11001.9	10099.6
905.5347	1692.4012	10988.55	10082.8
905.6761	1694.1263	10917.65	10010.1
905.8176	1695.8506	10894.7	9988.15
905.9591	1697.5742	10847.35	9944.95
906.1005	1699.297	10771.6	9871.3
906.2419	1701.0191	10720.45	9821.05
906.3833	1702.7404	10662.9	9763.35
906.5246	1704.461	10606.3	9702.75
906.666	1706.1808	10548.4	9642.95
906.8073	1707.8999	10504.75	9604.35
906.9487	1709.6182	10462.4	9562.9
907.09	1711.3358	10437.55	9542.9
907.2313	1713.0527	10388.55	9493.45
907.3725	1714.7688	10324.85	9421.2
907.5138	1716.4841	10273.35	9369.05
907.655	1718.1987	10295.15	9386.9
907.7962	1719.9126	10254.15	9357.2
907.9374	1721.6257	10191.1	9295.45
908.0786	1723.338	10172.5	9276.7
908.2198	1725.0496	10129.65	9232.9
908.3609	1726.7605	10105.25	9205.75
908.502	1728.4706	10075.2	9175.35
908.6431	1730.18	10001.35	9102.6
908.7842	1731.8886	9993.3	9096.1
908.9253	1733.5964	9999	9083.15
909.0664	1735.3036	9957.3	9057.95
909.2074	1737.0099	9907.65	9011.4
909.3484	1738.7156	9881.2	8988.15
909.4894	1740.4204	9839.3	8940.8
909.6304	1742.1246	9832.5	8934.2
909.7714	1743.8279	9764.4	8867.8
909.9123	1745.5306	9775.25	8879.85
910.0532	1747.2325	9718.8	8825.5
910.1941	1748.9336	9655.55	8759.1
910.335	1750.634	9618.35	8718.2
910.4759	1752.3336	9603.3	8707.15
910.6168	1754.0325	9582.15	8688.25
910.7576	1755.7307	9586.95	8693.8
910.8984	1757.4281	9565.55	8669.55
911.0392	1759.1247	9559.1	8651.35
911.18	1760.8206	9508.3	8600.2
911.3208	1762.5158	9507.4	8603.2
911.4615	1764.2102	9468.7	8570.55
911.6022	1765.9039	9420.9	8526.25
911.7429	1767.5968	9395.8	8502.7
911.8836	1769.289	9339.25	8444.3
912.0243	1770.9804	9345.05	8451.1
912.1649	1772.6711	9348.2	8448.55
912.3056	1774.361	9303.2	8402.2
912.4462	1776.0502	9287.95	8388.2
912.5868	1777.7386	9262.3	8361.65
912.7274	1779.4263	9251	8356.65
912.8679	1781.1132	9209.1	8316.55
913.0084	1782.7994	9182.6	8289.75
913.149	1784.4849	9171.55	8279.5
913.2895	1786.1696	9169.45	8268.45
913.4299	1787.8535	9118.1	8226.95
913.5704	1789.5367	9108.8	8217.55
913.7108	1791.2192	9093.65	8201.6
913.8513	1792.9009	9044.3	8123.55
913.9917	1794.5818	9037.35	8138.95
914.132	1796.2621	9008.75	8113.2
914.2724	1797.9415	8971.65	8073.75
914.4128	1799.6202	8943.55	8046.3
914.5531	1801.2982	8955.15	8057.8
914.6934	1802.9755	8931	8034.2
914.8337	1804.6519	8918.5	8022.95
914.9739	1806.3277	8866.3	7973.25
915.1142	1808.0027	8838.1	7948.35
915.2544	1809.6769	8820.85	7933.2
915.3946	1811.3504	8797	7905.8
915.5348	1813.0231	8775.65	7883.65
915.675	1814.6951	8778.25	7887.7
915.8151	1816.3664	8794.5	7898.4
915.9553	1818.0369	8760.75	7866.15
916.0954	1819.7067	8726.75	7830.9
916.2355	1821.3757	8707.3	7809.95
916.3755	1823.044	8674.25	7779.7
916.5156	1824.7115	8680.5	7784.2
916.6556	1826.3783	8621.4	7726.1
916.7956	1828.0443	8598.75	7703.75
916.9356	1829.7096	8568.6	7671.85
917.0756	1831.3741	8588	7690.05
917.2155	1833.0379	8547.4	7653.8
917.3555	1834.701	8502	7608.4
917.4954	1836.3633	8485.45	7595.45
917.6353	1838.0248	8479.7	7586.75
917.7751	1839.6856	8455.55	7561.7
917.915	1841.3457	8467.35	7571.25
918.0548	1843.005	8431.1	7535.3
918.1946	1844.6636	8425.85	7533.65
918.3344	1846.3214	8384.2	7493.05
918.4742	1847.9785	8411.85	7521.5
918.6139	1849.6349	8381.55	7485.1
918.7537	1851.2904	8371.45	7467.2
918.8934	1852.9453	8339.35	7442
919.0331	1854.5994	8309.15	7411.3
919.1727	1856.2528	8317.3	7414.85
919.3124	1857.9054	8311.1	7413.85
919.452	1859.5572	8291.5	7397.65
919.5916	1861.2083	8258.6	7364.25
919.7312	1862.8587	8264	7368.2
919.8708	1864.5084	8240.35	7341.7
920.0103	1866.1572	8215.65	7321.25
920.1498	1867.8054	8174.8	7276.35
920.2893	1869.4528	8160.35	7264.05
920.4288	1871.0994	8127.3	7231.05
920.5683	1872.7453	8111.2	7213.55
920.7077	1874.3905	8116.2	7202.2
920.8471	1876.0349	8081.35	7185.85
920.9865	1877.6786	8073	7177.75
921.1259	1879.3215	8057.7	7166.05
921.2653	1880.9637	8028.85	7134.35
921.4046	1882.6051	7984.1	7091.25
921.5439	1884.2458	8004.9	7108.2
921.6832	1885.8858	7966.1	7071.5
921.8225	1887.525	7946.3	7055.65
921.9617	1889.1634	7921.8	7027.9
922.101	1890.8011	7905.15	7009.35
922.2402	1892.4381	7886.2	6989.45
922.3794	1894.0743	7877.2	6982.65
922.5185	1895.7098	7854.2	6958.65
922.6577	1897.3446	7839.85	6947
922.7968	1898.9786	7803.35	6906.4
922.9359	1900.6118	7809.45	6915.7
923.075	1902.2443	7765.1	6869.75
923.214	1903.8761	7754.65	6860.3
923.3531	1905.5071	7687.8	6792.4
923.4921	1907.1374	7699.2	6806.8
923.6311	1908.7669	7667.7	6774.5
923.77	1910.3957	7653.15	6759.65
923.909	1912.0237	7629.5	6736.9
924.0479	1913.651	7593.05	6699.45
924.1868	1915.2776	7567.4	6674.95
924.3257	1916.9034	7565.85	6676.75
924.4646	1918.5285	7509.2	6617.4
924.6034	1920.1528	7485.55	6592.85
924.7422	1921.7764	7483.45	6588.6
924.881	1923.3992	7452.95	6558.6
925.0198	1925.0213	7392.95	6499.6
925.1586	1926.6427	7379.3	6487.05
925.2973	1928.2633	7440.15	6455.65
925.436	1929.8832	7366	6468.8
925.5747	1931.5023	7314.85	6421.5
925.7134	1933.1207	7315.25	6420.95
925.852	1934.7383	7308.7	6414.5
925.9906	1936.3552	7280.45	6389.2
926.1292	1937.9714	7263.9	6373.35
926.2678	1939.5868	7214.9	6321
926.4064	1941.2015	7195.35	6302.65
926.5449	1942.8154	7149.05	6252.65
926.6834	1944.4286	7159.75	6266.55
926.8219	1946.041	7137.65	6216.4
926.9604	1947.6528	7074.9	6174.4
927.0988	1949.2637	7060.2	6169.1
927.2372	1950.8739	7031.45	6137.15
927.3756	1952.4834	7029.2	6138.5
927.514	1954.0921	7024	6130.15
927.6523	1955.7001	6985.95	6091.65
927.7907	1957.3074	6962.85	6072.5
927.929	1958.9139	6939.8	6050.15
928.0673	1960.5197	6905.5	6015.35
928.2055	1962.1247	6873.75	5982.75
928.3438	1963.729	6857.8	5969.75
928.482	1965.3325	6803.95	5909.35
928.6202	1966.9353	6803.7	5916.3
928.7584	1968.5374	6779.65	5892.15
928.8965	1970.1387	6776.05	5886.25
929.0346	1971.7393	6752	5860.9
929.1727	1973.3392	6721.2	5830.8
929.3108	1974.9383	6701.45	5813.35
929.4489	1976.5366	6676.9	5789.2
929.5869	1978.1342	6637.05	5747.3
929.7249	1979.7311	6642.85	5755.15
929.8629	1981.3273	6641.95	5757.35
930.0009	1982.9227	6604.15	5715.35
930.1388	1984.5173	6607.85	5721.4
930.2767	1986.1112	6556.05	5669.75
930.4146	1987.7044	6534.3	5645.35
930.5525	1989.2968	6535.65	5647.35
930.6904	1990.8885	6542.35	5653.15
930.8282	1992.4795	6510.85	5626.35
930.966	1994.0697	6464.4	5579.05
931.1038	1995.6592	6458.3	5572.55
931.2415	1997.2479	6439.95	5552.75
931.3793	1998.8359	6427.15	5542.15
931.517	2000.4232	6399.9	5519.25
931.6547	2002.0097	6360.1	5479.25
931.7923	2003.5955	6348.1	5464.6
931.93	2005.1805	6363.9	5479
932.0676	2006.7648	6345.5	5462.8
932.2052	2008.3484	6338.75	5455.5
932.3427	2009.9312	6322	5437.4
932.4803	2011.5133	6291.7	5411.05
932.6178	2013.0946	6258	5378.25
932.7553	2014.6752	6257.2	5374.2
932.8928	2016.2551	6236.15	5351.2
933.0302	2017.8342	6212.1	5329.15
933.1676	2019.4126	6164.95	5283.4
933.305	2020.9902	6156.9	5276.05
933.4424	2022.5672	6176.15	5294
933.5798	2024.1433	6134	5249.55
933.7171	2025.7188	6123.5	5246.35
933.8544	2027.2935	6098.5	5216.8
933.9917	2028.8674	6094.4	5215.15
934.129	2030.4406	6067.3	5188.85
934.2662	2032.0131	6045.35	5167.8
934.4034	2033.5849	6015.9	5135.65
934.5406	2035.1559	6011.35	5131.95
934.6778	2036.7261	6006.05	5124.5
934.8149	2038.2957	5996.4	5114.45
934.952	2039.8645	5988.35	5103.05
935.0891	2041.4325	5985.4	5096.8
935.2262	2042.9998	5953.55	5072.85
935.3632	2044.5664	5951.05	5068.1
935.5002	2046.1323	5919.5	5038.3
935.6372	2047.6974	5922.9	5042.75
935.7742	2049.2617	5893.75	5014.7
935.9111	2050.8254	5908.75	5003.95
936.048	2052.3883	5895.85	5011.45
936.1849	2053.9504	5864.5	4978.3
936.3218	2055.5118	5838.55	4953.4
936.4586	2057.0725	5835.3	4948.85
936.5955	2058.6325	5822.4	4941.5
936.7323	2060.1917	5797.25	4918.1
936.869	2061.7502	5789.15	4904
937.0058	2063.3079	5766.15	4885.65
937.1425	2064.8649	5754.65	4870.85
937.2792	2066.4212	5747.9	4865.05
937.4159	2067.9767	5718.6	4834.65
937.5525	2069.5315	5710	4829.05
937.6891	2071.0856	5673.75	4790.85
937.8257	2072.6389	5661.55	4778.9
937.9623	2074.1915	5628.05	4750.05
938.0989	2075.7433	5606.55	4722.55
938.2354	2077.2945	5604.75	4722.9
938.3719	2078.8448	5574.35	4690.6
938.5084	2080.3945	5568.8	4684.15
938.6448	2081.9434	5584.75	4700.95
938.7812	2083.4916	5549.3	4661.45
938.9176	2085.039	5522.25	4632.4
939.054	2086.5857	5509.1	4618
939.1903	2088.1317	5523.1	4631.55
939.3267	2089.677	5503.15	4611.95
939.463	2091.2215	5493.8	4602.8
939.5992	2092.7652	5468.75	4576.65
939.7355	2094.3083	5437.65	4547.45
939.8717	2095.8506	5415.05	4527.95
940.0079	2097.3921	5430.05	4543.15
940.1441	2098.933	5415.35	4528.7
940.2802	2100.4731	5402.55	4516.5
940.4163	2102.0124	5392.4	4499.55
940.5524	2103.5511	5373.6	4484.2
940.6885	2105.089	5371.25	4483.6
940.8245	2106.6261	5371.75	4485.65
940.9606	2108.1626	5350.9	4464.4
941.0965	2109.6983	5355.6	4439.25
941.2325	2111.2332	5332.05	4445.3
941.3684	2112.7675	5305.35	4415.7
941.5044	2114.301	5301.6	4412.4
941.6403	2115.8337	5300.45	4411.75
941.7761	2117.3657	5263.9	4377.45
941.912	2118.897	5277.35	4389.85
942.0478	2120.4276	5278.15	4383.85
942.1835	2121.9575	5231.5	4341.95
942.3193	2123.4866	5232.75	4330.5
942.455	2125.0149	5201.15	4313.4
942.5907	2126.5426	5166.55	4283.2
942.7264	2128.0695	5167.55	4282.55
942.8621	2129.5956	5130.75	4249.15
942.9977	2131.1211	5159.65	4272.05
943.1333	2132.6458	5141.75	4255.85
943.2689	2134.1698	5116.2	4225.25
943.4044	2135.693	5127.05	4236.1
943.54	2137.2155	5115.2	4221.95
943.6755	2138.7373	5099.1	4211.2
943.8109	2140.2584	5085.95	4202.15
943.9464	2141.7787	5073.25	4185.1
944.0818	2143.2983	5035.55	4154.35
944.2172	2144.8171	5009.4	4128.7
944.3526	2146.3353	5014.5	4129.9
944.4879	2147.8527	5009.55	4125.9
944.6232	2149.3693	4990.75	4100.8
944.7585	2150.8853	4982.55	4094.4
944.8938	2152.4005	4958.7	4069.95
945.029	2153.9149	4954.1	4064.35
945.1642	2155.4287	4943	4053.45
945.2994	2156.9417	4928.75	4037.95
945.4346	2158.454	4919.4	4030.75
945.5697	2159.9655	4898.45	4012.8
945.7048	2161.4764	4887.65	4003.25
945.8399	2162.9865	4883.3	3998.6
945.9749	2164.4958	4873.1	3988.5
946.1099	2166.0045	4861.65	3976.05
946.2449	2167.5124	4861	3975
946.3799	2169.0195	4837.65	3951.3
946.5148	2170.526	4830.95	3941.5
946.6498	2172.0317	4812.1	3924.9
946.7846	2173.5367	4797.7	3908.2
946.9195	2175.0409	4791.25	3905.9
947.0543	2176.5445	4791.45	3903.05
947.1891	2178.0473	4771.55	3882.55
947.3239	2179.5494	4752.7	3859
947.4587	2181.0507	4736.45	3846.4
947.5934	2182.5513	4721.25	3834.05
947.7281	2184.0512	4722.5	3834.05
947.8628	2185.5504	4702.55	3813.95
947.9974	2187.0488	4670.15	3786.05
948.132	2188.5465	4662.1	3778.4
948.2666	2190.0435	4658.65	3768.55
948.4012	2191.5397	4640.45	3751.65
948.5357	2193.0353	4656.85	3765.95
948.6702	2194.5301	4628.5	3736.45
948.8047	2196.0241	4612.3	3719.55
948.9392	2197.5175	4595.75	3703.6
949.0736	2199.0101	4560.5	3662.5
949.208	2200.502	4565.4	3680
949.3424	2201.9931	4545.3	3658.85
949.4767	2203.4835	4531.3	3644.75
949.611	2204.9733	4536.8	3648.15
949.7453	2206.4622	4529.1	3645.15
949.8796	2207.9505	4515.7	3629.7
950.0138	2209.438	4479.75	3597.4
950.148	2210.9248	4471.45	3586.1
950.2822	2212.4109	4454.85	3567.95
950.4164	2213.8962	4433.4	3540.9
950.5505	2215.3809	4445.65	3552.55
950.6846	2216.8648	4437.75	3542.7
950.8186	2218.3479	4433	3535.1
950.9527	2219.8304	4419.55	3521.2
951.0867	2221.3121	4412.15	3517.45
951.2207	2222.7931	4381.45	3489.35
951.3546	2224.2733	4361.55	3470.25
951.4886	2225.7529	4344.15	3456.35
951.6225	2227.2317	4352.75	3464.35
951.7563	2228.7098	4341	3456
951.8902	2230.1872	4308.8	3424.75
952.024	2231.6638	4310.05	3425.95
952.1578	2233.1397	4292.35	3403.95
952.2916	2234.6149	4285.3	3401.65
952.4253	2236.0894	4271.3	3384.5
952.559	2237.5632	4275	3378.6
952.6927	2239.0362	4240.15	3354.15
952.8263	2240.5085	4227.1	3341.3
952.9599	2241.9801	4208.8	3320.95
953.0935	2243.4509	4201.8	3310.75
953.2271	2244.921	4203.75	3312.15
953.3606	2246.3904	4196.2	3302.2
953.4941	2247.8591	4190	3300.5
953.6276	2249.3271	4154.65	3262.95
953.7611	2250.7943	4157.8	3265.6
953.8945	2252.2608	4150.1	3259.8
954.0279	2253.7266	4123.35	3233.1
954.1612	2255.1917	4120.4	3232.5
954.2946	2256.656	4093.1	3205.3
954.4279	2258.1197	4086.85	3201.25
954.5612	2259.5826	4074.3	3186.3
954.6944	2261.0447	4089.6	3201.25
954.8276	2262.5062	4088.2	3195.9
954.9608	2263.9669	4081.8	3187.6
955.094	2265.4269	4070.15	3180
955.2271	2266.8862	4048.1	3159.35
955.3602	2268.3448	4036.65	3149.9
955.4933	2269.8026	4028.4	3143.65
955.6264	2271.2598	4017.1	3129.35
955.7594	2272.7162	3995.2	3108.2
955.8924	2274.1719	3989.55	3101.45
956.0253	2275.6268	3998	3106.8
956.1583	2277.0811	3980.6	3088.05
956.2912	2278.5346	3974.2	3085.35
956.4241	2279.9874	3974.35	3087.8
956.5569	2281.4395	3960.15	3076.35
956.6897	2282.8908	3946.5	3055.55
956.8225	2284.3414	3938.1	3048.5
956.9553	2285.7914	3928.4	3039.45
957.088	2287.2406	3910.6	3018.95
957.2207	2288.689	3905.8	3015
957.3534	2290.1368	3892.25	2997.1
957.486	2291.5838	3896.15	2997.3
957.6186	2293.0302	3902.7	3009.5
957.7512	2294.4758	3874.95	2983.65
957.8838	2295.9206	3860.15	2968.8
958.0163	2297.3648	3863	2973.8
958.1488	2298.8082	3839.3	2951.5
958.2813	2300.251	3829.55	2937.9
958.4137	2301.693	3829.9	2934.9
958.5461	2303.1343	3831.05	2937.65
958.6785	2304.5748	3808.75	2919.45
958.8108	2306.0147	3794.2	2908.2
958.9432	2307.4538	3802.95	2915.55
959.0754	2308.8922	3767.5	2883.15
959.2077	2310.3299	3785.8	2899
959.3399	2311.7669	3760.2	2874.65
959.4721	2313.2031	3764.9	2876.5
959.6043	2314.6387	3740.55	2851.2
959.7365	2316.0735	3735.75	2845.35
959.8686	2317.5076	3728.5	2839.1
960.0006	2318.941	3720.2	2829.7
960.1327	2320.3737	3708.35	2815.15
960.2647	2321.8056	3704.6	2809.75
960.3967	2323.2369	3689.5	2800.15
960.5287	2324.6674	3681.9	2790.35
960.6606	2326.0972	3658.75	2766.95
960.7925	2327.5263	3665.6	2775.7
960.9244	2328.9547	3661.55	2770.4
961.0562	2330.3823	3642.85	2751.6
961.1881	2331.8092	3649.7	2754.65
961.3198	2333.2355	3627.35	2735.5
961.4516	2334.661	3627.55	2733.9
961.5833	2336.0858	3624.95	2732.55
961.715	2337.5098	3594.35	2704.4
961.8467	2338.9332	3602.9	2714.95
961.9783	2340.3558	3590	2698.5
962.1099	2341.7778	3566.55	2678.9
962.2415	2343.199	3567.95	2678.35
962.373	2344.6195	3572.05	2685.75
962.5045	2346.0393	3558.35	2670.9
962.636	2347.4583	3532.05	2643.6
962.7675	2348.8767	3542.5	2650.15
962.8989	2350.2943	3524	2632.45
963.0303	2351.7113	3552.55	2659.45
963.1617	2353.1275	3521.25	2628.55
963.293	2354.543	3526	2626.1
963.4243	2355.9578	3509	2618.4
963.5556	2357.3718	3487.75	2601.8
963.6868	2358.7852	3473.55	2584.5
963.818	2360.1978	3462	2574.8
963.9492	2361.6098	3449.65	2562.25
964.0803	2363.021	3462.85	2569.65
964.2114	2364.4315	3455.7	2566.5
964.3425	2365.8413	3453.65	2565.05
964.4736	2367.2504	3429.3	2544.8
964.6046	2368.6587	3410.8	2525.15
964.7356	2370.0664	3389.4	2502.45
964.8666	2371.4733	3403.05	2515.75
964.9975	2372.8795	3381.1	2495.65
965.1284	2374.285	3381.8	2493
965.2593	2375.6899	3356.4	2469.1
965.3901	2377.0939	3360.25	2473.25
965.5209	2378.4973	3347.55	2460.5
965.6517	2379.9	3329.65	2442.25
965.7825	2381.3019	3344.2	2459.05
965.9132	2382.7032	3328.05	2443.65
966.0439	2384.1037	3301.6	2421.1
966.1745	2385.5035	3310.65	2426.95
966.3051	2386.9027	3297.4	2415.85
966.4357	2388.3011	3290.15	2404.3
966.5663	2389.6987	3287.35	2400.95
966.6968	2391.0957	3262.6	2377.5
966.8273	2392.492	3249.5	2366.5
966.9578	2393.8876	3241.65	2355.7
967.0882	2395.2824	3229.3	2344.95
967.2186	2396.6765	3228.65	2345.75
967.349	2398.07	3214.35	2329.7
967.4793	2399.4627	3209.05	2324.95
967.6097	2400.8547	3192	2307.7
967.7399	2402.246	3207	2316.4
967.8702	2403.6366	3197.35	2310.45
968.0004	2405.0265	3176.8	2290.25
968.1306	2406.4156	3165.15	2275.85
968.2607	2407.8041	3156.15	2270
968.3909	2409.1918	3158.3	2270.15
968.521	2410.5789	3146.9	2259
968.651	2411.9652	3148.1	2261.15
968.781	2413.3508	3115.85	2229.2
968.911	2414.7358	3128.1	2243.95
969.041	2416.12	3105.05	2222.15
969.1709	2417.5035	3107.75	2222.75
969.3008	2418.8863	3100.9	2215.9
969.4307	2420.2684	3094.1	2207.05
969.5606	2421.6497	3075.3	2186.35
969.6904	2423.0304	3064.1	2180.8
969.8201	2424.4104	3061.95	2175.95
969.9499	2425.7896	3063.6	2176.05
970.0796	2427.1682	3045.6	2161.05
970.2093	2428.546	3042.5	2157.75
970.3389	2429.9232	3037	2151.2
970.4685	2431.2996	3029.3	2142.55
970.5981	2432.6753	3021.95	2136.95
970.7277	2434.0503	3023.15	2136.2
970.8572	2435.4246	3006.7	2120.1
970.9867	2436.7982	2995.3	2107.55
971.1161	2438.1711	2995.05	2107.55
971.2456	2439.5433	2993.6	2106.65
971.375	2440.9148	2973.35	2080
971.5043	2442.2856	2967.65	2081.55
971.6336	2443.6557	2968.7	2082.7
971.7629	2445.025	2946.45	2060.4
971.8922	2446.3937	2949.15	2063.35
972.0214	2447.7617	2944.7	2057.6
972.1506	2449.1289	2933.85	2044.95
972.2798	2450.4955	2923.35	2033.75
972.4089	2451.8613	2932.2	2045.8
972.538	2453.2265	2917.2	2030.7
972.6671	2454.5909	2911.9	2025.65
972.7961	2455.9546	2898.75	2012.8
972.9251	2457.3177	2896.45	2010.5
973.0541	2458.68	2891.9	2005.35
973.1831	2460.0416	2882	1995.15
973.312	2461.4025	2886.35	1999.4
973.4408	2462.7627	2896	1998.65
973.5697	2464.1222	2873	1990.2
973.6985	2465.4811	2867.45	1981.25
973.8273	2466.8392	2856.1	1971.35
973.956	2468.1966	2863.6	1975.6
974.0847	2469.5533	2854.7	1965.45
974.2134	2470.9093	2858.5	1971
974.3421	2472.2645	2848.25	1959
974.4707	2473.6191	2839.45	1953.65
974.5993	2474.973	2820.75	1935.7
974.7278	2476.3262	2824.65	1935.6
974.8563	2477.6787	2807.8	1923.25
974.9848	2479.0305	2811.85	1925.3
975.1132	2480.3816	2798.15	1910.6
975.2417	2481.7319	2799.95	1915.3
975.37	2483.0816	2787.9	1900.85
975.4984	2484.4306	2785.25	1899.95
975.6267	2485.7789	2770	1886.25
975.755	2487.1264	2760.55	1873.3
975.8833	2488.4733	2741.5	1857.2
976.0115	2489.8195	2747.2	1856.25
976.1397	2491.165	2739.25	1851.35
976.2678	2492.5097	2731.8	1843.1
976.3959	2493.8538	2723.6	1839.4
976.524	2495.1972	2704.15	1817.05
976.6521	2496.5398	2703.65	1813.2
976.7801	2497.8818	2703.4	1816.65
976.9081	2499.2231	2698.85	1812.95
977.036	2500.5637	2683.35	1795
977.164	2501.9035	2689.9	1801.55
977.2918	2503.2427	2682.15	1790.6
977.4197	2504.5812	2675.1	1788.6
977.5475	2505.919	2667.95	1778.1
977.6753	2507.256	2663.75	1775.75
977.8031	2508.5924	2653.4	1766.5
977.9308	2509.9281	2654.25	1762.45
978.0585	2511.2631	2651.55	1766.25
978.1861	2512.5974	2635.8	1752.2
978.3137	2513.9309	2633.75	1746.3
978.4413	2515.2638	2640.3	1728.55
978.5689	2516.596	2640.35	1751.6
978.6964	2517.9275	2612.85	1725.05
978.8239	2519.2583	2603.2	1716.35
978.9513	2520.5884	2598.4	1710.25
979.0788	2521.9178	2594.05	1707.55
979.2062	2523.2465	2592.95	1707.2
979.3335	2524.5745	2576.1	1690.75
979.4608	2525.9018	2572.25	1686.5
979.5881	2527.2284	2565.85	1679.2
979.7154	2528.5543	2570.05	1683.3
979.8426	2529.8796	2569.7	1681.2
979.9698	2531.2041	2561.85	1674.7
980.0969	2532.5279	2553.2	1667.45
980.224	2533.851	2554.35	1667.25
980.3511	2535.1735	2553.05	1667.05
980.4781	2536.4952	2541.85	1655.55
980.6052	2537.8163	2546.1	1657.35
980.7321	2539.1366	2531.1	1643.7
980.8591	2540.4562	2525.55	1636.35
980.986	2541.7752	2526.75	1639.35
981.1129	2543.0935	2527.8	1639.1
981.2397	2544.411	2521.4	1631.9
981.3665	2545.7279	2520.15	1632.05
981.4933	2547.0441	2510.05	1620.4
981.62	2548.3596	2516	1628.15
981.7467	2549.6744	2510	1622.65
981.8734	2550.9885	2496.8	1602.85
982.0001	2552.3019	2483	1597.45
982.1267	2553.6146	2491.05	1603.2
982.2532	2554.9266	2483.95	1596.15
982.3798	2556.2379	2479.35	1590.95
982.5063	2557.5485	2474.9	1586.7
982.6327	2558.8585	2472.2	1579.25
982.7592	2560.1677	2458.9	1567.1
982.8856	2561.4762	2461.85	1572.4
983.0119	2562.7841	2456.35	1563.55
983.1383	2564.0913	2436.1	1551.9
983.2646	2565.3977	2445.35	1557.6
983.3908	2566.7035	2431.05	1541.1
983.517	2568.0086	2445.55	1556.1
983.6432	2569.313	2435	1544.55
983.7694	2570.6167	2438.3	1547.4
983.8955	2571.9197	2432.7	1545.9
984.0216	2573.222	2429.9	1539.7
984.1476	2574.5236	2435.2	1546.35
984.2737	2575.8246	2428.2	1538.55
984.3996	2577.1248	2416.6	1525.5
984.5256	2578.4244	2408.45	1523.7
984.6515	2579.7232	2413.2	1526.6
984.7774	2581.0214	2434.5	1519.65
984.9032	2582.3189	2405	1516.8
985.029	2583.6157	2406.6	1515.3
985.1548	2584.9118	2395.55	1508.15
985.2806	2586.2072	2390.3	1502.5
985.4063	2587.5019	2395.7	1505.9
985.5319	2588.7959	2393.6	1504.35
985.6576	2590.0893	2396.25	1506.9
985.7832	2591.3819	2394.45	1507.8
985.9087	2592.6739	2377.8	1490.3
986.0343	2593.9652	2385.75	1493.8
986.1597	2595.2557	2384.35	1497.9
986.2852	2596.5456	2380.3	1489.5
986.4106	2597.8348	2368.65	1482.05
986.536	2599.1234	2374.05	1488.25
986.6614	2600.4112	2366.7	1479.95
986.7867	2601.6983	2364	1473.2
986.912	2602.9848	2344.9	1454.75
987.0372	2604.2705	2347.45	1452.2
987.1624	2605.5556	2353.9	1463.95
987.2876	2606.84	2339.9	1453.05
987.4128	2608.1237	2326.5	1438.7
987.5379	2609.4067	2332.9	1444.95
987.6629	2610.689	2339.4	1443.55
987.788	2611.9707	2328.1	1434.75
987.913	2613.2516	2317.45	1425.95
988.0379	2614.5319	2312.25	1424.55
988.1629	2615.8115	2296.85	1408
988.2878	2617.0903	2301.95	1414
988.4126	2618.3685	2291.15	1403.05
988.5375	2619.6461	2283.4	1395.5
988.6622	2620.9229	2290.4	1401.55
988.787	2622.199	2283.8	1394.6
988.9117	2623.4745	2285.25	1397.5
989.0364	2624.7493	2276.1	1389.6
989.161	2626.0234	2272.15	1387.15
989.2857	2627.2968	2264.7	1376.85
989.4102	2628.5695	2259.3	1370.45
989.5348	2629.8415	2247.35	1360.7
989.6593	2631.1128	2237.7	1348.3
989.7837	2632.3835	2237.05	1352.1
989.9082	2633.6535	2234.35	1348.45
990.0326	2634.9228	2227.7	1341.35
990.1569	2636.1914	2231.85	1345.95
990.2812	2637.4593	2232.75	1342.75
990.4055	2638.7265	2229.9	1342.4
990.5298	2639.9931	2224.85	1338.6
990.654	2641.259	2225.1	1336.5
990.7782	2642.5242	2208.75	1322
990.9023	2643.7887	2202.6	1317.35
991.0264	2645.0525	2203.55	1316.05
991.1505	2646.3156	2205.65	1317.3
991.2745	2647.5781	2188.3	1302.15
991.3985	2648.8398	2180.95	1295.7
991.5225	2650.1009	2193.95	1299.75
991.6464	2651.3613	2189.35	1302.2
991.7703	2652.6211	2178.4	1291.8
991.8942	2653.8801	2170.55	1285.05
992.018	2655.1385	2166.2	1274.7
992.1418	2656.3961	2161.15	1273.85
992.2655	2657.6531	2166.75	1278.9
992.3892	2658.9094	2161	1275.55
992.5129	2660.1651	2143.85	1258.45
992.6366	2661.42	2150.3	1264.75
992.7602	2662.6743	2161.2	1273.25
992.8837	2663.9279	2158.95	1270.8
993.0073	2665.1808	2144.15	1259.05
993.1307	2666.433	2142.15	1252.85
993.2542	2667.6846	2155.5	1269.25
993.3776	2668.9354	2153.3	1263.8
993.501	2670.1856	2153.55	1265.45
993.6244	2671.4351	2154.65	1268.95
993.7477	2672.6839	2147.85	1260.2
993.8709	2673.9321	2145.55	1259.45
993.9942	2675.1795	2153.4	1267.2
994.1174	2676.4263	2143.75	1257.1
994.2405	2677.6724	2143.7	1257.8
994.3637	2678.9179	2143.4	1256.5
994.4868	2680.1626	2134.85	1246.75
994.6098	2681.4067	2144.8	1257.15
994.7328	2682.6501	2130.9	1244.1
994.8558	2683.8928	2127.45	1240.35
994.9788	2685.1348	2123.6	1237.7
995.1017	2686.3761	2114.85	1228.7
995.2245	2687.6168	2108.9	1221.85
995.3474	2688.8568	2108	1221.45
995.4702	2690.0961	2099.3	1214
995.5929	2691.3348	2092.85	1206.7
995.7156	2692.5727	2084.8	1198.35
995.8383	2693.81	2080.8	1195.15
995.961	2695.0466	2079.6	1193.3
996.0836	2696.2826	2080.15	1191.6
996.2062	2697.5178	2093.55	1186.9
996.3287	2698.7524	2066.65	1180.9
996.4512	2699.9863	2075.45	1188.45
996.5737	2701.2195	2069.8	1183.3
996.6961	2702.452	2074.05	1187.15
996.8185	2703.6839	2073.9	1190.25
996.9408	2704.9151	2083.45	1198.55
997.0631	2706.1456	2073	1186.75
997.1854	2707.3755	2069.8	1181.45
997.3077	2708.6046	2080.2	1192.15
997.4299	2709.8331	2084.4	1197.35
997.552	2711.0609	2089.2	1204.05
997.6742	2712.2881	2093.55	1208.8
997.7963	2713.5145	2104.55	1218.1
997.9183	2714.7403	2103.3	1221.05
998.0403	2715.9654	2111.95	1227.15
998.1623	2717.1899	2126.05	1226.1
998.2842	2718.4136	2137.65	1252.15
998.4062	2719.6367	2133.05	1246.2
998.528	2720.8591	2152.4	1261.2
998.6498	2722.0809	2155.05	1269.6
998.7716	2723.3019	2164.7	1277.5
998.8934	2724.5223	2169.05	1283.3
999.0151	2725.7421	2158.75	1272
999.1368	2726.9611	2170.4	1282
999.2584	2728.1795	2168.75	1279.25
999.38	2729.3972	2153.3	1267.6
999.5016	2730.6142	2152.55	1253.85
999.6231	2731.8306	2115.1	1229.35
999.7446	2733.0462	2109.55	1219.65
999.8661	2734.2612	2084.05	1195.35
999.9875	2735.4756	2064.55	1179.05
1000.1089	2736.6892	2052.55	1166.55
1000.2302	2737.9022	2030.6	1145.3
1000.3515	2739.1145	2018.2	1133.85
1000.4728	2740.3262	2005.65	1111.85
1000.594	2741.5372	1983.25	1098.9
1000.7152	2742.7475	1971.55	1086.95
1000.8363	2743.9571	1972.2	1085.15
1000.9575	2745.1661	1950.85	1060.05
1001.0785	2746.3744	1940.15	1052.2
1001.1996	2747.582	1928.85	1041.6
1001.3206	2748.7889	1925.9	1037.4
1001.4415	2749.9952	1916.2	1030.95
1001.5625	2751.2008	1906.35	1018.55
1001.6833	2752.4057	1908.45	1021.45
1001.8042	2753.61	1895.5	1009.85
1001.925	2754.8136	1889	1000.25
1002.0458	2756.0165	1881.7	995.95
1002.1665	2757.2188	1885.45	998.75
1002.2872	2758.4204	1882	994.3
1002.4078	2759.6213	1889.2	1003.15
1002.5285	2760.8215	1889.35	999.75
1002.649	2762.0211	1871.05	983.15
1002.7696	2763.22	1872.85	983.25
1002.8901	2764.4182	1868.55	981.05
1003.0106	2765.6158	1857.75	973.4
1003.131	2766.8127	1859.4	973.95
1003.2514	2768.009	1847.9	965.25
1003.3717	2769.2045	1849	962.2
1003.492	2770.3994	1847.65	960.85
1003.6123	2771.5936	1844.25	960.1
1003.7325	2772.7872	1835.2	951.75
1003.8527	2773.9801	1827.4	938.95
1003.9729	2775.1723	1833.65	934.2
1004.093	2776.3639	1831.15	947.85
1004.2131	2777.5548	1832.75	946.4
1004.3331	2778.745	1816.7	930.85
1004.4531	2779.9346	1819.2	934
1004.5731	2781.1235	1824.95	939.5
1004.693	2782.3117	1824.85	944.15
1004.8129	2783.4992	1821.25	936.75
1004.9328	2784.6861	1827.95	945.4
1005.0526	2785.8723	1839.3	954.35
1005.1723	2787.0579	1829.05	944.1
1005.2921	2788.2428	1838.95	954
1005.4118	2789.427	1838.5	954.95
1005.5314	2790.6106	1853.5	969.55
1005.651	2791.7935	1858.9	973.3
1005.7706	2792.9757	1854.95	972.4
1005.8902	2794.1573	1875.35	989.85
1006.0097	2795.3382	1879.75	995.95
1006.1291	2796.5184	1902.8	1020.1
1006.2485	2797.698	1901.9	1016.7
1006.3679	2798.8769	1910.05	1026.85
1006.4873	2800.0551	1930.05	1044.2
1006.6066	2801.2327	1945.95	1057.8
1006.7258	2802.4096	1968.4	1085
1006.8451	2803.5859	1978.3	1093
1006.9642	2804.7615	1987.3	1105.25
1007.0834	2805.9364	2022.15	1138.85
1007.2025	2807.1106	2038.8	1157.45
1007.3216	2808.2842	2070.1	1185.75
1007.4406	2809.4572	2094.6	1210.25
1007.5596	2810.6294	2133	1246.7
1007.6785	2811.801	2161.65	1276.7
1007.7975	2812.972	2198.55	1316.2
1007.9163	2814.1423	2240.45	1355.9
1008.0352	2815.3119	2287.75	1405
1008.154	2816.4808	2326.95	1444.45
1008.2727	2817.6491	2379.4	1494.8
1008.3914	2818.8167	2431.15	1550.35
1008.5101	2819.9837	2472.2	1584.75
1008.6288	2821.15	2526.95	1644.9
1008.7474	2822.3157	2570.05	1687.8
1008.8659	2823.4807	2618.75	1734.35
1008.9844	2824.645	2665.5	1782.05
1009.1029	2825.8086	2710.85	1825.35
1009.2214	2826.9716	2741.95	1857.85
1009.3398	2828.134	2798.7	1915.2
1009.4581	2829.2957	2840.3	1958.35
1009.5764	2830.4567	2853.4	1971.5
1009.6947	2831.617	2881.65	1996.85
1009.813	2832.7767	2893.65	2011.85
1009.9312	2833.9358	2880.15	2000.5
1010.0493	2835.0941	2870.25	1984.8
1010.1675	2836.2519	2857.6	1974.25
1010.2855	2837.4089	2860	1973.85
1010.4036	2838.5653	2846.15	1962.45
1010.5216	2839.7211	2847.6	1966.3
1010.6396	2840.8761	2849.9	1963.85
1010.7575	2842.0306	2865.7	1983
1010.8754	2843.1843	2894.6	2014.3
1010.9932	2844.3374	2952.9	2070.4
1011.111	2845.4899	3002.15	2117.3
1011.2288	2846.6417	3065.25	2181.45
1011.3465	2847.7928	3129.7	2249.75
1011.4642	2848.9433	3208.6	2326.55
1011.5818	2850.0931	3280.95	2398.65
1011.6995	2851.2422	3346.65	2462.15
1011.817	2852.3907	3415.45	2529.5
1011.9345	2853.5385	3473.2	2590
1012.052	2854.6857	3552.5	2640.9
1012.1695	2855.8323	3587.85	2704.75
1012.2869	2856.9781	3624.65	2741.35
1012.4042	2858.1233	3682.65	2799.2
1012.5216	2859.2679	3716	2833.05
1012.6389	2860.4118	3782.3	2900.55
1012.7561	2861.555	3823.25	2934.25
1012.8733	2862.6976	3852.5	2969.4
1012.9905	2863.8395	3873.4	2989.2
1013.1076	2864.9808	3889.75	3007.3
1013.2247	2866.1214	3905.7	3024.9
1013.3417	2867.2614	3907.3	3024.9
1013.4587	2868.4007	3946.15	3060.95
1013.5757	2869.5393	3950.2	3065.25
1013.6926	2870.6773	3950.5	3066.65
1013.8095	2871.8146	3985.95	3101.45
1013.9263	2872.9513	3973.15	3085.8
1014.0431	2874.0874	3970.15	3087.55
1014.1599	2875.2227	3955.65	3069.7
1014.2766	2876.3574	3925.5	3042.2
1014.3933	2877.4915	3907.85	3026.3
1014.51	2878.6249	3895.85	3013.45
1014.6266	2879.7577	3863.3	2979.8
1014.7431	2880.8898	3844.7	2949.65
1014.8596	2882.0212	3812.55	2932.1
1014.9761	2883.152	3793.5	2910.5
1015.0925	2884.2821	3798.3	2917.5
1015.2089	2885.4116	3785.45	2904.6
1015.3253	2886.5405	3776	2892.3
1015.4416	2887.6686	3794.7	2911
1015.5579	2888.7962	3785.45	2906.75
1015.6741	2889.923	3809.55	2929.1
1015.7903	2891.0493	3824.9	2943.8
1015.9065	2892.1748	3811.8	2930.95
1016.0226	2893.2997	3823	2942.4
1016.1387	2894.424	3835.7	2955.45
1016.2547	2895.5476	3863.65	2982.15
1016.3707	2896.6706	3873.4	2994.25
1016.4866	2897.7929	3920.65	3036.15
1016.6025	2898.9145	3931.2	3049.55
1016.7184	2900.0355	3952.75	3070.35
1016.8342	2901.1559	3994.95	3112.45
1016.95	2902.2756	4022.45	3139.2
1017.0658	2903.3946	4053.9	3170.65
1017.1815	2904.513	4081.25	3196.35
1017.2971	2905.6308	4107.9	3228.35
1017.4127	2906.7479	4114.85	3232.6
1017.5283	2907.8643	4157.35	3276.35
1017.6439	2908.9801	4168.1	3286.95
1017.7594	2910.0953	4160.1	3278.3
1017.8748	2911.2098	4158	3272
1017.9902	2912.3236	4156.05	3266.3
1018.1056	2913.4368	4151.45	3265.5
1018.2209	2914.5494	4122.2	3242.3
1018.3362	2915.6613	4102.75	3213.6
1018.4515	2916.7725	4063.9	3181.8
1018.5667	2917.8831	4035	3152.45
1018.6819	2918.9931	4019.45	3136.2
1018.797	2920.1024	3994	3112.35
1018.9121	2921.211	3981.6	3099
1019.0271	2922.319	3950.3	3068.4
1019.1421	2923.4264	3926.05	3045.8
1019.2571	2924.5331	3905.8	3025.25
1019.372	2925.6391	3901.55	3021.35
1019.4869	2926.7445	3886.3	3007.35
1019.6017	2927.8493	3878.95	2997.65
1019.7165	2928.9534	3882.5	2999.45
1019.8313	2930.0569	3855.3	2970.1
1019.946	2931.1597	3863.75	2982.15
1020.0606	2932.2619	3859	2976.95
1020.1753	2933.3634	3859.65	2979.75
1020.2899	2934.4643	3854.05	2966
1020.4044	2935.5645	3841.25	2953.05
1020.5189	2936.6641	3792.75	2906.85
1020.6334	2937.763	3738.3	2857.8
1020.7478	2938.8613	3712.95	2831.45
1020.8622	2939.959	3654.05	2770.25
1020.9765	2941.056	3564.1	2683.45
1021.0908	2942.1523	3498.6	2615.65
1021.2051	2943.248	3394.55	2511.45
1021.3193	2944.3431	3310.55	2428.35
1021.4334	2945.4375	3200.5	2319.6
1021.5476	2946.5313	3106	2228.75
1021.6617	2947.6244	3009.85	2129.9
1021.7757	2948.7169	2907.5	2026.55
1021.8897	2949.8087	2812.5	1931.35
1022.0037	2950.8999	2727.9	1848.75
1022.1176	2951.9904	2641.15	1760.05
1022.2315	2953.0803	2573.7	1692.8
1022.3453	2954.1696	2502.4	1621.45
1022.4591	2955.2582	2454.05	1573.15
1022.5728	2956.3462	2404.9	1524.45
1022.6865	2957.4335	2372.45	1491.25
1022.8002	2958.5202	2333.55	1452.15
1022.9138	2959.6062	2306.6	1427.15
1023.0274	2960.6916	2278.75	1398.5
1023.141	2961.7764	2246.7	1363.85
1023.2545	2962.8605	2244.4	1363.3
1023.3679	2963.9439	2232.65	1351.8
1023.4813	2965.0267	2218.95	1338.15
1023.5947	2966.1089	2229.8	1328.05
1023.708	2967.1905	2208.4	1330.6
1023.8213	2968.2714	2201.65	1322.85
1023.9346	2969.3516	2192.05	1313.5
1024.0478	2970.4312	2205.2	1316.3
1024.1609	2971.5102	2195.4	1314.55
1024.274	2972.5885	2202.7	1322.15
1024.3871	2973.6662	2206	1320.7
1024.5002	2974.7432	2192.05	1314
1024.6132	2975.8196	2189.15	1306.35
1024.7261	2976.8954	2172.1	1291.5
1024.839	2977.9705	2155.4	1273.4
1024.9519	2979.045	2141.3	1261.85
1025.0647	2980.1188	2128.85	1248.75
1025.1775	2981.192	2113.8	1235.95
1025.2902	2982.2645	2087.25	1208.6
1025.4029	2983.3364	2062.9	1182.1
1025.5156	2984.4077	2041.65	1164.05
1025.6282	2985.4783	2015.65	1130.1
1025.7407	2986.5483	1965.85	1087
1025.8532	2987.6177	1943.7	1066.55
1025.9657	2988.6864	1900.4	1020.05
1026.0782	2989.7545	1870.15	989.85
1026.1906	2990.8219	1837.8	959.5
1026.3029	2991.8887	1805.55	922
1026.4152	2992.9548	1769.8	886.5
1026.5275	2994.0204	1745	865.9
1026.6397	2995.0852	1705.15	826.85
1026.7519	2996.1495	1683.1	799.45
1026.864	2997.2131	1664.85	785.4
1026.9761	2998.276	1644.05	764.35
1027.0882	2999.3383	1617.15	736.6
1027.2002	3000.4	1600.2	721.95
1027.3122	3001.4611	1587.65	707.3
1027.4241	3002.5215	1575.25	695.7
1027.536	3003.5812	1551.45	670.55
1027.6478	3004.6404	1542.35	663.4
1027.7596	3005.6989	1528.1	644.2
1027.8714	3006.7567	1513.35	634.15
1027.9831	3007.8139	1545.95	636.8
1028.0947	3008.8705	1503.85	623.7
1028.2064	3009.9264	1498.75	617.4
1028.3179	3010.9818	1496.6	614.85
1028.4295	3012.0364	1482.9	602.3
1028.541	3013.0905	1482.35	602.05
1028.6524	3014.1439	1473.75	593.85
1028.7638	3015.1966	1476.15	596.6
1028.8752	3016.2487	1466.2	585.85
1028.9865	3017.3002	1473.05	588.75
1029.0978	3018.3511	1467.55	590.3
1029.209	3019.4013	1462	581.55
1029.3202	3020.4509	1460.9	582.8
1029.4314	3021.4998	1465.2	584.65
1029.5425	3022.5481	1463.35	585.3
1029.6535	3023.5958	1456.75	577.75
1029.7645	3024.6428	1461.7	581.15
1029.8755	3025.6892	1457.45	579.75
1029.9864	3026.735	1457.4	579.8
1030.0973	3027.7802	1465.75	584.4
1030.2082	3028.8247	1459.6	580.4
1030.319	3029.8685	1470.45	590.05
1030.4297	3030.9118	1467.9	587.75
1030.5404	3031.9544	1469.1	591.2
1030.6511	3032.9963	1470.75	591.65
1030.7617	3034.0376	1479.85	601.05
1030.8723	3035.0783	1478.5	596.35
1030.9829	3036.1184	1474.45	593.45
1031.0934	3037.1578	1484	605.75
1031.2038	3038.1966	1490	606.85
1031.3142	3039.2348	1484.05	605.3
1031.4246	3040.2723	1493.85	605.9
1031.5349	3041.3092	1483.8	606.95
1031.6452	3042.3455	1486.3	606.85
1031.7554	3043.3811	1477.5	599.25
1031.8656	3044.4161	1477.55	596.65
1031.9758	3045.4505	1467.65	589.8
1032.0859	3046.4842	1467.45	586.65
1032.1959	3047.5173	1454.35	575.45
1032.3059	3048.5498	1450.5	567.95
1032.4159	3049.5816	1441.8	562.75
1032.5258	3050.6128	1437.55	557.4
1032.6357	3051.6434	1432.7	553.05
1032.7455	3052.6734	1423.35	544.1
1032.8553	3053.7027	1422.8	543.45
1032.9651	3054.7314	1412.4	534.7
1033.0748	3055.7594	1406.45	526.05
1033.1845	3056.7868	1407.3	528.9
1033.2941	3057.8136	1406.5	528.8
1033.4037	3058.8398	1387.5	508.75
1033.5132	3059.8653	1389.85	512.85
1033.6227	3060.8902	1387.4	508.15
1033.7321	3061.9145	1382.9	503.05
1033.8415	3062.9381	1377.3	499.95
1033.9509	3063.9612	1383.85	486.35
1034.0602	3064.9835	1363.05	484.85
1034.1694	3066.0053	1355.9	472.95
1034.2787	3067.0264	1354	478.75
1034.3878	3068.0469	1341.45	460.85
1034.497	3069.0668	1349.85	468.85
1034.6061	3070.086	1327.5	451
1034.7151	3071.1046	1329.05	450.3
1034.8241	3072.1226	1319.1	440.55
1034.9331	3073.1399	1302.35	424.65
1035.042	3074.1567	1295.2	414.2
1035.1508	3075.1727	1287.95	407.2
1035.2597	3076.1882	1280.05	401.7
1035.3684	3077.203	1266.55	388.55
1035.4772	3078.2173	1258.75	378.45
1035.5859	3079.2308	1262.95	382.3
1035.6945	3080.2438	1246.6	367.35
1035.8031	3081.2561	1239.35	361.05
1035.9117	3082.2678	1228.55	350.7
1036.0202	3083.2789	1228.15	350.15
1036.1286	3084.2893	1221.1	342.85
1036.2371	3085.2991	1211.75	334.05
1036.3454	3086.3083	1213.45	329
1036.4538	3087.3169	1200.95	322.1
1036.562	3088.3248	1201.05	321.15
1036.6703	3089.3321	1193.1	313.15
1036.7785	3090.3388	1186.25	309
1036.8866	3091.3449	1178.9	298.3
1036.9948	3092.3503	1179.55	297.45
1037.1028	3093.3551	1173.65	297.4
1037.2108	3094.3593	1171.15	293
1037.3188	3095.3629	1163.85	288.35
1037.4267	3096.3658	1163.25	282.35
1037.5346	3097.3681	1161.1	284.5
1037.6425	3098.3698	1160.95	281.5
1037.7503	3099.3708	1154.55	275.35
1037.858	3100.3713	1148.3	272.5
1037.9657	3101.3711	1145.85	266.3
1038.0734	3102.3702	1279.8	258.85
1038.181	3103.3688	1143.85	265.6
1038.2886	3104.3667	1140	261.15
1038.3961	3105.364	1137.2	260.3
1038.5036	3106.3607	1138.5	257.35
1038.611	3107.3568	1133.25	254.95
1038.7184	3108.3522	1129.3	250.5
1038.8257	3109.347	1126.65	247.9
1038.933	3110.3412	1126.25	245.5
1039.0403	3111.3348	1122.65	246.8
1039.1475	3112.3277	1119.25	241.45
1039.2547	3113.32	1116.75	240.55
1039.3618	3114.3117	1121.35	242.6
1039.4689	3115.3028	1114.95	236.65
1039.5759	3116.2932	1117.65	237.85
1039.6829	3117.2831	1117.9	236.1
1039.7898	3118.2723	1110	234.2
1039.8967	3119.2608	1105.85	228.35
1040.0035	3120.2488	1105.55	226.65
1040.1103	3121.2361	1106.55	229.05
1040.2171	3122.2229	1104.25	225.7
1040.3238	3123.209	1103.2	225.75
1040.4305	3124.1944	1099.2	219.65
1040.5371	3125.1793	1101.2	221.25
1040.6437	3126.1635	1092.65	214.55
1040.7502	3127.1471	1096.2	220.6
1040.8567	3128.1301	1089.3	213.4
1040.9631	3129.1125	1092.3	213.75
1041.0695	3130.0942	1086.65	208.5
1041.1759	3131.0753	1095.5	208.65
1041.2822	3132.0558	1092.6	211.65
1041.3884	3133.0357	1082.45	202.3
1041.4946	3134.015	1086.45	208.2
1041.6008	3134.9936	1084.2	203.6
1041.7069	3135.9716	1101.35	202.9
1041.813	3136.949	1072.6	196.65
1041.919	3137.9258	1094.9	199.85
1042.025	3138.902	1085.35	202.65
1042.1309	3139.8775	1074.45	198.9
1042.2368	3140.8524	1072.3	195.3
1042.3427	3141.8267	1077.75	198.05
1042.4485	3142.8004	1072.75	194.1
1042.5542	3143.7735	1078.4	193.55
1042.6599	3144.7459	1070.55	191.35
1042.7656	3145.7178	1070.25	192.25
1042.8712	3146.689	1063.25	185.7
1042.9768	3147.6596	1066.15	186.65
1043.0823	3148.6295	1061.05	182.1
1043.1878	3149.5989	1061.75	183.6
1043.2932	3150.5676	1059.9	184.2
1043.3986	3151.5357	1062.45	187.95
1043.5039	3152.5032	1056.1	178.3
1043.6092	3153.4701	1055.45	177.95
1043.7145	3154.4364	1056.7	176.65
1043.8197	3155.402	1052.55	175.9
1043.9248	3156.367	1050.3	170.4
1044.03	3157.3315	1077.65	174.3
1044.135	3158.2952	1051.25	171.5
1044.24	3159.2584	1047.2	170.05
1044.345	3160.221	1050.95	174.1
1044.4499	3161.1829	1041.7	162.75
1044.5548	3162.1442	1046.05	168.7
1044.6596	3163.105	1044.25	167.2
1044.7644	3164.065	1041.25	164.75
1044.8692	3165.0245	1042.85	162.4
1044.9739	3165.9834	1039.6	162.6
1045.0785	3166.9416	1042.8	164.4
1045.1831	3167.8993	1042.45	164.65
1045.2877	3168.8563	1038	160.9
1045.3922	3169.8127	1034.1	157.9
1045.4966	3170.7684	1034.35	156.6
1045.6011	3171.7236	1036.95	161.85
1045.7054	3172.6782	1033.5	154.9
1045.8098	3173.6321	1034.3	156.35
1045.914	3174.5854	1033.45	150.75
1046.0183	3175.5381	1029.3	152.35
1046.1224	3176.4902	1027.8	150.65
1046.2266	3177.4417	1025.3	148.3
1046.3307	3178.3926	1026.2	150.7
1046.4347	3179.3428	1026.95	149.35
1046.5387	3180.2924	1022.9	147.25
1046.6427	3181.2415	1027.4	150.7
1046.7466	3182.1899	1026.55	146.15
1046.8504	3183.1377	1018.45	142.45
1046.9542	3184.0848	1027.45	147.7
1047.058	3185.0314	1019.85	141.05
1047.1617	3185.9773	1021.8	146.95
1047.2654	3186.9227	1019.95	142.25
1047.369	3187.8674	1017.1	139.8
1047.4726	3188.8115	1022.4	141.3
1047.5761	3189.755	1017.15	140.85
1047.6796	3190.6979	1018.9	142.55
1047.783	3191.6402	1014.25	139.75
1047.8864	3192.5818	1016.55	141.65
1047.9898	3193.5229	1022.05	139.7
1048.0931	3194.4633	1015.5	137.25
1048.1963	3195.4031	1011.5	133.55
1048.2995	3196.3423	1011.15	135.05
1048.4027	3197.2809	1009.7	132.95
1048.5058	3198.2189	1012.05	134.6
1048.6089	3199.1563	1015.4	131.7
1048.7119	3200.0931	1008.45	131.75
1048.8148	3201.0292	1005.55	128.7
1048.9178	3201.9648	1006.4	128.8
1049.0206	3202.8997	1007.4	127.4
1049.1235	3203.834	1002.6	127.45
1049.2262	3204.7677	1005.75	130.9
1049.329	3205.7008	1003.6	125.65
1049.4317	3206.6333	1000.6	126.4
1049.5343	3207.5652	1002.65	123.25
1049.6369	3208.4964	1000.7	122.4
1049.7394	3209.4271	997.2	118.85
1049.8419	3210.3571	999.4	124.3
1049.9444	3211.2865	1002.05	124.4
1050.0468	3212.2154	1001.3	122.75
1050.1491	3213.1436	1001.6	122.1
1050.2514	3214.0712	1003.15	119.55
1050.3537	3214.9982	998	121.35
1050.4559	3215.9246	997.85	119.25
1050.5581	3216.8503	996.15	119.2
1050.6602	3217.7755	995.3	118.05
1050.7623	3218.7001	995.3	118.85
1050.8643	3219.624	995	117.3
1050.9663	3220.5473	995.6	119.45
1051.0682	3221.4701	997.15	118.45
1051.1701	3222.3922	992.7	116.75
1051.2719	3223.3137	990.55	114.65
1051.3737	3224.2346	988.9	111.35
1051.4754	3225.1549	992.15	113.75
1051.5771	3226.0746	984.65	108.85
1051.6788	3226.9937	986.55	109.25
1051.7804	3227.9121	985.4	109.85
1051.8819	3228.83	987.3	110.7
1051.9834	3229.7473	988.6	112.25
1052.0849	3230.6639	983.75	106.5
1052.1863	3231.5799	989	113.3
1052.2876	3232.4954	987.5	109.85
1052.3889	3233.4102	985.3	108.2
1052.4902	3234.3244	988.2	111.7
1052.5914	3235.238	982	105.25
1052.6926	3236.151	1008.8	108.7
1052.7937	3237.0634	981	105.15
1052.8948	3237.9752	981.6	107.65
1052.9958	3238.8864	978.4	101.2
1053.0968	3239.797	980.4	104.45
1053.1977	3240.7069	979.8	104.05
1053.2986	3241.6163	980.9	103.55
1053.3994	3242.5251	977	103.4
1053.5002	3243.4332	974.5	99.25
1053.6009	3244.3408	979.4	102.15
1053.7016	3245.2477	976.2	100.4
1053.8022	3246.154	976.95	99.9
1053.9028	3247.0598	973.75	94.85
1054.0034	3247.9649	976.15	98.95
1054.1039	3248.8694	973.55	97
1054.2043	3249.7733	970.25	94.15
1054.3047	3250.6766	973.2	97.5
1054.4051	3251.5793	972.7	95.65
1054.5054	3252.4814	969.05	93.85
1054.6056	3253.3829	968.2	92.15
1054.7058	3254.2838	966.75	91.8
1054.806	3255.1841	966.75	90.65
1054.9061	3256.0838	965.05	87.9
1055.0061	3256.9829	964.65	89.2
1055.1062	3257.8814	967.3	89.3
1055.2061	3258.7792	962.2	84.9
1055.306	3259.6765	962.15	85.45
1055.4059	3260.5731	965.05	88.6
1055.5057	3261.4692	963.35	87.3
1055.6055	3262.3647	962.7	85
1055.7052	3263.2595	956.2	81.9
1055.8049	3264.1538	954.85	78.85
1055.9045	3265.0474	957.2	81.9
1056.0041	3265.9404	952.9	76.65
1056.1036	3266.8329	956.55	80.4
1056.2031	3267.7247	959.3	74.1
1056.3025	3268.616	949.4	73.65
1056.4019	3269.5066	949.4	74.3
1056.5013	3270.3966	944.95	69.6
1056.6005	3271.286	941.65	65.65
