Software Version:	3.9.2.0
Unit SN:	10000200
Spectrometer SN:	6960
Date:	3/8/2024 11:27:00 AM
Data Line Index:	25
Spectral Points:	2048
Integration time (ms):	125
Averages:	20
Delay (ms):	30000
Sequence Number:	1
Processing:	dark subtract
Laser Power (mW):	305
Laser Current (mA):	822
Laser Diode Temp (C):	25
Laser Case Temp (C):	25
System Temp (C):	25
Spectrometer Temp (C):	22.9
CCD Temp (C):	0.009
Secondary Temp (C):	20.013
Heatsink Temp (C):	19.37
CCDPCB Temp (C):	33.272
SecondaryPCB Temp (C):	26.881

Wavelength	RamanShift	Raw Counts	Dark Subtracted
787.061	30.1047	416.15	5.95
787.2016	32.3739	412.6	4.25
787.3422	34.6426	415.6	7.2
787.4828	36.9109	417	6.4
787.6235	39.1787	420.45	6.7
787.7642	41.4461	428.3	9
787.9049	43.7131	431.25	9.05
788.0456	45.9796	433.6	8.75
788.1863	48.2456	437.3	8.45
788.3271	50.5112	443.25	10.25
788.4679	52.7764	445.15	8.7
788.6087	55.0411	450.7	10
788.7496	57.3054	456.6	13.25
788.8904	59.5692	459.05	12.5
789.0313	61.8326	462.35	13.6
789.1722	64.0955	468.65	15.85
789.3132	66.3579	476.05	18.65
789.4541	68.6199	481.85	21.5
789.5951	70.8815	491.1	26.4
789.7361	73.1426	511.15	42.55
789.8771	75.4032	543.8	72.65
790.0181	77.6634	619.7	142.75
790.1592	79.9231	789.25	307.4
790.3003	82.1824	1137.95	648.15
790.4414	84.4412	1714.35	1209.4
790.5825	86.6995	2455.55	1932.75
790.7237	88.9574	3145.35	2608.7
790.8648	91.2148	3632.4	3085.1
791.006	93.4717	3833.85	3276.3
791.1472	95.7282	3874.5	3319
791.2885	97.9842	3851.4	3291.1
791.4297	100.2398	3807.5	3246.1
791.571	102.4949	3766.95	3200.8
791.7123	104.7495	3723.65	3152.25
791.8536	107.0036	3683.05	3113.4
791.9949	109.2573	3607.35	3036
792.1363	111.5105	3529.1	2954.6
792.2777	113.7632	3443.25	2868
792.4191	116.0154	3349.5	2764.85
792.5605	118.2672	3244.05	2665.65
792.7019	120.5185	3147.5	2567.3
792.8434	122.7693	3052.05	2468
792.9849	125.0197	2969.85	2380.45
793.1264	127.2696	2884.45	2292.65
793.2679	129.519	2847.5	2253.6
793.4094	131.7679	2807.5	2207.65
793.551	134.0163	2795.9	2193.95
793.6926	136.2642	2785.65	2180.35
793.8342	138.5117	2790.05	2182.9
793.9758	140.7587	2762.85	2156.3
794.1175	143.0052	2708.45	2096.75
794.2591	145.2512	2664.9	2051.05
794.4008	147.4967	2607	1995.4
794.5425	149.7417	2573.35	1960.4
794.6842	151.9863	2535.9	1914.6
794.826	154.2304	2524.7	1899.4
794.9677	156.4739	2535.15	1907.8
795.1095	158.717	2542.2	1913.45
795.2513	160.9596	2562.5	1928.45
795.3931	163.2017	2591.3	1953.8
795.535	165.4433	2599.55	1959.65
795.6768	167.6844	2599.6	1962.35
795.8187	169.925	2576.55	1936.55
795.9606	172.1651	2525.7	1879.4
796.1025	174.4047	2463.9	1817.15
796.2445	176.6439	2438.7	1786.6
796.3864	178.8825	2411.85	1758.95
796.5284	181.1206	2393.5	1733.9
796.6704	183.3582	2384.2	1721.7
796.8124	185.5954	2379.4	1715.5
796.9544	187.832	2375.85	1710.25
797.0965	190.0681	2381.7	1710.15
797.2386	192.3037	2380.5	1703.95
797.3806	194.5388	2386.5	1709.75
797.5228	196.7734	2405.4	1726.85
797.6649	199.0075	2421.05	1743.6
797.807	201.2411	2441.5	1762.4
797.9492	203.4742	2467.4	1786.5
798.0914	205.7068	2490.25	1803.8
798.2336	207.9389	2511.15	1820.55
798.3758	210.1704	2536.95	1855.05
798.518	212.4015	2521.25	1849.05
798.6603	214.632	2520.85	1854.75
798.8025	216.862	2521.75	1857.55
798.9448	219.0915	2513.85	1846.25
799.0871	221.3205	2550.65	1882.45
799.2294	223.549	2562.4	1895.7
799.3718	225.777	2555.4	1890.55
799.5141	228.0044	2566.25	1892.85
799.6565	230.2314	2541.95	1867.15
799.7989	232.4578	2538.55	1861.6
799.9413	234.6837	2514.8	1829.1
800.0837	236.909	2505.35	1816.55
800.2262	239.1339	2518.65	1806.3
800.3687	241.3582	2515.9	1816.9
800.5111	243.582	2530.6	1804.1
800.6536	245.8053	2528.9	1815.45
800.7961	248.0281	2531.25	1818.55
800.9387	250.2503	2531.6	1819.85
801.0812	252.472	2550.45	1834.35
801.2238	254.6932	2544.05	1827.65
801.3664	256.9139	2556.9	1841.95
801.509	259.134	2570	1848.45
801.6516	261.3536	2586.9	1867.45
801.7942	263.5727	2635.2	1914.1
801.9369	265.7912	2661.25	1937.3
802.0795	268.0092	2744.4	2024.85
802.2222	270.2267	2788.5	2068.45
802.3649	272.4436	2826.8	2102.85
802.5076	274.6601	2875.6	2141.4
802.6504	276.8759	2902.8	2172.75
802.7931	279.0913	2922.5	2195.05
802.9359	281.3061	2934.15	2202.6
803.0787	283.5204	2956	2219.9
803.2215	285.7341	2987.25	2252.7
803.3643	287.9473	3013.5	2277.5
803.5071	290.16	3004.8	2263.6
803.6499	292.3721	2964.55	2229.05
803.7928	294.5837	2925.6	2188.5
803.9357	296.7947	2899.35	2163.35
804.0786	299.0052	2884.2	2147.1
804.2215	301.2152	2861.6	2121.85
804.3644	303.4246	2854.6	2118.1
804.5074	305.6334	2827.65	2092.75
804.6503	307.8418	2824.85	2082.7
804.7933	310.0495	2805.05	2060.8
804.9363	312.2568	2762.5	2020.5
805.0793	314.4635	2726.45	1979.05
805.2223	316.6696	2677.45	1928.25
805.3653	318.8752	2635.6	1877.1
805.5084	321.0802	2594.45	1844.9
805.6514	323.2847	2579.9	1826.75
805.7945	325.4887	2589	1835.1
805.9376	327.692	2612.7	1858.3
806.0807	329.8949	2655.2	1898.9
806.2238	332.0972	2702.1	1947.5
806.367	334.2989	2730.9	1969.55
806.5101	336.5001	2731.3	1970.4
806.6533	338.7007	2701.45	1939.65
806.7965	340.9008	2664.45	1904.8
806.9397	343.1003	2605.55	1841.9
807.0829	345.2992	2542.35	1782.3
807.2261	347.4976	2506.55	1739.1
807.3693	349.6955	2468.25	1698.05
807.5126	351.8927	2459.55	1687.65
807.6559	354.0895	2446.55	1661.5
807.7991	356.2856	2434.95	1660.1
807.9424	358.4812	2414.4	1642.65
808.0857	360.6763	2420.2	1643.8
808.2291	362.8707	2411.7	1635.95
808.3724	365.0646	2413.4	1632.1
808.5158	367.258	2418.4	1638.75
808.6591	369.4508	2445.9	1660.5
808.8025	371.643	2473.85	1690.4
808.9459	373.8346	2500.15	1712.05
809.0893	376.0257	2540.35	1754.25
809.2327	378.2162	2556.75	1768.7
809.3762	380.4062	2570.2	1782.5
809.5196	382.5956	2544.6	1755.45
809.6631	384.7844	2515.65	1735.45
809.8066	386.9726	2458.3	1680.1
809.9501	389.1603	2436.8	1658.8
810.0936	391.3474	2440.65	1627.3
810.2371	393.5339	2421.35	1636.5
810.3806	395.7199	2423.95	1644.6
810.5241	397.9052	2442.6	1662.6
810.6677	400.09	2499.95	1714.45
810.8113	402.2743	2534	1751.65
810.9548	404.4579	2571.95	1790.15
811.0984	406.641	2607.6	1821.7
811.2421	408.8235	2657	1870.5
811.3857	411.0054	2700.35	1910.65
811.5293	413.1868	2769.9	1976.9
811.673	415.3675	2828	2030.25
811.8166	417.5477	2821.6	2024.2
811.9603	419.7273	2767.05	1964
812.104	421.9064	2694.75	1890.3
812.2477	424.0848	2624.95	1823
812.3914	426.2627	2561.25	1760.65
812.5351	428.4399	2480.45	1678.85
812.6788	430.6166	2435.75	1630.6
812.8226	432.7928	2397.5	1587.6
812.9663	434.9683	2354.35	1547.6
813.1101	437.1432	2321.25	1513.85
813.2539	439.3176	2302.95	1495.7
813.3977	441.4914	2294.65	1490.55
813.5415	443.6645	2293.5	1485.75
813.6853	445.8371	2297.85	1491.3
813.8291	448.0091	2294.65	1486.9
813.973	450.1806	2289.1	1481
814.1168	452.3514	2275.9	1464.8
814.2607	454.5216	2293.35	1474.8
814.4046	456.6913	2281.45	1470.25
814.5485	458.8603	2284.55	1472
814.6924	461.0288	2288.05	1479
814.8363	463.1967	2283.45	1472.75
814.9802	465.3639	2281.6	1471.65
815.1241	467.5306	2294.15	1481.6
815.2681	469.6967	2263.85	1453.5
815.412	471.8622	2263.4	1452.25
815.556	474.0271	2268.2	1456.7
815.7	476.1914	2264.1	1447.95
815.844	478.3551	2256.05	1441.8
815.988	480.5182	2253.05	1437.8
816.132	482.6807	2254.55	1441.3
816.276	484.8426	2272.6	1462.25
816.4201	487.0039	2313.8	1503.15
816.5641	489.1647	2364.85	1548.6
816.7082	491.3248	2413.5	1597.45
816.8522	493.4843	2421	1606.55
816.9963	495.6432	2419.25	1603.4
817.1404	497.8015	2396.25	1575.9
817.2845	499.9592	2362.8	1540.5
817.4286	502.1163	2297	1473.6
817.5727	504.2728	2250.75	1427.45
817.7168	506.4287	2222.1	1403.75
817.861	508.5839	2206.45	1386.2
818.0051	510.7386	2197.15	1375.75
818.1493	512.8927	2197.35	1367.65
818.2935	515.0461	2227.35	1404.45
818.4377	517.199	2228.3	1405.1
818.5818	519.3512	2274.25	1449
818.726	521.5029	2339.8	1509.75
818.8703	523.6539	2399.95	1570.9
819.0145	525.8043	2413.9	1585.05
819.1587	527.9541	2378.15	1546
819.303	530.1033	2287.4	1456.7
819.4472	532.2519	2238.45	1408.05
819.5915	534.3999	2208.05	1374.6
819.7357	536.5472	2198.45	1366.75
819.88	538.694	2209.35	1383.45
820.0243	540.8401	2225.65	1391.8
820.1686	542.9856	2239.1	1401.3
820.3129	545.1305	2253.3	1415.45
820.4572	547.2748	2274.45	1433.9
820.6016	549.4185	2280.55	1439.4
820.7459	551.5615	2284.4	1444.2
820.8902	553.704	2292.2	1454.1
821.0346	555.8458	2317.4	1479.75
821.1789	557.987	2329.4	1492.95
821.3233	560.1276	2362.75	1525.45
821.4677	562.2675	2422.05	1585.35
821.6121	564.4069	2487.8	1654.75
821.7565	566.5456	2536.6	1703.4
821.9009	568.6837	2523.2	1686.5
822.0453	570.8212	2437.95	1605.75
822.1897	572.958	2355	1518.95
822.3342	575.0942	2300.75	1467.7
822.4786	577.2299	2261.05	1427.15
822.6231	579.3648	2236.7	1404.05
822.7675	581.4992	2211.75	1383.35
822.912	583.6329	2212.25	1382.55
823.0565	585.766	2245.6	1411.8
823.201	587.8985	2290.65	1454.85
823.3454	590.0304	2351.4	1500.8
823.4899	592.1616	2389.5	1547
823.6345	594.2922	2388.4	1545.9
823.779	596.4222	2353.2	1508.15
823.9235	598.5515	2294.55	1448.95
824.068	600.6802	2225.25	1381.4
824.2126	602.8083	2178.2	1335.8
824.3571	604.9358	2163.4	1320.75
824.5017	607.0626	2158.85	1311.75
824.6462	609.1888	2165.9	1317.6
824.7908	611.3144	2198.75	1349.6
824.9354	613.4393	2229.25	1384.65
825.08	615.5636	2293.15	1443.65
825.2246	617.6873	2344.75	1498.6
825.3692	619.8103	2377.95	1527.35
825.5138	621.9327	2381.65	1530.95
825.6584	624.0544	2329.35	1483.25
825.803	626.1756	2265.7	1419.3
825.9477	628.2961	2220.7	1370.4
826.0923	630.4159	2203.5	1353.2
826.237	632.5351	2190.45	1339.3
826.3816	634.6537	2182.75	1331.3
826.5263	636.7716	2174.1	1321.5
826.6709	638.8889	2171.6	1319.95
826.8156	641.0056	2163.6	1310.2
826.9603	643.1216	2183.65	1329.1
827.105	645.237	2180.5	1324.7
827.2497	647.3518	2166.8	1316.15
827.3944	649.4659	2131.55	1280.35
827.5391	651.5793	2114.55	1264.05
827.6838	653.6922	2098.6	1245.5
827.8285	655.8043	2085.95	1237.1
827.9733	657.9159	2069.15	1215.2
828.118	660.0268	2075.05	1219.85
828.2627	662.137	2068.3	1214.75
828.4075	664.2466	2080.3	1222.4
828.5522	666.3556	2073.85	1217.25
828.697	668.4639	2062.2	1204.25
828.8418	670.5716	2050.35	1197.55
828.9865	672.6786	2046.15	1190.35
829.1313	674.785	2057.3	1197.4
829.2761	676.8907	2036.65	1179.7
829.4209	678.9958	2036.2	1180.8
829.5657	681.1002	2033.3	1176.3
829.7105	683.204	2054.8	1191.9
829.8553	685.3072	2039.45	1177.5
830.0001	687.4097	2034.45	1175
830.1449	689.5115	2033.6	1170.05
830.2898	691.6127	2029.35	1172.2
830.4346	693.7132	2028.85	1170.45
830.5794	695.8131	2035.85	1161.55
830.7243	697.9123	2036.65	1174.55
830.8691	700.0109	2035.15	1173.2
831.014	702.1089	2037.7	1176.05
831.1588	704.2061	2052.05	1188.3
831.3037	706.3028	2090.45	1221.55
831.4486	708.3987	2105.5	1242.5
831.5935	710.4941	2121.8	1259.1
831.7383	712.5887	2121.35	1257.1
831.8832	714.6827	2118.5	1250.95
832.0281	716.7761	2115.05	1252.05
832.173	718.8688	2107.4	1243.65
832.3179	720.9608	2111.95	1243.55
832.4628	723.0522	2124.05	1252.6
832.6077	725.1429	2146.2	1280.7
832.7527	727.233	2177.8	1311.05
832.8976	729.3224	2247.9	1379.95
833.0425	731.4112	2300.45	1431.5
833.1874	733.4993	2317.55	1446.85
833.3324	735.5867	2272.8	1405.3
833.4773	737.6735	2203.35	1336.15
833.6222	739.7596	2142.1	1274.45
833.7672	741.845	2101.7	1232.3
833.9122	743.9298	2086.3	1217.1
834.0571	746.014	2107	1238.5
834.2021	748.0974	2121.55	1249.7
834.347	750.1802	2114.9	1243.25
834.492	752.2624	2102.55	1232.15
834.637	754.3439	2090.4	1220.75
834.782	756.4247	2095.6	1216.4
834.9269	758.5048	2082.5	1213.45
835.0719	760.5843	2107.85	1235.5
835.2169	762.6631	2136.85	1265.25
835.3619	764.7413	2197.05	1325.8
835.5069	766.8188	2269.4	1396
835.6519	768.8956	2354.85	1481.3
835.7969	770.9718	2418.15	1549.55
835.9419	773.0473	2424.4	1554.4
836.0869	775.1221	2374.7	1501.65
836.232	777.1962	2364.1	1490.15
836.377	779.2697	2426.15	1551.85
836.522	781.3426	2525.7	1636
836.667	783.4147	2597.1	1723.75
836.8121	785.4862	2586.25	1714.85
836.9571	787.557	2510.85	1634.6
837.1021	789.6271	2361.55	1486.95
837.2472	791.6966	2235.75	1361.7
837.3922	793.7654	2134.45	1260.6
837.5373	795.8335	2076.6	1204.25
837.6823	797.901	2034.1	1158.8
837.8274	799.9678	2032.9	1154.8
837.9724	802.0339	2032	1155.45
838.1175	804.0993	2037.35	1153.75
838.2626	806.1641	2031.55	1156.25
838.4076	808.2282	2017.05	1142.4
838.5527	810.2916	1992.75	1118.5
838.6978	812.3544	1973.85	1099.65
838.8428	814.4164	1969.5	1094.5
838.9879	816.4778	1977.4	1099.85
839.133	818.5385	1976.05	1098.35
839.2781	820.5986	2018.05	1138.4
839.4232	822.658	2067.85	1189.8
839.5682	824.7166	2141.7	1263.8
839.7133	826.7747	2221	1343.85
839.8584	828.832	2304.3	1423.65
840.0035	830.8886	2362.65	1484.05
840.1486	832.9446	2389.15	1508.25
840.2937	834.9999	2353.75	1479.45
840.4388	837.0545	2298.55	1417.8
840.5839	839.1085	2199.65	1320.15
840.729	841.1618	2124.5	1241.45
840.8741	843.2143	2067.75	1186.95
841.0192	845.2662	2030.45	1148.25
841.1643	847.3175	2012.6	1134.9
841.3095	849.368	2004.45	1124.85
841.4546	851.4179	1995.2	1116.95
841.5997	853.467	2000.35	1121.8
841.7448	855.5155	2002.25	1122.55
841.8899	857.5633	2008.25	1128.35
842.0351	859.6105	2005.5	1125.25
842.1802	861.6569	1998.55	1116.6
842.3253	863.7027	1978.9	1095.65
842.4704	865.7478	1966.45	1085.4
842.6156	867.7922	1948.55	1066.5
842.7607	869.8359	1946.5	1065.2
842.9058	871.8789	1938.9	1054.6
843.0509	873.9212	1968.8	1054.1
843.1961	875.9629	1952.8	1072.25
843.3412	878.0039	1951.35	1068.7
843.4863	880.0441	1972.15	1091.05
843.6315	882.0837	1996.2	1114.45
843.7766	884.1226	2001.55	1118.55
843.9218	886.1609	2060.15	1178.75
844.0669	888.1984	2104.1	1223.1
844.212	890.2352	2152.95	1271.3
844.3572	892.2714	2160.25	1275.15
844.5023	894.3069	2143.65	1260.6
844.6475	896.3416	2093.95	1207.3
844.7926	898.3757	2040.85	1158.55
844.9377	900.4091	2015.85	1130.7
845.0829	902.4418	2018.6	1129.95
845.228	904.4739	2041.55	1153.1
845.3732	906.5052	2057.65	1173.3
845.5183	908.5358	2051.3	1169.15
845.6635	910.5658	2033	1144.75
845.8086	912.595	2005.05	1119.2
845.9538	914.6236	1952.25	1064.9
846.0989	916.6515	1917.35	1034.25
846.2441	918.6786	1908.7	1021.3
846.3892	920.7051	1897.55	1008.9
846.5344	922.7309	1893.8	1006.65
846.6795	924.756	1895.6	1008.6
846.8246	926.7804	1910.4	1025.25
846.9698	928.8041	1910.9	1022.7
847.1149	930.8272	1934.5	1049.45
847.2601	932.8495	1937.8	1050
847.4052	934.8711	1946	1058.05
847.5504	936.892	1959.35	1069.6
847.6955	938.9123	1978.65	1092
847.8407	940.9318	2003.2	1115.35
847.9858	942.9506	2022.75	1133.65
848.131	944.9688	2004.2	1117.1
848.2761	946.9862	1977.25	1090.8
848.4213	949.003	1947.95	1062
848.5664	951.019	1920.75	1032.65
848.7115	953.0344	1904.1	1018.15
848.8567	955.0491	1896.85	1008.7
849.0018	957.063	1883.65	997.1
849.147	959.0763	1882.1	996.15
849.2921	961.0888	1877.85	984.35
849.4373	963.1007	1876.9	990.05
849.5824	965.1119	1876.55	995.8
849.7275	967.1223	1853.1	969.9
849.8727	969.1321	1863.25	981.35
850.0178	971.1412	1850.35	963.75
850.1629	973.1495	1842.7	956.65
850.3081	975.1572	1879.65	960.5
850.4532	977.1641	1860.5	974.15
850.5983	979.1704	1845.35	957.3
850.7435	981.1759	1847.45	955.6
850.8886	983.1808	1838.75	948.85
851.0337	985.1849	1849.2	949.75
851.1788	987.1884	1838.65	945.95
851.324	989.1911	1837.7	946.8
851.4691	991.1932	1843.6	954.05
851.6142	993.1945	1841.85	953.45
851.7593	995.1951	1845.9	960.75
851.9045	997.1951	1843	945.45
852.0496	999.1943	1837.45	948.95
852.1947	1001.1928	1831.1	940.9
852.3398	1003.1906	1849.35	959.9
852.4849	1005.1877	1874.55	984.5
852.63	1007.1841	1897.4	1007.45
852.7751	1009.1798	1920.9	1033
852.9202	1011.1748	1902	1013.5
853.0653	1013.1691	1885.85	994.85
853.2104	1015.1627	1845.65	954.8
853.3555	1017.1556	1810.05	920.15
853.5006	1019.1477	1791.2	902.9
853.6457	1021.1392	1778.1	889.85
853.7908	1023.1299	1774.35	885
853.9359	1025.12	1762.7	875.85
854.081	1027.1093	1770.5	891.65
854.2261	1029.0979	1789.8	910.65
854.3712	1031.0859	1813.8	931.8
854.5163	1033.0731	1824.6	936.2
854.6613	1035.0596	1834.25	946.85
854.8064	1037.0454	1823.55	934.55
854.9515	1039.0304	1805.9	917.15
855.0965	1041.0148	1793.8	905.85
855.2416	1042.9985	1775.5	882.05
855.3867	1044.9814	1752.85	863.05
855.5317	1046.9636	1755.55	863.1
855.6768	1048.9452	1761.8	873.3
855.8219	1050.926	1776.35	889.9
855.9669	1052.9061	1791.1	901.85
856.112	1054.8855	1801.2	911.5
856.257	1056.8642	1798.6	909.95
856.4021	1058.8421	1803	909.4
856.5471	1060.8194	1794.15	903.05
856.6921	1062.7959	1793.7	900.8
856.8372	1064.7717	1788.25	895.05
856.9822	1066.7469	1789.8	897.75
857.1272	1068.7213	1785.95	891
857.2723	1070.695	1807.85	916.05
857.4173	1072.6679	1829.55	937.4
857.5623	1074.6402	1844.8	954.5
857.7073	1076.6117	1862.45	967.45
857.8523	1078.5826	1843.8	950.8
857.9973	1080.5527	1813.05	921.15
858.1423	1082.5221	1767.75	876.75
858.2873	1084.4908	1738.3	847.4
858.4323	1086.4587	1726.05	833
858.5773	1088.426	1716.35	825.45
858.7223	1090.3925	1718.15	819.65
858.8673	1092.3584	1722.8	831.3
859.0123	1094.3235	1734	841.9
859.1573	1096.2879	1745.6	852.85
859.3022	1098.2515	1766.05	875.95
859.4472	1100.2145	1795.4	902.85
859.5922	1102.1767	1826.65	932.15
859.7371	1104.1382	1873.5	980.25
859.8821	1106.099	1923.85	1031.2
860.027	1108.0591	1964	1072.6
860.172	1110.0185	2011.6	1119.45
860.3169	1111.9771	2055.7	1164.35
860.4619	1113.9351	2097.55	1204.05
860.6068	1115.8923	2157.65	1265.75
860.7517	1117.8488	2199	1304.2
860.8967	1119.8045	2150.2	1259.7
861.0416	1121.7596	2062.95	1170.25
861.1865	1123.7139	1948.05	1056.2
861.3314	1125.6675	1883.8	991.75
861.4763	1127.6204	1893.6	1003.75
861.6212	1129.5726	1904.1	1010.2
861.7661	1131.524	1908.65	1015.25
861.911	1133.4748	1871.1	979.85
862.0559	1135.4248	1811.85	917.25
862.2008	1137.3741	1762.05	871.7
862.3457	1139.3226	1731.55	836.95
862.4905	1141.2705	1727.4	833.6
862.6354	1143.2176	1743.45	844.1
862.7803	1145.164	1754.5	858.9
862.9251	1147.1097	1751.25	859.5
863.07	1149.0546	1729.15	835.9
863.2148	1150.9989	1703.1	810
863.3597	1152.9424	1673.95	780.4
863.5045	1154.8852	1668.55	774
863.6493	1156.8272	1657.85	765.45
863.7942	1158.7686	1672.9	770.45
863.939	1160.7092	1664.15	771.95
864.0838	1162.6491	1662.9	768.65
864.2286	1164.5883	1675.8	784.4
864.3734	1166.5267	1690.65	797.55
864.5182	1168.4644	1723.8	831.25
864.663	1170.4014	1746.5	854.15
864.8078	1172.3377	1782.15	889.75
864.9526	1174.2732	1835.9	940.35
865.0974	1176.2081	1919.7	1027
865.2421	1178.1421	2050.4	1152.5
865.3869	1180.0755	2176.7	1284.05
865.5317	1182.0082	2242.1	1348.65
865.6764	1183.9401	2238.3	1346.45
865.8212	1185.8713	2137	1245.2
865.9659	1187.8017	2003.2	1112.8
866.1106	1189.7315	1884.2	998.75
866.2554	1191.6605	1828.55	917.55
866.4001	1193.5888	1760.7	871.15
866.5448	1195.5163	1730.15	838.7
866.6895	1197.4432	1709.9	814.45
866.8342	1199.3693	1686.9	794.4
866.9789	1201.2947	1670.15	776.7
867.1236	1203.2193	1664.9	775.5
867.2683	1205.1432	1660.05	766
867.413	1207.0664	1658.75	764.6
867.5576	1208.9889	1664.1	768.5
867.7023	1210.9106	1657.05	763.55
867.847	1212.8316	1661.05	767.7
867.9916	1214.7519	1681.05	779.65
868.1363	1216.6715	1680.7	788.25
868.2809	1218.5903	1699.35	805.4
868.4255	1220.5084	1715.35	822.4
868.5701	1222.4257	1728.8	835
868.7148	1224.3424	1741.95	851.4
868.8594	1226.2583	1764.4	867.4
869.004	1228.1735	1787.8	892.9
869.1486	1230.0879	1818.3	922.95
869.2932	1232.0016	1854.85	962.95
869.4377	1233.9146	1895.2	999.8
869.5823	1235.8269	1913.55	1020.8
869.7269	1237.7384	1914.6	1020
869.8715	1239.6492	1924.7	1031.05
870.016	1241.5592	1938.5	1044.15
870.1606	1243.4686	1973.85	1081.2
870.3051	1245.3772	2050.4	1156.9
870.4496	1247.285	2135.65	1239.3
870.5941	1249.1922	2217.2	1322.2
870.7387	1251.0986	2301.45	1406.9
870.8832	1253.0042	2355.95	1462.45
871.0277	1254.9092	2457.4	1563.5
871.1722	1256.8134	2536.1	1643.75
871.3167	1258.7169	2631.1	1735.85
871.4611	1260.6196	2684.75	1791
871.6056	1262.5216	2699.25	1805.2
871.7501	1264.4229	2701.15	1806.3
871.8945	1266.3234	2668.45	1773.15
872.039	1268.2232	2617.65	1723.45
872.1834	1270.1223	2553.8	1658.45
872.3278	1272.0207	2517.3	1621.15
872.4723	1273.9183	2491.35	1592.15
872.6167	1275.8151	2484.25	1591.5
872.7611	1277.7113	2529.55	1634.45
872.9055	1279.6067	2605.5	1714.95
873.0499	1281.5014	2740.9	1845.15
873.1943	1283.3953	2935.5	2038.7
873.3386	1285.2885	3123.7	2228.75
873.483	1287.181	3290.75	2396.5
873.6274	1289.0727	3360.5	2465.8
873.7717	1290.9637	3299.6	2405.05
873.9161	1292.854	3195.35	2301.6
874.0604	1294.7435	3067.55	2173.55
874.2047	1296.6323	2942.85	2049.65
874.349	1298.5204	2848.55	1950.55
874.4933	1300.4077	2757.35	1860.05
874.6376	1302.2943	2700.85	1805.25
874.7819	1304.1802	2670.45	1774.85
874.9262	1306.0653	2639.1	1741.2
875.0705	1307.9497	2588.6	1695.15
875.2147	1309.8333	2559.1	1666.7
875.359	1311.7162	2535.85	1642.9
875.5032	1313.5984	2507.1	1610.7
875.6475	1315.4798	2491.7	1588.75
875.7917	1317.3605	2478.6	1579.35
875.9359	1319.2405	2477.7	1581.5
876.0801	1321.1197	2470.85	1576.3
876.2243	1322.9982	2433.65	1534.05
876.3685	1324.876	2366.8	1473.6
876.5127	1326.753	2264.8	1370.35
876.6569	1328.6293	2174.65	1276.4
876.801	1330.5048	2091.45	1192.6
876.9452	1332.3796	1995.35	1099.15
877.0893	1334.2537	1964.75	1045
877.2335	1336.127	1890.85	995.4
877.3776	1337.9996	1865.45	970.55
877.5217	1339.8714	1841.95	947.1
877.6658	1341.7426	1869.95	933.65
877.8099	1343.6129	1816.55	921.6
877.954	1345.4826	1792	896.6
878.0981	1347.3515	1780.05	882.5
878.2422	1349.2196	1768.05	872.2
878.3862	1351.087	1758.5	863.5
878.5303	1352.9537	1745.45	849
878.6743	1354.8197	1762.9	867.6
878.8184	1356.6849	1765.6	869.5
878.9624	1358.5493	1782.45	887.95
879.1064	1360.4131	1806.75	911.95
879.2504	1362.276	1840.95	945.25
879.3944	1364.1383	1878.55	984.35
879.5384	1365.9998	1903.7	1004.5
879.6823	1367.8606	1877.7	981.7
879.8263	1369.7206	1868.35	973.5
879.9702	1371.5799	1871.6	973.4
880.1142	1373.4384	1858.1	958.9
880.2581	1375.2962	1842.75	944.25
880.402	1377.1533	1787.3	892.55
880.5459	1379.0096	1740.5	849.3
880.6898	1380.8652	1703.15	810.65
880.8337	1382.7201	1676.25	782.05
880.9776	1384.5742	1651.55	755.65
881.1215	1386.4275	1629.2	732.1
881.2653	1388.2802	1604.7	711.2
881.4092	1390.132	1600.65	706.45
881.553	1391.9832	1598.6	701.65
881.6968	1393.8336	1576.95	680.25
881.8406	1395.6832	1575.85	677.85
881.9844	1397.5322	1565.2	668.95
882.1282	1399.3803	1556.95	656.85
882.272	1401.2278	1549.55	653
882.4158	1403.0745	1538.9	642.55
882.5595	1404.9204	1525.8	631.4
882.7033	1406.7656	1520.55	624.4
882.847	1408.6101	1519.6	623.2
882.9908	1410.4538	1513.05	615.75
883.1345	1412.2968	1524.1	628.75
883.2782	1414.139	1516.1	618.8
883.4219	1415.9805	1531.45	636.1
883.5656	1417.8213	1536.4	635.5
883.7092	1419.6613	1551.05	655.3
883.8529	1421.5006	1584.75	689.95
883.9965	1423.3391	1620.05	724.95
884.1402	1425.1769	1676.5	780.35
884.2838	1427.0139	1748.9	853.2
884.4274	1428.8502	1837.15	941
884.571	1430.6858	1907.25	1009.95
884.7146	1432.5206	1933.8	1040.85
884.8582	1434.3547	1928.25	1034.4
885.0018	1436.188	1902.8	1009.65
885.1453	1438.0206	1892.1	996.95
885.2889	1439.8524	1885.5	987.95
885.4324	1441.6835	1884.8	988.8
885.5759	1443.5139	1884.65	985.95
885.7194	1445.3435	1884.35	988.4
885.8629	1447.1724	1880.6	984.65
886.0064	1449.0005	1877.05	983.35
886.1499	1450.8279	1874.65	979.5
886.2933	1452.6545	1867.45	973.2
886.4368	1454.4804	1866.65	973.75
886.5802	1456.3056	1859.3	959.5
886.7237	1458.13	1843.7	949.6
886.8671	1459.9536	1824.35	929.35
887.0105	1461.7766	1780.4	883.95
887.1539	1463.5987	1746.75	851.95
887.2972	1465.4202	1701.3	806.6
887.4406	1467.2409	1667	771.85
887.584	1469.0608	1631.7	739.35
887.7273	1470.88	1596.4	700.1
887.8706	1472.6984	1574.75	679.2
888.0139	1474.5161	1551.3	652.25
888.1572	1476.3331	1534.7	641.3
888.3005	1478.1493	1521.1	627.05
888.4438	1479.9648	1518.05	624.75
888.5871	1481.7795	1514.95	620.95
888.7303	1483.5935	1516.6	620.85
888.8736	1485.4067	1527.4	632.05
889.0168	1487.2192	1521.75	626.3
889.16	1489.031	1518.95	620.35
889.3032	1490.842	1508.65	615
889.4464	1492.6522	1516.65	622.6
889.5896	1494.4618	1512.25	616.2
889.7327	1496.2705	1512.15	618.1
889.8759	1498.0785	1503.8	608.4
890.019	1499.8858	1493.15	597.6
890.1622	1501.6924	1489.9	595.9
890.3053	1503.4981	1491.6	596.1
890.4484	1505.3032	1479.65	584.25
890.5914	1507.1075	1480.25	584.05
890.7345	1508.911	1460.1	566.5
890.8776	1510.7138	1455.65	561.35
891.0206	1512.5159	1456	558.1
891.1637	1514.3172	1439.1	545.75
891.3067	1516.1178	1436.25	542.7
891.4497	1517.9176	1444.9	548.8
891.5927	1519.7166	1427.8	537.1
891.7357	1521.515	1427.9	527.7
891.8786	1523.3126	1428.1	533.95
892.0216	1525.1094	1418.85	520.9
892.1645	1526.9055	1417.1	522.9
892.3074	1528.7008	1414.8	520.55
892.4503	1530.4954	1412.9	510.45
892.5932	1532.2893	1397.75	505.2
892.7361	1534.0824	1407.35	508.4
892.879	1535.8747	1401.8	509.25
893.0218	1537.6663	1402.35	508.4
893.1647	1539.4572	1395.85	500.85
893.3075	1541.2473	1403.7	509.8
893.4503	1543.0367	1400.4	507.6
893.5931	1544.8253	1400.4	503.2
893.7359	1546.6132	1404.8	509.65
893.8787	1548.4003	1419.65	520.25
894.0214	1550.1867	1421.4	521.25
894.1642	1551.9723	1425.45	526.1
894.3069	1553.7572	1433.65	539.15
894.4496	1555.5414	1453.95	561.65
894.5923	1557.3247	1478.1	586
894.735	1559.1074	1513	620.15
894.8777	1560.8893	1551.9	660.7
895.0204	1562.6705	1595.2	702.5
895.163	1564.4509	1621.85	733.05
895.3056	1566.2305	1629.25	737.05
895.4482	1568.0094	1645.8	756.4
895.5908	1569.7876	1633.5	744.05
895.7334	1571.565	1623.25	732
895.876	1573.3417	1634	741.7
896.0186	1575.1176	1637.35	745.1
896.1611	1576.8928	1648	757.55
896.3036	1578.6672	1663.3	776.95
896.4461	1580.4409	1695.8	807.05
896.5886	1582.2138	1733.85	841.85
896.7311	1583.986	1768.15	879.65
896.8736	1585.7575	1813.3	922.6
897.0161	1587.5282	1846.9	957.65
897.1585	1589.2981	1874.4	984.55
897.3009	1591.0673	1887.15	998.3
897.4433	1592.8358	1895.1	1006.65
897.5857	1594.6035	1886.7	994.15
897.7281	1596.3704	1892.35	1002.9
897.8705	1598.1366	1859.8	969.65
898.0128	1599.9021	1835.45	947.15
898.1551	1601.6668	1815.55	923.25
898.2975	1603.4308	1793.2	901.05
898.4398	1605.194	1803.2	908.7
898.5821	1606.9564	1814.75	926.7
898.7243	1608.7182	1879.4	992.4
898.8666	1610.4791	1958.1	1074.8
899.0088	1612.2394	2052	1168.2
899.1511	1613.9988	2156.65	1270.7
899.2933	1615.7576	2251.7	1365.75
899.4355	1617.5156	2289.65	1393.9
899.5776	1619.2728	2259.1	1369.05
899.7198	1621.0293	2190.8	1300.95
899.862	1622.785	2069.2	1175.6
900.0041	1624.54	1940.35	1049.85
900.1462	1626.2942	1817.3	926.1
900.2883	1628.0477	1711.7	820
900.4304	1629.8005	1627.45	736.6
900.5725	1631.5525	1560.45	673.1
900.7145	1633.3037	1507.25	619.4
900.8566	1635.0542	1467.75	581.9
900.9986	1636.804	1427.75	539.4
901.1406	1638.553	1467.5	517.3
901.2826	1640.3013	1387.25	498.75
901.4245	1642.0488	1370.35	481.7
901.5665	1643.7955	1354.2	467.4
901.7085	1645.5416	1340.8	453.55
901.8504	1647.2868	1331.75	445.65
901.9923	1649.0313	1324.05	433.8
902.1342	1650.7751	1324.95	432.9
902.2761	1652.5181	1317	428.85
902.4179	1654.2604	1315.8	427.2
902.5598	1656.0019	1314.95	429.45
902.7016	1657.7427	1332.75	446.05
902.8434	1659.4828	1348.8	459.85
902.9852	1661.222	1383.05	491.8
903.127	1662.9606	1421.15	533.8
903.2687	1664.6984	1442.85	554
903.4105	1666.4354	1453.55	562.65
903.5522	1668.1717	1443.95	553.2
903.6939	1669.9072	1395.8	505.85
903.8356	1671.642	1357.3	464.65
903.9773	1673.3761	1313.75	426
904.119	1675.1094	1288.1	398.8
904.2606	1676.8419	1264.15	375.45
904.4022	1678.5737	1251.05	362.4
904.5439	1680.3048	1239.6	349.2
904.6855	1682.0351	1232.45	343.95
904.827	1683.7646	1228.35	333.9
904.9686	1685.4934	1218.8	329.15
905.1101	1687.2215	1212.2	322.55
905.2517	1688.9488	1202.95	313.75
905.3932	1690.6754	1208	320.65
905.5347	1692.4012	1203.4	312.85
905.6761	1694.1263	1208.65	319.55
905.8176	1695.8506	1202.85	310.7
905.9591	1697.5742	1196.85	308.05
906.1005	1699.297	1195.1	308.2
906.2419	1701.0191	1189.65	302.5
906.3833	1702.7404	1187.6	301.65
906.5246	1704.461	1180.5	290
906.666	1706.1808	1182.55	293.2
906.8073	1707.8999	1180.45	291.75
906.9487	1709.6182	1173.45	286
907.09	1711.3358	1177.6	289.1
907.2313	1713.0527	1175.25	291.25
907.3725	1714.7688	1178.7	284.85
907.5138	1716.4841	1174.4	283.4
907.655	1718.1987	1178.3	286.35
907.7962	1719.9126	1171.1	284.8
907.9374	1721.6257	1172.7	284.95
908.0786	1723.338	1164.5	278.3
908.2198	1725.0496	1168.6	281.9
908.3609	1726.7605	1164.85	274.45
908.502	1728.4706	1166	277.85
908.6431	1730.18	1170.4	280.4
908.7842	1731.8886	1155.7	270.3
908.9253	1733.5964	1186.45	277.4
909.0664	1735.3036	1161.35	273.05
909.2074	1737.0099	1158.8	271.5
909.3484	1738.7156	1153.4	268.3
909.4894	1740.4204	1159.95	269.8
909.6304	1742.1246	1156.8	268.1
909.7714	1743.8279	1155.2	268.35
909.9123	1745.5306	1158.05	269.6
910.0532	1747.2325	1150.05	263.2
910.1941	1748.9336	1149.45	260.1
910.335	1750.634	1149.65	261.65
910.4759	1752.3336	1147.45	262.3
910.6168	1754.0325	1146.9	263.85
910.7576	1755.7307	1144.45	259.2
910.8984	1757.4281	1148.9	261.2
911.0392	1759.1247	1161.15	262.45
911.18	1760.8206	1154.35	261.8
911.3208	1762.5158	1149.4	256.5
911.4615	1764.2102	1145.4	259.1
911.6022	1765.9039	1147.65	261.15
911.7429	1767.5968	1141.95	256.4
911.8836	1769.289	1145	259.75
912.0243	1770.9804	1142.35	252.7
912.1649	1772.6711	1139.9	252.85
912.3056	1774.361	1139.65	248.7
912.4462	1776.0502	1142.3	253.7
912.5868	1777.7386	1146.5	255.15
912.7274	1779.4263	1140.6	255.3
912.8679	1781.1132	1135.65	249.85
913.0084	1782.7994	1134.3	245.9
913.149	1784.4849	1136.75	249.65
913.2895	1786.1696	1153.85	249.05
913.4299	1787.8535	1127.3	242.55
913.5704	1789.5367	1134.9	248.7
913.7108	1791.2192	1134.75	250.2
913.8513	1792.9009	1155.25	242.75
913.9917	1794.5818	1132.65	243.6
914.132	1796.2621	1131.95	245.6
914.2724	1797.9415	1129.35	241.7
914.4128	1799.6202	1125.75	239.4
914.5531	1801.2982	1128	240.1
914.6934	1802.9755	1134.05	245.95
914.8337	1804.6519	1129.4	240.45
914.9739	1806.3277	1126.7	241.15
915.1142	1808.0027	1123	238
915.2544	1809.6769	1122.5	234.7
915.3946	1811.3504	1126.4	242.6
915.5348	1813.0231	1122.95	238.05
915.675	1814.6951	1122.15	237.5
915.8151	1816.3664	1122.2	234.2
915.9553	1818.0369	1121.1	234.3
916.0954	1819.7067	1119.55	232.25
916.2355	1821.3757	1121.2	231.25
916.3755	1823.044	1124.4	235.15
916.5156	1824.7115	1118.15	229.35
916.6556	1826.3783	1121	234.45
916.7956	1828.0443	1112.6	226.95
916.9356	1829.7096	1117.65	230.65
917.0756	1831.3741	1120.6	229.05
917.2155	1833.0379	1116.75	232.5
917.3555	1834.701	1113.4	225.7
917.4954	1836.3633	1117.35	232.85
917.6353	1838.0248	1113.3	227.55
917.7751	1839.6856	1118	233.2
917.915	1841.3457	1114.3	229.05
918.0548	1843.005	1114.3	226.35
918.1946	1844.6636	1108	223.1
918.3344	1846.3214	1109.45	221.4
918.4742	1847.9785	1106.5	220.7
918.6139	1849.6349	1110.85	223.2
918.7537	1851.2904	1122.5	226.05
918.8934	1852.9453	1109.15	220.9
919.0331	1854.5994	1114.4	224.1
919.1727	1856.2528	1115.85	223.4
919.3124	1857.9054	1106.5	219.2
919.452	1859.5572	1106.25	221.95
919.5916	1861.2083	1104.65	217.5
919.7312	1862.8587	1105.65	217.9
919.8708	1864.5084	1112.05	223.3
920.0103	1866.1572	1103.45	215.55
920.1498	1867.8054	1104.45	217
920.2893	1869.4528	1106.1	215.95
920.4288	1871.0994	1105.4	216.65
920.5683	1872.7453	1108.35	221
920.7077	1874.3905	1111.05	214.15
920.8471	1876.0349	1103.5	214
920.9865	1877.6786	1099.15	210.7
921.1259	1879.3215	1107.55	221.8
921.2653	1880.9637	1101.15	213.7
921.4046	1882.6051	1099.55	213.85
921.5439	1884.2458	1097.75	210.4
921.6832	1885.8858	1097.65	211.5
921.8225	1887.525	1101.15	214.45
921.9617	1889.1634	1097.45	211.65
922.101	1890.8011	1097.95	209.4
922.2402	1892.4381	1094.7	206.5
922.3794	1894.0743	1094	210
922.5185	1895.7098	1092.45	204.35
922.6577	1897.3446	1095.5	208.9
922.7968	1898.9786	1095	203.55
922.9359	1900.6118	1089.2	202.75
923.075	1902.2443	1093.55	206.6
923.214	1903.8761	1091.75	204.95
923.3531	1905.5071	1091.3	201.75
923.4921	1907.1374	1090.2	202.55
923.6311	1908.7669	1085.1	198.45
923.77	1910.3957	1091.5	204.55
923.909	1912.0237	1089.95	203.25
924.0479	1913.651	1083.8	195.2
924.1868	1915.2776	1089.5	205.4
924.3257	1916.9034	1085.6	198.45
924.4646	1918.5285	1087.05	201
924.6034	1920.1528	1083.65	197.7
924.7422	1921.7764	1085.15	198.4
924.881	1923.3992	1082.3	196.65
925.0198	1925.0213	1083.7	195.9
925.1586	1926.6427	1078.7	192.55
925.2973	1928.2633	1295.9	194.6
925.436	1929.8832	1084.55	194.45
925.5747	1931.5023	1082.25	195.4
925.7134	1933.1207	1082.5	193.7
925.852	1934.7383	1076.95	190.8
925.9906	1936.3552	1078.8	191.45
926.1292	1937.9714	1076.5	190.35
926.2678	1939.5868	1076.6	185.2
926.4064	1941.2015	1077.8	190.95
926.5449	1942.8154	1080.35	193.5
926.6834	1944.4286	1075.55	185.35
926.8219	1946.041	1103.45	191.4
926.9604	1947.6528	1084.35	194
927.0988	1949.2637	1075.25	187.2
927.2372	1950.8739	1073.85	187.2
927.3756	1952.4834	1072.1	185.4
927.514	1954.0921	1072.8	189.2
927.6523	1955.7001	1071.8	182.85
927.7907	1957.3074	1069.75	185.25
927.929	1958.9139	1064.55	177.45
928.0673	1960.5197	1070.2	182.6
928.2055	1962.1247	1069.3	184.7
928.3438	1963.729	1065.75	180.85
928.482	1965.3325	1089.55	184.25
928.6202	1966.9353	1063.55	179.35
928.7584	1968.5374	1067.8	181.8
928.8965	1970.1387	1064.3	178.15
929.0346	1971.7393	1063.6	178.8
929.1727	1973.3392	1059.65	173.7
929.3108	1974.9383	1058	175.45
929.4489	1976.5366	1059.8	176.15
929.5869	1978.1342	1062.6	178.5
929.7249	1979.7311	1062.95	177.9
929.8629	1981.3273	1059.4	175.45
930.0009	1982.9227	1061.1	175.35
930.1388	1984.5173	1056.2	174
930.2767	1986.1112	1058.8	175.1
930.4146	1987.7044	1057.1	175.75
930.5525	1989.2968	1057.45	174.05
930.6904	1990.8885	1058.3	171.65
930.8282	1992.4795	1057.4	174.8
930.966	1994.0697	1055.65	173.2
931.1038	1995.6592	1050.5	167.55
931.2415	1997.2479	1055.3	171.65
931.3793	1998.8359	1052.65	169.55
931.517	2000.4232	1051.15	168.85
931.6547	2002.0097	1048.55	170.3
931.7923	2003.5955	1053.8	173.45
931.93	2005.1805	1056.2	173.35
932.0676	2006.7648	1051.15	170.3
932.2052	2008.3484	1050.4	169.35
932.3427	2009.9312	1053	173.45
932.4803	2011.5133	1048.1	169.9
932.6178	2013.0946	1044.45	164
932.7553	2014.6752	1048.8	166.25
932.8928	2016.2551	1050.1	168.25
933.0302	2017.8342	1049.9	168.35
933.1676	2019.4126	1049.75	168.4
933.305	2020.9902	1046.3	165.8
933.4424	2022.5672	1045.65	166
933.5798	2024.1433	1051.2	168.9
933.7171	2025.7188	1041.4	163.2
933.8544	2027.2935	1046.5	164.9
933.9917	2028.8674	1045.45	166.2
934.129	2030.4406	1042.45	163.15
934.2662	2032.0131	1045	165.7
934.4034	2033.5849	1046.65	164.5
934.5406	2035.1559	1041.85	164.45
934.6778	2036.7261	1041.6	161.95
934.8149	2038.2957	1045.85	164.8
934.952	2039.8645	1042.3	160.25
935.0891	2041.4325	1042.7	157.55
935.2262	2042.9998	1043.75	164.1
935.3632	2044.5664	1038.45	156.6
935.5002	2046.1323	1039	160.15
935.6372	2047.6974	1040.4	160.4
935.7742	2049.2617	1038.35	158.55
935.9111	2050.8254	1045.3	159.75
936.048	2052.3883	1042.45	160.75
936.1849	2053.9504	1039	157.2
936.3218	2055.5118	1042.7	160.7
936.4586	2057.0725	1041.6	158.15
936.5955	2058.6325	1042.15	161.35
936.7323	2060.1917	1037.05	157.05
936.869	2061.7502	1039.7	156.8
937.0058	2063.3079	1039.5	160.7
937.1425	2064.8649	1037.45	154.85
937.2792	2066.4212	1037.4	156.2
937.4159	2067.9767	1039.95	158.75
937.5525	2069.5315	1033.6	153.65
937.6891	2071.0856	1034.75	154.75
937.8257	2072.6389	1038.45	157.15
937.9623	2074.1915	1035.9	159.25
938.0989	2075.7433	1040	158.4
938.2354	2077.2945	1037.95	159.6
938.3719	2078.8448	1038.25	157.45
938.5084	2080.3945	1035.15	153.65
938.6448	2081.9434	1032.8	153.35
938.7812	2083.4916	1037.95	156.4
938.9176	2085.039	1036.15	150.85
939.054	2086.5857	1038.4	151.4
939.1903	2088.1317	1036.35	151.65
939.3267	2089.677	1038.9	154.7
939.463	2091.2215	1034.05	148.15
939.5992	2092.7652	1038.95	152.3
939.7355	2094.3083	1037.4	153.6
939.8717	2095.8506	1036.55	156.2
940.0079	2097.3921	1035.6	154.75
940.1441	2098.933	1032.75	148.7
940.2802	2100.4731	1030.5	148.55
940.4163	2102.0124	1051.15	150.5
940.5524	2103.5511	1035.25	153
940.6885	2105.089	1033.65	150.3
940.8245	2106.6261	1033.9	153.15
940.9606	2108.1626	1032.65	147.25
941.0965	2109.6983	1058.25	145.9
941.2325	2111.2332	1034.4	151.95
941.3684	2112.7675	1033.55	148.2
941.5044	2114.301	1033.6	149.45
941.6403	2115.8337	1032.1	150
941.7761	2117.3657	1031.7	149.05
941.912	2118.897	1031.05	147.85
942.0478	2120.4276	1034.8	145.2
942.1835	2121.9575	1029.25	146.8
942.3193	2123.4866	1044.55	148.4
942.455	2125.0149	1034.05	147.45
942.5907	2126.5426	1029.4	147.75
942.7264	2128.0695	1032.8	148.45
942.8621	2129.5956	1022.1	143.85
942.9977	2131.1211	1029.8	145.1
943.1333	2132.6458	1026.4	145.4
943.2689	2134.1698	1029.15	145.95
943.4044	2135.693	1030.15	143.35
943.54	2137.2155	1032	144.5
943.6755	2138.7373	1029.05	148.05
943.8109	2140.2584	1022.65	141.65
943.9464	2141.7787	1028	143.05
944.0818	2143.2983	1025.6	147.1
944.2172	2144.8171	1021.2	144.2
944.3526	2146.3353	1026.95	147.05
944.4879	2147.8527	1023.75	144.25
944.6232	2149.3693	1026.35	141.6
944.7585	2150.8853	1022.7	141.35
944.8938	2152.4005	1029.6	145.7
945.029	2153.9149	1027.85	145.95
945.1642	2155.4287	1021.55	139.95
945.2994	2156.9417	1022.25	138.9
945.4346	2158.454	1024.55	142.65
945.5697	2159.9655	1015.9	136.55
945.7048	2161.4764	1023.5	142.15
945.8399	2162.9865	1020.95	139.85
945.9749	2164.4958	1020.75	138.5
946.1099	2166.0045	1025.05	142.35
946.2449	2167.5124	1020	138.45
946.3799	2169.0195	1025.15	145.4
946.5148	2170.526	1017.55	134
946.6498	2172.0317	1023.05	139.75
946.7846	2173.5367	1024.05	140.1
946.9195	2175.0409	1017.1	135.5
947.0543	2176.5445	1019.15	137.35
947.1891	2178.0473	1020.45	137.85
947.3239	2179.5494	1026.25	139.8
947.4587	2181.0507	1022.8	142.3
947.5934	2182.5513	1018	136
947.7281	2184.0512	1022.15	139.1
947.8628	2185.5504	1018.6	135.4
947.9974	2187.0488	1015.3	135
948.132	2188.5465	1015.55	134.75
948.2666	2190.0435	1017.1	135.9
948.4012	2191.5397	1017	134.65
948.5357	2193.0353	1016.25	135.5
948.6702	2194.5301	1020.6	137.9
948.8047	2196.0241	1016.35	134.15
948.9392	2197.5175	1016.2	132.65
949.0736	2199.0101	1020.3	133
949.208	2200.502	1011.75	130.3
949.3424	2201.9931	1015.95	135.6
949.4767	2203.4835	1013.35	132.75
949.611	2204.9733	1026.9	130.2
949.7453	2206.4622	1013.4	134.85
949.8796	2207.9505	1014.4	132.65
950.0138	2209.438	1009.6	132.55
950.148	2210.9248	1010.85	129.9
950.2822	2212.4109	1013.4	131.75
950.4164	2213.8962	1015.45	129.1
950.5505	2215.3809	1014.2	129.85
950.6846	2216.8648	1013.05	127.05
950.8186	2218.3479	1014.65	127.9
950.9527	2219.8304	1017.5	131.35
951.0867	2221.3121	1014.55	128.15
951.2207	2222.7931	1011	127.7
951.3546	2224.2733	1012.75	129.85
951.4886	2225.7529	1010.6	127.05
951.6225	2227.2317	1012.9	127.25
951.7563	2228.7098	1005.25	124.35
951.8902	2230.1872	1005.45	125.05
952.024	2231.6638	1007.4	127.4
952.1578	2233.1397	1008.9	123.85
952.2916	2234.6149	1005.3	126.95
952.4253	2236.0894	1005.3	123.2
952.559	2237.5632	1013.35	120.5
952.6927	2239.0362	1007	124.55
952.8263	2240.5085	1005.55	124.15
952.9599	2241.9801	1005.4	121.65
953.0935	2243.4509	1006.05	124.05
953.2271	2244.921	1003.1	117.8
953.3606	2246.3904	1007.45	123.35
953.4941	2247.8591	1004	121.6
953.6276	2249.3271	1003.4	121.85
953.7611	2250.7943	1008.1	124.85
953.8945	2252.2608	1001	119.65
954.0279	2253.7266	1003	121.9
954.1612	2255.1917	1000.75	119.45
954.2946	2256.656	1003.85	121.4
954.4279	2258.1197	999.85	121.55
954.5612	2259.5826	1001.25	118.6
954.6944	2261.0447	1000.3	117.1
954.8276	2262.5062	1000.85	116.45
954.9608	2263.9669	1000.7	116.85
955.094	2265.4269	1000.35	119
955.2271	2266.8862	998.45	117.55
955.3602	2268.3448	1000.05	118.35
955.4933	2269.8026	999.55	116.5
955.6264	2271.2598	998.5	118.9
955.7594	2272.7162	991.8	110.3
955.8924	2274.1719	997.15	116.05
956.0253	2275.6268	998.35	113.95
956.1583	2277.0811	1001.55	120.8
956.2912	2278.5346	994.7	112.15
956.4241	2279.9874	995.9	114.65
956.5569	2281.4395	994.15	113.4
956.6897	2282.8908	998.8	112.5
956.8225	2284.3414	999.35	115.55
956.9553	2285.7914	995.15	111.9
957.088	2287.2406	997.4	114.9
957.2207	2288.689	993.65	111.2
957.3534	2290.1368	994.85	110.7
957.486	2291.5838	1001.2	116.1
957.6186	2293.0302	997.05	112.1
957.7512	2294.4758	991.85	109.85
957.8838	2295.9206	1000.05	116.65
958.0163	2297.3648	994.45	113.95
958.1488	2298.8082	995.25	110.7
958.2813	2300.251	994.8	112.2
958.4137	2301.693	994.2	107.5
958.5461	2303.1343	994.55	112.2
958.6785	2304.5748	991.5	108
958.8108	2306.0147	993.1	113.75
958.9432	2307.4538	994	112.05
959.0754	2308.8922	992.45	115.3
959.2077	2310.3299	991.05	109.85
959.3399	2311.7669	992.25	110.75
959.4721	2313.2031	990	108.85
959.6043	2314.6387	997.15	115.1
959.7365	2316.0735	990.6	107.5
959.8686	2317.5076	993.55	111.4
960.0006	2318.941	989.2	106.35
960.1327	2320.3737	991.55	109.2
960.2647	2321.8056	995.1	109.25
960.3967	2323.2369	992.6	110.6
960.5287	2324.6674	993.9	108.1
960.6606	2326.0972	997.75	114.8
960.7925	2327.5263	999.5	116.75
960.9244	2328.9547	1002.85	120.9
961.0562	2330.3823	1001.25	119.9
961.1881	2331.8092	998.4	111.85
961.3198	2333.2355	991.8	108.5
961.4516	2334.661	994.35	111.25
961.5833	2336.0858	992.15	107.1
961.715	2337.5098	990.05	109.35
961.8467	2338.9332	988.9	104.95
961.9783	2340.3558	987.5	102.1
962.1099	2341.7778	986.5	105.2
962.2415	2343.199	985.7	101.3
962.373	2344.6195	986.8	106.3
962.5045	2346.0393	986.25	104.1
962.636	2347.4583	988.85	107.45
962.7675	2348.8767	987.95	105.15
962.8989	2350.2943	987.4	102.2
963.0303	2351.7113	987.6	103.4
963.1617	2353.1275	985.1	100.6
963.293	2354.543	1008.4	100.35
963.4243	2355.9578	985.55	102.3
963.5556	2357.3718	982.85	100.65
963.6868	2358.7852	986.95	103.45
963.818	2360.1978	985.3	102.7
963.9492	2361.6098	983.8	101.1
964.0803	2363.021	987.55	102.05
964.2114	2364.4315	982.25	100.5
964.3425	2365.8413	991.25	102.35
964.4736	2367.2504	978.9	95.55
964.6046	2368.6587	981.7	99.45
964.7356	2370.0664	984.35	101.75
964.8666	2371.4733	983.6	99.1
964.9975	2372.8795	980.75	97.6
965.1284	2374.285	981.9	96.85
965.2593	2375.6899	981.15	100.1
965.3901	2377.0939	980.95	98.2
965.5209	2378.4973	977.45	95.05
965.6517	2379.9	981.8	97.95
965.7825	2381.3019	978.75	95.75
965.9132	2382.7032	979.85	97.55
966.0439	2384.1037	974.6	95.9
966.1745	2385.5035	979.55	99.8
966.3051	2386.9027	977.6	95.25
966.4357	2388.3011	981.45	94.65
966.5663	2389.6987	980.75	97.4
966.6968	2391.0957	977.75	94.05
966.8273	2392.492	977.45	95.1
966.9578	2393.8876	978.45	95.15
967.0882	2395.2824	975.45	90.65
967.2186	2396.6765	974.6	89.9
967.349	2398.07	977.15	94.55
967.4793	2399.4627	979.15	93.85
967.6097	2400.8547	976.05	90.05
967.7399	2402.246	981.15	91.45
967.8702	2403.6366	976.2	91.05
968.0004	2405.0265	974.3	92.3
968.1306	2406.4156	980.8	91.65
968.2607	2407.8041	978.05	88.35
968.3909	2409.1918	979.15	92.25
968.521	2410.5789	977.1	92.7
968.651	2411.9652	977.8	90.3
968.781	2413.3508	976.5	92.45
968.911	2414.7358	974.7	88.5
969.041	2416.12	971.9	88.15
969.1709	2417.5035	971.75	86.2
969.3008	2418.8863	975.05	90.5
969.4307	2420.2684	975.55	90.65
969.5606	2421.6497	974.75	89.15
969.6904	2423.0304	973.6	91.8
969.8201	2424.4104	973.25	88.7
969.9499	2425.7896	975.6	84.15
970.0796	2427.1682	970.5	87.45
970.2093	2428.546	971.6	86.5
970.3389	2429.9232	972.2	85.7
970.4685	2431.2996	970.3	85.2
970.5981	2432.6753	971.1	85.45
970.7277	2434.0503	970.7	86.2
970.8572	2435.4246	969.95	85.75
970.9867	2436.7982	972.75	87.9
971.1161	2438.1711	966.85	83.45
971.2456	2439.5433	970.35	83.4
971.375	2440.9148	971	85.95
971.5043	2442.2856	967.5	83.8
971.6336	2443.6557	970.2	85.45
971.7629	2445.025	966.7	80.8
971.8922	2446.3937	966.9	81.65
972.0214	2447.7617	966.15	81.15
972.1506	2449.1289	964.7	80.7
972.2798	2450.4955	969.05	80.65
972.4089	2451.8613	966.45	84.45
972.538	2453.2265	969.45	85.85
972.6671	2454.5909	967.2	82.95
972.7961	2455.9546	966.85	83.55
972.9251	2457.3177	964.7	81.6
973.0541	2458.68	963.2	76.05
973.1831	2460.0416	967.1	84.25
973.312	2461.4025	967	82.4
973.4408	2462.7627	977.2	82.95
973.5697	2464.1222	962.9	81.15
973.6985	2465.4811	964.75	82.15
973.8273	2466.8392	964.45	81.55
973.956	2468.1966	967.9	81.7
974.0847	2469.5533	966.45	79.3
974.2134	2470.9093	962.2	78.65
974.3421	2472.2645	965.85	81.2
974.4707	2473.6191	961.8	79.25
974.5993	2474.973	964.75	84.15
974.7278	2476.3262	963.75	78.4
974.8563	2477.6787	963.35	80.7
974.9848	2479.0305	960.35	78.75
975.1132	2480.3816	966.8	81.95
975.2417	2481.7319	962.55	78.4
975.37	2483.0816	963	78.7
975.4984	2484.4306	964.25	80
975.6267	2485.7789	962.9	80.5
975.755	2487.1264	964.1	81.25
975.8833	2488.4733	961.75	81.4
976.0115	2489.8195	968.7	76.75
976.1397	2491.165	969.4	84.15
976.2678	2492.5097	963.65	79
976.3959	2493.8538	958.75	75.5
976.524	2495.1972	963.75	81.75
976.6521	2496.5398	962.25	78.7
976.7801	2497.8818	959.6	73.2
976.9081	2499.2231	961.35	78.75
977.036	2500.5637	964.3	79.55
977.164	2501.9035	963.6	79.9
977.2918	2503.2427	964.1	76.8
977.4197	2504.5812	958	73.9
977.5475	2505.919	961.3	75.4
977.6753	2507.256	960.2	78.25
977.8031	2508.5924	959.1	76
977.9308	2509.9281	963.3	73.25
978.0585	2511.2631	961.3	79.65
978.1861	2512.5974	957.55	74.1
978.3137	2513.9309	956.15	75.95
978.4413	2515.2638	983.55	74.05
978.5689	2516.596	960.9	78.25
978.6964	2517.9275	959.35	75.7
978.8239	2519.2583	957.75	74.85
978.9513	2520.5884	960.45	75.65
979.0788	2521.9178	955.55	73.75
979.2062	2523.2465	952.05	68.5
979.3335	2524.5745	955	72.7
979.4608	2525.9018	951.9	68.6
979.5881	2527.2284	950.3	68.6
979.7154	2528.5543	953.75	72
979.8426	2529.8796	956.45	72.75
979.9698	2531.2041	955.8	72.5
980.0969	2532.5279	951.1	70.4
980.224	2533.851	955.05	70.25
980.3511	2535.1735	953.9	70.5
980.4781	2536.4952	956.2	73.5
980.6052	2537.8163	956.9	72.35
980.7321	2539.1366	954.25	73.9
980.8591	2540.4562	953.75	68.6
980.986	2541.7752	951.35	69.8
981.1129	2543.0935	954.05	70.5
981.2397	2544.411	953.5	68.55
981.3665	2545.7279	951.5	70.45
981.4933	2547.0441	955.5	74
981.62	2548.3596	954	68.2
981.7467	2549.6744	955.95	73.65
981.8734	2550.9885	961.9	71.35
982.0001	2552.3019	950.6	68.35
982.1267	2553.6146	955.15	72.05
982.2532	2554.9266	952.05	69.5
982.3798	2556.2379	954.5	71.25
982.5063	2557.5485	952.25	70.7
982.6327	2558.8585	956.6	67.45
982.7592	2560.1677	955.5	68.3
982.8856	2561.4762	952.25	70.7
983.0119	2562.7841	955.2	69.35
983.1383	2564.0913	949.9	68.15
983.2646	2565.3977	949.1	68.95
983.3908	2566.7035	952.15	70
983.517	2568.0086	954.6	70.35
983.6432	2569.313	948.65	64.75
983.7694	2570.6167	954.1	65.3
983.8955	2571.9197	950.15	67.8
984.0216	2573.222	954.45	68
984.1476	2574.5236	951.35	67.8
984.2737	2575.8246	955	69.45
984.3996	2577.1248	952.05	65.4
984.5256	2578.4244	951.1	68.5
984.6515	2579.7232	950.8	69
984.7774	2581.0214	978.75	70.35
984.9032	2582.3189	949.5	68.6
985.029	2583.6157	954.3	65.3
985.1548	2584.9118	948.8	67.05
985.2806	2586.2072	951	67.4
985.4063	2587.5019	950.1	68.1
985.5319	2588.7959	950.25	66.9
985.6576	2590.0893	951.8	67.6
985.7832	2591.3819	949.8	69.15
985.9087	2592.6739	952.1	68.15
986.0343	2593.9652	952.1	67.55
986.1597	2595.2557	948.35	65.55
986.2852	2596.5456	951.65	67
986.4106	2597.8348	948.3	65.6
986.536	2599.1234	948.75	69
986.6614	2600.4112	949.5	65.3
986.7867	2601.6983	955.95	70.6
986.912	2602.9848	954.5	72
987.0372	2604.2705	957.4	65.65
987.1624	2605.5556	950.25	66.85
987.2876	2606.84	945.9	63.35
987.4128	2608.1237	948.05	63.55
987.5379	2609.4067	948.8	66.5
987.6629	2610.689	955.3	64.2
987.788	2611.9707	952.3	65.5
987.913	2613.2516	951.85	65.2
988.0379	2614.5319	949.3	66.85
988.1629	2615.8115	948.5	64.25
988.2878	2617.0903	948.65	64.6
988.4126	2618.3685	947.45	64.7
988.5375	2619.6461	947.1	64.65
988.6622	2620.9229	949.55	67.1
988.787	2622.199	946.05	62.45
988.9117	2623.4745	948.25	65.65
989.0364	2624.7493	941.35	58.45
989.161	2626.0234	947.7	66.85
989.2857	2627.2968	944.05	60.2
989.4102	2628.5695	946.6	65
989.5348	2629.8415	943.1	60.8
989.6593	2631.1128	944.35	61.7
989.7837	2632.3835	944.4	62.25
989.9082	2633.6535	945.05	62.75
990.0326	2634.9228	941.9	58.95
990.1569	2636.1914	946.5	66.55
990.2812	2637.4593	944.75	60.5
990.4055	2638.7265	942.85	59.4
990.5298	2639.9931	941.05	59.15
990.654	2641.259	945.5	62.4
990.7782	2642.5242	941.85	59.2
990.9023	2643.7887	943.7	60.3
991.0264	2645.0525	940.85	58.15
991.1505	2646.3156	940.55	57.7
991.2745	2647.5781	937.35	56.75
991.3985	2648.8398	939.1	58
991.5225	2650.1009	978.95	58.25
991.6464	2651.3613	942.3	59.15
991.7703	2652.6211	940.65	59.9
991.8942	2653.8801	938.45	56.95
992.018	2655.1385	947	61.45
992.1418	2656.3961	935.75	52.65
992.2655	2657.6531	941.25	57.15
992.3892	2658.9094	938.55	57.1
992.5129	2660.1651	940.5	60.35
992.6366	2661.42	942.25	62
992.7602	2662.6743	941.25	59.8
992.8837	2663.9279	942.7	61.55
993.0073	2665.1808	940.25	56
993.1307	2666.433	942.05	57.95
993.2542	2667.6846	939.45	57.25
993.3776	2668.9354	944.5	57.5
993.501	2670.1856	941.1	59.9
993.6244	2671.4351	942.35	61.05
993.7477	2672.6839	942.4	57.75
993.8709	2673.9321	941.75	59.95
993.9942	2675.1795	940.85	59.75
994.1174	2676.4263	940.95	59.2
994.2405	2677.6724	940.9	59.4
994.3637	2678.9179	940.25	58.4
994.4868	2680.1626	940.2	58.85
994.6098	2681.4067	941.45	59.8
994.7328	2682.6501	938.25	54.9
994.8558	2683.8928	939.6	57
994.9788	2685.1348	942.35	60.35
995.1017	2686.3761	939.9	58.95
995.2245	2687.6168	937.9	55.35
995.3474	2688.8568	935.85	54.25
995.4702	2690.0961	932.25	51.1
995.5929	2691.3348	935.2	52.95
995.7156	2692.5727	936.9	55.4
995.8383	2693.81	934.4	53.1
995.961	2695.0466	933.8	53.2
996.0836	2696.2826	939	54.8
996.2062	2697.5178	941.25	56.1
996.3287	2698.7524	936.85	54.35
996.4512	2699.9863	940.35	56.5
996.5737	2701.2195	938.25	59.85
996.6961	2702.452	938.2	54.7
996.8185	2703.6839	936.4	54.65
996.9408	2704.9151	939.2	59.05
997.0631	2706.1456	938.45	56.45
997.1854	2707.3755	936.6	54.2
997.3077	2708.6046	939.05	54.4
997.4299	2709.8331	937.7	54.95
997.552	2711.0609	940.2	58.85
997.6742	2712.2881	940.85	57.9
997.7963	2713.5145	941.55	60.05
997.9183	2714.7403	937.3	56.7
998.0403	2715.9654	939.6	57.4
998.1623	2717.1899	954.75	58.55
998.2842	2718.4136	942.55	60.7
998.4062	2719.6367	945.75	63.7
998.528	2720.8591	954.85	64.6
998.6498	2722.0809	948.5	65.15
998.7716	2723.3019	947.25	62.9
998.8934	2724.5223	946.15	63.45
999.0151	2725.7421	945.9	63.35
999.1368	2726.9611	944.5	59.8
999.2584	2728.1795	950	64.75
999.38	2729.3972	942.45	62.45
999.5016	2730.6142	953.15	58.4
999.6231	2731.8306	943.2	61.8
999.7446	2733.0462	942.3	60.7
999.8661	2734.2612	940.85	54.15
999.9875	2735.4756	939.15	56
1000.1089	2736.6892	937.75	54.85
1000.2302	2737.9022	935.4	54.75
1000.3515	2739.1145	932.95	49.9
1000.4728	2740.3262	940.85	50.95
1000.594	2741.5372	932.6	52.55
1000.7152	2742.7475	935.95	54.45
1000.8363	2743.9571	933.75	50.8
1000.9575	2745.1661	936.3	49.35
1001.0785	2746.3744	932.9	51.15
1001.1996	2747.582	928.7	47.1
1001.3206	2748.7889	931.65	48.85
1001.4415	2749.9952	929.25	49.65
1001.5625	2751.2008	931.9	49.4
1001.6833	2752.4057	931.65	48
1001.8042	2753.61	928.7	48.05
1001.925	2754.8136	927.9	44.55
1002.0458	2756.0165	926.25	43.95
1002.1665	2757.2188	927.3	49.55
1002.2872	2758.4204	924	43.9
1002.4078	2759.6213	928.05	44.35
1002.5285	2760.8215	934	48.95
1002.649	2762.0211	932.15	50.3
1002.7696	2763.22	929.75	44.7
1002.8901	2764.4182	930.3	48.3
1003.0106	2765.6158	926.25	44.05
1003.131	2766.8127	927.45	46.25
1003.2514	2768.009	928.1	45.75
1003.3717	2769.2045	926.8	46.4
1003.492	2770.3994	926	42.6
1003.6123	2771.5936	928.1	47.25
1003.7325	2772.7872	925.2	43.75
1003.8527	2773.9801	926	44.1
1003.9729	2775.1723	941.25	42.8
1004.093	2776.3639	924.2	43.5
1004.2131	2777.5548	926.1	42
1004.3331	2778.745	922.2	39.65
1004.4531	2779.9346	924.05	43.95
1004.5731	2781.1235	926.4	44.1
1004.693	2782.3117	922.4	41.65
1004.8129	2783.4992	921.9	42.75
1004.9328	2784.6861	923.55	42.7
1005.0526	2785.8723	925.9	45.25
1005.1723	2787.0579	925.85	44.85
1005.2921	2788.2428	923.25	40.7
1005.4118	2789.427	922.75	43.85
1005.5314	2790.6106	923.55	42.65
1005.651	2791.7935	924.4	41.15
1005.7706	2792.9757	921.65	42.75
1005.8902	2794.1573	923.35	39.6
1006.0097	2795.3382	924.5	44.85
1006.1291	2796.5184	926.45	47.4
1006.2485	2797.698	925.1	41.05
1006.3679	2798.8769	923.65	45.15
1006.4873	2800.0551	924.25	42.4
1006.6066	2801.2327	929.8	48.25
1006.7258	2802.4096	929.45	50.1
1006.8451	2803.5859	926.4	46.4
1006.9642	2804.7615	928.6	48.8
1007.0834	2805.9364	926.5	46.15
1007.2025	2807.1106	927.9	47.25
1007.3216	2808.2842	928.15	47.3
1007.4406	2809.4572	931.45	50.9
1007.5596	2810.6294	933.85	53.1
1007.6785	2811.801	931.3	53.4
1007.7975	2812.972	932.95	54.3
1007.9163	2814.1423	936.7	56.2
1008.0352	2815.3119	939.75	59.2
1008.154	2816.4808	940.3	59.9
1008.2727	2817.6491	944.95	62.6
1008.3914	2818.8167	946.5	66.95
1008.5101	2819.9837	953.95	69.3
1008.6288	2821.15	954.9	75.25
1008.7474	2822.3157	959.05	80.2
1008.8659	2823.4807	970.15	90.35
1008.9844	2824.645	976.9	93.6
1009.1029	2825.8086	983.95	103.65
1009.2214	2826.9716	987.3	108.2
1009.3398	2828.134	991.5	110.1
1009.4581	2829.2957	1005.8	126.2
1009.5764	2830.4567	1013.6	135.2
1009.6947	2831.617	1020.8	141.7
1009.813	2832.7767	1021.25	142.55
1009.9312	2833.9358	1017.65	137.75
1010.0493	2835.0941	1020.45	138.4
1010.1675	2836.2519	1013.85	133.4
1010.2855	2837.4089	1011.75	129.85
1010.4036	2838.5653	1003.75	124
1010.5216	2839.7211	1001.8	123.95
1010.6396	2840.8761	1006.4	125.6
1010.7575	2842.0306	997.65	118.05
1010.8754	2843.1843	995.4	114.25
1010.9932	2844.3374	1001.2	121.75
1011.111	2845.4899	1004.7	123.4
1011.2288	2846.6417	1002.7	122.45
1011.3465	2847.7928	1007.65	130
1011.4642	2848.9433	1012.65	132.75
1011.5818	2850.0931	1013.15	135
1011.6995	2851.2422	1015.2	132.3
1011.817	2852.3907	1008.1	126.65
1011.9345	2853.5385	1013.1	130.95
1012.052	2854.6857	1037.15	129.65
1012.1695	2855.8323	1012.5	132.25
1012.2869	2856.9781	1018.45	139.55
1012.4042	2858.1233	1024.5	144.1
1012.5216	2859.2679	1022.15	142.35
1012.6389	2860.4118	1024.8	144.4
1012.7561	2861.555	1035.6	152
1012.8733	2862.6976	1033.6	151.2
1012.9905	2863.8395	1036.95	156.9
1013.1076	2864.9808	1035.85	155.7
1013.2247	2866.1214	1036.55	157.35
1013.3417	2867.2614	1043.2	163.35
1013.4587	2868.4007	1043.5	163.65
1013.5757	2869.5393	1045.55	165.2
1013.6926	2870.6773	1045.7	162.85
1013.8095	2871.8146	1053.05	170.75
1013.9263	2872.9513	1051.6	168.45
1014.0431	2874.0874	1050.2	171.5
1014.1599	2875.2227	1054.55	172.35
1014.2766	2876.3574	1051.9	171.8
1014.3933	2877.4915	1057.2	175.05
1014.51	2878.6249	1059.85	181.7
1014.6266	2879.7577	1066.65	185
1014.7431	2880.8898	1074.2	183.1
1014.8596	2882.0212	1070.6	192.6
1014.9761	2883.152	1071.5	190.55
1015.0925	2884.2821	1072.45	194.3
1015.2089	2885.4116	1072.85	192.25
1015.3253	2886.5405	1076.15	196.65
1015.4416	2887.6686	1083.5	199.4
1015.5579	2888.7962	1073	195.85
1015.6741	2889.923	1078	198.9
1015.7903	2891.0493	1072	191.25
1015.9065	2892.1748	1076.7	197.15
1016.0226	2893.2997	1078.5	198.45
1016.1387	2894.424	1076.3	197.75
1016.2547	2895.5476	1078.9	199.8
1016.3707	2896.6706	1073.35	192.3
1016.4866	2897.7929	1076.95	195.85
1016.6025	2898.9145	1077.15	196
1016.7184	2900.0355	1078.35	198.6
1016.8342	2901.1559	1080	198.3
1016.95	2902.2756	1080.5	196.7
1017.0658	2903.3946	1077.1	200.65
1017.1815	2904.513	1072.9	190.3
1017.2971	2905.6308	1075.35	193.35
1017.4127	2906.7479	1074.2	192.75
1017.5283	2907.8643	1071.6	190.95
1017.6439	2908.9801	1071.1	193.7
1017.7594	2910.0953	1074.7	194.55
1017.8748	2911.2098	1072.6	188.9
1017.9902	2912.3236	1077.65	189.1
1018.1056	2913.4368	1075	195.8
1018.2209	2914.5494	1073.5	194.55
1018.3362	2915.6613	1073.75	188.9
1018.4515	2916.7725	1066.6	184.3
1018.5667	2917.8831	1062.05	180.95
1018.6819	2918.9931	1062	180.1
1018.797	2920.1024	1057.65	176.4
1018.9121	2921.211	1052.9	174
1019.0271	2922.319	1051.7	172.2
1019.1421	2923.4264	1049.55	172.35
1019.2571	2924.5331	1045.95	168.05
1019.372	2925.6391	1046.3	167.15
1019.4869	2926.7445	1051.25	173.5
1019.6017	2927.8493	1047.75	165.5
1019.7165	2928.9534	1043.65	164.7
1019.8313	2930.0569	1054.7	170.8
1019.946	2931.1597	1052.45	171.45
1020.0606	2932.2619	1055.35	176.9
1020.1753	2933.3634	1053.55	174.65
1020.2899	2934.4643	1065.2	180.2
1020.4044	2935.5645	1064.7	179
1020.5189	2936.6641	1063.6	179.95
1020.6334	2937.763	1058.65	181.1
1020.7478	2938.8613	1058.9	179.05
1020.8622	2939.959	1063.4	178.7
1020.9765	2941.056	1052.95	174.35
1021.0908	2942.1523	1049.3	167.75
1021.2051	2943.248	1044.1	164.85
1021.3193	2944.3431	1030.65	151.35
1021.4334	2945.4375	1023.95	144.4
1021.5476	2946.5313	1013.6	136.35
1021.6617	2947.6244	1010.4	131.25
1021.7757	2948.7169	1001.4	120.8
1021.8897	2949.8087	996.05	116.8
1022.0037	2950.8999	991.05	110.5
1022.1176	2951.9904	985.5	104.75
1022.2315	2953.0803	979.15	100.6
1022.3453	2954.1696	974.7	95.35
1022.4591	2955.2582	974.05	96.05
1022.5728	2956.3462	965.85	86.15
1022.6865	2957.4335	966.8	86.35
1022.8002	2958.5202	970.35	88.35
1022.9138	2959.6062	966.2	85.8
1023.0274	2960.6916	969.2	90.9
1023.141	2961.7764	969.65	89.3
1023.2545	2962.8605	972	90.6
1023.3679	2963.9439	967.35	89.1
1023.4813	2965.0267	970.4	90.15
1023.5947	2966.1089	989.9	92.85
1023.708	2967.1905	965.7	85.5
1023.8213	2968.2714	966.95	88.1
1023.9346	2969.3516	964.75	83.8
1024.0478	2970.4312	969.1	83
1024.1609	2971.5102	960.25	82.25
1024.274	2972.5885	964.2	86.6
1024.3871	2973.6662	969.55	83.95
1024.5002	2974.7432	961.55	81.55
1024.6132	2975.8196	963.75	84.4
1024.7261	2976.8954	962.55	85
1024.839	2977.9705	965.3	85.2
1024.9519	2979.045	964.6	85.3
1025.0647	2980.1188	961.15	80.95
1025.1775	2981.192	961.05	84.45
1025.2902	2982.2645	960.9	78.25
1025.4029	2983.3364	960.25	80.7
1025.5156	2984.4077	958.8	80.55
1025.6282	2985.4783	962.5	77.8
1025.7407	2986.5483	952.65	74.05
1025.8532	2987.6177	949.2	72.65
1025.9657	2988.6864	949.1	70.05
1026.0782	2989.7545	949.7	68.2
1026.1906	2990.8219	942.55	64.3
1026.3029	2991.8887	939.65	60.25
1026.4152	2992.9548	945.1	65.55
1026.5275	2994.0204	934.15	55.85
1026.6397	2995.0852	931.55	53.5
1026.7519	2996.1495	931.6	52.3
1026.864	2997.2131	926.5	47.55
1026.9761	2998.276	925.15	47.6
1027.0882	2999.3383	922.85	42.3
1027.2002	3000.4	921.35	41.05
1027.3122	3001.4611	919.35	39.5
1027.4241	3002.5215	918.2	40.85
1027.536	3003.5812	916.5	39.6
1027.6478	3004.6404	913.15	32.75
1027.7596	3005.6989	916.3	35.45
1027.8714	3006.7567	914.85	34.65
1027.9831	3007.8139	939.4	35.8
1028.0947	3008.8705	911.05	33.3
1028.2064	3009.9264	912.95	30.7
1028.3179	3010.9818	911.6	32.05
1028.4295	3012.0364	912.7	31.7
1028.541	3013.0905	909.4	29.55
1028.6524	3014.1439	909.9	31.05
1028.7638	3015.1966	908.75	29.75
1028.8752	3016.2487	908.95	29.45
1028.9865	3017.3002	912.15	25.85
1029.0978	3018.3511	906.2	29.2
1029.209	3019.4013	905	26.9
1029.3202	3020.4509	905.55	26.65
1029.4314	3021.4998	906.45	27.8
1029.5425	3022.5481	907.85	30
1029.6535	3023.5958	905.65	27.5
1029.7645	3024.6428	909.05	27.95
1029.8755	3025.6892	906.6	27.8
1029.9864	3026.735	905.5	28.65
1030.0973	3027.7802	907.65	29.1
1030.2082	3028.8247	903.95	24.3
1030.319	3029.8685	907.1	28.8
1030.4297	3030.9118	905.85	27.85
1030.5404	3031.9544	906.1	29.2
1030.6511	3032.9963	906.55	28.1
1030.7617	3034.0376	905.35	26.3
1030.8723	3035.0783	907.4	27.8
1030.9829	3036.1184	906.6	28
1031.0934	3037.1578	902.1	23.55
1031.2038	3038.1966	906.95	27.35
1031.3142	3039.2348	904.75	26.35
1031.4246	3040.2723	915.8	28.65
1031.5349	3041.3092	907.25	31.4
1031.6452	3042.3455	906.8	25.85
1031.7554	3043.3811	906.85	30.3
1031.8656	3044.4161	905.4	25.55
1031.9758	3045.4505	905.15	28.85
1032.0859	3046.4842	905.05	25.3
1032.1959	3047.5173	903.1	25.9
1032.3059	3048.5498	906.55	27.85
1032.4159	3049.5816	906.85	27.15
1032.5258	3050.6128	907.2	26.9
1032.6357	3051.6434	906.8	25.7
1032.7455	3052.6734	908.4	28
1032.8553	3053.7027	906.1	27.35
1032.9651	3054.7314	905.95	29.1
1033.0748	3055.7594	905	27.7
1033.1845	3056.7868	908.15	28.6
1033.2941	3057.8136	906.7	28.05
1033.4037	3058.8398	905	26.7
1033.5132	3059.8653	905.2	29.25
1033.6227	3060.8902	905.85	26.15
1033.7321	3061.9145	909.4	31.9
1033.8415	3062.9381	909.1	30.8
1033.9509	3063.9612	925.55	33
1034.0602	3064.9835	908.6	29.4
1034.1694	3066.0053	909.45	28.75
1034.2787	3067.0264	905.9	27.85
1034.3878	3068.0469	909.35	30.55
1034.497	3069.0668	911.45	29.45
1034.6061	3070.086	907.8	30.95
1034.7151	3071.1046	906.05	27.3
1034.8241	3072.1226	907.9	28.85
1034.9331	3073.1399	905.8	28.2
1035.042	3074.1567	905.45	26.55
1035.1508	3075.1727	908.2	28.7
1035.2597	3076.1882	904.7	27.85
1035.3684	3077.203	904.65	25.5
1035.4772	3078.2173	905.45	25.45
1035.5859	3079.2308	908.35	27.85
1035.6945	3080.2438	905.4	23.55
1035.8031	3081.2561	902	25.45
1035.9117	3082.2678	901.05	23.2
1036.0202	3083.2789	898.45	20.55
1036.1286	3084.2893	899.6	22.85
1036.2371	3085.2991	902.1	23.35
1036.3454	3086.3083	905.1	23.35
1036.4538	3087.3169	899.85	20.3
1036.562	3088.3248	902.25	22.15
1036.6703	3089.3321	901.15	21.2
1036.7785	3090.3388	899.65	22.65
1036.8866	3091.3449	899.55	20.7
1036.9948	3092.3503	900.9	20.7
1037.1028	3093.3551	896.25	20.15
1037.2108	3094.3593	896.2	19.35
1037.3188	3095.3629	897.75	19.6
1037.4267	3096.3658	898.65	17.7
1037.5346	3097.3681	896.5	18.65
1037.6425	3098.3698	898.9	18.8
1037.7503	3099.3708	896.75	17.75
1037.858	3100.3713	894.45	16.65
1037.9657	3101.3711	897.3	19.2
1038.0734	3102.3702	1030.15	13.25
1038.181	3103.3688	896.95	18.25
1038.2886	3104.3667	891.65	15.95
1038.3961	3105.364	896.15	18.7
1038.5036	3106.3607	896.55	17.85
1038.611	3107.3568	896.5	18.45
1038.7184	3108.3522	894	16.15
1038.8257	3109.347	895.75	17.3
1038.933	3110.3412	897.45	14.15
1039.0403	3111.3348	894.5	15.35
1039.1475	3112.3277	894.05	17.4
1039.2547	3113.32	893.45	16.05
1039.3618	3114.3117	892.05	13.3
1039.4689	3115.3028	893.45	15.6
1039.5759	3116.2932	895.35	17.25
1039.6829	3117.2831	896.5	12.55
1039.7898	3118.2723	893.15	15.4
1039.8967	3119.2608	892.8	16
1040.0035	3120.2488	895.65	17.1
1040.1103	3121.2361	894.75	17.15
1040.2171	3122.2229	892.1	14.3
1040.3238	3123.209	892.15	13.35
1040.4305	3124.1944	891.6	14.65
1040.5371	3125.1793	892	11.4
1040.6437	3126.1635	892.4	15.55
1040.7502	3127.1471	890.8	15.45
1040.8567	3128.1301	890.4	11.35
1040.9631	3129.1125	891.15	13.2
1041.0695	3130.0942	892.15	14.2
1041.1759	3131.0753	899.75	11.45
1041.2822	3132.0558	893.6	14.35
1041.3884	3133.0357	893.95	14.45
1041.4946	3134.015	890.85	12.55
1041.6008	3134.9936	892.65	11.9
1041.7069	3135.9716	910.2	12.35
1041.813	3136.949	890.2	12.95
1041.919	3137.9258	909.6	12.85
1042.025	3138.902	896	10.55
1042.1309	3139.8775	889.15	12.25
1042.2368	3140.8524	889.6	10.7
1042.3427	3141.8267	890.05	10.25
1042.4485	3142.8004	889.8	11.75
1042.5542	3143.7735	895	13.55
1042.6599	3144.7459	891.75	10.1
1042.7656	3145.7178	888.3	9.5
1042.8712	3146.689	889.85	12
1042.9768	3147.6596	891.05	11.1
1043.0823	3148.6295	889.75	11
1043.1878	3149.5989	888	8.75
1043.2932	3150.5676	885.8	8.65
1043.3986	3151.5357	886.55	12.1
1043.5039	3152.5032	888.25	11
1043.6092	3153.4701	887.05	10.4
1043.7145	3154.4364	890.25	8.85
1043.8197	3155.402	887.75	11.1
1043.9248	3156.367	890.1	10.85
1044.03	3157.3315	929.45	8.25
1044.135	3158.2952	889.05	10.05
1044.24	3159.2584	889.6	10.5
1044.345	3160.221	889.3	10.65
1044.4499	3161.1829	889.3	12.15
1044.5548	3162.1442	885.85	7.45
1044.6596	3163.105	887.6	9.65
1044.7644	3164.065	887.15	9.65
1044.8692	3165.0245	889.35	10.7
1044.9739	3165.9834	887.25	10.25
1045.0785	3166.9416	885.75	8.4
1045.1831	3167.8993	886.6	8.05
1045.2877	3168.8563	887.6	10.2
1045.3922	3169.8127	885.7	7.85
1045.4966	3170.7684	887.05	8.7
1045.6011	3171.7236	888.2	10
1045.7054	3172.6782	887.2	10.65
1045.8098	3173.6321	887.8	10.5
1045.914	3174.5854	891.9	9.95
1046.0183	3175.5381	887.3	11.7
1046.1224	3176.4902	887.3	10.75
1046.2266	3177.4417	885.95	8.3
1046.3307	3178.3926	887.2	10.25
1046.4347	3179.3428	885.65	8.6
1046.5387	3180.2924	884.8	8.15
1046.6427	3181.2415	887.45	9.75
1046.7466	3182.1899	888.2	10.4
1046.8504	3183.1377	885.95	8.75
1046.9542	3184.0848	889.1	7.35
1047.058	3185.0314	888.25	10.6
1047.1617	3185.9773	887.15	9.45
1047.2654	3186.9227	887.85	10.45
1047.369	3187.8674	888.15	10.85
1047.4726	3188.8115	890.2	8
1047.5761	3189.755	887.05	9
1047.6796	3190.6979	884.05	4.65
1047.783	3191.6402	886.85	11.05
1047.8864	3192.5818	887.25	9.75
1047.9898	3193.5229	912.05	9.3
1048.0931	3194.4633	886	7.55
1048.1963	3195.4031	885.95	7.6
1048.2995	3196.3423	885.4	8.8
1048.4027	3197.2809	885.35	6.25
1048.5058	3198.2189	886.1	7.8
1048.6089	3199.1563	893	8.45
1048.7119	3200.0931	884	9
1048.8148	3201.0292	884.45	7.15
1048.9178	3201.9648	885.65	6.9
1049.0206	3202.8997	888.6	8.1
1049.1235	3203.834	886.95	9.3
1049.2262	3204.7677	884.8	7.5
1049.329	3205.7008	885.45	6.1
1049.4317	3206.6333	883.4	8.4
1049.5343	3207.5652	888.55	8.15
1049.6369	3208.4964	884.5	7.1
1049.7394	3209.4271	884.35	5.1
1049.8419	3210.3571	885.25	7.1
1049.9444	3211.2865	885.1	7.75
1050.0468	3212.2154	887.15	9.3
1050.1491	3213.1436	886.05	6.75
1050.2514	3214.0712	892.2	9.1
1050.3537	3214.9982	886.15	9.35
1050.4559	3215.9246	884.95	8.4
1050.5581	3216.8503	884.15	6.95
1050.6602	3217.7755	884.6	5.75
1050.7623	3218.7001	883.8	6.6
1050.8643	3219.624	883.55	4.55
1050.9663	3220.5473	884.3	7.7
1051.0682	3221.4701	884.25	7.1
1051.1701	3222.3922	885.45	6.6
1051.2719	3223.3137	884.3	9.25
1051.3737	3224.2346	884.75	8.2
1051.4754	3225.1549	885.3	8.8
1051.5771	3226.0746	885.7	7.95
1051.6788	3226.9937	885.8	4.5
1051.7804	3227.9121	882	3.85
1051.8819	3228.83	886.75	10.15
1051.9834	3229.7473	882.2	4.7
1052.0849	3230.6639	884.35	7.45
1052.1863	3231.5799	884.2	6.05
1052.2876	3232.4954	887.65	8.9
1052.3889	3233.4102	881.1	3.75
1052.4902	3234.3244	883.85	5.1
1052.5914	3235.238	881.15	3.6
1052.6926	3236.151	909.5	7.4
1052.7937	3237.0634	882.95	6.9
1052.8948	3237.9752	883.9	7.45
1052.9958	3238.8864	882.8	5.45
1053.0968	3239.797	882.7	5.8
1053.1977	3240.7069	885.9	6.15
1053.2986	3241.6163	884.15	5.45
1053.3994	3242.5251	883.5	6.4
1053.5002	3243.4332	880.6	5
1053.6009	3244.3408	884.85	7
1053.7016	3245.2477	884.05	7.95
1053.8022	3246.154	883.05	5.45
1053.9028	3247.0598	884.35	6.6
1054.0034	3247.9649	884.3	7.7
1054.1039	3248.8694	883.35	4.9
1054.2043	3249.7733	885.9	9.65
1054.3047	3250.6766	882.5	4.85
1054.4051	3251.5793	883.35	5.45
1054.5054	3252.4814	881.75	5.95
1054.6056	3253.3829	882.25	4.4
1054.7058	3254.2838	884.1	7.75
1054.806	3255.1841	881.4	5.05
1054.9061	3256.0838	883.55	7.95
1055.0061	3256.9829	881.15	5.35
1055.1062	3257.8814	885.6	4.75
1055.2061	3258.7792	883.65	4.1
1055.306	3259.6765	881.9	2.8
1055.4059	3260.5731	883.5	8.65
1055.5057	3261.4692	880.7	4.55
1055.6055	3262.3647	885	5.9
1055.7052	3263.2595	882	3.85
1055.8049	3264.1538	880.8	3.85
1055.9045	3265.0474	884.6	4.85
1056.0041	3265.9404	882.5	6.8
1056.1036	3266.8329	879.75	2.45
1056.2031	3267.7247	892.35	6.65
1056.3025	3268.616	880.7	2.55
1056.4019	3269.5066	882.4	4.05
1056.5013	3270.3966	883.3	3.4
1056.6005	3271.286	880.9	3.85
