Software Version:	3.9.2.0
Unit SN:	10000200
Spectrometer SN:	6960
Date:	3/8/2024 11:24:38 AM
Data Line Index:	25
Spectral Points:	2048
Integration time (ms):	125
Averages:	20
Delay (ms):	30000
Sequence Number:	1
Processing:	dark subtract
Laser Power (mW):	305
Laser Current (mA):	822
Laser Diode Temp (C):	25
Laser Case Temp (C):	25
System Temp (C):	24.9
Spectrometer Temp (C):	22.7
CCD Temp (C):	0.004
Secondary Temp (C):	20.004
Heatsink Temp (C):	19.511
CCDPCB Temp (C):	32.316
SecondaryPCB Temp (C):	26.903

Wavelength	RamanShift	Raw Counts	Dark Subtracted
787.061	30.1047	416.2	6.3
787.2016	32.3739	413.75	8.15
787.3422	34.6426	415.4	7
787.4828	36.9109	417.05	7.7
787.6235	39.1787	422.2	8.15
787.7642	41.4461	427	8.6
787.9049	43.7131	430.4	8.8
788.0456	45.9796	432.85	8.1
788.1863	48.2456	439.5	9.15
788.3271	50.5112	441.55	9.05
788.4679	52.7764	447	11.7
788.6087	55.0411	453.4	14.7
788.7496	57.3054	458.95	12.3
788.8904	59.5692	462.6	15
789.0313	61.8326	465.3	15.05
789.1722	64.0955	471.75	18.2
789.3132	66.3579	477.1	19.8
789.4541	68.6199	482.85	22.1
789.5951	70.8815	493.55	29.1
789.7361	73.1426	513.35	42.8
789.8771	75.4032	549.1	75.5
790.0181	77.6634	629.3	152.8
790.1592	79.9231	808.6	329.45
790.3003	82.1824	1188.05	699.3
790.4414	84.4412	1820.05	1317.95
790.5825	86.6995	2613.15	2091.8
790.7237	88.9574	3378.3	2838.6
790.8648	91.2148	3888.15	3339.5
791.006	93.4717	4108.65	3555.05
791.1472	95.7282	4145.2	3591.15
791.2885	97.9842	4147.7	3587.6
791.4297	100.2398	4091.8	3530.1
791.571	102.4949	4028.8	3462.75
791.7123	104.7495	4002.6	3432.15
791.8536	107.0036	3966.6	3394.95
791.9949	109.2573	3892.2	3324.2
792.1363	111.5105	3771.9	3201
792.2777	113.7632	3700.9	3128.5
792.4191	116.0154	3616.85	3031.85
792.5605	118.2672	3481.5	2904.6
792.7019	120.5185	3373.05	2792.35
792.8434	122.7693	3286.05	2703.5
792.9849	125.0197	3175.9	2589.75
793.1264	127.2696	3103.95	2512.4
793.2679	129.519	3065.8	2472.6
793.4094	131.7679	3030.9	2432.6
793.551	134.0163	3008.75	2411.3
793.6926	136.2642	2996.3	2392.85
793.8342	138.5117	2984.15	2375.1
793.9758	140.7587	2964	2354.3
794.1175	143.0052	2906.75	2297.35
794.2591	145.2512	2858.8	2248.4
794.4008	147.4967	2804.5	2193.4
794.5425	149.7417	2764.25	2150.3
794.6842	151.9863	2732.75	2113.7
794.826	154.2304	2715.85	2092.6
794.9677	156.4739	2705.6	2078.55
795.1095	158.717	2727.75	2099.95
795.2513	160.9596	2751.25	2117.15
795.3931	163.2017	2776.95	2143
795.535	165.4433	2792.9	2155.5
795.6768	167.6844	2790.25	2151.1
795.8187	169.925	2767.3	2126.8
795.9606	172.1651	2707.65	2061
796.1025	174.4047	2655.55	2006.1
796.2445	176.6439	2623.15	1972.35
796.3864	178.8825	2588.1	1933.5
796.5284	181.1206	2581.45	1924.15
796.6704	183.3582	2573.3	1912.3
796.8124	185.5954	2558.15	1897.25
796.9544	187.832	2552.8	1882.65
797.0965	190.0681	2553.95	1885.85
797.2386	192.3037	2563	1889.85
797.3806	194.5388	2567.05	1889.7
797.5228	196.7734	2591	1916.95
797.6649	199.0075	2602.45	1923.45
797.807	201.2411	2628.55	1949
797.9492	203.4742	2641.7	1961.45
798.0914	205.7068	2682.85	1996
798.2336	207.9389	2693.85	2006.25
798.3758	210.1704	2719.55	2037.85
798.518	212.4015	2709.9	2036.85
798.6603	214.632	2713	2048.7
798.8025	216.862	2717.6	2053.35
798.9448	219.0915	2719.95	2050.9
799.0871	221.3205	2740.45	2072.25
799.2294	223.549	2746.75	2081.15
799.3718	225.777	2746.25	2080.8
799.5141	228.0044	2740.05	2064.95
799.6565	230.2314	2726.25	2053.6
799.7989	232.4578	2720.8	2043.7
799.9413	234.6837	2716.15	2031.45
800.0837	236.909	2703.65	2013.9
800.2262	239.1339	2709.3	1992.9
800.3687	241.3582	2695	1995.7
800.5111	243.582	2718.55	1990.85
800.6536	245.8053	2715.4	1998.35
800.7961	248.0281	2711.35	2001.3
800.9387	250.2503	2732.25	2015.6
801.0812	252.472	2734.55	2017.05
801.2238	254.6932	2739.2	2025
801.3664	256.9139	2728.35	2011.3
801.509	259.134	2754.7	2031.9
801.6516	261.3536	2769.45	2053.6
801.7942	263.5727	2810.8	2091.75
801.9369	265.7912	2855.3	2132.25
802.0795	268.0092	2930.6	2211.7
802.2222	270.2267	2992.5	2270.6
802.3649	272.4436	3039	2315.5
802.5076	274.6601	3074.05	2340.5
802.6504	276.8759	3104.65	2374.65
802.7931	279.0913	3130.65	2399.55
802.9359	281.3061	3147.45	2419.7
803.0787	283.5204	3185.15	2451.25
803.2215	285.7341	3216.6	2478.9
803.3643	287.9473	3225.35	2490.8
803.5071	290.16	3229.9	2490.05
803.6499	292.3721	3184.85	2448.85
803.7928	294.5837	3145.95	2410.35
803.9357	296.7947	3113.25	2374.05
804.0786	299.0052	3078.75	2342.75
804.2215	301.2152	3074.2	2334.05
804.3644	303.4246	3061.95	2324.9
804.5074	305.6334	3025.5	2288.9
804.6503	307.8418	3026.1	2283.3
804.7933	310.0495	2993.05	2252.55
804.9363	312.2568	2962.6	2216.65
805.0793	314.4635	2919	2172.65
805.2223	316.6696	2870	2124.1
805.3653	318.8752	2819.95	2062.85
805.5084	321.0802	2786.3	2034.5
805.6514	323.2847	2776.7	2027.35
805.7945	325.4887	2775	2022.1
805.9376	327.692	2798	2046.85
806.0807	329.8949	2839.75	2081.6
806.2238	332.0972	2895.75	2140.25
806.367	334.2989	2934.6	2176.25
806.5101	336.5001	2943.25	2181.2
806.6533	338.7007	2901.4	2139
806.7965	340.9008	2845.35	2083.2
806.9397	343.1003	2789.2	2023.5
807.0829	345.2992	2729.55	1963.55
807.2261	347.4976	2696.4	1930.8
807.3693	349.6955	2651.35	1880.65
807.5126	351.8927	2639.3	1868.45
807.6559	354.0895	2622.5	1840.9
807.7991	356.2856	2605.6	1829.95
807.9424	358.4812	2581.8	1808.65
808.0857	360.6763	2584.55	1807.3
808.2291	362.8707	2572.05	1796.45
808.3724	365.0646	2577.4	1797.2
808.5158	367.258	2589.35	1807.4
808.6591	369.4508	2619.35	1831.95
808.8025	371.643	2642.7	1858.75
808.9459	373.8346	2672.85	1887.05
809.0893	376.0257	2703.4	1911.75
809.2327	378.2162	2747.1	1959.85
809.3762	380.4062	2758.55	1968.15
809.5196	382.5956	2736.6	1953.15
809.6631	384.7844	2700.4	1922.9
809.8066	386.9726	2631.25	1851.75
809.9501	389.1603	2594.55	1817.45
810.0936	391.3474	2596.65	1784.85
810.2371	393.5339	2568.45	1783.45
810.3806	395.7199	2588.85	1806.5
810.5241	397.9052	2617.7	1836.6
810.6677	400.09	2665	1882.95
810.8113	402.2743	2713.45	1927.45
810.9548	404.4579	2769.4	1983.45
811.0984	406.641	2798.9	2013.45
811.2421	408.8235	2843.2	2055.05
811.3857	411.0054	2901.95	2112.65
811.5293	413.1868	2970.3	2173.6
811.673	415.3675	3018.15	2219.7
811.8166	417.5477	3012.3	2211.75
811.9603	419.7273	2964.25	2161.8
812.104	421.9064	2871.55	2063.15
812.2477	424.0848	2804.7	2002.6
812.3914	426.2627	2728.85	1927.3
812.5351	428.4399	2660.85	1860.6
812.6788	430.6166	2618.95	1809.3
812.8226	432.7928	2557.2	1745.9
812.9663	434.9683	2505.7	1698.4
813.1101	437.1432	2484.45	1679.6
813.2539	439.3176	2462.1	1655.2
813.3977	441.4914	2449.65	1643.5
813.5415	443.6645	2437.4	1632.7
813.6853	445.8371	2423.95	1614.75
813.8291	448.0091	2435.7	1631.05
813.973	450.1806	2442.35	1634.1
814.1168	452.3514	2436.85	1627.25
814.2607	454.5216	2440.5	1621.6
814.4046	456.6913	2428.3	1618.1
814.5485	458.8603	2431.25	1619.25
814.6924	461.0288	2446.6	1639.8
814.8363	463.1967	2443.7	1632.45
814.9802	465.3639	2436.25	1625.95
815.1241	467.5306	2424.2	1614.25
815.2681	469.6967	2418.15	1605.95
815.412	471.8622	2397.45	1587
815.556	474.0271	2411.8	1602.4
815.7	476.1914	2411.7	1595.95
815.844	478.3551	2392.95	1577.55
815.988	480.5182	2387.55	1574.2
816.132	482.6807	2401.75	1589.15
816.276	484.8426	2416.15	1605
816.4201	487.0039	2468.75	1657.75
816.5641	489.1647	2527.4	1710.4
816.7082	491.3248	2572.95	1754.35
816.8522	493.4843	2596	1780.35
816.9963	495.6432	2586	1768.15
817.1404	497.8015	2553.5	1730
817.2845	499.9592	2502.75	1679.75
817.4286	502.1163	2445.6	1620.95
817.5727	504.2728	2393.05	1570.8
817.7168	506.4287	2367.6	1552.05
817.861	508.5839	2351.95	1532.85
818.0051	510.7386	2345.8	1525.7
818.1493	512.8927	2353.2	1520.45
818.2935	515.0461	2358.6	1530.3
818.4377	517.199	2364.1	1537.9
818.5818	519.3512	2419.45	1590.75
818.726	521.5029	2501.65	1668.7
818.8703	523.6539	2573.55	1742.7
819.0145	525.8043	2577.55	1749.4
819.1587	527.9541	2517.15	1683.25
819.303	530.1033	2438	1606.25
819.4472	532.2519	2390.1	1556.7
819.5915	534.3999	2357.2	1522.75
819.7357	536.5472	2338.2	1506.25
819.88	538.694	2349.15	1518.05
820.0243	540.8401	2367.55	1534.25
820.1686	542.9856	2384.25	1550
820.3129	545.1305	2396.75	1556.7
820.4572	547.2748	2412.6	1575.45
820.6016	549.4185	2425.2	1586.2
820.7459	551.5615	2436.65	1598.45
820.8902	553.704	2443.55	1609.05
821.0346	555.8458	2464.85	1630
821.1789	557.987	2491.45	1659.9
821.3233	560.1276	2512	1674.55
821.4677	562.2675	2588.15	1751.9
821.6121	564.4069	2667.7	1834.5
821.7565	566.5456	2710.55	1873.35
821.9009	568.6837	2687.35	1848.7
822.0453	570.8212	2605.25	1767.75
822.1897	572.958	2498.7	1659.05
822.3342	575.0942	2433.55	1598.05
822.4786	577.2299	2402.9	1563
822.6231	579.3648	2375.8	1541.25
822.7675	581.4992	2346.3	1512.8
822.912	583.6329	2355.9	1523.5
823.0565	585.766	2382.95	1548.4
823.201	587.8985	2433.15	1594.9
823.3454	590.0304	2503	1653.35
823.4899	592.1616	2532.4	1686.5
823.6345	594.2922	2536.55	1693.9
823.779	596.4222	2498.55	1654.1
823.9235	598.5515	2430.55	1583.7
824.068	600.6802	2371.55	1525.75
824.2126	602.8083	2314.55	1472.1
824.3571	604.9358	2291.9	1445.15
824.5017	607.0626	2292.65	1448.1
824.6462	609.1888	2311	1459.9
824.7908	611.3144	2318.4	1467.35
824.9354	613.4393	2383.3	1535.05
825.08	615.5636	2437.7	1588.05
825.2246	617.6873	2488.6	1641.1
825.3692	619.8103	2521.95	1668.5
825.5138	621.9327	2518.05	1665.4
825.6584	624.0544	2483.35	1636.25
825.803	626.1756	2412	1563.1
825.9477	628.2961	2363.4	1512.05
826.0923	630.4159	2326.25	1473
826.237	632.5351	2323.2	1472
826.3816	634.6537	2311.4	1458.25
826.5263	636.7716	2298.65	1444.5
826.6709	638.8889	2293.5	1438.9
826.8156	641.0056	2309.15	1455.55
826.9603	643.1216	2315.55	1457.5
827.105	645.237	2329.9	1472.15
827.2497	647.3518	2307.8	1457.95
827.3944	649.4659	2265.5	1414.3
827.5391	651.5793	2246.6	1393.75
827.6838	653.6922	2231.35	1379.05
827.8285	655.8043	2216.35	1362.8
827.9733	657.9159	2200.85	1347.35
828.118	660.0268	2192.6	1336.9
828.2627	662.137	2194.35	1338.4
828.4075	664.2466	2197.15	1336.95
828.5522	666.3556	2186.1	1328.25
828.697	668.4639	2181.25	1323.1
828.8418	670.5716	2175.6	1319.7
828.9865	672.6786	2168.35	1310.45
829.1313	674.785	2162.5	1299.3
829.2761	676.8907	2150.4	1293.2
829.4209	678.9958	2149.9	1293.1
829.5657	681.1002	2155.45	1295.15
829.7105	683.204	2157.75	1290.7
829.8553	685.3072	2160.95	1297.7
830.0001	687.4097	2156.75	1295.95
830.1449	689.5115	2155.5	1291.2
830.2898	691.6127	2150.9	1290.45
830.4346	693.7132	2139.15	1279.9
830.5794	695.8131	2163.9	1290.65
830.7243	697.9123	2155.9	1293.05
830.8691	700.0109	2155.05	1289.95
831.014	702.1089	2160.2	1297.1
831.1588	704.2061	2183.95	1321.45
831.3037	706.3028	2201.3	1334.3
831.4486	708.3987	2223.3	1359.55
831.5935	710.4941	2251.9	1387.3
831.7383	712.5887	2245.1	1379.6
831.8832	714.6827	2246.25	1377.25
832.0281	716.7761	2236.25	1372.1
832.173	718.8688	2238.15	1371.55
832.3179	720.9608	2232.15	1362.5
832.4628	723.0522	2245.3	1373.45
832.6077	725.1429	2264.15	1397.05
832.7527	727.233	2298.75	1429.75
832.8976	729.3224	2386.25	1519.15
833.0425	731.4112	2444	1575.3
833.1874	733.4993	2453.35	1581.25
833.3324	735.5867	2410.65	1541
833.4773	737.6735	2327.55	1457.8
833.6222	739.7596	2258.4	1386.3
833.7672	741.845	2223.9	1351.85
833.9122	743.9298	2224.05	1350.15
834.0571	746.014	2213.15	1342.05
834.2021	748.0974	2220.95	1345.95
834.347	750.1802	2225.95	1351.65
834.492	752.2624	2228.85	1355.8
834.637	754.3439	2217.5	1343.6
834.782	756.4247	2213.45	1331.7
834.9269	758.5048	2216.7	1345.15
835.0719	760.5843	2229.45	1355.4
835.2169	762.6631	2264.4	1391.85
835.3619	764.7413	2312.05	1438.6
835.5069	766.8188	2410.4	1535.25
835.6519	768.8956	2496.7	1618
835.7969	770.9718	2576.05	1702.7
835.9419	773.0473	2559.85	1684.95
836.0869	775.1221	2532.3	1658.95
836.232	777.1962	2498.2	1623.3
836.377	779.2697	2569.55	1691.9
836.522	781.3426	2691.4	1802.55
836.667	783.4147	2777.05	1902.7
836.8121	785.4862	2755.1	1881.55
836.9571	787.557	2654.05	1777.75
837.1021	789.6271	2514.05	1635.75
837.2472	791.6966	2366.05	1491.35
837.3922	793.7654	2258.45	1382.25
837.5373	795.8335	2190.1	1311.45
837.6823	797.901	2155.55	1280.8
837.8274	799.9678	2147.5	1267.35
837.9724	802.0339	2147.6	1271.05
838.1175	804.0993	2158.75	1270.4
838.2626	806.1641	2140.4	1259.8
838.4076	808.2282	2129.25	1253.85
838.5527	810.2916	2111.35	1231.65
838.6978	812.3544	2091.55	1214.6
838.8428	814.4164	2071.85	1197.75
838.9879	816.4778	2083.35	1203.15
839.133	818.5385	2092	1212.7
839.2781	820.5986	2131.75	1250.65
839.4232	822.658	2190.2	1309.4
839.5682	824.7166	2268.5	1390.5
839.7133	826.7747	2370.85	1489.7
839.8584	828.832	2443.4	1565.35
840.0035	830.8886	2514.25	1632.05
840.1486	832.9446	2545.25	1664.35
840.2937	834.9999	2515.8	1636.65
840.4388	837.0545	2437.95	1553.35
840.5839	839.1085	2336.45	1456.9
840.729	841.1618	2251.25	1364.45
840.8741	843.2143	2188.7	1307.6
841.0192	845.2662	2156.95	1276.85
841.1643	847.3175	2134.2	1252.15
841.3095	849.368	2119.45	1239
841.4546	851.4179	2103.15	1219.05
841.5997	853.467	2118.15	1235.4
841.7448	855.5155	2129.9	1251.15
841.8899	857.5633	2124.2	1241.95
842.0351	859.6105	2112.2	1230.4
842.1802	861.6569	2102.35	1218.9
842.3253	863.7027	2086.15	1200.45
842.4704	865.7478	2085.75	1201.9
842.6156	867.7922	2061.1	1177.6
842.7607	869.8359	2049.45	1162.5
842.9058	871.8789	2042.15	1157.45
843.0509	873.9212	2076.6	1160.25
843.1961	875.9629	2049.4	1163.35
843.3412	878.0039	2064.35	1178.15
843.4863	880.0441	2080.95	1197.5
843.6315	882.0837	2099.05	1214.55
843.7766	884.1226	2128.6	1241.55
843.9218	886.1609	2172.55	1287.65
844.0669	888.1984	2225.3	1339.3
844.212	890.2352	2273.6	1387.9
844.3572	892.2714	2292.8	1402.8
844.5023	894.3069	2263.25	1376.9
844.6475	896.3416	2196.8	1309.05
844.7926	898.3757	2151.8	1263.1
844.9377	900.4091	2120.4	1231.2
845.0829	902.4418	2132.3	1243.05
845.228	904.4739	2141.1	1251.85
845.3732	906.5052	2167.7	1276.95
845.5183	908.5358	2163.8	1277.15
845.6635	910.5658	2152.55	1265.3
845.8086	912.595	2098.5	1210
845.9538	914.6236	2062.6	1174.55
846.0989	916.6515	2025.75	1139.45
846.2441	918.6786	2006.85	1116.4
846.3892	920.7051	2003.05	1113.45
846.5344	922.7309	1991.95	1104
846.6795	924.756	1993.15	1103.75
846.8246	926.7804	2005.65	1116.1
846.9698	928.8041	2015.4	1124.75
847.1149	930.8272	2036.1	1145.15
847.2601	932.8495	2042.8	1153.1
847.4052	934.8711	2053	1163.15
847.5504	936.892	2063.4	1176.15
847.6955	938.9123	2083.05	1192.8
847.8407	940.9318	2113.3	1224.4
847.9858	942.9506	2145.1	1257.05
848.131	944.9688	2132.2	1241.1
848.2761	946.9862	2101.85	1212.5
848.4213	949.003	2048.35	1157.5
848.5664	951.019	2034.45	1143.25
848.7115	953.0344	2011.2	1121.75
848.8567	955.0491	1996.8	1104.95
849.0018	957.063	1987	1097.7
849.147	959.0763	1975.35	1086.45
849.2921	961.0888	1973.6	1084.4
849.4373	963.1007	1976.6	1084.85
849.5824	965.1119	1981.25	1096.7
849.7275	967.1223	1973.1	1086.1
849.8727	969.1321	1960.1	1076.5
850.0178	971.1412	1948.9	1062.5
850.1629	973.1495	1940.25	1052.5
850.3081	975.1572	1974.5	1051.1
850.4532	977.1641	1942.6	1050.85
850.5983	979.1704	1940.15	1050.95
850.7435	981.1759	1944.45	1051.2
850.8886	983.1808	1936.65	1045.65
851.0337	985.1849	1930.1	1027.5
851.1788	987.1884	1924.8	1030.3
851.324	989.1911	1934.25	1038.9
851.4691	991.1932	1933.95	1039.4
851.6142	993.1945	1937.45	1047.8
851.7593	995.1951	1937.5	1044.7
851.9045	997.1951	1950.9	1052.05
852.0496	999.1943	1941.3	1051
852.1947	1001.1928	1934.1	1038.9
852.3398	1003.1906	1961.25	1068.05
852.4849	1005.1877	1983.7	1089.6
852.63	1007.1841	2003.1	1111.1
852.7751	1009.1798	2022.1	1130.15
852.9202	1011.1748	2007.7	1112.5
853.0653	1013.1691	1982.85	1089.1
853.2104	1015.1627	1941.1	1045.45
853.3555	1017.1556	1905.05	1013.95
853.5006	1019.1477	1881.5	988.65
853.6457	1021.1392	1858	970.6
853.7908	1023.1299	1844.35	955.65
853.9359	1025.12	1854.6	966.9
854.081	1027.1093	1861.55	976.2
854.2261	1029.0979	1877	997.8
854.3712	1031.0859	1907.65	1023.6
854.5163	1033.0731	1924.9	1034.65
854.6613	1035.0596	1917.35	1027.35
854.8064	1037.0454	1923.4	1030
854.9515	1039.0304	1902.85	1010.95
855.0965	1041.0148	1876.15	986.05
855.2416	1042.9985	1857.7	964.95
855.3867	1044.9814	1843	950.55
855.5317	1046.9636	1843.1	948.35
855.6768	1048.9452	1842.85	950.4
855.8219	1050.926	1869.6	978.85
855.9669	1052.9061	1883.9	992.3
856.112	1054.8855	1891.65	999.05
856.257	1056.8642	1892.7	999.25
856.4021	1058.8421	1893.8	996.6
856.5471	1060.8194	1879.95	984.65
856.6921	1062.7959	1879.55	983.3
856.8372	1064.7717	1877.55	983.95
856.9822	1066.7469	1881.95	987.05
857.1272	1068.7213	1879.7	982.9
857.2723	1070.695	1892.4	999.45
857.4173	1072.6679	1914.55	1018.55
857.5623	1074.6402	1938.25	1044.85
857.7073	1076.6117	1959.15	1060.2
857.8523	1078.5826	1937.35	1042.2
857.9973	1080.5527	1897.25	1002.5
858.1423	1082.5221	1855.9	961.15
858.2873	1084.4908	1826.45	932.5
858.4323	1086.4587	1804.1	909.95
858.5773	1088.426	1801.65	905.25
858.7223	1090.3925	1792.75	895.8
858.8673	1092.3584	1810.6	914.8
859.0123	1094.3235	1812.7	919.45
859.1573	1096.2879	1830.75	936.4
859.3022	1098.2515	1854	960.7
859.4472	1100.2145	1888.35	996.15
859.5922	1102.1767	1919.6	1021.15
859.7371	1104.1382	1973.6	1078.8
859.8821	1106.099	2035.95	1136.55
860.027	1108.0591	2083.75	1190.2
860.172	1110.0185	2133.75	1238.8
860.3169	1111.9771	2166.45	1273.1
860.4619	1113.9351	2219.6	1327.2
860.6068	1115.8923	2294.8	1400.25
860.7517	1117.8488	2327	1428.45
860.8967	1119.8045	2281.3	1387.8
861.0416	1121.7596	2181.3	1286.05
861.1865	1123.7139	2049.25	1154.6
861.3314	1125.6675	1983	1087.75
861.4763	1127.6204	1993.4	1099
861.6212	1129.5726	2013.3	1117.9
861.7661	1131.524	2012.15	1117.45
861.911	1133.4748	1966.95	1069.3
862.0559	1135.4248	1899.4	1004.05
862.2008	1137.3741	1847.15	954.6
862.3457	1139.3226	1817.5	922.7
862.4905	1141.2705	1812.1	918.45
862.6354	1143.2176	1827.75	923.65
862.7803	1145.164	1841.35	943.25
862.9251	1147.1097	1842.8	947.5
863.07	1149.0546	1811.6	914.55
863.2148	1150.9989	1790.05	894.7
863.3597	1152.9424	1760.3	864.5
863.5045	1154.8852	1743.8	848.65
863.6493	1156.8272	1742.8	847.05
863.7942	1158.7686	1746.2	844.3
863.939	1160.7092	1737.2	838.7
864.0838	1162.6491	1741.55	842.1
864.2286	1164.5883	1759.6	864
864.3734	1166.5267	1777.25	878.4
864.5182	1168.4644	1802.1	904.75
864.663	1170.4014	1838.1	942.15
864.8078	1172.3377	1867.65	972.15
864.9526	1174.2732	1920.6	1027.7
865.0974	1176.2081	2019.55	1123.05
865.2421	1178.1421	2150.55	1250.1
865.3869	1180.0755	2294.05	1397.75
865.5317	1182.0082	2377.2	1481.7
865.6764	1183.9401	2364.95	1468.15
865.8212	1185.8713	2260.35	1366.15
865.9659	1187.8017	2104.8	1211.45
866.1106	1189.7315	1985.25	1099.35
866.2554	1191.6605	1924.95	1006.4
866.4001	1193.5888	1842.45	952.65
866.5448	1195.5163	1817.95	924.1
866.6895	1197.4432	1793.9	900.85
866.8342	1199.3693	1774.65	880.1
866.9789	1201.2947	1758.55	858.35
867.1236	1203.2193	1747.3	850.1
867.2683	1205.1432	1737.75	841.35
867.413	1207.0664	1742.65	846.8
867.5576	1208.9889	1737.45	839.2
867.7023	1210.9106	1739.8	845.5
867.847	1212.8316	1741.7	847.8
867.9916	1214.7519	1759.95	854.95
868.1363	1216.6715	1759	865.7
868.2809	1218.5903	1782.3	886.2
868.4255	1220.5084	1796.15	899.1
868.5701	1222.4257	1815.35	919.45
868.7148	1224.3424	1817.4	921.75
868.8594	1226.2583	1846.05	946.2
869.004	1228.1735	1875.2	977.8
869.1486	1230.0879	1918.9	1025
869.2932	1232.0016	1952.25	1056.5
869.4377	1233.9146	1993.9	1092.9
869.5823	1235.8269	2023.4	1126.3
869.7269	1237.7384	2025.7	1130.2
869.8715	1239.6492	2008.5	1111.8
870.016	1241.5592	2036.6	1140.55
870.1606	1243.4686	2090.7	1195.8
870.3051	1245.3772	2161.15	1265.3
870.4496	1247.285	2265.2	1370.05
870.5941	1249.1922	2340.6	1444.45
870.7387	1251.0986	2422.6	1526.95
870.8832	1253.0042	2493.85	1596.95
871.0277	1254.9092	2592.2	1695.2
871.1722	1256.8134	2708	1813.3
871.3167	1258.7169	2799.85	1903.4
871.4611	1260.6196	2848.95	1955.05
871.6056	1262.5216	2889.3	1991.65
871.7501	1264.4229	2885.45	1989.65
871.8945	1266.3234	2839.55	1944.7
872.039	1268.2232	2780.05	1881.95
872.1834	1270.1223	2722.4	1825.35
872.3278	1272.0207	2676.95	1781.95
872.4723	1273.9183	2643.3	1739.35
872.6167	1275.8151	2654.25	1758.35
872.7611	1277.7113	2691.5	1795.05
872.9055	1279.6067	2776.2	1880.05
873.0499	1281.5014	2928.5	2028.4
873.1943	1283.3953	3142.25	2240.75
873.3386	1285.2885	3367.9	2471.5
873.483	1287.181	3518.55	2622
873.6274	1289.0727	3604.75	2708.15
873.7717	1290.9637	3555.7	2657.85
873.9161	1292.854	3415.85	2519.25
874.0604	1294.7435	3286.25	2389.2
874.2047	1296.6323	3162.45	2265.65
874.349	1298.5204	3028.3	2127
874.4933	1300.4077	2936.25	2037.95
874.6376	1302.2943	2872.6	1976.75
874.7819	1304.1802	2827.2	1930.25
874.9262	1306.0653	2788.95	1891.3
875.0705	1307.9497	2759.75	1861.65
875.2147	1309.8333	2724.1	1829.25
875.359	1311.7162	2686.7	1787.8
875.5032	1313.5984	2660.2	1761.65
875.6475	1315.4798	2640.2	1732.55
875.7917	1317.3605	2626.4	1724.05
875.9359	1319.2405	2649.05	1747.25
876.0801	1321.1197	2642.5	1741.75
876.2243	1322.9982	2588.3	1685.75
876.3685	1324.876	2511.25	1614.05
876.5127	1326.753	2413.65	1515.2
876.6569	1328.6293	2303.5	1404.3
876.801	1330.5048	2211.3	1309.25
876.9452	1332.3796	2108.55	1211.45
877.0893	1334.2537	2080.15	1154.8
877.2335	1336.127	2004.15	1105.95
877.3776	1337.9996	1963.85	1066.05
877.5217	1339.8714	1944.15	1044.25
877.6658	1341.7426	1952.5	1011.75
877.8099	1343.6129	1903.8	1003.85
877.954	1345.4826	1891.35	994.35
878.0981	1347.3515	1867.9	965.8
878.2422	1349.2196	1843.95	943.8
878.3862	1351.087	1846.55	948.45
878.5303	1352.9537	1833.55	934.75
878.6743	1354.8197	1831.15	933.25
878.8184	1356.6849	1850.1	951.65
878.9624	1358.5493	1860.15	959.55
879.1064	1360.4131	1890.6	992.95
879.2504	1362.276	1931.75	1036.1
879.3944	1364.1383	1974.95	1075.7
879.5384	1365.9998	1992.75	1090.4
879.6823	1367.8606	1975.95	1076.95
879.8263	1369.7206	1970.85	1076.65
879.9702	1371.5799	1968.95	1068.85
880.1142	1373.4384	1964.55	1067
880.2581	1375.2962	1937.3	1036.45
880.402	1377.1533	1885.65	988.05
880.5459	1379.0096	1827.35	931.5
880.6898	1380.8652	1778.7	883.05
880.8337	1382.7201	1743.3	845.45
880.9776	1384.5742	1733.7	835.55
881.1215	1386.4275	1701.35	802.2
881.2653	1388.2802	1681.2	784.05
881.4092	1390.132	1665.65	768.5
881.553	1391.9832	1663.4	765.85
881.6968	1393.8336	1649.85	751
881.8406	1395.6832	1639.3	739.65
881.9844	1397.5322	1630.8	730.9
882.1282	1399.3803	1618.4	714.1
882.272	1401.2278	1615.2	718.8
882.4158	1403.0745	1605.4	709.7
882.5595	1404.9204	1599.3	703.4
882.7033	1406.7656	1600.6	703.25
882.847	1408.6101	1584.6	687.1
882.9908	1410.4538	1584.65	685.6
883.1345	1412.2968	1582.4	683.9
883.2782	1414.139	1579.55	681.8
883.4219	1415.9805	1593.35	695.7
883.5656	1417.8213	1615.4	710
883.7092	1419.6613	1625.4	728.05
883.8529	1421.5006	1661.2	761.25
883.9965	1423.3391	1692.75	794.8
884.1402	1425.1769	1750.65	851.15
884.2838	1427.0139	1838.3	939
884.4274	1428.8502	1932.8	1034
884.571	1430.6858	2007.2	1109.7
884.7146	1432.5206	2044.15	1147.2
884.8582	1434.3547	2029.9	1130.4
885.0018	1436.188	2007.25	1109.55
885.1453	1438.0206	1989.3	1091.5
885.2889	1439.8524	1983.35	1085.55
885.4324	1441.6835	1981.45	1085.5
885.5759	1443.5139	1982.85	1079.65
885.7194	1445.3435	1982.95	1084.85
885.8629	1447.1724	1980.3	1084.4
886.0064	1449.0005	1986.75	1090.85
886.1499	1450.8279	1973.75	1076.75
886.2933	1452.6545	1973	1077.2
886.4368	1454.4804	1968.55	1074
886.5802	1456.3056	1961.7	1057.95
886.7237	1458.13	1937.3	1040.15
886.8671	1459.9536	1910.95	1013.85
887.0105	1461.7766	1865.9	968.6
887.1539	1463.5987	1830.3	929.95
887.2972	1465.4202	1789.4	888.4
887.4406	1467.2409	1742.65	845
887.584	1469.0608	1698.75	803.1
887.7273	1470.88	1667.3	768.4
887.8706	1472.6984	1644.85	749.1
888.0139	1474.5161	1619.05	718.5
888.1572	1476.3331	1600.8	703.3
888.3005	1478.1493	1592.75	695.75
888.4438	1479.9648	1587.1	689.1
888.5871	1481.7795	1583.6	687.15
888.7303	1483.5935	1582.95	689.85
888.8736	1485.4067	1579.8	681.45
889.0168	1487.2192	1594.05	696.7
889.16	1489.031	1590.45	689.9
889.3032	1490.842	1587.45	688.7
889.4464	1492.6522	1581.65	682.4
889.5896	1494.4618	1578.8	681.3
889.7327	1496.2705	1579.1	682.55
889.8759	1498.0785	1572.15	673.9
890.019	1499.8858	1567.15	669.1
890.1622	1501.6924	1554.2	658.3
890.3053	1503.4981	1545.9	647.55
890.4484	1505.3032	1537.05	640.85
890.5914	1507.1075	1539.9	642.4
890.7345	1508.911	1537	639.35
890.8776	1510.7138	1529.1	630.05
891.0206	1512.5159	1521.8	623.55
891.1637	1514.3172	1520.25	625
891.3067	1516.1178	1499.05	602.5
891.4497	1517.9176	1503.4	605
891.5927	1519.7166	1488.5	593.35
891.7357	1521.515	1490.1	587.75
891.8786	1523.3126	1481.35	583.1
892.0216	1525.1094	1484.25	585.95
892.1645	1526.9055	1471.65	578.6
892.3074	1528.7008	1465.05	569.3
892.4503	1530.4954	1464.4	560.85
892.5932	1532.2893	1456.75	564.1
892.7361	1534.0824	1455.2	554.8
892.879	1535.8747	1453.7	555.55
893.0218	1537.6663	1457.25	562.05
893.1647	1539.4572	1452.8	557.75
893.3075	1541.2473	1456	559
893.4503	1543.0367	1452.3	556.65
893.5931	1544.8253	1457	555.6
893.7359	1546.6132	1463.3	564.05
893.8787	1548.4003	1474.55	570.35
894.0214	1550.1867	1480.55	577.2
894.1642	1551.9723	1485.05	584.85
894.3069	1553.7572	1497.5	602.7
894.4496	1555.5414	1508.8	613.15
894.5923	1557.3247	1547.7	652.4
894.735	1559.1074	1575.25	681.25
894.8777	1560.8893	1624.4	730
895.0204	1562.6705	1663.9	769.6
895.163	1564.4509	1702.85	809.3
895.3056	1566.2305	1701.85	811.4
895.4482	1568.0094	1718.35	827.5
895.5908	1569.7876	1707.35	815.3
895.7334	1571.565	1702.25	807.8
895.876	1573.3417	1715.9	823.3
896.0186	1575.1176	1703.8	810.1
896.1611	1576.8928	1717.6	825
896.3036	1578.6672	1743.45	853.5
896.4461	1580.4409	1779.05	889.35
896.5886	1582.2138	1819.25	927.55
896.7311	1583.986	1856.75	963.2
896.8736	1585.7575	1906.55	1014.75
897.0161	1587.5282	1946.65	1057.35
897.1585	1589.2981	1977.85	1086.05
897.3009	1591.0673	1994.4	1104.2
897.4433	1592.8358	1998.65	1107.6
897.5857	1594.6035	2001.95	1105.25
897.7281	1596.3704	1987.9	1094.05
897.8705	1598.1366	1955.85	1066.5
898.0128	1599.9021	1934.7	1043.85
898.1551	1601.6668	1905.9	1012.1
898.2975	1603.4308	1885.25	992.05
898.4398	1605.194	1894.15	998.8
898.5821	1606.9564	1905.75	1013.85
898.7243	1608.7182	1968.95	1077.85
898.8666	1610.4791	2067.4	1180.7
899.0088	1612.2394	2160	1273.05
899.1511	1613.9988	2281.55	1393.7
899.2933	1615.7576	2376.55	1486.45
899.4355	1617.5156	2426.6	1527.7
899.5776	1619.2728	2405.9	1513.25
899.7198	1621.0293	2307.1	1415.35
899.862	1622.785	2185.15	1291.15
900.0041	1624.54	2052.05	1160.65
900.1462	1626.2942	1902.8	1010.85
900.2883	1628.0477	1794.65	901
900.4304	1629.8005	1702.4	805.45
900.5725	1631.5525	1627.2	737.3
900.7145	1633.3037	1570.5	681.55
900.8566	1635.0542	1531.8	640.75
900.9986	1636.804	1497.15	608.25
901.1406	1638.553	1526.25	575.95
901.2826	1640.3013	1448.7	559.95
901.4245	1642.0488	1423.25	532.45
901.5665	1643.7955	1403.6	516.1
901.7085	1645.5416	1390.45	501.95
901.8504	1647.2868	1381	490.45
901.9923	1649.0313	1378.7	489
902.1342	1650.7751	1370.1	475.95
902.2761	1652.5181	1362.4	471.25
902.4179	1654.2604	1365.1	474.05
902.5598	1656.0019	1362.5	474.05
902.7016	1657.7427	1379	487.9
902.8434	1659.4828	1395.65	503.85
902.9852	1661.222	1436.45	543.5
903.127	1662.9606	1468.05	577.3
903.2687	1664.6984	1505.95	613.7
903.4105	1666.4354	1520.1	627.4
903.5522	1668.1717	1507.15	614.55
903.6939	1669.9072	1457	564.75
903.8356	1671.642	1404.75	509.6
903.9773	1673.3761	1365.5	474.3
904.119	1675.1094	1331.45	440.8
904.2606	1676.8419	1311.7	419.15
904.4022	1678.5737	1292.15	399.3
904.5439	1680.3048	1277.8	385.35
904.6855	1682.0351	1273.1	383.45
904.827	1683.7646	1268.85	374.45
904.9686	1685.4934	1255.45	363.25
905.1101	1687.2215	1259.6	368.2
905.2517	1688.9488	1251.5	360.85
905.3932	1690.6754	1246.4	355.15
905.5347	1692.4012	1245.25	352.7
905.6761	1694.1263	1243.55	351.7
905.8176	1695.8506	1235.55	343.4
905.9591	1697.5742	1233.1	342.7
906.1005	1699.297	1227.3	337.3
906.2419	1701.0191	1222.7	333.5
906.3833	1702.7404	1224.2	336.25
906.5246	1704.461	1223.65	332.1
906.666	1706.1808	1220.25	326.75
906.8073	1707.8999	1218.35	325.65
906.9487	1709.6182	1209.9	320.25
907.09	1711.3358	1215.8	327.25
907.2313	1713.0527	1208.8	323.25
907.3725	1714.7688	1215.7	319.95
907.5138	1716.4841	1209.4	319.35
907.655	1718.1987	1210.45	314.15
907.7962	1719.9126	1203.9	315.05
907.9374	1721.6257	1199.4	308.95
908.0786	1723.338	1195.75	306.25
908.2198	1725.0496	1203.65	315.5
908.3609	1726.7605	1201.25	309.05
908.502	1728.4706	1195.05	304.15
908.6431	1730.18	1195.45	304.15
908.7842	1731.8886	1189.55	302.1
908.9253	1733.5964	1207.7	297.95
909.0664	1735.3036	1194.4	303
909.2074	1737.0099	1189.25	301.45
909.3484	1738.7156	1189.7	300.15
909.4894	1740.4204	1187.1	295.35
909.6304	1742.1246	1189.85	298.65
909.7714	1743.8279	1182.75	292.45
909.9123	1745.5306	1184.4	296.05
910.0532	1747.2325	1180.35	291.65
910.1941	1748.9336	1184.1	295.8
910.335	1750.634	1183.6	292
910.4759	1752.3336	1179.15	289.5
910.6168	1754.0325	1175.25	287.45
910.7576	1755.7307	1181.1	291.55
910.8984	1757.4281	1183.2	292.05
911.0392	1759.1247	1185.65	287.7
911.18	1760.8206	1185.6	290.15
911.3208	1762.5158	1184.85	289.7
911.4615	1764.2102	1177.35	288.6
911.6022	1765.9039	1177.65	287.55
911.7429	1767.5968	1175.45	287.65
911.8836	1769.289	1170.95	283.2
912.0243	1770.9804	1174.9	283.7
912.1649	1772.6711	1169.9	278.85
912.3056	1774.361	1173.05	281.6
912.4462	1776.0502	1171.1	279.95
912.5868	1777.7386	1176.3	282.35
912.7274	1779.4263	1169.8	279.2
912.8679	1781.1132	1168.05	280.65
913.0084	1782.7994	1164.2	275.55
913.149	1784.4849	1165.5	277.95
913.2895	1786.1696	1181.1	275.65
913.4299	1787.8535	1165.7	276.05
913.5704	1789.5367	1165.15	277.65
913.7108	1791.2192	1158.75	270.7
913.8513	1792.9009	1186.55	272.65
913.9917	1794.5818	1167.4	274.85
914.132	1796.2621	1160.75	272.5
914.2724	1797.9415	1156.9	267.15
914.4128	1799.6202	1154.85	265.55
914.5531	1801.2982	1163.95	274.4
914.6934	1802.9755	1158.2	269.6
914.8337	1804.6519	1153.35	262.5
914.9739	1806.3277	1151.1	265.2
915.1142	1808.0027	1150.65	266.65
915.2544	1809.6769	1149.15	260.9
915.3946	1811.3504	1149.7	263.55
915.5348	1813.0231	1152.2	265.1
915.675	1814.6951	1147.45	258.95
915.8151	1816.3664	1151.7	260
915.9553	1818.0369	1151.4	261.85
916.0954	1819.7067	1146.4	255.85
916.2355	1821.3757	1150.2	257.9
916.3755	1823.044	1142.75	254.35
916.5156	1824.7115	1150.5	259
916.6556	1826.3783	1149.15	263.1
916.7956	1828.0443	1146.85	258.8
916.9356	1829.7096	1147.65	259.1
917.0756	1831.3741	1148.55	256.4
917.2155	1833.0379	1143.2	255.05
917.3555	1834.701	1143.35	253.5
917.4954	1836.3633	1141.75	254.5
917.6353	1838.0248	1139.45	249.95
917.7751	1839.6856	1140.45	250.95
917.915	1841.3457	1141.05	253.35
918.0548	1843.005	1142.4	253
918.1946	1844.6636	1135.75	247.2
918.3344	1846.3214	1138.9	247.7
918.4742	1847.9785	1134.25	245.95
918.6139	1849.6349	1139.7	248.5
918.7537	1851.2904	1148.4	248.6
918.8934	1852.9453	1139.2	247.9
919.0331	1854.5994	1141.95	249.4
919.1727	1856.2528	1143.3	247.45
919.3124	1857.9054	1138.7	248.65
919.452	1859.5572	1132.45	243.45
919.5916	1861.2083	1129.6	239.9
919.7312	1862.8587	1128	237.35
919.8708	1864.5084	1138	246.35
920.0103	1866.1572	1133.15	243.25
920.1498	1867.8054	1131.05	239.1
920.2893	1869.4528	1131.45	240.3
920.4288	1871.0994	1129.85	238.3
920.5683	1872.7453	1129.85	238.65
920.7077	1874.3905	1137.6	241
920.8471	1876.0349	1129.45	239.4
920.9865	1877.6786	1132	242.6
921.1259	1879.3215	1128.45	240.9
921.2653	1880.9637	1127.75	238.35
921.4046	1882.6051	1127.4	238.45
921.5439	1884.2458	1124.65	233.15
921.6832	1885.8858	1122.2	232.6
921.8225	1887.525	1125.65	234.1
921.9617	1889.1634	1119.7	229.9
922.101	1890.8011	1123	233.7
922.2402	1892.4381	1120.85	231
922.3794	1894.0743	1118.6	228.3
922.5185	1895.7098	1118.9	229.1
922.6577	1897.3446	1122.9	233.5
922.7968	1898.9786	1121.35	229.8
922.9359	1900.6118	1115.15	225.6
923.075	1902.2443	1118	226.35
923.214	1903.8761	1119.65	227.5
923.3531	1905.5071	1119.25	228.3
923.4921	1907.1374	1111.05	223.75
923.6311	1908.7669	1112.75	224.6
923.77	1910.3957	1113.75	223.5
923.909	1912.0237	1111.15	223.65
924.0479	1913.651	1111.8	221.4
924.1868	1915.2776	1109.65	222.45
924.3257	1916.9034	1110.2	222.25
924.4646	1918.5285	1110.55	223.65
924.6034	1920.1528	1109.5	219.3
924.7422	1921.7764	1109.5	221.5
924.881	1923.3992	1107.8	218.85
925.0198	1925.0213	1105.4	215.5
925.1586	1926.6427	1101.25	213.95
925.2973	1928.2633	1325.05	221.9
925.436	1929.8832	1106.3	213.3
925.5747	1931.5023	1105.6	214.75
925.7134	1933.1207	1107.1	218.95
925.852	1934.7383	1104.7	213.75
925.9906	1936.3552	1099.55	211.4
926.1292	1937.9714	1105	217.6
926.2678	1939.5868	1101.65	209.65
926.4064	1941.2015	1101.5	212.3
926.5449	1942.8154	1095.05	206.7
926.6834	1944.4286	1099.45	208.45
926.8219	1946.041	1122.35	209.1
926.9604	1947.6528	1103.2	209.45
927.0988	1949.2637	1095.6	206.8
927.2372	1950.8739	1093.85	206.55
927.3756	1952.4834	1099.5	210.35
927.514	1954.0921	1092.25	203.85
927.6523	1955.7001	1097.6	204.95
927.7907	1957.3074	1090.2	202.55
927.929	1958.9139	1087.25	202
928.0673	1960.5197	1098.7	208.5
928.2055	1962.1247	1092.95	204.25
928.3438	1963.729	1088.05	201.35
928.482	1965.3325	1111.65	200.5
928.6202	1966.9353	1089.65	202.9
928.7584	1968.5374	1089.7	203.9
928.8965	1970.1387	1088.3	202.1
929.0346	1971.7393	1084.8	198.9
929.1727	1973.3392	1085.95	199.1
929.3108	1974.9383	1084.4	197.8
929.4489	1976.5366	1078.25	193.15
929.5869	1978.1342	1087.05	202.25
929.7249	1979.7311	1084.3	196.25
929.8629	1981.3273	1083	197.9
930.0009	1982.9227	1081.8	194.45
930.1388	1984.5173	1079.35	195.05
930.2767	1986.1112	1077.45	193.1
930.4146	1987.7044	1076.35	193.4
930.5525	1989.2968	1079.7	194.1
930.6904	1990.8885	1078.75	190.85
930.8282	1992.4795	1078.05	191.7
930.966	1994.0697	1069.05	186.85
931.1038	1995.6592	1076.35	191.3
931.2415	1997.2479	1078.8	191.85
931.3793	1998.8359	1074.8	191.25
931.517	2000.4232	1071.4	189.75
931.6547	2002.0097	1069.45	188.8
931.7923	2003.5955	1067.1	181.85
931.93	2005.1805	1070.2	184.85
932.0676	2006.7648	1069.6	187.7
932.2052	2008.3484	1070.4	188.3
932.3427	2009.9312	1072.6	190.5
932.4803	2011.5133	1068.4	186.9
932.6178	2013.0946	1067.2	186.35
932.7553	2014.6752	1067.55	185.7
932.8928	2016.2551	1064.2	180.2
933.0302	2017.8342	1072.45	189.95
933.1676	2019.4126	1066.25	184.25
933.305	2020.9902	1068.6	188.2
933.4424	2022.5672	1068.25	186.05
933.5798	2024.1433	1071.3	185.5
933.7171	2025.7188	1063.05	182.85
933.8544	2027.2935	1067.9	185.75
933.9917	2028.8674	1063.35	181.95
934.129	2030.4406	1061.95	180.75
934.2662	2032.0131	1058	178.75
934.4034	2033.5849	1066	180.2
934.5406	2035.1559	1063.25	182.9
934.6778	2036.7261	1062.05	179.05
934.8149	2038.2957	1065.2	181.5
934.952	2039.8645	1063.5	179.9
935.0891	2041.4325	1062.9	175.9
935.2262	2042.9998	1058.9	177.65
935.3632	2044.5664	1061.4	176.6
935.5002	2046.1323	1058.2	175.75
935.6372	2047.6974	1058.5	179.2
935.7742	2049.2617	1056.55	174.3
935.9111	2050.8254	1078.9	173.9
936.048	2052.3883	1061.85	176.4
936.1849	2053.9504	1064.55	180.9
936.3218	2055.5118	1060.7	176.3
936.4586	2057.0725	1055.8	169.75
936.5955	2058.6325	1060.1	176.35
936.7323	2060.1917	1054.7	173.85
936.869	2061.7502	1062.55	179.35
937.0058	2063.3079	1056.7	177.2
937.1425	2064.8649	1061.25	176.8
937.2792	2066.4212	1053.75	171.05
937.4159	2067.9767	1053.25	170.25
937.5525	2069.5315	1058.85	178.25
937.6891	2071.0856	1052.25	169.05
937.8257	2072.6389	1055.4	172.1
937.9623	2074.1915	1051.25	171.4
938.0989	2075.7433	1053.2	167.4
938.2354	2077.2945	1051.5	171.95
938.3719	2078.8448	1051.15	168.35
938.5084	2080.3945	1052.85	169.6
938.6448	2081.9434	1052.1	169.45
938.7812	2083.4916	1056.25	171.35
938.9176	2085.039	1055.65	169
939.054	2086.5857	1057.9	170.75
939.1903	2088.1317	1051.8	166.7
939.3267	2089.677	1054.95	167.75
939.463	2091.2215	1052.75	166.9
939.5992	2092.7652	1055.6	169.2
939.7355	2094.3083	1055.45	169.3
939.8717	2095.8506	1048.2	164.85
940.0079	2097.3921	1051.1	166.15
940.1441	2098.933	1052.1	165.9
940.2802	2100.4731	1047.95	164.6
940.4163	2102.0124	1071.5	166.2
940.5524	2103.5511	1051.6	168.7
940.6885	2105.089	1051.9	167.15
940.8245	2106.6261	1048.65	165.45
940.9606	2108.1626	1049.8	165.85
941.0965	2109.6983	1079.6	167.1
941.2325	2111.2332	1050.3	166.65
941.3684	2112.7675	1050.15	166.25
941.5044	2114.301	1053.15	168.2
941.6403	2115.8337	1045.7	163.85
941.7761	2117.3657	1049.1	162.6
941.912	2118.897	1047.15	161.8
942.0478	2120.4276	1055.05	164.25
942.1835	2121.9575	1053	168.9
942.3193	2123.4866	1061.2	163.1
942.455	2125.0149	1046.6	159
942.5907	2126.5426	1047.15	164.3
942.7264	2128.0695	1048.5	162.55
942.8621	2129.5956	1042.7	161.55
942.9977	2131.1211	1049.85	164.75
943.1333	2132.6458	1045	161.85
943.2689	2134.1698	1042.7	157.15
943.4044	2135.693	1048.05	160.6
943.54	2137.2155	1049.6	164.15
943.6755	2138.7373	1045.8	162.35
943.8109	2140.2584	1043.7	161.55
943.9464	2141.7787	1046.55	161.25
944.0818	2143.2983	1037.55	159.2
944.2172	2144.8171	1038.25	157.35
944.3526	2146.3353	1041.45	157.35
944.4879	2147.8527	1042.3	161.1
944.6232	2149.3693	1043.85	159.2
944.7585	2150.8853	1044.4	160.25
944.8938	2152.4005	1044.15	159
945.029	2153.9149	1038.8	154.85
945.1642	2155.4287	1040.05	156.4
945.2994	2156.9417	1040.1	153.5
945.4346	2158.454	1040.6	155.9
945.5697	2159.9655	1039	157.7
945.7048	2161.4764	1036.8	154.35
945.8399	2162.9865	1035.25	153.25
945.9749	2164.4958	1038.3	154.85
946.1099	2166.0045	1037	151.25
946.2449	2167.5124	1034.25	152.3
946.3799	2169.0195	1037.6	152.7
946.5148	2170.526	1037.5	152.2
946.6498	2172.0317	1038.4	152.9
946.7846	2173.5367	1039.45	156.1
946.9195	2175.0409	1034.7	151.45
947.0543	2176.5445	1039.25	154.6
947.1891	2178.0473	1034.15	150.3
947.3239	2179.5494	1041.15	155.45
947.4587	2181.0507	1035.25	150.95
947.5934	2182.5513	1036.55	153
947.7281	2184.0512	1037.8	156.1
947.8628	2185.5504	1036.25	153.5
947.9974	2187.0488	1032.95	149.05
948.132	2188.5465	1030.05	148.05
948.2666	2190.0435	1031.1	147.25
948.4012	2191.5397	1029.2	145.75
948.5357	2193.0353	1029.8	146.6
948.6702	2194.5301	1033.55	146.6
948.8047	2196.0241	1032.85	147.05
948.9392	2197.5175	1033.8	147.7
949.0736	2199.0101	1032.65	142.9
949.208	2200.502	1029.7	147.35
949.3424	2201.9931	1029.15	143.8
949.4767	2203.4835	1026.7	143.25
949.611	2204.9733	1046.3	145.3
949.7453	2206.4622	1028.85	146.7
949.8796	2207.9505	1030.55	147.6
950.0138	2209.438	1025.35	146.15
950.148	2210.9248	1029.9	147.15
950.2822	2212.4109	1024.3	142.45
950.4164	2213.8962	1029.4	143.9
950.5505	2215.3809	1025.6	138.85
950.6846	2216.8648	1026.65	139.3
950.8186	2218.3479	1033.85	142.9
950.9527	2219.8304	1031.25	140.5
951.0867	2221.3121	1028.75	141.75
951.2207	2222.7931	1027.65	144.65
951.3546	2224.2733	1024.95	140.5
951.4886	2225.7529	1020.5	138.3
951.6225	2227.2317	1026.6	139.6
951.7563	2228.7098	1021.65	138.25
951.8902	2230.1872	1018.45	136.1
952.024	2231.6638	1020.6	140.25
952.1578	2233.1397	1027.55	140.15
952.2916	2234.6149	1019.45	136.55
952.4253	2236.0894	1018.5	133.4
952.559	2237.5632	1033	139.85
952.6927	2239.0362	1019.1	138
952.8263	2240.5085	1018.05	133.55
952.9599	2241.9801	1018.75	135.35
953.0935	2243.4509	1019.05	135.8
953.2271	2244.921	1019.1	135.45
953.3606	2246.3904	1017.2	131.05
953.4941	2247.8591	1015.55	132
953.6276	2249.3271	1014.8	131.3
953.7611	2250.7943	1020.4	136.35
953.8945	2252.2608	1013.05	129.35
954.0279	2253.7266	1017.3	133.75
954.1612	2255.1917	1015.5	130.3
954.2946	2256.656	1016.4	131.85
954.4279	2258.1197	1011.2	128.8
954.5612	2259.5826	1010.95	126.45
954.6944	2261.0447	1013.75	130.3
954.8276	2262.5062	1011.9	124.8
954.9608	2263.9669	1015.45	129.8
955.094	2265.4269	1009	125.75
955.2271	2266.8862	1013	131.55
955.3602	2268.3448	1010.35	127.2
955.4933	2269.8026	1014.8	133.15
955.6264	2271.2598	1009.85	126.45
955.7594	2272.7162	1011	129.8
955.8924	2274.1719	1013.95	131.8
956.0253	2275.6268	1010.5	125
956.1583	2277.0811	1013.5	127.7
956.2912	2278.5346	1011.4	129.5
956.4241	2279.9874	1008.85	126.65
956.5569	2281.4395	1006.45	124.15
956.6897	2282.8908	1016.7	128.95
956.8225	2284.3414	1012.7	128.1
956.9553	2285.7914	1011.35	131
957.088	2287.2406	1009.3	124
957.2207	2288.689	1008.6	124.2
957.3534	2290.1368	1010.95	125.95
957.486	2291.5838	1009.8	122.85
957.6186	2293.0302	1012.85	126.45
957.7512	2294.4758	1009.5	124.85
957.8838	2295.9206	1011.55	125.6
958.0163	2297.3648	1006.7	122.75
958.1488	2298.8082	1007.65	121.3
958.2813	2300.251	1006.6	122.7
958.4137	2301.693	1009.9	121.6
958.5461	2303.1343	1006.65	121.75
958.6785	2304.5748	1008.65	124
958.8108	2306.0147	1004.8	120.6
958.9432	2307.4538	1005.4	120.65
959.0754	2308.8922	1002.55	121.95
959.2077	2310.3299	1006.25	124.1
959.3399	2311.7669	1006.6	122.5
959.4721	2313.2031	1004.65	121.05
959.6043	2314.6387	1002.5	117.35
959.7365	2316.0735	1004.4	120.65
959.8686	2317.5076	1004.05	120.9
960.0006	2318.941	1001.55	117.2
960.1327	2320.3737	1006.7	121.8
960.2647	2321.8056	1003.6	117.25
960.3967	2323.2369	1005.8	121.6
960.5287	2324.6674	1008.9	124.3
960.6606	2326.0972	1010.75	125.2
960.7925	2327.5263	1011.2	128.15
960.9244	2328.9547	1014.05	130
961.0562	2330.3823	1015.9	130.6
961.1881	2331.8092	1010.35	123.05
961.3198	2333.2355	1001.45	116.6
961.4516	2334.661	1004.65	118.15
961.5833	2336.0858	1003.6	119.4
961.715	2337.5098	998.4	114.65
961.8467	2338.9332	996.45	111.4
961.9783	2340.3558	1001.85	113.6
962.1099	2341.7778	998.65	115.7
962.2415	2343.199	996.5	110.1
962.373	2344.6195	1000.55	116.75
962.5045	2346.0393	995.75	116.55
962.636	2347.4583	1001.1	116.95
962.7675	2348.8767	998.55	113.65
962.8989	2350.2943	992.95	106
963.0303	2351.7113	1000.85	112.3
963.1617	2353.1275	997	108.65
963.293	2354.543	1022.85	113.5
963.4243	2355.9578	997.3	110.6
963.5556	2357.3718	993.1	107.25
963.6868	2358.7852	995.95	110.4
963.818	2360.1978	996.35	111.4
963.9492	2361.6098	991.4	106.2
964.0803	2363.021	1000.1	113.1
964.2114	2364.4315	995.75	111.9
964.3425	2365.8413	1003.5	113.45
964.4736	2367.2504	990.35	107
964.6046	2368.6587	992.7	109.05
964.7356	2370.0664	992.55	107.75
964.8666	2371.4733	992.8	107.7
964.9975	2372.8795	991.15	106.4
965.1284	2374.285	995.75	110.05
965.2593	2375.6899	992.3	108.05
965.3901	2377.0939	993.85	109.4
965.5209	2378.4973	993.6	108.9
965.6517	2379.9	991.8	106.05
965.7825	2381.3019	990.65	104.95
965.9132	2382.7032	990.7	106.9
966.0439	2384.1037	986.4	100.35
966.1745	2385.5035	989.2	105.3
966.3051	2386.9027	988.35	107.1
966.4357	2388.3011	991.55	103.4
966.5663	2389.6987	990.55	102.75
966.6968	2391.0957	985.9	99.75
966.8273	2392.492	990.2	106.85
966.9578	2393.8876	986.45	100
967.0882	2395.2824	987.1	101.05
967.2186	2396.6765	985.3	99.9
967.349	2398.07	987.2	100.85
967.4793	2399.4627	987.55	98.7
967.6097	2400.8547	988.55	102.15
967.7399	2402.246	992.15	99.5
967.8702	2403.6366	988.45	103.9
968.0004	2405.0265	985.4	101.1
968.1306	2406.4156	986.85	98.65
968.2607	2407.8041	987.6	97.6
968.3909	2409.1918	987.2	98.7
968.521	2410.5789	983.9	97.6
968.651	2411.9652	989.9	98.95
968.781	2413.3508	985.15	99.05
968.911	2414.7358	987.35	101.05
969.041	2416.12	981.95	96.75
969.1709	2417.5035	983.1	96
969.3008	2418.8863	984.7	97.75
969.4307	2420.2684	984.45	97.7
969.5606	2421.6497	985.45	96.75
969.6904	2423.0304	980.8	95.55
969.8201	2424.4104	979.55	92.7
969.9499	2425.7896	983.9	90.9
970.0796	2427.1682	984.2	97.3
970.2093	2428.546	982.6	95.05
970.3389	2429.9232	984.9	97.5
970.4685	2431.2996	983.55	97.2
970.5981	2432.6753	982.35	95.55
970.7277	2434.0503	979.55	93.85
970.8572	2435.4246	979	91.1
970.9867	2436.7982	979.8	94.3
971.1161	2438.1711	978.75	92.85
971.2456	2439.5433	984.35	98
971.375	2440.9148	980.4	92.95
971.5043	2442.2856	976.45	91.6
971.6336	2443.6557	977.8	92.7
971.7629	2445.025	974.6	87.1
971.8922	2446.3937	978.1	91.55
972.0214	2447.7617	978.1	92.35
972.1506	2449.1289	975.5	90.4
972.2798	2450.4955	985.05	95.05
972.4089	2451.8613	974.85	88.4
972.538	2453.2265	978.15	93.15
972.6671	2454.5909	974.7	89.8
972.7961	2455.9546	972.7	88.75
972.9251	2457.3177	976.85	92.35
973.0541	2458.68	975.95	90.25
973.1831	2460.0416	976.5	91.3
973.312	2461.4025	975.55	88.95
973.4408	2462.7627	989.4	90.9
973.5697	2464.1222	973.65	90.3
973.6985	2465.4811	975.85	88.85
973.8273	2466.8392	973.95	89.3
973.956	2468.1966	975	88.05
974.0847	2469.5533	974.35	85.8
974.2134	2470.9093	972	83.9
974.3421	2472.2645	976.65	89.7
974.4707	2473.6191	974.15	86.65
974.5993	2474.973	971.85	87.4
974.7278	2476.3262	972.65	85.55
974.8563	2477.6787	975.35	90.2
974.9848	2479.0305	974.25	90.45
975.1132	2480.3816	974.5	87.7
975.2417	2481.7319	972.5	87.25
975.37	2483.0816	973.85	85.95
975.4984	2484.4306	970.35	85.55
975.6267	2485.7789	972.25	88.65
975.755	2487.1264	972.1	87
975.8833	2488.4733	970.8	86.95
976.0115	2489.8195	976.85	83.3
976.1397	2491.165	977.9	87.95
976.2678	2492.5097	974.2	90.05
976.3959	2493.8538	971.75	87.4
976.524	2495.1972	968.75	83
976.6521	2496.5398	971.75	86.05
976.7801	2497.8818	968.7	81.15
976.9081	2499.2231	969.05	84.5
977.036	2500.5637	972.15	86.8
977.164	2501.9035	971.5	86
977.2918	2503.2427	973.8	83.5
977.4197	2504.5812	971.35	86.2
977.5475	2505.919	970.95	85.15
977.6753	2507.256	968.4	83.65
977.8031	2508.5924	964.25	79.7
977.9308	2509.9281	970.45	79.2
978.0585	2511.2631	966.75	83.3
978.1861	2512.5974	969.05	84.2
978.3137	2513.9309	967.15	82.8
978.4413	2515.2638	995	84.85
978.5689	2516.596	965.7	79.6
978.6964	2517.9275	964.85	77.95
978.8239	2519.2583	967.65	81.15
978.9513	2520.5884	966.55	79.75
979.0788	2521.9178	964.15	79.6
979.2062	2523.2465	964.1	80.4
979.3335	2524.5745	962.95	77.75
979.4608	2525.9018	962.15	77.1
979.5881	2527.2284	963.15	79.05
979.7154	2528.5543	965.2	83.85
979.8426	2529.8796	965.5	79.8
979.9698	2531.2041	965.5	80.25
980.0969	2532.5279	962.5	80.15
980.224	2533.851	962.85	77.7
980.3511	2535.1735	961.5	77.65
980.4781	2536.4952	964.15	76.85
980.6052	2537.8163	963.45	77.3
980.7321	2539.1366	963.8	81.3
980.8591	2540.4562	965.2	78.15
980.986	2541.7752	963.9	81.05
981.1129	2543.0935	960.9	76.1
981.2397	2544.411	962.75	77.85
981.3665	2545.7279	962.9	79.65
981.4933	2547.0441	959.05	72.6
981.62	2548.3596	964.1	75.25
981.7467	2549.6744	962.15	77.95
981.8734	2550.9885	967.1	72.4
982.0001	2552.3019	962.05	77.5
982.1267	2553.6146	961.2	75.5
982.2532	2554.9266	962.65	77.4
982.3798	2556.2379	961.75	76.25
982.5063	2557.5485	960.15	76.05
982.6327	2558.8585	966.55	75.05
982.7592	2560.1677	965.25	75.75
982.8856	2561.4762	959.65	74.4
983.0119	2562.7841	963.55	76.4
983.1383	2564.0913	958.9	76.15
983.2646	2565.3977	958.7	75.8
983.3908	2566.7035	959.4	72.75
983.517	2568.0086	961.15	73.95
983.6432	2569.313	959.9	74.75
983.7694	2570.6167	962.05	74.65
983.8955	2571.9197	961.45	76.8
984.0216	2573.222	960.2	69.55
984.1476	2574.5236	959.3	72.95
984.2737	2575.8246	961.4	75.55
984.3996	2577.1248	962.35	74.05
984.5256	2578.4244	959.5	75.4
984.6515	2579.7232	957.9	69.5
984.7774	2581.0214	984.2	71.55
984.9032	2582.3189	958.1	73.85
985.029	2583.6157	963.05	73.9
985.1548	2584.9118	959	74.85
985.2806	2586.2072	958.2	75.5
985.4063	2587.5019	958.6	76.05
985.5319	2588.7959	959.1	73.55
985.6576	2590.0893	959.95	73.3
985.7832	2591.3819	957.75	71.8
985.9087	2592.6739	961.2	76.35
986.0343	2593.9652	961.6	74.3
986.1597	2595.2557	956.7	71
986.2852	2596.5456	960.9	72.6
986.4106	2597.8348	961.9	79.65
986.536	2599.1234	956.35	71.85
986.6614	2600.4112	957.75	74.75
986.7867	2601.6983	961.8	73.75
986.912	2602.9848	958.1	74.3
987.0372	2604.2705	966.15	74.1
987.1624	2605.5556	958.45	73.05
987.2876	2606.84	954.55	69.35
987.4128	2608.1237	957.4	72.35
987.5379	2609.4067	956.9	72.35
987.6629	2610.689	964.15	69.15
987.788	2611.9707	962.2	74.35
987.913	2613.2516	960.65	73.15
988.0379	2614.5319	955.1	69.3
988.1629	2615.8115	952.95	70.1
988.2878	2617.0903	955.55	70.95
988.4126	2618.3685	951.95	67.8
988.5375	2619.6461	953.4	66.25
988.6622	2620.9229	953.7	70.9
988.787	2622.199	953.5	68
988.9117	2623.4745	955.75	70.2
989.0364	2624.7493	953.1	68.2
989.161	2626.0234	952.15	69.1
989.2857	2627.2968	951.25	66.7
989.4102	2628.5695	951.55	64.6
989.5348	2629.8415	955.4	71.7
989.6593	2631.1128	954.9	69.7
989.7837	2632.3835	951.6	67.05
989.9082	2633.6535	952.95	67.85
990.0326	2634.9228	951.1	68.45
990.1569	2636.1914	952.15	66.1
990.2812	2637.4593	953.85	68.7
990.4055	2638.7265	949.35	63.45
990.5298	2639.9931	951	67.25
990.654	2641.259	951.6	64.65
990.7782	2642.5242	949.45	64.6
990.9023	2643.7887	949.25	64.4
991.0264	2645.0525	947.65	63.75
991.1505	2646.3156	951.5	66.5
991.2745	2647.5781	948.75	63.8
991.3985	2648.8398	948.85	68.45
991.5225	2650.1009	985.8	62.95
991.6464	2651.3613	950.8	65.25
991.7703	2652.6211	948.7	67.05
991.8942	2653.8801	947.1	64.6
992.018	2655.1385	951.05	63.75
992.1418	2656.3961	946.15	63.2
992.2655	2657.6531	946.3	62.15
992.3892	2658.9094	948.6	64.15
992.5129	2660.1651	946.9	62.9
992.6366	2661.42	946.25	62.65
992.7602	2662.6743	946.8	62.05
992.8837	2663.9279	946.2	62.65
993.0073	2665.1808	947.05	62.6
993.1307	2666.433	950	66
993.2542	2667.6846	947.8	64.55
993.3776	2668.9354	949.25	62.1
993.501	2670.1856	946.45	60.1
993.6244	2671.4351	948.1	64.1
993.7477	2672.6839	949.35	62.75
993.8709	2673.9321	945.65	59.65
993.9942	2675.1795	952.85	67.85
994.1174	2676.4263	949.55	66.65
994.2405	2677.6724	949.6	66.55
994.3637	2678.9179	950.25	65.05
994.4868	2680.1626	949.05	63.3
994.6098	2681.4067	947.85	63.05
994.7328	2682.6501	948.7	65.4
994.8558	2683.8928	947.7	64
994.9788	2685.1348	946.1	63.55
995.1017	2686.3761	944.25	59.95
995.2245	2687.6168	945.6	63.7
995.3474	2688.8568	943.2	62.15
995.4702	2690.0961	943.95	60.5
995.5929	2691.3348	944.4	61.4
995.7156	2692.5727	942.1	57.8
995.8383	2693.81	942.3	58.9
995.961	2695.0466	942.1	60.4
996.0836	2696.2826	946.4	61.15
996.2062	2697.5178	944.45	56.35
996.3287	2698.7524	939.95	57.55
996.4512	2699.9863	946.6	61.85
996.5737	2701.2195	940.45	54.9
996.6961	2702.452	944.1	61.7
996.8185	2703.6839	946	60.25
996.9408	2704.9151	942.25	59.25
997.0631	2706.1456	946	64.35
997.1854	2707.3755	946.25	62.55
997.3077	2708.6046	945.9	58.95
997.4299	2709.8331	944.5	59.8
997.552	2711.0609	945.7	61
997.6742	2712.2881	947.15	64.95
997.7963	2713.5145	964.2	70.4
997.9183	2714.7403	947	64.1
998.0403	2715.9654	949.35	65.3
998.1623	2717.1899	959.85	61.75
998.2842	2718.4136	947.2	63.85
998.4062	2719.6367	951.2	67.9
998.528	2720.8591	957.65	67.45
998.6498	2722.0809	955	70.35
998.7716	2723.3019	957.75	70.7
998.8934	2724.5223	953.8	68.15
999.0151	2725.7421	954.75	69.3
999.1368	2726.9611	957.65	70.4
999.2584	2728.1795	957.3	70.45
999.38	2729.3972	947.45	65.4
999.5016	2730.6142	962.1	66.4
999.6231	2731.8306	948.4	65.15
999.7446	2733.0462	950.45	66.25
999.8661	2734.2612	953.35	65.7
999.9875	2735.4756	945.55	60.65
1000.1089	2736.6892	944.85	61.55
1000.2302	2737.9022	941.8	60.35
1000.3515	2739.1145	939.8	55.25
1000.4728	2740.3262	947.95	57.9
1000.594	2741.5372	942.3	58.35
1000.7152	2742.7475	939.5	55.25
1000.8363	2743.9571	940.5	58.75
1000.9575	2745.1661	940.75	52.1
1001.0785	2746.3744	939.75	55.65
1001.1996	2747.582	937	53.9
1001.3206	2748.7889	939	53.8
1001.4415	2749.9952	935.6	52.45
1001.5625	2751.2008	934.5	50.4
1001.6833	2752.4057	938.3	54.2
1001.8042	2753.61	933.6	48.95
1001.925	2754.8136	938.5	54.85
1002.0458	2756.0165	937.3	54.5
1002.1665	2757.2188	930.65	50.2
1002.2872	2758.4204	933.75	50.45
1002.4078	2759.6213	936.75	52.1
1002.5285	2760.8215	939.2	51.85
1002.649	2762.0211	939.55	55.95
1002.7696	2763.22	939.25	53.6
1002.8901	2764.4182	935.2	50.8
1003.0106	2765.6158	933.45	49.85
1003.131	2766.8127	934.75	52.4
1003.2514	2768.009	930.25	47.4
1003.3717	2769.2045	932.95	49.45
1003.492	2770.3994	935.65	52.35
1003.6123	2771.5936	930.25	47.5
1003.7325	2772.7872	927.4	44.15
1003.8527	2773.9801	929.45	43.55
1003.9729	2775.1723	944.3	42.9
1004.093	2776.3639	931.4	47.8
1004.2131	2777.5548	933.7	48.2
1004.3331	2778.745	931	44.15
1004.4531	2779.9346	929.15	46.85
1004.5731	2781.1235	931.25	48.4
1004.693	2782.3117	928.3	46.25
1004.8129	2783.4992	929.3	46.35
1004.9328	2784.6861	929.6	48.7
1005.0526	2785.8723	930.2	46.25
1005.1723	2787.0579	928.95	49.1
1005.2921	2788.2428	927.9	43.35
1005.4118	2789.427	929.5	48.3
1005.5314	2790.6106	930.2	47.4
1005.651	2791.7935	928.95	45.05
1005.7706	2792.9757	929.9	48.4
1005.8902	2794.1573	931.35	45.2
1006.0097	2795.3382	929.9	47.85
1006.1291	2796.5184	930.1	48.85
1006.2485	2797.698	932	49.7
1006.3679	2798.8769	933.75	52.8
1006.4873	2800.0551	930.2	47.1
1006.6066	2801.2327	934.6	49.2
1006.7258	2802.4096	930.4	48.6
1006.8451	2803.5859	932.25	49.3
1006.9642	2804.7615	932.45	47.55
1007.0834	2805.9364	933.4	52.4
1007.2025	2807.1106	933.3	51.35
1007.3216	2808.2842	935.6	51.7
1007.4406	2809.4572	938.15	55.8
1007.5596	2810.6294	937.75	54.4
1007.6785	2811.801	941.25	60.15
1007.7975	2812.972	939	59.8
1007.9163	2814.1423	943.2	60.9
1008.0352	2815.3119	946.35	62.55
1008.154	2816.4808	946.95	65.1
1008.2727	2817.6491	952.3	67.3
1008.3914	2818.8167	952.7	71.85
1008.5101	2819.9837	967.5	78.3
1008.6288	2821.15	964.85	82.6
1008.7474	2822.3157	970.6	89.7
1008.8659	2823.4807	976.05	93.15
1008.9844	2824.645	989.55	105.85
1009.1029	2825.8086	991.9	111.85
1009.2214	2826.9716	1002.45	118.75
1009.3398	2828.134	1011.25	131.5
1009.4581	2829.2957	1019.3	137.7
1009.5764	2830.4567	1026.2	145.5
1009.6947	2831.617	1033.55	150.45
1009.813	2832.7767	1033.75	151.55
1009.9312	2833.9358	1034.05	154.5
1010.0493	2835.0941	1034.05	148.2
1010.1675	2836.2519	1030.05	151.3
1010.2855	2837.4089	1022.75	140.65
1010.4036	2838.5653	1021.9	140.75
1010.5216	2839.7211	1015.85	134.25
1010.6396	2840.8761	1017.2	131.95
1010.7575	2842.0306	1013.95	132.9
1010.8754	2843.1843	1012.25	130.3
1010.9932	2844.3374	1014.05	131.6
1011.111	2845.4899	1020.05	138.95
1011.2288	2846.6417	1015.6	132.3
1011.3465	2847.7928	1022.1	139.85
1011.4642	2848.9433	1023.1	141.5
1011.5818	2850.0931	1024.15	142.5
1011.6995	2851.2422	1028.2	145.2
1011.817	2852.3907	1025.5	143.3
1011.9345	2853.5385	1025.25	141.7
1012.052	2854.6857	1050	142
1012.1695	2855.8323	1032.15	150.2
1012.2869	2856.9781	1037.05	155.65
1012.4042	2858.1233	1035.75	153.75
1012.5216	2859.2679	1041.3	160.5
1012.6389	2860.4118	1044.1	163.4
1012.7561	2861.555	1051.8	166.35
1012.8733	2862.6976	1050.65	169.5
1012.9905	2863.8395	1049.85	168.5
1013.1076	2864.9808	1055.25	174
1013.2247	2866.1214	1051.75	172.05
1013.3417	2867.2614	1053.8	171.85
1013.4587	2868.4007	1066.05	184
1013.5757	2869.5393	1062.8	179.65
1013.6926	2870.6773	1067.85	182.25
1013.8095	2871.8146	1072.85	188.7
1013.9263	2872.9513	1069.6	184.35
1014.0431	2874.0874	1073.15	191.6
1014.1599	2875.2227	1072.7	191.05
1014.2766	2876.3574	1077.75	193.65
1014.3933	2877.4915	1075.3	197
1014.51	2878.6249	1080.35	198.1
1014.6266	2879.7577	1084.55	202.15
1014.7431	2880.8898	1096.45	205.95
1014.8596	2882.0212	1089.15	208.65
1014.9761	2883.152	1086.8	204.3
1015.0925	2884.2821	1092.05	211.45
1015.2089	2885.4116	1093.55	212.9
1015.3253	2886.5405	1094.2	212.7
1015.4416	2887.6686	1099.35	215.65
1015.5579	2888.7962	1097.5	218.25
1015.6741	2889.923	1097.15	215.75
1015.7903	2891.0493	1096.95	216.6
1015.9065	2892.1748	1095.4	213.85
1016.0226	2893.2997	1097.05	214.4
1016.1387	2894.424	1096.05	214.8
1016.2547	2895.5476	1098.2	217.25
1016.3707	2896.6706	1095.9	215.95
1016.4866	2897.7929	1102.15	221.2
1016.6025	2898.9145	1096.9	214.35
1016.7184	2900.0355	1101.85	219.05
1016.8342	2901.1559	1097.1	215.1
1016.95	2902.2756	1101.8	216.8
1017.0658	2903.3946	1095.25	214.25
1017.1815	2904.513	1095.05	209.35
1017.2971	2905.6308	1090.2	210.55
1017.4127	2906.7479	1097	214.85
1017.5283	2907.8643	1089.25	208.6
1017.6439	2908.9801	1090.9	207.75
1017.7594	2910.0953	1095.4	214.35
1017.8748	2911.2098	1099.85	216.45
1017.9902	2912.3236	1101.55	210.35
1018.1056	2913.4368	1098.45	212.6
1018.2209	2914.5494	1090.7	209.4
1018.3362	2915.6613	1096.3	208.5
1018.4515	2916.7725	1088.9	206.1
1018.5667	2917.8831	1085.75	200.65
1018.6819	2918.9931	1079.1	197.2
1018.797	2920.1024	1072.2	189.8
1018.9121	2921.211	1073.5	193.25
1019.0271	2922.319	1073.5	191.05
1019.1421	2923.4264	1068.8	186.75
1019.2571	2924.5331	1066.7	186.8
1019.372	2925.6391	1068.6	189.95
1019.4869	2926.7445	1065.15	184.6
1019.6017	2927.8493	1072.6	191.6
1019.7165	2928.9534	1070.05	189.1
1019.8313	2930.0569	1072.25	187.9
1019.946	2931.1597	1073.3	192.2
1020.0606	2932.2619	1073.5	192.8
1020.1753	2933.3634	1080.25	199.6
1020.2899	2934.4643	1082.1	194.3
1020.4044	2935.5645	1086.95	199.2
1020.5189	2936.6641	1084.2	198.85
1020.6334	2937.763	1077.05	196.45
1020.7478	2938.8613	1078.8	196
1020.8622	2939.959	1083.35	197.1
1020.9765	2941.056	1068.85	188.6
1021.0908	2942.1523	1067.6	184.05
1021.2051	2943.248	1060.1	179.1
1021.3193	2944.3431	1049.3	168.5
1021.4334	2945.4375	1040.65	161.75
1021.5476	2946.5313	1033.5	154.7
1021.6617	2947.6244	1022.8	143.05
1021.7757	2948.7169	1017.4	134.3
1021.8897	2949.8087	1008.7	127.85
1022.0037	2950.8999	1001.5	119.65
1022.1176	2951.9904	1000.5	120.1
1022.2315	2953.0803	993.7	110.05
1022.3453	2954.1696	986.4	105.1
1022.4591	2955.2582	981.6	99.65
1022.5728	2956.3462	978.35	98.95
1022.6865	2957.4335	979.3	96.75
1022.8002	2958.5202	979	96
1022.9138	2959.6062	976.9	96.85
1023.0274	2960.6916	977.25	97.25
1023.141	2961.7764	980	97.7
1023.2545	2962.8605	979.7	96.4
1023.3679	2963.9439	974.6	95.05
1023.4813	2965.0267	977.7	95.1
1023.5947	2966.1089	997.25	96.55
1023.708	2967.1905	974.2	91.95
1023.8213	2968.2714	973.65	93.1
1023.9346	2969.3516	974.4	93.05
1024.0478	2970.4312	978.6	88.75
1024.1609	2971.5102	973.4	94.75
1024.274	2972.5885	969.85	89.35
1024.3871	2973.6662	976.45	92.2
1024.5002	2974.7432	976.45	95.95
1024.6132	2975.8196	974.85	94.1
1024.7261	2976.8954	971.95	92.75
1024.839	2977.9705	972.8	92.05
1024.9519	2979.045	971.25	92.3
1025.0647	2980.1188	969.85	90.35
1025.1775	2981.192	976.05	98.55
1025.2902	2982.2645	970.1	88.7
1025.4029	2983.3364	968.85	89.55
1025.5156	2984.4077	964.7	85.15
1025.6282	2985.4783	970.65	83.65
1025.7407	2986.5483	963.15	83.9
1025.8532	2987.6177	958.35	76.65
1025.9657	2988.6864	956.6	77.95
1026.0782	2989.7545	955.4	70.9
1026.1906	2990.8219	950.65	70.75
1026.3029	2991.8887	952.05	67.95
1026.4152	2992.9548	946.4	65.2
1026.5275	2994.0204	942.25	62.2
1026.6397	2995.0852	940.6	62.3
1026.7519	2996.1495	936.95	56.55
1026.864	2997.2131	932.6	51.3
1026.9761	2998.276	930.95	49.75
1027.0882	2999.3383	930.75	49.4
1027.2002	3000.4	929.55	48.25
1027.3122	3001.4611	926.2	47.1
1027.4241	3002.5215	922.1	39.85
1027.536	3003.5812	922.3	42.1
1027.6478	3004.6404	922.4	42.75
1027.7596	3005.6989	921.7	39.95
1027.8714	3006.7567	921.6	40.2
1027.9831	3007.8139	944.4	39.9
1028.0947	3008.8705	915.75	36.1
1028.2064	3009.9264	931.95	35.65
1028.3179	3010.9818	913.4	36.1
1028.4295	3012.0364	916.15	36
1028.541	3013.0905	915.15	35.1
1028.6524	3014.1439	914.85	34.4
1028.7638	3015.1966	913.8	34
1028.8752	3016.2487	914.05	32.25
1028.9865	3017.3002	916.4	32.9
1029.0978	3018.3511	913.85	33.45
1029.209	3019.4013	912.5	31.2
1029.3202	3020.4509	912.6	34
1029.4314	3021.4998	912.7	31.35
1029.5425	3022.5481	911.65	31.45
1029.6535	3023.5958	910.05	30
1029.7645	3024.6428	910.1	27
1029.8755	3025.6892	907.1	28.2
1029.9864	3026.735	910.1	29.25
1030.0973	3027.7802	911.1	28.85
1030.2082	3028.8247	913.4	33.75
1030.319	3029.8685	909.4	28.7
1030.4297	3030.9118	910.05	27.9
1030.5404	3031.9544	909.85	31.8
1030.6511	3032.9963	906.8	26.75
1030.7617	3034.0376	909.15	28.5
1030.8723	3035.0783	909	24.95
1030.9829	3036.1184	911.45	30.3
1031.0934	3037.1578	910.25	32.55
1031.2038	3038.1966	908.65	26.7
1031.3142	3039.2348	908.45	28.4
1031.4246	3040.2723	915.85	26.05
1031.5349	3041.3092	908.45	29.35
1031.6452	3042.3455	909.05	27.75
1031.7554	3043.3811	911.05	33
1031.8656	3044.4161	911.05	28.75
1031.9758	3045.4505	907.95	29.3
1032.0859	3046.4842	909.05	30.55
1032.1959	3047.5173	906.4	26.05
1032.3059	3048.5498	908.5	28.15
1032.4159	3049.5816	911.2	31.35
1032.5258	3050.6128	912.4	31.9
1032.6357	3051.6434	911.45	27.8
1032.7455	3052.6734	909.8	28.9
1032.8553	3053.7027	909.15	29.55
1032.9651	3054.7314	909.5	30.4
1033.0748	3055.7594	908.85	28.75
1033.1845	3056.7868	909.8	27.55
1033.2941	3057.8136	910.55	32.7
1033.4037	3058.8398	909.15	30.55
1033.5132	3059.8653	911.4	32.1
1033.6227	3060.8902	910.8	30.2
1033.7321	3061.9145	914.7	34
1033.8415	3062.9381	911.75	30.45
1033.9509	3063.9612	928.05	30.35
1034.0602	3064.9835	912.15	31.05
1034.1694	3066.0053	913.2	32.4
1034.2787	3067.0264	911.65	31.3
1034.3878	3068.0469	913.2	32.95
1034.497	3069.0668	914.25	30.8
1034.6061	3070.086	910.6	32.3
1034.7151	3071.1046	912.85	32.7
1034.8241	3072.1226	912.75	33.1
1034.9331	3073.1399	910.3	30.2
1035.042	3074.1567	912.35	30.75
1035.1508	3075.1727	909.6	26.8
1035.2597	3076.1882	909	29.35
1035.3684	3077.203	909.8	30.4
1035.4772	3078.2173	908.8	28
1035.5859	3079.2308	908.6	24.75
1035.6945	3080.2438	908.35	29.35
1035.8031	3081.2561	905.3	24.25
1035.9117	3082.2678	904.6	26.1
1036.0202	3083.2789	904.35	25.25
1036.1286	3084.2893	903.5	24.45
1036.2371	3085.2991	904.35	22.95
1036.3454	3086.3083	906.4	22.15
1036.4538	3087.3169	905.2	24
1036.562	3088.3248	902.85	21.95
1036.6703	3089.3321	901.95	20
1036.7785	3090.3388	902.5	23.6
1036.8866	3091.3449	902.8	23.1
1036.9948	3092.3503	904.95	21.35
1037.1028	3093.3551	900	22.35
1037.2108	3094.3593	902.8	22.7
1037.3188	3095.3629	897.55	16.75
1037.4267	3096.3658	901.15	21.75
1037.5346	3097.3681	899.15	20.15
1037.6425	3098.3698	902.05	18.95
1037.7503	3099.3708	902.75	21.2
1037.858	3100.3713	899.9	20.95
1037.9657	3101.3711	901.3	20.85
1038.0734	3102.3702	1038.75	19.15
1038.181	3103.3688	903.35	21.25
1038.2886	3104.3667	898.2	19.55
1038.3961	3105.364	899.05	19.1
1038.5036	3106.3607	898.8	18.55
1038.611	3107.3568	899.8	18.95
1038.7184	3108.3522	895.65	16.85
1038.8257	3109.347	898.15	17.35
1038.933	3110.3412	900.4	16.2
1039.0403	3111.3348	897.6	18.25
1039.1475	3112.3277	896.4	15.65
1039.2547	3113.32	895.3	16.1
1039.3618	3114.3117	896.4	16.85
1039.4689	3115.3028	897.4	17.6
1039.5759	3116.2932	898.1	16.75
1039.6829	3117.2831	899.3	15.45
1039.7898	3118.2723	897.25	18.35
1039.8967	3119.2608	894.1	15.65
1040.0035	3120.2488	894.25	13.55
1040.1103	3121.2361	895.65	14.3
1040.2171	3122.2229	893.75	13.05
1040.3238	3123.209	895.4	14.9
1040.4305	3124.1944	894.85	16.95
1040.5371	3125.1793	895.9	15.7
1040.6437	3126.1635	894.4	14.4
1040.7502	3127.1471	892.3	12.95
1040.8567	3128.1301	894	14.25
1040.9631	3129.1125	891.9	11.6
1041.0695	3130.0942	893	14
1041.1759	3131.0753	901.2	13.6
1041.2822	3132.0558	894.15	12.2
1041.3884	3133.0357	894.05	13.75
1041.4946	3134.015	894.6	15.25
1041.6008	3134.9936	893.7	12.8
1041.7069	3135.9716	914.35	15.4
1041.813	3136.949	893.2	13.5
1041.919	3137.9258	907.3	10.05
1042.025	3138.902	898.6	15.15
1042.1309	3139.8775	891.15	11.8
1042.2368	3140.8524	893.25	12.2
1042.3427	3141.8267	893.85	12.8
1042.4485	3142.8004	893.15	14.2
1042.5542	3143.7735	897.05	10.85
1042.6599	3144.7459	891.25	8.8
1042.7656	3145.7178	891.85	10.5
1042.8712	3146.689	890.3	13.4
1042.9768	3147.6596	891.6	9.7
1043.0823	3148.6295	890.6	11.1
1043.1878	3149.5989	891.3	12.8
1043.2932	3150.5676	889.95	12.15
1043.3986	3151.5357	889.4	12.35
1043.5039	3152.5032	892.1	12.65
1043.6092	3153.4701	890.15	10.85
1043.7145	3154.4364	895.1	12.6
1043.8197	3155.402	890.6	12.7
1043.9248	3156.367	891.45	10.75
1044.03	3157.3315	933.25	11.7
1044.135	3158.2952	891.95	11.55
1044.24	3159.2584	890.3	10.75
1044.345	3160.221	892.3	11.45
1044.4499	3161.1829	889.95	8.45
1044.5548	3162.1442	888.5	7.5
1044.6596	3163.105	890.4	10.8
1044.7644	3164.065	890.2	11.35
1044.8692	3165.0245	891.5	8.2
1044.9739	3165.9834	891.65	14.7
1045.0785	3166.9416	890.1	11.55
1045.1831	3167.8993	890.35	9.95
1045.2877	3168.8563	890.4	10.55
1045.3922	3169.8127	887.95	8.45
1045.4966	3170.7684	887.7	7.95
1045.6011	3171.7236	891.3	8.75
1045.7054	3172.6782	889.9	10.25
1045.8098	3173.6321	891.9	13
1045.914	3174.5854	894.8	10.95
1046.0183	3175.5381	889.05	10.6
1046.1224	3176.4902	887.6	8.6
1046.2266	3177.4417	890.55	11.3
1046.3307	3178.3926	885.9	7.5
1046.4347	3179.3428	888.8	12
1046.5387	3180.2924	887.65	10.35
1046.6427	3181.2415	887.75	8.9
1046.7466	3182.1899	890	9.4
1046.8504	3183.1377	888.2	9.25
1046.9542	3184.0848	892.4	6.2
1047.058	3185.0314	887.9	7.8
1047.1617	3185.9773	888.7	8.95
1047.2654	3186.9227	888.3	8.45
1047.369	3187.8674	888.15	9.15
1047.4726	3188.8115	890.15	6.5
1047.5761	3189.755	888.45	11.1
1047.6796	3190.6979	887.15	7.25
1047.783	3191.6402	886.8	9.1
1047.8864	3192.5818	886.05	6.55
1047.9898	3193.5229	910.95	5.5
1048.0931	3194.4633	888.45	9
1048.1963	3195.4031	887.55	8.2
1048.2995	3196.3423	889.25	10.35
1048.4027	3197.2809	887	8.75
1048.5058	3198.2189	890.5	12.25
1048.6089	3199.1563	894.2	9.25
1048.7119	3200.0931	886	7.85
1048.8148	3201.0292	885.9	8
1048.9178	3201.9648	887.3	6.5
1049.0206	3202.8997	891	8.45
1049.1235	3203.834	886.85	8.3
1049.2262	3204.7677	886.35	8.05
1049.329	3205.7008	891.3	8.6
1049.4317	3206.6333	887.55	12.45
1049.5343	3207.5652	886.85	5.9
1049.6369	3208.4964	888.85	10.75
1049.7394	3209.4271	885.35	7.2
1049.8419	3210.3571	886.7	8.4
1049.9444	3211.2865	887.1	6.95
1050.0468	3212.2154	887.75	5.2
1050.1491	3213.1436	887.25	5.3
1050.2514	3214.0712	892.5	7.65
1050.3537	3214.9982	888.9	10.1
1050.4559	3215.9246	886.15	6.3
1050.5581	3216.8503	886.25	6.9
1050.6602	3217.7755	888.75	12
1050.7623	3218.7001	886.5	8.2
1050.8643	3219.624	887.35	7.5
1050.9663	3220.5473	885.75	7.55
1051.0682	3221.4701	886.75	7.3
1051.1701	3222.3922	887.3	8
1051.2719	3223.3137	887.85	8.9
1051.3737	3224.2346	886	7.5
1051.4754	3225.1549	886.95	9.25
1051.5771	3226.0746	885.65	5.45
1051.6788	3226.9937	883	3
1051.7804	3227.9121	885.6	8.5
1051.8819	3228.83	885.3	6.75
1051.9834	3229.7473	884.45	4.1
1052.0849	3230.6639	886.65	8.05
1052.1863	3231.5799	885.6	5.35
1052.2876	3232.4954	886.95	6.9
1052.3889	3233.4102	883.95	3.75
1052.4902	3234.3244	885.9	4.55
1052.5914	3235.238	884.75	6.05
1052.6926	3236.151	908.25	7.4
1052.7937	3237.0634	884.2	8.85
1052.8948	3237.9752	885.15	3.4
1052.9958	3238.8864	887.2	8.35
1053.0968	3239.797	884.75	3.45
1053.1977	3240.7069	888.45	10.35
1053.2986	3241.6163	888.6	7.9
1053.3994	3242.5251	884.4	5.45
1053.5002	3243.4332	885.45	6.8
1053.6009	3244.3408	887.05	7.25
1053.7016	3245.2477	884.15	4.15
1053.8022	3246.154	885.35	5.75
1053.9028	3247.0598	884.55	5.9
1054.0034	3247.9649	883.25	7.05
1054.1039	3248.8694	885.9	7.1
1054.2043	3249.7733	885.6	6.9
1054.3047	3250.6766	885.65	9.75
1054.4051	3251.5793	884.8	4.15
1054.5054	3252.4814	885.65	8.5
1054.6056	3253.3829	884.6	5.85
1054.7058	3254.2838	883.55	4.05
1054.806	3255.1841	886.1	6.3
1054.9061	3256.0838	884.95	5.95
1055.0061	3256.9829	882.25	4.5
1055.1062	3257.8814	886.3	6.55
1055.2061	3258.7792	884.85	3.8
1055.306	3259.6765	886.2	6.35
1055.4059	3260.5731	883.1	4.05
1055.5057	3261.4692	885.55	6.65
1055.6055	3262.3647	883.45	5.5
1055.7052	3263.2595	882.55	3.7
1055.8049	3264.1538	883.45	4.5
1055.9045	3265.0474	883.95	4.2
1056.0041	3265.9404	883.45	4.7
1056.1036	3266.8329	883.15	6.05
1056.2031	3267.7247	891.5	1
1056.3025	3268.616	882.4	4.45
1056.4019	3269.5066	885	4.4
1056.5013	3270.3966	884.25	6.25
1056.6005	3271.286	884.15	6.95
