Software Version:	3.9.2.0
Unit SN:	10000200
Spectrometer SN:	6960
Date:	3/8/2024 12:58:08 PM
Data Line Index:	25
Spectral Points:	2048
Integration time (ms):	125
Averages:	20
Delay (ms):	30000
Sequence Number:	1
Processing:	dark subtract
Laser Power (mW):	300
Laser Current (mA):	824
Laser Diode Temp (C):	25.1
Laser Case Temp (C):	26.1
System Temp (C):	26.1
Spectrometer Temp (C):	24
CCD Temp (C):	0.004
Secondary Temp (C):	20.006
Heatsink Temp (C):	20.393
CCDPCB Temp (C):	36.207
SecondaryPCB Temp (C):	29.96

Wavelength	RamanShift	Raw Counts	Dark Subtracted
787.061	30.1047	455.25	47.85
787.2016	32.3739	454	46.35
787.3422	34.6426	458.6	49.25
787.4828	36.9109	462.8	52.3
787.6235	39.1787	474.35	60.35
787.7642	41.4461	481.15	61.1
787.9049	43.7131	491.55	70.15
788.0456	45.9796	497.75	75.15
788.1863	48.2456	506	78.85
788.3271	50.5112	516.7	84.6
788.4679	52.7764	526.4	90.9
788.6087	55.0411	536.2	97.3
788.7496	57.3054	547.55	103.35
788.8904	59.5692	555.75	110.05
789.0313	61.8326	565.5	118.05
789.1722	64.0955	577.6	124.55
789.3132	66.3579	592.9	134.4
789.4541	68.6199	608.7	147.15
789.5951	70.8815	646.7	182.15
789.7361	73.1426	728.35	259.35
789.8771	75.4032	929.95	457.5
790.0181	77.6634	1445.4	964.6
790.1592	79.9231	2611.85	2123.3
790.3003	82.1824	5158.35	4649.2
790.4414	84.4412	9730.6	9187.2
790.5825	86.6995	15935.8	15351.25
790.7237	88.9574	21971.6	21343.85
790.8648	91.2148	26046.75	25396.95
791.006	93.4717	27830.55	27163.85
791.1472	95.7282	28088.35	27416.25
791.2885	97.9842	27804.65	27126.5
791.4297	100.2398	27092.9	26414.9
791.571	102.4949	26269.4	25588.85
791.7123	104.7495	25389.05	24703.05
791.8536	107.0036	24478.65	23795.7
791.9949	109.2573	23665.55	22979.45
792.1363	111.5105	22915.4	22225.35
792.2777	113.7632	22214.75	21521.45
792.4191	116.0154	21656.4	20952.6
792.5605	118.2672	21226.65	20525.15
792.7019	120.5185	20760.6	20062.8
792.8434	122.7693	20444.8	19739.7
792.9849	125.0197	20153.7	19449.55
793.1264	127.2696	19909.3	19203.25
793.2679	129.519	19691.55	18978.2
793.4094	131.7679	19432.55	18714.25
793.551	134.0163	19156.35	18436.6
793.6926	136.2642	18848.15	18125.55
793.8342	138.5117	18548.2	17818.55
793.9758	140.7587	18189.25	17459.05
794.1175	143.0052	17878.35	17149.45
794.2591	145.2512	17567.2	16838.55
794.4008	147.4967	17251.95	16523.85
794.5425	149.7417	17071.25	16338.15
794.6842	151.9863	16909.25	16170.55
794.826	154.2304	16792.75	16050.1
794.9677	156.4739	16629	15880.85
795.1095	158.717	16516.3	15763.2
795.2513	160.9596	16373.35	15620.95
795.3931	163.2017	16091	15331.35
795.535	165.4433	15799.9	15041.65
795.6768	167.6844	15471.65	14714.3
795.8187	169.925	15157.65	14399.95
795.9606	172.1651	14794.95	14034.5
796.1025	174.4047	14536.45	13775.3
796.2445	176.6439	14270.2	13506.3
796.3864	178.8825	14087.9	13318.2
796.5284	181.1206	13905.95	13130.75
796.6704	183.3582	13766.95	12991.45
796.8124	185.5954	13654.9	12876.45
796.9544	187.832	13593.65	12811.7
797.0965	190.0681	13562.75	12778.4
797.2386	192.3037	13561.3	12770.05
797.3806	194.5388	13547.4	12752.55
797.5228	196.7734	13574.05	12783.85
797.6649	199.0075	13630.1	12831.9
797.807	201.2411	13771.15	12969.8
797.9492	203.4742	13825.35	13027
798.0914	205.7068	13994.65	13192.35
798.2336	207.9389	14099.4	13291.65
798.3758	210.1704	14300.95	13503.15
798.518	212.4015	14377.55	13594.85
798.6603	214.632	14522.5	13738.8
798.8025	216.862	14659.5	13873.65
798.9448	219.0915	14774.45	13990.45
799.0871	221.3205	14920.35	14133.65
799.2294	223.549	15065.4	14279.45
799.3718	225.777	15252.25	14470.5
799.5141	228.0044	15420.1	14630.25
799.6565	230.2314	15641.9	14853.4
799.7989	232.4578	15827.6	15038.7
799.9413	234.6837	16058.8	15256.75
800.0837	236.909	16179.6	15376.2
800.2262	239.1339	16201.75	15371.95
800.3687	241.3582	16052.05	15240.95
800.5111	243.582	15870.1	15025.5
800.6536	245.8053	15739.05	14907.4
800.7961	248.0281	15599.8	14773.85
800.9387	250.2503	15532.45	14703.65
801.0812	252.472	15533.35	14702.05
801.2238	254.6932	15583.95	14757.75
801.3664	256.9139	15654.75	14821.65
801.509	259.134	15762.95	14928.5
801.6516	261.3536	15938.85	15106.4
801.7942	263.5727	16161.95	15330.6
801.9369	265.7912	16380.95	15543.95
802.0795	268.0092	16584.9	15750.7
802.2222	270.2267	16723.55	15891
802.3649	272.4436	16819.95	15982.95
802.5076	274.6601	16801.25	15956.2
802.6504	276.8759	16680.05	15839
802.7931	279.0913	16606.75	15769.3
802.9359	281.3061	16487.35	15646.5
803.0787	283.5204	16448.3	15596.75
803.2215	285.7341	16423.55	15570.9
803.3643	287.9473	16508.35	15644.9
803.5071	290.16	16607.3	15752.7
803.6499	292.3721	16789.6	15940.25
803.7928	294.5837	17086.85	16232.35
803.9357	296.7947	17346.85	16499.85
804.0786	299.0052	17519.95	16669.4
804.2215	301.2152	17419.4	16567.3
804.3644	303.4246	17223.15	16375.55
804.5074	305.6334	16793.4	15950.25
804.6503	307.8418	16376.4	15524.35
804.7933	310.0495	15918.45	15066.6
804.9363	312.2568	15530.8	14677.2
805.0793	314.4635	15212.8	14354.95
805.2223	316.6696	15022.15	14163
805.3653	318.8752	14856	13983.7
805.5084	321.0802	14777.25	13915.75
805.6514	323.2847	14821.85	13959.4
805.7945	325.4887	14865.65	14002.4
805.9376	327.692	14842.85	13976.4
806.0807	329.8949	14790.65	13924.8
806.2238	332.0972	14564.85	13701.95
806.367	334.2989	14355.65	13481.35
806.5101	336.5001	14093.4	13221.55
806.6533	338.7007	13898.35	13026.7
806.7965	340.9008	13718.6	12845.9
806.9397	343.1003	13606.95	12733.55
807.0829	345.2992	13554.4	12682.4
807.2261	347.4976	13448.4	12572.35
807.3693	349.6955	13374.6	12497.1
807.5126	351.8927	13394.15	12512.1
807.6559	354.0895	13377.1	12486.45
807.7991	356.2856	13359.85	12476
807.9424	358.4812	13308.75	12430.45
808.0857	360.6763	13322.95	12439.25
808.2291	362.8707	13295.4	12409.4
808.3724	365.0646	13341.3	12449.65
808.5158	367.258	13380	12493.4
808.6591	369.4508	13436	12543.2
808.8025	371.643	13542.05	12649.75
808.9459	373.8346	13600.85	12708
809.0893	376.0257	13659.45	12763.8
809.2327	378.2162	13644.8	12750.75
809.3762	380.4062	13615.55	12721.35
809.5196	382.5956	13504.4	12615.2
809.6631	384.7844	13394.25	12508.35
809.8066	386.9726	13268.85	12383.95
809.9501	389.1603	13192.3	12311.65
810.0936	391.3474	13154.15	12241.8
810.2371	393.5339	13108.7	12220.25
810.3806	395.7199	13047.35	12160.9
810.5241	397.9052	13123.55	12238.95
810.6677	400.09	13205.6	12321
810.8113	402.2743	13328.65	12445.45
810.9548	404.4579	13443.6	12558
811.0984	406.641	13634.2	12744.1
811.2421	408.8235	13823.75	12937.25
811.3857	411.0054	14028.8	13133.6
811.5293	413.1868	14290.95	13391.95
811.673	415.3675	14447.55	13546.5
811.8166	417.5477	14492.75	13596.4
811.9603	419.7273	14513.85	13610.95
812.104	421.9064	14408.6	13504.75
812.2477	424.0848	14320.15	13419.3
812.3914	426.2627	14185.25	13281.7
812.5351	428.4399	13934.75	13034.35
812.6788	430.6166	13611.6	12706.3
812.8226	432.7928	13251.75	12344.75
812.9663	434.9683	12924.8	12023.3
813.1101	437.1432	12720.15	11818.3
813.2539	439.3176	12562.8	11668.05
813.3977	441.4914	12447.8	11557.85
813.5415	443.6645	12394.1	11496.3
813.6853	445.8371	12349.85	11448.7
813.8291	448.0091	12321	11418.25
813.973	450.1806	12306.1	11407.8
814.1168	452.3514	12247.3	11347.25
814.2607	454.5216	12310.7	11406
814.4046	456.6913	12279.9	11376.45
814.5485	458.8603	12292.1	11387.7
814.6924	461.0288	12360.1	11465.7
814.8363	463.1967	12358.25	11468.6
814.9802	465.3639	12432.8	11536.2
815.1241	467.5306	12439.6	11540.25
815.2681	469.6967	12490.35	11594.2
815.412	471.8622	12533.4	11639.75
815.556	474.0271	12621.35	11724.15
815.7	476.1914	12680.45	11772.65
815.844	478.3551	12709.35	11808.65
815.988	480.5182	12703.65	11806.55
816.132	482.6807	12762.6	11874.15
816.276	484.8426	12936.7	12053.3
816.4201	487.0039	13245	12354
816.5641	489.1647	13653.85	12757.15
816.7082	491.3248	13994.9	13093.55
816.8522	493.4843	14135.3	13239
816.9963	495.6432	14092.05	13194.1
817.1404	497.8015	13963.25	13051.1
817.2845	499.9592	13925.2	13011.5
817.4286	502.1163	13762.75	12851.25
817.5727	504.2728	13479.55	12580.15
817.7168	506.4287	13208.05	12317.4
817.861	508.5839	12846.15	11954.2
818.0051	510.7386	12611.5	11707.95
818.1493	512.8927	12518.1	11604.95
818.2935	515.0461	12457.25	11547.5
818.4377	517.199	12501.55	11587.3
818.5818	519.3512	12604.9	11694.35
818.726	521.5029	12825.75	11912.4
818.8703	523.6539	13017.45	12106.75
819.0145	525.8043	13097.05	12183.35
819.1587	527.9541	13075.4	12159.05
819.303	530.1033	12949.8	12039.95
819.4472	532.2519	12824.3	11914.45
819.5915	534.3999	12809.65	11893.8
819.7357	536.5472	12950.6	12045.35
819.88	538.694	13242.25	12338.05
820.0243	540.8401	13582.15	12670.05
820.1686	542.9856	13919.05	12994.15
820.3129	545.1305	13986.8	13054.9
820.4572	547.2748	13868.25	12933.75
820.6016	549.4185	13640.4	12708.25
820.7459	551.5615	13472.85	12540.7
820.8902	553.704	13448.85	12521.35
821.0346	555.8458	13453.95	12532.9
821.1789	557.987	13589.25	12666.65
821.3233	560.1276	13746.45	12818.9
821.4677	562.2675	14032.35	13107.75
821.6121	564.4069	14400.7	13478.25
821.7565	566.5456	14737.35	13815.05
821.9009	568.6837	14834.7	13915.35
822.0453	570.8212	14467.55	13549.9
822.1897	572.958	13880.8	12963.7
822.3342	575.0942	13358.7	12439.95
822.4786	577.2299	13022.7	12112.2
822.6231	579.3648	12815.05	11919.7
822.7675	581.4992	12806.6	11919.5
822.912	583.6329	12916.25	12029.5
823.0565	585.766	13109.25	12216.95
823.201	587.8985	13248.7	12344.8
823.3454	590.0304	13281.3	12342.25
823.4899	592.1616	13236.7	12313.75
823.6345	594.2922	13126.7	12201
823.779	596.4222	12941.95	12015.1
823.9235	598.5515	12769.6	11835.4
824.068	600.6802	12606.15	11679.85
824.2126	602.8083	12431.6	11507.8
824.3571	604.9358	12411.8	11487.8
824.5017	607.0626	12403.85	11475.1
824.6462	609.1888	12498.8	11563.9
824.7908	611.3144	12592.1	11656.05
824.9354	613.4393	12619.15	11685.65
825.08	615.5636	12655.8	11720.25
825.2246	617.6873	12628.75	11689.85
825.3692	619.8103	12591.15	11659.05
825.5138	621.9327	12432.55	11501.15
825.6584	624.0544	12261.25	11337.55
825.803	626.1756	12116.55	11191.65
825.9477	628.2961	12028.7	11100.15
826.0923	630.4159	11954.25	11023.65
826.237	632.5351	11922.9	10987.85
826.3816	634.6537	11843.15	10910
826.5263	636.7716	11861.2	10922.45
826.6709	638.8889	11892.6	10952.55
826.8156	641.0056	11914.4	10971.75
826.9603	643.1216	11897.4	10959
827.105	645.237	11924.2	10985.85
827.2497	647.3518	11837.25	10914.25
827.3944	649.4659	11791.4	10866.8
827.5391	651.5793	11778.85	10854.65
827.6838	653.6922	11733.45	10806.6
827.8285	655.8043	11728.65	10803.85
827.9733	657.9159	11736	10807.2
828.118	660.0268	11682.25	10754.45
828.2627	662.137	11669.05	10736.75
828.4075	664.2466	11668.45	10728.55
828.5522	666.3556	11643.2	10707.65
828.697	668.4639	11643.3	10709.8
828.8418	670.5716	11606.7	10679.55
828.9865	672.6786	11596.7	10661
829.1313	674.785	11586.75	10644.4
829.2761	676.8907	11599.9	10665.2
829.4209	678.9958	11648.85	10717.55
829.5657	681.1002	11586.75	10652.1
829.7105	683.204	11601.4	10653.9
829.8553	685.3072	11581.4	10639.5
830.0001	687.4097	11523.65	10586.4
830.1449	689.5115	11529.15	10584.1
830.2898	691.6127	11529.1	10592.85
830.4346	693.7132	11462.6	10531.7
830.5794	695.8131	11491.35	10542.25
830.7243	697.9123	11524.65	10580.9
830.8691	700.0109	11497.3	10550.9
831.014	702.1089	11546.65	10603.6
831.1588	704.2061	11568.75	10626.9
831.3037	706.3028	11606.2	10663.55
831.4486	708.3987	11676.75	10731.5
831.5935	710.4941	11691.6	10751.1
831.7383	712.5887	11783.1	10841.65
831.8832	714.6827	11916.6	10977.85
832.0281	716.7761	12118.5	11180.45
832.173	718.8688	12335.1	11397.25
832.3179	720.9608	12514.45	11565.1
832.4628	723.0522	12621.8	11667.1
832.6077	725.1429	12635.55	11688.75
832.7527	727.233	12598.1	11652.75
832.8976	729.3224	12560.75	11613
833.0425	731.4112	12432.45	11488.7
833.1874	733.4993	12274.4	11333.7
833.3324	735.5867	12078.95	11135.75
833.4773	737.6735	11920.5	10977.2
833.6222	739.7596	11750.25	10802.75
833.7672	741.845	11646.95	10701.7
833.9122	743.9298	11553	10609.45
834.0571	746.014	11548.65	10602.8
834.2021	748.0974	11534.25	10580.1
834.347	750.1802	11547.6	10596.4
834.492	752.2624	11567.05	10614.45
834.637	754.3439	11613.55	10661
834.782	756.4247	11734.25	10774.15
834.9269	758.5048	11906.25	10957.75
835.0719	760.5843	12158.6	11208
835.2169	762.6631	12519.75	11567.4
835.3619	764.7413	13081.35	12131.4
835.5069	766.8188	13756.3	12805.3
835.6519	768.8956	14268	13316.15
835.7969	770.9718	14611.1	13663.4
835.9419	773.0473	14554.8	13605.7
836.0869	775.1221	14257.65	13310.05
836.232	777.1962	13977.55	13029.65
836.377	779.2697	13835.3	12885.15
836.522	781.3426	13889.9	12929
836.667	783.4147	14040.05	13088.55
836.8121	785.4862	14191.05	13241.65
836.9571	787.557	14052.95	13098.3
837.1021	789.6271	13645.35	12689.25
837.2472	791.6966	13043.2	12091.25
837.3922	793.7654	12463.2	11512.35
837.5373	795.8335	12099.95	11150.2
837.6823	797.901	11798.85	10846.4
837.8274	799.9678	11649	10694.3
837.9724	802.0339	11606.05	10651.1
838.1175	804.0993	11587.2	10621.45
838.2626	806.1641	11562.85	10607.35
838.4076	808.2282	11491.25	10537.2
838.5527	810.2916	11398.25	10447.15
838.6978	812.3544	11325.5	10372.4
838.8428	814.4164	11267.1	10317
838.9879	816.4778	11292.2	10332.95
839.133	818.5385	11344.7	10390.4
839.2781	820.5986	11467.9	10509.5
839.4232	822.658	11635.25	10679.3
839.5682	824.7166	11916.75	10961.55
839.7133	826.7747	12362.35	11403.25
839.8584	828.832	12786.95	11829.7
840.0035	830.8886	13116.35	12154.95
840.1486	832.9446	13261.1	12301.35
840.2937	834.9999	13173.75	12215.4
840.4388	837.0545	12987.65	12027.8
840.5839	839.1085	12714.75	11755.9
840.729	841.1618	12504.55	11546.05
840.8741	843.2143	12328.6	11368.7
841.0192	845.2662	12166.15	11210.4
841.1643	847.3175	12061.65	11106.25
841.3095	849.368	11917.35	10959.8
841.4546	851.4179	11831.15	10875.55
841.5997	853.467	11701.95	10744.45
841.7448	855.5155	11657.5	10701.15
841.8899	857.5633	11561.65	10603.95
842.0351	859.6105	11455.3	10497.65
842.1802	861.6569	11360.9	10401.45
842.3253	863.7027	11322.1	10361.25
842.4704	865.7478	11280.4	10319.65
842.6156	867.7922	11274.9	10312.9
842.7607	869.8359	11284.35	10324.55
842.9058	871.8789	11317.6	10353.5
843.0509	873.9212	11462.75	10471.6
843.1961	875.9629	11545.95	10583.8
843.3412	878.0039	11681.85	10723
843.4863	880.0441	11758.95	10802.4
843.6315	882.0837	11802.05	10843.9
843.7766	884.1226	11792.95	10831.25
843.9218	886.1609	11810.15	10850.45
844.0669	888.1984	11870.15	10909.75
844.212	890.2352	11965.25	11005.5
844.3572	892.2714	11960.65	10994.95
844.5023	894.3069	11900.4	10940.3
844.6475	896.3416	11749.2	10787.1
844.7926	898.3757	11679.8	10721.95
844.9377	900.4091	11579.6	10616.55
845.0829	902.4418	11590.1	10621.7
845.228	904.4739	11616.9	10651.35
845.3732	906.5052	11659.8	10694.35
845.5183	908.5358	11617.45	10652.4
845.6635	910.5658	11464	10498.6
845.8086	912.595	11269.05	10304.95
845.9538	914.6236	11080.9	10120.5
846.0989	916.6515	10962.15	9997.95
846.2441	918.6786	10904.75	9939.8
846.3892	920.7051	10955.55	9993.55
846.5344	922.7309	11031.4	10069.7
846.6795	924.756	11032.1	10071.75
846.8246	926.7804	11084.65	10121.3
846.9698	928.8041	11089.55	10130.25
847.1149	930.8272	11138.4	10174.95
847.2601	932.8495	11119.3	10155.8
847.4052	934.8711	11089.6	10127
847.5504	936.892	11033	10069.55
847.6955	938.9123	10988.55	10025.6
847.8407	940.9318	10965.65	10000.95
847.9858	942.9506	10939.1	9974.75
848.131	944.9688	10864.1	9902.45
848.2761	946.9862	10769.8	9806.7
848.4213	949.003	10647.45	9682.35
848.5664	951.019	10574.55	9613.25
848.7115	953.0344	10546.65	9584.95
848.8567	955.0491	10539.85	9577.2
849.0018	957.063	10622.8	9663
849.147	959.0763	10710.4	9748
849.2921	961.0888	10690.6	9728.15
849.4373	963.1007	10808.15	9849.6
849.5824	965.1119	10812.95	9866.4
849.7275	967.1223	10803.1	9858.35
849.8727	969.1321	10811.1	9867.9
850.0178	971.1412	10818.6	9866.55
850.1629	973.1495	10802.7	9846.7
850.3081	975.1572	10863.8	9861.25
850.4532	977.1641	10874.65	9913.55
850.5983	979.1704	10841.2	9875.55
850.7435	981.1759	10830.4	9864.5
850.8886	983.1808	10835.15	9871.25
851.0337	985.1849	10884.05	9914.05
851.1788	987.1884	10966.2	10003.85
851.324	989.1911	11090	10128.1
851.4691	991.1932	11158.7	10196.2
851.6142	993.1945	11196.3	10238.75
851.7593	995.1951	11176.7	10214.1
851.9045	997.1951	11139.7	10174
852.0496	999.1943	11087.5	10123.6
852.1947	1001.1928	11065.85	10101.15
852.3398	1003.1906	11116.85	10152.6
852.4849	1005.1877	11190.95	10227.95
852.63	1007.1841	11241.5	10283.65
852.7751	1009.1798	11281.25	10320.85
852.9202	1011.1748	11182.7	10221.35
853.0653	1013.1691	11011.25	10049.4
853.2104	1015.1627	10802.4	9844.15
853.3555	1017.1556	10577.95	9621.55
853.5006	1019.1477	10460	9501.5
853.6457	1021.1392	10359.9	9409.4
853.7908	1023.1299	10353.7	9404.95
853.9359	1025.12	10373.4	9433.15
854.081	1027.1093	10414.35	9486.6
854.2261	1029.0979	10501.2	9575.2
854.3712	1031.0859	10593.35	9659.35
854.5163	1033.0731	10629.8	9684.85
854.6613	1035.0596	10557.5	9610.05
854.8064	1037.0454	10455.75	9504.35
854.9515	1039.0304	10375.6	9419.25
855.0965	1041.0148	10237.4	9277.9
855.2416	1042.9985	10177.9	9218.4
855.3867	1044.9814	10133.25	9175.8
855.5317	1046.9636	10081.35	9124.1
855.6768	1048.9452	10073.3	9116.75
855.8219	1050.926	10078.95	9120.2
855.9669	1052.9061	10104.85	9146.05
856.112	1054.8855	10106.65	9149.1
856.257	1056.8642	10169.55	9210.7
856.4021	1058.8421	10238.4	9274.1
856.5471	1060.8194	10250.5	9290.3
856.6921	1062.7959	10299.3	9345.25
856.8372	1064.7717	10353.1	9393.25
856.9822	1066.7469	10418.25	9460.05
857.1272	1068.7213	10442.2	9484.15
857.2723	1070.695	10538.1	9577.95
857.4173	1072.6679	10537.2	9580.3
857.5623	1074.6402	10534.65	9576.75
857.7073	1076.6117	10483.3	9519.8
857.8523	1078.5826	10411.85	9454.2
857.9973	1080.5527	10316.6	9354.4
858.1423	1082.5221	10297.35	9337.35
858.2873	1084.4908	10294.65	9336.05
858.4323	1086.4587	10374.8	9414.95
858.5773	1088.426	10436.65	9479.15
858.7223	1090.3925	10455	9492.9
858.8673	1092.3584	10477.05	9520.05
859.0123	1094.3235	10435.25	9477.8
859.1573	1096.2879	10477.65	9517.85
859.3022	1098.2515	10560.2	9602.45
859.4472	1100.2145	10675.1	9721.2
859.5922	1102.1767	10850.9	9889.85
859.7371	1104.1382	11074.95	10117
859.8821	1106.099	11300.4	10340.95
860.027	1108.0591	11527.2	10568.6
860.172	1110.0185	11689.2	10730.5
860.3169	1111.9771	11741.8	10788.7
860.4619	1113.9351	11649.55	10691.45
860.6068	1115.8923	11473.5	10516.4
860.7517	1117.8488	11268.2	10311.6
860.8967	1119.8045	11077	10120.8
861.0416	1121.7596	10936.65	9982.35
861.1865	1123.7139	10818.45	9862.6
861.3314	1125.6675	10791.3	9837.5
861.4763	1127.6204	10872.5	9919.05
861.6212	1129.5726	10805.3	9849.25
861.7661	1131.524	10730.9	9775.7
861.911	1133.4748	10649.35	9693.2
862.0559	1135.4248	10476.75	9522
862.2008	1137.3741	10367.65	9410.2
862.3457	1139.3226	10262.1	9304.25
862.4905	1141.2705	10217.9	9259.5
862.6354	1143.2176	10146.15	9186.15
862.7803	1145.164	10095	9136.25
862.9251	1147.1097	10050	9091.5
863.07	1149.0546	9998.5	9043.65
863.2148	1150.9989	9894.9	8939.55
863.3597	1152.9424	9787.5	8831.65
863.5045	1154.8852	9695.95	8738.3
863.6493	1156.8272	9648.25	8692
863.7942	1158.7686	9660.05	8694.7
863.939	1160.7092	9649.15	8691.9
864.0838	1162.6491	9693.4	8735.45
864.2286	1164.5883	9768.45	8812.35
864.3734	1166.5267	9845.65	8887.9
864.5182	1168.4644	10010.25	9052.65
864.663	1170.4014	10208.25	9249.8
864.8078	1172.3377	10460.2	9507.2
864.9526	1174.2732	10726.25	9772.4
865.0974	1176.2081	11137.6	10183.9
865.2421	1178.1421	11548	10590.95
865.3869	1180.0755	11976.5	11023.95
865.5317	1182.0082	12280.5	11325.45
865.6764	1183.9401	12401.9	11449.2
865.8212	1185.8713	12272.2	11325.75
865.9659	1187.8017	11997.95	11058.1
866.1106	1189.7315	11647	10717.3
866.2554	1191.6605	11282.85	10351.15
866.4001	1193.5888	11033.25	10096.8
866.5448	1195.5163	10926.5	9984.75
866.6895	1197.4432	10818.55	9868.75
866.8342	1199.3693	10783.85	9833.7
866.9789	1201.2947	10744.8	9786.85
867.1236	1203.2193	10702.5	9750.85
867.2683	1205.1432	10700.35	9748.8
867.413	1207.0664	10686.65	9732.9
867.5576	1208.9889	10669.6	9715.75
867.7023	1210.9106	10677.1	9726.5
867.847	1212.8316	10665.8	9710.9
867.9916	1214.7519	10731.85	9768.65
868.1363	1216.6715	10729.3	9778.5
868.2809	1218.5903	10795.4	9841.6
868.4255	1220.5084	10818.65	9865.75
868.5701	1222.4257	10935.15	9985.4
868.7148	1224.3424	10953.5	10007.05
868.8594	1226.2583	11055.55	10100.6
869.004	1228.1735	11189.5	10240.75
869.1486	1230.0879	11319.5	10367.2
869.2932	1232.0016	11461.4	10510.05
869.4377	1233.9146	11570.75	10619.4
869.5823	1235.8269	11548.95	10598.5
869.7269	1237.7384	11471.9	10522.85
869.8715	1239.6492	11347.65	10398.9
870.016	1241.5592	11311.2	10363.5
870.1606	1243.4686	11331.1	10378.9
870.3051	1245.3772	11433.5	10481.1
870.4496	1247.285	11561.15	10612.25
870.5941	1249.1922	11702.8	10753.5
870.7387	1251.0986	11776.45	10824.9
870.8832	1253.0042	11839.4	10890.2
871.0277	1254.9092	11914	10966.25
871.1722	1256.8134	11999.1	11052.35
871.3167	1258.7169	12152.85	11205.65
871.4611	1260.6196	12310	11363.45
871.6056	1262.5216	12531.8	11581
871.7501	1264.4229	12741	11793.15
871.8945	1266.3234	12908.55	11958.5
872.039	1268.2232	13052.3	12102.35
872.1834	1270.1223	13106.75	12156.25
872.3278	1272.0207	13135.9	12186.25
872.4723	1273.9183	13130.6	12176.85
872.6167	1275.8151	13036.95	12087.7
872.7611	1277.7113	12989.35	12042.8
872.9055	1279.6067	13056.6	12106.6
873.0499	1281.5014	13184.9	12235.4
873.1943	1283.3953	13449.45	12498.55
873.3386	1285.2885	13827.8	12885.05
873.483	1287.181	14180	13229.35
873.6274	1289.0727	14565.25	13620.7
873.7717	1290.9637	14808.1	13860.7
873.9161	1292.854	15034.5	14085.2
874.0604	1294.7435	15026.45	14077.05
874.2047	1296.6323	15011.05	14064.95
874.349	1298.5204	14973.35	14024.4
874.4933	1300.4077	14860.75	13911.55
874.6376	1302.2943	14726.1	13780.2
874.7819	1304.1802	14522.55	13576.85
874.9262	1306.0653	14183.4	13235.35
875.0705	1307.9497	13792.45	12846.25
875.2147	1309.8333	13443.45	12496.25
875.359	1311.7162	13177.05	12227.75
875.5032	1313.5984	13034.25	12087.65
875.6475	1315.4798	12937.1	11977.9
875.7917	1317.3605	12896	11932.75
875.9359	1319.2405	12810.8	11860.4
876.0801	1321.1197	12587	11636.45
876.2243	1322.9982	12352.1	11402.9
876.3685	1324.876	12137.8	11192.4
876.5127	1326.753	11884.75	10938.2
876.6569	1328.6293	11766.6	10818.45
876.801	1330.5048	11634.55	10683.25
876.9452	1332.3796	11509.55	10559.25
877.0893	1334.2537	11421.45	10447.1
877.2335	1336.127	11355.05	10406.75
877.3776	1337.9996	11329.4	10384.1
877.5217	1339.8714	11335.1	10387.75
877.6658	1341.7426	11352.35	10362.9
877.8099	1343.6129	11327	10376.5
877.954	1345.4826	11339.95	10390.1
878.0981	1347.3515	11305.1	10353.4
878.2422	1349.2196	11264.05	10312.95
878.3862	1351.087	11301.9	10352.85
878.5303	1352.9537	11374.45	10426.8
878.6743	1354.8197	11491.7	10542.8
878.8184	1356.6849	11641.15	10690.35
878.9624	1358.5493	11776.85	10829.7
879.1064	1360.4131	11935.5	10990.9
879.2504	1362.276	12026.6	11079.85
879.3944	1364.1383	11978.75	11035.45
879.5384	1365.9998	11788.05	10836.4
879.6823	1367.8606	11447.95	10499.05
879.8263	1369.7206	11097.35	10148.7
879.9702	1371.5799	10800.8	9850
880.1142	1373.4384	10576.6	9631.1
880.2581	1375.2962	10336.3	9387.6
880.402	1377.1533	10014.75	9068.7
880.5459	1379.0096	9659.35	8718.4
880.6898	1380.8652	9360.8	8423.5
880.8337	1382.7201	9039.95	8096.5
880.9776	1384.5742	8833.95	7890.05
881.1215	1386.4275	8661.55	7714
881.2653	1388.2802	8490.9	7546.55
881.4092	1390.132	8410.75	7463.5
881.553	1391.9832	8344.65	7396.6
881.6968	1393.8336	8239.7	7293.35
881.8406	1395.6832	8203.25	7255.25
881.9844	1397.5322	8144.4	7196.45
882.1282	1399.3803	8142.05	7187.7
882.272	1401.2278	8093.65	7148.95
882.4158	1403.0745	8106.75	7166
882.5595	1404.9204	8077.45	7134.65
882.7033	1406.7656	8102.45	7159.35
882.847	1408.6101	8116.2	7167.7
882.9908	1410.4538	8141.8	7195.15
883.1345	1412.2968	8197.2	7252.25
883.2782	1414.139	8223.85	7278.9
883.4219	1415.9805	8305.9	7362.4
883.5656	1417.8213	8382.9	7434.95
883.7092	1419.6613	8489.7	7545.35
883.8529	1421.5006	8614.7	7669.25
883.9965	1423.3391	8833.15	7887.05
884.1402	1425.1769	9147.1	8205.3
884.2838	1427.0139	9579.55	8635.9
884.4274	1428.8502	10104.65	9156.3
884.571	1430.6858	10638.4	9697.2
884.7146	1432.5206	11018.95	10079.85
884.8582	1434.3547	11269.5	10326.5
885.0018	1436.188	11274.2	10330.55
885.1453	1438.0206	11195.8	10254.25
885.2889	1439.8524	11074.75	10131.35
885.4324	1441.6835	10924.95	9979.2
885.5759	1443.5139	10816.25	9871.05
885.7194	1445.3435	10744.8	9803.65
885.8629	1447.1724	10730.85	9787.75
886.0064	1449.0005	10664.1	9723.7
886.1499	1450.8279	10586.05	9646.6
886.2933	1452.6545	10569.8	9630.25
886.4368	1454.4804	10601.4	9663.25
886.5802	1456.3056	10606.15	9661.75
886.7237	1458.13	10523.15	9587.15
886.8671	1459.9536	10331.25	9394.55
887.0105	1461.7766	10084.8	9143.95
887.1539	1463.5987	9734.35	8792.8
887.2972	1465.4202	9396.4	8455.5
887.4406	1467.2409	9053.95	8112
887.584	1469.0608	8791.05	7849.05
887.7273	1470.88	8530.05	7585.15
887.8706	1472.6984	8298.1	7359.7
888.0139	1474.5161	8082.65	7140.15
888.1572	1476.3331	7925.45	6988.85
888.3005	1478.1493	7836.15	6894.85
888.4438	1479.9648	7707.3	6766.95
888.5871	1481.7795	7644.45	6705.95
888.7303	1483.5935	7560.5	6620.85
888.8736	1485.4067	7532.75	6592.3
889.0168	1487.2192	7464.45	6525
889.16	1489.031	7435.15	6493.1
889.3032	1490.842	7391.6	6451.7
889.4464	1492.6522	7352.45	6411.15
889.5896	1494.4618	7335.65	6395.45
889.7327	1496.2705	7284.45	6345.85
889.8759	1498.0785	7245.1	6308.5
890.019	1499.8858	7227.2	6286.25
890.1622	1501.6924	7175.45	6238.35
890.3053	1503.4981	7136.75	6196.85
890.4484	1505.3032	7102.75	6164.55
890.5914	1507.1075	7071.7	6131.1
890.7345	1508.911	7020.3	6081.3
890.8776	1510.7138	6983.2	6043.3
891.0206	1512.5159	6940.7	6003
891.1637	1514.3172	6886.65	5949.35
891.3067	1516.1178	6825.55	5890.2
891.4497	1517.9176	6820.8	5881
891.5927	1519.7166	6788.3	5851.45
891.7357	1521.515	6766.85	5822
891.8786	1523.3126	6728.05	5790.35
892.0216	1525.1094	6715.45	5776.25
892.1645	1526.9055	6676.65	5742.4
892.3074	1528.7008	6634.65	5699.15
892.4503	1530.4954	6600.1	5666.85
892.5932	1532.2893	6587.6	5654.25
892.7361	1534.0824	6581.95	5649.4
892.879	1535.8747	6576.2	5643.2
893.0218	1537.6663	6546.6	5616.05
893.1647	1539.4572	6561.95	5628.6
893.3075	1541.2473	6583.05	5652.7
893.4503	1543.0367	6577.75	5646.6
893.5931	1544.8253	6565.5	5629.85
893.7359	1546.6132	6597.95	5662.45
893.8787	1548.4003	6599.3	5658.45
894.0214	1550.1867	6664.1	5722.7
894.1642	1551.9723	6717.95	5786.6
894.3069	1553.7572	6792.35	5862.1
894.4496	1555.5414	6891.25	5964.7
894.5923	1557.3247	7001.3	6076.7
894.735	1559.1074	7149.85	6224.95
894.8777	1560.8893	7289.9	6362.9
895.0204	1562.6705	7422.65	6498.3
895.163	1564.4509	7540.8	6616.1
895.3056	1566.2305	7600.1	6681.55
895.4482	1568.0094	7646.45	6724.65
895.5908	1569.7876	7655.2	6732
895.7334	1571.565	7628.9	6705.2
895.876	1573.3417	7621.7	6694.55
896.0186	1575.1176	7607.3	6686.5
896.1611	1576.8928	7581.5	6665.65
896.3036	1578.6672	7569.25	6654.45
896.4461	1580.4409	7538.55	6625.7
896.5886	1582.2138	7537.05	6616.4
896.7311	1583.986	7539.4	6620.5
896.8736	1585.7575	7591.2	6671.15
897.0161	1587.5282	7633.15	6718.6
897.1585	1589.2981	7688.2	6776.45
897.3009	1591.0673	7752.1	6836.15
897.4433	1592.8358	7833	6915.75
897.5857	1594.6035	7948.25	7029.85
897.7281	1596.3704	7993.2	7074.35
897.8705	1598.1366	8080.5	7162.6
898.0128	1599.9021	8176.15	7259.25
898.1551	1601.6668	8262.9	7344.15
898.2975	1603.4308	8421.7	7502.35
898.4398	1605.194	8551.15	7629.25
898.5821	1606.9564	8732.75	7822.8
898.7243	1608.7182	8943.4	8037.85
898.8666	1610.4791	9210	8306.65
899.0088	1612.2394	9492.8	8592.9
899.1511	1613.9988	9751.75	8847.9
899.2933	1615.7576	10045.4	9133.6
899.4355	1617.5156	10224.05	9302.35
899.5776	1619.2728	10336.45	9420.1
899.7198	1621.0293	10315.95	9400.75
899.862	1622.785	10154.8	9238.75
900.0041	1624.54	9906.05	8991.95
900.1462	1626.2942	9584.5	8675.6
900.2883	1628.0477	9208.6	8297.65
900.4304	1629.8005	8898.35	7988.8
900.5725	1631.5525	8626.4	7717.75
900.7145	1633.3037	8378.35	7468.25
900.8566	1635.0542	8180.5	7272.8
900.9986	1636.804	8018.9	7109.95
901.1406	1638.553	7989.15	6990.5
901.2826	1640.3013	7882.5	6971.5
901.4245	1642.0488	7851.95	6938.6
901.5665	1643.7955	7865.4	6959.9
901.7085	1645.5416	7915.1	7007.05
901.8504	1647.2868	8043.1	7133.85
901.9923	1649.0313	8114.4	7202.85
902.1342	1650.7751	8314	7399.1
902.2761	1652.5181	8462.2	7556.5
902.4179	1654.2604	8618.3	7713.05
902.5598	1656.0019	8835.15	7929.1
902.7016	1657.7427	9099.2	8190.9
902.8434	1659.4828	9351.95	8444.45
902.9852	1661.222	9514.85	8604.15
903.127	1662.9606	9467.4	8554.35
903.2687	1664.6984	9266.2	8353.15
903.4105	1666.4354	8837.05	7921.05
903.5522	1668.1717	8271.8	7355.8
903.6939	1669.9072	7755.5	6840.9
903.8356	1671.642	7282.35	6368.9
903.9773	1673.3761	6889.1	5977.45
904.119	1675.1094	6586.95	5679.2
904.2606	1676.8419	6335.35	5425.3
904.4022	1678.5737	6136.95	5226.85
904.5439	1680.3048	5976.3	5063.75
904.6855	1682.0351	5846.6	4932.75
904.827	1683.7646	5741.9	4829.3
904.9686	1685.4934	5664.45	4754.4
905.1101	1687.2215	5587.35	4676.35
905.2517	1688.9488	5507.5	4602.3
905.3932	1690.6754	5459.35	4554.9
905.5347	1692.4012	5404.7	4494.25
905.6761	1694.1263	5351.7	4437.95
905.8176	1695.8506	5312.05	4402.45
905.9591	1697.5742	5291.1	4383.2
906.1005	1699.297	5248.4	4344.5
906.2419	1701.0191	5192.25	4289.7
906.3833	1702.7404	5159.3	4257.25
906.5246	1704.461	5111.65	4204.8
906.666	1706.1808	5095.6	4189.6
906.8073	1707.8999	5072.05	4167.15
906.9487	1709.6182	5030.85	4127.55
907.09	1711.3358	5023.35	4123.85
907.2313	1713.0527	4993.1	4094.65
907.3725	1714.7688	4974.15	4069.95
907.5138	1716.4841	4947.5	4040.85
907.655	1718.1987	4922.1	4011.65
907.7962	1719.9126	4906.5	4006.2
907.9374	1721.6257	4867.75	3965.9
908.0786	1723.338	4862.15	3965.35
908.2198	1725.0496	4844.3	3943
908.3609	1726.7605	4829.6	3926.75
908.502	1728.4706	4807.3	3905.75
908.6431	1730.18	4805.5	3904
908.7842	1731.8886	4783.2	3884.75
908.9253	1733.5964	4780.2	3859.25
909.0664	1735.3036	4758.4	3855.05
909.2074	1737.0099	4715.9	3815.55
909.3484	1738.7156	4721.5	3824.5
909.4894	1740.4204	4687.9	3784.25
909.6304	1742.1246	4663.65	3761.3
909.7714	1743.8279	4640.2	3740.05
909.9123	1745.5306	4629.15	3730.25
910.0532	1747.2325	4589.4	3691.25
910.1941	1748.9336	4586	3684.85
910.335	1750.634	4562.5	3658.6
910.4759	1752.3336	4546.65	3646.7
910.6168	1754.0325	4553.25	3658.05
910.7576	1755.7307	4521.5	3625.35
910.8984	1757.4281	4525.9	3624.8
911.0392	1759.1247	4520.8	3606.3
911.18	1760.8206	4499.4	3592.65
911.3208	1762.5158	4503.35	3596.5
911.4615	1764.2102	4479.95	3579.55
911.6022	1765.9039	4447.05	3550.5
911.7429	1767.5968	4445.3	3549.5
911.8836	1769.289	4438.35	3542.55
912.0243	1770.9804	4402.65	3498.8
912.1649	1772.6711	4417.25	3511.95
912.3056	1774.361	4410.75	3506.85
912.4462	1776.0502	4411.25	3508.9
912.5868	1777.7386	4389.8	3485.5
912.7274	1779.4263	4375.15	3475.15
912.8679	1781.1132	4376.05	3480.5
913.0084	1782.7994	4358.95	3462.9
913.149	1784.4849	4350.15	3456.15
913.2895	1786.1696	4341.15	3425.2
913.4299	1787.8535	4318.2	3423.6
913.5704	1789.5367	4318.5	3422.4
913.7108	1791.2192	4309.05	3412.45
913.8513	1792.9009	4316.65	3393
913.9917	1794.5818	4290.65	3387.1
914.132	1796.2621	4284.8	3385.3
914.2724	1797.9415	4283.55	3382.65
914.4128	1799.6202	4270.9	3370.15
914.5531	1801.2982	4268.8	3369.8
914.6934	1802.9755	4248.85	3347.1
914.8337	1804.6519	4245.25	3343.9
914.9739	1806.3277	4250.7	3354.15
915.1142	1808.0027	4213.95	3321.35
915.2544	1809.6769	4215.55	3322.8
915.3946	1811.3504	4193.35	3299.65
915.5348	1813.0231	4193.9	3300.85
915.675	1814.6951	4190.45	3294.95
915.8151	1816.3664	4196.25	3295.95
915.9553	1818.0369	4181.4	3283.35
916.0954	1819.7067	4167.2	3268.75
916.2355	1821.3757	4146.55	3244.6
916.3755	1823.044	4159.05	3256.95
916.5156	1824.7115	4146	3243.1
916.6556	1826.3783	4134.2	3235.75
916.7956	1828.0443	4125.95	3229.2
916.9356	1829.7096	4123.3	3223.9
917.0756	1831.3741	4118.75	3220.45
917.2155	1833.0379	4088.7	3193.5
917.3555	1834.701	4080.8	3185.15
917.4954	1836.3633	4080.65	3188.5
917.6353	1838.0248	4076.3	3180.4
917.7751	1839.6856	4066.55	3168.1
917.915	1841.3457	4068.75	3172.6
918.0548	1843.005	4052.5	3154.45
918.1946	1844.6636	4035.7	3138.65
918.3344	1846.3214	4035	3136.65
918.4742	1847.9785	4023.1	3124.75
918.6139	1849.6349	4028.55	3127.25
918.7537	1851.2904	4038.05	3126
918.8934	1852.9453	4022.25	3119.75
919.0331	1854.5994	4006.55	3105.45
919.1727	1856.2528	4024	3120.35
919.3124	1857.9054	4001.85	3103.05
919.452	1859.5572	3995.75	3100.2
919.5916	1861.2083	3982.6	3084.65
919.7312	1862.8587	3975.2	3077.7
919.8708	1864.5084	3974.3	3072.9
920.0103	1866.1572	3968.6	3068.15
920.1498	1867.8054	3954.7	3052.2
920.2893	1869.4528	3952.2	3050.2
920.4288	1871.0994	3938.3	3039.4
920.5683	1872.7453	3935.4	3034.25
920.7077	1874.3905	3925.4	3022.25
920.8471	1876.0349	3920.2	3020.3
920.9865	1877.6786	3925.45	3025.4
921.1259	1879.3215	3921.7	3022.5
921.2653	1880.9637	3902.6	3002.95
921.4046	1882.6051	3884.5	2985.7
921.5439	1884.2458	3886.8	2987.95
921.6832	1885.8858	3869.6	2971.65
921.8225	1887.525	3870.45	2971
921.9617	1889.1634	3842.4	2944.1
922.101	1890.8011	3837.25	2936.6
922.2402	1892.4381	3823.45	2925.4
922.3794	1894.0743	3827.7	2930.15
922.5185	1895.7098	3810.45	2910.95
922.6577	1897.3446	3817.3	2920.55
922.7968	1898.9786	3813.2	2911.65
922.9359	1900.6118	3796.25	2902.15
923.075	1902.2443	3792.85	2896.75
923.214	1903.8761	3774.8	2877.75
923.3531	1905.5071	3754.4	2855.5
923.4921	1907.1374	3741.45	2844.25
923.6311	1908.7669	3733.35	2837.2
923.77	1910.3957	3725.25	2828.95
923.909	1912.0237	3715.15	2819.85
924.0479	1913.651	3714.5	2815.25
924.1868	1915.2776	3706.95	2809.7
924.3257	1916.9034	3697.15	2800.2
924.4646	1918.5285	3686.85	2792.95
924.6034	1920.1528	3675.1	2778.3
924.7422	1921.7764	3675.9	2778.65
924.881	1923.3992	3657.15	2760.95
925.0198	1925.0213	3622.2	2724.05
925.1586	1926.6427	3628.2	2733.4
925.2973	1928.2633	3678.9	2703.8
925.436	1929.8832	3629.1	2730.8
925.5747	1931.5023	3608.85	2712.6
925.7134	1933.1207	3598.75	2702.25
925.852	1934.7383	3580.6	2683.95
925.9906	1936.3552	3585.45	2689.8
926.1292	1937.9714	3571.9	2676.3
926.2678	1939.5868	3573.75	2676.2
926.4064	1941.2015	3562.6	2664.45
926.5449	1942.8154	3553	2656.1
926.6834	1944.4286	3537.95	2639.65
926.8219	1946.041	3536.55	2627.1
926.9604	1947.6528	3527.45	2624.3
927.0988	1949.2637	3517.35	2620.75
927.2372	1950.8739	3503.7	2607.2
927.3756	1952.4834	3497.4	2600.95
927.514	1954.0921	3484.45	2586.4
927.6523	1955.7001	3464.8	2566.75
927.7907	1957.3074	3467.15	2575.35
927.929	1958.9139	3464.75	2575
928.0673	1960.5197	3444.4	2551.9
928.2055	1962.1247	3433.3	2538.4
928.3438	1963.729	3417.95	2525.45
928.482	1965.3325	3403.4	2504.95
928.6202	1966.9353	3398.85	2508.6
928.7584	1968.5374	3388.35	2493.8
928.8965	1970.1387	3397.15	2504
929.0346	1971.7393	3378.6	2487.55
929.1727	1973.3392	3370.7	2480.45
929.3108	1974.9383	3361.95	2472.45
929.4489	1976.5366	3347.65	2459.15
929.5869	1978.1342	3335.15	2446
929.7249	1979.7311	3336.95	2447.2
929.8629	1981.3273	3332.25	2443.95
930.0009	1982.9227	3317.4	2427.2
930.1388	1984.5173	3302.5	2414.35
930.2767	1986.1112	3303.95	2418.65
930.4146	1987.7044	3288.2	2399.9
930.5525	1989.2968	3274.25	2385.4
930.6904	1990.8885	3284.95	2394.25
930.8282	1992.4795	3273.8	2388.7
930.966	1994.0697	3272.7	2387.45
931.1038	1995.6592	3248.45	2360.5
931.2415	1997.2479	3253.7	2364.15
931.3793	1998.8359	3245.9	2360.6
931.517	2000.4232	3228.2	2346.55
931.6547	2002.0097	3211.2	2330
931.7923	2003.5955	3220.45	2338.15
931.93	2005.1805	3202.4	2317.95
932.0676	2006.7648	3203.3	2318.75
932.2052	2008.3484	3208.6	2325.25
932.3427	2009.9312	3214.15	2331.5
932.4803	2011.5133	3174.65	2294.95
932.6178	2013.0946	3184.7	2303.35
932.7553	2014.6752	3177	2292.5
932.8928	2016.2551	3178.25	2292.15
933.0302	2017.8342	3155.05	2271.5
933.1676	2019.4126	3150.95	2266.65
933.305	2020.9902	3129.15	2249.55
933.4424	2022.5672	3146.35	2265.4
933.5798	2024.1433	3139.95	2253.4
933.7171	2025.7188	3117.8	2240.15
933.8544	2027.2935	3110.2	2229.75
933.9917	2028.8674	3111.25	2232.75
934.129	2030.4406	3100.7	2223.25
934.2662	2032.0131	3083.35	2205.3
934.4034	2033.5849	3074.6	2190.65
934.5406	2035.1559	3069.45	2191.85
934.6778	2036.7261	3079	2196.05
934.8149	2038.2957	3075.6	2188.5
934.952	2039.8645	3066.05	2176.55
935.0891	2041.4325	3067.35	2179.9
935.2262	2042.9998	3059.6	2176.9
935.3632	2044.5664	3051	2168.85
935.5002	2046.1323	3042.1	2160.9
935.6372	2047.6974	3034.3	2154.2
935.7742	2049.2617	3027.95	2145
935.9111	2050.8254	3054.1	2152.55
936.048	2052.3883	3034.55	2148.1
936.1849	2053.9504	3032.45	2146
936.3218	2055.5118	3020.35	2133.05
936.4586	2057.0725	2999.75	2113.1
936.5955	2058.6325	3009.4	2125.85
936.7323	2060.1917	3000.5	2118.85
936.869	2061.7502	2990	2106.9
937.0058	2063.3079	2965.25	2085.5
937.1425	2064.8649	2971.2	2088.15
937.2792	2066.4212	2970.7	2087.6
937.4159	2067.9767	2966.1	2081.9
937.5525	2069.5315	2948.7	2064.1
937.6891	2071.0856	2960	2077.1
937.8257	2072.6389	2935.45	2053.5
937.9623	2074.1915	2924.75	2044.9
938.0989	2075.7433	2914.65	2029.75
938.2354	2077.2945	2923.75	2040.15
938.3719	2078.8448	2920.15	2035.25
938.5084	2080.3945	2900.35	2015.35
938.6448	2081.9434	2912	2025.05
938.7812	2083.4916	2880.15	1991.8
938.9176	2085.039	2884.9	1992.9
939.054	2086.5857	2885	1993.4
939.1903	2088.1317	2890.5	1998.4
939.3267	2089.677	2889.75	1994.95
939.463	2091.2215	2870.55	1975.2
939.5992	2092.7652	2869.2	1971.45
939.7355	2094.3083	2857	1964.7
939.8717	2095.8506	2842.5	1953.4
940.0079	2097.3921	2856.55	1970.6
940.1441	2098.933	2838.95	1952.4
940.2802	2100.4731	2834.65	1946
940.4163	2102.0124	2847.4	1951.55
940.5524	2103.5511	2833.95	1942.7
940.6885	2105.089	2832.35	1941.5
940.8245	2106.6261	2829.8	1939.5
940.9606	2108.1626	2809.05	1922.05
941.0965	2109.6983	2834.85	1917.65
941.2325	2111.2332	2821	1931.4
941.3684	2112.7675	2801.25	1912.2
941.5044	2114.301	2815.05	1925.9
941.6403	2115.8337	2795.3	1903.7
941.7761	2117.3657	2797.65	1907.4
941.912	2118.897	2796.1	1906.55
942.0478	2120.4276	2800.7	1903.6
942.1835	2121.9575	2773.65	1881.2
942.3193	2123.4866	2777.65	1881.35
942.455	2125.0149	2764.35	1874.15
942.5907	2126.5426	2763.2	1879.4
942.7264	2128.0695	2743.65	1856.55
942.8621	2129.5956	2738.2	1856.75
942.9977	2131.1211	2742.3	1852.55
943.1333	2132.6458	2740.35	1853.7
943.2689	2134.1698	2742.95	1851.85
943.4044	2135.693	2734.65	1838.4
943.54	2137.2155	2734.1	1841.05
943.6755	2138.7373	2716.25	1826.5
943.8109	2140.2584	2701.85	1817.05
943.9464	2141.7787	2702.7	1813.75
944.0818	2143.2983	2696.15	1817.5
944.2172	2144.8171	2680.45	1801.15
944.3526	2146.3353	2686.8	1800.7
944.4879	2147.8527	2673.4	1790.55
944.6232	2149.3693	2688.2	1800.4
944.7585	2150.8853	2679.65	1789.1
944.8938	2152.4005	2662.55	1771.8
945.029	2153.9149	2662.85	1769.1
945.1642	2155.4287	2660.7	1768.95
945.2994	2156.9417	2646.8	1756.2
945.4346	2158.454	2648.65	1760.3
945.5697	2159.9655	2636.9	1754.85
945.7048	2161.4764	2635.65	1748.4
945.8399	2162.9865	2629.95	1744.35
945.9749	2164.4958	2628.95	1742.15
946.1099	2166.0045	2632.45	1744.55
946.2449	2167.5124	2616	1729.6
946.3799	2169.0195	2606.3	1718.6
946.5148	2170.526	2615.5	1723.25
946.6498	2172.0317	2603.85	1712.3
946.7846	2173.5367	2604.7	1715.85
946.9195	2175.0409	2596.55	1709
947.0543	2176.5445	2605.85	1718.4
947.1891	2178.0473	2593.95	1703.15
947.3239	2179.5494	2584.3	1688.55
947.4587	2181.0507	2568.85	1679.8
947.5934	2182.5513	2579.85	1692.95
947.7281	2184.0512	2568.85	1679.65
947.8628	2185.5504	2562.95	1673.9
947.9974	2187.0488	2555.55	1670.6
948.132	2188.5465	2551.65	1668.55
948.2666	2190.0435	2564.55	1676.15
948.4012	2191.5397	2534.55	1644.9
948.5357	2193.0353	2532.75	1641
948.6702	2194.5301	2532.75	1638.05
948.8047	2196.0241	2532.8	1640.5
948.9392	2197.5175	2521.55	1626.7
949.0736	2199.0101	2531.6	1634.05
949.208	2200.502	2511.05	1619.5
949.3424	2201.9931	2502.55	1616.3
949.4767	2203.4835	2509.9	1623.55
949.611	2204.9733	2491.85	1601.35
949.7453	2206.4622	2489.85	1605.95
949.8796	2207.9505	2486.05	1602.3
950.0138	2209.438	2477.6	1596.8
950.148	2210.9248	2481.7	1594.5
950.2822	2212.4109	2467.85	1579.45
950.4164	2213.8962	2472.85	1580.45
950.5505	2215.3809	2469	1572.7
950.6846	2216.8648	2462.15	1566.5
950.8186	2218.3479	2461.2	1559.6
950.9527	2219.8304	2462.25	1564.8
951.0867	2221.3121	2449.9	1553.6
951.2207	2222.7931	2448.15	1553.7
951.3546	2224.2733	2422.9	1530.6
951.4886	2225.7529	2418.8	1530
951.6225	2227.2317	2414.2	1524.45
951.7563	2228.7098	2405.3	1520.05
951.8902	2230.1872	2403.1	1518.7
952.024	2231.6638	2401.05	1517.35
952.1578	2233.1397	2398.55	1508.55
952.2916	2234.6149	2384.9	1501.15
952.4253	2236.0894	2388.5	1498.55
952.559	2237.5632	2393.6	1496.65
952.6927	2239.0362	2384.9	1497.25
952.8263	2240.5085	2377.75	1490.35
952.9599	2241.9801	2365.55	1476.75
953.0935	2243.4509	2369.5	1476.85
953.2271	2244.921	2363.25	1469.95
953.3606	2246.3904	2359.65	1463.35
953.4941	2247.8591	2352.2	1459.05
953.6276	2249.3271	2345.8	1454.85
953.7611	2250.7943	2342.55	1450.9
953.8945	2252.2608	2336.25	1445.55
954.0279	2253.7266	2327.5	1438
954.1612	2255.1917	2329.35	1441.05
954.2946	2256.656	2319.75	1431.3
954.4279	2258.1197	2320.85	1434.05
954.5612	2259.5826	2315.5	1425.65
954.6944	2261.0447	2306.4	1413.6
954.8276	2262.5062	2309.05	1416.5
954.9608	2263.9669	2297.1	1400.7
955.094	2265.4269	2305.95	1414.3
955.2271	2266.8862	2292.8	1404.15
955.3602	2268.3448	2284	1396.35
955.4933	2269.8026	2286.25	1398.75
955.6264	2271.2598	2274.95	1386.4
955.7594	2272.7162	2281.95	1394.15
955.8924	2274.1719	2280.95	1390.35
956.0253	2275.6268	2281.85	1387.95
956.1583	2277.0811	2274.25	1380.15
956.2912	2278.5346	2272.05	1384.7
956.4241	2279.9874	2265.2	1379.5
956.5569	2281.4395	2259.55	1372.5
956.6897	2282.8908	2258.05	1365.85
956.8225	2284.3414	2257.95	1369.2
956.9553	2285.7914	2244.7	1356.1
957.088	2287.2406	2252.15	1358.85
957.2207	2288.689	2256.25	1361.65
957.3534	2290.1368	2250.1	1352.4
957.486	2291.5838	2241.5	1343.6
957.6186	2293.0302	2245.05	1349.5
957.7512	2294.4758	2237.95	1343.6
957.8838	2295.9206	2231.95	1337.95
958.0163	2297.3648	2222.35	1331.9
958.1488	2298.8082	2214.2	1326.9
958.2813	2300.251	2213.6	1321.55
958.4137	2301.693	2217.45	1322.4
958.5461	2303.1343	2217.8	1322.85
958.6785	2304.5748	2199.25	1307.2
958.8108	2306.0147	2194.25	1306.75
958.9432	2307.4538	2196.35	1307.85
959.0754	2308.8922	2184.75	1300.35
959.2077	2310.3299	2194.4	1307.6
959.3399	2311.7669	2182.8	1294.2
959.4721	2313.2031	2182.1	1294.15
959.6043	2314.6387	2184.2	1293.55
959.7365	2316.0735	2179.75	1289.05
959.8686	2317.5076	2176.8	1284.3
960.0006	2318.941	2182.45	1289.35
960.1327	2320.3737	2163.65	1268.75
960.2647	2321.8056	2167.5	1270.05
960.3967	2323.2369	2140.3	1250.8
960.5287	2324.6674	2160.25	1265.4
960.6606	2326.0972	2139	1247.9
960.7925	2327.5263	2146.6	1254.1
960.9244	2328.9547	2140.7	1248.1
961.0562	2330.3823	2137.7	1244.45
961.1881	2331.8092	2140.3	1242.1
961.3198	2333.2355	2122.15	1226.55
961.4516	2334.661	2128.1	1235.6
961.5833	2336.0858	2121.6	1227.45
961.715	2337.5098	2123.5	1231.2
961.8467	2338.9332	2126.35	1233.75
961.9783	2340.3558	2118.95	1224.85
962.1099	2341.7778	2112.7	1225.25
962.2415	2343.199	2109.6	1219.1
962.373	2344.6195	2101.15	1211.95
962.5045	2346.0393	2099.1	1209.55
962.636	2347.4583	2100.2	1208.95
962.7675	2348.8767	2090.75	1197.1
962.8989	2350.2943	2098.9	1205.2
963.0303	2351.7113	2094.35	1199.2
963.1617	2353.1275	2094.7	1199.55
963.293	2354.543	2100.95	1196.45
963.4243	2355.9578	2093.85	1200.3
963.5556	2357.3718	2076.45	1187.6
963.6868	2358.7852	2070.9	1181.2
963.818	2360.1978	2074.4	1184.45
963.9492	2361.6098	2074.7	1186.05
964.0803	2363.021	2064.05	1170.05
964.2114	2364.4315	2062.2	1171.55
964.3425	2365.8413	2059.55	1167.55
964.4736	2367.2504	2053.2	1166.1
964.6046	2368.6587	2047.3	1158.15
964.7356	2370.0664	2049.85	1161.4
964.8666	2371.4733	2041.35	1152.05
964.9975	2372.8795	2031.35	1140.85
965.1284	2374.285	2044.55	1155.4
965.2593	2375.6899	2035.1	1143.9
965.3901	2377.0939	2014.2	1124
965.5209	2378.4973	2027.05	1137.95
965.6517	2379.9	2013.25	1121.7
965.7825	2381.3019	2010.85	1123
965.9132	2382.7032	2011	1123.7
966.0439	2384.1037	2006.85	1120.25
966.1745	2385.5035	1996.75	1110.25
966.3051	2386.9027	1997.45	1114.1
966.4357	2388.3011	1994.8	1105.15
966.5663	2389.6987	1994.35	1106.95
966.6968	2391.0957	1982.65	1096.2
966.8273	2392.492	1979.9	1094.1
966.9578	2393.8876	1981.05	1092.3
967.0882	2395.2824	1972.55	1085.05
967.2186	2396.6765	1972.55	1083.45
967.349	2398.07	1965.4	1073.5
967.4793	2399.4627	1967.25	1076.85
967.6097	2400.8547	1969.9	1079.5
967.7399	2402.246	1972.45	1075.6
967.8702	2403.6366	1958.05	1067.75
968.0004	2405.0265	1941.45	1054.65
968.1306	2406.4156	1939.2	1048.85
968.2607	2407.8041	1952.2	1058.6
968.3909	2409.1918	1941.95	1049.05
968.521	2410.5789	1940.2	1051.05
968.651	2411.9652	1930.2	1036.95
968.781	2413.3508	1930.35	1040.55
968.911	2414.7358	1930.95	1040
969.041	2416.12	1919.15	1030.75
969.1709	2417.5035	1929.7	1041.3
969.3008	2418.8863	1918.55	1027.5
969.4307	2420.2684	1919.55	1028.9
969.5606	2421.6497	1915	1025.4
969.6904	2423.0304	1903.95	1015.5
969.8201	2424.4104	1900.9	1011.45
969.9499	2425.7896	1899.6	1008.65
970.0796	2427.1682	1894.85	1006.85
970.2093	2428.546	1896.5	1008.65
970.3389	2429.9232	1903.05	1012.9
970.4685	2431.2996	1898.1	1007.75
970.5981	2432.6753	1891.2	1001.05
970.7277	2434.0503	1891	1003.3
970.8572	2435.4246	1884.35	992.8
970.9867	2436.7982	1887.35	996.2
971.1161	2438.1711	1870.8	979.45
971.2456	2439.5433	1863	971.85
971.375	2440.9148	1872.55	976.8
971.5043	2442.2856	1864.75	974
971.6336	2443.6557	1857.55	966.4
971.7629	2445.025	1857.6	968.2
971.8922	2446.3937	1855.2	965.6
972.0214	2447.7617	1858.7	968.7
972.1506	2449.1289	1849.3	960.4
972.2798	2450.4955	1849.75	959.05
972.4089	2451.8613	1850.55	962.45
972.538	2453.2265	1836.6	946.35
972.6671	2454.5909	1841.25	951.75
972.7961	2455.9546	1838.05	948.8
972.9251	2457.3177	1829.55	938.9
973.0541	2458.68	1832.9	941.5
973.1831	2460.0416	1827.15	937.4
973.312	2461.4025	1837.75	946.15
973.4408	2462.7627	1841.8	943.95
973.5697	2464.1222	1820.35	931.3
973.6985	2465.4811	1824	935
973.8273	2466.8392	1814.75	925.95
973.956	2468.1966	1822.3	932.45
974.0847	2469.5533	1823.15	931.95
974.2134	2470.9093	1819.85	930.15
974.3421	2472.2645	1817.1	925.75
974.4707	2473.6191	1813.75	925.1
974.5993	2474.973	1811.75	922.5
974.7278	2476.3262	1802.65	912.5
974.8563	2477.6787	1803.95	913.5
974.9848	2479.0305	1795.6	908.75
975.1132	2480.3816	1793.9	902.4
975.2417	2481.7319	1801.45	912.75
975.37	2483.0816	1789.15	899.9
975.4984	2484.4306	1786.3	895.9
975.6267	2485.7789	1784.9	897.25
975.755	2487.1264	1782.1	893.5
975.8833	2488.4733	1778.95	890.6
976.0115	2489.8195	1776.8	881.35
976.1397	2491.165	1782.1	890.75
976.2678	2492.5097	1773.5	884
976.3959	2493.8538	1769.3	880.5
976.524	2495.1972	1765.3	875.15
976.6521	2496.5398	1756.3	864.45
976.7801	2497.8818	1758.15	865.8
976.9081	2499.2231	1760.35	869.6
977.036	2500.5637	1762.5	871
977.164	2501.9035	1748.6	855.05
977.2918	2503.2427	1750.1	856.6
977.4197	2504.5812	1737.3	847.95
977.5475	2505.919	1749.05	859.95
977.6753	2507.256	1742.45	852.35
977.8031	2508.5924	1736.05	847.6
977.9308	2509.9281	1736	838.55
978.0585	2511.2631	1738	850.95
978.1861	2512.5974	1724.8	836.65
978.3137	2513.9309	1725.95	839.1
978.4413	2515.2638	1747.75	831.75
978.5689	2516.596	1724.85	836.75
978.6964	2517.9275	1721.4	831.85
978.8239	2519.2583	1722.15	833.05
978.9513	2520.5884	1713.5	822.35
979.0788	2521.9178	1699.7	810.85
979.2062	2523.2465	1713.8	826.25
979.3335	2524.5745	1705.05	815
979.4608	2525.9018	1706.1	816.55
979.5881	2527.2284	1709.25	822.1
979.7154	2528.5543	1704.15	814.7
979.8426	2529.8796	1699.9	808.3
979.9698	2531.2041	1695.1	806.95
980.0969	2532.5279	1704.7	818.1
980.224	2533.851	1695.9	807.15
980.3511	2535.1735	1698.4	810.25
980.4781	2536.4952	1687.85	798.4
980.6052	2537.8163	1684.8	792.9
980.7321	2539.1366	1689.85	799
980.8591	2540.4562	1695.9	804.95
980.986	2541.7752	1691.65	801.05
981.1129	2543.0935	1682.45	795
981.2397	2544.411	1681.45	790.5
981.3665	2545.7279	1681.3	790.95
981.4933	2547.0441	1672.85	784.45
981.62	2548.3596	1688.2	795
981.7467	2549.6744	1682.45	789.9
981.8734	2550.9885	1678.4	785.55
982.0001	2552.3019	1676.35	785.1
982.1267	2553.6146	1679.55	789.25
982.2532	2554.9266	1671.65	782.7
982.3798	2556.2379	1671.6	781.2
982.5063	2557.5485	1659.6	770.8
982.6327	2558.8585	1666.85	769
982.7592	2560.1677	1669.2	773.55
982.8856	2561.4762	1660.65	770.25
983.0119	2562.7841	1661.4	767.3
983.1383	2564.0913	1653.2	764.7
983.2646	2565.3977	1660.4	771.4
983.3908	2566.7035	1651.2	763.3
983.517	2568.0086	1657.1	766
983.6432	2569.313	1656.55	767.95
983.7694	2570.6167	1652.25	758.5
983.8955	2571.9197	1644.35	753.15
984.0216	2573.222	1656.7	762.3
984.1476	2574.5236	1654.75	763.1
984.2737	2575.8246	1649.75	755.05
984.3996	2577.1248	1648.1	754.75
984.5256	2578.4244	1633.7	743.65
984.6515	2579.7232	1651.7	763.15
984.7774	2581.0214	1670.4	754.65
984.9032	2582.3189	1641.7	751.3
985.029	2583.6157	1649.95	754.2
985.1548	2584.9118	1642.45	752.65
985.2806	2586.2072	1644	755.25
985.4063	2587.5019	1647.5	761.6
985.5319	2588.7959	1632.75	741.9
985.6576	2590.0893	1637.25	746.85
985.7832	2591.3819	1643.05	753.15
985.9087	2592.6739	1636.3	745.55
986.0343	2593.9652	1649.65	760.4
986.1597	2595.2557	1643.6	753.9
986.2852	2596.5456	1639.1	747
986.4106	2597.8348	1639.05	750.45
986.536	2599.1234	1634.85	745.25
986.6614	2600.4112	1634.35	744.55
986.7867	2601.6983	1637.25	745.45
986.912	2602.9848	1638.6	749.45
987.0372	2604.2705	1632.45	735.6
987.1624	2605.5556	1630.25	741.8
987.2876	2606.84	1632.65	745.9
987.4128	2608.1237	1627.6	738.05
987.5379	2609.4067	1621.2	730.9
987.6629	2610.689	1624.35	724.65
987.788	2611.9707	1618.7	726.1
987.913	2613.2516	1614.45	720.85
988.0379	2614.5319	1606.45	718.75
988.1629	2615.8115	1604.2	713.45
988.2878	2617.0903	1599.95	711
988.4126	2618.3685	1596.65	709
988.5375	2619.6461	1601.7	713.7
988.6622	2620.9229	1590.1	704.4
988.787	2622.199	1594.55	703.4
988.9117	2623.4745	1593.25	702.95
989.0364	2624.7493	1591.6	702.9
989.161	2626.0234	1593.7	705.65
989.2857	2627.2968	1591	703.5
989.4102	2628.5695	1599	710.5
989.5348	2629.8415	1587.8	700.75
989.6593	2631.1128	1592.75	703.4
989.7837	2632.3835	1580.5	691.7
989.9082	2633.6535	1586	698.95
990.0326	2634.9228	1583.35	696.5
990.1569	2636.1914	1576.95	689.05
990.2812	2637.4593	1578.5	689.35
990.4055	2638.7265	1589.15	700.85
990.5298	2639.9931	1574.65	689.2
990.654	2641.259	1581.75	692.9
990.7782	2642.5242	1576.3	689.85
990.9023	2643.7887	1568.9	681.6
991.0264	2645.0525	1570.05	680.7
991.1505	2646.3156	1564.95	677.15
991.2745	2647.5781	1561	674.15
991.3985	2648.8398	1557.7	671.25
991.5225	2650.1009	1592.25	667.25
991.6464	2651.3613	1558.3	673.15
991.7703	2652.6211	1557.5	668.65
991.8942	2653.8801	1554.1	666.45
992.018	2655.1385	1553.7	662.2
992.1418	2656.3961	1557.15	669.4
992.2655	2657.6531	1550.25	663.8
992.3892	2658.9094	1551.8	664.1
992.5129	2660.1651	1558.5	672.2
992.6366	2661.42	1559.15	673
992.7602	2662.6743	1549.35	661.8
992.8837	2663.9279	1549.8	662.65
993.0073	2665.1808	1564.4	676.9
993.1307	2666.433	1558.55	671.3
993.2542	2667.6846	1545.85	661.2
993.3776	2668.9354	1553.75	662.05
993.501	2670.1856	1558.7	669.8
993.6244	2671.4351	1562.15	675.35
993.7477	2672.6839	1569.6	682.05
993.8709	2673.9321	1566.65	681
993.9942	2675.1795	1569.3	681
994.1174	2676.4263	1565.85	680.7
994.2405	2677.6724	1572.95	687.05
994.3637	2678.9179	1563.5	674.4
994.4868	2680.1626	1567.4	679.85
994.6098	2681.4067	1565.5	678.05
994.7328	2682.6501	1566.75	679.9
994.8558	2683.8928	1557.6	670.35
994.9788	2685.1348	1548.05	661.25
995.1017	2686.3761	1549	664.05
995.2245	2687.6168	1541.4	655.25
995.3474	2688.8568	1541.05	655.75
995.4702	2690.0961	1542.3	656.4
995.5929	2691.3348	1543.8	654.85
995.7156	2692.5727	1538	650.55
995.8383	2693.81	1526.9	640.35
995.961	2695.0466	1532.45	647.2
996.0836	2696.2826	1534.9	646.6
996.2062	2697.5178	1545.15	638.8
996.3287	2698.7524	1537	649
996.4512	2699.9863	1528.9	640.35
996.5737	2701.2195	1531.4	646.25
996.6961	2702.452	1541.55	653.95
996.8185	2703.6839	1536.45	647.75
996.9408	2704.9151	1548.9	665.2
997.0631	2706.1456	1551.75	663.35
997.1854	2707.3755	1554.9	667.15
997.3077	2708.6046	1554.8	666.95
997.4299	2709.8331	1556.35	668.75
997.552	2711.0609	1563.05	677.3
997.6742	2712.2881	1571.2	683.55
997.7963	2713.5145	1574.75	686.95
997.9183	2714.7403	1584.65	700.75
998.0403	2715.9654	1597.35	711.2
998.1623	2717.1899	1626.35	725.8
998.2842	2718.4136	1622.75	736
998.4062	2719.6367	1631.9	745.4
998.528	2720.8591	1637.35	745
998.6498	2722.0809	1644.85	759.7
998.7716	2723.3019	1661.95	772.7
998.8934	2724.5223	1670.55	783.55
999.0151	2725.7421	1669.45	782.85
999.1368	2726.9611	1681.85	795.75
999.2584	2728.1795	1678.55	786.55
999.38	2729.3972	1665.85	779.45
999.5016	2730.6142	1677.45	779.1
999.6231	2731.8306	1642.45	754.5
999.7446	2733.0462	1628.65	739.4
999.8661	2734.2612	1612.7	721.1
999.9875	2735.4756	1590.15	702.55
1000.1089	2736.6892	1585.8	699.15
1000.2302	2737.9022	1569.95	684.7
1000.3515	2739.1145	1545.4	661.4
1000.4728	2740.3262	1533.75	639.7
1000.594	2741.5372	1528.05	643.05
1000.7152	2742.7475	1506.55	621.9
1000.8363	2743.9571	1507.75	618.65
1000.9575	2745.1661	1503.8	613.65
1001.0785	2746.3744	1498.35	609.4
1001.1996	2747.582	1478.8	593.9
1001.3206	2748.7889	1473.25	586.15
1001.4415	2749.9952	1467.5	582.55
1001.5625	2751.2008	1461.55	575.15
1001.6833	2752.4057	1460.1	571.9
1001.8042	2753.61	1448.9	563.1
1001.925	2754.8136	1452.1	562.95
1002.0458	2756.0165	1451.05	564.35
1002.1665	2757.2188	1449.55	565.65
1002.2872	2758.4204	1445.1	559
1002.4078	2759.6213	1452.8	567.15
1002.5285	2760.8215	1447.25	557.35
1002.649	2762.0211	1439.15	551.3
1002.7696	2763.22	1444.85	556.45
1002.8901	2764.4182	1444.45	558.5
1003.0106	2765.6158	1442.45	556.3
1003.131	2766.8127	1426.9	542.3
1003.2514	2768.009	1430.05	544.25
1003.3717	2769.2045	1426.95	541.65
1003.492	2770.3994	1426.1	537.95
1003.6123	2771.5936	1427.85	541.7
1003.7325	2772.7872	1414.85	532.55
1003.8527	2773.9801	1415.5	528.55
1003.9729	2775.1723	1429.95	528.9
1004.093	2776.3639	1411.8	527.7
1004.2131	2777.5548	1410.15	525.5
1004.3331	2778.745	1411.85	524.2
1004.4531	2779.9346	1409.05	524.45
1004.5731	2781.1235	1419.9	533.65
1004.693	2782.3117	1421.35	538.75
1004.8129	2783.4992	1420.7	538.3
1004.9328	2784.6861	1420.95	536.2
1005.0526	2785.8723	1430	543.25
1005.1723	2787.0579	1426.8	542.85
1005.2921	2788.2428	1428.65	546.45
1005.4118	2789.427	1437.75	554.8
1005.5314	2790.6106	1442.35	559.6
1005.651	2791.7935	1455.45	571.8
1005.7706	2792.9757	1450.45	568.2
1005.8902	2794.1573	1467.9	580.4
1006.0097	2795.3382	1478.25	595.7
1006.1291	2796.5184	1485	602.1
1006.2485	2797.698	1493.35	609.55
1006.3679	2798.8769	1503.15	620.7
1006.4873	2800.0551	1518.35	632.85
1006.6066	2801.2327	1538.9	653.3
1006.7258	2802.4096	1547.85	665.3
1006.8451	2803.5859	1561.35	677.45
1006.9642	2804.7615	1575.2	692.1
1007.0834	2805.9364	1599.75	717.7
1007.2025	2807.1106	1618.55	737.5
1007.3216	2808.2842	1646.45	761.1
1007.4406	2809.4572	1670.8	786.65
1007.5596	2810.6294	1697.05	811.15
1007.6785	2811.801	1726.65	845.7
1007.7975	2812.972	1758.65	875.6
1007.9163	2814.1423	1806.55	923.2
1008.0352	2815.3119	1843.45	958.3
1008.154	2816.4808	1884.95	1003.45
1008.2727	2817.6491	1945.4	1059.85
1008.3914	2818.8167	2001.65	1119.35
1008.5101	2819.9837	2044.7	1156.55
1008.6288	2821.15	2097.2	1215.15
1008.7474	2822.3157	2142.15	1259.05
1008.8659	2823.4807	2203.15	1320.5
1008.9844	2824.645	2256.1	1370.55
1009.1029	2825.8086	2308.8	1428.55
1009.2214	2826.9716	2356.65	1474.05
1009.3398	2828.134	2407.2	1525.4
1009.4581	2829.2957	2447	1565.55
1009.5764	2830.4567	2478.9	1596.65
1009.6947	2831.617	2505.45	1622.6
1009.813	2832.7767	2519.6	1637.3
1009.9312	2833.9358	2524.45	1643.1
1010.0493	2835.0941	2523.6	1641.9
1010.1675	2836.2519	2504.65	1619.7
1010.2855	2837.4089	2496.45	1614.8
1010.4036	2838.5653	2473.4	1589.65
1010.5216	2839.7211	2463.3	1580.85
1010.6396	2840.8761	2463.15	1579.8
1010.7575	2842.0306	2484.95	1603.4
1010.8754	2843.1843	2503.95	1622.5
1010.9932	2844.3374	2523.9	1641.7
1011.111	2845.4899	2569.1	1684.45
1011.2288	2846.6417	2627.9	1746.25
1011.3465	2847.7928	2689.9	1805.85
1011.4642	2848.9433	2760	1879.65
1011.5818	2850.0931	2814.15	1933.2
1011.6995	2851.2422	2872.6	1988.3
1011.817	2852.3907	2948	2065.95
1011.9345	2853.5385	2987.95	2103.15
1012.052	2854.6857	3047.05	2153.65
1012.1695	2855.8323	3090.85	2208.55
1012.2869	2856.9781	3150.95	2268
1012.4042	2858.1233	3179.35	2298.5
1012.5216	2859.2679	3233.1	2348.2
1012.6389	2860.4118	3288.55	2407.55
1012.7561	2861.555	3346.85	2461.15
1012.8733	2862.6976	3356.95	2470.75
1012.9905	2863.8395	3392.5	2512.2
1013.1076	2864.9808	3435.95	2553.7
1013.2247	2866.1214	3453.55	2571.6
1013.3417	2867.2614	3481.45	2599.55
1013.4587	2868.4007	3478.05	2594.85
1013.5757	2869.5393	3501.2	2617.5
1013.6926	2870.6773	3507.7	2622.7
1013.8095	2871.8146	3522.15	2636.55
1013.9263	2872.9513	3530.75	2646.95
1014.0431	2874.0874	3523.5	2639.75
1014.1599	2875.2227	3501.55	2619.6
1014.2766	2876.3574	3485.15	2602.35
1014.3933	2877.4915	3478.05	2596.75
1014.51	2878.6249	3442.25	2562.65
1014.6266	2879.7577	3420.6	2536.3
1014.7431	2880.8898	3402.65	2511.85
1014.8596	2882.0212	3380.75	2499.5
1014.9761	2883.152	3367.55	2485
1015.0925	2884.2821	3346	2466
1015.2089	2885.4116	3362	2479.65
1015.3253	2886.5405	3355.15	2474.95
1015.4416	2887.6686	3365.3	2479.1
1015.5579	2888.7962	3370.7	2491.45
1015.6741	2889.923	3365.05	2486.15
1015.7903	2891.0493	3379.3	2497.5
1015.9065	2892.1748	3382.3	2501.6
1016.0226	2893.2997	3410.8	2526.4
1016.1387	2894.424	3414.7	2534.85
1016.2547	2895.5476	3439	2558.7
1016.3707	2896.6706	3457.35	2576.1
1016.4866	2897.7929	3476.75	2595.55
1016.6025	2898.9145	3516.1	2632.2
1016.7184	2900.0355	3520.25	2639
1016.8342	2901.1559	3564.45	2682.15
1016.95	2902.2756	3599.15	2714.85
1017.0658	2903.3946	3622.65	2742.45
1017.1815	2904.513	3646.75	2764.65
1017.2971	2905.6308	3670.6	2789.9
1017.4127	2906.7479	3690.9	2808.4
1017.5283	2907.8643	3716.85	2834.2
1017.6439	2908.9801	3726.85	2845.3
1017.7594	2910.0953	3736.8	2856.4
1017.8748	2911.2098	3729.8	2845.1
1017.9902	2912.3236	3756.15	2866.1
1018.1056	2913.4368	3721.9	2837.85
1018.2209	2914.5494	3705.9	2824.9
1018.3362	2915.6613	3669.85	2781.15
1018.4515	2916.7725	3634.45	2750.5
1018.5667	2917.8831	3619.3	2736.15
1018.6819	2918.9931	3594.1	2710.3
1018.797	2920.1024	3554.25	2671.4
1018.9121	2921.211	3539.3	2659.75
1019.0271	2922.319	3527.45	2644.65
1019.1421	2923.4264	3525.3	2645.25
1019.2571	2924.5331	3487.8	2608.6
1019.372	2925.6391	3476.4	2598.45
1019.4869	2926.7445	3476.15	2596.25
1019.6017	2927.8493	3484.6	2605.05
1019.7165	2928.9534	3494.55	2612
1019.8313	2930.0569	3491.45	2607.85
1019.946	2931.1597	3492.45	2608.25
1020.0606	2932.2619	3488.4	2608.95
1020.1753	2933.3634	3489.3	2606.7
1020.2899	2934.4643	3500.55	2614.1
1020.4044	2935.5645	3484.75	2597.65
1020.5189	2936.6641	3455.25	2569.8
1020.6334	2937.763	3429.05	2550.1
1020.7478	2938.8613	3381.95	2500.2
1020.8622	2939.959	3346.55	2462.2
1020.9765	2941.056	3266.35	2385.7
1021.0908	2942.1523	3200.9	2318.45
1021.2051	2943.248	3132.25	2252.65
1021.3193	2944.3431	3039.55	2156.7
1021.4334	2945.4375	2943.2	2064.2
1021.5476	2946.5313	2852.95	1974.6
1021.6617	2947.6244	2755.45	1875.65
1021.7757	2948.7169	2652.65	1773.3
1021.8897	2949.8087	2568.65	1686.95
1022.0037	2950.8999	2483.5	1603.35
1022.1176	2951.9904	2405.8	1527.25
1022.2315	2953.0803	2334.05	1453.65
1022.3453	2954.1696	2267.55	1387.2
1022.4591	2955.2582	2221.15	1339.4
1022.5728	2956.3462	2180.2	1301.75
1022.6865	2957.4335	2136.85	1257.6
1022.8002	2958.5202	2113.45	1230.6
1022.9138	2959.6062	2073.3	1195.25
1023.0274	2960.6916	2048.4	1167.8
1023.141	2961.7764	2039.35	1156.4
1023.2545	2962.8605	2019.5	1138.2
1023.3679	2963.9439	2017.2	1138.5
1023.4813	2965.0267	2003.4	1121.95
1023.5947	2966.1089	2005.65	1104.95
1023.708	2967.1905	1988.8	1109.9
1023.8213	2968.2714	1967.7	1088.5
1023.9346	2969.3516	1978.95	1098.15
1024.0478	2970.4312	1992.65	1108.35
1024.1609	2971.5102	1991.35	1113
1024.274	2972.5885	1990.2	1110.5
1024.3871	2973.6662	1989.5	1105.3
1024.5002	2974.7432	1990.95	1110.35
1024.6132	2975.8196	1977.75	1097
1024.7261	2976.8954	1968.7	1088.65
1024.839	2977.9705	1963.45	1083.75
1024.9519	2979.045	1954.6	1077.05
1025.0647	2980.1188	1935.05	1055.5
1025.1775	2981.192	1919.5	1041.65
1025.2902	2982.2645	1897	1017.45
1025.4029	2983.3364	1886.6	1004.8
1025.5156	2984.4077	1854.95	978
1025.6282	2985.4783	1841.65	956.1
1025.7407	2986.5483	1805.1	929.45
1025.8532	2987.6177	1763.35	884.6
1025.9657	2988.6864	1738.7	860.5
1026.0782	2989.7545	1707.35	827.55
1026.1906	2990.8219	1668.25	789.5
1026.3029	2991.8887	1642.15	760.25
1026.4152	2992.9548	1610.65	729.7
1026.5275	2994.0204	1577.4	698.7
1026.6397	2995.0852	1547.55	668.7
1026.7519	2996.1495	1521.7	639.1
1026.864	2997.2131	1502.85	623.6
1026.9761	2998.276	1469.9	590.8
1027.0882	2999.3383	1453.2	574
1027.2002	3000.4	1436	559.85
1027.3122	3001.4611	1421.45	542.05
1027.4241	3002.5215	1409.65	529.45
1027.536	3003.5812	1387.55	508.25
1027.6478	3004.6404	1376.1	495.55
1027.7596	3005.6989	1367.15	485.65
1027.8714	3006.7567	1355.5	475.05
1027.9831	3007.8139	1368.8	463.45
1028.0947	3008.8705	1334.8	456.05
1028.2064	3009.9264	1336	452.5
1028.3179	3010.9818	1322.05	443.15
1028.4295	3012.0364	1311.5	430.55
1028.541	3013.0905	1307.7	428.65
1028.6524	3014.1439	1305.9	426.45
1028.7638	3015.1966	1296.7	419.25
1028.8752	3016.2487	1302.4	424.4
1028.9865	3017.3002	1300.6	416
1029.0978	3018.3511	1296.3	418.55
1029.209	3019.4013	1288.75	410.45
1029.3202	3020.4509	1288.25	409.6
1029.4314	3021.4998	1284.4	404.7
1029.5425	3022.5481	1283.45	403.55
1029.6535	3023.5958	1282.25	403.55
1029.7645	3024.6428	1282.65	406.45
1029.8755	3025.6892	1279.1	400.8
1029.9864	3026.735	1282.35	402.7
1030.0973	3027.7802	1277.3	398.1
1030.2082	3028.8247	1281.7	403.4
1030.319	3029.8685	1285.25	408.55
1030.4297	3030.9118	1284.05	404
1030.5404	3031.9544	1282.9	405.75
1030.6511	3032.9963	1288.75	408.9
1030.7617	3034.0376	1287.25	408.45
1030.8723	3035.0783	1291.5	410.5
1030.9829	3036.1184	1295.6	415.25
1031.0934	3037.1578	1299.75	421.3
1031.2038	3038.1966	1301.55	421.55
1031.3142	3039.2348	1298.45	420.95
1031.4246	3040.2723	1300.95	413.55
1031.5349	3041.3092	1299.4	422.15
1031.6452	3042.3455	1302.4	424.65
1031.7554	3043.3811	1291.35	412.05
1031.8656	3044.4161	1293.65	415.55
1031.9758	3045.4505	1294.15	415.1
1032.0859	3046.4842	1285.75	406.9
1032.1959	3047.5173	1287.65	409.05
1032.3059	3048.5498	1284.3	407.55
1032.4159	3049.5816	1282.25	404.15
1032.5258	3050.6128	1279.5	401.5
1032.6357	3051.6434	1278.2	398.15
1032.7455	3052.6734	1272.65	394
1032.8553	3053.7027	1267.85	389.4
1032.9651	3054.7314	1263.2	385.4
1033.0748	3055.7594	1258.9	383.45
1033.1845	3056.7868	1254.35	375.5
1033.2941	3057.8136	1252.75	373.5
1033.4037	3058.8398	1247.9	371.6
1033.5132	3059.8653	1247.75	368.8
1033.6227	3060.8902	1243.85	364.9
1033.7321	3061.9145	1242	364.1
1033.8415	3062.9381	1237.65	357.55
1033.9509	3063.9612	1246.9	353.55
1034.0602	3064.9835	1229.6	351.95
1034.1694	3066.0053	1230.1	351.9
1034.2787	3067.0264	1222.75	347.75
1034.3878	3068.0469	1220.75	343.1
1034.497	3069.0668	1214.5	333.5
1034.6061	3070.086	1207.1	329.95
1034.7151	3071.1046	1200.5	323.15
1034.8241	3072.1226	1199.05	321.3
1034.9331	3073.1399	1189.4	312.1
1035.042	3074.1567	1179	300.15
1035.1508	3075.1727	1179.55	302.05
1035.2597	3076.1882	1170.45	293.75
1035.3684	3077.203	1162.8	287.85
1035.4772	3078.2173	1157.45	278.4
1035.5859	3079.2308	1145.6	265.6
1035.6945	3080.2438	1146.2	265.85
1035.8031	3081.2561	1136.4	258.1
1035.9117	3082.2678	1130	253.95
1036.0202	3083.2789	1125.7	247.65
1036.1286	3084.2893	1119.5	243.35
1036.2371	3085.2991	1117.8	241.45
1036.3454	3086.3083	1116.05	233.75
1036.4538	3087.3169	1105.75	226.75
1036.562	3088.3248	1101.7	224
1036.6703	3089.3321	1093.6	214.9
1036.7785	3090.3388	1093.45	216.15
1036.8866	3091.3449	1085.8	207.55
1036.9948	3092.3503	1085.75	204.6
1037.1028	3093.3551	1078.35	202.35
1037.2108	3094.3593	1073.45	196.4
1037.3188	3095.3629	1074.35	198.6
1037.4267	3096.3658	1071.3	192.9
1037.5346	3097.3681	1068.25	190.85
1037.6425	3098.3698	1068.3	189.05
1037.7503	3099.3708	1062.35	177.45
1037.858	3100.3713	1060.95	182.95
1037.9657	3101.3711	1062.65	184.3
1038.0734	3102.3702	1167.25	177.8
1038.181	3103.3688	1053.95	175.2
1038.2886	3104.3667	1055.4	178.05
1038.3961	3105.364	1049.35	171.5
1038.5036	3106.3607	1048.05	168.6
1038.611	3107.3568	1045.3	165.85
1038.7184	3108.3522	1043.9	165.25
1038.8257	3109.347	1043.05	164.6
1038.933	3110.3412	1043.85	161.45
1039.0403	3111.3348	1040.7	164.8
1039.1475	3112.3277	1037.4	159.7
1039.2547	3113.32	1035.7	161.1
1039.3618	3114.3117	1033.55	155.15
1039.4689	3115.3028	1030.3	154.9
1039.5759	3116.2932	1030.15	154.8
1039.6829	3117.2831	1033.6	151
1039.7898	3118.2723	1024.5	148.15
1039.8967	3119.2608	1022.95	146.45
1040.0035	3120.2488	1026.55	146.8
1040.1103	3121.2361	1023.7	145
1040.2171	3122.2229	1022.7	146
1040.3238	3123.209	1019.3	142.35
1040.4305	3124.1944	1016.05	140
1040.5371	3125.1793	1014.6	136.6
1040.6437	3126.1635	1014	138
1040.7502	3127.1471	1013.65	137.5
1040.8567	3128.1301	1013.5	137.8
1040.9631	3129.1125	1010.7	134.7
1041.0695	3130.0942	1007.15	129.95
1041.1759	3131.0753	1017.4	132.8
1041.2822	3132.0558	1015.35	135.75
1041.3884	3133.0357	1002.15	123.15
1041.4946	3134.015	1010.3	132.6
1041.6008	3134.9936	1007.85	128.9
1041.7069	3135.9716	1027.35	128.6
1041.813	3136.949	1000.2	124.35
1041.919	3137.9258	1018.65	122.4
1042.025	3138.902	1006.7	125.05
1042.1309	3139.8775	995.6	118.2
1042.2368	3140.8524	1000.2	122.4
1042.3427	3141.8267	996.9	119.15
1042.4485	3142.8004	996.65	119.55
1042.5542	3143.7735	999.95	116.2
1042.6599	3144.7459	995.75	118.55
1042.7656	3145.7178	992.3	116.1
1042.8712	3146.689	993.6	117.5
1042.9768	3147.6596	995.4	114.95
1043.0823	3148.6295	991.15	115.05
1043.1878	3149.5989	990.45	113
1043.2932	3150.5676	986.9	111.2
1043.3986	3151.5357	984.65	110.55
1043.5039	3152.5032	987.8	113.1
1043.6092	3153.4701	986.5	109.1
1043.7145	3154.4364	990.8	112.6
1043.8197	3155.402	983.85	107.35
1043.9248	3156.367	989.25	112.2
1044.03	3157.3315	1020.2	106.3
1044.135	3158.2952	984.9	108.6
1044.24	3159.2584	983	106.55
1044.345	3160.221	980.25	102.15
1044.4499	3161.1829	980	103.4
1044.5548	3162.1442	976.8	98.55
1044.6596	3163.105	979	104
1044.7644	3164.065	977.15	101.8
1044.8692	3165.0245	979.15	101.45
1044.9739	3165.9834	972.15	96.45
1045.0785	3166.9416	973.75	96.95
1045.1831	3167.8993	971.4	95.1
1045.2877	3168.8563	973.8	95.75
1045.3922	3169.8127	973.6	95.4
1045.4966	3170.7684	972.4	95.6
1045.6011	3171.7236	972.8	95.8
1045.7054	3172.6782	971.8	95.25
1045.8098	3173.6321	968.35	92.65
1045.914	3174.5854	977.15	97.15
1046.0183	3175.5381	972.85	96.8
1046.1224	3176.4902	968.65	91.7
1046.2266	3177.4417	967.65	93.8
1046.3307	3178.3926	965.85	90.6
1046.4347	3179.3428	967.25	91.6
1046.5387	3180.2924	964.8	90.35
1046.6427	3181.2415	967.7	91.65
1046.7466	3182.1899	965.85	89.2
1046.8504	3183.1377	962.8	85.45
1046.9542	3184.0848	968.45	88.65
1047.058	3185.0314	967.45	90.6
1047.1617	3185.9773	963.2	85.65
1047.2654	3186.9227	960.85	86.5
1047.369	3187.8674	961.4	85.65
1047.4726	3188.8115	963.15	83.85
1047.5761	3189.755	960.65	83.5
1047.6796	3190.6979	960.2	86.55
1047.783	3191.6402	958.5	82.7
1047.8864	3192.5818	960.2	83.35
1047.9898	3193.5229	963.75	80.25
1048.0931	3194.4633	957.25	81.05
1048.1963	3195.4031	958.5	80.75
1048.2995	3196.3423	955.7	81.05
1048.4027	3197.2809	956.6	79.5
1048.5058	3198.2189	957.95	82.9
1048.6089	3199.1563	963.3	80.85
1048.7119	3200.0931	952.2	77.65
1048.8148	3201.0292	953.15	77.05
1048.9178	3201.9648	952.35	75.15
1049.0206	3202.8997	958.45	79.05
1049.1235	3203.834	955.55	80.5
1049.2262	3204.7677	949.1	73.6
1049.329	3205.7008	953.9	78.35
1049.4317	3206.6333	948.3	74.75
1049.5343	3207.5652	951.3	73.4
1049.6369	3208.4964	951.95	74.05
1049.7394	3209.4271	950.55	73.75
1049.8419	3210.3571	949.6	75.1
1049.9444	3211.2865	953.5	77.4
1050.0468	3212.2154	951	74.95
1050.1491	3213.1436	951.75	73.15
1050.2514	3214.0712	952.05	70.3
1050.3537	3214.9982	952.25	75.75
1050.4559	3215.9246	951.65	75.65
1050.5581	3216.8503	947.7	74.15
1050.6602	3217.7755	945.05	68.1
1050.7623	3218.7001	944.9	69.55
1050.8643	3219.624	947.1	72.6
1050.9663	3220.5473	945.25	68.5
1051.0682	3221.4701	944.75	68.45
1051.1701	3222.3922	949.4	73.5
1051.2719	3223.3137	942.35	68.95
1051.3737	3224.2346	945.05	72.1
1051.4754	3225.1549	943.6	71.5
1051.5771	3226.0746	943.65	68.85
1051.6788	3226.9937	945.65	69
1051.7804	3227.9121	940.9	66
1051.8819	3228.83	941.7	66.3
1051.9834	3229.7473	943	68.15
1052.0849	3230.6639	942.45	66.3
1052.1863	3231.5799	939.2	63.95
1052.2876	3232.4954	940.7	64.25
1052.3889	3233.4102	940.65	66.2
1052.4902	3234.3244	939.65	62.4
1052.5914	3235.238	937.55	61.8
1052.6926	3236.151	963.6	65.7
1052.7937	3237.0634	937.9	64.7
1052.8948	3237.9752	935.75	59.15
1052.9958	3238.8864	938.85	62.4
1053.0968	3239.797	938.9	64.1
1053.1977	3240.7069	935.45	60.85
1053.2986	3241.6163	934.95	57
1053.3994	3242.5251	936.1	61.4
1053.5002	3243.4332	934.95	60.4
1053.6009	3244.3408	935.6	58.35
1053.7016	3245.2477	933.3	59.8
1053.8022	3246.154	936.95	61.65
1053.9028	3247.0598	935.3	60.55
1054.0034	3247.9649	934.3	57.35
1054.1039	3248.8694	933.25	57.2
1054.2043	3249.7733	929.2	53.1
1054.3047	3250.6766	933.4	59.15
1054.4051	3251.5793	929.9	54.75
1054.5054	3252.4814	933.75	60.95
1054.6056	3253.3829	928.5	54.8
1054.7058	3254.2838	927.95	53.4
1054.806	3255.1841	927.15	51
1054.9061	3256.0838	927.8	54.95
1055.0061	3256.9829	926.6	52.65
1055.1062	3257.8814	929.6	53.3
1055.2061	3258.7792	932.55	55.05
1055.306	3259.6765	927.25	50.75
1055.4059	3260.5731	925.45	52
1055.5057	3261.4692	924.05	50.25
1055.6055	3262.3647	920.95	45.9
1055.7052	3263.2595	922.15	47.9
1055.8049	3264.1538	923.2	47.6
1055.9045	3265.0474	921.45	47
1056.0041	3265.9404	921.05	47.95
1056.1036	3266.8329	919.1	48.15
1056.2031	3267.7247	929.6	45.95
1056.3025	3268.616	917.75	44.4
1056.4019	3269.5066	916.2	40.85
1056.5013	3270.3966	918.4	42.45
1056.6005	3271.286	911.4	36.6
