Software Version:	3.9.2.0
Unit SN:	10000200
Spectrometer SN:	6960
Date:	3/8/2024 1:35:58 PM
Data Line Index:	25
Spectral Points:	2048
Integration time (ms):	125
Averages:	20
Delay (ms):	30000
Sequence Number:	1
Processing:	dark subtract
Laser Power (mW):	305
Laser Current (mA):	823
Laser Diode Temp (C):	25
Laser Case Temp (C):	26.3
System Temp (C):	26.3
Spectrometer Temp (C):	24.2
CCD Temp (C):	0.004
Secondary Temp (C):	20.006
Heatsink Temp (C):	20.519
CCDPCB Temp (C):	36.329
SecondaryPCB Temp (C):	29.504

Wavelength	RamanShift	Raw Counts	Dark Subtracted
787.061	30.1047	459.1	52.2
787.2016	32.3739	458.85	53.6
787.3422	34.6426	465.65	60.35
787.4828	36.9109	468.55	61.35
787.6235	39.1787	480.65	68.3
787.7642	41.4461	487.7	69.05
787.9049	43.7131	492.25	71.95
788.0456	45.9796	501.2	78.6
788.1863	48.2456	515.05	88.15
788.3271	50.5112	525.65	93.35
788.4679	52.7764	532.2	96.05
788.6087	55.0411	544.35	105.1
788.7496	57.3054	556.2	111.1
788.8904	59.5692	560.65	114
789.0313	61.8326	576.8	128.9
789.1722	64.0955	585	132.65
789.3132	66.3579	605.6	148.1
789.4541	68.6199	624.05	162.25
789.5951	70.8815	659.65	192.3
789.7361	73.1426	734.65	263.05
789.8771	75.4032	945.55	471.9
790.0181	77.6634	1446.85	969.8
790.1592	79.9231	2632.85	2145.1
790.3003	82.1824	5199.35	4694.5
790.4414	84.4412	9827.75	9293.75
790.5825	86.6995	16198.65	15621.15
790.7237	88.9574	22436.3	21827.85
790.8648	91.2148	26704.35	26072.2
791.006	93.4717	28742.1	28094.35
791.1472	95.7282	29102.45	28448.85
791.2885	97.9842	29062.65	28405.45
791.4297	100.2398	28450.2	27788.9
791.571	102.4949	27855.8	27191.2
791.7123	104.7495	27059.55	26394
791.8536	107.0036	26245.55	25577.95
791.9949	109.2573	25495.75	24826.75
792.1363	111.5105	24779.85	24109.4
792.2777	113.7632	24058.1	23385.15
792.4191	116.0154	23461.55	22779.15
792.5605	118.2672	23005.85	22327.45
792.7019	120.5185	22535.35	21851.65
792.8434	122.7693	22215.95	21532.7
792.9849	125.0197	21936.25	21252.35
793.1264	127.2696	21644.7	20951.45
793.2679	129.519	21482.85	20787.3
793.4094	131.7679	21255.35	20557.1
793.551	134.0163	21101.65	20404.75
793.6926	136.2642	20872.85	20169.5
793.8342	138.5117	20635.1	19927.7
793.9758	140.7587	20370.8	19662.1
794.1175	143.0052	20162.15	19449.75
794.2591	145.2512	19900.35	19191
794.4008	147.4967	19652.55	18942.55
794.5425	149.7417	19499.85	18788.2
794.6842	151.9863	19380.3	18661
794.826	154.2304	19312.6	18589.6
794.9677	156.4739	19164.8	18440.3
795.1095	158.717	19111.85	18381.15
795.2513	160.9596	18938.35	18208.8
795.3931	163.2017	18712	17979.25
795.535	165.4433	18443.55	17703.15
795.6768	167.6844	18075.6	17337.4
795.8187	169.925	17784.85	17046.7
795.9606	172.1651	17401.2	16658.55
796.1025	174.4047	17162.4	16421.05
796.2445	176.6439	16877.55	16129.3
796.3864	178.8825	16646.1	15898.55
796.5284	181.1206	16491.7	15734.1
796.6704	183.3582	16355.7	15597.9
796.8124	185.5954	16231.05	15467.55
796.9544	187.832	16171.05	15407.5
797.0965	190.0681	16136.9	15371.5
797.2386	192.3037	16150.35	15375.15
797.3806	194.5388	16142.6	15367.55
797.5228	196.7734	16178.15	15403.8
797.6649	199.0075	16239.7	15461.75
797.807	201.2411	16412.25	15632.1
797.9492	203.4742	16452.7	15670.4
798.0914	205.7068	16617.7	15836.15
798.2336	207.9389	16751.6	15966.95
798.3758	210.1704	16904.4	16128.05
798.518	212.4015	17000.6	16227.6
798.6603	214.632	17158.25	16391.05
798.8025	216.862	17364.05	16603.1
798.9448	219.0915	17515.45	16747.5
799.0871	221.3205	17681.6	16911.4
799.2294	223.549	17932.2	17171.45
799.3718	225.777	18195.6	17432.85
799.5141	228.0044	18535.2	17765.5
799.6565	230.2314	18962.7	18195.45
799.7989	232.4578	19330.8	18555.2
799.9413	234.6837	19677.35	18896.8
800.0837	236.909	19868.9	19086.8
800.2262	239.1339	19864.55	19054.15
800.3687	241.3582	19670.8	18871.6
800.5111	243.582	19428.7	18601.85
800.6536	245.8053	19078.8	18269.25
800.7961	248.0281	18816.85	18013.4
800.9387	250.2503	18613.45	17798.4
801.0812	252.472	18474.05	17664.1
801.2238	254.6932	18471.2	17660.45
801.3664	256.9139	18444.2	17630.75
801.509	259.134	18498.15	17681.7
801.6516	261.3536	18505.85	17690.25
801.7942	263.5727	18595.75	17777.45
801.9369	265.7912	18602.3	17786.9
802.0795	268.0092	18738.25	17918.95
802.2222	270.2267	18710.5	17893.75
802.3649	272.4436	18713.1	17892.55
802.5076	274.6601	18651.85	17828.15
802.6504	276.8759	18562.35	17741.8
802.7931	279.0913	18514.1	17691.85
802.9359	281.3061	18439.35	17612.9
803.0787	283.5204	18467.6	17640.55
803.2215	285.7341	18548.35	17717.6
803.3643	287.9473	18723.1	17879.3
803.5071	290.16	18887	18049.5
803.6499	292.3721	19177.35	18349.2
803.7928	294.5837	19577.3	18743.85
803.9357	296.7947	19901.7	19074.35
804.0786	299.0052	20114.6	19283.2
804.2215	301.2152	19989.1	19154.85
804.3644	303.4246	19701.65	18871.25
804.5074	305.6334	19173.8	18348.25
804.6503	307.8418	18652.5	17818.45
804.7933	310.0495	18195.6	17358.9
804.9363	312.2568	17922.3	17086.05
805.0793	314.4635	17657.35	16818
805.2223	316.6696	17553.7	16713.55
805.3653	318.8752	17483.7	16632.7
805.5084	321.0802	17535.2	16691.15
805.6514	323.2847	17600.75	16755.95
805.7945	325.4887	17640.25	16794.3
805.9376	327.692	17627.15	16780.25
806.0807	329.8949	17535.1	16681.55
806.2238	332.0972	17280.8	16431.55
806.367	334.2989	16983.05	16128.25
806.5101	336.5001	16745.35	15890.7
806.6533	338.7007	16513.75	15660.15
806.7965	340.9008	16432.7	15576.75
806.9397	343.1003	16282.45	15432.4
807.0829	345.2992	16238.45	15381
807.2261	347.4976	16206.55	15346.85
807.3693	349.6955	16202.25	15337.9
807.5126	351.8927	16264.05	15401.45
807.6559	354.0895	16245.4	15371.35
807.7991	356.2856	16263.45	15399.5
807.9424	358.4812	16252	15391.8
808.0857	360.6763	16264.9	15398.65
808.2291	362.8707	16273.55	15404.85
808.3724	365.0646	16321.15	15451.65
808.5158	367.258	16333.05	15462.4
808.6591	369.4508	16402.35	15530.8
808.8025	371.643	16459.75	15583.55
808.9459	373.8346	16474.75	15595.45
809.0893	376.0257	16452.25	15574.8
809.2327	378.2162	16393.5	15516.5
809.3762	380.4062	16333.2	15459.95
809.5196	382.5956	16208.7	15334.85
809.6631	384.7844	16093.75	15227.05
809.8066	386.9726	15981.65	15117.45
809.9501	389.1603	15897.75	15031.95
810.0936	391.3474	15904.65	15004.3
810.2371	393.5339	15891.25	15019.45
810.3806	395.7199	15841.7	14975.7
810.5241	397.9052	15844.75	14976.25
810.6677	400.09	15861.75	14995.2
810.8113	402.2743	15939.6	15070.45
810.9548	404.4579	16057.3	15184.4
811.0984	406.641	16244.15	15369.25
811.2421	408.8235	16464.8	15594.65
811.3857	411.0054	16722.2	15847.9
811.5293	413.1868	17147.55	16268.85
811.673	415.3675	17412.4	16527.7
811.8166	417.5477	17614.9	16735.45
811.9603	419.7273	17610.35	16724.2
812.104	421.9064	17510.2	16619.45
812.2477	424.0848	17393.8	16507.85
812.3914	426.2627	17193.95	16314.25
812.5351	428.4399	16890.7	16006.85
812.6788	430.6166	16576.9	15684.45
812.8226	432.7928	16186.45	15294.35
812.9663	434.9683	15895.4	15010.15
813.1101	437.1432	15691.35	14810.5
813.2539	439.3176	15496.15	14616.3
813.3977	441.4914	15404.4	14528.4
813.5415	443.6645	15373.6	14491.85
813.6853	445.8371	15307	14420.85
813.8291	448.0091	15240.05	14355.75
813.973	450.1806	15228.7	14348.8
814.1168	452.3514	15200.35	14318.15
814.2607	454.5216	15190.15	14294.35
814.4046	456.6913	15088.65	14206.55
814.5485	458.8603	15164.75	14282.25
814.6924	461.0288	15245.05	14363.6
814.8363	463.1967	15243.5	14367.4
814.9802	465.3639	15370.1	14486.75
815.1241	467.5306	15440.65	14553.8
815.2681	469.6967	15540.4	14660.4
815.412	471.8622	15679.95	14804.3
815.556	474.0271	15814.15	14934.3
815.7	476.1914	15903.7	15015.65
815.844	478.3551	15870.65	14984.5
815.988	480.5182	15874.85	14991.05
816.132	482.6807	15877.8	15001.75
816.276	484.8426	16001.1	15129.65
816.4201	487.0039	16299.15	15423.75
816.5641	489.1647	16691.2	15805.75
816.7082	491.3248	17097.7	16210.75
816.8522	493.4843	17283.9	16405.15
816.9963	495.6432	17246.5	16365.25
817.1404	497.8015	17207	16317
817.2845	499.9592	17212.5	16314.05
817.4286	502.1163	17117	16218.65
817.5727	504.2728	16864.55	15972
817.7168	506.4287	16560.8	15681
817.861	508.5839	16153.15	15273.95
818.0051	510.7386	15868.75	14985.2
818.1493	512.8927	15713.8	14819.5
818.2935	515.0461	15573	14679.55
818.4377	517.199	15559.75	14662.35
818.5818	519.3512	15585.8	14689.55
818.726	521.5029	15716.3	14818.65
818.8703	523.6539	15814.3	14918.05
819.0145	525.8043	15878.95	14978.7
819.1587	527.9541	15900.05	15003.9
819.303	530.1033	15841.2	14942.75
819.4472	532.2519	15827.6	14931.4
819.5915	534.3999	15918.6	15023.15
819.7357	536.5472	16157.55	15260.4
819.88	538.694	16598.1	15705.15
820.0243	540.8401	17138.4	16239
820.1686	542.9856	17562.15	16650.65
820.3129	545.1305	17706.4	16792.65
820.4572	547.2748	17601.15	16684.7
820.6016	549.4185	17288.35	16371.75
820.7459	551.5615	16954.65	16038.5
820.8902	553.704	16844.45	15933.65
821.0346	555.8458	16825.65	15916.55
821.1789	557.987	16874.3	15967
821.3233	560.1276	16879.4	15970.65
821.4677	562.2675	16995.45	16088.55
821.6121	564.4069	17134.75	16223.85
821.7565	566.5456	17174.45	16265.3
821.9009	568.6837	17166.15	16257.9
822.0453	570.8212	16847.55	15939
822.1897	572.958	16447.8	15537.8
822.3342	575.0942	16050.2	15145.25
822.4786	577.2299	15853.4	14955.5
822.6231	579.3648	15808.95	14923.9
822.7675	581.4992	15808.9	14927.6
822.912	583.6329	16037.4	15158.1
823.0565	585.766	16256.7	15372.6
823.201	587.8985	16388.9	15499.5
823.3454	590.0304	16423	15499.5
823.4899	592.1616	16345	15436.25
823.6345	594.2922	16235.8	15325.6
823.779	596.4222	16099.75	15185.45
823.9235	598.5515	15898.5	14983.3
824.068	600.6802	15768.25	14856.7
824.2126	602.8083	15557.25	14647.45
824.3571	604.9358	15513.75	14602.75
824.5017	607.0626	15485.35	14571.4
824.6462	609.1888	15433.65	14511.35
824.7908	611.3144	15453.4	14533.95
824.9354	613.4393	15412.15	14488.35
825.08	615.5636	15361.35	14435.6
825.2246	617.6873	15267.7	14350.75
825.3692	619.8103	15213.95	14297.05
825.5138	621.9327	15077.65	14162.6
825.6584	624.0544	15041	14126.9
825.803	626.1756	15010.55	14104.8
825.9477	628.2961	14926.4	14006.55
826.0923	630.4159	14868.4	13952.6
826.237	632.5351	14836.3	13916.8
826.3816	634.6537	14774.4	13853.95
826.5263	636.7716	14783	13854.3
826.6709	638.8889	14799.35	13871.75
826.8156	641.0056	14839.9	13912.35
826.9603	643.1216	14808.95	13879.95
827.105	645.237	14843.5	13923.9
827.2497	647.3518	14800.7	13887.4
827.3944	649.4659	14815.35	13904.4
827.5391	651.5793	14810.85	13898
827.6838	653.6922	14777.2	13866.8
827.8285	655.8043	14788.85	13873.15
827.9733	657.9159	14786.15	13868.1
828.118	660.0268	14702.1	13784.4
828.2627	662.137	14663.45	13744.6
828.4075	664.2466	14708.9	13782.2
828.5522	666.3556	14628.35	13707.3
828.697	668.4639	14597.55	13677.35
828.8418	670.5716	14637.9	13725.5
828.9865	672.6786	14705.1	13785.1
829.1313	674.785	14714.05	13789.15
829.2761	676.8907	14813.75	13888.25
829.4209	678.9958	14854.5	13936.2
829.5657	681.1002	14824.9	13906.2
829.7105	683.204	14826.8	13896.05
829.8553	685.3072	14779.15	13851.75
830.0001	687.4097	14726.9	13804.25
830.1449	689.5115	14705.4	13778.1
830.2898	691.6127	14649.9	13727.5
830.4346	693.7132	14592.4	13674.2
830.5794	695.8131	14636.3	13701.1
830.7243	697.9123	14586.1	13659.3
830.8691	700.0109	14557.3	13626.65
831.014	702.1089	14538.9	13609.8
831.1588	704.2061	14547.65	13620.3
831.3037	706.3028	14616.85	13685.75
831.4486	708.3987	14670.75	13741.15
831.5935	710.4941	14740.4	13810.15
831.7383	712.5887	14894.15	13965.15
831.8832	714.6827	15144.25	14219
832.0281	716.7761	15473.4	14550
832.173	718.8688	15781.85	14858.35
832.3179	720.9608	15965.1	15029.2
832.4628	723.0522	16032.95	15093.8
832.6077	725.1429	15894.8	14958.35
832.7527	727.233	15683	14751.1
832.8976	729.3224	15515.05	14583.3
833.0425	731.4112	15239.45	14309.6
833.1874	733.4993	15053.4	14120.4
833.3324	735.5867	14891.55	13965.5
833.4773	737.6735	14783.6	13851.4
833.6222	739.7596	14704.65	13769.95
833.7672	741.845	14637.25	13707.15
833.9122	743.9298	14615.35	13684.65
834.0571	746.014	14590.5	13659.45
834.2021	748.0974	14618.35	13683.2
834.347	750.1802	14634.2	13695.75
834.492	752.2624	14623	13685.8
834.637	754.3439	14680.8	13741.55
834.782	756.4247	14756.25	13808.35
834.9269	758.5048	14878.5	13942.2
835.0719	760.5843	15126.75	14184.1
835.2169	762.6631	15421.95	14485.15
835.3619	764.7413	15915.8	14979.7
835.5069	766.8188	16540.3	15605.1
835.6519	768.8956	16992.7	16052.7
835.7969	770.9718	17307	16371.6
835.9419	773.0473	17171.5	16237.15
836.0869	775.1221	16858.8	15923.45
836.232	777.1962	16493.55	15557.65
836.377	779.2697	16332.55	15395.1
836.522	781.3426	16366.35	15412.3
836.667	783.4147	16563.15	15623.85
836.8121	785.4862	16851.85	15913.5
836.9571	787.557	16882.55	15939.25
837.1021	789.6271	16485.3	15543.65
837.2472	791.6966	15933.1	14995.3
837.3922	793.7654	15400.35	14461.15
837.5373	795.8335	15081.4	14142.65
837.6823	797.901	14872.55	13935.55
837.8274	799.9678	14792.35	13854.6
837.9724	802.0339	14777	13836.2
838.1175	804.0993	14823.1	13873.95
838.2626	806.1641	14773.5	13829.9
838.4076	808.2282	14705.6	13767.15
838.5527	810.2916	14640.55	13702.5
838.6978	812.3544	14532.2	13593.95
838.8428	814.4164	14480.65	13545.15
838.9879	816.4778	14502.65	13559.1
839.133	818.5385	14501.95	13558.15
839.2781	820.5986	14615.6	13669.55
839.4232	822.658	14714.3	13769.45
839.5682	824.7166	14912.65	13970.6
839.7133	826.7747	15178.4	14232.4
839.8584	828.832	15442.7	14497.85
840.0035	830.8886	15581.3	14635
840.1486	832.9446	15742.15	14793.9
840.2937	834.9999	15750.75	14807
840.4388	837.0545	15709.2	14767.15
840.5839	839.1085	15645.4	14701.1
840.729	841.1618	15540.35	14593.55
840.8741	843.2143	15456.95	14507.9
841.0192	845.2662	15351.25	14406.15
841.1643	847.3175	15266.2	14320.8
841.3095	849.368	15170.9	14225.6
841.4546	851.4179	15064.4	14118.65
841.5997	853.467	14915.7	13972.25
841.7448	855.5155	14842.85	13897.6
841.8899	857.5633	14760.2	13814.75
842.0351	859.6105	14662.2	13715.95
842.1802	861.6569	14585.35	13641.1
842.3253	863.7027	14557.05	13610.7
842.4704	865.7478	14537.2	13588.75
842.6156	867.7922	14530.05	13580
842.7607	869.8359	14571.75	13624.5
842.9058	871.8789	14669.05	13721.5
843.0509	873.9212	14840.55	13860.1
843.1961	875.9629	14955.5	14009.95
843.3412	878.0039	15154.95	14207.6
843.4863	880.0441	15233.2	14291.8
843.6315	882.0837	15291.9	14346.45
843.7766	884.1226	15203.6	14256.1
843.9218	886.1609	15137.45	14194.65
844.0669	888.1984	15094.75	14148.2
844.212	890.2352	15084.95	14137.95
844.3572	892.2714	15064	14111.4
844.5023	894.3069	15070.15	14119.55
844.6475	896.3416	14947.45	13999.45
844.7926	898.3757	14915.35	13966.8
844.9377	900.4091	14898.5	13946.05
845.0829	902.4418	14897.8	13942.95
845.228	904.4739	14923.55	13973.1
845.3732	906.5052	14941.95	13994.55
845.5183	908.5358	14828.3	13877
845.6635	910.5658	14704.85	13751.7
845.8086	912.595	14526.4	13574.45
845.9538	914.6236	14359.95	13410.45
846.0989	916.6515	14304.3	13355.65
846.2441	918.6786	14299	13348.65
846.3892	920.7051	14330.35	13376
846.5344	922.7309	14463.9	13506.75
846.6795	924.756	14484.2	13537.35
846.8246	926.7804	14584.95	13635.7
846.9698	928.8041	14555.1	13604.95
847.1149	930.8272	14574.45	13620.85
847.2601	932.8495	14519.05	13564.45
847.4052	934.8711	14476.6	13527.75
847.5504	936.892	14355.3	13404.65
847.6955	938.9123	14267.65	13314.75
847.8407	940.9318	14172.45	13222.9
847.9858	942.9506	14055.35	13103
848.131	944.9688	13994	13047.15
848.2761	946.9862	13954.85	13003.45
848.4213	949.003	13850.15	12901.4
848.5664	951.019	13817.2	12867.25
848.7115	953.0344	13823.3	12873.15
848.8567	955.0491	13860.85	12910.7
849.0018	957.063	13941.4	12992.15
849.147	959.0763	14045.6	13096
849.2921	961.0888	14086.25	13133.85
849.4373	963.1007	14184.5	13232.55
849.5824	965.1119	14205.35	13265.9
849.7275	967.1223	14229.5	13296.65
849.8727	969.1321	14257.95	13323.5
850.0178	971.1412	14292.85	13356.1
850.1629	973.1495	14286.3	13339.95
850.3081	975.1572	14382.6	13378.1
850.4532	977.1641	14360	13409.75
850.5983	979.1704	14342.1	13386.45
850.7435	981.1759	14339.7	13386.5
850.8886	983.1808	14386.2	13432.6
851.0337	985.1849	14463.8	13505.35
851.1788	987.1884	14618.1	13665.5
851.324	989.1911	14768.6	13817.8
851.4691	991.1932	14866.25	13919.85
851.6142	993.1945	14944.25	13996.3
851.7593	995.1951	14884.45	13938.85
851.9045	997.1951	14840.3	13884
852.0496	999.1943	14781.5	13830.8
852.1947	1001.1928	14749.2	13796.7
852.3398	1003.1906	14747.95	13798.2
852.4849	1005.1877	14787.55	13838.3
852.63	1007.1841	14800.9	13851.4
852.7751	1009.1798	14731.15	13781.45
852.9202	1011.1748	14575.35	13626.25
853.0653	1013.1691	14372	13423.45
853.2104	1015.1627	14148.55	13198.05
853.3555	1017.1556	13950.15	13003.6
853.5006	1019.1477	13856.35	12910.3
853.6457	1021.1392	13740.65	12797.15
853.7908	1023.1299	13742.3	12805.4
853.9359	1025.12	13768.45	12838.55
854.081	1027.1093	13811.35	12887.7
854.2261	1029.0979	13915.8	13001.45
854.3712	1031.0859	13965.05	13040.85
854.5163	1033.0731	13964.5	13028.4
854.6613	1035.0596	13881.35	12938.85
854.8064	1037.0454	13782.55	12841.6
854.9515	1039.0304	13674.3	12731.1
855.0965	1041.0148	13563.55	12614.55
855.2416	1042.9985	13448.8	12500
855.3867	1044.9814	13432.8	12486.7
855.5317	1046.9636	13350.9	12406.8
855.6768	1048.9452	13363.75	12422.95
855.8219	1050.926	13381.5	12432.4
855.9669	1052.9061	13380.15	12431.75
856.112	1054.8855	13398.75	12453.95
856.257	1056.8642	13420.25	12469.75
856.4021	1058.8421	13481.4	12528.9
856.5471	1060.8194	13512.4	12559.1
856.6921	1062.7959	13546.45	12595.15
856.8372	1064.7717	13546.2	12597.3
856.9822	1066.7469	13580.25	12629.25
857.1272	1068.7213	13621.9	12674.9
857.2723	1070.695	13615.7	12669.05
857.4173	1072.6679	13568.6	12621.55
857.5623	1074.6402	13530.55	12583.8
857.7073	1076.6117	13527.5	12572.45
857.8523	1078.5826	13501.5	12554.75
857.9973	1080.5527	13475.3	12522.1
858.1423	1082.5221	13527.6	12580.2
858.2873	1084.4908	13692.75	12747.15
858.4323	1086.4587	13829.8	12881.75
858.5773	1088.426	13960.95	13009.8
858.7223	1090.3925	13960.85	13010.45
858.8673	1092.3584	13910.45	12965.8
859.0123	1094.3235	13795.55	12849.7
859.1573	1096.2879	13786.2	12837.75
859.3022	1098.2515	13794	12848.25
859.4472	1100.2145	13863.55	12921.6
859.5922	1102.1767	13991.7	13045.55
859.7371	1104.1382	14155.85	13210.7
859.8821	1106.099	14362.15	13412.4
860.027	1108.0591	14572.7	13628.25
860.172	1110.0185	14735.45	13788.65
860.3169	1111.9771	14771.3	13824.9
860.4619	1113.9351	14576.65	13631.45
860.6068	1115.8923	14306.45	13359.2
860.7517	1117.8488	14009	13060.45
860.8967	1119.8045	13778.75	12831.95
861.0416	1121.7596	13671.3	12723.95
861.1865	1123.7139	13640.25	12698.7
861.3314	1125.6675	13594.9	12650.55
861.4763	1127.6204	13671.3	12724.9
861.6212	1129.5726	13606.5	12657.05
861.7661	1131.524	13602.3	12656.35
861.911	1133.4748	13563.55	12618.8
862.0559	1135.4248	13501.5	12551.8
862.2008	1137.3741	13458.55	12513
862.3457	1139.3226	13400.5	12450.5
862.4905	1141.2705	13401.35	12455.25
862.6354	1143.2176	13270.25	12316.4
862.7803	1145.164	13285.75	12334.15
862.9251	1147.1097	13306.55	12359.05
863.07	1149.0546	13268.3	12318.65
863.2148	1150.9989	13168.5	12222.65
863.3597	1152.9424	13042.5	12098.6
863.5045	1154.8852	12922.05	11973.65
863.6493	1156.8272	12783.55	11836.8
863.7942	1158.7686	12782.45	11826.2
863.939	1160.7092	12745.95	11798.5
864.0838	1162.6491	12756.2	11806.8
864.2286	1164.5883	12821.1	11876.6
864.3734	1166.5267	12888.85	11944.1
864.5182	1168.4644	13023.05	12082.45
864.663	1170.4014	13220.65	12273.95
864.8078	1172.3377	13468.15	12526.2
864.9526	1174.2732	13740.45	12797.55
865.0974	1176.2081	14022.55	13078.05
865.2421	1178.1421	14316.05	13366.7
865.3869	1180.0755	14582.8	13639.25
865.5317	1182.0082	14699.05	13759.15
865.6764	1183.9401	14752.45	13813.25
865.8212	1185.8713	14582.7	13646.8
865.9659	1187.8017	14332.15	13400.55
866.1106	1189.7315	14078.5	13157.4
866.2554	1191.6605	13787.95	12865.05
866.4001	1193.5888	13563.45	12635.55
866.5448	1195.5163	13444.5	12511.1
866.6895	1197.4432	13375.8	12432.35
866.8342	1199.3693	13334.3	12392.35
866.9789	1201.2947	13264.7	12321.15
867.1236	1203.2193	13254.45	12311
867.2683	1205.1432	13267.85	12326.95
867.413	1207.0664	13278	12337.85
867.5576	1208.9889	13307.95	12364.6
867.7023	1210.9106	13332.25	12390
867.847	1212.8316	13357.25	12418.75
867.9916	1214.7519	13431.1	12475.5
868.1363	1216.6715	13452.45	12510.75
868.2809	1218.5903	13456.75	12516.65
868.4255	1220.5084	13439.55	12497.55
868.5701	1222.4257	13461.2	12521.05
868.7148	1224.3424	13445.55	12508.3
868.8594	1226.2583	13502.35	12559.55
869.004	1228.1735	13608.3	12667.65
869.1486	1230.0879	13660.3	12719.3
869.2932	1232.0016	13826.8	12886.45
869.4377	1233.9146	13814.3	12871.25
869.5823	1235.8269	13745.25	12802.05
869.7269	1237.7384	13684.2	12741.7
869.8715	1239.6492	13486.35	12548
870.016	1241.5592	13388.85	12448.8
870.1606	1243.4686	13310.05	12370
870.3051	1245.3772	13326.9	12389.65
870.4496	1247.285	13318.9	12380.85
870.5941	1249.1922	13363.7	12424.65
870.7387	1251.0986	13370.8	12434.2
870.8832	1253.0042	13379.65	12439
871.0277	1254.9092	13435.9	12493.25
871.1722	1256.8134	13496.7	12558.6
871.3167	1258.7169	13605.4	12663.95
871.4611	1260.6196	13801.95	12863.9
871.6056	1262.5216	13993.05	13054.75
871.7501	1264.4229	14175.7	13238.35
871.8945	1266.3234	14318.65	13381.45
872.039	1268.2232	14420.6	13479.55
872.1834	1270.1223	14444.25	13502.35
872.3278	1272.0207	14416.65	13477.05
872.4723	1273.9183	14387.75	13442.75
872.6167	1275.8151	14317	13380.5
872.7611	1277.7113	14244.05	13305.25
872.9055	1279.6067	14149.65	13213.7
873.0499	1281.5014	14130.05	13192.85
873.1943	1283.3953	14167.3	13226.65
873.3386	1285.2885	14268.15	13331.4
873.483	1287.181	14371.2	13431.75
873.6274	1289.0727	14528.4	13594.1
873.7717	1290.9637	14643.25	13705.4
873.9161	1292.854	14773.55	13834.7
874.0604	1294.7435	14877	13939.55
874.2047	1296.6323	15032.65	14096
874.349	1298.5204	15176.05	14233.5
874.4933	1300.4077	15272.6	14332.6
874.6376	1302.2943	15376.7	14439.55
874.7819	1304.1802	15351.35	14410.2
874.9262	1306.0653	15177.15	14239.6
875.0705	1307.9497	14950.95	14017.3
875.2147	1309.8333	14744.55	13807.35
875.359	1311.7162	14614.45	13674.5
875.5032	1313.5984	14589.55	13647.05
875.6475	1315.4798	14597.9	13660.15
875.7917	1317.3605	14651.05	13707.5
875.9359	1319.2405	14674.1	13734.9
876.0801	1321.1197	14586.6	13645.55
876.2243	1322.9982	14415.55	13471.3
876.3685	1324.876	14303.7	13366.45
876.5127	1326.753	14202.2	13266.15
876.6569	1328.6293	14142.4	13202.4
876.801	1330.5048	14108.15	13166.85
876.9452	1332.3796	14031.15	13091.2
877.0893	1334.2537	14027.15	13063.35
877.2335	1336.127	13942.6	13002.25
877.3776	1337.9996	13923.35	12984.45
877.5217	1339.8714	13890.85	12951.2
877.6658	1341.7426	13866.6	12885.8
877.8099	1343.6129	13839.15	12900.15
877.954	1345.4826	13822.5	12880.15
878.0981	1347.3515	13800.75	12858.55
878.2422	1349.2196	13746.25	12805.85
878.3862	1351.087	13772.65	12833.4
878.5303	1352.9537	13817.75	12874.3
878.6743	1354.8197	13979.95	13040.05
878.8184	1356.6849	14096.75	13155.25
878.9624	1358.5493	14196.1	13258.95
879.1064	1360.4131	14256	13319.35
879.2504	1362.276	14242.95	13304.7
879.3944	1364.1383	14150.85	13215.85
879.5384	1365.9998	13921.5	12979.7
879.6823	1367.8606	13564.2	12625.05
879.8263	1369.7206	13259.95	12319.5
879.9702	1371.5799	13020.5	12079.1
880.1142	1373.4384	12833.9	11897.95
880.2581	1375.2962	12659.6	11722.6
880.402	1377.1533	12389.2	11456.85
880.5459	1379.0096	12070.7	11137.25
880.6898	1380.8652	11740.4	10811.2
880.8337	1382.7201	11496.4	10563.3
880.9776	1384.5742	11252	10317.35
881.1215	1386.4275	11085.95	10146.05
881.2653	1388.2802	10930.55	9994.85
881.4092	1390.132	10847.45	9912.9
881.553	1391.9832	10780.85	9843.45
881.6968	1393.8336	10685.65	9746.25
881.8406	1395.6832	10640.55	9704.75
881.9844	1397.5322	10599.9	9666.6
882.1282	1399.3803	10580.75	9639.1
882.272	1401.2278	10532.35	9596.55
882.4158	1403.0745	10521.8	9586.95
882.5595	1404.9204	10519.2	9586.5
882.7033	1406.7656	10543.7	9608
882.847	1408.6101	10540.35	9604.1
882.9908	1410.4538	10553.4	9615.1
883.1345	1412.2968	10593.5	9656.4
883.2782	1414.139	10648.5	9714.85
883.4219	1415.9805	10715.45	9783.35
883.5656	1417.8213	10805.45	9861.85
883.7092	1419.6613	10889.1	9955.6
883.8529	1421.5006	11059.1	10125.15
883.9965	1423.3391	11295.3	10359
884.1402	1425.1769	11587.65	10651.35
884.2838	1427.0139	12064.7	11132.5
884.4274	1428.8502	12623.95	11687.95
884.571	1430.6858	13171.75	12238.85
884.7146	1432.5206	13574.6	12640.75
884.8582	1434.3547	13815.15	12877.75
885.0018	1436.188	13809.45	12875.3
885.1453	1438.0206	13717	12783.8
885.2889	1439.8524	13567.1	12631.15
885.4324	1441.6835	13434.35	12500.6
885.5759	1443.5139	13353.05	12414
885.7194	1445.3435	13294.95	12361.65
885.8629	1447.1724	13231.05	12299.5
886.0064	1449.0005	13160.1	12228.25
886.1499	1450.8279	13077.35	12143.75
886.2933	1452.6545	13031.75	12100.25
886.4368	1454.4804	13057.65	12126.05
886.5802	1456.3056	13090.1	12153.8
886.7237	1458.13	12974.55	12044.6
886.8671	1459.9536	12777.95	11847.3
887.0105	1461.7766	12426.9	11496.1
887.1539	1463.5987	12053.4	11116.85
887.2972	1465.4202	11660.55	10726.2
887.4406	1467.2409	11318.15	10384.8
887.584	1469.0608	11045.1	10114.25
887.7273	1470.88	10760.75	9828.1
887.8706	1472.6984	10538.55	9606.15
888.0139	1474.5161	10349.95	9413.6
888.1572	1476.3331	10187.75	9255.6
888.3005	1478.1493	10038.55	9107.9
888.4438	1479.9648	9948.05	9016.85
888.5871	1481.7795	9868.25	8933.35
888.7303	1483.5935	9780.5	8846.85
888.8736	1485.4067	9725.25	8794.55
889.0168	1487.2192	9687	8755.4
889.16	1489.031	9647.8	8713.75
889.3032	1490.842	9580.65	8649.5
889.4464	1492.6522	9582.85	8650.85
889.5896	1494.4618	9509.5	8578.95
889.7327	1496.2705	9488.1	8553.95
889.8759	1498.0785	9444.7	8513.45
890.019	1499.8858	9416.2	8484.6
890.1622	1501.6924	9374	8443.6
890.3053	1503.4981	9365	8437.2
890.4484	1505.3032	9316.2	8382.25
890.5914	1507.1075	9292.5	8361.15
890.7345	1508.911	9230.1	8298.15
890.8776	1510.7138	9182	8253.45
891.0206	1512.5159	9141.95	8210.05
891.1637	1514.3172	9101.4	8174.55
891.3067	1516.1178	9036.35	8106.85
891.4497	1517.9176	8999.8	8069.2
891.5927	1519.7166	8980.5	8053.85
891.7357	1521.515	8957.25	8024.35
891.8786	1523.3126	8938.45	8008.6
892.0216	1525.1094	8887.65	7956
892.1645	1526.9055	8877.9	7949.8
892.3074	1528.7008	8819.3	7892.6
892.4503	1530.4954	8799.9	7872.65
892.5932	1532.2893	8757.3	7831.5
892.7361	1534.0824	8724.25	7794.35
892.879	1535.8747	8725.8	7804.4
893.0218	1537.6663	8692.75	7768.05
893.1647	1539.4572	8675.65	7751.1
893.3075	1541.2473	8676.8	7752
893.4503	1543.0367	8669.15	7744.75
893.5931	1544.8253	8657.35	7727.75
893.7359	1546.6132	8648.35	7720.3
893.8787	1548.4003	8657	7724.7
894.0214	1550.1867	8659	7728.8
894.1642	1551.9723	8710.3	7784.7
894.3069	1553.7572	8754.05	7833.15
894.4496	1555.5414	8813.9	7892.55
894.5923	1557.3247	8878.85	7960.7
894.735	1559.1074	8945.55	8027.7
894.8777	1560.8893	9030.5	8110.6
895.0204	1562.6705	9094.95	8176.35
895.163	1564.4509	9188.3	8270.85
895.3056	1566.2305	9252.2	8340.25
895.4482	1568.0094	9307.5	8395
895.5908	1569.7876	9309.95	8396.55
895.7334	1571.565	9332.4	8412.15
895.876	1573.3417	9334.75	8419.75
896.0186	1575.1176	9311.65	8394.6
896.1611	1576.8928	9277.6	8363.7
896.3036	1578.6672	9207.1	8295.6
896.4461	1580.4409	9090.1	8183.8
896.5886	1582.2138	9012.2	8098
896.7311	1583.986	8947.75	8035.2
896.8736	1585.7575	8925.45	8014.65
897.0161	1587.5282	8863.55	7952.4
897.1585	1589.2981	8857.8	7951.7
897.3009	1591.0673	8840.45	7934.75
897.4433	1592.8358	8872.5	7962.4
897.5857	1594.6035	8872.35	7958.2
897.7281	1596.3704	8907.9	7994.65
897.8705	1598.1366	8966.25	8055.75
898.0128	1599.9021	9011.75	8103.2
898.1551	1601.6668	9063.25	8150.15
898.2975	1603.4308	9156.4	8243.35
898.4398	1605.194	9249.75	8334.5
898.5821	1606.9564	9383.95	8478.15
898.7243	1608.7182	9565.65	8661.85
898.8666	1610.4791	9692.95	8793.95
899.0088	1612.2394	9896	9000.1
899.1511	1613.9988	10118.75	9219.95
899.2933	1615.7576	10352.85	9447.85
899.4355	1617.5156	10539.05	9623.95
899.5776	1619.2728	10709.05	9796.7
899.7198	1621.0293	10778.4	9867.65
899.862	1622.785	10763.55	9856.55
900.0041	1624.54	10627.2	9721.6
900.1462	1626.2942	10437.85	9535.25
900.2883	1628.0477	10143.25	9237.75
900.4304	1629.8005	9916.85	9007.3
900.5725	1631.5525	9690.1	8787.95
900.7145	1633.3037	9507.55	8601.5
900.8566	1635.0542	9366.05	8463.55
900.9986	1636.804	9255.9	8353.35
901.1406	1638.553	9246.8	8282.45
901.2826	1640.3013	9135.95	8230.65
901.4245	1642.0488	9126.55	8222.7
901.5665	1643.7955	9164.3	8263.6
901.7085	1645.5416	9237.4	8335.7
901.8504	1647.2868	9312.8	8408.75
901.9923	1649.0313	9412.6	8509.35
902.1342	1650.7751	9557.05	8650.4
902.2761	1652.5181	9701.45	8797.95
902.4179	1654.2604	9898.25	8997.05
902.5598	1656.0019	10141.9	9239.75
902.7016	1657.7427	10418.45	9515.3
902.8434	1659.4828	10692.35	9788.75
902.9852	1661.222	10877.7	9972.15
903.127	1662.9606	10868.95	9964
903.2687	1664.6984	10650.25	9742.95
903.4105	1666.4354	10240.8	9332.95
903.5522	1668.1717	9714.6	8805.8
903.6939	1669.9072	9181.05	8272.15
903.8356	1671.642	8729.5	7819.25
903.9773	1673.3761	8370.35	7462.85
904.119	1675.1094	8103.1	7200.8
904.2606	1676.8419	7862.05	6958.1
904.4022	1678.5737	7682.95	6776.75
904.5439	1680.3048	7543.8	6636.85
904.6855	1682.0351	7429.8	6524.85
904.827	1683.7646	7332.95	6423.4
904.9686	1685.4934	7283.15	6379.7
905.1101	1687.2215	7210.85	6307.3
905.2517	1688.9488	7112.9	6211.95
905.3932	1690.6754	7073.4	6169.7
905.5347	1692.4012	7042.4	6137.95
905.6761	1694.1263	6982.65	6080.55
905.8176	1695.8506	6970	6068.75
905.9591	1697.5742	6930.6	6029.7
906.1005	1699.297	6860.2	5962.9
906.2419	1701.0191	6817.95	5920.45
906.3833	1702.7404	6805.7	5904.75
906.5246	1704.461	6735.75	5832.9
906.666	1706.1808	6696.5	5794.55
906.8073	1707.8999	6686.4	5786.05
906.9487	1709.6182	6661.25	5765.4
907.09	1711.3358	6645.1	5749.15
907.2313	1713.0527	6610	5715.6
907.3725	1714.7688	6580.65	5679.65
907.5138	1716.4841	6524.65	5622.2
907.655	1718.1987	6526.85	5622.7
907.7962	1719.9126	6513.25	5617.95
907.9374	1721.6257	6484.5	5590.05
908.0786	1723.338	6480.3	5585.7
908.2198	1725.0496	6443.6	5548.15
908.3609	1726.7605	6402.3	5504.3
908.502	1728.4706	6395.15	5497.5
908.6431	1730.18	6367.4	5471.4
908.7842	1731.8886	6336.15	5443.65
908.9253	1733.5964	6339.5	5426.45
909.0664	1735.3036	6311.45	5414.5
909.2074	1737.0099	6288.6	5392.25
909.3484	1738.7156	6277.9	5384.45
909.4894	1740.4204	6228.9	5333.65
909.6304	1742.1246	6234.35	5336.1
909.7714	1743.8279	6206.9	5313.5
909.9123	1745.5306	6180	5287.95
910.0532	1747.2325	6138.65	5245.6
910.1941	1748.9336	6121.25	5224.35
910.335	1750.634	6109.8	5210.05
910.4759	1752.3336	6098.9	5204.7
910.6168	1754.0325	6062.35	5170.4
910.7576	1755.7307	6076.5	5183.7
910.8984	1757.4281	6071.2	5175.4
911.0392	1759.1247	6061.7	5157.15
911.18	1760.8206	6029.8	5124.4
911.3208	1762.5158	6039.25	5136.45
911.4615	1764.2102	5993.7	5097.35
911.6022	1765.9039	5967.2	5072
911.7429	1767.5968	5958.35	5067.55
911.8836	1769.289	5937.7	5047.1
912.0243	1770.9804	5937.25	5042
912.1649	1772.6711	5935.5	5039.2
912.3056	1774.361	5895.1	4997
912.4462	1776.0502	5906.55	5006.65
912.5868	1777.7386	5876.85	4978.4
912.7274	1779.4263	5856.85	4961.1
912.8679	1781.1132	5847.95	4955.75
913.0084	1782.7994	5838.25	4948.35
913.149	1784.4849	5823.7	4932.9
913.2895	1786.1696	5807.8	4910.7
913.4299	1787.8535	5801.25	4911.65
913.5704	1789.5367	5799.5	4910.5
913.7108	1791.2192	5767.05	4877.55
913.8513	1792.9009	5762.5	4845.1
913.9917	1794.5818	5745.4	4848.9
914.132	1796.2621	5735.95	4842.75
914.2724	1797.9415	5719.65	4824.6
914.4128	1799.6202	5702.7	4807.8
914.5531	1801.2982	5708.95	4815.85
914.6934	1802.9755	5664.05	4766.4
914.8337	1804.6519	5650.55	4755.6
914.9739	1806.3277	5632.7	4740.95
915.1142	1808.0027	5617.75	4726.55
915.2544	1809.6769	5619.65	4730.2
915.3946	1811.3504	5605.85	4717.85
915.5348	1813.0231	5571.45	4682.95
915.675	1814.6951	5576.3	4686.3
915.8151	1816.3664	5576.85	4682.9
915.9553	1818.0369	5578.25	4684
916.0954	1819.7067	5569.5	4676.3
916.2355	1821.3757	5540.3	4644.35
916.3755	1823.044	5547.1	4652.75
916.5156	1824.7115	5519.95	4625.5
916.6556	1826.3783	5482	4587.55
916.7956	1828.0443	5490.35	4597.1
916.9356	1829.7096	5478.5	4584.7
917.0756	1831.3741	5478.2	4584.3
917.2155	1833.0379	5460.8	4571.45
917.3555	1834.701	5436.45	4545
917.4954	1836.3633	5419.85	4530.35
917.6353	1838.0248	5412.4	4521.2
917.7751	1839.6856	5409	4514.4
917.915	1841.3457	5411.8	4522.5
918.0548	1843.005	5397.2	4504.5
918.1946	1844.6636	5388.1	4496.15
918.3344	1846.3214	5375.75	4482.35
918.4742	1847.9785	5372.15	4482.2
918.6139	1849.6349	5363.9	4471.3
918.7537	1851.2904	5357.5	4453.35
918.8934	1852.9453	5333.95	4439.25
919.0331	1854.5994	5323.05	4428.6
919.1727	1856.2528	5338.95	4439.75
919.3124	1857.9054	5299.55	4406.25
919.452	1859.5572	5315.55	4423.8
919.5916	1861.2083	5294.95	4401.3
919.7312	1862.8587	5290.1	4396.4
919.8708	1864.5084	5252.1	4356.1
920.0103	1866.1572	5245.3	4350.6
920.1498	1867.8054	5242.15	4347.85
920.2893	1869.4528	5233.4	4339.25
920.4288	1871.0994	5205.95	4311.4
920.5683	1872.7453	5214.35	4319.5
920.7077	1874.3905	5206.2	4292.95
920.8471	1876.0349	5187.85	4293.95
920.9865	1877.6786	5163.65	4267.8
921.1259	1879.3215	5165.65	4274.25
921.2653	1880.9637	5158.6	4265.2
921.4046	1882.6051	5147.65	4256.2
921.5439	1884.2458	5114.4	4220.75
921.6832	1885.8858	5124.55	4232.1
921.8225	1887.525	5088.1	4193.6
921.9617	1889.1634	5098.8	4204.6
922.101	1890.8011	5088.95	4193.2
922.2402	1892.4381	5073.35	4181.3
922.3794	1894.0743	5082.2	4188.3
922.5185	1895.7098	5063.4	4168.7
922.6577	1897.3446	5051.25	4157.55
922.7968	1898.9786	5020.9	4123.85
922.9359	1900.6118	5014.9	4121
923.075	1902.2443	4975.2	4082.9
923.214	1903.8761	4982.55	4091
923.3531	1905.5071	4944.9	4051.1
923.4921	1907.1374	4949.85	4056.6
923.6311	1908.7669	4936.35	4048
923.77	1910.3957	4934.2	4043.8
923.909	1912.0237	4902.6	4009.95
924.0479	1913.651	4902.3	4009.85
924.1868	1915.2776	4899.8	4009.1
924.3257	1916.9034	4885.55	3996.85
924.4646	1918.5285	4868.5	3977.5
924.6034	1920.1528	4846.3	3957.8
924.7422	1921.7764	4843.9	3953.05
924.881	1923.3992	4815.35	3924.45
925.0198	1925.0213	4789.9	3898.2
925.1586	1926.6427	4768.3	3875.7
925.2973	1928.2633	4937.55	3844.2
925.436	1929.8832	4799.4	3903.55
925.5747	1931.5023	4749.65	3858.2
925.7134	1933.1207	4734.95	3842.3
925.852	1934.7383	4740.75	3848.05
925.9906	1936.3552	4717.75	3829.2
926.1292	1937.9714	4696.8	3805.85
926.2678	1939.5868	4691.1	3798.5
926.4064	1941.2015	4645.35	3752
926.5449	1942.8154	4649.7	3754.75
926.6834	1944.4286	4640.6	3747.65
926.8219	1946.041	4641.8	3725.55
926.9604	1947.6528	4595.8	3699.8
927.0988	1949.2637	4584.1	3693.85
927.2372	1950.8739	4577.7	3686.6
927.3756	1952.4834	4559.1	3667.3
927.514	1954.0921	4560.75	3669.05
927.6523	1955.7001	4569.4	3675.55
927.7907	1957.3074	4536.45	3650.5
927.929	1958.9139	4502.9	3614.7
928.0673	1960.5197	4491.85	3603.6
928.2055	1962.1247	4478.95	3589
928.3438	1963.729	4459.7	3572
928.482	1965.3325	4457.25	3566.65
928.6202	1966.9353	4432.95	3544.2
928.7584	1968.5374	4428.45	3542.35
928.8965	1970.1387	4421.15	3532.15
929.0346	1971.7393	4390	3500.4
929.1727	1973.3392	4399.9	3512
929.3108	1974.9383	4378.95	3494.2
929.4489	1976.5366	4363.25	3478.1
929.5869	1978.1342	4365.85	3481.25
929.7249	1979.7311	4350.7	3463.7
929.8629	1981.3273	4335.95	3450.3
930.0009	1982.9227	4324.35	3437.55
930.1388	1984.5173	4315.5	3432.95
930.2767	1986.1112	4298.2	3416
930.4146	1987.7044	4291.85	3407.3
930.5525	1989.2968	4278.7	3393.45
930.6904	1990.8885	4265.8	3376.85
930.8282	1992.4795	4253.25	3367.75
930.966	1994.0697	4247.95	3366.8
931.1038	1995.6592	4232.75	3350.25
931.2415	1997.2479	4226.4	3342.8
931.3793	1998.8359	4219	3334.2
931.517	2000.4232	4198.35	3317.6
931.6547	2002.0097	4172.3	3294.4
931.7923	2003.5955	4172	3291.7
931.93	2005.1805	4159.9	3276.5
932.0676	2006.7648	4159.1	3277.55
932.2052	2008.3484	4141.65	3259.25
932.3427	2009.9312	4137.25	3256.25
932.4803	2011.5133	4111.75	3234.75
932.6178	2013.0946	4115.3	3235.55
932.7553	2014.6752	4100.7	3221.8
932.8928	2016.2551	4114.7	3233
933.0302	2017.8342	4099.35	3220.25
933.1676	2019.4126	4064.35	3185.85
933.305	2020.9902	4045.95	3168.35
933.4424	2022.5672	4048.1	3169.3
933.5798	2024.1433	4055.75	3173.9
933.7171	2025.7188	4020.1	3144.1
933.8544	2027.2935	4034.15	3154.3
933.9917	2028.8674	4006.9	3130.25
934.129	2030.4406	4003.95	3128.5
934.2662	2032.0131	3981.05	3106.7
934.4034	2033.5849	3991.1	3108.75
934.5406	2035.1559	3979.6	3103.4
934.6778	2036.7261	3971.9	3090.7
934.8149	2038.2957	3954	3072.1
934.952	2039.8645	3986.35	3100.4
935.0891	2041.4325	3959.8	3072.4
935.2262	2042.9998	3919.55	3039
935.3632	2044.5664	3921.75	3040.65
935.5002	2046.1323	3914.1	3035.3
935.6372	2047.6974	3902.4	3022.35
935.7742	2049.2617	3896.35	3020.25
935.9111	2050.8254	3926.8	3014
936.048	2052.3883	3891.3	3010.2
936.1849	2053.9504	3867.85	2986.25
936.3218	2055.5118	3865.35	2981.75
936.4586	2057.0725	3847.25	2961.95
936.5955	2058.6325	3837.65	2959.05
936.7323	2060.1917	3836.35	2956.25
936.869	2061.7502	3843.65	2961.35
937.0058	2063.3079	3812.5	2934.15
937.1425	2064.8649	3818.95	2937.8
937.2792	2066.4212	3817.8	2936.2
937.4159	2067.9767	3794.55	2913.1
937.5525	2069.5315	3796.75	2916.4
937.6891	2071.0856	3777.4	2896.8
937.8257	2072.6389	3762.5	2881.3
937.9623	2074.1915	3753.65	2877.85
938.0989	2075.7433	3744.1	2861.2
938.2354	2077.2945	3733.35	2853.95
938.3719	2078.8448	3723.85	2841.1
938.5084	2080.3945	3715.45	2832.05
938.6448	2081.9434	3706.3	2823.35
938.7812	2083.4916	3697.35	2811.95
938.9176	2085.039	3692.3	2802.55
939.054	2086.5857	3681.5	2791.7
939.1903	2088.1317	3686.9	2796
939.3267	2089.677	3670.5	2780.45
939.463	2091.2215	3658.6	2770.65
939.5992	2092.7652	3641.35	2749.75
939.7355	2094.3083	3643.7	2755.65
939.8717	2095.8506	3640.75	2754.7
940.0079	2097.3921	3624.8	2741.5
940.1441	2098.933	3625.45	2741.15
940.2802	2100.4731	3624.1	2739.05
940.4163	2102.0124	3613.95	2721.9
940.5524	2103.5511	3612.05	2726.3
940.6885	2105.089	3604.25	2719.35
940.8245	2106.6261	3596.8	2711.9
940.9606	2108.1626	3588.5	2703.65
941.0965	2109.6983	3605.6	2696.05
941.2325	2111.2332	3581.65	2695.9
941.3684	2112.7675	3555.05	2670.9
941.5044	2114.301	3549.1	2659.85
941.6403	2115.8337	3556.45	2671
941.7761	2117.3657	3536.7	2650.35
941.912	2118.897	3540	2651.05
942.0478	2120.4276	3536.05	2644.1
942.1835	2121.9575	3510.2	2623.9
942.3193	2123.4866	3517.2	2626.85
942.455	2125.0149	3492.7	2605.95
942.5907	2126.5426	3479.2	2597.3
942.7264	2128.0695	3472.6	2590.25
942.8621	2129.5956	3466.35	2589.55
942.9977	2131.1211	3475.9	2587.9
943.1333	2132.6458	3460.25	2577.95
943.2689	2134.1698	3464.25	2573.8
943.4044	2135.693	3448.55	2559.55
943.54	2137.2155	3445.4	2555.85
943.6755	2138.7373	3434.75	2551.25
943.8109	2140.2584	3435.55	2555
943.9464	2141.7787	3422.8	2536.45
944.0818	2143.2983	3415.4	2538.15
944.2172	2144.8171	3398.15	2521.7
944.3526	2146.3353	3385.05	2503.9
944.4879	2147.8527	3372.95	2490.7
944.6232	2149.3693	3373.55	2487.8
944.7585	2150.8853	3376.8	2489.65
944.8938	2152.4005	3348.35	2461.35
945.029	2153.9149	3357.3	2469.45
945.1642	2155.4287	3355.85	2468.75
945.2994	2156.9417	3337.3	2449.1
945.4346	2158.454	3335.65	2450.15
945.5697	2159.9655	3341.65	2459.25
945.7048	2161.4764	3334.45	2451.25
945.8399	2162.9865	3308	2425.2
945.9749	2164.4958	3310.25	2426.5
946.1099	2166.0045	3302.5	2415.9
946.2449	2167.5124	3297.65	2412.75
946.3799	2169.0195	3285.1	2399.35
946.5148	2170.526	3298.95	2410.4
946.6498	2172.0317	3277.55	2391.85
946.7846	2173.5367	3271.05	2386
946.9195	2175.0409	3267.5	2384.35
947.0543	2176.5445	3270.3	2385.6
947.1891	2178.0473	3263.3	2376.65
947.3239	2179.5494	3255	2366.05
947.4587	2181.0507	3229.75	2343.4
947.5934	2182.5513	3223	2337.7
947.7281	2184.0512	3214.3	2328.25
947.8628	2185.5504	3212.65	2326.95
947.9974	2187.0488	3205.8	2323.3
948.132	2188.5465	3186.25	2304.95
948.2666	2190.0435	3181	2298.45
948.4012	2191.5397	3187.4	2300.75
948.5357	2193.0353	3170.4	2282.75
948.6702	2194.5301	3158.05	2270.1
948.8047	2196.0241	3154.85	2263.6
948.9392	2197.5175	3161.8	2271.15
949.0736	2199.0101	3136.6	2243.85
949.208	2200.502	3127.75	2242.05
949.3424	2201.9931	3110.7	2228
949.4767	2203.4835	3110.3	2227.65
949.611	2204.9733	3096.7	2210.4
949.7453	2206.4622	3101.15	2219.05
949.8796	2207.9505	3092.65	2207.9
950.0138	2209.438	3075.3	2195.7
950.148	2210.9248	3074.2	2190.3
950.2822	2212.4109	3062.2	2178.05
950.4164	2213.8962	3060.7	2169.1
950.5505	2215.3809	3065	2175.6
950.6846	2216.8648	3060.9	2169.7
950.8186	2218.3479	3058.6	2162.05
950.9527	2219.8304	3050.05	2156.65
951.0867	2221.3121	3028.05	2136.9
951.2207	2222.7931	3017.8	2128.65
951.3546	2224.2733	3017.15	2128.25
951.4886	2225.7529	3003.65	2118.25
951.6225	2227.2317	2988.65	2101.2
951.7563	2228.7098	2988.1	2106.85
951.8902	2230.1872	2988	2105.8
952.024	2231.6638	2978.35	2095.95
952.1578	2233.1397	2971.45	2085.1
952.2916	2234.6149	2968.85	2086.2
952.4253	2236.0894	2963.85	2080.4
952.559	2237.5632	2956.7	2062.5
952.6927	2239.0362	2940.3	2055.3
952.8263	2240.5085	2926.8	2039.35
952.9599	2241.9801	2938.4	2051.95
953.0935	2243.4509	2922.4	2035.35
953.2271	2244.921	2918.85	2029.6
953.3606	2246.3904	2908.7	2019.1
953.4941	2247.8591	2896.05	2007.25
953.6276	2249.3271	2886.45	1998.55
953.7611	2250.7943	2880	1990.7
953.8945	2252.2608	2866	1977.4
954.0279	2253.7266	2865.05	1977.45
954.1612	2255.1917	2864.5	1978.25
954.2946	2256.656	2845.5	1963.45
954.4279	2258.1197	2839.45	1955.9
954.5612	2259.5826	2842.85	1955.25
954.6944	2261.0447	2843.1	1957.35
954.8276	2262.5062	2834.35	1945.75
954.9608	2263.9669	2832.65	1944.15
955.094	2265.4269	2828.05	1939.7
955.2271	2266.8862	2802.5	1917.65
955.3602	2268.3448	2823.05	1936.85
955.4933	2269.8026	2807.7	1922.7
955.6264	2271.2598	2804.55	1919.8
955.7594	2272.7162	2795.45	1910.1
955.8924	2274.1719	2797.9	1909.25
956.0253	2275.6268	2783.45	1895.8
956.1583	2277.0811	2780.45	1893.15
956.2912	2278.5346	2775.6	1890
956.4241	2279.9874	2775.65	1892.3
956.5569	2281.4395	2777.8	1895.8
956.6897	2282.8908	2763.05	1874.55
956.8225	2284.3414	2758.6	1871.95
956.9553	2285.7914	2759.8	1874.1
957.088	2287.2406	2761	1871.2
957.2207	2288.689	2758.2	1865.75
957.3534	2290.1368	2732.7	1839.9
957.486	2291.5838	2745.95	1851.75
957.6186	2293.0302	2729.05	1835.7
957.7512	2294.4758	2724.85	1834.7
957.8838	2295.9206	2730.55	1839.9
958.0163	2297.3648	2714.3	1831.35
958.1488	2298.8082	2714.65	1827.5
958.2813	2300.251	2699.25	1809.7
958.4137	2301.693	2697.45	1807.45
958.5461	2303.1343	2699.2	1810.65
958.6785	2304.5748	2682.05	1797
958.8108	2306.0147	2675.65	1789.2
958.9432	2307.4538	2675.8	1790.6
959.0754	2308.8922	2656.65	1776.25
959.2077	2310.3299	2667	1782.85
959.3399	2311.7669	2658.45	1773.15
959.4721	2313.2031	2651.1	1764.25
959.6043	2314.6387	2644.85	1757.5
959.7365	2316.0735	2632.6	1744.8
959.8686	2317.5076	2634.65	1747.85
960.0006	2318.941	2620.6	1732.4
960.1327	2320.3737	2624.05	1734.45
960.2647	2321.8056	2618.75	1723.05
960.3967	2323.2369	2612.2	1723.15
960.5287	2324.6674	2608.85	1718.3
960.6606	2326.0972	2601.75	1713.3
960.7925	2327.5263	2597.25	1711
960.9244	2328.9547	2595.6	1706.3
961.0562	2330.3823	2589.05	1699.75
961.1881	2331.8092	2597.5	1704.2
961.3198	2333.2355	2582.15	1688.4
961.4516	2334.661	2568.8	1678.85
961.5833	2336.0858	2571.95	1680.3
961.715	2337.5098	2558.95	1671.3
961.8467	2338.9332	2559.95	1672.25
961.9783	2340.3558	2551.3	1662.35
962.1099	2341.7778	2552.6	1665.9
962.2415	2343.199	2550.1	1663
962.373	2344.6195	2533.35	1649.4
962.5045	2346.0393	2536.4	1649.4
962.636	2347.4583	2538.15	1651.5
962.7675	2348.8767	2535.15	1646
962.8989	2350.2943	2539.8	1650.1
963.0303	2351.7113	2527.45	1633
963.1617	2353.1275	2518	1626.6
963.293	2354.543	2523	1625.2
963.4243	2355.9578	2512.95	1623.65
963.5556	2357.3718	2493.55	1609.35
963.6868	2358.7852	2497.7	1610.7
963.818	2360.1978	2480.6	1592.75
963.9492	2361.6098	2484.65	1600.75
964.0803	2363.021	2484.65	1593.7
964.2114	2364.4315	2477.6	1594.3
964.3425	2365.8413	2470.7	1584.1
964.4736	2367.2504	2461.35	1576.75
964.6046	2368.6587	2451	1567.2
964.7356	2370.0664	2439.55	1557.4
964.8666	2371.4733	2441	1555.9
964.9975	2372.8795	2447	1561.65
965.1284	2374.285	2437.6	1553.35
965.2593	2375.6899	2425.15	1541.95
965.3901	2377.0939	2425.2	1541.05
965.5209	2378.4973	2409.45	1527.5
965.6517	2379.9	2402.3	1518.25
965.7825	2381.3019	2384.5	1500.45
965.9132	2382.7032	2402.75	1520.2
966.0439	2384.1037	2390.25	1510.15
966.1745	2385.5035	2391.05	1512.1
966.3051	2386.9027	2363.3	1480.95
966.4357	2388.3011	2384.7	1501.2
966.5663	2389.6987	2365.35	1482.5
966.6968	2391.0957	2358.6	1478.6
966.8273	2392.492	2358	1475.9
966.9578	2393.8876	2353.75	1470.2
967.0882	2395.2824	2347.7	1465.1
967.2186	2396.6765	2337.75	1455.35
967.349	2398.07	2321.8	1438.85
967.4793	2399.4627	2339.9	1453.9
967.6097	2400.8547	2324.5	1440.4
967.7399	2402.246	2325.1	1434.4
967.8702	2403.6366	2313.25	1428.2
968.0004	2405.0265	2305.4	1423.25
968.1306	2406.4156	2301.3	1414.85
968.2607	2407.8041	2307.85	1421.85
968.3909	2409.1918	2307.25	1422.55
968.521	2410.5789	2291.75	1408.15
968.651	2411.9652	2293.8	1409.3
968.781	2413.3508	2280.2	1396.8
968.911	2414.7358	2278.4	1392.75
969.041	2416.12	2271.95	1389.05
969.1709	2417.5035	2270.15	1386.55
969.3008	2418.8863	2273.25	1389.15
969.4307	2420.2684	2260.25	1376.1
969.5606	2421.6497	2259.1	1375.55
969.6904	2423.0304	2250.35	1368.7
969.8201	2424.4104	2252.55	1370.5
969.9499	2425.7896	2249.95	1361.45
970.0796	2427.1682	2240.6	1357.15
970.2093	2428.546	2230.7	1344.4
970.3389	2429.9232	2229.45	1344.95
970.4685	2431.2996	2226.5	1343.1
970.5981	2432.6753	2219.15	1335.3
970.7277	2434.0503	2216.25	1331.6
970.8572	2435.4246	2214.85	1330.35
970.9867	2436.7982	2213.85	1326
971.1161	2438.1711	2205.6	1321.25
971.2456	2439.5433	2196	1312.05
971.375	2440.9148	2204.15	1314.95
971.5043	2442.2856	2184.35	1301.1
971.6336	2443.6557	2178.2	1291.15
971.7629	2445.025	2188.35	1304.85
971.8922	2446.3937	2181.7	1296.15
972.0214	2447.7617	2169.75	1283.9
972.1506	2449.1289	2165.65	1279.7
972.2798	2450.4955	2172.75	1284.9
972.4089	2451.8613	2167.65	1283.2
972.538	2453.2265	2152.2	1267.9
972.6671	2454.5909	2154.75	1267.5
972.7961	2455.9546	2156.8	1274.15
972.9251	2457.3177	2152.05	1267.55
973.0541	2458.68	2143	1258.9
973.1831	2460.0416	2135.05	1252.6
973.312	2461.4025	2144.5	1261.5
973.4408	2462.7627	2147.4	1253.45
973.5697	2464.1222	2139.1	1256.45
973.6985	2465.4811	2122.6	1236.8
973.8273	2466.8392	2121.3	1238.55
973.956	2468.1966	2125.85	1240.5
974.0847	2469.5533	2131.3	1245.25
974.2134	2470.9093	2120.15	1234.75
974.3421	2472.2645	2114.5	1230.6
974.4707	2473.6191	2112.35	1229.95
974.5993	2474.973	2109.1	1225.9
974.7278	2476.3262	2101.65	1215.3
974.8563	2477.6787	2102.65	1219.4
974.9848	2479.0305	2089.8	1204.4
975.1132	2480.3816	2092.4	1204.8
975.2417	2481.7319	2087.6	1202.7
975.37	2483.0816	2082.15	1197.5
975.4984	2484.4306	2069.75	1187.05
975.6267	2485.7789	2065.35	1181.8
975.755	2487.1264	2060.5	1173.05
975.8833	2488.4733	2061.05	1177.6
976.0115	2489.8195	2072.35	1172.55
976.1397	2491.165	2059.1	1173.6
976.2678	2492.5097	2049.7	1164.55
976.3959	2493.8538	2040.95	1159
976.524	2495.1972	2033.95	1148.7
976.6521	2496.5398	2039.3	1153.85
976.7801	2497.8818	2028	1141.65
976.9081	2499.2231	2031.4	1145.3
977.036	2500.5637	2030.45	1142.05
977.164	2501.9035	2024.55	1139.6
977.2918	2503.2427	2021	1131.3
977.4197	2504.5812	2009	1125.1
977.5475	2505.919	2019.85	1132.1
977.6753	2507.256	2014.35	1130.3
977.8031	2508.5924	2002.3	1120.1
977.9308	2509.9281	2003.55	1113.85
978.0585	2511.2631	2003.85	1120.2
978.1861	2512.5974	1991.2	1106.95
978.3137	2513.9309	1987.4	1100.6
978.4413	2515.2638	2005.65	1095.75
978.5689	2516.596	1991.1	1106.85
978.6964	2517.9275	1980.45	1095
978.8239	2519.2583	1991.25	1106.75
978.9513	2520.5884	1979.05	1092.75
979.0788	2521.9178	1975.7	1090.55
979.2062	2523.2465	1967.65	1084.5
979.3335	2524.5745	1967.25	1083.8
979.4608	2525.9018	1958.2	1074.1
979.5881	2527.2284	1965.65	1083.4
979.7154	2528.5543	1965.15	1080.05
979.8426	2529.8796	1956.8	1070.45
979.9698	2531.2041	1958.1	1075.6
980.0969	2532.5279	1951.5	1070.4
980.224	2533.851	1940.65	1055.95
980.3511	2535.1735	1927.55	1045.75
980.4781	2536.4952	1943.7	1058.2
980.6052	2537.8163	1938.05	1052.55
980.7321	2539.1366	1937.1	1051.75
980.8591	2540.4562	1934.25	1046.05
980.986	2541.7752	1937.35	1051.35
981.1129	2543.0935	1935.75	1048.85
981.2397	2544.411	1927.35	1040.15
981.3665	2545.7279	1922.05	1036.35
981.4933	2547.0441	1921.45	1035.65
981.62	2548.3596	1921.85	1033.25
981.7467	2549.6744	1918.05	1032.8
981.8734	2550.9885	1920.55	1033.7
982.0001	2552.3019	1907.5	1021.3
982.1267	2553.6146	1909.8	1022.9
982.2532	2554.9266	1905.8	1018.45
982.3798	2556.2379	1903.55	1013.75
982.5063	2557.5485	1901.65	1017.65
982.6327	2558.8585	1904.05	1011.95
982.7592	2560.1677	1894	1002.85
982.8856	2561.4762	1902.9	1017.8
983.0119	2562.7841	1897.3	1009.25
983.1383	2564.0913	1878.5	994.95
983.2646	2565.3977	1889.35	1005.9
983.3908	2566.7035	1879.65	993.55
983.517	2568.0086	1874.7	986.7
983.6432	2569.313	1880.45	994.15
983.7694	2570.6167	1883.85	996
983.8955	2571.9197	1870.15	984.9
984.0216	2573.222	1880.3	991.15
984.1476	2574.5236	1869.8	983.7
984.2737	2575.8246	1871.8	983.45
984.3996	2577.1248	1870.45	981
984.5256	2578.4244	1863.25	978.5
984.6515	2579.7232	1862.25	977.3
984.7774	2581.0214	1890.35	977.4
984.9032	2582.3189	1863.05	980.1
985.029	2583.6157	1869.75	979.15
985.1548	2584.9118	1865.25	980.45
985.2806	2586.2072	1857.85	972.3
985.4063	2587.5019	1868.15	982.7
985.5319	2588.7959	1853.65	969.4
985.6576	2590.0893	1859.95	972.8
985.7832	2591.3819	1860.15	973.45
985.9087	2592.6739	1852.65	968.45
986.0343	2593.9652	1863	975.45
986.1597	2595.2557	1849.8	964
986.2852	2596.5456	1853.7	965.5
986.4106	2597.8348	1849.2	967.3
986.536	2599.1234	1846.15	961.9
986.6614	2600.4112	1851.4	966.8
986.7867	2601.6983	1846.85	959.5
986.912	2602.9848	1842.5	958.1
987.0372	2604.2705	1849.05	957.3
987.1624	2605.5556	1839	954.05
987.2876	2606.84	1835.5	949.7
987.4128	2608.1237	1842.7	959.65
987.5379	2609.4067	1840	951.4
987.6629	2610.689	1834.15	939.75
987.788	2611.9707	1832.3	946.8
987.913	2613.2516	1823.5	934.85
988.0379	2614.5319	1810.6	927.85
988.1629	2615.8115	1805.6	918.75
988.2878	2617.0903	1801.3	915.9
988.4126	2618.3685	1803.3	917.1
988.5375	2619.6461	1795.8	909.7
988.6622	2620.9229	1793.65	909.4
988.787	2622.199	1801.2	916.1
988.9117	2623.4745	1798.75	914.5
989.0364	2624.7493	1796.3	912.9
989.161	2626.0234	1796.7	913
989.2857	2627.2968	1791.65	908.45
989.4102	2628.5695	1793.4	907.35
989.5348	2629.8415	1788.3	906.65
989.6593	2631.1128	1779.3	893.15
989.7837	2632.3835	1772.5	888.4
989.9082	2633.6535	1785.35	901.2
990.0326	2634.9228	1779	895.4
990.1569	2636.1914	1780.15	896.85
990.2812	2637.4593	1775.5	889.35
990.4055	2638.7265	1774.85	887.65
990.5298	2639.9931	1764.5	882.65
990.654	2641.259	1762.1	875.05
990.7782	2642.5242	1761.4	876.75
990.9023	2643.7887	1758.75	875.15
991.0264	2645.0525	1758.45	870.95
991.1505	2646.3156	1757.8	872.3
991.2745	2647.5781	1747	863.05
991.3985	2648.8398	1741.95	860.7
991.5225	2650.1009	1748.25	857.55
991.6464	2651.3613	1746.8	863.6
991.7703	2652.6211	1734.95	851.1
991.8942	2653.8801	1733.95	851.1
992.018	2655.1385	1739.2	850.55
992.1418	2656.3961	1732.05	848.45
992.2655	2657.6531	1742	857
992.3892	2658.9094	1732.6	848.8
992.5129	2660.1651	1735.3	853.15
992.6366	2661.42	1731.5	848.5
992.7602	2662.6743	1725	839.7
992.8837	2663.9279	1729.35	844.15
993.0073	2665.1808	1734.9	850.55
993.1307	2666.433	1727.85	844.05
993.2542	2667.6846	1737.75	855
993.3776	2668.9354	1737	851.15
993.501	2670.1856	1730.5	845.4
993.6244	2671.4351	1732.8	849.95
993.7477	2672.6839	1735.25	849.75
993.8709	2673.9321	1733.35	848.55
993.9942	2675.1795	1733.4	847.75
994.1174	2676.4263	1734.05	850.75
994.2405	2677.6724	1742.05	859.55
994.3637	2678.9179	1738.6	854.9
994.4868	2680.1626	1733.1	847.65
994.6098	2681.4067	1734.9	849.85
994.7328	2682.6501	1738.95	855.15
994.8558	2683.8928	1733.85	849.55
994.9788	2685.1348	1721.65	837.4
995.1017	2686.3761	1723.75	839.25
995.2245	2687.6168	1715.15	834.25
995.3474	2688.8568	1703.5	819.4
995.4702	2690.0961	1699.2	815.05
995.5929	2691.3348	1708.2	821.55
995.7156	2692.5727	1699.75	815.7
995.8383	2693.81	1697.8	815.35
995.961	2695.0466	1695.95	815.5
996.0836	2696.2826	1692.65	808.4
996.2062	2697.5178	1697.6	811
996.3287	2698.7524	1685.2	801.15
996.4512	2699.9863	1689.35	804.3
996.5737	2701.2195	1683.95	802.7
996.6961	2702.452	1696.15	808.8
996.8185	2703.6839	1698.45	814
996.9408	2704.9151	1698.15	816.65
997.0631	2706.1456	1703.85	819.55
997.1854	2707.3755	1704.55	819.7
997.3077	2708.6046	1722.75	835.75
997.4299	2709.8331	1728.65	844.55
997.552	2711.0609	1726.65	842.8
997.6742	2712.2881	1735.3	853.7
997.7963	2713.5145	1744.65	857.5
997.9183	2714.7403	1739.4	855.9
998.0403	2715.9654	1750	866.85
998.1623	2717.1899	1777.2	877.3
998.2842	2718.4136	1772.9	890.6
998.4062	2719.6367	1784	899.7
998.528	2720.8591	1798.55	909.4
998.6498	2722.0809	1805.4	921.45
998.7716	2723.3019	1809.35	921.1
998.8934	2724.5223	1815.85	931.8
999.0151	2725.7421	1822.15	938.25
999.1368	2726.9611	1821.05	934.75
999.2584	2728.1795	1818.4	931.85
999.38	2729.3972	1805.25	923.5
999.5016	2730.6142	1815	919.45
999.6231	2731.8306	1782.8	897.75
999.7446	2733.0462	1774.4	889.9
999.8661	2734.2612	1751.6	864.4
999.9875	2735.4756	1733.1	848.2
1000.1089	2736.6892	1710.25	826.3
1000.2302	2737.9022	1704.85	823.15
1000.3515	2739.1145	1684.2	800.65
1000.4728	2740.3262	1684.35	794.4
1000.594	2741.5372	1672.35	790.05
1000.7152	2742.7475	1649.85	766
1000.8363	2743.9571	1641.3	759.95
1000.9575	2745.1661	1635.95	748.7
1001.0785	2746.3744	1626.8	743.5
1001.1996	2747.582	1619.45	737.15
1001.3206	2748.7889	1616	730.95
1001.4415	2749.9952	1601.25	718.95
1001.5625	2751.2008	1590.75	707.95
1001.6833	2752.4057	1592.75	709.05
1001.8042	2753.61	1584.85	701.65
1001.925	2754.8136	1581.6	697.45
1002.0458	2756.0165	1581.65	700.15
1002.1665	2757.2188	1579.2	696.9
1002.2872	2758.4204	1572.3	689.65
1002.4078	2759.6213	1581	698.1
1002.5285	2760.8215	1578.85	692.1
1002.649	2762.0211	1571.55	689.15
1002.7696	2763.22	1574.3	688.45
1002.8901	2764.4182	1571.95	687.9
1003.0106	2765.6158	1569.6	687.95
1003.131	2766.8127	1562.45	680.35
1003.2514	2768.009	1553.25	669.75
1003.3717	2769.2045	1563.6	680.75
1003.492	2770.3994	1553.65	669.05
1003.6123	2771.5936	1548	664.25
1003.7325	2772.7872	1549.35	668.85
1003.8527	2773.9801	1532.6	648.9
1003.9729	2775.1723	1557.3	658
1004.093	2776.3639	1535.85	655.1
1004.2131	2777.5548	1534.8	652.4
1004.3331	2778.745	1533.9	651.25
1004.4531	2779.9346	1544.8	663.4
1004.5731	2781.1235	1539.25	655.35
1004.693	2782.3117	1542.6	662.7
1004.8129	2783.4992	1548.85	670.1
1004.9328	2784.6861	1543	661.15
1005.0526	2785.8723	1545.15	662.4
1005.1723	2787.0579	1559.6	675.35
1005.2921	2788.2428	1560.85	680.05
1005.4118	2789.427	1567.4	687.25
1005.5314	2790.6106	1567.6	686.45
1005.651	2791.7935	1582.45	699.4
1005.7706	2792.9757	1582.65	700.65
1005.8902	2794.1573	1603.45	719.45
1006.0097	2795.3382	1606.25	725.65
1006.1291	2796.5184	1615.75	735.35
1006.2485	2797.698	1642.35	759.7
1006.3679	2798.8769	1642.7	760.65
1006.4873	2800.0551	1662.25	777.6
1006.6066	2801.2327	1686.2	800.35
1006.7258	2802.4096	1709.35	827.95
1006.8451	2803.5859	1714.75	831.85
1006.9642	2804.7615	1736.05	853.15
1007.0834	2805.9364	1758.8	876.2
1007.2025	2807.1106	1777.1	896.2
1007.3216	2808.2842	1800.8	917.3
1007.4406	2809.4572	1834.2	955.1
1007.5596	2810.6294	1866.9	983.3
1007.6785	2811.801	1905.45	1026.25
1007.7975	2812.972	1937.65	1057.3
1007.9163	2814.1423	1986	1103.65
1008.0352	2815.3119	2033.35	1151.05
1008.154	2816.4808	2077.7	1197.2
1008.2727	2817.6491	2115.45	1233.25
1008.3914	2818.8167	2166.35	1287.75
1008.5101	2819.9837	2227.9	1342.85
1008.6288	2821.15	2258.55	1377
1008.7474	2822.3157	2310.65	1429.75
1008.8659	2823.4807	2363.2	1483
1008.9844	2824.645	2399.6	1516.95
1009.1029	2825.8086	2458	1580
1009.2214	2826.9716	2503.8	1623.5
1009.3398	2828.134	2543.1	1661.1
1009.4581	2829.2957	2594.45	1713.3
1009.5764	2830.4567	2612.55	1734
1009.6947	2831.617	2641.45	1759.15
1009.813	2832.7767	2645.55	1765.65
1009.9312	2833.9358	2656	1776.15
1010.0493	2835.0941	2634.3	1753.4
1010.1675	2836.2519	2627.9	1749.65
1010.2855	2837.4089	2605.35	1724.45
1010.4036	2838.5653	2603.45	1723.8
1010.5216	2839.7211	2596.3	1716.15
1010.6396	2840.8761	2609.4	1727.95
1010.7575	2842.0306	2622.25	1743.65
1010.8754	2843.1843	2663.15	1781.55
1010.9932	2844.3374	2711.5	1830.65
1011.111	2845.4899	2758.85	1877.25
1011.2288	2846.6417	2828.5	1949.7
1011.3465	2847.7928	2893.25	2014.5
1011.4642	2848.9433	2950.75	2070.8
1011.5818	2850.0931	3039.45	2158.7
1011.6995	2851.2422	3103.8	2223.6
1011.817	2852.3907	3168.35	2285.6
1011.9345	2853.5385	3237.6	2357.25
1012.052	2854.6857	3305.75	2395.3
1012.1695	2855.8323	3346.3	2465.9
1012.2869	2856.9781	3371	2491.75
1012.4042	2858.1233	3437.05	2556.25
1012.5216	2859.2679	3469.95	2591.2
1012.6389	2860.4118	3515.25	2635.15
1012.7561	2861.555	3573.8	2688.2
1012.8733	2862.6976	3603.6	2720.85
1012.9905	2863.8395	3627.95	2748.6
1013.1076	2864.9808	3662.4	2782.5
1013.2247	2866.1214	3673.35	2795
1013.3417	2867.2614	3698.2	2819.55
1013.4587	2868.4007	3693.75	2814.5
1013.5757	2869.5393	3697	2817.5
1013.6926	2870.6773	3722.1	2837.7
1013.8095	2871.8146	3736.8	2853.5
1013.9263	2872.9513	3741.15	2855.8
1014.0431	2874.0874	3726.4	2845.3
1014.1599	2875.2227	3730.2	2848.95
1014.2766	2876.3574	3712.2	2832.8
1014.3933	2877.4915	3689.8	2810.55
1014.51	2878.6249	3650.6	2773.1
1014.6266	2879.7577	3620	2740
1014.7431	2880.8898	3621.1	2732.1
1014.8596	2882.0212	3613.4	2733.75
1014.9761	2883.152	3590.8	2710.4
1015.0925	2884.2821	3572.5	2695.8
1015.2089	2885.4116	3569.6	2692.45
1015.3253	2886.5405	3569.6	2690.3
1015.4416	2887.6686	3576.25	2695.15
1015.5579	2888.7962	3567.5	2689.4
1015.6741	2889.923	3575.1	2695.35
1015.7903	2891.0493	3594.8	2716.9
1015.9065	2892.1748	3601.2	2721.1
1016.0226	2893.2997	3611.35	2730.8
1016.1387	2894.424	3632.45	2754.4
1016.2547	2895.5476	3643.85	2764.6
1016.3707	2896.6706	3668.75	2792.75
1016.4866	2897.7929	3686.05	2804.7
1016.6025	2898.9145	3718.2	2837.6
1016.7184	2900.0355	3752.25	2871.65
1016.8342	2901.1559	3765.15	2884.45
1016.95	2902.2756	3805.35	2924.9
1017.0658	2903.3946	3858.55	2981.65
1017.1815	2904.513	3871.8	2989.9
1017.2971	2905.6308	3898.6	3020.5
1017.4127	2906.7479	3916.7	3037.05
1017.5283	2907.8643	3938.8	3058.35
1017.6439	2908.9801	3976.15	3095.8
1017.7594	2910.0953	3970.4	3093.8
1017.8748	2911.2098	3963.8	3080.85
1017.9902	2912.3236	3971.05	3083.05
1018.1056	2913.4368	3945.4	3064.3
1018.2209	2914.5494	3928.65	3050
1018.3362	2915.6613	3903.75	3019.95
1018.4515	2916.7725	3871.1	2986.5
1018.5667	2917.8831	3853	2972.75
1018.6819	2918.9931	3806.75	2925.75
1018.797	2920.1024	3783.15	2903.6
1018.9121	2921.211	3767.4	2887.75
1019.0271	2922.319	3758.4	2879.05
1019.1421	2923.4264	3736.05	2857.5
1019.2571	2924.5331	3729.3	2852.3
1019.372	2925.6391	3713	2833.9
1019.4869	2926.7445	3707.6	2831.35
1019.6017	2927.8493	3705.6	2824.3
1019.7165	2928.9534	3685.6	2808.25
1019.8313	2930.0569	3698.9	2817.95
1019.946	2931.1597	3682.45	2803.15
1020.0606	2932.2619	3674.8	2794.75
1020.1753	2933.3634	3677.85	2799.3
1020.2899	2934.4643	3681.2	2795.1
1020.4044	2935.5645	3651.35	2766.85
1020.5189	2936.6641	3616.8	2734.4
1020.6334	2937.763	3582.75	2702.9
1020.7478	2938.8613	3520.15	2640.4
1020.8622	2939.959	3482.95	2598.25
1020.9765	2941.056	3405.5	2527.3
1021.0908	2942.1523	3330.2	2450.3
1021.2051	2943.248	3254.35	2375.45
1021.3193	2944.3431	3161.55	2285.05
1021.4334	2945.4375	3060.1	2179.15
1021.5476	2946.5313	2943.65	2065.3
1021.6617	2947.6244	2853.95	1977.4
1021.7757	2948.7169	2738.6	1859.95
1021.8897	2949.8087	2648.3	1769.75
1022.0037	2950.8999	2572.65	1693.95
1022.1176	2951.9904	2489.7	1611.75
1022.2315	2953.0803	2427.6	1549.55
1022.3453	2954.1696	2351.35	1473.05
1022.4591	2955.2582	2312.8	1436.1
1022.5728	2956.3462	2268.2	1392.25
1022.6865	2957.4335	2219.45	1339.55
1022.8002	2958.5202	2177.5	1296.5
1022.9138	2959.6062	2159.05	1280.9
1023.0274	2960.6916	2128.85	1250.9
1023.141	2961.7764	2119.9	1241.65
1023.2545	2962.8605	2106.85	1228.1
1023.3679	2963.9439	2092.4	1215.3
1023.4813	2965.0267	2070.45	1191.05
1023.5947	2966.1089	2089.25	1189.7
1023.708	2967.1905	2071.3	1194.85
1023.8213	2968.2714	2053.85	1175.85
1023.9346	2969.3516	2056.45	1178.9
1024.0478	2970.4312	2069.5	1183.55
1024.1609	2971.5102	2060	1182.1
1024.274	2972.5885	2060.3	1183.1
1024.3871	2973.6662	2051.25	1168.2
1024.5002	2974.7432	2065.1	1187.85
1024.6132	2975.8196	2050.2	1171.75
1024.7261	2976.8954	2036.8	1159.2
1024.839	2977.9705	2032.55	1154.8
1024.9519	2979.045	2022.65	1145.85
1025.0647	2980.1188	2005.6	1129.25
1025.1775	2981.192	1989	1113.1
1025.2902	2982.2645	1961.85	1082.95
1025.4029	2983.3364	1940.1	1063.4
1025.5156	2984.4077	1918.75	1040.05
1025.6282	2985.4783	1886.7	1000.75
1025.7407	2986.5483	1855.5	977.05
1025.8532	2987.6177	1810.7	933.4
1025.9657	2988.6864	1791.15	912.6
1026.0782	2989.7545	1752.35	874.3
1026.1906	2990.8219	1720.6	844.65
1026.3029	2991.8887	1688.6	805.85
1026.4152	2992.9548	1654.2	775.2
1026.5275	2994.0204	1627.2	750.25
1026.6397	2995.0852	1595.65	719.5
1026.7519	2996.1495	1564.65	685.35
1026.864	2997.2131	1546.35	668.85
1026.9761	2998.276	1524.75	646.8
1027.0882	2999.3383	1501.4	622.75
1027.2002	3000.4	1489	610.55
1027.3122	3001.4611	1470.1	594.6
1027.4241	3002.5215	1461.5	584.4
1027.536	3003.5812	1439.9	562.95
1027.6478	3004.6404	1436.7	560.05
1027.7596	3005.6989	1421.4	542.05
1027.8714	3006.7567	1412.35	533.2
1027.9831	3007.8139	1422.7	515
1028.0947	3008.8705	1385.6	509.95
1028.2064	3009.9264	1391.7	511.3
1028.3179	3010.9818	1373.45	495.95
1028.4295	3012.0364	1371.2	492.6
1028.541	3013.0905	1370.15	493.05
1028.6524	3014.1439	1365.7	488.9
1028.7638	3015.1966	1360.2	483.75
1028.8752	3016.2487	1359.5	481.4
1028.9865	3017.3002	1358.5	477.3
1029.0978	3018.3511	1352.95	477.7
1029.209	3019.4013	1352.05	475.7
1029.3202	3020.4509	1346.7	469.1
1029.4314	3021.4998	1355.7	478.85
1029.5425	3022.5481	1353	475.9
1029.6535	3023.5958	1350	473.05
1029.7645	3024.6428	1354.5	476.7
1029.8755	3025.6892	1352.05	475.4
1029.9864	3026.735	1359.75	483.05
1030.0973	3027.7802	1356.2	479.4
1030.2082	3028.8247	1353.9	476.9
1030.319	3029.8685	1356.05	478.6
1030.4297	3030.9118	1361	483.35
1030.5404	3031.9544	1364.7	488.75
1030.6511	3032.9963	1360.5	483.3
1030.7617	3034.0376	1363.45	487.4
1030.8723	3035.0783	1373.95	494.1
1030.9829	3036.1184	1375.75	498.85
1031.0934	3037.1578	1372.55	496.65
1031.2038	3038.1966	1378.25	500
1031.3142	3039.2348	1380.6	503.4
1031.4246	3040.2723	1387.8	500.6
1031.5349	3041.3092	1380.45	506.55
1031.6452	3042.3455	1377.7	502.3
1031.7554	3043.3811	1379.7	501.25
1031.8656	3044.4161	1369.55	493.15
1031.9758	3045.4505	1368.35	492.9
1032.0859	3046.4842	1369.7	492.55
1032.1959	3047.5173	1348.4	471
1032.3059	3048.5498	1343.85	466.7
1032.4159	3049.5816	1341.8	465.6
1032.5258	3050.6128	1340.05	459.9
1032.6357	3051.6434	1336.7	460.2
1032.7455	3052.6734	1333.1	455.7
1032.8553	3053.7027	1327.8	452.25
1032.9651	3054.7314	1315.75	440.7
1033.0748	3055.7594	1311.5	434.5
1033.1845	3056.7868	1311.2	434.85
1033.2941	3057.8136	1307.65	433.55
1033.4037	3058.8398	1299.1	423.45
1033.5132	3059.8653	1295.55	417.45
1033.6227	3060.8902	1292.05	416.45
1033.7321	3061.9145	1289.4	413.3
1033.8415	3062.9381	1285.9	410.25
1033.9509	3063.9612	1293.5	400.75
1034.0602	3064.9835	1273	396.25
1034.1694	3066.0053	1276.5	398.7
1034.2787	3067.0264	1263.6	387.55
1034.3878	3068.0469	1264.25	384.9
1034.497	3069.0668	1254.05	373.4
1034.6061	3070.086	1248	372.45
1034.7151	3071.1046	1235.2	359.75
1034.8241	3072.1226	1235.6	358.9
1034.9331	3073.1399	1225.6	349.15
1035.042	3074.1567	1215.1	337.15
1035.1508	3075.1727	1202.95	326.9
1035.2597	3076.1882	1195.6	319.15
1035.3684	3077.203	1188.15	311.65
1035.4772	3078.2173	1185.5	307.85
1035.5859	3079.2308	1176.15	297.8
1035.6945	3080.2438	1165.2	284.3
1035.8031	3081.2561	1158.55	283.05
1035.9117	3082.2678	1150.05	273.95
1036.0202	3083.2789	1150.2	271.8
1036.1286	3084.2893	1140.95	264.2
1036.2371	3085.2991	1137.95	261.45
1036.3454	3086.3083	1137.55	258.7
1036.4538	3087.3169	1126.05	249.75
1036.562	3088.3248	1124.9	246.05
1036.6703	3089.3321	1114.8	238.45
1036.7785	3090.3388	1105.35	230.45
1036.8866	3091.3449	1101.95	226.7
1036.9948	3092.3503	1106.55	228.15
1037.1028	3093.3551	1096.35	222.85
1037.2108	3094.3593	1094.4	219.35
1037.3188	3095.3629	1091.25	215.2
1037.4267	3096.3658	1089.25	213.55
1037.5346	3097.3681	1088.75	211.15
1037.6425	3098.3698	1089.6	214.1
1037.7503	3099.3708	1084.85	202.3
1037.858	3100.3713	1079.65	204.35
1037.9657	3101.3711	1077.65	200.4
1038.0734	3102.3702	1209.05	195.65
1038.181	3103.3688	1071.1	194.2
1038.2886	3104.3667	1071.05	194.4
1038.3961	3105.364	1071.05	194.25
1038.5036	3106.3607	1066.4	189.05
1038.611	3107.3568	1062.9	186.5
1038.7184	3108.3522	1065.35	191.2
1038.8257	3109.347	1059	182.35
1038.933	3110.3412	1063.5	185.15
1039.0403	3111.3348	1057.8	181.2
1039.1475	3112.3277	1056.6	180
1039.2547	3113.32	1052.6	177.6
1039.3618	3114.3117	1050.9	176.45
1039.4689	3115.3028	1052.9	176.55
1039.5759	3116.2932	1051	174.55
1039.6829	3117.2831	1050.8	169.05
1039.7898	3118.2723	1044.7	170.3
1039.8967	3119.2608	1041	164.45
1040.0035	3120.2488	1044.65	168.85
1040.1103	3121.2361	1039.85	163.2
1040.2171	3122.2229	1038.95	162.65
1040.3238	3123.209	1039.85	161.75
1040.4305	3124.1944	1035.45	160.55
1040.5371	3125.1793	1037.15	160.2
1040.6437	3126.1635	1030.7	155
1040.7502	3127.1471	1029.45	154.9
1040.8567	3128.1301	1031.9	157.9
1040.9631	3129.1125	1029.65	155.1
1041.0695	3130.0942	1030.6	153.75
1041.1759	3131.0753	1040.9	156.3
1041.2822	3132.0558	1026.2	148.55
1041.3884	3133.0357	1026.05	148.05
1041.4946	3134.015	1024.35	148.8
1041.6008	3134.9936	1022.35	146.35
1041.7069	3135.9716	1044.1	147.9
1041.813	3136.949	1021.6	147.25
1041.919	3137.9258	1041.2	146.1
1042.025	3138.902	1021.65	142.55
1042.1309	3139.8775	1018.35	143.55
1042.2368	3140.8524	1019.85	144.8
1042.3427	3141.8267	1015	137.3
1042.4485	3142.8004	1017.5	141.5
1042.5542	3143.7735	1018.85	138.4
1042.6599	3144.7459	1009.35	133.05
1042.7656	3145.7178	1014.85	139.2
1042.8712	3146.689	1011.8	137.95
1042.9768	3147.6596	1011.65	134.05
1043.0823	3148.6295	1008	133.5
1043.1878	3149.5989	1005.85	130.7
1043.2932	3150.5676	1002.8	130.05
1043.3986	3151.5357	1001.25	127.9
1043.5039	3152.5032	1002.7	126.2
1043.6092	3153.4701	1003	127.65
1043.7145	3154.4364	1004.85	126.65
1043.8197	3155.402	998.4	125.1
1043.9248	3156.367	1000.75	125.35
1044.03	3157.3315	1030.95	125.4
1044.135	3158.2952	995.2	118.9
1044.24	3159.2584	993.7	116.45
1044.345	3160.221	997.05	121.2
1044.4499	3161.1829	991.2	114.55
1044.5548	3162.1442	995.05	119.75
1044.6596	3163.105	993.05	117.75
1044.7644	3164.065	992.75	119.35
1044.8692	3165.0245	993.9	116.95
1044.9739	3165.9834	991.9	117.1
1045.0785	3166.9416	985.6	111.05
1045.1831	3167.8993	991.55	116.8
1045.2877	3168.8563	988	113.85
1045.3922	3169.8127	986.05	111.15
1045.4966	3170.7684	987.85	112.65
1045.6011	3171.7236	987.05	112.6
1045.7054	3172.6782	983.45	109.2
1045.8098	3173.6321	987.55	111.5
1045.914	3174.5854	987.15	108.95
1046.0183	3175.5381	982.7	107.85
1046.1224	3176.4902	979.2	103.6
1046.2266	3177.4417	979.1	102.9
1046.3307	3178.3926	979.9	105.6
1046.4347	3179.3428	976.8	104.15
1046.5387	3180.2924	979.95	104.95
1046.6427	3181.2415	979.35	103.9
1046.7466	3182.1899	978.15	103.45
1046.8504	3183.1377	979.25	104.7
1046.9542	3184.0848	979.85	101.8
1047.058	3185.0314	978.55	103.75
1047.1617	3185.9773	981.1	105.4
1047.2654	3186.9227	974	99.9
1047.369	3187.8674	974.5	98.95
1047.4726	3188.8115	976.65	97.85
1047.5761	3189.755	972.35	97.95
1047.6796	3190.6979	973.75	97.85
1047.783	3191.6402	969.7	97.1
1047.8864	3192.5818	976.45	101.8
1047.9898	3193.5229	987.9	93.9
1048.0931	3194.4633	971.15	98.1
1048.1963	3195.4031	973.2	96.2
1048.2995	3196.3423	966.6	93.05
1048.4027	3197.2809	968.2	93.4
1048.5058	3198.2189	970.7	94.35
1048.6089	3199.1563	976.9	96.45
1048.7119	3200.0931	967.95	95.55
1048.8148	3201.0292	963.6	89.95
1048.9178	3201.9648	963.75	89.4
1049.0206	3202.8997	968.2	90.45
1049.1235	3203.834	963.4	87.65
1049.2262	3204.7677	966.95	92.4
1049.329	3205.7008	968.75	92.4
1049.4317	3206.6333	959.65	87.9
1049.5343	3207.5652	968	93.1
1049.6369	3208.4964	965.5	92.35
1049.7394	3209.4271	963.6	90.05
1049.8419	3210.3571	963.4	90
1049.9444	3211.2865	962.6	89
1050.0468	3212.2154	962.8	90
1050.1491	3213.1436	961.3	84.95
1050.2514	3214.0712	965.05	83.1
1050.3537	3214.9982	960.2	84.9
1050.4559	3215.9246	959.65	84.35
1050.5581	3216.8503	957.2	82.3
1050.6602	3217.7755	957	83.05
1050.7623	3218.7001	957.4	83.15
1050.8643	3219.624	956.85	81.5
1050.9663	3220.5473	960.25	88.05
1051.0682	3221.4701	956.65	82.15
1051.1701	3222.3922	954.95	77.65
1051.2719	3223.3137	958.5	82.1
1051.3737	3224.2346	953.9	79.5
1051.4754	3225.1549	952.75	78.2
1051.5771	3226.0746	955.05	82.05
1051.6788	3226.9937	952.7	78.65
1051.7804	3227.9121	951.1	79.8
1051.8819	3228.83	952.15	77.9
1051.9834	3229.7473	954.75	80.25
1052.0849	3230.6639	953.55	77.8
1052.1863	3231.5799	952.85	79.05
1052.2876	3232.4954	951.45	76.1
1052.3889	3233.4102	949.35	76.3
1052.4902	3234.3244	949.8	76.7
1052.5914	3235.238	949.7	75.55
1052.6926	3236.151	971.75	74.45
1052.7937	3237.0634	949.3	75
1052.8948	3237.9752	950.85	76.2
1052.9958	3238.8864	943.85	70.7
1053.0968	3239.797	946.15	71.8
1053.1977	3240.7069	949.15	76.4
1053.2986	3241.6163	947.05	72.45
1053.3994	3242.5251	944.25	70.05
1053.5002	3243.4332	945.45	70.65
1053.6009	3244.3408	947.1	71.75
1053.7016	3245.2477	946.6	73.9
1053.8022	3246.154	942.75	66
1053.9028	3247.0598	947.5	72.65
1054.0034	3247.9649	944.35	69.25
1054.1039	3248.8694	942.05	67.1
1054.2043	3249.7733	940.25	66.55
1054.3047	3250.6766	942.8	67.9
1054.4051	3251.5793	940.05	64.4
1054.5054	3252.4814	938.95	65.45
1054.6056	3253.3829	938.7	65.6
1054.7058	3254.2838	939.85	64.95
1054.806	3255.1841	937.05	65.25
1054.9061	3256.0838	938.55	64.25
1055.0061	3256.9829	935.95	62.15
1055.1062	3257.8814	936.6	59.65
1055.2061	3258.7792	937.9	61.85
1055.306	3259.6765	940.4	66.95
1055.4059	3260.5731	931.9	57.9
1055.5057	3261.4692	932.95	58.1
1055.6055	3262.3647	930.55	56.05
1055.7052	3263.2595	930.65	58.1
1055.8049	3264.1538	929.55	56.1
1055.9045	3265.0474	931.5	56.95
1056.0041	3265.9404	926.85	54.15
1056.1036	3266.8329	925.25	52.45
1056.2031	3267.7247	935.35	51.3
1056.3025	3268.616	924	52.85
1056.4019	3269.5066	922.9	48.1
1056.5013	3270.3966	923.4	49.35
1056.6005	3271.286	919.55	49.1
