Software Version:	3.9.2.0
Unit SN:	10000200
Spectrometer SN:	6960
Date:	3/8/2024 11:14:58 AM
Data Line Index:	25
Spectral Points:	2048
Integration time (ms):	125
Averages:	20
Delay (ms):	30000
Sequence Number:	1
Processing:	dark subtract
Laser Power (mW):	295
Laser Current (mA):	822
Laser Diode Temp (C):	25.1
Laser Case Temp (C):	24.6
System Temp (C):	24.6
Spectrometer Temp (C):	22.6
CCD Temp (C):	0.01
Secondary Temp (C):	20.028
Heatsink Temp (C):	19.448
CCDPCB Temp (C):	31.983
SecondaryPCB Temp (C):	25.847

Wavelength	RamanShift	Raw Counts	Dark Subtracted
787.061	30.1047	422.7	12.25
787.2016	32.3739	420.7	12.55
787.3422	34.6426	421.2	11.8
787.4828	36.9109	423.9	12.55
787.6235	39.1787	429.8	16.2
787.7642	41.4461	435.8	16.25
787.9049	43.7131	440.75	18
788.0456	45.9796	445.5	19.45
788.1863	48.2456	449	19.2
788.3271	50.5112	456.6	24
788.4679	52.7764	458.75	22.2
788.6087	55.0411	465.6	24.95
788.7496	57.3054	473.55	27.9
788.8904	59.5692	473.45	26.35
789.0313	61.8326	479.75	32.85
789.1722	64.0955	485.7	33.3
789.3132	66.3579	497.55	38.75
789.4541	68.6199	501.35	40.3
789.5951	70.8815	521.25	54.6
789.7361	73.1426	548.6	79.75
789.8771	75.4032	613.9	142.95
790.0181	77.6634	765.35	289.3
790.1592	79.9231	1128.45	650.6
790.3003	82.1824	1851.55	1366.4
790.4414	84.4412	3079.85	2585.45
790.5825	86.6995	4645.4	4142.7
790.7237	88.9574	6184.1	5669.95
790.8648	91.2148	7202.7	6685.75
791.006	93.4717	7647	7120.9
791.1472	95.7282	7729.3	7202.6
791.2885	97.9842	7720	7195.25
791.4297	100.2398	7597.6	7068.45
791.571	102.4949	7498.7	6968.3
791.7123	104.7495	7384.65	6850.75
791.8536	107.0036	7261.85	6725.8
791.9949	109.2573	7127.35	6592.6
792.1363	111.5105	6948.1	6408.85
792.2777	113.7632	6758.55	6219.25
792.4191	116.0154	6541.55	5991.5
792.5605	118.2672	6290.2	5746.7
792.7019	120.5185	6032.4	5485.35
792.8434	122.7693	5785.95	5234
792.9849	125.0197	5550.7	4994.1
793.1264	127.2696	5383.45	4823.3
793.2679	129.519	5255.75	4692.45
793.4094	131.7679	5152.55	4588.5
793.551	134.0163	5111.2	4545.1
793.6926	136.2642	5099.15	4528.9
793.8342	138.5117	5067.75	4495.35
793.9758	140.7587	5026.4	4453.15
794.1175	143.0052	4934.8	4359.45
794.2591	145.2512	4814	4235.8
794.4008	147.4967	4684.4	4104.95
794.5425	149.7417	4560.45	3976.5
794.6842	151.9863	4481.7	3894.2
794.826	154.2304	4428.6	3838.25
794.9677	156.4739	4418.1	3823.9
795.1095	158.717	4448.9	3852.6
795.2513	160.9596	4510.4	3909.55
795.3931	163.2017	4578.55	3975
795.535	165.4433	4644.65	4038.95
795.6768	167.6844	4639.8	4032.2
795.8187	169.925	4587.2	3974.9
795.9606	172.1651	4457.9	3846.1
796.1025	174.4047	4332.6	3713.95
796.2445	176.6439	4221	3603.35
796.3864	178.8825	4153.7	3531.5
796.5284	181.1206	4112.35	3486.55
796.6704	183.3582	4075.5	3443.75
796.8124	185.5954	4044.15	3411.75
796.9544	187.832	4048.5	3413.5
797.0965	190.0681	4051.75	3415.25
797.2386	192.3037	4068.7	3427.45
797.3806	194.5388	4063.55	3420.35
797.5228	196.7734	4094.15	3448.55
797.6649	199.0075	4124.7	3480.2
797.807	201.2411	4173.1	3526
797.9492	203.4742	4233.15	3583.9
798.0914	205.7068	4290.9	3636.8
798.2336	207.9389	4347.5	3690.45
798.3758	210.1704	4358.3	3712.15
798.518	212.4015	4373.65	3736.25
798.6603	214.632	4386.6	3754.8
798.8025	216.862	4398.45	3769.55
798.9448	219.0915	4398.95	3766.8
799.0871	221.3205	4445.3	3809.05
799.2294	223.549	4454.7	3821.75
799.3718	225.777	4469.6	3836.95
799.5141	228.0044	4457.3	3816.25
799.6565	230.2314	4466.3	3822.5
799.7989	232.4578	4426.4	3779.5
799.9413	234.6837	4384.85	3730.45
800.0837	236.909	4349.35	3692.65
800.2262	239.1339	4346.4	3664.45
800.3687	241.3582	4304.3	3637.45
800.5111	243.582	4318.95	3622.85
800.6536	245.8053	4330.55	3642.95
800.7961	248.0281	4320.95	3642.1
800.9387	250.2503	4338.05	3654.95
801.0812	252.472	4353.9	3668.85
801.2238	254.6932	4375.2	3692.65
801.3664	256.9139	4380.2	3694.95
801.509	259.134	4426.55	3736.6
801.6516	261.3536	4464.7	3776
801.7942	263.5727	4556.4	3866.45
801.9369	265.7912	4661	3971.25
802.0795	268.0092	4800.05	4112.75
802.2222	270.2267	4954.8	4263.6
802.3649	272.4436	5072.55	4381.6
802.5076	274.6601	5167.95	4467
802.6504	276.8759	5218	4517.45
802.7931	279.0913	5275.55	4576.6
802.9359	281.3061	5330.3	4629.35
803.0787	283.5204	5372.5	4671.3
803.2215	285.7341	5446.95	4741.2
803.3643	287.9473	5519.85	4815.7
803.5071	290.16	5505.9	4795.85
803.6499	292.3721	5395.6	4691.45
803.7928	294.5837	5285.4	4581.9
803.9357	296.7947	5192.7	4487.15
804.0786	299.0052	5152.05	4445.4
804.2215	301.2152	5084.85	4375.7
804.3644	303.4246	5066.2	4360.65
804.5074	305.6334	5048.9	4340.85
804.6503	307.8418	5032.9	4320.6
804.7933	310.0495	4959.2	4247.15
804.9363	312.2568	4898.65	4186.55
805.0793	314.4635	4783.15	4066.65
805.2223	316.6696	4669.55	3950.95
805.3653	318.8752	4533.95	3808.2
805.5084	321.0802	4452.95	3732.4
805.6514	323.2847	4435.05	3714.55
805.7945	325.4887	4450	3727.3
805.9376	327.692	4484.65	3761.2
806.0807	329.8949	4604.3	3878.6
806.2238	332.0972	4720.55	3994.55
806.367	334.2989	4801.85	4071.15
806.5101	336.5001	4829.35	4099.85
806.6533	338.7007	4772.45	4039.75
806.7965	340.9008	4659.05	3928.95
806.9397	343.1003	4499.25	3763
807.0829	345.2992	4364.25	3630.75
807.2261	347.4976	4243.55	3507.65
807.3693	349.6955	4159.5	3416.35
807.5126	351.8927	4097.3	3356.45
807.6559	354.0895	4071.7	3316.5
807.7991	356.2856	4018	3273.25
807.9424	358.4812	4002.6	3258.65
808.0857	360.6763	3982.55	3235.7
808.2291	362.8707	3974.05	3228.25
808.3724	365.0646	3972.9	3221.7
808.5158	367.258	3979.55	3225.05
808.6591	369.4508	4027.7	3274.8
808.8025	371.643	4096.3	3341.4
808.9459	373.8346	4159.3	3401.75
809.0893	376.0257	4252.5	3491.3
809.2327	378.2162	4336.65	3579.8
809.3762	380.4062	4385.8	3627.35
809.5196	382.5956	4335.6	3577.85
809.6631	384.7844	4238.15	3488.75
809.8066	386.9726	4121.55	3370.95
809.9501	389.1603	4040.85	3291.8
810.0936	391.3474	4012.1	3219.4
810.2371	393.5339	3966.6	3212.25
810.3806	395.7199	3978.15	3224.9
810.5241	397.9052	4052.2	3299.3
810.6677	400.09	4157.6	3405.45
810.8113	402.2743	4287.65	3531.2
810.9548	404.4579	4380.4	3623.25
811.0984	406.641	4478.7	3721.8
811.2421	408.8235	4577.95	3816.65
811.3857	411.0054	4690.6	3926.8
811.5293	413.1868	4767.3	4000.45
811.673	415.3675	4771.55	4001.9
811.8166	417.5477	4754.55	3983.5
811.9603	419.7273	4679.6	3907.8
812.104	421.9064	4591.15	3810.9
812.2477	424.0848	4461.2	3688.1
812.3914	426.2627	4326.15	3553.45
812.5351	428.4399	4155.95	3380.35
812.6788	430.6166	4015.3	3231.4
812.8226	432.7928	3907.85	3125.85
812.9663	434.9683	3815.1	3034.7
813.1101	437.1432	3753.95	2972.1
813.2539	439.3176	3707.5	2926.2
813.3977	441.4914	3679.25	2898.05
813.5415	443.6645	3669.5	2886.85
813.6853	445.8371	3658.3	2878.15
813.8291	448.0091	3639	2856
813.973	450.1806	3645.65	2861.75
814.1168	452.3514	3640.05	2855.1
814.2607	454.5216	3655.6	2860.2
814.4046	456.6913	3657.3	2868.8
814.5485	458.8603	3662.05	2876.75
814.6924	461.0288	3678.45	2895.15
814.8363	463.1967	3665.5	2879.3
814.9802	465.3639	3668.9	2882.1
815.1241	467.5306	3663.5	2877.25
815.2681	469.6967	3642	2853.65
815.412	471.8622	3634.3	2846.7
815.556	474.0271	3616.25	2828.45
815.7	476.1914	3613.25	2820.95
815.844	478.3551	3591.85	2805.1
815.988	480.5182	3600.8	2809.2
816.132	482.6807	3594.65	2805.85
816.276	484.8426	3628.95	2842.1
816.4201	487.0039	3744.1	2955.45
816.5641	489.1647	3892.3	3098.3
816.7082	491.3248	4013.75	3220.6
816.8522	493.4843	4059.85	3265.6
816.9963	495.6432	4047.4	3253
817.1404	497.8015	3971.1	3171.75
817.2845	499.9592	3852.55	3056.15
817.4286	502.1163	3716.05	2917.9
817.5727	504.2728	3591.8	2790.6
817.7168	506.4287	3537.1	2738.85
817.861	508.5839	3494.95	2696.35
818.0051	510.7386	3469.7	2671.7
818.1493	512.8927	3478.15	2668.6
818.2935	515.0461	3497.45	2696.55
818.4377	517.199	3522.3	2718.55
818.5818	519.3512	3632.4	2829.25
818.726	521.5029	3821.8	3013.6
818.8703	523.6539	3977.5	3172.9
819.0145	525.8043	4023.45	3217.35
819.1587	527.9541	3888.15	3079.9
819.303	530.1033	3703.1	2897
819.4472	532.2519	3567.95	2761.25
819.5915	534.3999	3495.75	2686.05
819.7357	536.5472	3467.7	2661.45
819.88	538.694	3463.75	2655.5
820.0243	540.8401	3507	2696.55
820.1686	542.9856	3550.85	2738.95
820.3129	545.1305	3603.75	2791.4
820.4572	547.2748	3641	2827.6
820.6016	549.4185	3643.05	2827.55
820.7459	551.5615	3654.7	2844.2
820.8902	553.704	3695.35	2883.95
821.0346	555.8458	3740.6	2930.55
821.1789	557.987	3777.4	2964.45
821.3233	560.1276	3864.05	3049.85
821.4677	562.2675	4034.15	3222.45
821.6121	564.4069	4249.2	3438.15
821.7565	566.5456	4359.75	3549.95
821.9009	568.6837	4322.15	3510.65
822.0453	570.8212	4085.1	3272.85
822.1897	572.958	3829.9	3015.55
822.3342	575.0942	3652.45	2839.4
822.4786	577.2299	3573.6	2757.7
822.6231	579.3648	3515.1	2701.1
822.7675	581.4992	3475.15	2662.25
822.912	583.6329	3510	2696.2
823.0565	585.766	3583.45	2768.8
823.201	587.8985	3696.7	2882.35
823.3454	590.0304	3835.7	3004.3
823.4899	592.1616	3949.4	3126
823.6345	594.2922	3960.95	3141.35
823.779	596.4222	3901.1	3077.4
823.9235	598.5515	3741.25	2919.1
824.068	600.6802	3573.5	2750.95
824.2126	602.8083	3446.35	2623.6
824.3571	604.9358	3415.05	2592.6
824.5017	607.0626	3403.9	2579.7
824.6462	609.1888	3427.05	2600.95
824.7908	611.3144	3473.9	2649.4
824.9354	613.4393	3566.7	2742.65
825.08	615.5636	3714.15	2889.25
825.2246	617.6873	3852.25	3026.65
825.3692	619.8103	3964.5	3136.5
825.5138	621.9327	3961.9	3134.45
825.6584	624.0544	3893.7	3068.6
825.803	626.1756	3722.45	2896.45
825.9477	628.2961	3560.1	2729.75
826.0923	630.4159	3484.35	2656.75
826.237	632.5351	3459.05	2630
826.3816	634.6537	3443.65	2612.8
826.5263	636.7716	3423.5	2591.05
826.6709	638.8889	3411.7	2580.35
826.8156	641.0056	3434.7	2604.25
826.9603	643.1216	3467.7	2633.6
827.105	645.237	3489.85	2656.6
827.2497	647.3518	3443.7	2612.6
827.3944	649.4659	3374.6	2545.05
827.5391	651.5793	3311.3	2482.05
827.6838	653.6922	3269.4	2438.75
827.8285	655.8043	3234.7	2402.85
827.9733	657.9159	3208.8	2376.1
828.118	660.0268	3182.4	2348.05
828.2627	662.137	3174.65	2340.95
828.4075	664.2466	3186.5	2349
828.5522	666.3556	3186.85	2350.9
828.697	668.4639	3172.9	2335.5
828.8418	670.5716	3153.3	2317.4
828.9865	672.6786	3144.9	2307.35
829.1313	674.785	3123.25	2283.55
829.2761	676.8907	3106.1	2269.35
829.4209	678.9958	3107.65	2271.1
829.5657	681.1002	3095.65	2257.6
829.7105	683.204	3114.25	2270.4
829.8553	685.3072	3119.55	2277.6
830.0001	687.4097	3121.4	2282.3
830.1449	689.5115	3116.2	2275.85
830.2898	691.6127	3103.75	2265.35
830.4346	693.7132	3094.55	2252.55
830.5794	695.8131	3110	2256.15
830.7243	697.9123	3088.95	2246.95
830.8691	700.0109	3109.15	2266.6
831.014	702.1089	3123.45	2282.4
831.1588	704.2061	3170.25	2326.95
831.3037	706.3028	3231.45	2387.15
831.4486	708.3987	3290.85	2447.7
831.5935	710.4941	3346.75	2502.3
831.7383	712.5887	3354.2	2509.8
831.8832	714.6827	3346.2	2499.5
832.0281	716.7761	3309.05	2464.95
832.173	718.8688	3306.8	2462.1
832.3179	720.9608	3291.75	2443
832.4628	723.0522	3319.15	2470.05
832.6077	725.1429	3366.95	2522.8
832.7527	727.233	3458.1	2610.8
832.8976	729.3224	3624.45	2776.5
833.0425	731.4112	3756.95	2907.35
833.1874	733.4993	3839.3	2992.05
833.3324	735.5867	3725.3	2876.65
833.4773	737.6735	3514.75	2667.65
833.6222	739.7596	3332.3	2482.7
833.7672	741.845	3237.35	2390.05
833.9122	743.9298	3179.65	2329.2
834.0571	746.014	3177.4	2328.85
834.2021	748.0974	3180.8	2331.3
834.347	750.1802	3179.4	2328.9
834.492	752.2624	3173.55	2324.2
834.637	754.3439	3176.1	2323.8
834.782	756.4247	3202.4	2342.2
834.9269	758.5048	3205.8	2354.85
835.0719	760.5843	3255.5	2402.6
835.2169	762.6631	3350.5	2495.75
835.3619	764.7413	3494.9	2645.75
835.5069	766.8188	3719.3	2866.75
835.6519	768.8956	3938.8	3083.8
835.7969	770.9718	4112.75	3260.65
835.9419	773.0473	4098.4	3247
836.0869	775.1221	4000.95	3148.3
836.232	777.1962	3943.85	3091.9
836.377	779.2697	4105.7	3253.7
836.522	781.3426	4401.85	3531.6
836.667	783.4147	4613	3755.45
836.8121	785.4862	4615.65	3763.45
836.9571	787.557	4393.4	3537.7
837.1021	789.6271	4061.55	3206.55
837.2472	791.6966	3707.9	2853.15
837.3922	793.7654	3416.95	2560.95
837.5373	795.8335	3260.75	2407.5
837.6823	797.901	3166	2309.15
837.8274	799.9678	3134.25	2276.5
837.9724	802.0339	3125.6	2272.05
838.1175	804.0993	3157.5	2291.25
838.2626	806.1641	3139.75	2281.6
838.4076	808.2282	3107.45	2251.4
838.5527	810.2916	3079.55	2222.15
838.6978	812.3544	3025.55	2168.15
838.8428	814.4164	2997.3	2141.25
838.9879	816.4778	3017.95	2160.75
839.133	818.5385	3046.85	2190.65
839.2781	820.5986	3126.2	2268.55
839.4232	822.658	3255.85	2396.95
839.5682	824.7166	3433	2574.75
839.7133	826.7747	3657.35	2799.05
839.8584	828.832	3881	3021.25
840.0035	830.8886	4041.9	3182.45
840.1486	832.9446	4128.1	3268.4
840.2937	834.9999	4080.4	3221.5
840.4388	837.0545	3896.6	3031.9
840.5839	839.1085	3652.7	2791.3
840.729	841.1618	3439.7	2574.95
840.8741	843.2143	3289.95	2429.75
841.0192	845.2662	3177.5	2314.9
841.1643	847.3175	3136.55	2276.3
841.3095	849.368	3110.3	2251.5
841.4546	851.4179	3095.1	2234.35
841.5997	853.467	3095.45	2233.65
841.7448	855.5155	3121.25	2260
841.8899	857.5633	3142.2	2282.05
842.0351	859.6105	3108	2246.25
842.1802	861.6569	3093.55	2233.75
842.3253	863.7027	3052.25	2189.25
842.4704	865.7478	3017.7	2155.2
842.6156	867.7922	2975.45	2112
842.7607	869.8359	2953.55	2089.1
842.9058	871.8789	2941.75	2080.8
843.0509	873.9212	2973.4	2078.6
843.1961	875.9629	2952.95	2089.2
843.3412	878.0039	2977.95	2113.8
843.4863	880.0441	3021.65	2158.85
843.6315	882.0837	3085.75	2218.75
843.7766	884.1226	3132.5	2266.8
843.9218	886.1609	3230.65	2365.95
844.0669	888.1984	3368.15	2505.5
844.212	890.2352	3483.6	2623.15
844.3572	892.2714	3537.05	2667.65
844.5023	894.3069	3485.95	2622.2
844.6475	896.3416	3338.4	2473.2
844.7926	898.3757	3203.4	2337.15
844.9377	900.4091	3139.85	2272.3
845.0829	902.4418	3150.6	2281.7
845.228	904.4739	3211.5	2341.95
845.3732	906.5052	3269.6	2403.5
845.5183	908.5358	3267.65	2401.35
845.6635	910.5658	3220.8	2352.5
845.8086	912.595	3121.1	2251.9
845.9538	914.6236	3033.45	2166.95
846.0989	916.6515	2944.9	2077.35
846.2441	918.6786	2895.6	2026.7
846.3892	920.7051	2876.3	2007.3
846.5344	922.7309	2864.5	1996.75
846.6795	924.756	2865.7	1998.8
846.8246	926.7804	2887.7	2018.5
846.9698	928.8041	2931.9	2060.75
847.1149	930.8272	2980.45	2109.15
847.2601	932.8495	2995.2	2126.2
847.4052	934.8711	2997	2126.1
847.5504	936.892	3019.5	2152.25
847.6955	938.9123	3080.9	2210.65
847.8407	940.9318	3157.05	2288.3
847.9858	942.9506	3216.1	2345.55
848.131	944.9688	3211.7	2341.7
848.2761	946.9862	3138.7	2268.35
848.4213	949.003	3041.1	2170.85
848.5664	951.019	2978.55	2109.4
848.7115	953.0344	2923.7	2052.6
848.8567	955.0491	2906	2033.75
849.0018	957.063	2870.55	2001.4
849.147	959.0763	2867.15	1999.3
849.2921	961.0888	2854.35	1981.15
849.4373	963.1007	2863	1993.1
849.5824	965.1119	2841.15	1971.8
849.7275	967.1223	2812	1942.2
849.8727	969.1321	2791	1923.7
850.0178	971.1412	2793.85	1924.25
850.1629	973.1495	2779.8	1909.9
850.3081	975.1572	2804.2	1894.7
850.4532	977.1641	2796.95	1927.65
850.5983	979.1704	2789.1	1916.6
850.7435	981.1759	2793.25	1917.6
850.8886	983.1808	2782.2	1910.9
851.0337	985.1849	2755.85	1873.65
851.1788	987.1884	2739.55	1864.4
851.324	989.1911	2753.7	1878.6
851.4691	991.1932	2776.35	1902.1
851.6142	993.1945	2790.55	1919
851.7593	995.1951	2794.65	1920.9
851.9045	997.1951	2792.8	1914.5
852.0496	999.1943	2766.7	1896.15
852.1947	1001.1928	2767.25	1893
852.3398	1003.1906	2799.05	1927.15
852.4849	1005.1877	2859.9	1984.75
852.63	1007.1841	2939.55	2065.8
852.7751	1009.1798	2974.85	2102.55
852.9202	1011.1748	2962.45	2089.9
853.0653	1013.1691	2908.35	2035.55
853.2104	1015.1627	2823.9	1949.45
853.3555	1017.1556	2734.75	1861.5
853.5006	1019.1477	2679.65	1805.4
853.6457	1021.1392	2636.3	1766.95
853.7908	1023.1299	2631.05	1757.5
853.9359	1025.12	2613.85	1741.8
854.081	1027.1093	2639.85	1771.7
854.2261	1029.0979	2690.85	1819.95
854.3712	1031.0859	2746.95	1878.3
854.5163	1033.0731	2796.65	1923.1
854.6613	1035.0596	2804.2	1931.05
854.8064	1037.0454	2792.35	1918.75
854.9515	1039.0304	2756.05	1881
855.0965	1041.0148	2694.25	1821
855.2416	1042.9985	2647.85	1771.3
855.3867	1044.9814	2610.3	1736.3
855.5317	1046.9636	2581.8	1705.7
855.6768	1048.9452	2605.45	1732.5
855.8219	1050.926	2654.4	1779.65
855.9669	1052.9061	2686.4	1812.9
856.112	1054.8855	2725.2	1850.4
856.257	1056.8642	2728.85	1853.55
856.4021	1058.8421	2720.65	1840.05
856.5471	1060.8194	2709.15	1833.55
856.6921	1062.7959	2700.15	1825.3
856.8372	1064.7717	2715.7	1839.5
856.9822	1066.7469	2702.9	1826.55
857.1272	1068.7213	2716.65	1839.65
857.2723	1070.695	2747.55	1872.2
857.4173	1072.6679	2805.7	1928.1
857.5623	1074.6402	2877.5	2001.4
857.7073	1076.6117	2919.25	2037.35
857.8523	1078.5826	2877.2	2000.4
857.9973	1080.5527	2782.8	1904.85
858.1423	1082.5221	2684.15	1808.05
858.2873	1084.4908	2603.35	1727.55
858.4323	1086.4587	2568.7	1689.15
858.5773	1088.426	2535.3	1657.3
858.7223	1090.3925	2520.55	1640
858.8673	1092.3584	2533.9	1656.5
859.0123	1094.3235	2555.85	1680.05
859.1573	1096.2879	2609.9	1731.85
859.3022	1098.2515	2672.4	1797.6
859.4472	1100.2145	2736.15	1860.6
859.5922	1102.1767	2817.85	1938.45
859.7371	1104.1382	2938.55	2062.15
859.8821	1106.099	3071.65	2193.6
860.027	1108.0591	3215.7	2341.6
860.172	1110.0185	3329.25	2449.05
860.3169	1111.9771	3422.3	2547.15
860.4619	1113.9351	3558.8	2683
860.6068	1115.8923	3741.9	2861.65
860.7517	1117.8488	3857.7	2979.2
860.8967	1119.8045	3788.05	2911.65
861.0416	1121.7596	3527.75	2650.85
861.1865	1123.7139	3217.55	2342.2
861.3314	1125.6675	3043.95	2166
861.4763	1127.6204	3008.7	2130.45
861.6212	1129.5726	3055.55	2174.25
861.7661	1131.524	3093.7	2218.3
861.911	1133.4748	3001.05	2120.6
862.0559	1135.4248	2842.7	1963.8
862.2008	1137.3741	2699.75	1823.5
862.3457	1139.3226	2612.7	1735.45
862.4905	1141.2705	2603.3	1724
862.6354	1143.2176	2612.95	1728.95
862.7803	1145.164	2660.4	1778.85
862.9251	1147.1097	2663.4	1782.2
863.07	1149.0546	2623.2	1741.9
863.2148	1150.9989	2551.1	1673.05
863.3597	1152.9424	2488.65	1609.35
863.5045	1154.8852	2470.05	1589.5
863.6493	1156.8272	2430.05	1552.15
863.7942	1158.7686	2438.15	1553.35
863.939	1160.7092	2438.45	1560.2
864.0838	1162.6491	2435.25	1555
864.2286	1164.5883	2460.55	1582.2
864.3734	1166.5267	2504.15	1623.9
864.5182	1168.4644	2572.7	1691.65
864.663	1170.4014	2642	1759.8
864.8078	1172.3377	2750.1	1873.25
864.9526	1174.2732	2866.5	1987.6
865.0974	1176.2081	3083.45	2204.45
865.2421	1178.1421	3402.4	2517.4
865.3869	1180.0755	3753.4	2874.45
865.5317	1182.0082	3997.7	3118.2
865.6764	1183.9401	4023.25	3141.95
865.8212	1185.8713	3774.35	2897.55
865.9659	1187.8017	3444.65	2564.4
866.1106	1189.7315	3125.4	2249.3
866.2554	1191.6605	2897.15	1991.15
866.4001	1193.5888	2739	1859.6
866.5448	1195.5163	2667.2	1788.5
866.6895	1197.4432	2582.35	1702.1
866.8342	1199.3693	2540.35	1661.1
866.9789	1201.2947	2503.55	1616.5
867.1236	1203.2193	2475.75	1594.3
867.2683	1205.1432	2469.75	1587.3
867.413	1207.0664	2471.5	1592.1
867.5576	1208.9889	2464	1579.45
867.7023	1210.9106	2471.6	1594.05
867.847	1212.8316	2484.15	1605.8
867.9916	1214.7519	2510.7	1622.3
868.1363	1216.6715	2527.85	1647
868.2809	1218.5903	2569.55	1691.1
868.4255	1220.5084	2612.4	1731.95
868.5701	1222.4257	2643.5	1760.2
868.7148	1224.3424	2672.35	1794.25
868.8594	1226.2583	2714	1829.75
869.004	1228.1735	2781.4	1899.35
869.1486	1230.0879	2879.2	1998.2
869.2932	1232.0016	2994.8	2112.8
869.4377	1233.9146	3088.35	2203.8
869.5823	1235.8269	3134.35	2253.95
869.7269	1237.7384	3148.7	2266.15
869.8715	1239.6492	3128.15	2249.95
870.016	1241.5592	3172.1	2290.9
870.1606	1243.4686	3276.45	2396.9
870.3051	1245.3772	3457.25	2576.5
870.4496	1247.285	3699.6	2818
870.5941	1249.1922	3907.55	3024.9
870.7387	1251.0986	4102.85	3219.3
870.8832	1253.0042	4291.2	3408.35
871.0277	1254.9092	4523.35	3641
871.1722	1256.8134	4773.95	3893.8
871.3167	1258.7169	5052.55	4169.85
871.4611	1260.6196	5264.7	4382.35
871.6056	1262.5216	5389.75	4506.85
871.7501	1264.4229	5373.85	4493
871.8945	1266.3234	5291	4410.1
872.039	1268.2232	5146.3	4263.95
872.1834	1270.1223	4977.25	4092.55
872.3278	1272.0207	4868.5	3984.85
872.4723	1273.9183	4783.95	3896.4
872.6167	1275.8151	4784.1	3903.1
872.7611	1277.7113	4867.35	3986.1
872.9055	1279.6067	5065.1	4183.7
873.0499	1281.5014	5442	4560.35
873.1943	1283.3953	5943.05	5059.5
873.3386	1285.2885	6517.35	5636.45
873.483	1287.181	7027.8	6143.45
873.6274	1289.0727	7233.8	6352.5
873.7717	1290.9637	7102.45	6218
873.9161	1292.854	6781.6	5899.15
874.0604	1294.7435	6394.1	5510.9
874.2047	1296.6323	6032.05	5147.9
874.349	1298.5204	5718.5	4830.2
874.4933	1300.4077	5450	4565.1
874.6376	1302.2943	5278.6	4396.05
874.7819	1304.1802	5168.4	4285
874.9262	1306.0653	5070.05	4185.3
875.0705	1307.9497	4969.75	4084.8
875.2147	1309.8333	4885.25	4003.8
875.359	1311.7162	4826.35	3942.85
875.5032	1313.5984	4763.3	3877
875.6475	1315.4798	4728	3829.2
875.7917	1317.3605	4744.45	3844.4
875.9359	1319.2405	4733.25	3848.5
876.0801	1321.1197	4764.7	3880.85
876.2243	1322.9982	4702.2	3813.55
876.3685	1324.876	4541.65	3659.05
876.5127	1326.753	4321.05	3437.65
876.6569	1328.6293	4056.8	3170.1
876.801	1330.5048	3795.4	2910.45
876.9452	1332.3796	3533.7	2649.9
877.0893	1334.2537	3372.7	2465.3
877.2335	1336.127	3206.25	2323.6
877.3776	1337.9996	3101	2216.4
877.5217	1339.8714	3047.5	2164.4
877.6658	1341.7426	3034.5	2107.2
877.8099	1343.6129	2947.2	2061.8
877.954	1345.4826	2907.65	2023.75
878.0981	1347.3515	2846.7	1960.45
878.2422	1349.2196	2811.45	1926.9
878.3862	1351.087	2798.4	1913.55
878.5303	1352.9537	2776.15	1891.15
878.6743	1354.8197	2782.9	1898.55
878.8184	1356.6849	2804.25	1919.85
878.9624	1358.5493	2839.8	1957.6
879.1064	1360.4131	2918.8	2033.75
879.2504	1362.276	3015.3	2133.95
879.3944	1364.1383	3108.3	2224.6
879.5384	1365.9998	3162.7	2274.2
879.6823	1367.8606	3149.2	2263.35
879.8263	1369.7206	3119.75	2236.5
879.9702	1371.5799	3128.65	2242.75
880.1142	1373.4384	3120.05	2236.95
880.2581	1375.2962	3063.1	2178.8
880.402	1377.1533	2926.75	2044.15
880.5459	1379.0096	2792.65	1909.3
880.6898	1380.8652	2702.2	1818.7
880.8337	1382.7201	2614.2	1730
880.9776	1384.5742	2548.1	1663.35
881.1215	1386.4275	2492.55	1607.15
881.2653	1388.2802	2438.55	1555.75
881.4092	1390.132	2398.1	1512.6
881.553	1391.9832	2379.5	1495.9
881.6968	1393.8336	2367.75	1481.95
881.8406	1395.6832	2344.85	1460.45
881.9844	1397.5322	2333.75	1450.75
882.1282	1399.3803	2296.85	1405.5
882.272	1401.2278	2283.45	1398.6
882.4158	1403.0745	2255.25	1370.95
882.5595	1404.9204	2238.45	1355.4
882.7033	1406.7656	2225.3	1340.8
882.847	1408.6101	2205.95	1319.75
882.9908	1410.4538	2209.95	1326
883.1345	1412.2968	2217.9	1333.75
883.2782	1414.139	2215.85	1331.25
883.4219	1415.9805	2231.15	1346.6
883.5656	1417.8213	2265.55	1374.2
883.7092	1419.6613	2307.45	1425.25
883.8529	1421.5006	2375.1	1490.4
883.9965	1423.3391	2485.75	1600.05
884.1402	1425.1769	2623.1	1737.75
884.2838	1427.0139	2836.15	1953.2
884.4274	1428.8502	3060.55	2173.75
884.571	1430.6858	3270.35	2384.85
884.7146	1432.5206	3341.8	2457.65
884.8582	1434.3547	3353.7	2466.3
885.0018	1436.188	3313.5	2428.8
885.1453	1438.0206	3254.65	2367.5
885.2889	1439.8524	3241.6	2357.7
885.4324	1441.6835	3215.55	2330.9
885.5759	1443.5139	3223.55	2337.25
885.7194	1445.3435	3243.55	2360.55
885.8629	1447.1724	3249.7	2365.2
886.0064	1449.0005	3236.8	2352.1
886.1499	1450.8279	3222.6	2336.4
886.2933	1452.6545	3209.65	2323.2
886.4368	1454.4804	3207.35	2324.3
886.5802	1456.3056	3174.4	2283.75
886.7237	1458.13	3118.95	2235.85
886.8671	1459.9536	3057.8	2172.95
887.0105	1461.7766	2972.05	2088.3
887.1539	1463.5987	2867.65	1983.45
887.2972	1465.4202	2753.65	1866.55
887.4406	1467.2409	2668.5	1784.45
887.584	1469.0608	2564.05	1679.5
887.7273	1470.88	2484.5	1599.1
887.8706	1472.6984	2402.3	1518.95
888.0139	1474.5161	2336.7	1448.8
888.1572	1476.3331	2299.3	1414.05
888.3005	1478.1493	2249.35	1364.8
888.4438	1479.9648	2250.85	1368.4
888.5871	1481.7795	2247.1	1360.95
888.7303	1483.5935	2253.7	1368.6
888.8736	1485.4067	2251.8	1368.7
889.0168	1487.2192	2260.85	1374.3
889.16	1489.031	2269.5	1383.5
889.3032	1490.842	2266.7	1383.55
889.4464	1492.6522	2265.4	1382
889.5896	1494.4618	2263.5	1380.8
889.7327	1496.2705	2260.4	1377.1
889.8759	1498.0785	2240.45	1354.25
890.019	1499.8858	2225.8	1341
890.1622	1501.6924	2203.4	1319.65
890.3053	1503.4981	2196.75	1312.85
890.4484	1505.3032	2182.1	1297.95
890.5914	1507.1075	2165.9	1280.4
890.7345	1508.911	2161.7	1275.6
890.8776	1510.7138	2137.05	1251.5
891.0206	1512.5159	2121.25	1237.6
891.1637	1514.3172	2097.4	1212.8
891.3067	1516.1178	2074.3	1190.25
891.4497	1517.9176	2069.8	1182.1
891.5927	1519.7166	2044.05	1160.25
891.7357	1521.515	2039.3	1149.8
891.8786	1523.3126	2037.25	1153.7
892.0216	1525.1094	2014.15	1127.1
892.1645	1526.9055	2009.05	1125.5
892.3074	1528.7008	2001.15	1116.15
892.4503	1530.4954	1992.5	1099.9
892.5932	1532.2893	1985.3	1102.7
892.7361	1534.0824	1985.95	1095.8
892.879	1535.8747	1981.55	1100.35
893.0218	1537.6663	1973.25	1089.05
893.1647	1539.4572	1976.35	1089.95
893.3075	1541.2473	1973.85	1090.9
893.4503	1543.0367	1982.95	1099.2
893.5931	1544.8253	1989.2	1099.1
893.7359	1546.6132	1999.85	1111.75
893.8787	1548.4003	2018.9	1125.85
894.0214	1550.1867	2029.45	1135.15
894.1642	1551.9723	2049.1	1156.85
894.3069	1553.7572	2096.35	1210.85
894.4496	1555.5414	2136.75	1252.95
894.5923	1557.3247	2206.2	1322.25
894.735	1559.1074	2305.45	1422.85
894.8777	1560.8893	2424	1540.2
895.0204	1562.6705	2524.35	1641.2
895.163	1564.4509	2606.15	1720.55
895.3056	1566.2305	2666.85	1784.85
895.4482	1568.0094	2678.9	1795.85
895.5908	1569.7876	2666.1	1782.35
895.7334	1571.565	2668.55	1785.85
895.876	1573.3417	2669.7	1785.35
896.0186	1575.1176	2676.3	1792.05
896.1611	1576.8928	2721.6	1838.15
896.3036	1578.6672	2784.05	1901.55
896.4461	1580.4409	2874.65	1994.15
896.5886	1582.2138	2972.4	2086.75
896.7311	1583.986	3089.35	2205.1
896.8736	1585.7575	3226.9	2343.15
897.0161	1587.5282	3327	2444.15
897.1585	1589.2981	3402.15	2519.65
897.3009	1591.0673	3448.15	2564.85
897.4433	1592.8358	3486.75	2604.15
897.5857	1594.6035	3475.3	2589.15
897.7281	1596.3704	3454.95	2570.55
897.8705	1598.1366	3389.25	2506.2
898.0128	1599.9021	3318.5	2436.55
898.1551	1601.6668	3230.85	2344.6
898.2975	1603.4308	3174	2289.65
898.4398	1605.194	3165.95	2278.7
898.5821	1606.9564	3212.95	2333.1
898.7243	1608.7182	3363.7	2477.65
898.8666	1610.4791	3587.3	2705.3
899.0088	1612.2394	3879.7	2998.1
899.1511	1613.9988	4215.7	3332.5
899.2933	1615.7576	4493.8	3611.4
899.4355	1617.5156	4635.8	3745.45
899.5776	1619.2728	4593.9	3710.85
899.7198	1621.0293	4389.7	3508.6
899.862	1622.785	4089.2	3205.1
900.0041	1624.54	3720.1	2835.9
900.1462	1626.2942	3368.65	2484.55
900.2883	1628.0477	3047	2162.55
900.4304	1629.8005	2788.2	1902.05
900.5725	1631.5525	2588.15	1704.45
900.7145	1633.3037	2420.35	1536.1
900.8566	1635.0542	2298.55	1417.45
900.9986	1636.804	2200.55	1317.4
901.1406	1638.553	2179.75	1233.55
901.2826	1640.3013	2070.9	1189.4
901.4245	1642.0488	2013.45	1126.9
901.5665	1643.7955	1963	1084.55
901.7085	1645.5416	1932.1	1047.15
901.8504	1647.2868	1910.75	1028.3
901.9923	1649.0313	1886.2	1004.1
902.1342	1650.7751	1874.75	986.65
902.2761	1652.5181	1866.7	986.75
902.4179	1654.2604	1868.9	984.05
902.5598	1656.0019	1876.95	993.35
902.7016	1657.7427	1900.45	1017.35
902.8434	1659.4828	1957.85	1074.45
902.9852	1661.222	2034.25	1150.55
903.127	1662.9606	2134.8	1251.15
903.2687	1664.6984	2241.9	1359.05
903.4105	1666.4354	2309.55	1425.5
903.5522	1668.1717	2278.6	1395.95
903.6939	1669.9072	2178.25	1295
903.8356	1671.642	2051.45	1165.1
903.9773	1673.3761	1930.9	1048.35
904.119	1675.1094	1823	939.6
904.2606	1676.8419	1754.95	872
904.4022	1678.5737	1712.25	829.25
904.5439	1680.3048	1677.9	793
904.6855	1682.0351	1656.15	773.1
904.827	1683.7646	1648.35	762.25
904.9686	1685.4934	1628.6	746.7
905.1101	1687.2215	1615.25	732.6
905.2517	1688.9488	1609.45	723.35
905.3932	1690.6754	1593.1	709.95
905.5347	1692.4012	1581.85	698.45
905.6761	1694.1263	1582.1	701.45
905.8176	1695.8506	1569.6	684.75
905.9591	1697.5742	1577.65	695.1
906.1005	1699.297	1560.9	678.95
906.2419	1701.0191	1556.55	672.95
906.3833	1702.7404	1545.85	665.7
906.5246	1704.461	1541.15	657.1
906.666	1706.1808	1537.35	653.3
906.8073	1707.8999	1526.6	642.65
906.9487	1709.6182	1531.3	648.85
907.09	1711.3358	1528.45	646.25
907.2313	1713.0527	1521.45	641.9
907.3725	1714.7688	1525.05	635.65
907.5138	1716.4841	1520.25	637.25
907.655	1718.1987	1517.55	629.25
907.7962	1719.9126	1502.05	619.65
907.9374	1721.6257	1498.3	615
908.0786	1723.338	1496.5	612.6
908.2198	1725.0496	1496.35	612.4
908.3609	1726.7605	1493.45	609.25
908.502	1728.4706	1490.55	607.25
908.6431	1730.18	1482.2	599.05
908.7842	1731.8886	1480.15	599.05
908.9253	1733.5964	1498.25	594.25
909.0664	1735.3036	1480.85	596.6
909.2074	1737.0099	1481.05	598.95
909.3484	1738.7156	1475.55	592.75
909.4894	1740.4204	1473.4	589.6
909.6304	1742.1246	1469.2	585.35
909.7714	1743.8279	1471.25	590.35
909.9123	1745.5306	1464.35	579.3
910.0532	1747.2325	1467.6	585.85
910.1941	1748.9336	1461.95	579.95
910.335	1750.634	1460.55	576.6
910.4759	1752.3336	1451.25	569.35
910.6168	1754.0325	1452.8	571.3
910.7576	1755.7307	1449.55	567.7
910.8984	1757.4281	1454.6	571.4
911.0392	1759.1247	1457.5	566.3
911.18	1760.8206	1450.9	562.15
911.3208	1762.5158	1451.7	563.65
911.4615	1764.2102	1446.45	566.7
911.6022	1765.9039	1437.7	556.3
911.7429	1767.5968	1442.85	559.45
911.8836	1769.289	1443.25	560.25
912.0243	1770.9804	1438.65	553.35
912.1649	1772.6711	1440.35	558.05
912.3056	1774.361	1436.9	552.2
912.4462	1776.0502	1433.75	550.9
912.5868	1777.7386	1439.6	556.8
912.7274	1779.4263	1432.65	548.75
912.8679	1781.1132	1432.45	547.85
913.0084	1782.7994	1428.7	542.95
913.149	1784.4849	1424.4	542.65
913.2895	1786.1696	1442.6	539.45
913.4299	1787.8535	1423.9	540.75
913.5704	1789.5367	1425.05	539.75
913.7108	1791.2192	1416.75	537.95
913.8513	1792.9009	1432.45	535
913.9917	1794.5818	1419.4	536.55
914.132	1796.2621	1413.15	531.4
914.2724	1797.9415	1413	529.3
914.4128	1799.6202	1408	526.5
914.5531	1801.2982	1414.5	530.5
914.6934	1802.9755	1405.85	520.85
914.8337	1804.6519	1402.8	519.75
914.9739	1806.3277	1394.45	512.75
915.1142	1808.0027	1400.35	519.15
915.2544	1809.6769	1393.85	510.65
915.3946	1811.3504	1396.5	513.45
915.5348	1813.0231	1400.85	518
915.675	1814.6951	1396	511.65
915.8151	1816.3664	1393.7	510.4
915.9553	1818.0369	1391.75	509.8
916.0954	1819.7067	1393.7	513.15
916.2355	1821.3757	1401.05	515.05
916.3755	1823.044	1400.75	516.7
916.5156	1824.7115	1384.4	502.55
916.6556	1826.3783	1384.1	501.25
916.7956	1828.0443	1388.3	507.85
916.9356	1829.7096	1378.85	494.9
917.0756	1831.3741	1389.7	503.2
917.2155	1833.0379	1383.1	501.05
917.3555	1834.701	1387.55	503.2
917.4954	1836.3633	1390.75	506.5
917.6353	1838.0248	1380.15	497.2
917.7751	1839.6856	1374.75	492.3
917.915	1841.3457	1375.3	494
918.0548	1843.005	1378.1	494.4
918.1946	1844.6636	1379.3	499.2
918.3344	1846.3214	1375.4	492.75
918.4742	1847.9785	1374.5	493.15
918.6139	1849.6349	1377.3	493.05
918.7537	1851.2904	1377.3	484.85
918.8934	1852.9453	1367.45	482.6
919.0331	1854.5994	1376.05	492.35
919.1727	1856.2528	1374.3	485.25
919.3124	1857.9054	1368.35	485.5
919.452	1859.5572	1363.45	480.7
919.5916	1861.2083	1364.85	480.6
919.7312	1862.8587	1361.15	480.3
919.8708	1864.5084	1359.4	474.3
920.0103	1866.1572	1356.5	474.3
920.1498	1867.8054	1349.75	465.3
920.2893	1869.4528	1358.75	475
920.4288	1871.0994	1361.2	477.05
920.5683	1872.7453	1352.2	467.45
920.7077	1874.3905	1355.75	468.3
920.8471	1876.0349	1351.25	469.35
920.9865	1877.6786	1352.55	466.6
921.1259	1879.3215	1354	471.75
921.2653	1880.9637	1352.1	467.45
921.4046	1882.6051	1344.4	463.2
921.5439	1884.2458	1350.2	465.05
921.6832	1885.8858	1342.65	459.15
921.8225	1887.525	1342.2	460.05
921.9617	1889.1634	1340.25	457.55
922.101	1890.8011	1341.1	455.85
922.2402	1892.4381	1340.4	457.05
922.3794	1894.0743	1337.6	455.8
922.5185	1895.7098	1336.1	454.2
922.6577	1897.3446	1339.25	457
922.7968	1898.9786	1338.3	449.4
922.9359	1900.6118	1331.7	449.5
923.075	1902.2443	1332.9	447.8
923.214	1903.8761	1326.55	445.75
923.3531	1905.5071	1323.55	438.35
923.4921	1907.1374	1326.65	441.65
923.6311	1908.7669	1320.65	437.9
923.77	1910.3957	1328.15	446.15
923.909	1912.0237	1316.75	434.55
924.0479	1913.651	1322.55	439.6
924.1868	1915.2776	1317.45	434.7
924.3257	1916.9034	1315.9	433.6
924.4646	1918.5285	1315.4	433.5
924.6034	1920.1528	1306.8	424.85
924.7422	1921.7764	1312.9	429.6
924.881	1923.3992	1317.55	434.95
925.0198	1925.0213	1311.65	430.05
925.1586	1926.6427	1310.6	427.7
925.2973	1928.2633	1512.8	418.6
925.436	1929.8832	1311	424.9
925.5747	1931.5023	1304.95	422.7
925.7134	1933.1207	1302.45	419.5
925.852	1934.7383	1304.95	422.6
925.9906	1936.3552	1296.5	415.4
926.1292	1937.9714	1298.15	415.15
926.2678	1939.5868	1301.4	416.35
926.4064	1941.2015	1298.95	417.7
926.5449	1942.8154	1284.7	402.15
926.6834	1944.4286	1294.3	411.55
926.8219	1946.041	1316.95	411.05
926.9604	1947.6528	1296.4	406.95
927.0988	1949.2637	1292.2	410.95
927.2372	1950.8739	1285.15	402.15
927.3756	1952.4834	1283.05	399.7
927.514	1954.0921	1285.15	402.55
927.6523	1955.7001	1284.15	399.9
927.7907	1957.3074	1280.35	398.55
927.929	1958.9139	1284.15	402.35
928.0673	1960.5197	1280.85	396.6
928.2055	1962.1247	1276.5	395.3
928.3438	1963.729	1275	394.2
928.482	1965.3325	1295.3	387.25
928.6202	1966.9353	1270.95	390.65
928.7584	1968.5374	1269.55	387.4
928.8965	1970.1387	1267.9	386.55
929.0346	1971.7393	1274	392.1
929.1727	1973.3392	1267	387
929.3108	1974.9383	1259.4	378.55
929.4489	1976.5366	1269.1	387.45
929.5869	1978.1342	1262.5	380.35
929.7249	1979.7311	1260.05	378
929.8629	1981.3273	1262.5	379.5
930.0009	1982.9227	1265.35	382.8
930.1388	1984.5173	1258.95	378.25
930.2767	1986.1112	1253.45	371.55
930.4146	1987.7044	1251.05	366.45
930.5525	1989.2968	1256.15	374.65
930.6904	1990.8885	1259.8	375.9
930.8282	1992.4795	1262.55	382.2
930.966	1994.0697	1252.4	372.3
931.1038	1995.6592	1254.65	372.95
931.2415	1997.2479	1252.3	368.9
931.3793	1998.8359	1256.15	376.8
931.517	2000.4232	1251.65	370.15
931.6547	2002.0097	1242.5	365.2
931.7923	2003.5955	1244.8	363.6
931.93	2005.1805	1246.15	363.95
932.0676	2006.7648	1245.1	366.5
932.2052	2008.3484	1242.5	359.05
932.3427	2009.9312	1248.3	366.9
932.4803	2011.5133	1237.95	360.05
932.6178	2013.0946	1242.5	363.35
932.7553	2014.6752	1235.35	356.85
932.8928	2016.2551	1235.55	353.3
933.0302	2017.8342	1237.7	357.55
933.1676	2019.4126	1239.05	358.8
933.305	2020.9902	1234.85	354.65
933.4424	2022.5672	1236.9	355.5
933.5798	2024.1433	1233.1	347.5
933.7171	2025.7188	1235.5	355.75
933.8544	2027.2935	1234.4	354.2
933.9917	2028.8674	1234.1	354.45
934.129	2030.4406	1228.75	350.6
934.2662	2032.0131	1230.2	351.6
934.4034	2033.5849	1231.3	347.3
934.5406	2035.1559	1231.9	352.3
934.6778	2036.7261	1232.05	352.15
934.8149	2038.2957	1227.55	345.4
934.952	2039.8645	1228.4	347.45
935.0891	2041.4325	1229.85	345.9
935.2262	2042.9998	1226.2	345.8
935.3632	2044.5664	1228	345
935.5002	2046.1323	1217.05	337.75
935.6372	2047.6974	1224.8	343.35
935.7742	2049.2617	1222.1	345.05
935.9111	2050.8254	1254.7	341.2
936.048	2052.3883	1227.35	346.05
936.1849	2053.9504	1221.4	341.05
936.3218	2055.5118	1223.05	341.75
936.4586	2057.0725	1219.5	335.5
936.5955	2058.6325	1221.25	339.85
936.7323	2060.1917	1218.9	339.3
936.869	2061.7502	1224.85	342.15
937.0058	2063.3079	1213.45	333.8
937.1425	2064.8649	1223	338.65
937.2792	2066.4212	1217.6	336.55
937.4159	2067.9767	1219.4	340.15
937.5525	2069.5315	1212.35	331.45
937.6891	2071.0856	1214.45	335.75
937.8257	2072.6389	1214.55	334.75
937.9623	2074.1915	1207.65	330.55
938.0989	2075.7433	1211.3	327.1
938.2354	2077.2945	1207.9	330.05
938.3719	2078.8448	1204.25	322.4
938.5084	2080.3945	1211.7	329.35
938.6448	2081.9434	1206.75	326.75
938.7812	2083.4916	1204.3	321.75
938.9176	2085.039	1206.3	324
939.054	2086.5857	1207.25	323.6
939.1903	2088.1317	1205.5	323.5
939.3267	2089.677	1206.65	322.45
939.463	2091.2215	1198.45	317.5
939.5992	2092.7652	1201.55	317.95
939.7355	2094.3083	1197.15	315.05
939.8717	2095.8506	1203.7	323.55
940.0079	2097.3921	1202.65	324.15
940.1441	2098.933	1195.75	315.2
940.2802	2100.4731	1198.45	317.15
940.4163	2102.0124	1218.2	319.6
940.5524	2103.5511	1193.8	312.45
940.6885	2105.089	1196.8	316
940.8245	2106.6261	1192.9	312.7
940.9606	2108.1626	1197.5	313
941.0965	2109.6983	1227.3	318.1
941.2325	2111.2332	1196.75	316.85
941.3684	2112.7675	1200.3	316.5
941.5044	2114.301	1196.75	314.15
941.6403	2115.8337	1197	317.2
941.7761	2117.3657	1193.1	311.6
941.912	2118.897	1195.45	313.75
942.0478	2120.4276	1197.95	311.55
942.1835	2121.9575	1188.3	307.2
942.3193	2123.4866	1212.5	317.55
942.455	2125.0149	1190.85	306.7
942.5907	2126.5426	1186.6	306.25
942.7264	2128.0695	1194	309.35
942.8621	2129.5956	1186.8	308.65
942.9977	2131.1211	1192.4	308.4
943.1333	2132.6458	1181.5	301.5
943.2689	2134.1698	1187.35	305.15
943.4044	2135.693	1183.55	298.45
943.54	2137.2155	1187.85	305.05
943.6755	2138.7373	1189.65	308.45
943.8109	2140.2584	1181.3	301.2
943.9464	2141.7787	1186.55	299.6
944.0818	2143.2983	1179.85	301.75
944.2172	2144.8171	1180	301.75
944.3526	2146.3353	1176.2	293.65
944.4879	2147.8527	1175.9	297.2
944.6232	2149.3693	1174.4	292.35
944.7585	2150.8853	1179	297.5
944.8938	2152.4005	1179.6	298.75
945.029	2153.9149	1178.1	296.35
945.1642	2155.4287	1175.15	295.25
945.2994	2156.9417	1178.7	296.3
945.4346	2158.454	1178.25	295.15
945.5697	2159.9655	1175.05	293.7
945.7048	2161.4764	1174.5	295
945.8399	2162.9865	1179.25	299.75
945.9749	2164.4958	1170.45	287.95
946.1099	2166.0045	1179.65	298.4
946.2449	2167.5124	1175.15	295.15
946.3799	2169.0195	1168.9	288.85
946.5148	2170.526	1170.2	290.4
946.6498	2172.0317	1170.1	288.3
946.7846	2173.5367	1169.45	287.45
946.9195	2175.0409	1166.65	283.65
947.0543	2176.5445	1168.5	289.9
947.1891	2178.0473	1170.4	289.95
947.3239	2179.5494	1166.95	281.65
947.4587	2181.0507	1161.2	282.1
947.5934	2182.5513	1169.85	288.55
947.7281	2184.0512	1163.3	281.7
947.8628	2185.5504	1162.65	283.25
947.9974	2187.0488	1160.55	281.85
948.132	2188.5465	1164.45	284.25
948.2666	2190.0435	1158.7	278.6
948.4012	2191.5397	1165.75	282.95
948.5357	2193.0353	1160.8	280.4
948.6702	2194.5301	1159.4	277.3
948.8047	2196.0241	1156.25	274.2
948.9392	2197.5175	1159.9	278.25
949.0736	2199.0101	1163.2	278.5
949.208	2200.502	1159.9	279.95
949.3424	2201.9931	1155.5	273.75
949.4767	2203.4835	1157.05	274.1
949.611	2204.9733	1169.65	273.3
949.7453	2206.4622	1160.15	279.95
949.8796	2207.9505	1149.15	267.4
950.0138	2209.438	1150.65	271.85
950.148	2210.9248	1152.15	269.4
950.2822	2212.4109	1146.2	267.45
950.4164	2213.8962	1155.7	271.1
950.5505	2215.3809	1149.05	266.85
950.6846	2216.8648	1147.8	264.8
950.8186	2218.3479	1149.45	264.55
950.9527	2219.8304	1150.15	267.25
951.0867	2221.3121	1147.05	265.75
951.2207	2222.7931	1146.75	266.2
951.3546	2224.2733	1146.8	265.35
951.4886	2225.7529	1142.55	258.55
951.6225	2227.2317	1141	256.95
951.7563	2228.7098	1141.3	261.65
951.8902	2230.1872	1137.85	256.8
952.024	2231.6638	1138.6	259.6
952.1578	2233.1397	1151.7	263.75
952.2916	2234.6149	1134.85	256.05
952.4253	2236.0894	1137.95	254.85
952.559	2237.5632	1146.1	255.65
952.6927	2239.0362	1139.45	259.9
952.8263	2240.5085	1136.8	255.9
952.9599	2241.9801	1138.85	256.25
953.0935	2243.4509	1130.75	251.3
953.2271	2244.921	1137.05	255.2
953.3606	2246.3904	1136.6	253.6
953.4941	2247.8591	1132.75	251.65
953.6276	2249.3271	1129.75	249.55
953.7611	2250.7943	1128.3	246.2
953.8945	2252.2608	1127.65	246.2
954.0279	2253.7266	1126.65	246.8
954.1612	2255.1917	1127.8	246.9
954.2946	2256.656	1123.15	243.45
954.4279	2258.1197	1119.95	239.05
954.5612	2259.5826	1132.35	250.7
954.6944	2261.0447	1127.25	245.15
954.8276	2262.5062	1123.5	238.55
954.9608	2263.9669	1128.05	247.6
955.094	2265.4269	1121.6	241.4
955.2271	2266.8862	1120.2	241.55
955.3602	2268.3448	1119.45	238.9
955.4933	2269.8026	1121.85	241.15
955.6264	2271.2598	1119.75	238.35
955.7594	2272.7162	1118.55	238.6
955.8924	2274.1719	1120.15	240.35
956.0253	2275.6268	1120.4	241.2
956.1583	2277.0811	1117.7	238.55
956.2912	2278.5346	1115.5	236.85
956.4241	2279.9874	1120.8	242.25
956.5569	2281.4395	1120.55	242.3
956.6897	2282.8908	1123.8	239.35
956.8225	2284.3414	1121.75	240
956.9553	2285.7914	1118.25	238.05
957.088	2287.2406	1118.2	235.7
957.2207	2288.689	1117.95	237.3
957.3534	2290.1368	1116.75	235.35
957.486	2291.5838	1115.3	230.5
957.6186	2293.0302	1118.85	237.5
957.7512	2294.4758	1118.65	237.85
957.8838	2295.9206	1116.45	231.85
958.0163	2297.3648	1115.05	235.7
958.1488	2298.8082	1116.9	234.15
958.2813	2300.251	1112.9	229.85
958.4137	2301.693	1112.3	228.2
958.5461	2303.1343	1116.7	234.15
958.6785	2304.5748	1111.7	231.3
958.8108	2306.0147	1111.1	228.2
958.9432	2307.4538	1109.25	227.15
959.0754	2308.8922	1108.25	228.45
959.2077	2310.3299	1106.65	225.15
959.3399	2311.7669	1106.6	226.85
959.4721	2313.2031	1112.05	230.1
959.6043	2314.6387	1108.3	228
959.7365	2316.0735	1104.55	226.3
959.8686	2317.5076	1111.85	229.85
960.0006	2318.941	1105.15	224.5
960.1327	2320.3737	1103.55	220.4
960.2647	2321.8056	1108.95	226.4
960.3967	2323.2369	1103.7	222.8
960.5287	2324.6674	1104.55	221.25
960.6606	2326.0972	1105.75	223.05
960.7925	2327.5263	1112.95	231.75
960.9244	2328.9547	1112.55	231.35
961.0562	2330.3823	1107.2	224.5
961.1881	2331.8092	1108.45	222.5
961.3198	2333.2355	1100.4	218.7
961.4516	2334.661	1101.95	221.85
961.5833	2336.0858	1100.95	216.5
961.715	2337.5098	1094.85	215.9
961.8467	2338.9332	1101.55	220.1
961.9783	2340.3558	1100.5	215
962.1099	2341.7778	1091.3	209.2
962.2415	2343.199	1099.45	215.75
962.373	2344.6195	1097.95	217.4
962.5045	2346.0393	1093.8	214.45
962.636	2347.4583	1096.05	214.25
962.7675	2348.8767	1093.45	210.85
962.8989	2350.2943	1099.3	215.8
963.0303	2351.7113	1096.75	214.75
963.1617	2353.1275	1094.8	213.1
963.293	2354.543	1102.8	213.2
963.4243	2355.9578	1093.25	212.25
963.5556	2357.3718	1091.8	210.15
963.6868	2358.7852	1093	208.4
963.818	2360.1978	1092.25	209.45
963.9492	2361.6098	1087.35	206.25
964.0803	2363.021	1096.6	209.45
964.2114	2364.4315	1088.6	206.85
964.3425	2365.8413	1094.45	210.9
964.4736	2367.2504	1085.65	204.1
964.6046	2368.6587	1091.25	208.05
964.7356	2370.0664	1083.35	202.95
964.8666	2371.4733	1092	212.15
964.9975	2372.8795	1084.2	204.1
965.1284	2374.285	1091.35	209.8
965.2593	2375.6899	1089.95	209.7
965.3901	2377.0939	1088.25	208.3
965.5209	2378.4973	1088.9	208.3
965.6517	2379.9	1085.85	204.35
965.7825	2381.3019	1086.5	206.7
965.9132	2382.7032	1082.2	200.15
966.0439	2384.1037	1079.15	202
966.1745	2385.5035	1081.25	199.65
966.3051	2386.9027	1078.55	198.65
966.4357	2388.3011	1084.85	201.3
966.5663	2389.6987	1082.3	200.1
966.6968	2391.0957	1075.6	195
966.8273	2392.492	1077.75	198.4
966.9578	2393.8876	1078	196.75
967.0882	2395.2824	1075	194.15
967.2186	2396.6765	1081.25	202.35
967.349	2398.07	1077.5	197.6
967.4793	2399.4627	1076.9	192.4
967.6097	2400.8547	1073.95	192.3
967.7399	2402.246	1084.45	196.2
967.8702	2403.6366	1080.5	199.65
968.0004	2405.0265	1076	193.8
968.1306	2406.4156	1080.6	193.55
968.2607	2407.8041	1080.55	196.2
968.3909	2409.1918	1076.2	192.65
968.521	2410.5789	1072.35	189.05
968.651	2411.9652	1074.7	190.1
968.781	2413.3508	1071.9	190.1
968.911	2414.7358	1069.8	187.05
969.041	2416.12	1071.3	190.95
969.1709	2417.5035	1072.25	190.9
969.3008	2418.8863	1073.4	192.55
969.4307	2420.2684	1072.65	190.4
969.5606	2421.6497	1065.55	183.55
969.6904	2423.0304	1067.7	188.65
969.8201	2424.4104	1070.2	187.2
969.9499	2425.7896	1067.7	184.55
970.0796	2427.1682	1067.9	185.5
970.2093	2428.546	1067	183.3
970.3389	2429.9232	1067	185.75
970.4685	2431.2996	1065.3	183.4
970.5981	2432.6753	1065.3	182.05
970.7277	2434.0503	1065.4	182.3
970.8572	2435.4246	1062.25	182.15
970.9867	2436.7982	1069.35	185.75
971.1161	2438.1711	1062.4	182.75
971.2456	2439.5433	1064.6	179.6
971.375	2440.9148	1057.95	174.4
971.5043	2442.2856	1056.4	175.15
971.6336	2443.6557	1057.3	173
971.7629	2445.025	1059.25	176.65
971.8922	2446.3937	1059.9	178.2
972.0214	2447.7617	1056.4	172.85
972.1506	2449.1289	1056.5	174.85
972.2798	2450.4955	1064.05	176.8
972.4089	2451.8613	1061.5	179.5
972.538	2453.2265	1054.7	172.9
972.6671	2454.5909	1056.75	174.9
972.7961	2455.9546	1056.2	173.1
972.9251	2457.3177	1053.9	173.15
973.0541	2458.68	1058.2	175.15
973.1831	2460.0416	1056.7	175.85
973.312	2461.4025	1057.7	174.4
973.4408	2462.7627	1063.9	171.25
973.5697	2464.1222	1054.85	174.95
973.6985	2465.4811	1054.85	171.5
973.8273	2466.8392	1049.45	165.85
973.956	2468.1966	1056	173.45
974.0847	2469.5533	1054.05	170.2
974.2134	2470.9093	1052.65	171.6
974.3421	2472.2645	1058.45	174.6
974.4707	2473.6191	1055.7	176.05
974.5993	2474.973	1054.25	171.85
974.7278	2476.3262	1058.25	174.9
974.8563	2477.6787	1049.7	168.95
974.9848	2479.0305	1049.65	166.65
975.1132	2480.3816	1054.2	170.7
975.2417	2481.7319	1052.5	171.2
975.37	2483.0816	1054.2	170.9
975.4984	2484.4306	1053.85	170.3
975.6267	2485.7789	1051	172.8
975.755	2487.1264	1051.65	168.35
975.8833	2488.4733	1051.35	171.9
976.0115	2489.8195	1054.9	165
976.1397	2491.165	1057.45	172.35
976.2678	2492.5097	1050.85	167.8
976.3959	2493.8538	1052.55	173.15
976.524	2495.1972	1049.95	167.95
976.6521	2496.5398	1049.1	167.2
976.7801	2497.8818	1051.6	167.35
976.9081	2499.2231	1043	160.9
977.036	2500.5637	1051.15	165.85
977.164	2501.9035	1049.4	167.1
977.2918	2503.2427	1047.75	161.85
977.4197	2504.5812	1043.5	164.45
977.5475	2505.919	1048.15	165.4
977.6753	2507.256	1044.65	162.45
977.8031	2508.5924	1044.7	162.95
977.9308	2509.9281	1048.8	163.1
978.0585	2511.2631	1046.4	165.1
978.1861	2512.5974	1042.9	161.4
978.3137	2513.9309	1042.95	161.65
978.4413	2515.2638	1076.25	164.25
978.5689	2516.596	1038.75	157.2
978.6964	2517.9275	1048	165.5
978.8239	2519.2583	1044.5	162.55
978.9513	2520.5884	1040.4	156.85
979.0788	2521.9178	1043.4	162
979.2062	2523.2465	1037.25	157.05
979.3335	2524.5745	1034.65	153.75
979.4608	2525.9018	1037.45	156.55
979.5881	2527.2284	1042.7	162.45
979.7154	2528.5543	1039	158.25
979.8426	2529.8796	1039.7	159.1
979.9698	2531.2041	1039.5	156.3
980.0969	2532.5279	1034.15	155.1
980.224	2533.851	1033.05	151.5
980.3511	2535.1735	1038.5	159.8
980.4781	2536.4952	1033.9	150.45
980.6052	2537.8163	1037.55	155.05
980.7321	2539.1366	1034.3	154.35
980.8591	2540.4562	1037.85	155.6
980.986	2541.7752	1038.1	157.7
981.1129	2543.0935	1036.25	153.9
981.2397	2544.411	1035.4	152.3
981.3665	2545.7279	1034.05	153.25
981.4933	2547.0441	1034.35	153.45
981.62	2548.3596	1036.5	152.1
981.7467	2549.6744	1032.45	151.15
981.8734	2550.9885	1039.7	147.2
982.0001	2552.3019	1032.35	151.05
982.1267	2553.6146	1031.55	150.55
982.2532	2554.9266	1030.85	148.45
982.3798	2556.2379	1034.05	150.8
982.5063	2557.5485	1033.05	152.25
982.6327	2558.8585	1040.8	152.4
982.7592	2560.1677	1036.2	150.7
982.8856	2561.4762	1033.1	149.9
983.0119	2562.7841	1036.5	154.05
983.1383	2564.0913	1032.15	152.05
983.2646	2565.3977	1030.05	149.85
983.3908	2566.7035	1028.45	147.85
983.517	2568.0086	1029.7	147.5
983.6432	2569.313	1032.1	150.2
983.7694	2570.6167	1033	146.1
983.8955	2571.9197	1028.45	147.35
984.0216	2573.222	1034.7	148
984.1476	2574.5236	1032.55	150.5
984.2737	2575.8246	1029.2	143.85
984.3996	2577.1248	1033.1	148.65
984.5256	2578.4244	1023.9	143.05
984.6515	2579.7232	1031.85	150.7
984.7774	2581.0214	1055.05	148.75
984.9032	2582.3189	1027.9	147.5
985.029	2583.6157	1034.7	148.5
985.1548	2584.9118	1034.35	154.05
985.2806	2586.2072	1030.7	149.45
985.4063	2587.5019	1031.05	148.65
985.5319	2588.7959	1027.95	147.8
985.6576	2590.0893	1025.5	140.2
985.7832	2591.3819	1029.7	150.1
985.9087	2592.6739	1029.75	147.35
986.0343	2593.9652	1027.25	145.65
986.1597	2595.2557	1030.55	148.3
986.2852	2596.5456	1034.45	153.3
986.4106	2597.8348	1030.3	149.35
986.536	2599.1234	1029.2	146.65
986.6614	2600.4112	1032.85	151.8
986.7867	2601.6983	1035	149.85
986.912	2602.9848	1034.3	152.65
987.0372	2604.2705	1041.9	153.5
987.1624	2605.5556	1035.45	154.75
987.2876	2606.84	1029.9	146.75
987.4128	2608.1237	1034.45	151.3
987.5379	2609.4067	1028.65	147.05
987.6629	2610.689	1039.6	149.2
987.788	2611.9707	1033.4	149.4
987.913	2613.2516	1032.15	147.05
988.0379	2614.5319	1030.55	151.65
988.1629	2615.8115	1025.7	143.2
988.2878	2617.0903	1025.6	142.95
988.4126	2618.3685	1027.15	145.2
988.5375	2619.6461	1022.95	139.95
988.6622	2620.9229	1024.65	145
988.787	2622.199	1026.3	142.25
988.9117	2623.4745	1026	145.3
989.0364	2624.7493	1023.5	141.65
989.161	2626.0234	1024	143.35
989.2857	2627.2968	1023.15	141.6
989.4102	2628.5695	1025.35	142.2
989.5348	2629.8415	1016.45	136
989.6593	2631.1128	1025.55	142.2
989.7837	2632.3835	1021.15	140.55
989.9082	2633.6535	1020.3	140.2
990.0326	2634.9228	1018.1	136.5
990.1569	2636.1914	1016.55	136.4
990.2812	2637.4593	1020.4	136.3
990.4055	2638.7265	1024.35	143.4
990.5298	2639.9931	1021.05	141.15
990.654	2641.259	1020.7	138.15
990.7782	2642.5242	1012.95	132.05
990.9023	2643.7887	1018.05	137.05
991.0264	2645.0525	1016.4	135.15
991.1505	2646.3156	1021.85	141
991.2745	2647.5781	1015.25	132.8
991.3985	2648.8398	1015.1	135.4
991.5225	2650.1009	1052.7	134.6
991.6464	2651.3613	1012.75	132.2
991.7703	2652.6211	1013.25	132.55
991.8942	2653.8801	1015.7	133.85
992.018	2655.1385	1013.95	131.05
992.1418	2656.3961	1011.05	131.5
992.2655	2657.6531	1009.25	128.4
992.3892	2658.9094	1010.5	128.9
992.5129	2660.1651	1010.8	129.3
992.6366	2661.42	1012.55	129.9
992.7602	2662.6743	1013.5	131.2
992.8837	2663.9279	1015.6	134.65
993.0073	2665.1808	1020.5	139.4
993.1307	2666.433	1016.45	134.8
993.2542	2667.6846	1012.05	133.2
993.3776	2668.9354	1020.5	137.2
993.501	2670.1856	1020.1	138.3
993.6244	2671.4351	1013.25	132.2
993.7477	2672.6839	1021.65	140.05
993.8709	2673.9321	1017.1	136.3
993.9942	2675.1795	1015.55	135.2
994.1174	2676.4263	1017.85	136.85
994.2405	2677.6724	1018.05	137.35
994.3637	2678.9179	1024.55	142.55
994.4868	2680.1626	1019.6	139.6
994.6098	2681.4067	1020.45	139.85
994.7328	2682.6501	1020.35	138.45
994.8558	2683.8928	1015.85	135.45
994.9788	2685.1348	1016.25	137
995.1017	2686.3761	1011.6	131
995.2245	2687.6168	1013	132.15
995.3474	2688.8568	1013.1	133.15
995.4702	2690.0961	1007.4	127.7
995.5929	2691.3348	1004.8	124.25
995.7156	2692.5727	1005.75	123.7
995.8383	2693.81	1006.2	125.35
995.961	2695.0466	1006.6	126.85
996.0836	2696.2826	1005.8	124.5
996.2062	2697.5178	1022.4	123.2
996.3287	2698.7524	1007.05	124.85
996.4512	2699.9863	1013.5	131.2
996.5737	2701.2195	1008.35	128.05
996.6961	2702.452	1010.15	127.75
996.8185	2703.6839	1013.45	130.45
996.9408	2704.9151	1013	131.9
997.0631	2706.1456	1011.5	128.95
997.1854	2707.3755	1014.8	134.2
997.3077	2708.6046	1020.35	136.65
997.4299	2709.8331	1014.5	134.05
997.552	2711.0609	1015.85	133.6
997.6742	2712.2881	1018.85	137.5
997.7963	2713.5145	1025.6	143.8
997.9183	2714.7403	1021.5	140.65
998.0403	2715.9654	1020.45	139.6
998.1623	2717.1899	1037	140.15
998.2842	2718.4136	1030.85	151.65
998.4062	2719.6367	1031.9	150.25
998.528	2720.8591	1044.1	157.6
998.6498	2722.0809	1037.65	155.6
998.7716	2723.3019	1043.15	158.4
998.8934	2724.5223	1043.9	164.05
999.0151	2725.7421	1041.55	161.05
999.1368	2726.9611	1037.95	153.85
999.2584	2728.1795	1038.8	153
999.38	2729.3972	1032.05	150.6
999.5016	2730.6142	1036	146.95
999.6231	2731.8306	1026.65	144.75
999.7446	2733.0462	1023.35	142.8
999.8661	2734.2612	1023.2	136.45
999.9875	2735.4756	1018.15	134.05
1000.1089	2736.6892	1014.7	133.15
1000.2302	2737.9022	1014.2	135.05
1000.3515	2739.1145	1012.4	130.7
1000.4728	2740.3262	1020.55	133.6
1000.594	2741.5372	1008.35	128.35
1000.7152	2742.7475	1003.35	120.4
1000.8363	2743.9571	1004	122.15
1000.9575	2745.1661	1009.45	123.1
1001.0785	2746.3744	999.9	118.75
1001.1996	2747.582	998.95	118.15
1001.3206	2748.7889	1001.1	117.8
1001.4415	2749.9952	991.75	111.55
1001.5625	2751.2008	995.15	113.1
1001.6833	2752.4057	992.9	109.6
1001.8042	2753.61	991.7	109.45
1001.925	2754.8136	993.7	109.7
1002.0458	2756.0165	991.95	110.55
1002.1665	2757.2188	987.85	107.25
1002.2872	2758.4204	992.15	112.4
1002.4078	2759.6213	990.85	108.85
1002.5285	2760.8215	998.05	112.5
1002.649	2762.0211	995.6	114.25
1002.7696	2763.22	991.05	107
1002.8901	2764.4182	995.15	113.6
1003.0106	2765.6158	988.9	108.9
1003.131	2766.8127	984.7	102.85
1003.2514	2768.009	987.9	106.7
1003.3717	2769.2045	988.3	107.3
1003.492	2770.3994	989.25	106.15
1003.6123	2771.5936	981.15	99.8
1003.7325	2772.7872	984.7	105.45
1003.8527	2773.9801	985.6	105
1003.9729	2775.1723	997.55	98.1
1004.093	2776.3639	980.4	99.25
1004.2131	2777.5548	985.55	103.55
1004.3331	2778.745	981.6	98.85
1004.4531	2779.9346	983	104.8
1004.5731	2781.1235	982.8	98.55
1004.693	2782.3117	981.75	103.3
1004.8129	2783.4992	983.55	103.05
1004.9328	2784.6861	981.65	100.65
1005.0526	2785.8723	987.15	108
1005.1723	2787.0579	984.8	103.15
1005.2921	2788.2428	983.35	102.55
1005.4118	2789.427	979.1	97.05
1005.5314	2790.6106	984.05	104.05
1005.651	2791.7935	984.15	101.1
1005.7706	2792.9757	984.95	104.25
1005.8902	2794.1573	986.75	103.05
1006.0097	2795.3382	986.9	105.4
1006.1291	2796.5184	983.1	102.45
1006.2485	2797.698	990.2	109.15
1006.3679	2798.8769	987.85	108.65
1006.4873	2800.0551	992.7	110.4
1006.6066	2801.2327	992.35	109.9
1006.7258	2802.4096	987.3	108.4
1006.8451	2803.5859	993.2	112.7
1006.9642	2804.7615	992.35	110.15
1007.0834	2805.9364	993.1	113
1007.2025	2807.1106	997.9	118.05
1007.3216	2808.2842	996.85	116.9
1007.4406	2809.4572	1003.8	123.05
1007.5596	2810.6294	1010.6	129.15
1007.6785	2811.801	1009	128.2
1007.7975	2812.972	1013.85	135.25
1007.9163	2814.1423	1016.9	136.55
1008.0352	2815.3119	1021.7	142.2
1008.154	2816.4808	1033.8	154.7
1008.2727	2817.6491	1043.3	161.9
1008.3914	2818.8167	1050.5	170.4
1008.5101	2819.9837	1068.05	183
1008.6288	2821.15	1076.3	197.4
1008.7474	2822.3157	1095.35	215.65
1008.8659	2823.4807	1119.65	238.55
1008.9844	2824.645	1139	258.6
1009.1029	2825.8086	1160.6	280.25
1009.2214	2826.9716	1180.45	299.5
1009.3398	2828.134	1213.8	334.85
1009.4581	2829.2957	1227.2	346.9
1009.5764	2830.4567	1249.1	370.75
1009.6947	2831.617	1254.45	373.3
1009.813	2832.7767	1258.35	378
1009.9312	2833.9358	1265.7	386.05
1010.0493	2835.0941	1269.7	387.15
1010.1675	2836.2519	1256.1	377.55
1010.2855	2837.4089	1240.6	358.6
1010.4036	2838.5653	1234.3	353.35
1010.5216	2839.7211	1217.55	338.15
1010.6396	2840.8761	1218	339.1
1010.7575	2842.0306	1217.1	338.4
1010.8754	2843.1843	1214.4	334.6
1010.9932	2844.3374	1215.15	335.65
1011.111	2845.4899	1223.05	341.8
1011.2288	2846.6417	1223.7	347.05
1011.3465	2847.7928	1230.65	349.95
1011.4642	2848.9433	1238.95	360.45
1011.5818	2850.0931	1242.05	361.25
1011.6995	2851.2422	1240.25	358.45
1011.817	2852.3907	1240.8	358.6
1011.9345	2853.5385	1245.35	362.55
1012.052	2854.6857	1278.1	372
1012.1695	2855.8323	1253.55	376.5
1012.2869	2856.9781	1264.05	385.4
1012.4042	2858.1233	1268.5	388.6
1012.5216	2859.2679	1281.75	400.55
1012.6389	2860.4118	1294.5	415.95
1012.7561	2861.555	1300.45	415.7
1012.8733	2862.6976	1311.1	430.05
1012.9905	2863.8395	1316.4	438.7
1013.1076	2864.9808	1323.05	443.15
1013.2247	2866.1214	1332.05	453.3
1013.3417	2867.2614	1329.3	449.35
1013.4587	2868.4007	1344.1	462.95
1013.5757	2869.5393	1350.8	468.8
1013.6926	2870.6773	1355.3	472.4
1013.8095	2871.8146	1361.85	478.1
1013.9263	2872.9513	1362.65	478.85
1014.0431	2874.0874	1365.5	486.95
1014.1599	2875.2227	1377.45	497.65
1014.2766	2876.3574	1378.3	498.25
1014.3933	2877.4915	1388.8	509.15
1014.51	2878.6249	1396.35	517.45
1014.6266	2879.7577	1407.3	527.7
1014.7431	2880.8898	1425.35	535.85
1014.8596	2882.0212	1415.8	536.15
1014.9761	2883.152	1426.75	545.6
1015.0925	2884.2821	1440.1	563.5
1015.2089	2885.4116	1442.55	564
1015.3253	2886.5405	1444.2	564.6
1015.4416	2887.6686	1460	575.15
1015.5579	2888.7962	1451.45	572.05
1015.6741	2889.923	1453.5	574.6
1015.7903	2891.0493	1454.4	576.45
1015.9065	2892.1748	1441.5	562.35
1016.0226	2893.2997	1443.85	563.05
1016.1387	2894.424	1449.2	570.3
1016.2547	2895.5476	1448.85	569.75
1016.3707	2896.6706	1450.65	573.35
1016.4866	2897.7929	1455.3	574.95
1016.6025	2898.9145	1453.2	574.4
1016.7184	2900.0355	1452.75	574
1016.8342	2901.1559	1451.45	569.3
1016.95	2902.2756	1448.5	565.45
1017.0658	2903.3946	1428.25	547.3
1017.1815	2904.513	1431.65	550.1
1017.2971	2905.6308	1433.25	554.55
1017.4127	2906.7479	1431.75	549.4
1017.5283	2907.8643	1430.55	551.95
1017.6439	2908.9801	1429.2	547.85
1017.7594	2910.0953	1428.4	550.6
1017.8748	2911.2098	1429.05	545.85
1017.9902	2912.3236	1431.9	544.9
1018.1056	2913.4368	1432.3	550.65
1018.2209	2914.5494	1427	546.8
1018.3362	2915.6613	1420.2	535.1
1018.4515	2916.7725	1410.9	526.85
1018.5667	2917.8831	1401.2	521
1018.6819	2918.9931	1395.8	513.45
1018.797	2920.1024	1392.45	510.3
1018.9121	2921.211	1377	495.4
1019.0271	2922.319	1372.05	491.85
1019.1421	2923.4264	1369.35	490.4
1019.2571	2924.5331	1368.05	487.4
1019.372	2925.6391	1373.4	493.65
1019.4869	2926.7445	1365.3	485.5
1019.6017	2927.8493	1370	492.2
1019.7165	2928.9534	1363	480.6
1019.8313	2930.0569	1370.85	488.75
1019.946	2931.1597	1378.9	499.35
1020.0606	2932.2619	1384.1	503.35
1020.1753	2933.3634	1381.8	502.9
1020.2899	2934.4643	1397.45	511.35
1020.4044	2935.5645	1394.65	509.85
1020.5189	2936.6641	1396.55	512.6
1020.6334	2937.763	1392.3	513.3
1020.7478	2938.8613	1401.15	521.25
1020.8622	2939.959	1398.6	512.8
1020.9765	2941.056	1384.65	505.95
1021.0908	2942.1523	1364.7	482.5
1021.2051	2943.248	1347.45	466
1021.3193	2944.3431	1321.9	443.45
1021.4334	2945.4375	1292.65	410.55
1021.5476	2946.5313	1275.1	396.1
1021.6617	2947.6244	1253.95	373.55
1021.7757	2948.7169	1226.35	344.8
1021.8897	2949.8087	1216.4	338.8
1022.0037	2950.8999	1193.35	311.75
1022.1176	2951.9904	1172.15	292.85
1022.2315	2953.0803	1165.7	283.4
1022.3453	2954.1696	1152.55	270.95
1022.4591	2955.2582	1140.3	261.15
1022.5728	2956.3462	1137.2	254.55
1022.6865	2957.4335	1137.2	256.6
1022.8002	2958.5202	1132.05	250.1
1022.9138	2959.6062	1134.4	253.5
1023.0274	2960.6916	1131.15	253.5
1023.141	2961.7764	1132.7	251.35
1023.2545	2962.8605	1135.05	254.05
1023.3679	2963.9439	1129.55	251.75
1023.4813	2965.0267	1126.95	244.25
1023.5947	2966.1089	1148.1	245.9
1023.708	2967.1905	1126.95	248.3
1023.8213	2968.2714	1122.15	243.55
1023.9346	2969.3516	1119.15	240.2
1024.0478	2970.4312	1123.75	236.7
1024.1609	2971.5102	1118.05	239.25
1024.274	2972.5885	1110.55	230.25
1024.3871	2973.6662	1118.7	234.6
1024.5002	2974.7432	1117.55	238.8
1024.6132	2975.8196	1118.85	239.95
1024.7261	2976.8954	1115.1	237.95
1024.839	2977.9705	1121.95	243.65
1024.9519	2979.045	1119.55	241
1025.0647	2980.1188	1113.05	235.2
1025.1775	2981.192	1115.4	237.35
1025.2902	2982.2645	1115.45	235.7
1025.4029	2983.3364	1104.75	224.55
1025.5156	2984.4077	1096.3	217.85
1025.6282	2985.4783	1100.8	216
1025.7407	2986.5483	1086.55	207.35
1025.8532	2987.6177	1078.35	198.7
1025.9657	2988.6864	1073.9	194.05
1026.0782	2989.7545	1069.55	187.95
1026.1906	2990.8219	1061.7	182.95
1026.3029	2991.8887	1057.6	175.1
1026.4152	2992.9548	1052.05	172.8
1026.5275	2994.0204	1038.6	161.85
1026.6397	2995.0852	1031.25	151.35
1026.7519	2996.1495	1027.4	149.05
1026.864	2997.2131	1013.15	135.5
1026.9761	2998.276	1005.1	124.45
1027.0882	2999.3383	999.7	119.5
1027.2002	3000.4	993.9	112.75
1027.3122	3001.4611	990.3	110.05
1027.4241	3002.5215	990.2	109.15
1027.536	3003.5812	981	100.45
1027.6478	3004.6404	978.4	99.85
1027.7596	3005.6989	978.15	97
1027.8714	3006.7567	969.55	90.2
1027.9831	3007.8139	1002.4	92.35
1028.0947	3008.8705	965.05	83.55
1028.2064	3009.9264	967.4	85
1028.3179	3010.9818	962.45	82.55
1028.4295	3012.0364	960	78.65
1028.541	3013.0905	956.55	77.1
1028.6524	3014.1439	957.85	78.15
1028.7638	3015.1966	956.15	78.55
1028.8752	3016.2487	957.45	78.05
1028.9865	3017.3002	960.1	76.85
1029.0978	3018.3511	953.9	77.3
1029.209	3019.4013	954.5	73.55
1029.3202	3020.4509	948.95	72.15
1029.4314	3021.4998	951.5	71
1029.5425	3022.5481	948.9	68.2
1029.6535	3023.5958	953.7	75.6
1029.7645	3024.6428	951.6	70.7
1029.8755	3025.6892	950.05	71.35
1029.9864	3026.735	949.3	69.95
1030.0973	3027.7802	950.45	69.1
1030.2082	3028.8247	949.05	71.3
1030.319	3029.8685	949.75	69.05
1030.4297	3030.9118	947.95	67.75
1030.5404	3031.9544	948.65	68.8
1030.6511	3032.9963	949.3	68.45
1030.7617	3034.0376	950.35	71.7
1030.8723	3035.0783	949.6	65.75
1030.9829	3036.1184	952.75	73.75
1031.0934	3037.1578	948.1	68.7
1031.2038	3038.1966	952.4	72.85
1031.3142	3039.2348	948.1	70.05
1031.4246	3040.2723	958	69.6
1031.5349	3041.3092	947.6	70.8
1031.6452	3042.3455	952.6	73.85
1031.7554	3043.3811	949.8	68.2
1031.8656	3044.4161	952.65	72.15
1031.9758	3045.4505	950.3	72.35
1032.0859	3046.4842	954.35	73.55
1032.1959	3047.5173	949.65	72.7
1032.3059	3048.5498	951.55	71.05
1032.4159	3049.5816	951.95	72.05
1032.5258	3050.6128	953.65	72.7
1032.6357	3051.6434	955.55	76.25
1032.7455	3052.6734	952.85	73.85
1032.8553	3053.7027	953	71.15
1032.9651	3054.7314	950.9	72.4
1033.0748	3055.7594	950.85	71.5
1033.1845	3056.7868	956.3	76.3
1033.2941	3057.8136	956.45	78.3
1033.4037	3058.8398	953.8	76.1
1033.5132	3059.8653	951.1	71.55
1033.6227	3060.8902	955.55	76.6
1033.7321	3061.9145	957.15	78.05
1033.8415	3062.9381	957.65	78.25
1033.9509	3063.9612	972.7	76.65
1034.0602	3064.9835	959.9	82.3
1034.1694	3066.0053	959.95	77.75
1034.2787	3067.0264	958	79.8
1034.3878	3068.0469	961.45	79.2
1034.497	3069.0668	960.25	76.35
1034.6061	3070.086	957.6	80.1
1034.7151	3071.1046	958.7	78.8
1034.8241	3072.1226	957.35	74.9
1034.9331	3073.1399	953.7	76.6
1035.042	3074.1567	952.05	71.85
1035.1508	3075.1727	953.45	72.2
1035.2597	3076.1882	949.5	72.4
1035.3684	3077.203	948.05	69.35
1035.4772	3078.2173	948.9	68.35
1035.5859	3079.2308	951.25	67.9
1035.6945	3080.2438	945.3	64.55
1035.8031	3081.2561	940.35	62.65
1035.9117	3082.2678	940.05	61.8
1036.0202	3083.2789	938.65	58
1036.1286	3084.2893	936.8	59
1036.2371	3085.2991	937.45	58.45
1036.3454	3086.3083	940.4	57.6
1036.4538	3087.3169	935.55	55.45
1036.562	3088.3248	933.85	54.75
1036.6703	3089.3321	933.1	51.65
1036.7785	3090.3388	930.8	53.8
1036.8866	3091.3449	932.7	53.6
1036.9948	3092.3503	931.95	49.45
1037.1028	3093.3551	930.3	52.75
1037.2108	3094.3593	926.75	46.85
1037.3188	3095.3629	929.6	51.65
1037.4267	3096.3658	928.7	47.35
1037.5346	3097.3681	928.45	47.95
1037.6425	3098.3698	928.65	47.7
1037.7503	3099.3708	927.4	48.9
1037.858	3100.3713	925.1	46.25
1037.9657	3101.3711	925.4	45.15
1038.0734	3102.3702	1064.75	44.3
1038.181	3103.3688	926	47.15
1038.2886	3104.3667	922.45	45.15
1038.3961	3105.364	926.05	46.95
1038.5036	3106.3607	924.05	43.2
1038.611	3107.3568	924.15	43.95
1038.7184	3108.3522	921.65	42.55
1038.8257	3109.347	923.3	43.3
1038.933	3110.3412	921.55	37.35
1039.0403	3111.3348	920.4	41.85
1039.1475	3112.3277	920.5	40.9
1039.2547	3113.32	916.35	38.2
1039.3618	3114.3117	917.95	37.4
1039.4689	3115.3028	916.9	39.15
1039.5759	3116.2932	917.4	36.7
1039.6829	3117.2831	922.1	37.7
1039.7898	3118.2723	916.1	38.85
1039.8967	3119.2608	915.55	36.55
1040.0035	3120.2488	914.2	34.6
1040.1103	3121.2361	914.55	34.35
1040.2171	3122.2229	914.05	35.9
1040.3238	3123.209	914.1	34.35
1040.4305	3124.1944	912.8	35.2
1040.5371	3125.1793	913.7	31.45
1040.6437	3126.1635	911.45	33.4
1040.7502	3127.1471	912.3	34.65
1040.8567	3128.1301	910.7	31
1040.9631	3129.1125	909	31.25
1041.0695	3130.0942	910.55	29.35
1041.1759	3131.0753	917.45	28.75
1041.2822	3132.0558	912.3	29.9
1041.3884	3133.0357	910.25	32.2
1041.4946	3134.015	909.95	29.45
1041.6008	3134.9936	912.2	32.6
1041.7069	3135.9716	929.15	30.25
1041.813	3136.949	907.65	28.5
1041.919	3137.9258	923.3	25.95
1042.025	3138.902	913.35	28.7
1042.1309	3139.8775	907.5	29.4
1042.2368	3140.8524	906	27.85
1042.3427	3141.8267	907.65	26.9
1042.4485	3142.8004	908.35	29.2
1042.5542	3143.7735	911.9	26.6
1042.6599	3144.7459	909.15	28.2
1042.7656	3145.7178	907	29.3
1042.8712	3146.689	903.55	26.45
1042.9768	3147.6596	906.05	25.3
1043.0823	3148.6295	907.3	26.75
1043.1878	3149.5989	905.4	27.4
1043.2932	3150.5676	900.5	23.85
1043.3986	3151.5357	903.3	25.6
1043.5039	3152.5032	905.7	27.2
1043.6092	3153.4701	904.4	25.05
1043.7145	3154.4364	905.2	23.05
1043.8197	3155.402	903.55	24.35
1043.9248	3156.367	904.1	22.7
1044.03	3157.3315	940.8	27.85
1044.135	3158.2952	905.55	26.15
1044.24	3159.2584	902.65	25.05
1044.345	3160.221	902.95	22.55
1044.4499	3161.1829	903	21.85
1044.5548	3162.1442	901.5	23.2
1044.6596	3163.105	902.7	24
1044.7644	3164.065	901.75	23.2
1044.8692	3165.0245	904.1	22.55
1044.9739	3165.9834	900.55	22.35
1045.0785	3166.9416	902.95	24.75
1045.1831	3167.8993	900.6	22.8
1045.2877	3168.8563	903.8	23.6
1045.3922	3169.8127	901	23.85
1045.4966	3170.7684	901.5	21.5
1045.6011	3171.7236	901.3	20.7
1045.7054	3172.6782	899.6	21.05
1045.8098	3173.6321	903.7	23.8
1045.914	3174.5854	904	21.8
1046.0183	3175.5381	902.05	21.45
1046.1224	3176.4902	900.4	21.3
1046.2266	3177.4417	900.95	22.85
1046.3307	3178.3926	900.65	21.3
1046.4347	3179.3428	898.5	21.9
1046.5387	3180.2924	898.7	20.85
1046.6427	3181.2415	899.55	18.85
1046.7466	3182.1899	902.3	22.65
1046.8504	3183.1377	898.35	20.95
1046.9542	3184.0848	900.4	17.05
1047.058	3185.0314	899.4	20.25
1047.1617	3185.9773	899.4	18.45
1047.2654	3186.9227	897.05	17.6
1047.369	3187.8674	897.65	18.05
1047.4726	3188.8115	902.8	19.3
1047.5761	3189.755	898.75	19.85
1047.6796	3190.6979	897.35	17
1047.783	3191.6402	895.95	18.95
1047.8864	3192.5818	897.9	17.5
1047.9898	3193.5229	923.7	20.75
1048.0931	3194.4633	896.1	16.95
1048.1963	3195.4031	897.05	16.25
1048.2995	3196.3423	896	14.05
1048.4027	3197.2809	896.3	17.35
1048.5058	3198.2189	897.9	18.15
1048.6089	3199.1563	901.65	16.3
1048.7119	3200.0931	894.35	14.3
1048.8148	3201.0292	894.6	16.15
1048.9178	3201.9648	895.55	15.6
1049.0206	3202.8997	898.8	16.25
1049.1235	3203.834	898.05	19.25
1049.2262	3204.7677	898.4	19.85
1049.329	3205.7008	896.85	16.2
1049.4317	3206.6333	893.25	17.2
1049.5343	3207.5652	898.35	16.65
1049.6369	3208.4964	895.9	17.35
1049.7394	3209.4271	894.4	15.2
1049.8419	3210.3571	894.25	15
1049.9444	3211.2865	896.4	15.8
1050.0468	3212.2154	895.6	15.65
1050.1491	3213.1436	899.05	17.55
1050.2514	3214.0712	902.3	18.05
1050.3537	3214.9982	894.75	16.45
1050.4559	3215.9246	895	14.2
1050.5581	3216.8503	893.8	13.25
1050.6602	3217.7755	894.85	15.55
1050.7623	3218.7001	893.4	13.8
1050.8643	3219.624	895.8	17.6
1050.9663	3220.5473	893.7	16.8
1051.0682	3221.4701	895.5	14.85
1051.1701	3222.3922	896.7	16.85
1051.2719	3223.3137	891.7	13.2
1051.3737	3224.2346	894.5	14.05
1051.4754	3225.1549	893.75	15.6
1051.5771	3226.0746	894	14.85
1051.6788	3226.9937	895.85	16.6
1051.7804	3227.9121	892.75	13.85
1051.8819	3228.83	892.7	13.65
1051.9834	3229.7473	895.75	18.65
1052.0849	3230.6639	893.5	14.6
1052.1863	3231.5799	892.2	12.95
1052.2876	3232.4954	892.75	10.85
1052.3889	3233.4102	892.5	14
1052.4902	3234.3244	892.3	12.6
1052.5914	3235.238	893.7	16.3
1052.6926	3236.151	912.95	11.45
1052.7937	3237.0634	894.2	17.5
1052.8948	3237.9752	892.4	13.4
1052.9958	3238.8864	891.4	12.5
1053.0968	3239.797	892.5	10.75
1053.1977	3240.7069	894.15	15.9
1053.2986	3241.6163	893.45	14.05
1053.3994	3242.5251	892.45	13.55
1053.5002	3243.4332	892.05	14.95
1053.6009	3244.3408	892.95	13.15
1053.7016	3245.2477	894.7	17.2
1053.8022	3246.154	892.7	14.05
1053.9028	3247.0598	894	14.65
1054.0034	3247.9649	894.95	15.3
1054.1039	3248.8694	891.9	13.85
1054.2043	3249.7733	890.95	10.95
1054.3047	3250.6766	891	9.8
1054.4051	3251.5793	894.35	13.2
1054.5054	3252.4814	892.4	14.9
1054.6056	3253.3829	890.25	11.4
1054.7058	3254.2838	891.05	13.35
1054.806	3255.1841	889.3	12
1054.9061	3256.0838	889.9	11.15
1055.0061	3256.9829	889.5	15.8
1055.1062	3257.8814	891.95	9.95
1055.2061	3258.7792	892.8	12.05
1055.306	3259.6765	891	12.5
1055.4059	3260.5731	889.2	8.35
1055.5057	3261.4692	888.9	8.2
1055.6055	3262.3647	892.2	13.85
1055.7052	3263.2595	889.55	9.8
1055.8049	3264.1538	889.05	10.6
1055.9045	3265.0474	889.7	9.7
1056.0041	3265.9404	889	12.25
1056.1036	3266.8329	889.05	12.65
1056.2031	3267.7247	899.7	11.45
1056.3025	3268.616	887.65	11.95
1056.4019	3269.5066	886.9	7.35
1056.5013	3270.3966	889.85	8.75
1056.6005	3271.286	887.9	9.9
