Software Version:	3.9.2.0
Unit SN:	10000200
Spectrometer SN:	6960
Date:	3/8/2024 12:07:43 PM
Data Line Index:	25
Spectral Points:	2048
Integration time (ms):	125
Averages:	20
Delay (ms):	30000
Sequence Number:	1
Processing:	dark subtract
Laser Power (mW):	305
Laser Current (mA):	822
Laser Diode Temp (C):	25
Laser Case Temp (C):	25.7
System Temp (C):	25.7
Spectrometer Temp (C):	23.5
CCD Temp (C):	0.002
Secondary Temp (C):	20.006
Heatsink Temp (C):	20.334
CCDPCB Temp (C):	35.54
SecondaryPCB Temp (C):	28.737

Wavelength	RamanShift	Raw Counts	Dark Subtracted
787.061	30.1047	414.9	7.35
787.2016	32.3739	414.15	7.6
787.3422	34.6426	412.6	5.05
787.4828	36.9109	417.4	7.35
787.6235	39.1787	422.8	6.75
787.7642	41.4461	427	8.55
787.9049	43.7131	429.25	7.65
788.0456	45.9796	434.1	10.55
788.1863	48.2456	438.3	11.75
788.3271	50.5112	441.65	8.85
788.4679	52.7764	445.4	10.05
788.6087	55.0411	453.3	14.8
788.7496	57.3054	456.2	10.2
788.8904	59.5692	460.55	13
789.0313	61.8326	465.9	17
789.1722	64.0955	470.65	16.3
789.3132	66.3579	475.75	17.85
789.4541	68.6199	484	24.45
789.5951	70.8815	495	27.55
789.7361	73.1426	512.35	43.25
789.8771	75.4032	545.15	70.35
790.0181	77.6634	622	142.95
790.1592	79.9231	799.45	316.25
790.3003	82.1824	1171.55	678.3
790.4414	84.4412	1775.6	1263.25
790.5825	86.6995	2543.6	2011.65
790.7237	88.9574	3252.7	2704
790.8648	91.2148	3752.55	3190.55
791.006	93.4717	3961.7	3390.85
791.1472	95.7282	3985.95	3411.95
791.2885	97.9842	3984.15	3403.9
791.4297	100.2398	3931.05	3348.75
791.571	102.4949	3846.15	3262.35
791.7123	104.7495	3818.35	3229.45
791.8536	107.0036	3763.1	3172.05
791.9949	109.2573	3686.7	3098.35
792.1363	111.5105	3579.9	2989.95
792.2777	113.7632	3474.45	2880.75
792.4191	116.0154	3358.45	2755.6
792.5605	118.2672	3263.2	2666.1
792.7019	120.5185	3151.7	2553.35
792.8434	122.7693	3066.45	2466.05
792.9849	125.0197	2984.4	2379.7
793.1264	127.2696	2909.7	2303.95
793.2679	129.519	2876.6	2266.05
793.4094	131.7679	2848.2	2231.95
793.551	134.0163	2816.1	2198
793.6926	136.2642	2812.25	2194.2
793.8342	138.5117	2802.3	2173
793.9758	140.7587	2751.9	2126.3
794.1175	143.0052	2718	2089
794.2591	145.2512	2660.1	2031.3
794.4008	147.4967	2620.45	1992.2
794.5425	149.7417	2558.95	1924.7
794.6842	151.9863	2543.3	1905.95
794.826	154.2304	2537.85	1897.6
794.9677	156.4739	2540.2	1894.7
795.1095	158.717	2539.9	1894.2
795.2513	160.9596	2568.85	1917.8
795.3931	163.2017	2581.9	1929.15
795.535	165.4433	2589.55	1934.15
795.6768	167.6844	2555.85	1897.6
795.8187	169.925	2535.15	1874.3
795.9606	172.1651	2474.1	1811.05
796.1025	174.4047	2434.95	1769.3
796.2445	176.6439	2397.95	1727.7
796.3864	178.8825	2375.75	1704
796.5284	181.1206	2355.45	1681.45
796.6704	183.3582	2353.85	1674.2
796.8124	185.5954	2348.7	1666.6
796.9544	187.832	2353.75	1667.2
797.0965	190.0681	2345	1657.4
797.2386	192.3037	2362.15	1671.1
797.3806	194.5388	2358.3	1664.35
797.5228	196.7734	2363.55	1669.75
797.6649	199.0075	2387.3	1688.45
797.807	201.2411	2397.8	1696.25
797.9492	203.4742	2420.75	1717.6
798.0914	205.7068	2457.7	1754.75
798.2336	207.9389	2476.3	1769.5
798.3758	210.1704	2490.7	1786.65
798.518	212.4015	2486	1792.6
798.6603	214.632	2470.15	1786.05
798.8025	216.862	2478.45	1794.35
798.9448	219.0915	2484.6	1800.1
799.0871	221.3205	2507.2	1818.6
799.2294	223.549	2502	1821.15
799.3718	225.777	2505.75	1823.2
799.5141	228.0044	2494.35	1802.75
799.6565	230.2314	2479.1	1790.45
799.7989	232.4578	2467.95	1770.85
799.9413	234.6837	2463.1	1761.4
800.0837	236.909	2464.5	1762.05
800.2262	239.1339	2456.55	1727.75
800.3687	241.3582	2453.7	1740.45
800.5111	243.582	2470.25	1720.8
800.6536	245.8053	2470.45	1739.35
800.7961	248.0281	2478	1752.2
800.9387	250.2503	2478.7	1745.6
801.0812	252.472	2501.45	1766.6
801.2238	254.6932	2500.25	1766.5
801.3664	256.9139	2496.85	1765.85
801.509	259.134	2527.5	1786.15
801.6516	261.3536	2553.05	1815.25
801.7942	263.5727	2594.3	1854.85
801.9369	265.7912	2648.05	1910.85
802.0795	268.0092	2710.45	1972.35
802.2222	270.2267	2766.05	2026.4
802.3649	272.4436	2805.65	2070.15
802.5076	274.6601	2846.95	2093.85
802.6504	276.8759	2845.75	2097.1
802.7931	279.0913	2875.25	2129.2
802.9359	281.3061	2887.5	2141.65
803.0787	283.5204	2910.8	2158.35
803.2215	285.7341	2935.65	2179.65
803.3643	287.9473	2960.05	2204.85
803.5071	290.16	2962.05	2205.5
803.6499	292.3721	2914.9	2162.8
803.7928	294.5837	2891.7	2139.3
803.9357	296.7947	2861.1	2107.75
804.0786	299.0052	2856.95	2101.7
804.2215	301.2152	2844.8	2086.9
804.3644	303.4246	2833.9	2080.4
804.5074	305.6334	2806.45	2053.15
804.6503	307.8418	2777.75	2019.05
804.7933	310.0495	2749.75	1990.85
804.9363	312.2568	2709.3	1948.75
805.0793	314.4635	2650.9	1887.1
805.2223	316.6696	2614.8	1849.9
805.3653	318.8752	2573.45	1799.85
805.5084	321.0802	2539.4	1773
805.6514	323.2847	2547.05	1778.05
805.7945	325.4887	2545.9	1777.75
805.9376	327.692	2572.25	1803.15
806.0807	329.8949	2602.25	1831.7
806.2238	332.0972	2633.45	1861.25
806.367	334.2989	2643.95	1863.2
806.5101	336.5001	2646.1	1870.75
806.6533	338.7007	2600.05	1821.15
806.7965	340.9008	2567.95	1786.9
806.9397	343.1003	2519.7	1736.35
807.0829	345.2992	2466.85	1686.8
807.2261	347.4976	2432.6	1652.25
807.3693	349.6955	2402.6	1616.4
807.5126	351.8927	2399.25	1613.4
807.6559	354.0895	2378.95	1580
807.7991	356.2856	2364.6	1577.45
807.9424	358.4812	2350.7	1560.9
808.0857	360.6763	2357.2	1564.8
808.2291	362.8707	2345.2	1556.2
808.3724	365.0646	2367.55	1569
808.5158	367.258	2365.2	1568.45
808.6591	369.4508	2377.2	1576.45
808.8025	371.643	2406.3	1606.5
808.9459	373.8346	2430.55	1628.45
809.0893	376.0257	2467.45	1663.75
809.2327	378.2162	2487.15	1684.6
809.3762	380.4062	2492.25	1685.8
809.5196	382.5956	2453.5	1651.05
809.6631	384.7844	2424.15	1623.8
809.8066	386.9726	2388.45	1593.25
809.9501	389.1603	2366.2	1572.1
810.0936	391.3474	2372.35	1542.05
810.2371	393.5339	2358.85	1561.6
810.3806	395.7199	2370.15	1575.35
810.5241	397.9052	2404.45	1606.9
810.6677	400.09	2424.45	1626.6
810.8113	402.2743	2481.6	1684.25
810.9548	404.4579	2502.85	1705.15
811.0984	406.641	2548.55	1749.8
811.2421	408.8235	2594.5	1793.05
811.3857	411.0054	2632.45	1829.8
811.5293	413.1868	2700.7	1892.35
811.673	415.3675	2749.3	1937.4
811.8166	417.5477	2733.25	1922
811.9603	419.7273	2678.25	1863.2
812.104	421.9064	2609.2	1789.2
812.2477	424.0848	2549.6	1734.55
812.3914	426.2627	2479.35	1663.6
812.5351	428.4399	2434.6	1616.55
812.6788	430.6166	2386.55	1564.1
812.8226	432.7928	2340.3	1518.3
812.9663	434.9683	2298.95	1476.7
813.1101	437.1432	2267.6	1444.15
813.2539	439.3176	2246	1429.9
813.3977	441.4914	2226.7	1412.05
813.5415	443.6645	2223.9	1404.3
813.6853	445.8371	2220.55	1400.3
813.8291	448.0091	2223.7	1402.55
813.973	450.1806	2239.55	1418.3
814.1168	452.3514	2214.65	1389.25
814.2607	454.5216	2232.85	1403.3
814.4046	456.6913	2218.95	1391.75
814.5485	458.8603	2209.15	1387.6
814.6924	461.0288	2230.6	1409.4
814.8363	463.1967	2218.6	1396.75
814.9802	465.3639	2215.35	1392.55
815.1241	467.5306	2206.8	1378.85
815.2681	469.6967	2209.3	1385.3
815.412	471.8622	2196.2	1372.6
815.556	474.0271	2202.2	1379
815.7	476.1914	2201.1	1370.75
815.844	478.3551	2194	1365.95
815.988	480.5182	2185.3	1359.45
816.132	482.6807	2203.6	1381.05
816.276	484.8426	2216.95	1396.95
816.4201	487.0039	2258.85	1435.7
816.5641	489.1647	2304.7	1477.1
816.7082	491.3248	2355.6	1524.6
816.8522	493.4843	2376.9	1547.6
816.9963	495.6432	2364.35	1537.3
817.1404	497.8015	2341.85	1509.5
817.2845	499.9592	2294.35	1460.1
817.4286	502.1163	2248.45	1413.75
817.5727	504.2728	2204.95	1369.1
817.7168	506.4287	2178.2	1349.65
817.861	508.5839	2150.55	1321.35
818.0051	510.7386	2151.55	1320.65
818.1493	512.8927	2157.55	1317.65
818.2935	515.0461	2169	1332.15
818.4377	517.199	2183.6	1347.6
818.5818	519.3512	2220.3	1380.65
818.726	521.5029	2294.6	1451.8
818.8703	523.6539	2342.6	1503
819.0145	525.8043	2345.05	1504.85
819.1587	527.9541	2298.5	1453.8
819.303	530.1033	2233.3	1392.95
819.4472	532.2519	2195.2	1353.4
819.5915	534.3999	2167.2	1326.05
819.7357	536.5472	2157	1316.9
819.88	538.694	2157.85	1318.9
820.0243	540.8401	2168.9	1324.1
820.1686	542.9856	2196.7	1349.7
820.3129	545.1305	2203	1350.4
820.4572	547.2748	2228	1377.35
820.6016	549.4185	2222.3	1370.8
820.7459	551.5615	2229.25	1379.05
820.8902	553.704	2259.05	1411.15
821.0346	555.8458	2273.8	1427.15
821.1789	557.987	2294.4	1446.1
821.3233	560.1276	2318.1	1468.7
821.4677	562.2675	2371.05	1522.2
821.6121	564.4069	2435.3	1583.05
821.7565	566.5456	2463.4	1615.6
821.9009	568.6837	2444.95	1595.6
822.0453	570.8212	2378.5	1532.35
822.1897	572.958	2299.95	1450
822.3342	575.0942	2261.5	1413.55
822.4786	577.2299	2217.1	1369.85
822.6231	579.3648	2196.4	1351.35
822.7675	581.4992	2162.6	1323.6
822.912	583.6329	2184.95	1345.9
823.0565	585.766	2212.5	1371.25
823.201	587.8985	2249	1401.7
823.3454	590.0304	2315.1	1441
823.4899	592.1616	2321.05	1467.75
823.6345	594.2922	2307.55	1454.4
823.779	596.4222	2273.9	1415.65
823.9235	598.5515	2224.95	1368.15
824.068	600.6802	2181.35	1326.35
824.2126	602.8083	2137.75	1282.5
824.3571	604.9358	2135.7	1280.7
824.5017	607.0626	2122.5	1263.65
824.6462	609.1888	2143.7	1282.25
824.7908	611.3144	2167.65	1306
824.9354	613.4393	2196.9	1337.45
825.08	615.5636	2257.7	1398.65
825.2246	617.6873	2291.4	1430.05
825.3692	619.8103	2323.4	1461.65
825.5138	621.9327	2310.65	1447.4
825.6584	624.0544	2272.9	1414.85
825.803	626.1756	2216	1356.8
825.9477	628.2961	2177.25	1315.35
826.0923	630.4159	2158.4	1296.65
826.237	632.5351	2149.6	1286.7
826.3816	634.6537	2140.45	1277.1
826.5263	636.7716	2119.75	1252.7
826.6709	638.8889	2118.4	1252.6
826.8156	641.0056	2126.6	1260.6
826.9603	643.1216	2143.4	1276.6
827.105	645.237	2141.25	1272.4
827.2497	647.3518	2116.15	1251.75
827.3944	649.4659	2097.8	1236.75
827.5391	651.5793	2081.8	1220.85
827.6838	653.6922	2070.35	1209
827.8285	655.8043	2049.7	1186.4
827.9733	657.9159	2043.7	1177.7
828.118	660.0268	2037.4	1169.95
828.2627	662.137	2033.65	1171.15
828.4075	664.2466	2042.2	1175.4
828.5522	666.3556	2037.8	1170.3
828.697	668.4639	2018.7	1151.55
828.8418	670.5716	2030.3	1167.45
828.9865	672.6786	2013.6	1143.5
829.1313	674.785	1999.4	1127.1
829.2761	676.8907	2012.7	1143.6
829.4209	678.9958	2004.75	1141.55
829.5657	681.1002	2007.55	1136.7
829.7105	683.204	2010.95	1134.95
829.8553	685.3072	2004.45	1133
830.0001	687.4097	1994.05	1122.5
830.1449	689.5115	2006.3	1131.45
830.2898	691.6127	2001.8	1131.2
830.4346	693.7132	1997.2	1126.3
830.5794	695.8131	2011.15	1119.5
830.7243	697.9123	2012.05	1138.3
830.8691	700.0109	2015.6	1140.35
831.014	702.1089	2023.1	1148.1
831.1588	704.2061	2030.6	1153.95
831.3037	706.3028	2058.55	1185
831.4486	708.3987	2075.05	1200.8
831.5935	710.4941	2095	1218.75
831.7383	712.5887	2085.6	1210.55
831.8832	714.6827	2084.1	1204.8
832.0281	716.7761	2079.9	1204.6
832.173	718.8688	2066.15	1190.15
832.3179	720.9608	2087.15	1206.1
832.4628	723.0522	2119.1	1238.2
832.6077	725.1429	2130.4	1251.15
832.7527	727.233	2176.85	1297.25
832.8976	729.3224	2229.5	1350.1
833.0425	731.4112	2264.3	1385.3
833.1874	733.4993	2276.2	1393.65
833.3324	735.5867	2215.25	1334.45
833.4773	737.6735	2155.8	1274.9
833.6222	739.7596	2106.95	1229.85
833.7672	741.845	2078.4	1199.35
833.9122	743.9298	2073.05	1190.05
834.0571	746.014	2076.95	1196.9
834.2021	748.0974	2089.25	1208.7
834.347	750.1802	2087.3	1204.4
834.492	752.2624	2075.05	1193.75
834.637	754.3439	2061.7	1176.95
834.782	756.4247	2068.1	1174.55
834.9269	758.5048	2060.85	1180.75
835.0719	760.5843	2091.7	1207.75
835.2169	762.6631	2121.9	1238.55
835.3619	764.7413	2184.7	1305.8
835.5069	766.8188	2254.85	1370.05
835.6519	768.8956	2344.65	1457.6
835.7969	770.9718	2405.25	1523
835.9419	773.0473	2384.3	1500.9
836.0869	775.1221	2364.05	1480.6
836.232	777.1962	2356.5	1472.9
836.377	779.2697	2407.4	1523.75
836.522	781.3426	2505.75	1602.1
836.667	783.4147	2546.45	1662.35
836.8121	785.4862	2509.3	1627.1
836.9571	787.557	2425.8	1541.1
837.1021	789.6271	2317.2	1429.8
837.2472	791.6966	2190.3	1302.45
837.3922	793.7654	2109.25	1223.6
837.5373	795.8335	2060.4	1171.4
837.6823	797.901	2028.1	1141.15
837.8274	799.9678	2019.75	1129.05
837.9724	802.0339	2018.95	1131.55
838.1175	804.0993	2024.2	1126.5
838.2626	806.1641	2015.35	1126.85
838.4076	808.2282	1999.2	1115.05
838.5527	810.2916	1982.55	1095.55
838.6978	812.3544	1967.75	1083.65
838.8428	814.4164	1944.2	1058.6
838.9879	816.4778	1966.4	1076.35
839.133	818.5385	1982.5	1093.6
839.2781	820.5986	2005.2	1113.7
839.4232	822.658	2055.95	1168
839.5682	824.7166	2119.9	1231.25
839.7133	826.7747	2204.5	1316.8
839.8584	828.832	2293.6	1404.8
840.0035	830.8886	2342.15	1451.2
840.1486	832.9446	2363.7	1472.9
840.2937	834.9999	2317.5	1425.5
840.4388	837.0545	2257.05	1364.25
840.5839	839.1085	2162.5	1272.4
840.729	841.1618	2098.5	1203.95
840.8741	843.2143	2052.55	1162.3
841.0192	845.2662	2015.8	1127.05
841.1643	847.3175	1997.4	1106.85
841.3095	849.368	1996.45	1106.3
841.4546	851.4179	1987.55	1097.85
841.5997	853.467	1985.6	1095.1
841.7448	855.5155	1992.25	1104.15
841.8899	857.5633	1974.75	1082.7
842.0351	859.6105	1982.5	1092.1
842.1802	861.6569	1993	1098.45
842.3253	863.7027	1966.15	1074.8
842.4704	865.7478	1950.75	1060.6
842.6156	867.7922	1932.25	1039
842.7607	869.8359	1945.3	1052.5
842.9058	871.8789	1937.45	1044.3
843.0509	873.9212	1966.15	1038.75
843.1961	875.9629	1948.65	1054.7
843.3412	878.0039	1951.2	1056.5
843.4863	880.0441	1965.4	1073.6
843.6315	882.0837	1981.7	1087.75
843.7766	884.1226	2003.2	1111.3
843.9218	886.1609	2054.1	1160.95
844.0669	888.1984	2088.25	1194.45
844.212	890.2352	2130.3	1234
844.3572	892.2714	2142.5	1242.95
844.5023	894.3069	2110.7	1216.4
844.6475	896.3416	2064.4	1169.7
844.7926	898.3757	2017.65	1121.15
844.9377	900.4091	2006.45	1111.05
845.0829	902.4418	2010.85	1109.25
845.228	904.4739	2024.4	1128.1
845.3732	906.5052	2043.6	1146.05
845.5183	908.5358	2020.55	1122.4
845.6635	910.5658	2000	1102.35
845.8086	912.595	1972.1	1075.95
845.9538	914.6236	1930.15	1033.55
846.0989	916.6515	1909.35	1015.2
846.2441	918.6786	1895.85	997.65
846.3892	920.7051	1878.4	979.25
846.5344	922.7309	1876.25	977.15
846.6795	924.756	1879.65	983.1
846.8246	926.7804	1888.75	992.5
846.9698	928.8041	1900.45	1002.25
847.1149	930.8272	1908.7	1013.7
847.2601	932.8495	1927.45	1028.1
847.4052	934.8711	1925.3	1025.75
847.5504	936.892	1929.4	1030
847.6955	938.9123	1952.5	1053.45
847.8407	940.9318	1977.8	1080.5
847.9858	942.9506	1989.6	1090
848.131	944.9688	1981.3	1084.45
848.2761	946.9862	1958.85	1058.05
848.4213	949.003	1909.25	1008.65
848.5664	951.019	1894.85	996.9
848.7115	953.0344	1887.15	991.3
848.8567	955.0491	1867.25	968.75
849.0018	957.063	1867.95	970.6
849.147	959.0763	1860.95	964.35
849.2921	961.0888	1862.55	962.6
849.4373	963.1007	1868.9	969.95
849.5824	965.1119	1853.55	959.65
849.7275	967.1223	1849.9	959.3
849.8727	969.1321	1848.2	956.65
850.0178	971.1412	1838.35	945.15
850.1629	973.1495	1835.95	940.45
850.3081	975.1572	1864.1	931.55
850.4532	977.1641	1833.95	934.4
850.5983	979.1704	1826.3	928.75
850.7435	981.1759	1835.05	934.75
850.8886	983.1808	1829.9	929.2
851.0337	985.1849	1836.3	927
851.1788	987.1884	1825.7	922.35
851.324	989.1911	1835.15	934.15
851.4691	991.1932	1833.8	935.5
851.6142	993.1945	1830.85	935.9
851.7593	995.1951	1828.5	932.1
851.9045	997.1951	1821.6	918.35
852.0496	999.1943	1826.75	926.9
852.1947	1001.1928	1825.55	921.3
852.3398	1003.1906	1832.6	932.5
852.4849	1005.1877	1859.1	956.7
852.63	1007.1841	1877.15	979.75
852.7751	1009.1798	1889.15	990.75
852.9202	1011.1748	1883.85	984.85
853.0653	1013.1691	1865.6	966.85
853.2104	1015.1627	1825.7	923.65
853.3555	1017.1556	1794.55	894.75
853.5006	1019.1477	1786.75	886.85
853.6457	1021.1392	1757.15	861.15
853.7908	1023.1299	1753.2	857.55
853.9359	1025.12	1760.6	867.65
854.081	1027.1093	1757.1	870.15
854.2261	1029.0979	1780.5	894.05
854.3712	1031.0859	1797.8	907.75
854.5163	1033.0731	1800.4	907.95
854.6613	1035.0596	1812.75	917.75
854.8064	1037.0454	1785.35	887.35
854.9515	1039.0304	1789.9	889.2
855.0965	1041.0148	1769.7	869.2
855.2416	1042.9985	1757.25	856.75
855.3867	1044.9814	1747.05	848.5
855.5317	1046.9636	1742.35	839.7
855.6768	1048.9452	1739.55	842.7
855.8219	1050.926	1759.25	861.55
855.9669	1052.9061	1764.25	866.35
856.112	1054.8855	1770.6	870.45
856.257	1056.8642	1778.1	877.7
856.4021	1058.8421	1769.15	865.5
856.5471	1060.8194	1767.8	867.5
856.6921	1062.7959	1767.35	865.8
856.8372	1064.7717	1766.6	863.8
856.9822	1066.7469	1771.6	869.15
857.1272	1068.7213	1786.9	883.1
857.2723	1070.695	1801.75	901.2
857.4173	1072.6679	1815.9	914.1
857.5623	1074.6402	1832.9	931.35
857.7073	1076.6117	1832.45	926.15
857.8523	1078.5826	1806.1	904.95
857.9973	1080.5527	1778.3	873.2
858.1423	1082.5221	1751.75	846.5
858.2873	1084.4908	1715.35	816.95
858.4323	1086.4587	1710.75	809.1
858.5773	1088.426	1720.05	818.9
858.7223	1090.3925	1712.15	806.2
858.8673	1092.3584	1713.05	813.3
859.0123	1094.3235	1722.8	822.2
859.1573	1096.2879	1735.4	834.85
859.3022	1098.2515	1759.9	857.7
859.4472	1100.2145	1789.4	889.3
859.5922	1102.1767	1822.75	919
859.7371	1104.1382	1862.3	961.55
859.8821	1106.099	1919	1016.9
860.027	1108.0591	1948.15	1047.95
860.172	1110.0185	1982.85	1079.7
860.3169	1111.9771	2026.4	1124.75
860.4619	1113.9351	2078.15	1178.85
860.6068	1115.8923	2121.25	1219.75
860.7517	1117.8488	2137.55	1234.9
860.8967	1119.8045	2086.6	1187.85
861.0416	1121.7596	1984.95	1084.45
861.1865	1123.7139	1903.15	1004.1
861.3314	1125.6675	1856.75	954.7
861.4763	1127.6204	1862.5	961.5
861.6212	1129.5726	1877	973
861.7661	1131.524	1874.75	971.75
861.911	1133.4748	1834.8	931.7
862.0559	1135.4248	1770.85	867.6
862.2008	1137.3741	1739.65	841.4
862.3457	1139.3226	1716.25	815.9
862.4905	1141.2705	1718.9	817.2
862.6354	1143.2176	1729.45	823.15
862.7803	1145.164	1737	834.3
862.9251	1147.1097	1729.25	826.45
863.07	1149.0546	1704.45	804.35
863.2148	1150.9989	1680.65	780.1
863.3597	1152.9424	1665.65	763.05
863.5045	1154.8852	1645.6	746.05
863.6493	1156.8272	1649.05	746.65
863.7942	1158.7686	1651.65	741.6
863.939	1160.7092	1638.55	736.9
864.0838	1162.6491	1649.65	746.4
864.2286	1164.5883	1663.85	762.9
864.3734	1166.5267	1685.15	779.6
864.5182	1168.4644	1703.9	802
864.663	1170.4014	1740.6	834.45
864.8078	1172.3377	1778.45	877.3
864.9526	1174.2732	1839.25	939.5
865.0974	1176.2081	1922.1	1019.15
865.2421	1178.1421	2037.5	1131
865.3869	1180.0755	2133	1231.3
865.5317	1182.0082	2177.2	1275.65
865.6764	1183.9401	2140.85	1239.7
865.8212	1185.8713	2035	1138.9
865.9659	1187.8017	1919.95	1024
866.1106	1189.7315	1837.2	944.6
866.2554	1191.6605	1771.15	877.95
866.4001	1193.5888	1726.7	831.15
866.5448	1195.5163	1705.95	808.85
866.6895	1197.4432	1690.95	789.9
866.8342	1199.3693	1667.05	767.7
866.9789	1201.2947	1670.05	765.05
867.1236	1203.2193	1660.3	757.05
867.2683	1205.1432	1654.05	752.4
867.413	1207.0664	1654.95	755.5
867.5576	1208.9889	1659.65	755.45
867.7023	1210.9106	1648.75	748.65
867.847	1212.8316	1655.5	753.65
867.9916	1214.7519	1676.05	764.7
868.1363	1216.6715	1682.9	782.55
868.2809	1218.5903	1696.8	797.1
868.4255	1220.5084	1707.6	807.45
868.5701	1222.4257	1724.75	824.45
868.7148	1224.3424	1739.15	838.4
868.8594	1226.2583	1761.3	856.85
869.004	1228.1735	1783.5	879.7
869.1486	1230.0879	1822.95	920.1
869.2932	1232.0016	1857.65	956.4
869.4377	1233.9146	1887.1	984.95
869.5823	1235.8269	1909.25	1009.05
869.7269	1237.7384	1913.3	1011.7
869.8715	1239.6492	1931.55	1030.85
870.016	1241.5592	1950.05	1049.55
870.1606	1243.4686	1990.3	1089.6
870.3051	1245.3772	2067	1166.3
870.4496	1247.285	2152.75	1250.6
870.5941	1249.1922	2222.1	1321.7
870.7387	1251.0986	2294.95	1393.3
870.8832	1253.0042	2358.95	1456.65
871.0277	1254.9092	2424.35	1523.4
871.1722	1256.8134	2494.95	1598
871.3167	1258.7169	2541.7	1639.4
871.4611	1260.6196	2560.7	1662.85
871.6056	1262.5216	2551.95	1648.75
871.7501	1264.4229	2525.85	1625.2
871.8945	1266.3234	2507.2	1608.05
872.039	1268.2232	2464.45	1563.5
872.1834	1270.1223	2427.35	1524.8
872.3278	1272.0207	2389.5	1487.4
872.4723	1273.9183	2389.8	1480.85
872.6167	1275.8151	2402.35	1503.3
872.7611	1277.7113	2446.15	1547.2
872.9055	1279.6067	2520.75	1619.6
873.0499	1281.5014	2658.4	1756.9
873.1943	1283.3953	2812.55	1907.85
873.3386	1285.2885	2961.45	2061.25
873.483	1287.181	3078.15	2176.4
873.6274	1289.0727	3106.6	2207.15
873.7717	1290.9637	3052.8	2151.9
873.9161	1292.854	2985.2	2083.9
874.0604	1294.7435	2899.45	1998.9
874.2047	1296.6323	2815.35	1912.9
874.349	1298.5204	2741.95	1834.65
874.4933	1300.4077	2670.85	1766.35
874.6376	1302.2943	2649.15	1748.85
874.7819	1304.1802	2612.7	1708.45
874.9262	1306.0653	2572.8	1669.3
875.0705	1307.9497	2526.95	1625.15
875.2147	1309.8333	2490.45	1589.05
875.359	1311.7162	2448.2	1546.95
875.5032	1313.5984	2424.4	1518.35
875.6475	1315.4798	2385.8	1483.45
875.7917	1317.3605	2389.3	1472.9
875.9359	1319.2405	2367.7	1464.4
876.0801	1321.1197	2328	1424.1
876.2243	1322.9982	2264.05	1363.1
876.3685	1324.876	2189.75	1289.7
876.5127	1326.753	2113.55	1211.55
876.6569	1328.6293	2036.05	1133.6
876.801	1330.5048	1965.95	1060
876.9452	1332.3796	1907.4	1005.1
877.0893	1334.2537	1891.15	961.85
877.2335	1336.127	1823.95	919.7
877.3776	1337.9996	1808.05	907.65
877.5217	1339.8714	1790.1	890.4
877.6658	1341.7426	1807.25	861.8
877.8099	1343.6129	1771.25	868.25
877.954	1345.4826	1750.55	849.4
878.0981	1347.3515	1750.45	845.4
878.2422	1349.2196	1722.5	820.6
878.3862	1351.087	1722.2	816.2
878.5303	1352.9537	1724.95	823.3
878.6743	1354.8197	1731.6	830.5
878.8184	1356.6849	1735.05	833.9
878.9624	1358.5493	1740	838.2
879.1064	1360.4131	1772.5	872.1
879.2504	1362.276	1805.75	905
879.3944	1364.1383	1840.9	939.25
879.5384	1365.9998	1849.35	941.5
879.6823	1367.8606	1835.45	932.2
879.8263	1369.7206	1825.2	922.95
879.9702	1371.5799	1804.3	898.5
880.1142	1373.4384	1802.4	899.25
880.2581	1375.2962	1779.3	875.75
880.402	1377.1533	1728.7	825.9
880.5459	1379.0096	1687.3	787.85
880.6898	1380.8652	1646.2	746.15
880.8337	1382.7201	1626	727.05
880.9776	1384.5742	1607.45	708.3
881.1215	1386.4275	1588.25	687.6
881.2653	1388.2802	1583.75	685
881.4092	1390.132	1556.25	653.95
881.553	1391.9832	1553.3	650.1
881.6968	1393.8336	1537.9	633.35
881.8406	1395.6832	1536.6	634.15
881.9844	1397.5322	1524.75	622.75
882.1282	1399.3803	1520.3	615.35
882.272	1401.2278	1506.5	602.95
882.4158	1403.0745	1502.55	601.5
882.5595	1404.9204	1490.05	591.25
882.7033	1406.7656	1488.15	587.45
882.847	1408.6101	1484.1	582.5
882.9908	1410.4538	1488.7	586.8
883.1345	1412.2968	1482.35	581.45
883.2782	1414.139	1492.4	591.7
883.4219	1415.9805	1492.4	592.65
883.5656	1417.8213	1530.7	610.1
883.7092	1419.6613	1520.9	620.8
883.8529	1421.5006	1550	648.9
883.9965	1423.3391	1579.6	676.65
884.1402	1425.1769	1625.35	723.8
884.2838	1427.0139	1688	786.5
884.4274	1428.8502	1766.05	865.4
884.571	1430.6858	1823.25	920.4
884.7146	1432.5206	1848.65	948.15
884.8582	1434.3547	1849.9	946.9
885.0018	1436.188	1831.3	929.85
885.1453	1438.0206	1813.7	914.1
885.2889	1439.8524	1804.85	902.75
885.4324	1441.6835	1805.4	902.65
885.5759	1443.5139	1803.15	897.3
885.7194	1445.3435	1798.3	898.35
885.8629	1447.1724	1805.2	903.65
886.0064	1449.0005	1803.8	904.5
886.1499	1450.8279	1798.75	899.5
886.2933	1452.6545	1786.8	888.25
886.4368	1454.4804	1787.25	888.2
886.5802	1456.3056	1788.7	883.65
886.7237	1458.13	1754.3	854.7
886.8671	1459.9536	1740.7	841
887.0105	1461.7766	1712.65	811.7
887.1539	1463.5987	1676.9	776.75
887.2972	1465.4202	1647.55	747.6
887.4406	1467.2409	1606.8	706.15
887.584	1469.0608	1571.15	672.7
887.7273	1470.88	1551.2	652.95
887.8706	1472.6984	1523.25	624.05
888.0139	1474.5161	1503.15	602.7
888.1572	1476.3331	1495.6	597.05
888.3005	1478.1493	1487.55	588.1
888.4438	1479.9648	1486.05	586.85
888.5871	1481.7795	1488.15	587.9
888.7303	1483.5935	1474.4	572.85
888.8736	1485.4067	1470.65	569.7
889.0168	1487.2192	1478.4	578.35
889.16	1489.031	1474.5	572.6
889.3032	1490.842	1475.55	577.4
889.4464	1492.6522	1468.85	569.85
889.5896	1494.4618	1460.15	558.2
889.7327	1496.2705	1464.15	566.3
889.8759	1498.0785	1460.15	558.2
890.019	1499.8858	1451.6	550.2
890.1622	1501.6924	1447.6	547.45
890.3053	1503.4981	1433.7	531.95
890.4484	1505.3032	1426.45	524.4
890.5914	1507.1075	1423.25	523.1
890.7345	1508.911	1418.35	519.35
890.8776	1510.7138	1415.3	513.5
891.0206	1512.5159	1405.35	506.55
891.1637	1514.3172	1400.7	503.2
891.3067	1516.1178	1387.6	487.8
891.4497	1517.9176	1391.55	488.75
891.5927	1519.7166	1380.6	482.5
891.7357	1521.515	1385.25	480.7
891.8786	1523.3126	1377.55	478.6
892.0216	1525.1094	1372.15	472.4
892.1645	1526.9055	1365.9	468
892.3074	1528.7008	1360.1	460.05
892.4503	1530.4954	1366	461.85
892.5932	1532.2893	1361.65	463.4
892.7361	1534.0824	1359.55	457.7
892.879	1535.8747	1355.25	456.25
893.0218	1537.6663	1350.7	455.2
893.1647	1539.4572	1348.75	447.85
893.3075	1541.2473	1352.65	452.55
893.4503	1543.0367	1347.05	448.45
893.5931	1544.8253	1361.6	457.2
893.7359	1546.6132	1365.35	462.95
893.8787	1548.4003	1368.65	463.55
894.0214	1550.1867	1372	467.35
894.1642	1551.9723	1377.75	476.2
894.3069	1553.7572	1394.85	495.65
894.4496	1555.5414	1421.6	525.05
894.5923	1557.3247	1435.55	540
894.735	1559.1074	1470.05	576.55
894.8777	1560.8893	1505.35	610.4
895.0204	1562.6705	1535.1	639.25
895.163	1564.4509	1550.55	657.3
895.3056	1566.2305	1555.05	660.65
895.4482	1568.0094	1559.8	667.25
895.5908	1569.7876	1555.25	661.35
895.7334	1571.565	1554.3	660.25
895.876	1573.3417	1542.85	648.05
896.0186	1575.1176	1557.4	664.2
896.1611	1576.8928	1561.45	666.95
896.3036	1578.6672	1576.4	686.05
896.4461	1580.4409	1597.8	707.6
896.5886	1582.2138	1632.95	740.1
896.7311	1583.986	1664.4	768.6
896.8736	1585.7575	1697.5	805.55
897.0161	1587.5282	1720.1	830.65
897.1585	1589.2981	1734.55	843.4
897.3009	1591.0673	1755.45	863.15
897.4433	1592.8358	1752.35	861.15
897.5857	1594.6035	1766.15	872.1
897.7281	1596.3704	1760.65	866.75
897.8705	1598.1366	1743.3	851.95
898.0128	1599.9021	1722.1	828.65
898.1551	1601.6668	1721.1	825.9
898.2975	1603.4308	1711.95	817.05
898.4398	1605.194	1723.45	826.75
898.5821	1606.9564	1754.85	865.8
898.7243	1608.7182	1799.2	908.3
898.8666	1610.4791	1867.6	982.5
899.0088	1612.2394	1952.55	1066.9
899.1511	1613.9988	2017.85	1131.45
899.2933	1615.7576	2065.2	1176.05
899.4355	1617.5156	2092.3	1196.5
899.5776	1619.2728	2037.45	1143.45
899.7198	1621.0293	1955.65	1061.4
899.862	1622.785	1861.05	965.7
900.0041	1624.54	1756.15	862.95
900.1462	1626.2942	1660.5	770.3
900.2883	1628.0477	1584.45	693.15
900.4304	1629.8005	1524.05	630.45
900.5725	1631.5525	1475.35	585.8
900.7145	1633.3037	1423.5	534.9
900.8566	1635.0542	1385.9	497.5
900.9986	1636.804	1359.8	469.6
901.1406	1638.553	1404.3	447.9
901.2826	1640.3013	1324.55	433.35
901.4245	1642.0488	1315.65	423.7
901.5665	1643.7955	1293.85	404.75
901.7085	1645.5416	1280.9	393.1
901.8504	1647.2868	1278.25	388.25
901.9923	1649.0313	1274.25	384.1
902.1342	1650.7751	1270.2	376.3
902.2761	1652.5181	1271.7	382.85
902.4179	1654.2604	1269.3	378.85
902.5598	1656.0019	1270.85	383.7
902.7016	1657.7427	1290.9	400.15
902.8434	1659.4828	1308.1	419.85
902.9852	1661.222	1332.95	445.3
903.127	1662.9606	1355.2	467.65
903.2687	1664.6984	1375.4	484.4
903.4105	1666.4354	1365.2	473.2
903.5522	1668.1717	1341.7	450.55
903.6939	1669.9072	1304.05	411.35
903.8356	1671.642	1275.25	381.05
903.9773	1673.3761	1235.15	343.15
904.119	1675.1094	1216.65	325.15
904.2606	1676.8419	1206.4	315.15
904.4022	1678.5737	1189.8	297.15
904.5439	1680.3048	1180.5	288.85
904.6855	1682.0351	1178.85	287.95
904.827	1683.7646	1168.5	276.15
904.9686	1685.4934	1163.55	273.45
905.1101	1687.2215	1162.4	269.45
905.2517	1688.9488	1159	270.8
905.3932	1690.6754	1151.4	261.5
905.5347	1692.4012	1155.6	265.4
905.6761	1694.1263	1154.55	262.15
905.8176	1695.8506	1153.8	263.5
905.9591	1697.5742	1144.75	254.6
906.1005	1699.297	1141.5	253.35
906.2419	1701.0191	1136.45	250.25
906.3833	1702.7404	1132.65	246.35
906.5246	1704.461	1137.25	247.3
906.666	1706.1808	1134.55	243.5
906.8073	1707.8999	1133.5	242
906.9487	1709.6182	1125.95	235.4
907.09	1711.3358	1121.85	234.65
907.2313	1713.0527	1121.25	236.4
907.3725	1714.7688	1130.25	237
907.5138	1716.4841	1125.2	234
907.655	1718.1987	1130.5	238.7
907.7962	1719.9126	1118.25	231.3
907.9374	1721.6257	1118.7	228.65
908.0786	1723.338	1117.05	229.65
908.2198	1725.0496	1115.65	225.8
908.3609	1726.7605	1119.45	229.05
908.502	1728.4706	1114.95	225.05
908.6431	1730.18	1114.8	225.25
908.7842	1731.8886	1112.4	224.65
908.9253	1733.5964	1131.65	224.7
909.0664	1735.3036	1112.55	222.65
909.2074	1737.0099	1113.7	228.25
909.3484	1738.7156	1109.15	222.4
909.4894	1740.4204	1114.8	225.9
909.6304	1742.1246	1110.85	219.8
909.7714	1743.8279	1106.9	219.6
909.9123	1745.5306	1109.55	219.9
910.0532	1747.2325	1105.5	217.35
910.1941	1748.9336	1103.4	215.45
910.335	1750.634	1103.3	212.75
910.4759	1752.3336	1106.7	220.25
910.6168	1754.0325	1104.75	219.4
910.7576	1755.7307	1099.1	210
910.8984	1757.4281	1106.9	219.65
911.0392	1759.1247	1112.8	216.6
911.18	1760.8206	1106.7	211.15
911.3208	1762.5158	1104.15	209.45
911.4615	1764.2102	1100.6	213.15
911.6022	1765.9039	1102.7	212.85
911.7429	1767.5968	1095.8	212.05
911.8836	1769.289	1099.45	210.5
912.0243	1770.9804	1098	211.45
912.1649	1772.6711	1099.45	208.65
912.3056	1774.361	1099.9	211.15
912.4462	1776.0502	1098.95	210.4
912.5868	1777.7386	1096	204.45
912.7274	1779.4263	1095.65	207.25
912.8679	1781.1132	1092.55	204.95
913.0084	1782.7994	1097.2	208.5
913.149	1784.4849	1090.45	205.65
913.2895	1786.1696	1107.45	201.25
913.4299	1787.8535	1092.8	208.9
913.5704	1789.5367	1086.9	201.1
913.7108	1791.2192	1090	203.25
913.8513	1792.9009	1118	204.6
913.9917	1794.5818	1092.6	200.85
914.132	1796.2621	1088.3	200.45
914.2724	1797.9415	1087.4	198.15
914.4128	1799.6202	1089.9	200.05
914.5531	1801.2982	1090.05	200.25
914.6934	1802.9755	1086.6	196.7
914.8337	1804.6519	1083.65	195.55
914.9739	1806.3277	1081.2	194.95
915.1142	1808.0027	1083.35	197.75
915.2544	1809.6769	1079.85	194.4
915.3946	1811.3504	1079.55	193.45
915.5348	1813.0231	1082.35	195.65
915.675	1814.6951	1077.05	191.5
915.8151	1816.3664	1083.6	193.95
915.9553	1818.0369	1081.65	192.8
916.0954	1819.7067	1078.55	190.7
916.2355	1821.3757	1080.85	192.75
916.3755	1823.044	1080.45	191.2
916.5156	1824.7115	1076.45	188.65
916.6556	1826.3783	1071.15	183.3
916.7956	1828.0443	1075.95	189.2
916.9356	1829.7096	1081.8	190.75
917.0756	1831.3741	1078.7	187.95
917.2155	1833.0379	1074.1	185.95
917.3555	1834.701	1076.2	188.2
917.4954	1836.3633	1072.7	184.55
917.6353	1838.0248	1072.35	185.25
917.7751	1839.6856	1075.05	190
917.915	1841.3457	1070.65	185.15
918.0548	1843.005	1071.35	182.8
918.1946	1844.6636	1070.35	183
918.3344	1846.3214	1069.7	179.7
918.4742	1847.9785	1069.3	182.7
918.6139	1849.6349	1073.3	181.75
918.7537	1851.2904	1076.95	179.9
918.8934	1852.9453	1068.4	179.45
919.0331	1854.5994	1071.15	178.9
919.1727	1856.2528	1072	179.9
919.3124	1857.9054	1069.25	182.6
919.452	1859.5572	1070.75	183.75
919.5916	1861.2083	1071.75	182
919.7312	1862.8587	1063.25	175.25
919.8708	1864.5084	1063.95	174.2
920.0103	1866.1572	1067.2	179.1
920.1498	1867.8054	1067.6	179.8
920.2893	1869.4528	1068.9	180.75
920.4288	1871.0994	1062.6	174.55
920.5683	1872.7453	1068.2	180.8
920.7077	1874.3905	1069.6	172.95
920.8471	1876.0349	1063.2	174.85
920.9865	1877.6786	1066.45	174.85
921.1259	1879.3215	1064.1	177.45
921.2653	1880.9637	1059.25	168.3
921.4046	1882.6051	1061.5	176.65
921.5439	1884.2458	1061.4	173.2
921.6832	1885.8858	1061.25	172.15
921.8225	1887.525	1060.65	171.75
921.9617	1889.1634	1059	172.4
922.101	1890.8011	1058.55	169
922.2402	1892.4381	1061	171.25
922.3794	1894.0743	1059.6	171.75
922.5185	1895.7098	1056.7	168.5
922.6577	1897.3446	1061.3	174.3
922.7968	1898.9786	1058.85	167.25
922.9359	1900.6118	1054.7	167.35
923.075	1902.2443	1056.35	166.6
923.214	1903.8761	1058.6	169.25
923.3531	1905.5071	1051.8	162.55
923.4921	1907.1374	1058.25	169.45
923.6311	1908.7669	1049.85	162.45
923.77	1910.3957	1050.1	162.4
923.909	1912.0237	1052.6	164.75
924.0479	1913.651	1051.15	163.8
924.1868	1915.2776	1050.25	164.85
924.3257	1916.9034	1049.25	163
924.4646	1918.5285	1045.3	159.9
924.6034	1920.1528	1048.2	159.2
924.7422	1921.7764	1045.4	156.95
924.881	1923.3992	1050.5	166.15
925.0198	1925.0213	1047.5	160.2
925.1586	1926.6427	1048.3	159
925.2973	1928.2633	1183.95	82.6
925.436	1929.8832	1046.3	153.8
925.5747	1931.5023	1045.25	157.8
925.7134	1933.1207	1047	159.9
925.852	1934.7383	1046.35	157.8
925.9906	1936.3552	1042.65	155.9
926.1292	1937.9714	1045.15	155
926.2678	1939.5868	1044.35	152.3
926.4064	1941.2015	1037.35	147.3
926.5449	1942.8154	1043.9	154.6
926.6834	1944.4286	1040	152.9
926.8219	1946.041	1064.6	155.4
926.9604	1947.6528	1046.75	153.55
927.0988	1949.2637	1045.15	158.85
927.2372	1950.8739	1040.3	150.6
927.3756	1952.4834	1038.5	152.65
927.514	1954.0921	1037.35	151.95
927.6523	1955.7001	1044.2	154.2
927.7907	1957.3074	1038.4	153.1
927.929	1958.9139	1030.15	144.95
928.0673	1960.5197	1035.85	146.1
928.2055	1962.1247	1033.7	147.75
928.3438	1963.729	1035.3	151.7
928.482	1965.3325	1035.95	142.45
928.6202	1966.9353	1032.95	149.1
928.7584	1968.5374	1034.65	148.5
928.8965	1970.1387	1035.8	149.05
929.0346	1971.7393	1037	151.9
929.1727	1973.3392	1031.6	146.95
929.3108	1974.9383	1031.15	147.85
929.4489	1976.5366	1032.4	149.65
929.5869	1978.1342	1025.05	141.45
929.7249	1979.7311	1032.35	147.35
929.8629	1981.3273	1026.9	142.1
930.0009	1982.9227	1031.2	147.1
930.1388	1984.5173	1027.85	143.7
930.2767	1986.1112	1027.7	144.05
930.4146	1987.7044	1029.05	145.2
930.5525	1989.2968	1026.5	142.3
930.6904	1990.8885	1029.05	142.25
930.8282	1992.4795	1026.15	142.7
930.966	1994.0697	1023.95	142
931.1038	1995.6592	1024.35	140.85
931.2415	1997.2479	1027.1	143.45
931.3793	1998.8359	1028.25	145.4
931.517	2000.4232	1019.4	139.05
931.6547	2002.0097	1017.55	136.3
931.7923	2003.5955	1023.55	140.65
931.93	2005.1805	1022.65	139.95
932.0676	2006.7648	1027.4	144.8
932.2052	2008.3484	1023.25	140.85
932.3427	2009.9312	1019.5	138.65
932.4803	2011.5133	1022.9	143.5
932.6178	2013.0946	1020.2	138.05
932.7553	2014.6752	1016.85	135.15
932.8928	2016.2551	1024.9	142
933.0302	2017.8342	1021.35	140.1
933.1676	2019.4126	1015.15	134.25
933.305	2020.9902	1016.9	136.3
933.4424	2022.5672	1020.45	139.2
933.5798	2024.1433	1021.5	136.35
933.7171	2025.7188	1017.4	139.8
933.8544	2027.2935	1019.65	139.2
933.9917	2028.8674	1018.8	139.1
934.129	2030.4406	1020.05	140.55
934.2662	2032.0131	1013.75	136.05
934.4034	2033.5849	1019.1	134.95
934.5406	2035.1559	1014.5	137.35
934.6778	2036.7261	1016.75	135.7
934.8149	2038.2957	1015.6	134.2
934.952	2039.8645	1023	141.9
935.0891	2041.4325	1025.8	139.4
935.2262	2042.9998	1020.75	139.85
935.3632	2044.5664	1014.75	131.1
935.5002	2046.1323	1017.9	139.05
935.6372	2047.6974	1019.15	139.65
935.7742	2049.2617	1014.75	133.8
935.9111	2050.8254	1018.35	132.7
936.048	2052.3883	1020.55	136.6
936.1849	2053.9504	1018.6	137.05
936.3218	2055.5118	1016.05	134.45
936.4586	2057.0725	1021.25	134.6
936.5955	2058.6325	1012.25	131.05
936.7323	2060.1917	1017.7	137.2
936.869	2061.7502	1016.05	132.8
937.0058	2063.3079	1015.75	137.85
937.1425	2064.8649	1016.75	132.25
937.2792	2066.4212	1013.5	131.95
937.4159	2067.9767	1016.5	135.5
937.5525	2069.5315	1015	134.05
937.6891	2071.0856	1015.85	135.3
937.8257	2072.6389	1014.5	132
937.9623	2074.1915	1013.3	134.65
938.0989	2075.7433	1014.9	132.45
938.2354	2077.2945	1015.1	136.1
938.3719	2078.8448	1011.8	129.45
938.5084	2080.3945	1014.85	133
938.6448	2081.9434	1013.25	130.85
938.7812	2083.4916	1011.9	128.7
938.9176	2085.039	1018.4	132.55
939.054	2086.5857	1019.2	134.55
939.1903	2088.1317	1014.85	130.15
939.3267	2089.677	1017.25	130.9
939.463	2091.2215	1019	133.95
939.5992	2092.7652	1018.15	131
939.7355	2094.3083	1013.6	128.8
939.8717	2095.8506	1015.65	132.35
940.0079	2097.3921	1012.25	129.75
940.1441	2098.933	1014.3	132.95
940.2802	2100.4731	1011.7	128.85
940.4163	2102.0124	1028.4	127.4
940.5524	2103.5511	1010.55	126.1
940.6885	2105.089	1014.25	133.2
940.8245	2106.6261	1015.85	132
940.9606	2108.1626	1013.75	128.55
941.0965	2109.6983	1040.2	130.75
941.2325	2111.2332	1012.75	129.95
941.3684	2112.7675	1011.9	126.4
941.5044	2114.301	1019.3	135.55
941.6403	2115.8337	1015.5	131.6
941.7761	2117.3657	1012.05	127.45
941.912	2118.897	1015.75	130.8
942.0478	2120.4276	1017.9	126.25
942.1835	2121.9575	1014.15	130.85
942.3193	2123.4866	1018.35	132.15
942.455	2125.0149	1016.1	131.2
942.5907	2126.5426	1008.6	127.3
942.7264	2128.0695	1009.9	125.45
942.8621	2129.5956	1006.5	129
942.9977	2131.1211	1010.15	124.9
943.1333	2132.6458	1008.05	129.55
943.2689	2134.1698	1014.1	130.7
943.4044	2135.693	1014.8	127.2
943.54	2137.2155	1015.25	128.3
943.6755	2138.7373	1007.85	123.95
943.8109	2140.2584	1006.8	126.1
943.9464	2141.7787	1008.45	121.6
944.0818	2143.2983	1009.1	129.75
944.2172	2144.8171	1006.3	127.8
944.3526	2146.3353	1010.05	127.9
944.4879	2147.8527	1006.3	125
944.6232	2149.3693	1006.8	125.15
944.7585	2150.8853	1009.35	125
944.8938	2152.4005	1007.7	124.85
945.029	2153.9149	1007.8	121.65
945.1642	2155.4287	1008.95	126.9
945.2994	2156.9417	1010.8	127.15
945.4346	2158.454	1008.55	124.05
945.5697	2159.9655	1007.45	125.1
945.7048	2161.4764	1008.35	126.95
945.8399	2162.9865	1007.75	124.35
945.9749	2164.4958	1009.3	129.55
946.1099	2166.0045	1006.25	122.7
946.2449	2167.5124	1006.25	122.95
946.3799	2169.0195	1007.55	124.55
946.5148	2170.526	1007.65	124.3
946.6498	2172.0317	1002.7	121.15
946.7846	2173.5367	1007.7	124
946.9195	2175.0409	1002.45	122.4
947.0543	2176.5445	1003.8	121.65
947.1891	2178.0473	1003.35	118.15
947.3239	2179.5494	1010.25	122
947.4587	2181.0507	1004.6	120.25
947.5934	2182.5513	1004.9	123.5
947.7281	2184.0512	1002.75	119.25
947.8628	2185.5504	1003.85	121.9
947.9974	2187.0488	1001.15	121.25
948.132	2188.5465	1006.65	124.55
948.2666	2190.0435	1003.2	120.9
948.4012	2191.5397	1002.1	118.5
948.5357	2193.0353	1005.45	122
948.6702	2194.5301	1005.2	119.9
948.8047	2196.0241	1006.4	121.6
948.9392	2197.5175	1001.05	114.4
949.0736	2199.0101	1005.75	119
949.208	2200.502	1000.55	117.8
949.3424	2201.9931	998.95	117.35
949.4767	2203.4835	1000.7	117.75
949.611	2204.9733	1005.35	118.05
949.7453	2206.4622	999.8	118.25
949.8796	2207.9505	999.85	114.45
950.0138	2209.438	994.95	116.3
950.148	2210.9248	1001.75	117.65
950.2822	2212.4109	1000.7	117.95
950.4164	2213.8962	1002.15	115.95
950.5505	2215.3809	1001.3	114.5
950.6846	2216.8648	1000.35	114.45
950.8186	2218.3479	1006.05	114.7
950.9527	2219.8304	1000.15	111.5
951.0867	2221.3121	1002.45	114.65
951.2207	2222.7931	998.05	113.95
951.3546	2224.2733	998.45	113.75
951.4886	2225.7529	1001.75	118.05
951.6225	2227.2317	997.6	112.05
951.7563	2228.7098	992.45	111.4
951.8902	2230.1872	993.5	112.4
952.024	2231.6638	990.85	111.8
952.1578	2233.1397	995.35	108.7
952.2916	2234.6149	993.45	111.85
952.4253	2236.0894	993.55	111.5
952.559	2237.5632	1005.85	113.35
952.6927	2239.0362	991.85	109.35
952.8263	2240.5085	996.95	114.5
952.9599	2241.9801	987.65	104.55
953.0935	2243.4509	994.05	109.4
953.2271	2244.921	994.15	110.6
953.3606	2246.3904	995.8	108.4
953.4941	2247.8591	990.9	107.75
953.6276	2249.3271	993	108.95
953.7611	2250.7943	992.15	106.25
953.8945	2252.2608	989.1	106.9
954.0279	2253.7266	991	108.25
954.1612	2255.1917	992.6	109.95
954.2946	2256.656	991.5	107.95
954.4279	2258.1197	990.35	110.3
954.5612	2259.5826	988.5	103.55
954.6944	2261.0447	993.9	111.65
954.8276	2262.5062	990.6	105.45
954.9608	2263.9669	995.45	109.45
955.094	2265.4269	987.15	103.2
955.2271	2266.8862	990.15	108.4
955.3602	2268.3448	987.05	105.45
955.4933	2269.8026	983.7	100.85
955.6264	2271.2598	986	103.8
955.7594	2272.7162	990.45	109.65
955.8924	2274.1719	989.8	107.15
956.0253	2275.6268	987.25	105.35
956.1583	2277.0811	986.05	101.85
956.2912	2278.5346	987.2	105.5
956.4241	2279.9874	984.95	102.6
956.5569	2281.4395	983.7	101.45
956.6897	2282.8908	988.65	100.45
956.8225	2284.3414	989.3	105.75
956.9553	2285.7914	987.3	104.1
957.088	2287.2406	988.1	103.55
957.2207	2288.689	987.95	103.75
957.3534	2290.1368	983.6	97.4
957.486	2291.5838	984.65	98.65
957.6186	2293.0302	988.2	103.15
957.7512	2294.4758	985.55	101.1
957.8838	2295.9206	985.35	100.25
958.0163	2297.3648	984	100.25
958.1488	2298.8082	987.85	104.95
958.2813	2300.251	982.9	99.65
958.4137	2301.693	987.5	101.3
958.5461	2303.1343	989	104.65
958.6785	2304.5748	982.75	100.25
958.8108	2306.0147	983.15	99.8
958.9432	2307.4538	986.45	101.95
959.0754	2308.8922	977.8	96.4
959.2077	2310.3299	977.45	95.65
959.3399	2311.7669	980.45	99.5
959.4721	2313.2031	981.75	99.05
959.6043	2314.6387	982.5	99.55
959.7365	2316.0735	982.85	98.7
959.8686	2317.5076	981.15	98.2
960.0006	2318.941	980.3	93.65
960.1327	2320.3737	980.45	95.55
960.2647	2321.8056	981.45	94.25
960.3967	2323.2369	983.3	98.75
960.5287	2324.6674	986.65	101.75
960.6606	2326.0972	986.9	103.1
960.7925	2327.5263	988.25	104.35
960.9244	2328.9547	990.25	106.4
961.0562	2330.3823	986.8	101
961.1881	2331.8092	987.7	100.9
961.3198	2333.2355	982.9	97.8
961.4516	2334.661	981.2	99.1
961.5833	2336.0858	982.45	98.1
961.715	2337.5098	977.5	94.9
961.8467	2338.9332	980.95	97.25
961.9783	2340.3558	982.3	94.5
962.1099	2341.7778	975.45	92.6
962.2415	2343.199	978.15	94.05
962.373	2344.6195	975.05	91.4
962.5045	2346.0393	976.05	91.15
962.636	2347.4583	973.8	89.3
962.7675	2348.8767	975.6	90.35
962.8989	2350.2943	979.5	95.5
963.0303	2351.7113	981.35	95.75
963.1617	2353.1275	978.45	92.3
963.293	2354.543	1000.7	91.1
963.4243	2355.9578	977.6	91.65
963.5556	2357.3718	976.9	95.05
963.6868	2358.7852	977.6	90.95
963.818	2360.1978	973	87.85
963.9492	2361.6098	972.75	91.15
964.0803	2363.021	979.2	90.45
964.2114	2364.4315	975.65	90.45
964.3425	2365.8413	978.7	92.9
964.4736	2367.2504	973.7	93
964.6046	2368.6587	975.75	91.25
964.7356	2370.0664	976	93.15
964.8666	2371.4733	973.05	87.85
964.9975	2372.8795	973.25	86.1
965.1284	2374.285	973.65	88.9
965.2593	2375.6899	971.5	88.8
965.3901	2377.0939	971.75	85.75
965.5209	2378.4973	973.35	88.65
965.6517	2379.9	974.4	89.75
965.7825	2381.3019	974.3	87.9
965.9132	2382.7032	968.8	85.25
966.0439	2384.1037	968.7	87.1
966.1745	2385.5035	968.6	86.75
966.3051	2386.9027	971.55	88.2
966.4357	2388.3011	973.2	85.95
966.5663	2389.6987	972.95	90
966.6968	2391.0957	969.3	83.95
966.8273	2392.492	968.6	86
966.9578	2393.8876	966.6	80.3
967.0882	2395.2824	968	83.7
967.2186	2396.6765	969.75	87.35
967.349	2398.07	970.2	81.9
967.4793	2399.4627	968.25	83.55
967.6097	2400.8547	969.6	81.05
967.7399	2402.246	973.55	82.75
967.8702	2403.6366	968.6	81.9
968.0004	2405.0265	965.85	81
968.1306	2406.4156	967.25	75.8
968.2607	2407.8041	972.6	83.05
968.3909	2409.1918	970.5	83.6
968.521	2410.5789	964.3	78.95
968.651	2411.9652	969.85	80.25
968.781	2413.3508	963.7	76.85
968.911	2414.7358	968	82.55
969.041	2416.12	966.8	80.85
969.1709	2417.5035	962.25	77.1
969.3008	2418.8863	968.9	81.55
969.4307	2420.2684	962.6	77.75
969.5606	2421.6497	969.35	81.3
969.6904	2423.0304	965.9	81.05
969.8201	2424.4104	964.6	78.75
969.9499	2425.7896	965.5	73.2
970.0796	2427.1682	961.25	77.55
970.2093	2428.546	961.5	75.55
970.3389	2429.9232	967.1	81
970.4685	2431.2996	964.25	80.85
970.5981	2432.6753	964.75	78.3
970.7277	2434.0503	965.6	79.5
970.8572	2435.4246	962.4	76.55
970.9867	2436.7982	967.7	79.5
971.1161	2438.1711	961.4	76.45
971.2456	2439.5433	964.6	76.75
971.375	2440.9148	966.45	76.7
971.5043	2442.2856	961.1	75.4
971.6336	2443.6557	962.45	76.2
971.7629	2445.025	961.6	77.15
971.8922	2446.3937	965.2	77.85
972.0214	2447.7617	962.05	77.3
972.1506	2449.1289	960.7	77.65
972.2798	2450.4955	963.85	73.7
972.4089	2451.8613	957.5	73.75
972.538	2453.2265	957.45	72.4
972.6671	2454.5909	959.75	73.15
972.7961	2455.9546	959.1	74
972.9251	2457.3177	957.75	72.45
973.0541	2458.68	964.95	77.6
973.1831	2460.0416	959.45	75.2
973.312	2461.4025	959.8	70.75
973.4408	2462.7627	972.7	77.8
973.5697	2464.1222	956.3	72.3
973.6985	2465.4811	958.45	75.55
973.8273	2466.8392	958.15	73.7
973.956	2468.1966	958.3	70.95
974.0847	2469.5533	961.15	74.1
974.2134	2470.9093	959.35	74.8
974.3421	2472.2645	960.25	76
974.4707	2473.6191	955.75	71.05
974.5993	2474.973	955.15	70.8
974.7278	2476.3262	960.25	73.95
974.8563	2477.6787	953.35	69
974.9848	2479.0305	956.6	71.6
975.1132	2480.3816	959.25	72.3
975.2417	2481.7319	954.85	70.5
975.37	2483.0816	958.55	73.7
975.4984	2484.4306	956.4	69.25
975.6267	2485.7789	954.15	69.3
975.755	2487.1264	959.95	73.35
975.8833	2488.4733	954.45	70.85
976.0115	2489.8195	972	70.3
976.1397	2491.165	959.1	70.45
976.2678	2492.5097	955.9	71.05
976.3959	2493.8538	955.25	70.4
976.524	2495.1972	957.5	73.5
976.6521	2496.5398	955.65	70.3
976.7801	2497.8818	957.8	74.15
976.9081	2499.2231	952.85	67.75
977.036	2500.5637	956.2	70.4
977.164	2501.9035	953.4	67.9
977.2918	2503.2427	955.9	67.65
977.4197	2504.5812	955.3	70.6
977.5475	2505.919	954.7	68.6
977.6753	2507.256	953.2	71
977.8031	2508.5924	952.5	67.45
977.9308	2509.9281	959.4	70
978.0585	2511.2631	955.2	71.45
978.1861	2512.5974	950.35	65.7
978.3137	2513.9309	951.6	68.15
978.4413	2515.2638	979	69.25
978.5689	2516.596	949.35	66.1
978.6964	2517.9275	952.5	67.6
978.8239	2519.2583	951.3	66
978.9513	2520.5884	949.75	63.95
979.0788	2521.9178	948.3	64.7
979.2062	2523.2465	947.6	64.6
979.3335	2524.5745	948.9	65.25
979.4608	2525.9018	950.75	65.1
979.5881	2527.2284	950.25	69.15
979.7154	2528.5543	946.5	61.35
979.8426	2529.8796	946.85	61.85
979.9698	2531.2041	947.95	64.2
980.0969	2532.5279	948.35	64.25
980.224	2533.851	948.05	63.5
980.3511	2535.1735	947.25	63.2
980.4781	2536.4952	948.95	65.1
980.6052	2537.8163	950.7	66.25
980.7321	2539.1366	946.5	63.8
980.8591	2540.4562	948.1	62.85
980.986	2541.7752	944.7	62
981.1129	2543.0935	949.3	65.3
981.2397	2544.411	951.15	67.5
981.3665	2545.7279	947.8	62.95
981.4933	2547.0441	945.55	61.2
981.62	2548.3596	949.2	60.6
981.7467	2549.6744	948.4	63.15
981.8734	2550.9885	953.35	62
982.0001	2552.3019	951.3	68.2
982.1267	2553.6146	945.8	61.15
982.2532	2554.9266	948.35	64.15
982.3798	2556.2379	952.25	67.1
982.5063	2557.5485	943.85	60.45
982.6327	2558.8585	953.25	60.25
982.7592	2560.1677	949.45	63.55
982.8856	2561.4762	944.6	61.45
983.0119	2562.7841	949.95	64.65
983.1383	2564.0913	940.55	58.05
983.2646	2565.3977	947.45	62.85
983.3908	2566.7035	944.4	60.8
983.517	2568.0086	945.25	59.7
983.6432	2569.313	948.55	62.65
983.7694	2570.6167	949.05	61.7
983.8955	2571.9197	941.85	58.1
984.0216	2573.222	946.05	57.6
984.1476	2574.5236	946.05	59.15
984.2737	2575.8246	947.1	60.25
984.3996	2577.1248	947.1	61.8
984.5256	2578.4244	943.75	59.8
984.6515	2579.7232	944.9	61.2
984.7774	2581.0214	968.35	58.55
984.9032	2582.3189	944.65	61.25
985.029	2583.6157	949.9	62.05
985.1548	2584.9118	943.6	59.9
985.2806	2586.2072	941.5	57.4
985.4063	2587.5019	942.75	59.05
985.5319	2588.7959	943.25	58.85
985.6576	2590.0893	944.3	58.85
985.7832	2591.3819	943.75	58
985.9087	2592.6739	945.9	61.05
986.0343	2593.9652	944.55	60.35
986.1597	2595.2557	946.3	61.45
986.2852	2596.5456	946.6	60
986.4106	2597.8348	942.6	59.35
986.536	2599.1234	942.75	57.1
986.6614	2600.4112	945.3	62.1
986.7867	2601.6983	947.5	57.8
986.912	2602.9848	945.1	59.75
987.0372	2604.2705	949.3	58.45
987.1624	2605.5556	943.85	61.15
987.2876	2606.84	942.35	61.35
987.4128	2608.1237	946.45	61.15
987.5379	2609.4067	942.4	59.2
987.6629	2610.689	948.65	55.35
987.788	2611.9707	944.35	55.05
987.913	2613.2516	945.2	57.15
988.0379	2614.5319	941.15	57.75
988.1629	2615.8115	940.65	57.85
988.2878	2617.0903	939.3	52.55
988.4126	2618.3685	938.35	53.9
988.5375	2619.6461	939.45	57.05
988.6622	2620.9229	939.05	55.55
988.787	2622.199	938.2	55.15
988.9117	2623.4745	940.1	57
989.0364	2624.7493	939.95	56.5
989.161	2626.0234	938.5	57.6
989.2857	2627.2968	940.15	54.5
989.4102	2628.5695	936.55	50.9
989.5348	2629.8415	938.5	57.2
989.6593	2631.1128	938.95	53.85
989.7837	2632.3835	936.35	54
989.9082	2633.6535	937.95	54.9
990.0326	2634.9228	934.95	52.9
990.1569	2636.1914	935.9	53.35
990.2812	2637.4593	937.9	52.7
990.4055	2638.7265	938.55	54.8
990.5298	2639.9931	940.45	57.45
990.654	2641.259	936.6	51.65
990.7782	2642.5242	935.15	51.5
990.9023	2643.7887	935.95	51.05
991.0264	2645.0525	938.05	52.85
991.1505	2646.3156	935.3	50.25
991.2745	2647.5781	936.3	51.7
991.3985	2648.8398	935.4	52.45
991.5225	2650.1009	943.75	49.2
991.6464	2651.3613	931.3	47.3
991.7703	2652.6211	931.75	48.25
991.8942	2653.8801	928.8	42.15
992.018	2655.1385	932.7	47.7
992.1418	2656.3961	936.05	52.55
992.2655	2657.6531	934.05	51.15
992.3892	2658.9094	932.6	49.25
992.5129	2660.1651	932.1	49.25
992.6366	2661.42	932.2	48.7
992.7602	2662.6743	933.2	49
992.8837	2663.9279	933.65	52.8
993.0073	2665.1808	933.1	50.5
993.1307	2666.433	935.25	50.5
993.2542	2667.6846	932.6	50.45
993.3776	2668.9354	938.1	51.9
993.501	2670.1856	934.6	49.6
993.6244	2671.4351	933.65	51.8
993.7477	2672.6839	934.25	49.1
993.8709	2673.9321	933.35	53.8
993.9942	2675.1795	935.3	52.25
994.1174	2676.4263	935.15	52.6
994.2405	2677.6724	935.4	54.5
994.3637	2678.9179	932.8	49.1
994.4868	2680.1626	934	52.1
994.6098	2681.4067	934.5	51.35
994.7328	2682.6501	935.35	53.75
994.8558	2683.8928	931.85	48.55
994.9788	2685.1348	930.25	46.7
995.1017	2686.3761	931.1	48.3
995.2245	2687.6168	930.1	46.85
995.3474	2688.8568	930.95	49.4
995.4702	2690.0961	931.5	49.25
995.5929	2691.3348	928.35	45.35
995.7156	2692.5727	931.45	48.95
995.8383	2693.81	929.7	47.15
995.961	2695.0466	927.8	47
996.0836	2696.2826	932.25	48.6
996.2062	2697.5178	949.2	45.85
996.3287	2698.7524	932.85	50.25
996.4512	2699.9863	932.6	47.1
996.5737	2701.2195	927.25	45.3
996.6961	2702.452	928.9	45.15
996.8185	2703.6839	933.9	50.8
996.9408	2704.9151	928.35	47.1
997.0631	2706.1456	929.35	44.95
997.1854	2707.3755	930.55	47.95
997.3077	2708.6046	933.85	49.9
997.4299	2709.8331	930.9	48.45
997.552	2711.0609	928.9	45.75
997.6742	2712.2881	930.5	48.8
997.7963	2713.5145	935.7	51.35
997.9183	2714.7403	933.05	50.8
998.0403	2715.9654	936.25	49.85
998.1623	2717.1899	950.25	55.1
998.2842	2718.4136	936.6	55
998.4062	2719.6367	935.05	53.5
998.528	2720.8591	945.05	56.35
998.6498	2722.0809	934.1	52.05
998.7716	2723.3019	942.65	60.05
998.8934	2724.5223	941.25	58.3
999.0151	2725.7421	938.85	55.85
999.1368	2726.9611	941.3	57.35
999.2584	2728.1795	941.95	54.65
999.38	2729.3972	938.65	57.35
999.5016	2730.6142	942.45	52.3
999.6231	2731.8306	936.25	53.7
999.7446	2733.0462	932.85	47.6
999.8661	2734.2612	934.6	46.9
999.9875	2735.4756	931.6	47.6
1000.1089	2736.6892	930.8	47.6
1000.2302	2737.9022	928.3	46
1000.3515	2739.1145	929.65	49.9
1000.4728	2740.3262	934.35	44.85
1000.594	2741.5372	927.2	45.3
1000.7152	2742.7475	928.35	46.8
1000.8363	2743.9571	928.6	45.05
1000.9575	2745.1661	931.45	44.2
1001.0785	2746.3744	925.8	39.7
1001.1996	2747.582	923.75	40.3
1001.3206	2748.7889	924.05	40
1001.4415	2749.9952	925	43.8
1001.5625	2751.2008	923.65	40.95
1001.6833	2752.4057	924.9	43.15
1001.8042	2753.61	925.9	45.7
1001.925	2754.8136	921.65	39.6
1002.0458	2756.0165	922.65	40.8
1002.1665	2757.2188	920.65	39.25
1002.2872	2758.4204	922.7	40.1
1002.4078	2759.6213	927.4	41.1
1002.5285	2760.8215	928.2	42.6
1002.649	2762.0211	924.35	39.35
1002.7696	2763.22	927	43.15
1002.8901	2764.4182	924.55	40.95
1003.0106	2765.6158	920.45	38.3
1003.131	2766.8127	919.8	38.1
1003.2514	2768.009	921.8	40.1
1003.3717	2769.2045	921.45	40.9
1003.492	2770.3994	921.65	39.5
1003.6123	2771.5936	920.1	35.4
1003.7325	2772.7872	917.4	37.4
1003.8527	2773.9801	921	39.1
1003.9729	2775.1723	935.75	37.15
1004.093	2776.3639	916.45	36.5
1004.2131	2777.5548	921.35	36.8
1004.3331	2778.745	920.25	37.85
1004.4531	2779.9346	918.65	36.85
1004.5731	2781.1235	918.75	36.1
1004.693	2782.3117	919.25	39.35
1004.8129	2783.4992	920.65	40.1
1004.9328	2784.6861	920.3	39.55
1005.0526	2785.8723	921.65	38.55
1005.1723	2787.0579	919.4	38.1
1005.2921	2788.2428	916.85	35.75
1005.4118	2789.427	920.25	39.95
1005.5314	2790.6106	918.6	39.3
1005.651	2791.7935	916.15	33.55
1005.7706	2792.9757	916.2	36.2
1005.8902	2794.1573	922.65	37.35
1006.0097	2795.3382	921.4	38.25
1006.1291	2796.5184	915.85	36.05
1006.2485	2797.698	921.65	39
1006.3679	2798.8769	921.2	39.7
1006.4873	2800.0551	921.75	41.75
1006.6066	2801.2327	921.15	37.45
1006.7258	2802.4096	918.45	37.7
1006.8451	2803.5859	919.5	37.25
1006.9642	2804.7615	922.35	39.55
1007.0834	2805.9364	922.9	45.05
1007.2025	2807.1106	923.6	43.2
1007.3216	2808.2842	926.25	45.6
1007.4406	2809.4572	924.9	43.25
1007.5596	2810.6294	927.35	43.95
1007.6785	2811.801	923.85	43.6
1007.7975	2812.972	927.75	46.85
1007.9163	2814.1423	928.85	50.25
1008.0352	2815.3119	933.7	52.05
1008.154	2816.4808	934.1	53.75
1008.2727	2817.6491	936.3	54.4
1008.3914	2818.8167	936.25	57.35
1008.5101	2819.9837	946.1	61.7
1008.6288	2821.15	946.7	65.3
1008.7474	2822.3157	951.7	70.75
1008.8659	2823.4807	955.3	74
1008.9844	2824.645	963.1	79.85
1009.1029	2825.8086	966.85	87.7
1009.2214	2826.9716	971.05	90.4
1009.3398	2828.134	983.05	103.25
1009.4581	2829.2957	986.4	104.5
1009.5764	2830.4567	993.85	114.55
1009.6947	2831.617	997.4	116.55
1009.813	2832.7767	997.9	119.05
1009.9312	2833.9358	997.7	117.85
1010.0493	2835.0941	1000.75	118.4
1010.1675	2836.2519	992.5	113.45
1010.2855	2837.4089	993.25	111.45
1010.4036	2838.5653	986.8	107.8
1010.5216	2839.7211	982.6	101.8
1010.6396	2840.8761	985.55	103.5
1010.7575	2842.0306	982.5	103.5
1010.8754	2843.1843	982.3	103.1
1010.9932	2844.3374	983.75	104.25
1011.111	2845.4899	982.75	100.8
1011.2288	2846.6417	982.9	102.55
1011.3465	2847.7928	986.15	107.75
1011.4642	2848.9433	985.8	104.7
1011.5818	2850.0931	989.65	110.4
1011.6995	2851.2422	994.2	113.35
1011.817	2852.3907	994.25	113.5
1011.9345	2853.5385	996.4	115.55
1012.052	2854.6857	1021.6	113.5
1012.1695	2855.8323	997.6	117.85
1012.2869	2856.9781	1002.95	122.8
1012.4042	2858.1233	1003.45	123.75
1012.5216	2859.2679	1005.55	125.8
1012.6389	2860.4118	1006.7	126.45
1012.7561	2861.555	1016.95	131.65
1012.8733	2862.6976	1010.55	128.8
1012.9905	2863.8395	1015.05	135.3
1013.1076	2864.9808	1017.65	136.15
1013.2247	2866.1214	1013.3	135.75
1013.3417	2867.2614	1017.2	137.25
1013.4587	2868.4007	1025.6	143.55
1013.5757	2869.5393	1020.6	138.2
1013.6926	2870.6773	1025.5	141.2
1013.8095	2871.8146	1025.85	140.4
1013.9263	2872.9513	1026.05	140.4
1014.0431	2874.0874	1025	142.5
1014.1599	2875.2227	1024.3	144.55
1014.2766	2876.3574	1031.8	150.9
1014.3933	2877.4915	1030.85	150.25
1014.51	2878.6249	1031.7	152.9
1014.6266	2879.7577	1039.7	158.4
1014.7431	2880.8898	1046.05	155.85
1014.8596	2882.0212	1036.1	157.75
1014.9761	2883.152	1041.55	157.85
1015.0925	2884.2821	1040.65	163.1
1015.2089	2885.4116	1046.25	165.85
1015.3253	2886.5405	1040	162.75
1015.4416	2887.6686	1049	165.05
1015.5579	2888.7962	1047.1	169.35
1015.6741	2889.923	1040.5	162.9
1015.7903	2891.0493	1041.45	162.15
1015.9065	2892.1748	1046.1	166
1016.0226	2893.2997	1043.85	162.6
1016.1387	2894.424	1037.9	157.55
1016.2547	2895.5476	1044.55	166.5
1016.3707	2896.6706	1046.6	167.15
1016.4866	2897.7929	1044.4	161.75
1016.6025	2898.9145	1045.95	166.5
1016.7184	2900.0355	1047.5	164.65
1016.8342	2901.1559	1045	166.05
1016.95	2902.2756	1053.8	169.85
1017.0658	2903.3946	1043.3	163.6
1017.1815	2904.513	1044.2	161.35
1017.2971	2905.6308	1043.25	162.8
1017.4127	2906.7479	1041.1	158.55
1017.5283	2907.8643	1048.6	168.35
1017.6439	2908.9801	1042.9	162.15
1017.7594	2910.0953	1044.1	162.75
1017.8748	2911.2098	1047.5	164.9
1017.9902	2912.3236	1049.25	163.95
1018.1056	2913.4368	1044.1	159.9
1018.2209	2914.5494	1044.35	165.85
1018.3362	2915.6613	1044.45	159.15
1018.4515	2916.7725	1042.65	158.5
1018.5667	2917.8831	1035.2	155.4
1018.6819	2918.9931	1039.1	154.6
1018.797	2920.1024	1033.05	151.5
1018.9121	2921.211	1029.2	149.8
1019.0271	2922.319	1027.45	146.9
1019.1421	2923.4264	1025	145.3
1019.2571	2924.5331	1022.15	144.05
1019.372	2925.6391	1028	148.1
1019.4869	2926.7445	1027.55	147.95
1019.6017	2927.8493	1028.1	148.85
1019.7165	2928.9534	1028.7	148.9
1019.8313	2930.0569	1031.05	147.05
1019.946	2931.1597	1033.95	152.8
1020.0606	2932.2619	1026.85	146.6
1020.1753	2933.3634	1028.05	147.9
1020.2899	2934.4643	1035.15	147.2
1020.4044	2935.5645	1036.65	150.6
1020.5189	2936.6641	1040.55	155.05
1020.6334	2937.763	1029.7	149.3
1020.7478	2938.8613	1032.1	152.5
1020.8622	2939.959	1034.9	150.2
1020.9765	2941.056	1021.7	142.8
1021.0908	2942.1523	1022.75	140.2
1021.2051	2943.248	1014.3	134.1
1021.3193	2944.3431	1005.35	125.25
1021.4334	2945.4375	1000.8	122.15
1021.5476	2946.5313	996.5	118.75
1021.6617	2947.6244	989.4	110.15
1021.7757	2948.7169	981.35	101.25
1021.8897	2949.8087	979.55	100.6
1022.0037	2950.8999	972.85	92.15
1022.1176	2951.9904	967.75	88.15
1022.2315	2953.0803	965.2	83.3
1022.3453	2954.1696	958.55	79.25
1022.4591	2955.2582	958.45	78.5
1022.5728	2956.3462	954.9	76.85
1022.6865	2957.4335	954.4	73.85
1022.8002	2958.5202	956.55	74.9
1022.9138	2959.6062	949.9	70.75
1023.0274	2960.6916	955.05	76.7
1023.141	2961.7764	955.35	74.6
1023.2545	2962.8605	953.35	73.4
1023.3679	2963.9439	952.9	72.15
1023.4813	2965.0267	955.3	73.65
1023.5947	2966.1089	975.75	74.5
1023.708	2967.1905	950.4	70.85
1023.8213	2968.2714	949.5	71.2
1023.9346	2969.3516	949.85	71.15
1024.0478	2970.4312	957.15	72.3
1024.1609	2971.5102	946.7	69.2
1024.274	2972.5885	951.85	74.4
1024.3871	2973.6662	956	71.45
1024.5002	2974.7432	952.3	75.1
1024.6132	2975.8196	952.15	71.9
1024.7261	2976.8954	951.95	74.8
1024.839	2977.9705	953.7	73.75
1024.9519	2979.045	951.05	73.95
1025.0647	2980.1188	950.1	71.4
1025.1775	2981.192	949.15	70.35
1025.2902	2982.2645	951.2	70.9
1025.4029	2983.3364	950.1	72.9
1025.5156	2984.4077	946.25	67.4
1025.6282	2985.4783	950.6	67.15
1025.7407	2986.5483	941.05	62.7
1025.8532	2987.6177	942.05	64.1
1025.9657	2988.6864	941.6	62.75
1026.0782	2989.7545	937.9	55.45
1026.1906	2990.8219	936.45	58.9
1026.3029	2991.8887	932.85	52.35
1026.4152	2992.9548	930.95	50
1026.5275	2994.0204	927.7	49.1
1026.6397	2995.0852	922.65	44.75
1026.7519	2996.1495	919.7	40.6
1026.864	2997.2131	922.35	43.8
1026.9761	2998.276	917.5	38.75
1027.0882	2999.3383	918	38.05
1027.2002	3000.4	915.55	35.35
1027.3122	3001.4611	914.05	36.85
1027.4241	3002.5215	909.85	30.95
1027.536	3003.5812	912.2	34.3
1027.6478	3004.6404	908.4	30.95
1027.7596	3005.6989	910.6	29.95
1027.8714	3006.7567	910.2	29.5
1027.9831	3007.8139	936.75	28.5
1028.0947	3008.8705	909.75	30.15
1028.2064	3009.9264	912.05	29.25
1028.3179	3010.9818	906.4	27.25
1028.4295	3012.0364	903.65	24.6
1028.541	3013.0905	906.2	27.15
1028.6524	3014.1439	904.25	25.7
1028.7638	3015.1966	904.65	26.85
1028.8752	3016.2487	904.85	25.2
1028.9865	3017.3002	908.55	25.55
1029.0978	3018.3511	904.75	26.45
1029.209	3019.4013	905.1	26.25
1029.3202	3020.4509	903.75	24.15
1029.4314	3021.4998	902.7	23.45
1029.5425	3022.5481	900.55	22.55
1029.6535	3023.5958	900.7	22.5
1029.7645	3024.6428	901.55	20.6
1029.8755	3025.6892	901.25	23.45
1029.9864	3026.735	900.7	19.75
1030.0973	3027.7802	901.6	22.8
1030.2082	3028.8247	901.85	22.9
1030.319	3029.8685	903.2	23.55
1030.4297	3030.9118	901.1	21.7
1030.5404	3031.9544	900	22.05
1030.6511	3032.9963	901.55	24.55
1030.7617	3034.0376	903.65	26.45
1030.8723	3035.0783	903.4	21.7
1030.9829	3036.1184	905.05	25.2
1031.0934	3037.1578	901.1	23.15
1031.2038	3038.1966	902.05	22.45
1031.3142	3039.2348	900.95	22.7
1031.4246	3040.2723	908.75	20.35
1031.5349	3041.3092	902.7	24.5
1031.6452	3042.3455	901.95	21.75
1031.7554	3043.3811	903.35	25.6
1031.8656	3044.4161	901.2	21.8
1031.9758	3045.4505	901.7	24.5
1032.0859	3046.4842	902.6	22.4
1032.1959	3047.5173	900.1	23.45
1032.3059	3048.5498	901.35	21.15
1032.4159	3049.5816	901.3	22.05
1032.5258	3050.6128	903.1	22.3
1032.6357	3051.6434	903.4	25.35
1032.7455	3052.6734	902.55	22.05
1032.8553	3053.7027	903.55	23.95
1032.9651	3054.7314	901.5	23.35
1033.0748	3055.7594	900.8	23.45
1033.1845	3056.7868	901.35	22.2
1033.2941	3057.8136	903.3	24.65
1033.4037	3058.8398	902.6	24.05
1033.5132	3059.8653	902.65	25.4
1033.6227	3060.8902	902.65	24.25
1033.7321	3061.9145	902.35	24.6
1033.8415	3062.9381	905.6	27.25
1033.9509	3063.9612	918.05	22.9
1034.0602	3064.9835	904.9	26.9
1034.1694	3066.0053	907.1	26.55
1034.2787	3067.0264	902.85	24.6
1034.3878	3068.0469	904.75	23.7
1034.497	3069.0668	907.3	25.6
1034.6061	3070.086	901.5	23.65
1034.7151	3071.1046	904	23.1
1034.8241	3072.1226	904.7	26.2
1034.9331	3073.1399	903.85	25.6
1035.042	3074.1567	903.2	23.75
1035.1508	3075.1727	902.9	22.5
1035.2597	3076.1882	901.35	23.75
1035.3684	3077.203	899.75	22.15
1035.4772	3078.2173	900.85	20.1
1035.5859	3079.2308	901.9	21
1035.6945	3080.2438	902.2	21.8
1035.8031	3081.2561	899.95	20.05
1035.9117	3082.2678	899.4	21.75
1036.0202	3083.2789	898.15	19.65
1036.1286	3084.2893	896.2	20.15
1036.2371	3085.2991	897.25	17.6
1036.3454	3086.3083	901.55	18.5
1036.4538	3087.3169	899.95	19.55
1036.562	3088.3248	899.3	18.7
1036.6703	3089.3321	896.25	15.1
1036.7785	3090.3388	894.65	17.3
1036.8866	3091.3449	896.8	19.2
1036.9948	3092.3503	899.45	18.2
1037.1028	3093.3551	893.65	15.6
1037.2108	3094.3593	892.65	15.4
1037.3188	3095.3629	893.5	15.95
1037.4267	3096.3658	895.3	14.45
1037.5346	3097.3681	895.35	18.9
1037.6425	3098.3698	897.8	17
1037.7503	3099.3708	895.9	17.55
1037.858	3100.3713	892.6	14.7
1037.9657	3101.3711	894.9	16.55
1038.0734	3102.3702	1030.6	15.05
1038.181	3103.3688	895.55	17.1
1038.2886	3104.3667	892.5	16.05
1038.3961	3105.364	892.3	14.8
1038.5036	3106.3607	896.8	15.3
1038.611	3107.3568	895.25	17.05
1038.7184	3108.3522	892.95	15.75
1038.8257	3109.347	892.4	11.3
1038.933	3110.3412	895.45	13.65
1039.0403	3111.3348	890.85	13.5
1039.1475	3112.3277	889.7	10.35
1039.2547	3113.32	890.45	14.2
1039.3618	3114.3117	892.65	14.55
1039.4689	3115.3028	893.25	16.95
1039.5759	3116.2932	892.45	11.25
1039.6829	3117.2831	897.65	13.5
1039.7898	3118.2723	891.7	11.75
1039.8967	3119.2608	889.45	10.4
1040.0035	3120.2488	891.2	13.25
1040.1103	3121.2361	890.7	12.3
1040.2171	3122.2229	890.05	11.65
1040.3238	3123.209	889.05	9.65
1040.4305	3124.1944	889.55	12.6
1040.5371	3125.1793	888.6	10.85
1040.6437	3126.1635	889.6	11.45
1040.7502	3127.1471	889.4	11.75
1040.8567	3128.1301	888.75	10.85
1040.9631	3129.1125	889.4	11.45
1041.0695	3130.0942	887.65	8.1
1041.1759	3131.0753	898.2	10.9
1041.2822	3132.0558	893	12.5
1041.3884	3133.0357	889.3	10.9
1041.4946	3134.015	888.15	8.7
1041.6008	3134.9936	891.55	11.9
1041.7069	3135.9716	908.55	8.75
1041.813	3136.949	889.1	10.6
1041.919	3137.9258	907.6	11.45
1042.025	3138.902	893.95	10.65
1042.1309	3139.8775	887.15	8.45
1042.2368	3140.8524	888.65	10.3
1042.3427	3141.8267	889.45	9.35
1042.4485	3142.8004	888.75	9.6
1042.5542	3143.7735	896.2	11.65
1042.6599	3144.7459	890.1	10.05
1042.7656	3145.7178	888.85	9
1042.8712	3146.689	886.5	9.2
1042.9768	3147.6596	885.8	5.2
1043.0823	3148.6295	887.85	9.65
1043.1878	3149.5989	888.15	8.25
1043.2932	3150.5676	886.25	9.5
1043.3986	3151.5357	886.3	10.4
1043.5039	3152.5032	886.4	10.25
1043.6092	3153.4701	888.8	12.3
1043.7145	3154.4364	889.4	8.65
1043.8197	3155.402	886.85	8.35
1043.9248	3156.367	888.35	9.7
1044.03	3157.3315	925	11.55
1044.135	3158.2952	887.6	9
1044.24	3159.2584	885.9	9.15
1044.345	3160.221	885.1	6.05
1044.4499	3161.1829	886.65	9.2
1044.5548	3162.1442	886.75	9.4
1044.6596	3163.105	886.7	10
1044.7644	3164.065	888.05	11.2
1044.8692	3165.0245	888.3	10.5
1044.9739	3165.9834	885.85	10.7
1045.0785	3166.9416	885.1	8.05
1045.1831	3167.8993	885.9	5.25
1045.2877	3168.8563	887.95	8.05
1045.3922	3169.8127	885.65	6.1
1045.4966	3170.7684	885.2	7.3
1045.6011	3171.7236	884.95	4.95
1045.7054	3172.6782	886.4	7.95
1045.8098	3173.6321	886.65	8.65
1045.914	3174.5854	890.05	6.4
1046.0183	3175.5381	885.35	7.65
1046.1224	3176.4902	885.8	8.15
1046.2266	3177.4417	884.65	7.15
1046.3307	3178.3926	884.35	7.45
1046.4347	3179.3428	885.6	9.25
1046.5387	3180.2924	887.65	10.8
1046.6427	3181.2415	886.15	5.7
1046.7466	3182.1899	886.55	9
1046.8504	3183.1377	882.2	4.75
1046.9542	3184.0848	889.2	9.05
1047.058	3185.0314	885.25	6.8
1047.1617	3185.9773	885.15	5.35
1047.2654	3186.9227	885.95	8.85
1047.369	3187.8674	886.2	6.85
1047.4726	3188.8115	890.05	8.1
1047.5761	3189.755	884.5	5.25
1047.6796	3190.6979	885.55	7.4
1047.783	3191.6402	882.4	5.9
1047.8864	3192.5818	882.55	4.35
1047.9898	3193.5229	904.85	9.1
1048.0931	3194.4633	884.35	7.3
1048.1963	3195.4031	884.05	4.85
1048.2995	3196.3423	884.25	5.65
1048.4027	3197.2809	886.25	6.75
1048.5058	3198.2189	884.3	5.75
1048.6089	3199.1563	901.9	7.5
1048.7119	3200.0931	884.7	8.45
1048.8148	3201.0292	883.45	5.75
1048.9178	3201.9648	883.85	6.8
1049.0206	3202.8997	884.25	3.35
1049.1235	3203.834	882.75	5.5
1049.2262	3204.7677	884.05	6.55
1049.329	3205.7008	886.3	6.85
1049.4317	3206.6333	884.55	8.65
1049.5343	3207.5652	885.85	4.05
1049.6369	3208.4964	884.6	6.15
1049.7394	3209.4271	882.2	4.95
1049.8419	3210.3571	885.35	6.4
1049.9444	3211.2865	884.5	6.95
1050.0468	3212.2154	884.15	6.25
1050.1491	3213.1436	887.75	7.05
1050.2514	3214.0712	889.3	5.9
1050.3537	3214.9982	885.2	8.3
1050.4559	3215.9246	885.45	7.8
1050.5581	3216.8503	882.9	4.8
1050.6602	3217.7755	884.05	4.45
1050.7623	3218.7001	882.3	4.5
1050.8643	3219.624	884.95	8.1
1050.9663	3220.5473	886.15	7.8
1051.0682	3221.4701	884.9	7.5
1051.1701	3222.3922	887	7.4
1051.2719	3223.3137	882.7	6.95
1051.3737	3224.2346	885.4	7.6
1051.4754	3225.1549	882.8	5.1
1051.5771	3226.0746	882.25	3.45
1051.6788	3226.9937	885	7.4
1051.7804	3227.9121	882.4	6.65
1051.8819	3228.83	881.7	2.45
1051.9834	3229.7473	884.95	7.7
1052.0849	3230.6639	883	3.75
1052.1863	3231.5799	883.6	4.3
1052.2876	3232.4954	883.65	5.4
1052.3889	3233.4102	883.7	4.65
1052.4902	3234.3244	882.95	4.85
1052.5914	3235.238	881.25	3.3
1052.6926	3236.151	904.85	2.75
1052.7937	3237.0634	883.8	6.35
1052.8948	3237.9752	883.2	4.95
1052.9958	3238.8864	884	6.55
1053.0968	3239.797	882.55	4.7
1053.1977	3240.7069	883.2	4.85
1053.2986	3241.6163	884.9	3.75
1053.3994	3242.5251	881.65	4.4
1053.5002	3243.4332	881.8	4.4
1053.6009	3244.3408	884.7	6.05
1053.7016	3245.2477	883.65	7.45
1053.8022	3246.154	885.2	7.7
1053.9028	3247.0598	884.65	6.75
1054.0034	3247.9649	883.15	4.7
1054.1039	3248.8694	882.8	5.45
1054.2043	3249.7733	882.7	2.15
1054.3047	3250.6766	883.9	5.6
1054.4051	3251.5793	882.35	2.45
1054.5054	3252.4814	881.6	3.6
1054.6056	3253.3829	882.85	4.6
1054.7058	3254.2838	878.9	0.55
1054.806	3255.1841	882.5	5.5
1054.9061	3256.0838	880.5	3.75
1055.0061	3256.9829	881.4	3.1
1055.1062	3257.8814	883.45	4.7
1055.2061	3258.7792	883.2	2.25
1055.306	3259.6765	882.35	5.35
1055.4059	3260.5731	879.7	3.4
1055.5057	3261.4692	883.25	6.1
1055.6055	3262.3647	881.1	0.3
1055.7052	3263.2595	882	4.45
1055.8049	3264.1538	882.8	5.45
1055.9045	3265.0474	883.45	5.05
1056.0041	3265.9404	880.75	4.4
1056.1036	3266.8329	880.85	6.1
1056.2031	3267.7247	893.75	6.1
1056.3025	3268.616	880.75	6.25
1056.4019	3269.5066	882	4.35
1056.5013	3270.3966	883.25	4.1
1056.6005	3271.286	879	2.5
