Software Version:	3.9.2.0
Unit SN:	10000200
Spectrometer SN:	6960
Date:	3/8/2024 11:19:50 AM
Data Line Index:	25
Spectral Points:	2048
Integration time (ms):	125
Averages:	20
Delay (ms):	30000
Sequence Number:	1
Processing:	dark subtract
Laser Power (mW):	300
Laser Current (mA):	822
Laser Diode Temp (C):	25.1
Laser Case Temp (C):	24.8
System Temp (C):	24.7
Spectrometer Temp (C):	22.7
CCD Temp (C):	0
Secondary Temp (C):	20.008
Heatsink Temp (C):	19.546
CCDPCB Temp (C):	33.106
SecondaryPCB Temp (C):	26.436

Wavelength	RamanShift	Raw Counts	Dark Subtracted
787.061	30.1047	416.6	7.95
787.2016	32.3739	416.5	9.6
787.3422	34.6426	418.15	9.35
787.4828	36.9109	420.75	8.65
787.6235	39.1787	426.05	12.55
787.7642	41.4461	430.2	11.6
787.9049	43.7131	435.05	12.45
788.0456	45.9796	438	12.85
788.1863	48.2456	440.85	12.4
788.3271	50.5112	448.65	15.75
788.4679	52.7764	448.55	13.2
788.6087	55.0411	456.4	17.5
788.7496	57.3054	460.3	15.25
788.8904	59.5692	464.85	17.95
789.0313	61.8326	469.2	20.7
789.1722	64.0955	475.15	23.7
789.3132	66.3579	480.55	25.2
789.4541	68.6199	486.95	26.55
789.5951	70.8815	499.15	32.95
789.7361	73.1426	523.65	52.75
789.8771	75.4032	568.55	96.2
790.0181	77.6634	668.35	193.55
790.1592	79.9231	899.55	418.65
790.3003	82.1824	1387.85	900
790.4414	84.4412	2184.35	1684.75
790.5825	86.6995	3190.2	2676.15
790.7237	88.9574	4175.4	3651.65
790.8648	91.2148	4837.45	4304.5
791.006	93.4717	5129.75	4592.6
791.1472	95.7282	5219.15	4677.1
791.2885	97.9842	5189.4	4646.7
791.4297	100.2398	5118.65	4572.85
791.571	102.4949	5054.35	4505.2
791.7123	104.7495	5012.85	4460.45
791.8536	107.0036	4932.6	4379
791.9949	109.2573	4850.2	4297.05
792.1363	111.5105	4746.45	4191.45
792.2777	113.7632	4617.2	4060.75
792.4191	116.0154	4486.2	3917.1
792.5605	118.2672	4344.75	3782.5
792.7019	120.5185	4200.65	3636.25
792.8434	122.7693	4075.6	3510.45
792.9849	125.0197	3960.65	3390.2
793.1264	127.2696	3843.2	3268.55
793.2679	129.519	3764.6	3186.75
793.4094	131.7679	3724.85	3144.45
793.551	134.0163	3694.15	3110.75
793.6926	136.2642	3682.95	3096.5
793.8342	138.5117	3684	3096.7
793.9758	140.7587	3656.35	3068.05
794.1175	143.0052	3602.1	3008.9
794.2591	145.2512	3522.95	2929.65
794.4008	147.4967	3444.05	2850.25
794.5425	149.7417	3387.9	2790.45
794.6842	151.9863	3336.4	2734
794.826	154.2304	3321.35	2714.8
794.9677	156.4739	3305.95	2694.55
795.1095	158.717	3327.95	2715
795.2513	160.9596	3356.75	2739.65
795.3931	163.2017	3398.35	2781.3
795.535	165.4433	3445.5	2825.6
795.6768	167.6844	3448.8	2824.3
795.8187	169.925	3403.55	2778.6
795.9606	172.1651	3333.8	2705.55
796.1025	174.4047	3262.3	2628.95
796.2445	176.6439	3200.75	2566.15
796.3864	178.8825	3151.75	2512.1
796.5284	181.1206	3130.65	2486
796.6704	183.3582	3109.4	2462.95
796.8124	185.5954	3109.75	2462.75
796.9544	187.832	3103.75	2454.6
797.0965	190.0681	3106.35	2449.25
797.2386	192.3037	3119.9	2463.1
797.3806	194.5388	3117.6	2459.9
797.5228	196.7734	3133.85	2472.05
797.6649	199.0075	3160.7	2501.15
797.807	201.2411	3192.35	2529.35
797.9492	203.4742	3222.15	2556.9
798.0914	205.7068	3249.6	2578.7
798.2336	207.9389	3282.55	2607
798.3758	210.1704	3316.75	2650.5
798.518	212.4015	3300.8	2644.75
798.6603	214.632	3301.75	2654.7
798.8025	216.862	3303.35	2656.15
798.9448	219.0915	3319.55	2669.65
799.0871	221.3205	3351	2696.85
799.2294	223.549	3355.15	2708.3
799.3718	225.777	3357.55	2706.55
799.5141	228.0044	3342.35	2684.85
799.6565	230.2314	3358.6	2700.75
799.7989	232.4578	3339.15	2678.25
799.9413	234.6837	3314.7	2644.65
800.0837	236.909	3307.05	2635.7
800.2262	239.1339	3286.9	2592.65
800.3687	241.3582	3278.85	2595.85
800.5111	243.582	3290.75	2577.55
800.6536	245.8053	3289	2592.9
800.7961	248.0281	3295.65	2601.5
800.9387	250.2503	3305	2605.85
801.0812	252.472	3323.6	2621.2
801.2238	254.6932	3328.8	2628.55
801.3664	256.9139	3325.75	2624.05
801.509	259.134	3348.1	2641.9
801.6516	261.3536	3379.9	2677.55
801.7942	263.5727	3421.65	2717.15
801.9369	265.7912	3487.1	2783.35
802.0795	268.0092	3584.65	2878.5
802.2222	270.2267	3655.75	2951.4
802.3649	272.4436	3737.75	3027.8
802.5076	274.6601	3787.75	3068.3
802.6504	276.8759	3820.15	3107.6
802.7931	279.0913	3849.95	3134.7
802.9359	281.3061	3863.2	3147.35
803.0787	283.5204	3907.15	3189.8
803.2215	285.7341	3941.25	3218
803.3643	287.9473	3975.6	3252.15
803.5071	290.16	3971.15	3247.3
803.6499	292.3721	3931.35	3212.25
803.7928	294.5837	3862.3	3142.9
803.9357	296.7947	3799.25	3080.45
804.0786	299.0052	3768.2	3044.65
804.2215	301.2152	3736.15	3010.05
804.3644	303.4246	3736.8	3015.6
804.5074	305.6334	3713.1	2990.4
804.6503	307.8418	3701.8	2972.85
804.7933	310.0495	3680.65	2953.2
804.9363	312.2568	3637.35	2911.45
805.0793	314.4635	3561.3	2831.6
805.2223	316.6696	3491.25	2758.6
805.3653	318.8752	3426.6	2686
805.5084	321.0802	3374.1	2639.65
805.6514	323.2847	3379	2641.6
805.7945	325.4887	3384.55	2647.65
805.9376	327.692	3398.65	2661.3
806.0807	329.8949	3464.2	2724.15
806.2238	332.0972	3532.9	2788.9
806.367	334.2989	3583.95	2841.15
806.5101	336.5001	3581.65	2837.5
806.6533	338.7007	3542.25	2797.65
806.7965	340.9008	3477.85	2729.2
806.9397	343.1003	3401.85	2650.6
807.0829	345.2992	3331.55	2579.7
807.2261	347.4976	3254.65	2504.35
807.3693	349.6955	3211.05	2455.3
807.5126	351.8927	3178.35	2422.65
807.6559	354.0895	3160	2393.25
807.7991	356.2856	3125.25	2367.75
807.9424	358.4812	3108.75	2351.35
808.0857	360.6763	3105.45	2341.25
808.2291	362.8707	3102.65	2341.75
808.3724	365.0646	3109.85	2342.9
808.5158	367.258	3120.2	2353.45
808.6591	369.4508	3138.2	2367.85
808.8025	371.643	3171.3	2402.95
808.9459	373.8346	3215.95	2442.75
809.0893	376.0257	3260.55	2487.15
809.2327	378.2162	3313.05	2542.45
809.3762	380.4062	3334.1	2560.8
809.5196	382.5956	3304	2531.95
809.6631	384.7844	3245.1	2478
809.8066	386.9726	3177.45	2412.85
809.9501	389.1603	3121.95	2358.85
810.0936	391.3474	3135.55	2333.8
810.2371	393.5339	3088.95	2319.8
810.3806	395.7199	3109.05	2343.6
810.5241	397.9052	3134.5	2368.1
810.6677	400.09	3213.5	2445.2
810.8113	402.2743	3274.95	2505.75
810.9548	404.4579	3329.7	2557.15
811.0984	406.641	3386.6	2613.8
811.2421	408.8235	3440.55	2665.35
811.3857	411.0054	3507.1	2731.75
811.5293	413.1868	3575.25	2793.95
811.673	415.3675	3613.35	2830.2
811.8166	417.5477	3612.55	2830.8
811.9603	419.7273	3563.75	2778.05
812.104	421.9064	3476.7	2683.3
812.2477	424.0848	3400.9	2613.6
812.3914	426.2627	3295.3	2506.8
812.5351	428.4399	3201.7	2412.75
812.6788	430.6166	3126.8	2334.45
812.8226	432.7928	3052.4	2257.35
812.9663	434.9683	3015.9	2222.4
813.1101	437.1432	2985	2190.95
813.2539	439.3176	2927.4	2134.9
813.3977	441.4914	2904.35	2111.9
813.5415	443.6645	2922.5	2129.8
813.6853	445.8371	2912.6	2118.9
813.8291	448.0091	2915.45	2118.45
813.973	450.1806	2902.8	2107
814.1168	452.3514	2896.2	2098.2
814.2607	454.5216	2905.45	2101.45
814.4046	456.6913	2908.1	2105.55
814.5485	458.8603	2894.3	2096
814.6924	461.0288	2901.45	2104.7
814.8363	463.1967	2902.1	2102.35
814.9802	465.3639	2908.85	2106.6
815.1241	467.5306	2897.85	2097.75
815.2681	469.6967	2898.35	2097.7
815.412	471.8622	2875.2	2077.95
815.556	474.0271	2868.35	2070.6
815.7	476.1914	2867.75	2065.2
815.844	478.3551	2853.05	2051.4
815.988	480.5182	2849.4	2048.35
816.132	482.6807	2856.95	2054.3
816.276	484.8426	2882.15	2081.55
816.4201	487.0039	2946.3	2144.5
816.5641	489.1647	3020.8	2212.6
816.7082	491.3248	3101.95	2295
816.8522	493.4843	3112.1	2305.4
816.9963	495.6432	3102.05	2294.6
817.1404	497.8015	3057.85	2247.55
817.2845	499.9592	2987.8	2179.25
817.4286	502.1163	2933.65	2124.25
817.5727	504.2728	2856.7	2046.4
817.7168	506.4287	2814.15	2007.05
817.861	508.5839	2791.95	1982.85
818.0051	510.7386	2775.7	1966.55
818.1493	512.8927	2778.35	1958.4
818.2935	515.0461	2807.6	1993.35
818.4377	517.199	2821.2	2007.05
818.5818	519.3512	2882.4	2067.95
818.726	521.5029	2985.45	2166.65
818.8703	523.6539	3064.75	2248.05
819.0145	525.8043	3090.15	2272.45
819.1587	527.9541	3020.85	2200.5
819.303	530.1033	2908.8	2091.85
819.4472	532.2519	2828.2	2010.45
819.5915	534.3999	2804.5	1983.65
819.7357	536.5472	2783.25	1965
819.88	538.694	2790.65	1971.9
820.0243	540.8401	2804.05	1981.75
820.1686	542.9856	2829.9	2006.6
820.3129	545.1305	2842.45	2014.85
820.4572	547.2748	2867.85	2043.85
820.6016	549.4185	2878.75	2052.1
820.7459	551.5615	2881.1	2057.25
820.8902	553.704	2917.3	2092.35
821.0346	555.8458	2925.1	2102.7
821.1789	557.987	2966.35	2143.6
821.3233	560.1276	3006.5	2181.5
821.4677	562.2675	3092.6	2266.05
821.6121	564.4069	3192.45	2366.55
821.7565	566.5456	3266.05	2440.2
821.9009	568.6837	3235.55	2412.45
822.0453	570.8212	3129.85	2307.35
822.1897	572.958	2984.7	2159.6
822.3342	575.0942	2879	2053.45
822.4786	577.2299	2841.15	2016.45
822.6231	579.3648	2798.65	1977.15
822.7675	581.4992	2784.5	1961.65
822.912	583.6329	2785.4	1960.2
823.0565	585.766	2844.75	2020.7
823.201	587.8985	2898.6	2076.3
823.3454	590.0304	2986.8	2147.9
823.4899	592.1616	3025.6	2194.85
823.6345	594.2922	3039.95	2208.25
823.779	596.4222	2979.75	2145.55
823.9235	598.5515	2904.2	2069
824.068	600.6802	2818.75	1983.3
824.2126	602.8083	2749.15	1916.4
824.3571	604.9358	2712.6	1877.6
824.5017	607.0626	2715.2	1881.6
824.6462	609.1888	2717.5	1881.25
824.7908	611.3144	2751.45	1916.3
824.9354	613.4393	2822.45	1988.8
825.08	615.5636	2887.1	2051.5
825.2246	617.6873	2966	2128.6
825.3692	619.8103	3009.4	2172.05
825.5138	621.9327	3027.15	2188.25
825.6584	624.0544	2971.1	2133.5
825.803	626.1756	2884.2	2049.25
825.9477	628.2961	2797.6	1958.9
826.0923	630.4159	2758.95	1920.3
826.237	632.5351	2752.35	1912.6
826.3816	634.6537	2730.6	1888.5
826.5263	636.7716	2713.2	1871.05
826.6709	638.8889	2719.1	1875.45
826.8156	641.0056	2726.15	1882.85
826.9603	643.1216	2740.35	1896.7
827.105	645.237	2745.4	1899.8
827.2497	647.3518	2713.25	1872
827.3944	649.4659	2685.35	1845.55
827.5391	651.5793	2658.35	1817.4
827.6838	653.6922	2623.75	1784.35
827.8285	655.8043	2608.5	1767.05
827.9733	657.9159	2582.05	1738.55
828.118	660.0268	2569.65	1725.05
828.2627	662.137	2565.1	1720.65
828.4075	664.2466	2575.9	1729.6
828.5522	666.3556	2584.75	1738.85
828.697	668.4639	2567.2	1719.65
828.8418	670.5716	2554.65	1709.65
828.9865	672.6786	2550.25	1701.8
829.1313	674.785	2541.8	1694.05
829.2761	676.8907	2525.25	1676.95
829.4209	678.9958	2516.25	1671.15
829.5657	681.1002	2514.5	1664.65
829.7105	683.204	2527.8	1673.6
829.8553	685.3072	2520.95	1669.2
830.0001	687.4097	2516.85	1666.8
830.1449	689.5115	2517.6	1665.4
830.2898	691.6127	2519.5	1669.8
830.4346	693.7132	2514.3	1664.65
830.5794	695.8131	2512.95	1656.65
830.7243	697.9123	2519.7	1667.2
830.8691	700.0109	2509.95	1658.25
831.014	702.1089	2523.15	1671.95
831.1588	704.2061	2555.25	1705.45
831.3037	706.3028	2574.2	1718.85
831.4486	708.3987	2621.6	1768
831.5935	710.4941	2644.4	1792.7
831.7383	712.5887	2652.6	1797.8
831.8832	714.6827	2650.1	1791.85
832.0281	716.7761	2633.6	1781.6
832.173	718.8688	2620.4	1765.15
832.3179	720.9608	2629.8	1771.05
832.4628	723.0522	2632.3	1771.8
832.6077	725.1429	2658.85	1802.6
832.7527	727.233	2721.6	1865.25
832.8976	729.3224	2803.55	1949.5
833.0425	731.4112	2889.5	2030.25
833.1874	733.4993	2916.75	2059.45
833.3324	735.5867	2853	1994.9
833.4773	737.6735	2747.85	1887.5
833.6222	739.7596	2652.1	1791.8
833.7672	741.845	2594.4	1735.65
833.9122	743.9298	2578	1717.2
834.0571	746.014	2583.6	1725.25
834.2021	748.0974	2586.65	1725.45
834.347	750.1802	2586.7	1724.3
834.492	752.2624	2576.85	1715.95
834.637	754.3439	2581.6	1720
834.782	756.4247	2582.05	1712.3
834.9269	758.5048	2571.2	1708.9
835.0719	760.5843	2600.05	1738.35
835.2169	762.6631	2643.4	1780.05
835.3619	764.7413	2721.2	1860.3
835.5069	766.8188	2845.55	1979.35
835.6519	768.8956	2980	2119
835.7969	770.9718	3070.05	2208.8
835.9419	773.0473	3052.75	2192.05
836.0869	775.1221	2997.05	2135.5
836.232	777.1962	2981.6	2120.15
836.377	779.2697	3061.55	2195.8
836.522	781.3426	3224.95	2344.7
836.667	783.4147	3332	2463.8
836.8121	785.4862	3337.65	2474.35
836.9571	787.557	3216	2352.8
837.1021	789.6271	3007.85	2139.15
837.2472	791.6966	2818.1	1954.9
837.3922	793.7654	2660.2	1793.2
837.5373	795.8335	2570.45	1708.4
837.6823	797.901	2511.85	1646.65
837.8274	799.9678	2496.8	1629
837.9724	802.0339	2501.3	1634.75
838.1175	804.0993	2531.9	1653.65
838.2626	806.1641	2505.35	1638.6
838.4076	808.2282	2471.95	1605.95
838.5527	810.2916	2459.2	1588.35
838.6978	812.3544	2429.85	1563.65
838.8428	814.4164	2413.75	1547.55
838.9879	816.4778	2419.75	1549.8
839.133	818.5385	2450.65	1582.15
839.2781	820.5986	2489.7	1621.5
839.4232	822.658	2562.35	1694.45
839.5682	824.7166	2657.5	1788.55
839.7133	826.7747	2786.65	1918.65
839.8584	828.832	2916.15	2048.6
840.0035	830.8886	3003	2134.05
840.1486	832.9446	3042.9	2172.4
840.2937	834.9999	3005.8	2136.75
840.4388	837.0545	2908	2037.3
840.5839	839.1085	2770.8	1903.55
840.729	841.1618	2658.8	1783.8
840.8741	843.2143	2568.65	1701.05
841.0192	845.2662	2519.25	1648.2
841.1643	847.3175	2491.25	1618.75
841.3095	849.368	2470.65	1600
841.4546	851.4179	2471.45	1598.5
841.5997	853.467	2467.2	1597.05
841.7448	855.5155	2479.45	1608.55
841.8899	857.5633	2490.2	1619.95
842.0351	859.6105	2472.85	1600.6
842.1802	861.6569	2455.8	1585.1
842.3253	863.7027	2434.25	1560.9
842.4704	865.7478	2413.2	1540.9
842.6156	867.7922	2395.75	1524.95
842.7607	869.8359	2378.3	1504.65
842.9058	871.8789	2377.15	1503.55
843.0509	873.9212	2406.8	1502
843.1961	875.9629	2380.4	1507.8
843.3412	878.0039	2391.85	1518.15
843.4863	880.0441	2417.7	1546.65
843.6315	882.0837	2454.4	1582.5
843.7766	884.1226	2477.05	1601.15
843.9218	886.1609	2533.6	1660.4
844.0669	888.1984	2611.1	1737.05
844.212	890.2352	2690.2	1815.7
844.3572	892.2714	2711.35	1836.05
844.5023	894.3069	2675.7	1801.05
844.6475	896.3416	2587.6	1710.55
844.7926	898.3757	2515	1638.45
844.9377	900.4091	2469	1591.85
845.0829	902.4418	2490.4	1612.05
845.228	904.4739	2512.45	1635.5
845.3732	906.5052	2542.55	1667.85
845.5183	908.5358	2535.6	1659.6
845.6635	910.5658	2505.9	1624.9
845.8086	912.595	2458.75	1580.9
845.9538	914.6236	2404.25	1527.4
846.0989	916.6515	2366.1	1490.8
846.2441	918.6786	2324.8	1445.6
846.3892	920.7051	2321.75	1443
846.5344	922.7309	2310.55	1433.55
846.6795	924.756	2305.8	1429.35
846.8246	926.7804	2324.8	1447.1
846.9698	928.8041	2348.2	1471
847.1149	930.8272	2375.6	1496.95
847.2601	932.8495	2383.7	1504.85
847.4052	934.8711	2389.75	1510.6
847.5504	936.892	2404.35	1526.1
847.6955	938.9123	2440	1560.85
847.8407	940.9318	2468.7	1589.8
847.9858	942.9506	2489.55	1612.7
848.131	944.9688	2485.3	1607.95
848.2761	946.9862	2466.35	1588.35
848.4213	949.003	2402.55	1524.15
848.5664	951.019	2362.45	1482.1
848.7115	953.0344	2333.2	1454.65
848.8567	955.0491	2316.1	1431.85
849.0018	957.063	2292.6	1415.05
849.147	959.0763	2300.1	1420.7
849.2921	961.0888	2300.8	1419.55
849.4373	963.1007	2289.65	1410.3
849.5824	965.1119	2284	1406.85
849.7275	967.1223	2278.85	1403.8
849.8727	969.1321	2249.15	1373.8
850.0178	971.1412	2256.25	1378.7
850.1629	973.1495	2256.75	1377.25
850.3081	975.1572	2267.55	1357.4
850.4532	977.1641	2252.55	1371.2
850.5983	979.1704	2253.4	1373.6
850.7435	981.1759	2255.65	1370.5
850.8886	983.1808	2243.15	1359.45
851.0337	985.1849	2236.95	1343.9
851.1788	987.1884	2233.1	1350
851.324	989.1911	2228.4	1347.65
851.4691	991.1932	2240.25	1356.5
851.6142	993.1945	2246.7	1364.8
851.7593	995.1951	2241.5	1360.85
851.9045	997.1951	2243.6	1358.55
852.0496	999.1943	2230.75	1351.1
852.1947	1001.1928	2226.25	1342.7
852.3398	1003.1906	2254.1	1372.45
852.4849	1005.1877	2283.85	1401.05
852.63	1007.1841	2329.05	1447.8
852.7751	1009.1798	2344.4	1463.05
852.9202	1011.1748	2330.25	1447.8
853.0653	1013.1691	2295.7	1414.45
853.2104	1015.1627	2260.85	1380.6
853.3555	1017.1556	2197.7	1317.7
853.5006	1019.1477	2171.7	1289.05
853.6457	1021.1392	2156.3	1276.6
853.7908	1023.1299	2135.6	1255.2
853.9359	1025.12	2128.35	1247.7
854.081	1027.1093	2150.35	1275.2
854.2261	1029.0979	2172.85	1300.6
854.3712	1031.0859	2193.5	1317.55
854.5163	1033.0731	2216.7	1338.2
854.6613	1035.0596	2218.15	1336.2
854.8064	1037.0454	2205.75	1324.75
854.9515	1039.0304	2196.9	1316.85
855.0965	1041.0148	2181.1	1298.15
855.2416	1042.9985	2145.6	1261.25
855.3867	1044.9814	2121.15	1238.35
855.5317	1046.9636	2109.45	1227.3
855.6768	1048.9452	2121.1	1238.55
855.8219	1050.926	2144.4	1263.3
855.9669	1052.9061	2163.05	1280.15
856.112	1054.8855	2187.25	1304.05
856.257	1056.8642	2189.95	1308.55
856.4021	1058.8421	2184.85	1297.6
856.5471	1060.8194	2184.1	1302.35
856.6921	1062.7959	2185.05	1300.5
856.8372	1064.7717	2166.55	1280.4
856.9822	1066.7469	2159.95	1275.7
857.1272	1068.7213	2170.55	1283.4
857.2723	1070.695	2184.75	1302.95
857.4173	1072.6679	2221.65	1335.45
857.5623	1074.6402	2244.2	1358.55
857.7073	1076.6117	2282	1390.5
857.8523	1078.5826	2260.3	1375.7
857.9973	1080.5527	2205.05	1318
858.1423	1082.5221	2140.1	1254.65
858.2873	1084.4908	2106.35	1222.05
858.4323	1086.4587	2086.2	1201
858.5773	1088.426	2063.6	1177.95
858.7223	1090.3925	2052.2	1163.45
858.8673	1092.3584	2069.8	1184.6
859.0123	1094.3235	2070.75	1189.25
859.1573	1096.2879	2099.7	1213.45
859.3022	1098.2515	2135.15	1249.95
859.4472	1100.2145	2173.25	1289.9
859.5922	1102.1767	2220.9	1334.25
859.7371	1104.1382	2280.2	1395.2
859.8821	1106.099	2361.55	1476
860.027	1108.0591	2438.6	1551.5
860.172	1110.0185	2491.65	1604.55
860.3169	1111.9771	2548.05	1661.9
860.4619	1113.9351	2611.6	1725.15
860.6068	1115.8923	2723.95	1838.9
860.7517	1117.8488	2786.1	1899.95
860.8967	1119.8045	2725.25	1842.15
861.0416	1121.7596	2584.3	1697.2
861.1865	1123.7139	2419.8	1536.9
861.3314	1125.6675	2324.45	1439.35
861.4763	1127.6204	2310.4	1425.05
861.6212	1129.5726	2345.6	1454
861.7661	1131.524	2353.55	1468.5
861.911	1133.4748	2308.3	1422.2
862.0559	1135.4248	2217.95	1331.45
862.2008	1137.3741	2137.9	1250.55
862.3457	1139.3226	2095.9	1206.9
862.4905	1141.2705	2077.3	1191.4
862.6354	1143.2176	2099	1208.1
862.7803	1145.164	2119.05	1231.5
862.9251	1147.1097	2122.1	1235.8
863.07	1149.0546	2089.05	1201.6
863.2148	1150.9989	2067.15	1180.1
863.3597	1152.9424	2025.85	1140.6
863.5045	1154.8852	2006.65	1120.25
863.6493	1156.8272	1991.05	1102.25
863.7942	1158.7686	1992.3	1097.65
863.939	1160.7092	1979.05	1090.65
864.0838	1162.6491	1999	1109.4
864.2286	1164.5883	2014	1127.85
864.3734	1166.5267	2023.35	1133.2
864.5182	1168.4644	2053.6	1167.85
864.663	1170.4014	2092.95	1205.8
864.8078	1172.3377	2150.45	1264.4
864.9526	1174.2732	2229.7	1342
865.0974	1176.2081	2361.25	1476.25
865.2421	1178.1421	2545.1	1656.95
865.3869	1180.0755	2733.15	1849.45
865.5317	1182.0082	2851.1	1963.9
865.6764	1183.9401	2850.3	1964.3
865.8212	1185.8713	2702.95	1816.45
865.9659	1187.8017	2513.15	1630.3
866.1106	1189.7315	2339.3	1457.4
866.2554	1191.6605	2229.75	1320.9
866.4001	1193.5888	2135.05	1250.65
866.5448	1195.5163	2092.8	1208.8
866.6895	1197.4432	2058.45	1172.4
866.8342	1199.3693	2034.45	1148.8
866.9789	1201.2947	2023.6	1132.25
867.1236	1203.2193	2009.75	1121.45
867.2683	1205.1432	1990.4	1101.85
867.413	1207.0664	1993.65	1104.5
867.5576	1208.9889	1992.1	1102.5
867.7023	1210.9106	1989.15	1099.8
867.847	1212.8316	1988.65	1101.6
867.9916	1214.7519	2025.75	1130.4
868.1363	1216.6715	2033.05	1145.25
868.2809	1218.5903	2055.55	1169.95
868.4255	1220.5084	2066.65	1179
868.5701	1222.4257	2078.95	1191.8
868.7148	1224.3424	2094.55	1208
868.8594	1226.2583	2132.9	1238.55
869.004	1228.1735	2155.85	1266.85
869.1486	1230.0879	2216.8	1330.25
869.2932	1232.0016	2275.2	1387.05
869.4377	1233.9146	2327.75	1439.95
869.5823	1235.8269	2353.95	1465.85
869.7269	1237.7384	2367.75	1480.6
869.8715	1239.6492	2353.9	1466.4
870.016	1241.5592	2377.1	1488.6
870.1606	1243.4686	2438.95	1552.1
870.3051	1245.3772	2538.9	1648.2
870.4496	1247.285	2671.3	1780.8
870.5941	1249.1922	2803.75	1915
870.7387	1251.0986	2898.35	2009.9
870.8832	1253.0042	2991.55	2101.45
871.0277	1254.9092	3120.85	2234.1
871.1722	1256.8134	3259.45	2374.85
871.3167	1258.7169	3414.4	2525.15
871.4611	1260.6196	3508.3	2621.15
871.6056	1262.5216	3562.65	2673.35
871.7501	1264.4229	3558.45	2673.45
871.8945	1266.3234	3511	2623.8
872.039	1268.2232	3431.55	2539.6
872.1834	1270.1223	3337.9	2449.75
872.3278	1272.0207	3269.8	2380.2
872.4723	1273.9183	3244.35	2349.65
872.6167	1275.8151	3233.2	2344.85
872.7611	1277.7113	3286.95	2396.65
872.9055	1279.6067	3400.45	2511.6
873.0499	1281.5014	3613.85	2722.9
873.1943	1283.3953	3893.35	3002.9
873.3386	1285.2885	4175.9	3289.65
873.483	1287.181	4426.95	3536
873.6274	1289.0727	4538.3	3651.65
873.7717	1290.9637	4488.95	3602.85
873.9161	1292.854	4318.85	3429.25
874.0604	1294.7435	4106.3	3219
874.2047	1296.6323	3919.75	3029.7
874.349	1298.5204	3749.5	2857.05
874.4933	1300.4077	3602.8	2712.9
874.6376	1302.2943	3526	2638.55
874.7819	1304.1802	3478.15	2590.9
874.9262	1306.0653	3428.8	2537.5
875.0705	1307.9497	3370.8	2480.7
875.2147	1309.8333	3322.75	2435
875.359	1311.7162	3277.75	2388.25
875.5032	1313.5984	3231	2339.55
875.6475	1315.4798	3214.7	2314.2
875.7917	1317.3605	3205.1	2312.15
875.9359	1319.2405	3231.6	2338.8
876.0801	1321.1197	3215.75	2323.7
876.2243	1322.9982	3168.6	2274.15
876.3685	1324.876	3069.65	2179.95
876.5127	1326.753	2946.5	2056.6
876.6569	1328.6293	2803.2	1910.75
876.801	1330.5048	2651.8	1759.85
876.9452	1332.3796	2531.9	1642.4
877.0893	1334.2537	2462.95	1547.65
877.2335	1336.127	2359.5	1469.1
877.3776	1337.9996	2312.6	1421.55
877.5217	1339.8714	2279.2	1389.9
877.6658	1341.7426	2281.45	1349.7
877.8099	1343.6129	2219.9	1329.55
877.954	1345.4826	2197.7	1305.85
878.0981	1347.3515	2173.95	1282.4
878.2422	1349.2196	2150.75	1258.5
878.3862	1351.087	2129.1	1239.85
878.5303	1352.9537	2134.35	1244.5
878.6743	1354.8197	2137.75	1248.65
878.8184	1356.6849	2162.2	1271.5
878.9624	1358.5493	2168.95	1278.7
879.1064	1360.4131	2202.4	1311.2
879.2504	1362.276	2254.9	1365.65
879.3944	1364.1383	2313.4	1424.75
879.5384	1365.9998	2350.05	1455.4
879.6823	1367.8606	2326.15	1437.05
879.8263	1369.7206	2312	1423
879.9702	1371.5799	2319.3	1428.55
880.1142	1373.4384	2312.6	1421.25
880.2581	1375.2962	2274	1382.4
880.402	1377.1533	2203.9	1312.15
880.5459	1379.0096	2116.15	1225.25
880.6898	1380.8652	2068.95	1179.95
880.8337	1382.7201	2035.4	1146.85
880.9776	1384.5742	1989.45	1099.3
881.1215	1386.4275	1960.9	1070.4
881.2653	1388.2802	1923.4	1035.7
881.4092	1390.132	1909.1	1019.45
881.553	1391.9832	1903.8	1011.3
881.6968	1393.8336	1886.15	997.45
881.8406	1395.6832	1884.6	995.65
881.9844	1397.5322	1859.7	967.6
882.1282	1399.3803	1855.35	959.45
882.272	1401.2278	1832.6	942
882.4158	1403.0745	1831.65	942.4
882.5595	1404.9204	1807	919.35
882.7033	1406.7656	1804.95	914.65
882.847	1408.6101	1797.3	904.65
882.9908	1410.4538	1807.65	917.3
883.1345	1412.2968	1797.2	906.95
883.2782	1414.139	1802.2	910.2
883.4219	1415.9805	1804.85	916.5
883.5656	1417.8213	1830.25	934.3
883.7092	1419.6613	1848.1	960.8
883.8529	1421.5006	1890.1	997.85
883.9965	1423.3391	1938.7	1047.8
884.1402	1425.1769	2024.2	1133.3
884.2838	1427.0139	2129.5	1239.4
884.4274	1428.8502	2273.95	1382.1
884.571	1430.6858	2372.8	1481.05
884.7146	1432.5206	2422.25	1530.65
884.8582	1434.3547	2409.75	1518
885.0018	1436.188	2383.7	1492.75
885.1453	1438.0206	2355.95	1466.8
885.2889	1439.8524	2345.15	1454
885.4324	1441.6835	2335.5	1445.85
885.5759	1443.5139	2344.9	1451.45
885.7194	1445.3435	2343.8	1453
885.8629	1447.1724	2346	1457.65
886.0064	1449.0005	2346.65	1456.3
886.1499	1450.8279	2339.85	1450.8
886.2933	1452.6545	2325.3	1433.85
886.4368	1454.4804	2313.65	1423
886.5802	1456.3056	2309.8	1413.75
886.7237	1458.13	2274.7	1385.25
886.8671	1459.9536	2243.5	1353.9
887.0105	1461.7766	2192	1304.45
887.1539	1463.5987	2127.75	1237.6
887.2972	1465.4202	2076.2	1185.85
887.4406	1467.2409	2020	1128.75
887.584	1469.0608	1972.75	1084.5
887.7273	1470.88	1921.4	1031.35
887.8706	1472.6984	1874.55	983.9
888.0139	1474.5161	1840.65	947.8
888.1572	1476.3331	1823	932.5
888.3005	1478.1493	1806.35	915.9
888.4438	1479.9648	1800.85	913.65
888.5871	1481.7795	1796.3	905.45
888.7303	1483.5935	1795	905.15
888.8736	1485.4067	1796.7	906.1
889.0168	1487.2192	1802.95	914.65
889.16	1489.031	1808.5	912.65
889.3032	1490.842	1796.95	905.35
889.4464	1492.6522	1795.9	906.3
889.5896	1494.4618	1797.6	906.75
889.7327	1496.2705	1797.45	908.55
889.8759	1498.0785	1788.15	897.1
890.019	1499.8858	1777.85	887.5
890.1622	1501.6924	1782.95	893.45
890.3053	1503.4981	1759.65	868.85
890.4484	1505.3032	1755.6	864.35
890.5914	1507.1075	1736.3	847.35
890.7345	1508.911	1732.8	843.8
890.8776	1510.7138	1728.75	838.3
891.0206	1512.5159	1716.65	826.4
891.1637	1514.3172	1705.1	815.15
891.3067	1516.1178	1688.65	799.3
891.4497	1517.9176	1679.9	786.95
891.5927	1519.7166	1680.3	791.15
891.7357	1521.515	1675.05	778.05
891.8786	1523.3126	1666.75	777.1
892.0216	1525.1094	1655.4	764.15
892.1645	1526.9055	1655.15	767.6
892.3074	1528.7008	1642.4	752.85
892.4503	1530.4954	1631.3	734
892.5932	1532.2893	1637.65	749.65
892.7361	1534.0824	1637.1	744.2
892.879	1535.8747	1628.95	738.15
893.0218	1537.6663	1638	746.6
893.1647	1539.4572	1628.1	737.1
893.3075	1541.2473	1631.05	740.4
893.4503	1543.0367	1633.95	746.95
893.5931	1544.8253	1634.3	739.8
893.7359	1546.6132	1643.3	750.2
893.8787	1548.4003	1644.95	744.55
894.0214	1550.1867	1666.8	769.25
894.1642	1551.9723	1674.7	781.2
894.3069	1553.7572	1684.3	794.6
894.4496	1555.5414	1714.8	825.45
894.5923	1557.3247	1751.55	862.75
894.735	1559.1074	1801.2	914.45
894.8777	1560.8893	1867.65	978.2
895.0204	1562.6705	1914.05	1026.55
895.163	1564.4509	1966.6	1076.7
895.3056	1566.2305	1987.75	1100.6
895.4482	1568.0094	1997.6	1110.9
895.5908	1569.7876	1986.8	1099.85
895.7334	1571.565	1985.85	1096.6
895.876	1573.3417	1979.1	1090.35
896.0186	1575.1176	1998.55	1109.15
896.1611	1576.8928	2019.8	1133
896.3036	1578.6672	2040.4	1157.35
896.4461	1580.4409	2094.55	1210.45
896.5886	1582.2138	2141.25	1251.5
896.7311	1583.986	2208.1	1319.9
896.8736	1585.7575	2263.6	1377.3
897.0161	1587.5282	2310.95	1426.8
897.1585	1589.2981	2368.35	1483.6
897.3009	1591.0673	2382.75	1497.6
897.4433	1592.8358	2401.35	1515
897.5857	1594.6035	2393	1503.45
897.7281	1596.3704	2379.5	1491.45
897.8705	1598.1366	2355.25	1468.75
898.0128	1599.9021	2320.6	1433.35
898.1551	1601.6668	2265.7	1375.85
898.2975	1603.4308	2238.05	1350.6
898.4398	1605.194	2243.4	1353.4
898.5821	1606.9564	2273.35	1387.6
898.7243	1608.7182	2343.65	1456.8
898.8666	1610.4791	2468.1	1586.3
899.0088	1612.2394	2619.45	1735.8
899.1511	1613.9988	2783.45	1898.3
899.2933	1615.7576	2916.15	2031.6
899.4355	1617.5156	2993.45	2101.3
899.5776	1619.2728	2966.1	2079.35
899.7198	1621.0293	2864.85	1979.55
899.862	1622.785	2690.85	1802.15
900.0041	1624.54	2477.65	1588.65
900.1462	1626.2942	2304.8	1418.5
900.2883	1628.0477	2140.35	1252.45
900.4304	1629.8005	2012.2	1122.1
900.5725	1631.5525	1898.9	1012.9
900.7145	1633.3037	1813.15	928.2
900.8566	1635.0542	1756.85	871.5
900.9986	1636.804	1698.9	813.25
901.1406	1638.553	1718.4	769.7
901.2826	1640.3013	1635.5	750.2
901.4245	1642.0488	1607.45	720.3
901.5665	1643.7955	1583.1	698.6
901.7085	1645.5416	1563.9	677.4
901.8504	1647.2868	1545.5	660.25
901.9923	1649.0313	1545.75	662.5
902.1342	1650.7751	1523.95	637.5
902.2761	1652.5181	1526.6	641.55
902.4179	1654.2604	1523.2	638.2
902.5598	1656.0019	1528.7	642.7
902.7016	1657.7427	1544.95	659.7
902.8434	1659.4828	1576.95	689.85
902.9852	1661.222	1617.9	731.75
903.127	1662.9606	1675.4	789.95
903.2687	1664.6984	1719.55	832.45
903.4105	1666.4354	1761.65	874.95
903.5522	1668.1717	1733.5	846.65
903.6939	1669.9072	1664.45	776.95
903.8356	1671.642	1600.45	709.25
903.9773	1673.3761	1545.1	660.75
904.119	1675.1094	1493.5	605.2
904.2606	1676.8419	1459.6	571.95
904.4022	1678.5737	1436.35	548.45
904.5439	1680.3048	1420.1	530.7
904.6855	1682.0351	1401.9	515.85
904.827	1683.7646	1393.5	503.25
904.9686	1685.4934	1384.85	499.4
905.1101	1687.2215	1379.15	490.5
905.2517	1688.9488	1359.65	474.95
905.3932	1690.6754	1361.35	476.85
905.5347	1692.4012	1361.4	474.8
905.6761	1694.1263	1359.35	471.2
905.8176	1695.8506	1363.9	477.1
905.9591	1697.5742	1348.9	463
906.1005	1699.297	1349.4	464.2
906.2419	1701.0191	1337.05	453.35
906.3833	1702.7404	1340.55	456.45
906.5246	1704.461	1330.45	445.15
906.666	1706.1808	1328.75	439.85
906.8073	1707.8999	1334.9	449.3
906.9487	1709.6182	1326.55	440
907.09	1711.3358	1323.35	436.45
907.2313	1713.0527	1319.35	435
907.3725	1714.7688	1323.1	431.85
907.5138	1716.4841	1317.65	430.5
907.655	1718.1987	1321.9	432.9
907.7962	1719.9126	1311.4	428.65
907.9374	1721.6257	1315.25	428.75
908.0786	1723.338	1305.2	420.65
908.2198	1725.0496	1305.75	419.45
908.3609	1726.7605	1301.05	413.85
908.502	1728.4706	1304.15	416.25
908.6431	1730.18	1301.15	412.95
908.7842	1731.8886	1292.65	406.45
908.9253	1733.5964	1317.6	411.3
909.0664	1735.3036	1300.85	409.95
909.2074	1737.0099	1295.75	412.95
909.3484	1738.7156	1295.2	411.5
909.4894	1740.4204	1290.1	401.4
909.6304	1742.1246	1297.2	409.1
909.7714	1743.8279	1295.55	412.8
909.9123	1745.5306	1283.45	398.6
910.0532	1747.2325	1292.1	406.8
910.1941	1748.9336	1284.4	399.2
910.335	1750.634	1281.45	393.55
910.4759	1752.3336	1286.45	401.7
910.6168	1754.0325	1278.15	394.9
910.7576	1755.7307	1271.15	387.15
910.8984	1757.4281	1277.85	393.3
911.0392	1759.1247	1287.4	393.6
911.18	1760.8206	1277.2	385.2
911.3208	1762.5158	1286.75	395.55
911.4615	1764.2102	1276.3	390.25
911.6022	1765.9039	1273.95	388.2
911.7429	1767.5968	1284.15	401.45
911.8836	1769.289	1270.45	385.45
912.0243	1770.9804	1270.05	382.85
912.1649	1772.6711	1276.85	390.35
912.3056	1774.361	1268.05	380.25
912.4462	1776.0502	1272	386.15
912.5868	1777.7386	1274.55	386.75
912.7274	1779.4263	1263.85	376.75
912.8679	1781.1132	1266.95	381.9
913.0084	1782.7994	1259.65	374.2
913.149	1784.4849	1254.5	368.6
913.2895	1786.1696	1276.7	371.55
913.4299	1787.8535	1260.55	375.6
913.5704	1789.5367	1257.35	372.7
913.7108	1791.2192	1258.3	376.15
913.8513	1792.9009	1270.2	369.55
913.9917	1794.5818	1253.6	364.55
914.132	1796.2621	1250.25	364.55
914.2724	1797.9415	1254.25	369.05
914.4128	1799.6202	1251.4	366.1
914.5531	1801.2982	1251.1	366.05
914.6934	1802.9755	1247.3	360.25
914.8337	1804.6519	1246.3	362.6
914.9739	1806.3277	1246.85	364.5
915.1142	1808.0027	1241.05	358.35
915.2544	1809.6769	1245.05	362
915.3946	1811.3504	1243.1	357.2
915.5348	1813.0231	1240.55	355.3
915.675	1814.6951	1241.45	356.15
915.8151	1816.3664	1240.65	351.8
915.9553	1818.0369	1242.35	358.35
916.0954	1819.7067	1236.2	350.8
916.2355	1821.3757	1234.5	347.4
916.3755	1823.044	1235.05	348.75
916.5156	1824.7115	1241.45	356.65
916.6556	1826.3783	1233.85	350.5
916.7956	1828.0443	1227.65	342.65
916.9356	1829.7096	1231.65	345.05
917.0756	1831.3741	1237.55	349.1
917.2155	1833.0379	1230.55	345.55
917.3555	1834.701	1230.15	345.65
917.4954	1836.3633	1230.65	344.9
917.6353	1838.0248	1234.25	347.75
917.7751	1839.6856	1227.55	342.8
917.915	1841.3457	1223.65	338.85
918.0548	1843.005	1224.55	338.05
918.1946	1844.6636	1222.55	338.15
918.3344	1846.3214	1222.65	339.3
918.4742	1847.9785	1229.1	344.4
918.6139	1849.6349	1221.3	334.8
918.7537	1851.2904	1236.15	343.5
918.8934	1852.9453	1221.9	335.5
919.0331	1854.5994	1229.15	340.8
919.1727	1856.2528	1230.3	337.6
919.3124	1857.9054	1215.6	329.2
919.452	1859.5572	1217.6	331.75
919.5916	1861.2083	1220.15	334.85
919.7312	1862.8587	1218.65	332.55
919.8708	1864.5084	1218.65	330.95
920.0103	1866.1572	1215.25	330.8
920.1498	1867.8054	1215.45	327.45
920.2893	1869.4528	1224.15	339.55
920.4288	1871.0994	1217.1	330.55
920.5683	1872.7453	1207.5	321.25
920.7077	1874.3905	1216.55	322.85
920.8471	1876.0349	1213.9	327
920.9865	1877.6786	1214.3	327.4
921.1259	1879.3215	1202.55	316.25
921.2653	1880.9637	1211.05	326.15
921.4046	1882.6051	1207.35	322.45
921.5439	1884.2458	1209.3	322.1
921.6832	1885.8858	1203	317.05
921.8225	1887.525	1210.75	323.6
921.9617	1889.1634	1202.45	316.9
922.101	1890.8011	1200.5	314.8
922.2402	1892.4381	1201.1	316.55
922.3794	1894.0743	1199	312.4
922.5185	1895.7098	1197.25	311.35
922.6577	1897.3446	1202.2	315.85
922.7968	1898.9786	1202.5	311.5
922.9359	1900.6118	1195.45	312
923.075	1902.2443	1201.95	311.6
923.214	1903.8761	1191.7	306
923.3531	1905.5071	1196.7	311.5
923.4921	1907.1374	1195.5	309.6
923.6311	1908.7669	1187.75	303.15
923.77	1910.3957	1187.15	301.05
923.909	1912.0237	1188.25	301.5
924.0479	1913.651	1187.95	304.15
924.1868	1915.2776	1184.55	298.4
924.3257	1916.9034	1183.4	299.05
924.4646	1918.5285	1179.65	295.25
924.6034	1920.1528	1181.05	293.95
924.7422	1921.7764	1188.45	305.4
924.881	1923.3992	1185.8	300.55
925.0198	1925.0213	1181.05	296.3
925.1586	1926.6427	1175.3	290.45
925.2973	1928.2633	1388.9	284.5
925.436	1929.8832	1187.05	297.2
925.5747	1931.5023	1178.25	293
925.7134	1933.1207	1173.9	289.95
925.852	1934.7383	1181.3	297.55
925.9906	1936.3552	1170.75	284.95
926.1292	1937.9714	1176.15	291.65
926.2678	1939.5868	1173.75	284.7
926.4064	1941.2015	1173.75	285.95
926.5449	1942.8154	1168.9	284.25
926.6834	1944.4286	1167.45	281.05
926.8219	1946.041	1192.85	283.3
926.9604	1947.6528	1172.6	281.75
927.0988	1949.2637	1168.65	282.75
927.2372	1950.8739	1168.7	285
927.3756	1952.4834	1160.25	274.35
927.514	1954.0921	1166.5	281.1
927.6523	1955.7001	1166.9	277.85
927.7907	1957.3074	1162.7	278.55
927.929	1958.9139	1160.85	278
928.0673	1960.5197	1165.3	280.35
928.2055	1962.1247	1159	274
928.3438	1963.729	1151.45	268.4
928.482	1965.3325	1179.55	272.15
928.6202	1966.9353	1156.45	273
928.7584	1968.5374	1152.15	267
928.8965	1970.1387	1151.2	268.45
929.0346	1971.7393	1149.9	265.65
929.1727	1973.3392	1152.15	266.55
929.3108	1974.9383	1147.2	262.5
929.4489	1976.5366	1148.15	264.2
929.5869	1978.1342	1152.35	268.05
929.7249	1979.7311	1147.7	262.8
929.8629	1981.3273	1151.35	267.65
930.0009	1982.9227	1149.55	265.65
930.1388	1984.5173	1142.35	259.85
930.2767	1986.1112	1138.95	256.5
930.4146	1987.7044	1143.8	262.2
930.5525	1989.2968	1144.2	261.3
930.6904	1990.8885	1149.15	265.05
930.8282	1992.4795	1140.85	257.45
930.966	1994.0697	1137.9	254.1
931.1038	1995.6592	1138.65	255.75
931.2415	1997.2479	1143.7	260.35
931.3793	1998.8359	1137.05	255.1
931.517	2000.4232	1134.7	252.75
931.6547	2002.0097	1134.4	255.85
931.7923	2003.5955	1133.35	250.1
931.93	2005.1805	1138.05	255.6
932.0676	2006.7648	1136.25	254.7
932.2052	2008.3484	1135.45	255.15
932.3427	2009.9312	1137.8	254.25
932.4803	2011.5133	1129.1	249.55
932.6178	2013.0946	1133.25	251.5
932.7553	2014.6752	1130.1	251.05
932.8928	2016.2551	1133.9	250.9
933.0302	2017.8342	1133.75	252.7
933.1676	2019.4126	1130.65	253.2
933.305	2020.9902	1131.95	253.8
933.4424	2022.5672	1128.25	247.45
933.5798	2024.1433	1134.4	247.8
933.7171	2025.7188	1126.65	246.95
933.8544	2027.2935	1129.3	247.95
933.9917	2028.8674	1123.35	244.3
934.129	2030.4406	1128.7	247.95
934.2662	2032.0131	1125.5	245.15
934.4034	2033.5849	1128.45	242.8
934.5406	2035.1559	1128.75	248.05
934.6778	2036.7261	1120.85	238.95
934.8149	2038.2957	1121.9	241.45
934.952	2039.8645	1121.6	239.65
935.0891	2041.4325	1129.85	244.75
935.2262	2042.9998	1124.15	242.65
935.3632	2044.5664	1121.3	238.85
935.5002	2046.1323	1118.1	236.75
935.6372	2047.6974	1116.55	236.2
935.7742	2049.2617	1115.45	236.35
935.9111	2050.8254	1156.2	241.6
936.048	2052.3883	1119.4	237.1
936.1849	2053.9504	1120.25	236.7
936.3218	2055.5118	1118.7	233.9
936.4586	2057.0725	1120.9	235.55
936.5955	2058.6325	1116.95	236.1
936.7323	2060.1917	1116.5	236.55
936.869	2061.7502	1113.7	229.55
937.0058	2063.3079	1114.45	234.6
937.1425	2064.8649	1118.45	235.65
937.2792	2066.4212	1117.8	236.35
937.4159	2067.9767	1114.45	235.3
937.5525	2069.5315	1115.95	233.1
937.6891	2071.0856	1112.3	231.55
937.8257	2072.6389	1115.85	233.75
937.9623	2074.1915	1110.6	234.35
938.0989	2075.7433	1110.65	227.25
938.2354	2077.2945	1106.3	226.65
938.3719	2078.8448	1113.9	230.65
938.5084	2080.3945	1108.15	227.95
938.6448	2081.9434	1109.1	227.85
938.7812	2083.4916	1107.4	225.85
938.9176	2085.039	1111.85	225.3
939.054	2086.5857	1108.25	225.65
939.1903	2088.1317	1109.35	226.45
939.3267	2089.677	1112.65	227.5
939.463	2091.2215	1110.35	225.8
939.5992	2092.7652	1107.05	221.4
939.7355	2094.3083	1107.1	223.55
939.8717	2095.8506	1103.3	220.65
940.0079	2097.3921	1102.35	220.85
940.1441	2098.933	1107.35	225.9
940.2802	2100.4731	1105.25	224.55
940.4163	2102.0124	1126.2	228.85
940.5524	2103.5511	1106.25	225
940.6885	2105.089	1103.5	218.75
940.8245	2106.6261	1106.7	225.65
940.9606	2108.1626	1110.55	227.5
941.0965	2109.6983	1134.5	223
941.2325	2111.2332	1104.35	217.8
941.3684	2112.7675	1104.35	218.3
941.5044	2114.301	1100.15	217.5
941.6403	2115.8337	1103.4	222.3
941.7761	2117.3657	1097.05	215.35
941.912	2118.897	1103.4	220.85
942.0478	2120.4276	1109.65	221.95
942.1835	2121.9575	1102.3	220.65
942.3193	2123.4866	1119.6	224.3
942.455	2125.0149	1104.6	219.3
942.5907	2126.5426	1098.85	216.85
942.7264	2128.0695	1100.35	214.25
942.8621	2129.5956	1097.05	218.5
942.9977	2131.1211	1101.2	215.45
943.1333	2132.6458	1098.95	218.15
943.2689	2134.1698	1097.6	215.25
943.4044	2135.693	1101.65	217.25
943.54	2137.2155	1101.1	215.75
943.6755	2138.7373	1096.2	212.5
943.8109	2140.2584	1091.6	210.35
943.9464	2141.7787	1098.85	211.35
944.0818	2143.2983	1096.8	217.65
944.2172	2144.8171	1088.5	209.15
944.3526	2146.3353	1100.05	218.15
944.4879	2147.8527	1092.45	212.25
944.6232	2149.3693	1091.3	210.35
944.7585	2150.8853	1091	209.25
944.8938	2152.4005	1092.5	211.85
945.029	2153.9149	1090.9	208
945.1642	2155.4287	1088.65	205.9
945.2994	2156.9417	1088.7	204.25
945.4346	2158.454	1090.1	207.5
945.5697	2159.9655	1089.9	209.05
945.7048	2161.4764	1089.7	209.55
945.8399	2162.9865	1088.55	206.25
945.9749	2164.4958	1085.5	205.45
946.1099	2166.0045	1085.65	200.55
946.2449	2167.5124	1083.2	202.2
946.3799	2169.0195	1086.85	205.6
946.5148	2170.526	1085.95	201.85
946.6498	2172.0317	1088.9	207.85
946.7846	2173.5367	1089.35	205.8
946.9195	2175.0409	1080.4	197.55
947.0543	2176.5445	1081.2	198.9
947.1891	2178.0473	1079	195.9
947.3239	2179.5494	1089	203.2
947.4587	2181.0507	1081.4	198
947.5934	2182.5513	1088.6	206.1
947.7281	2184.0512	1080.4	198.5
947.8628	2185.5504	1082.1	199.95
947.9974	2187.0488	1081.85	201.35
948.132	2188.5465	1083.55	201.7
948.2666	2190.0435	1080.25	199.95
948.4012	2191.5397	1077.2	195.45
948.5357	2193.0353	1090.55	208.3
948.6702	2194.5301	1139.5	255.8
948.8047	2196.0241	1097.15	214.05
948.9392	2197.5175	1079.1	197.4
949.0736	2199.0101	1088.8	200.3
949.208	2200.502	1157.55	275.45
949.3424	2201.9931	1117.95	236.3
949.4767	2203.4835	1083.1	199.7
949.611	2204.9733	1094.4	197.45
949.7453	2206.4622	1075	192.55
949.8796	2207.9505	1074.85	192.4
950.0138	2209.438	1062.5	182.95
950.148	2210.9248	1073.55	192.3
950.2822	2212.4109	1076.2	195.9
950.4164	2213.8962	1075.05	189.55
950.5505	2215.3809	1074.45	191.65
950.6846	2216.8648	1070.15	188.05
950.8186	2218.3479	1072.55	185.8
950.9527	2219.8304	1075.05	190.3
951.0867	2221.3121	1070.75	185.65
951.2207	2222.7931	1068.7	186.3
951.3546	2224.2733	1069.9	187.3
951.4886	2225.7529	1064.6	182.8
951.6225	2227.2317	1068.85	183.95
951.7563	2228.7098	1065.5	185.4
951.8902	2230.1872	1062.95	183.5
952.024	2231.6638	1065.25	184.1
952.1578	2233.1397	1067.45	181.25
952.2916	2234.6149	1063.95	183.75
952.4253	2236.0894	1066.5	183.1
952.559	2237.5632	1068.95	180.4
952.6927	2239.0362	1062.75	181.3
952.8263	2240.5085	1065.25	184.05
952.9599	2241.9801	1062.75	180.35
953.0935	2243.4509	1060.8	177.5
953.2271	2244.921	1062.85	181.05
953.3606	2246.3904	1062.3	178.4
953.4941	2247.8591	1056.85	174.5
953.6276	2249.3271	1059.4	178.1
953.7611	2250.7943	1057.85	176.4
953.8945	2252.2608	1059.05	175.55
954.0279	2253.7266	1060.5	178.55
954.1612	2255.1917	1052.3	169.7
954.2946	2256.656	1052.6	168.7
954.4279	2258.1197	1053.1	174.5
954.5612	2259.5826	1055	171.65
954.6944	2261.0447	1055.2	173.4
954.8276	2262.5062	1056.55	172.6
954.9608	2263.9669	1060.85	177.2
955.094	2265.4269	1055.95	173.15
955.2271	2266.8862	1054.7	174.05
955.3602	2268.3448	1051.55	170.1
955.4933	2269.8026	1049.4	167.2
955.6264	2271.2598	1048.15	166.6
955.7594	2272.7162	1049	167.4
955.8924	2274.1719	1052.2	169.25
956.0253	2275.6268	1052.5	170.7
956.1583	2277.0811	1052.25	169.7
956.2912	2278.5346	1048.85	167.55
956.4241	2279.9874	1048.1	166.55
956.5569	2281.4395	1043.9	163.55
956.6897	2282.8908	1053.25	168.6
956.8225	2284.3414	1054.3	173.8
956.9553	2285.7914	1045.7	165.7
957.088	2287.2406	1053.3	168.65
957.2207	2288.689	1046.8	163.75
957.3534	2290.1368	1050.05	167.15
957.486	2291.5838	1050.05	165.25
957.6186	2293.0302	1048.45	165.05
957.7512	2294.4758	1045.1	163.45
957.8838	2295.9206	1049.45	166.35
958.0163	2297.3648	1044.2	161.85
958.1488	2298.8082	1045.85	162.25
958.2813	2300.251	1043.9	162.35
958.4137	2301.693	1046.6	162.45
958.5461	2303.1343	1043.85	161.9
958.6785	2304.5748	1045.45	162.3
958.8108	2306.0147	1039.85	158.4
958.9432	2307.4538	1044.9	161.6
959.0754	2308.8922	1036.7	158
959.2077	2310.3299	1039.7	158.25
959.3399	2311.7669	1037.7	157.85
959.4721	2313.2031	1044.5	163.95
959.6043	2314.6387	1039.05	155.95
959.7365	2316.0735	1038.3	158.5
959.8686	2317.5076	1038.5	154.2
960.0006	2318.941	1037.45	156.15
960.1327	2320.3737	1044.95	161.65
960.2647	2321.8056	1042.4	156.8
960.3967	2323.2369	1042.7	161.6
960.5287	2324.6674	1043.85	162.35
960.6606	2326.0972	1045.25	162.15
960.7925	2327.5263	1047.1	166.55
960.9244	2328.9547	1051.5	168.45
961.0562	2330.3823	1048.85	166.35
961.1881	2331.8092	1045.45	158.8
961.3198	2333.2355	1039.8	157.55
961.4516	2334.661	1039.9	156.05
961.5833	2336.0858	1038.75	154.95
961.715	2337.5098	1037.65	154.9
961.8467	2338.9332	1037	154.05
961.9783	2340.3558	1033.6	146.45
962.1099	2341.7778	1035.7	153.35
962.2415	2343.199	1034.4	149.95
962.373	2344.6195	1028.3	147.65
962.5045	2346.0393	1027	143.7
962.636	2347.4583	1036.8	153.3
962.7675	2348.8767	1032.45	150.3
962.8989	2350.2943	1033.55	149.5
963.0303	2351.7113	1035.2	150.6
963.1617	2353.1275	1033.4	147.5
963.293	2354.543	1056.15	148.3
963.4243	2355.9578	1034.3	150.5
963.5556	2357.3718	1031.75	151.4
963.6868	2358.7852	1029.6	144.8
963.818	2360.1978	1030.7	148
963.9492	2361.6098	1028.55	148.5
964.0803	2363.021	1032.55	145.9
964.2114	2364.4315	1031.35	148.7
964.3425	2365.8413	1029.1	143.55
964.4736	2367.2504	1023	141.35
964.6046	2368.6587	1022.45	140.55
964.7356	2370.0664	1025.9	140.7
964.8666	2371.4733	1029.5	144.55
964.9975	2372.8795	1027.25	147.4
965.1284	2374.285	1030.05	147.1
965.2593	2375.6899	1022.05	138.95
965.3901	2377.0939	1020.2	139.85
965.5209	2378.4973	1024.95	140.8
965.6517	2379.9	1025.6	139.65
965.7825	2381.3019	1022.1	138.8
965.9132	2382.7032	1022.1	139.9
966.0439	2384.1037	1016.2	135.5
966.1745	2385.5035	1022.1	136.85
966.3051	2386.9027	1021.85	141.65
966.4357	2388.3011	1025.25	139.55
966.5663	2389.6987	1024.2	141
966.6968	2391.0957	1019.65	136.7
966.8273	2392.492	1022.7	140.45
966.9578	2393.8876	1018.05	135
967.0882	2395.2824	1018.1	134.25
967.2186	2396.6765	1017.85	134.7
967.349	2398.07	1020.8	137.8
967.4793	2399.4627	1022.7	137
967.6097	2400.8547	1019.75	135.85
967.7399	2402.246	1026.05	137.7
967.8702	2403.6366	1016.35	133.75
968.0004	2405.0265	1015.5	132.35
968.1306	2406.4156	1017	129.1
968.2607	2407.8041	1021.15	134.2
968.3909	2409.1918	1014.55	129.8
968.521	2410.5789	1016.9	133.7
968.651	2411.9652	1017.85	132.4
968.781	2413.3508	1017.35	131.4
968.911	2414.7358	1017.9	133.45
969.041	2416.12	1014	130.35
969.1709	2417.5035	1014.45	130.05
969.3008	2418.8863	1015.7	130.95
969.4307	2420.2684	1015.9	131.3
969.5606	2421.6497	1015.95	129.75
969.6904	2423.0304	1010	128.8
969.8201	2424.4104	1012.8	128.15
969.9499	2425.7896	1012.75	127
970.0796	2427.1682	1010	126.8
970.2093	2428.546	1009.65	126.5
970.3389	2429.9232	1010	124.2
970.4685	2431.2996	1010.1	126.25
970.5981	2432.6753	1010.95	128.2
970.7277	2434.0503	1010.25	125.65
970.8572	2435.4246	1010.45	127.85
970.9867	2436.7982	1012.7	128.15
971.1161	2438.1711	1004.15	121.65
971.2456	2439.5433	1006.6	119.9
971.375	2440.9148	1009	123.1
971.5043	2442.2856	1009.35	126.75
971.6336	2443.6557	1003.85	118.85
971.7629	2445.025	1005.7	122.3
971.8922	2446.3937	1007.7	123.4
972.0214	2447.7617	1007.75	122.6
972.1506	2449.1289	1005.95	124.6
972.2798	2450.4955	1006.1	118.95
972.4089	2451.8613	1001.55	120.6
972.538	2453.2265	1002.85	120.25
972.6671	2454.5909	1003.2	119
972.7961	2455.9546	1001.05	117.45
972.9251	2457.3177	1003.65	120.15
973.0541	2458.68	1006.35	122.25
973.1831	2460.0416	1002.75	118.2
973.312	2461.4025	1005.8	120.4
973.4408	2462.7627	1011.2	115.4
973.5697	2464.1222	999.55	115.3
973.6985	2465.4811	1003.8	121.75
973.8273	2466.8392	1003.55	118.1
973.956	2468.1966	1001.85	116.85
974.0847	2469.5533	1001.15	116.9
974.2134	2470.9093	1002.45	118.35
974.3421	2472.2645	1004.55	120.95
974.4707	2473.6191	998.5	115.75
974.5993	2474.973	1002.25	119.85
974.7278	2476.3262	1003.1	118.65
974.8563	2477.6787	1000.6	118.15
974.9848	2479.0305	999.6	116.8
975.1132	2480.3816	997.7	112.45
975.2417	2481.7319	997.75	114.95
975.37	2483.0816	1000.35	113.3
975.4984	2484.4306	998.05	115.15
975.6267	2485.7789	997.15	114.95
975.755	2487.1264	997.85	114.5
975.8833	2488.4733	997.55	116.35
976.0115	2489.8195	1007.4	117.65
976.1397	2491.165	1002.55	116.75
976.2678	2492.5097	998.65	114.75
976.3959	2493.8538	995.1	112.25
976.524	2495.1972	995.05	112.65
976.6521	2496.5398	995.8	111.55
976.7801	2497.8818	996.95	111.6
976.9081	2499.2231	997.35	115.85
977.036	2500.5637	998.2	113.4
977.164	2501.9035	996.6	112.4
977.2918	2503.2427	999.55	113.9
977.4197	2504.5812	994.45	109.9
977.5475	2505.919	995.3	110.85
977.6753	2507.256	999.65	116.05
977.8031	2508.5924	991.45	107.65
977.9308	2509.9281	1001.25	112.75
978.0585	2511.2631	991.6	109.2
978.1861	2512.5974	992.8	110.15
978.3137	2513.9309	992.15	107.3
978.4413	2515.2638	1018.3	106.2
978.5689	2516.596	990	107.85
978.6964	2517.9275	991.8	108.55
978.8239	2519.2583	991.1	106.55
978.9513	2520.5884	991.15	107.45
979.0788	2521.9178	990	107.7
979.2062	2523.2465	990.1	108.4
979.3335	2524.5745	988	106.85
979.4608	2525.9018	991.35	105.6
979.5881	2527.2284	989.8	108.45
979.7154	2528.5543	987.85	106.6
979.8426	2529.8796	989.35	105.95
979.9698	2531.2041	993.6	110
980.0969	2532.5279	984.45	103.2
980.224	2533.851	985.6	103.4
980.3511	2535.1735	987.05	104.5
980.4781	2536.4952	989.45	105.4
980.6052	2537.8163	989.4	106.45
980.7321	2539.1366	987.45	107.2
980.8591	2540.4562	988.3	103.3
980.986	2541.7752	983.25	102.05
981.1129	2543.0935	986.75	102.2
981.2397	2544.411	983.6	98.6
981.3665	2545.7279	986.75	106
981.4933	2547.0441	987.7	106.25
981.62	2548.3596	991.45	104.85
981.7467	2549.6744	985.55	102.9
981.8734	2550.9885	992.15	101.25
982.0001	2552.3019	983.3	102.6
982.1267	2553.6146	980.15	97
982.2532	2554.9266	986.65	106.15
982.3798	2556.2379	987.7	104.2
982.5063	2557.5485	983.3	101.8
982.6327	2558.8585	992.2	102.55
982.7592	2560.1677	985.4	97.75
982.8856	2561.4762	982.7	99.95
983.0119	2562.7841	982.8	96.8
983.1383	2564.0913	977.5	95.7
983.2646	2565.3977	981.45	97.3
983.3908	2566.7035	984.6	100.9
983.517	2568.0086	984.7	100.95
983.6432	2569.313	982.25	98.35
983.7694	2570.6167	984.3	99.7
983.8955	2571.9197	977.8	95.9
984.0216	2573.222	983.1	97.2
984.1476	2574.5236	980.5	97.65
984.2737	2575.8246	984.55	97.85
984.3996	2577.1248	983.35	98.1
984.5256	2578.4244	980.5	96.8
984.6515	2579.7232	981.05	96.95
984.7774	2581.0214	1008.25	98.3
984.9032	2582.3189	978.8	94.1
985.029	2583.6157	987.35	98.8
985.1548	2584.9118	981.2	98.75
985.2806	2586.2072	979.55	95.45
985.4063	2587.5019	981.15	97.95
985.5319	2588.7959	979.65	96.55
985.6576	2590.0893	984.6	101.5
985.7832	2591.3819	979.85	96.5
985.9087	2592.6739	983.5	99.7
986.0343	2593.9652	980.45	96.1
986.1597	2595.2557	978.9	98.05
986.2852	2596.5456	983.65	98
986.4106	2597.8348	980.95	98.95
986.536	2599.1234	981.05	97.5
986.6614	2600.4112	981	99.15
986.7867	2601.6983	986.25	101.75
986.912	2602.9848	983.25	100.6
987.0372	2604.2705	991.05	102.2
987.1624	2605.5556	984.05	101.25
987.2876	2606.84	981.1	98.4
987.4128	2608.1237	981	98.3
987.5379	2609.4067	979.85	97
987.6629	2610.689	987.95	97.1
987.788	2611.9707	984.15	99.85
987.913	2613.2516	979.4	92.8
988.0379	2614.5319	978.7	95.85
988.1629	2615.8115	977.55	95.8
988.2878	2617.0903	977.75	95.55
988.4126	2618.3685	977.1	93.8
988.5375	2619.6461	974.9	92.35
988.6622	2620.9229	976.95	93.25
988.787	2622.199	979.25	94.3
988.9117	2623.4745	975.3	90.55
989.0364	2624.7493	977.15	96.7
989.161	2626.0234	975	93.25
989.2857	2627.2968	975	92.35
989.4102	2628.5695	982.75	98.55
989.5348	2629.8415	1027.1	146.05
989.6593	2631.1128	993.35	109.55
989.7837	2632.3835	972.5	90.35
989.9082	2633.6535	970.4	89.5
990.0326	2634.9228	973.2	89.5
990.1569	2636.1914	973.9	91.75
990.2812	2637.4593	973.55	87.45
990.4055	2638.7265	974.9	90.5
990.5298	2639.9931	973.4	90.7
990.654	2641.259	973.6	91.2
990.7782	2642.5242	970.05	86.85
990.9023	2643.7887	967.2	83.55
991.0264	2645.0525	968.1	85.05
991.1505	2646.3156	970.65	88.4
991.2745	2647.5781	968.95	85.8
991.3985	2648.8398	966.15	86.15
991.5225	2650.1009	1005.55	87.95
991.6464	2651.3613	971.75	88.35
991.7703	2652.6211	967.15	84.35
991.8942	2653.8801	965.2	83.4
992.018	2655.1385	972.2	87.85
992.1418	2656.3961	971.65	89.95
992.2655	2657.6531	965.05	82
992.3892	2658.9094	966.05	85.2
992.5129	2660.1651	963.4	81.95
992.6366	2661.42	963.8	80.05
992.7602	2662.6743	971.7	87.65
992.8837	2663.9279	968.35	86.15
993.0073	2665.1808	968.85	85.8
993.1307	2666.433	964.05	80.55
993.2542	2667.6846	967.15	86
993.3776	2668.9354	973	87.25
993.501	2670.1856	970.05	86.4
993.6244	2671.4351	966.75	84.45
993.7477	2672.6839	967.75	84.4
993.8709	2673.9321	965.1	81.95
993.9942	2675.1795	968.05	84.85
994.1174	2676.4263	970.3	87.95
994.2405	2677.6724	967.05	85.75
994.3637	2678.9179	968.7	86.65
994.4868	2680.1626	967.75	87.15
994.6098	2681.4067	968.1	84.45
994.7328	2682.6501	967.2	85.05
994.8558	2683.8928	970.6	89.2
994.9788	2685.1348	966.05	85.35
995.1017	2686.3761	965.35	82.75
995.2245	2687.6168	966.15	85.85
995.3474	2688.8568	965	82.9
995.4702	2690.0961	963.25	81.2
995.5929	2691.3348	960.9	78.25
995.7156	2692.5727	961.35	78.6
995.8383	2693.81	962.75	80.75
995.961	2695.0466	960.9	79.5
996.0836	2696.2826	962.45	79.2
996.2062	2697.5178	966.4	80.5
996.3287	2698.7524	961.4	79.15
996.4512	2699.9863	965.7	81.4
996.5737	2701.2195	962.55	80.3
996.6961	2702.452	966.65	83.65
996.8185	2703.6839	961.4	80.8
996.9408	2704.9151	964.7	82.45
997.0631	2706.1456	964.95	82.25
997.1854	2707.3755	963.85	81.2
997.3077	2708.6046	967.25	83.2
997.4299	2709.8331	966.6	84.15
997.552	2711.0609	964.9	82.1
997.6742	2712.2881	964.35	82.5
997.7963	2713.5145	972.15	87.45
997.9183	2714.7403	969.65	89.25
998.0403	2715.9654	969.5	87.6
998.1623	2717.1899	986.9	92.6
998.2842	2718.4136	971.35	91.3
998.4062	2719.6367	972.3	90.65
998.528	2720.8591	982.5	93.25
998.6498	2722.0809	976.55	94.9
998.7716	2723.3019	979.75	93.7
998.8934	2724.5223	982.2	99.5
999.0151	2725.7421	982.25	98.85
999.1368	2726.9611	979.5	95.95
999.2584	2728.1795	982.05	96.75
999.38	2729.3972	973.1	91.2
999.5016	2730.6142	979.15	90.1
999.6231	2731.8306	973.25	90.65
999.7446	2733.0462	970	84.6
999.8661	2734.2612	968.05	79.9
999.9875	2735.4756	966.35	84.25
1000.1089	2736.6892	966.25	84.65
1000.2302	2737.9022	961.3	82
1000.3515	2739.1145	964.2	81.4
1000.4728	2740.3262	968.9	79.05
1000.594	2741.5372	962.35	81.05
1000.7152	2742.7475	961.65	80.8
1000.8363	2743.9571	959.3	74.75
1000.9575	2745.1661	958.85	73.25
1001.0785	2746.3744	953.75	71.4
1001.1996	2747.582	951.2	69.35
1001.3206	2748.7889	953.95	71.1
1001.4415	2749.9952	952.55	70.8
1001.5625	2751.2008	953.55	71.8
1001.6833	2752.4057	954.05	70.4
1001.8042	2753.61	953.8	73
1001.925	2754.8136	953.5	69.6
1002.0458	2756.0165	948.8	67.85
1002.1665	2757.2188	950.75	66.85
1002.2872	2758.4204	950.85	68.45
1002.4078	2759.6213	952.05	68.25
1002.5285	2760.8215	954.35	67.85
1002.649	2762.0211	951.1	67.35
1002.7696	2763.22	955.35	70.5
1002.8901	2764.4182	952.1	68.45
1003.0106	2765.6158	950.2	69.8
1003.131	2766.8127	947.6	67.2
1003.2514	2768.009	949.05	68.95
1003.3717	2769.2045	948.7	69.15
1003.492	2770.3994	949.6	65.25
1003.6123	2771.5936	948.2	66.9
1003.7325	2772.7872	947	67.25
1003.8527	2773.9801	947.3	64.9
1003.9729	2775.1723	962.1	62.95
1004.093	2776.3639	943.45	62.9
1004.2131	2777.5548	946.75	62.55
1004.3331	2778.745	947.1	63.75
1004.4531	2779.9346	946.1	66.05
1004.5731	2781.1235	947.9	66.05
1004.693	2782.3117	945.4	64.55
1004.8129	2783.4992	942.85	63.1
1004.9328	2784.6861	944.15	62.35
1005.0526	2785.8723	943.8	62.1
1005.1723	2787.0579	948.1	67.55
1005.2921	2788.2428	943.7	63.4
1005.4118	2789.427	945.4	65.3
1005.5314	2790.6106	942.2	61.2
1005.651	2791.7935	944.95	64.35
1005.7706	2792.9757	943.95	66.4
1005.8902	2794.1573	948.5	64.95
1006.0097	2795.3382	945.9	66.5
1006.1291	2796.5184	944.2	64.05
1006.2485	2797.698	950.45	67.65
1006.3679	2798.8769	949.75	69.05
1006.4873	2800.0551	949.2	68.55
1006.6066	2801.2327	949.45	64.4
1006.7258	2802.4096	951	71.25
1006.8451	2803.5859	950	70.7
1006.9642	2804.7615	954.6	72.1
1007.0834	2805.9364	949.45	69.75
1007.2025	2807.1106	951.6	71.1
1007.3216	2808.2842	952.5	72.45
1007.4406	2809.4572	955.9	75.15
1007.5596	2810.6294	956.2	74.5
1007.6785	2811.801	956.7	77.4
1007.7975	2812.972	960	81.45
1007.9163	2814.1423	963	82.75
1008.0352	2815.3119	966.9	84.85
1008.154	2816.4808	969.25	89.2
1008.2727	2817.6491	976.55	96.25
1008.3914	2818.8167	979.7	99.9
1008.5101	2819.9837	992.7	106.7
1008.6288	2821.15	992.75	112.3
1008.7474	2822.3157	1000.9	120.3
1008.8659	2823.4807	1011.65	129.65
1008.9844	2824.645	1026.25	145.2
1009.1029	2825.8086	1035.65	155.1
1009.2214	2826.9716	1045.75	165.5
1009.3398	2828.134	1059.9	179.3
1009.4581	2829.2957	1075.6	194.85
1009.5764	2830.4567	1080.7	201.1
1009.6947	2831.617	1089.8	207.7
1009.813	2832.7767	1088.75	209.5
1009.9312	2833.9358	1096.05	217.85
1010.0493	2835.0941	1090	208.15
1010.1675	2836.2519	1082.4	200
1010.2855	2837.4089	1079.35	197.2
1010.4036	2838.5653	1071.55	190.4
1010.5216	2839.7211	1072.4	191.1
1010.6396	2840.8761	1064.2	180.4
1010.7575	2842.0306	1061.45	182.95
1010.8754	2843.1843	1063.4	181.9
1010.9932	2844.3374	1065.3	184.55
1011.111	2845.4899	1069.75	189.1
1011.2288	2846.6417	1072.8	192.55
1011.3465	2847.7928	1070.75	190.95
1011.4642	2848.9433	1070.8	190.8
1011.5818	2850.0931	1074.25	192.9
1011.6995	2851.2422	1075.2	193
1011.817	2852.3907	1080.05	197.7
1011.9345	2853.5385	1084.8	202.25
1012.052	2854.6857	1110.8	204.25
1012.1695	2855.8323	1083.4	202.4
1012.2869	2856.9781	1087.25	207.65
1012.4042	2858.1233	1087.45	206.45
1012.5216	2859.2679	1099.1	219.1
1012.6389	2860.4118	1104.95	225.25
1012.7561	2861.555	1114.5	229.25
1012.8733	2862.6976	1114.15	231.3
1012.9905	2863.8395	1114.3	235.65
1013.1076	2864.9808	1120.1	239.85
1013.2247	2866.1214	1115.6	236.7
1013.3417	2867.2614	1131.3	249.95
1013.4587	2868.4007	1134.6	252.2
1013.5757	2869.5393	1132.85	249.15
1013.6926	2870.6773	1133.25	249.85
1013.8095	2871.8146	1140.55	257
1013.9263	2872.9513	1144.6	261.1
1014.0431	2874.0874	1150	269.25
1014.1599	2875.2227	1147.35	265.15
1014.2766	2876.3574	1152.8	271.95
1014.3933	2877.4915	1156.75	278.65
1014.51	2878.6249	1161.45	281.35
1014.6266	2879.7577	1159.5	279.05
1014.7431	2880.8898	1174	281.9
1014.8596	2882.0212	1164.85	284
1014.9761	2883.152	1172.45	291.1
1015.0925	2884.2821	1173.4	293.55
1015.2089	2885.4116	1177.4	295.95
1015.3253	2886.5405	1182.65	302.1
1015.4416	2887.6686	1185.35	303.05
1015.5579	2888.7962	1185.3	306.9
1015.6741	2889.923	1183.2	303
1015.7903	2891.0493	1178.75	301.65
1015.9065	2892.1748	1181.95	301.15
1016.0226	2893.2997	1185.35	305.15
1016.1387	2894.424	1182.2	303.35
1016.2547	2895.5476	1181.7	299.45
1016.3707	2896.6706	1178.8	298.4
1016.4866	2897.7929	1182.5	299
1016.6025	2898.9145	1178.3	298.3
1016.7184	2900.0355	1185.85	305.95
1016.8342	2901.1559	1179.75	299.75
1016.95	2902.2756	1183.6	297.9
1017.0658	2903.3946	1180.7	300.2
1017.1815	2904.513	1179.15	295.4
1017.2971	2905.6308	1172.9	296.35
1017.4127	2906.7479	1175.2	293.35
1017.5283	2907.8643	1169.45	289.75
1017.6439	2908.9801	1172.7	292.45
1017.7594	2910.0953	1169.3	289.3
1017.8748	2911.2098	1172.4	289.1
1017.9902	2912.3236	1179	291.4
1018.1056	2913.4368	1170.55	287
1018.2209	2914.5494	1171.35	290.7
1018.3362	2915.6613	1175.2	288.65
1018.4515	2916.7725	1163.2	280.85
1018.5667	2917.8831	1160.35	276.7
1018.6819	2918.9931	1163.15	281.3
1018.797	2920.1024	1145.95	265.3
1018.9121	2921.211	1144.65	263
1019.0271	2922.319	1144.55	263.25
1019.1421	2923.4264	1140.1	262.45
1019.2571	2924.5331	1140.2	263.3
1019.372	2925.6391	1135	257.5
1019.4869	2926.7445	1138.05	258
1019.6017	2927.8493	1140.85	261.15
1019.7165	2928.9534	1140.85	259.75
1019.8313	2930.0569	1147.2	264.85
1019.946	2931.1597	1148.1	267.2
1020.0606	2932.2619	1145.85	265.95
1020.1753	2933.3634	1150.35	271.45
1020.2899	2934.4643	1156.85	270
1020.4044	2935.5645	1159.25	274.45
1020.5189	2936.6641	1157.45	273.05
1020.6334	2937.763	1155.3	275.3
1020.7478	2938.8613	1154.4	275.5
1020.8622	2939.959	1161.25	276.4
1020.9765	2941.056	1151.15	271.5
1021.0908	2942.1523	1137.6	253.8
1021.2051	2943.248	1123.15	242.75
1021.3193	2944.3431	1110.7	230.7
1021.4334	2945.4375	1104.15	223.3
1021.5476	2946.5313	1086.15	206.2
1021.6617	2947.6244	1076.7	197
1021.7757	2948.7169	1069	188.45
1021.8897	2949.8087	1058	175.15
1022.0037	2950.8999	1046	166.85
1022.1176	2951.9904	1041.95	162.6
1022.2315	2953.0803	1032.25	152.05
1022.3453	2954.1696	1028.8	149.6
1022.4591	2955.2582	1022.75	143.2
1022.5728	2956.3462	1019.35	137.85
1022.6865	2957.4335	1016.8	135.95
1022.8002	2958.5202	1012.85	131.3
1022.9138	2959.6062	1015.95	137.25
1023.0274	2960.6916	1015	134.8
1023.141	2961.7764	1016.5	134.55
1023.2545	2962.8605	1014.15	129.95
1023.3679	2963.9439	1016.95	136.7
1023.4813	2965.0267	1016.4	134.25
1023.5947	2966.1089	1038.95	137.6
1023.708	2967.1905	1016.7	135.85
1023.8213	2968.2714	1014.35	134.35
1023.9346	2969.3516	1010.5	129.95
1024.0478	2970.4312	1019.5	132.3
1024.1609	2971.5102	1007.4	128.3
1024.274	2972.5885	1008.05	128.75
1024.3871	2973.6662	1014.1	127.9
1024.5002	2974.7432	1011.1	132.15
1024.6132	2975.8196	1008	127.7
1024.7261	2976.8954	1009.05	129.3
1024.839	2977.9705	1007.8	127.45
1024.9519	2979.045	1009.65	129.05
1025.0647	2980.1188	1008.55	129.1
1025.1775	2981.192	1005.55	126.65
1025.2902	2982.2645	1007.9	127.2
1025.4029	2983.3364	1005.85	124.9
1025.5156	2984.4077	999.95	121.25
1025.6282	2985.4783	1001.55	116.1
1025.7407	2986.5483	989.8	110.15
1025.8532	2987.6177	990.85	110
1025.9657	2988.6864	986.6	108
1026.0782	2989.7545	988.15	107.4
1026.1906	2990.8219	979.55	101.45
1026.3029	2991.8887	975.7	93.6
1026.4152	2992.9548	971.2	91.75
1026.5275	2994.0204	966.35	89.25
1026.6397	2995.0852	961.35	81.3
1026.7519	2996.1495	960.45	77.5
1026.864	2997.2131	953.45	73.3
1026.9761	2998.276	951.9	70.9
1027.0882	2999.3383	948.65	68.9
1027.2002	3000.4	944.1	62.45
1027.3122	3001.4611	942.65	62.6
1027.4241	3002.5215	942.15	62.9
1027.536	3003.5812	936.3	57
1027.6478	3004.6404	938.25	58.65
1027.7596	3005.6989	935.25	52.4
1027.8714	3006.7567	934.65	54.45
1027.9831	3007.8139	956.7	50.6
1028.0947	3008.8705	930.7	49.75
1028.2064	3009.9264	933.5	49.9
1028.3179	3010.9818	928.45	49.15
1028.4295	3012.0364	929.35	47.75
1028.541	3013.0905	925.75	46.7
1028.6524	3014.1439	925.15	46
1028.7638	3015.1966	923.4	45.05
1028.8752	3016.2487	924.6	45.25
1028.9865	3017.3002	925.65	41.6
1029.0978	3018.3511	923.6	46.35
1029.209	3019.4013	921.95	40.9
1029.3202	3020.4509	921	42.8
1029.4314	3021.4998	920.5	41.2
1029.5425	3022.5481	925.25	44.45
1029.6535	3023.5958	922.2	41.85
1029.7645	3024.6428	922.45	42.55
1029.8755	3025.6892	919.25	40.8
1029.9864	3026.735	917.75	38.4
1030.0973	3027.7802	918.6	39.15
1030.2082	3028.8247	920.2	39.85
1030.319	3029.8685	920.4	40.3
1030.4297	3030.9118	920.15	38.8
1030.5404	3031.9544	919.55	42.25
1030.6511	3032.9963	919.95	40.5
1030.7617	3034.0376	920.3	40.9
1030.8723	3035.0783	921.7	39.45
1030.9829	3036.1184	921.3	38.6
1031.0934	3037.1578	919.85	39.95
1031.2038	3038.1966	923.5	41.45
1031.3142	3039.2348	920.25	42
1031.4246	3040.2723	929.5	41.95
1031.5349	3041.3092	921.95	44.25
1031.6452	3042.3455	923.5	42.4
1031.7554	3043.3811	923.1	43.5
1031.8656	3044.4161	920.1	41.4
1031.9758	3045.4505	920.95	41.25
1032.0859	3046.4842	920.3	40.25
1032.1959	3047.5173	920.4	41.25
1032.3059	3048.5498	924.3	45.2
1032.4159	3049.5816	921.35	41.95
1032.5258	3050.6128	920.8	42.4
1032.6357	3051.6434	920.8	38.45
1032.7455	3052.6734	922.65	44.45
1032.8553	3053.7027	922.5	43.5
1032.9651	3054.7314	921.2	42.85
1033.0748	3055.7594	919.1	39.55
1033.1845	3056.7868	921.65	40.35
1033.2941	3057.8136	920.2	42.65
1033.4037	3058.8398	924.75	44.7
1033.5132	3059.8653	924.3	46.4
1033.6227	3060.8902	924.2	45.85
1033.7321	3061.9145	922.6	42.8
1033.8415	3062.9381	924.45	46.2
1033.9509	3063.9612	941	47.25
1034.0602	3064.9835	925.3	48.45
1034.1694	3066.0053	926.45	45.15
1034.2787	3067.0264	923.05	44.55
1034.3878	3068.0469	924	42.65
1034.497	3069.0668	927.1	45.65
1034.6061	3070.086	923.65	45.5
1034.7151	3071.1046	922.4	43.05
1034.8241	3072.1226	922.95	40.55
1034.9331	3073.1399	920.5	42.6
1035.042	3074.1567	923.75	45.95
1035.1508	3075.1727	922.65	41.2
1035.2597	3076.1882	919.9	40.1
1035.3684	3077.203	919.8	42.1
1035.4772	3078.2173	920.25	38.4
1035.5859	3079.2308	920.1	38.1
1035.6945	3080.2438	917.8	35.7
1035.8031	3081.2561	913.95	37.4
1035.9117	3082.2678	913.1	33.05
1036.0202	3083.2789	913.05	36.25
1036.1286	3084.2893	915.25	35.3
1036.2371	3085.2991	910.35	31.6
1036.3454	3086.3083	917.9	33.85
1036.4538	3087.3169	915.1	34.05
1036.562	3088.3248	908.15	27.1
1036.6703	3089.3321	913.1	32.2
1036.7785	3090.3388	907.45	27.7
1036.8866	3091.3449	909.75	29.55
1036.9948	3092.3503	911.8	29.1
1037.1028	3093.3551	907.4	30.1
1037.2108	3094.3593	908.95	30.35
1037.3188	3095.3629	909.55	31.15
1037.4267	3096.3658	909.35	28.2
1037.5346	3097.3681	906.9	28.5
1037.6425	3098.3698	906.3	24
1037.7503	3099.3708	908.05	27.4
1037.858	3100.3713	906.95	27.7
1037.9657	3101.3711	908.55	27.75
1038.0734	3102.3702	1046.25	25.95
1038.181	3103.3688	907.15	26.05
1038.2886	3104.3667	904.75	26.15
1038.3961	3105.364	904.3	24.95
1038.5036	3106.3607	908.8	26.55
1038.611	3107.3568	906.35	25.7
1038.7184	3108.3522	902.1	23.15
1038.8257	3109.347	905.4	25.6
1038.933	3110.3412	907.4	24.75
1039.0403	3111.3348	902	23.05
1039.1475	3112.3277	904.2	24.4
1039.2547	3113.32	900.8	23.95
1039.3618	3114.3117	901.45	22
1039.4689	3115.3028	902.15	22.7
1039.5759	3116.2932	903.85	24.4
1039.6829	3117.2831	908.3	23.6
1039.7898	3118.2723	901.75	22.9
1039.8967	3119.2608	901.2	22.2
1040.0035	3120.2488	900.55	21.95
1040.1103	3121.2361	899.05	17.7
1040.2171	3122.2229	900.05	21.5
1040.3238	3123.209	902.55	21.85
1040.4305	3124.1944	900.15	22.75
1040.5371	3125.1793	902.35	20.05
1040.6437	3126.1635	897.05	18.95
1040.7502	3127.1471	898.2	19.7
1040.8567	3128.1301	897.15	16.65
1040.9631	3129.1125	899.1	19.4
1041.0695	3130.0942	897.05	15.85
1041.1759	3131.0753	903.95	14.85
1041.2822	3132.0558	899.8	17.8
1041.3884	3133.0357	896.9	18.1
1041.4946	3134.015	897.35	15.9
1041.6008	3134.9936	898.35	19
1041.7069	3135.9716	920.6	18
1041.813	3136.949	898.65	19.2
1041.919	3137.9258	917.05	20.45
1042.025	3138.902	900.15	16.05
1042.1309	3139.8775	895.4	17.45
1042.2368	3140.8524	895.1	17.05
1042.3427	3141.8267	897.35	15.85
1042.4485	3142.8004	895.75	15.35
1042.5542	3143.7735	901.35	15.6
1042.6599	3144.7459	897.75	16.25
1042.7656	3145.7178	895.2	15
1042.8712	3146.689	894.6	15.85
1042.9768	3147.6596	895.2	15.9
1043.0823	3148.6295	898.6	19.3
1043.1878	3149.5989	895.45	16.8
1043.2932	3150.5676	895.65	17.75
1043.3986	3151.5357	893.9	19.1
1043.5039	3152.5032	893.7	15.85
1043.6092	3153.4701	892.4	14.8
1043.7145	3154.4364	894.45	14.8
1043.8197	3155.402	893.8	15.75
1043.9248	3156.367	896.65	15.5
1044.03	3157.3315	932.4	17.45
1044.135	3158.2952	893.4	14
1044.24	3159.2584	894.1	15.9
1044.345	3160.221	894.4	13.95
1044.4499	3161.1829	894.15	16.3
1044.5548	3162.1442	891.4	12.25
1044.6596	3163.105	893.65	15.55
1044.7644	3164.065	893	14.35
1044.8692	3165.0245	897.7	18.8
1044.9739	3165.9834	894.55	17.05
1045.0785	3166.9416	892.45	14.2
1045.1831	3167.8993	895.25	17
1045.2877	3168.8563	893.25	15.2
1045.3922	3169.8127	893.55	15.95
1045.4966	3170.7684	892.65	12.7
1045.6011	3171.7236	896.25	15.45
1045.7054	3172.6782	893	13.2
1045.8098	3173.6321	895.25	15.65
1045.914	3174.5854	896.2	13.8
1046.0183	3175.5381	891.1	11.45
1046.1224	3176.4902	891.65	12.7
1046.2266	3177.4417	890.2	11.45
1046.3307	3178.3926	890.65	12.9
1046.4347	3179.3428	893.1	15.2
1046.5387	3180.2924	889.5	11.4
1046.6427	3181.2415	892.8	14.55
1046.7466	3182.1899	892.65	12.5
1046.8504	3183.1377	889.45	12.7
1046.9542	3184.0848	893.8	12.35
1047.058	3185.0314	893.3	13.15
1047.1617	3185.9773	891	12.25
1047.2654	3186.9227	893.8	15.9
1047.369	3187.8674	890.45	10.35
1047.4726	3188.8115	895.9	11.7
1047.5761	3189.755	890.3	12.15
1047.6796	3190.6979	891.2	11.95
1047.783	3191.6402	892.3	13.15
1047.8864	3192.5818	892	13.45
1047.9898	3193.5229	917.05	13.7
1048.0931	3194.4633	890.85	10.75
1048.1963	3195.4031	891.35	9.5
1048.2995	3196.3423	891.25	10.4
1048.4027	3197.2809	889.7	10.95
1048.5058	3198.2189	891.25	11.4
1048.6089	3199.1563	897.4	13.4
1048.7119	3200.0931	890.15	12.35
1048.8148	3201.0292	889.5	12.05
1048.9178	3201.9648	890.7	11.4
1049.0206	3202.8997	895.3	10.85
1049.1235	3203.834	889.1	9.35
1049.2262	3204.7677	887.7	6.65
1049.329	3205.7008	890.3	9.05
1049.4317	3206.6333	889.6	12.1
1049.5343	3207.5652	891.75	11.15
1049.6369	3208.4964	889.6	9.75
1049.7394	3209.4271	887.8	10.1
1049.8419	3210.3571	889.25	9.5
1049.9444	3211.2865	889.2	8.4
1050.0468	3212.2154	892.65	12.9
1050.1491	3213.1436	893.6	10.55
1050.2514	3214.0712	896.15	10.6
1050.3537	3214.9982	888.2	10.35
1050.4559	3215.9246	890	10.4
1050.5581	3216.8503	886.55	7.5
1050.6602	3217.7755	889.85	11.8
1050.7623	3218.7001	887.75	8.95
1050.8643	3219.624	890.65	10.55
1050.9663	3220.5473	891.35	13.7
1051.0682	3221.4701	892.75	12.95
1051.1701	3222.3922	889.4	7.25
1051.2719	3223.3137	888.65	10.35
1051.3737	3224.2346	886.9	8.8
1051.4754	3225.1549	887.45	7
1051.5771	3226.0746	889.05	10.6
1051.6788	3226.9937	889.05	9.25
1051.7804	3227.9121	887.6	9.75
1051.8819	3228.83	888.3	9.55
1051.9834	3229.7473	887.65	9.65
1052.0849	3230.6639	886.55	7.3
1052.1863	3231.5799	887.45	9
1052.2876	3232.4954	888.25	10.65
1052.3889	3233.4102	886.6	6.7
1052.4902	3234.3244	886.8	7.55
1052.5914	3235.238	886.25	8.25
1052.6926	3236.151	910.5	7.7
1052.7937	3237.0634	888.7	12.05
1052.8948	3237.9752	888.25	8.25
1052.9958	3238.8864	886.95	9.05
1053.0968	3239.797	886.75	7.75
1053.1977	3240.7069	887.65	8.6
1053.2986	3241.6163	887.15	5.45
1053.3994	3242.5251	888.1	8.75
1053.5002	3243.4332	886.85	9.55
1053.6009	3244.3408	888.85	9.55
1053.7016	3245.2477	888.05	8.75
1053.8022	3246.154	888.3	7.55
1053.9028	3247.0598	886.9	8.45
1054.0034	3247.9649	885.25	8.15
1054.1039	3248.8694	889.85	10.5
1054.2043	3249.7733	886.3	7.25
1054.3047	3250.6766	886.65	9.45
1054.4051	3251.5793	888.25	7.75
1054.5054	3252.4814	888	8.95
1054.6056	3253.3829	886.9	8.85
1054.7058	3254.2838	887.3	7.55
1054.806	3255.1841	888.55	10.6
1054.9061	3256.0838	887.25	6.95
1055.0061	3256.9829	885.2	7.3
1055.1062	3257.8814	887.8	5.85
1055.2061	3258.7792	886.6	5.95
1055.306	3259.6765	885.25	6.85
1055.4059	3260.5731	887.2	8
1055.5057	3261.4692	887.45	8.35
1055.6055	3262.3647	887.85	8.75
1055.7052	3263.2595	885.55	7.85
1055.8049	3264.1538	885.15	9.5
1055.9045	3265.0474	884.9	5.8
1056.0041	3265.9404	885.65	6.6
1056.1036	3266.8329	883.95	6.05
1056.2031	3267.7247	893.2	3.25
1056.3025	3268.616	884.2	5.85
1056.4019	3269.5066	886.3	8.5
1056.5013	3270.3966	886.65	5.6
1056.6005	3271.286	883.3	5.9
