Software Version:	3.9.2.0
Unit SN:	10000200
Spectrometer SN:	6960
Date:	3/8/2024 2:09:54 PM
Data Line Index:	25
Spectral Points:	2048
Integration time (ms):	125
Averages:	20
Delay (ms):	30000
Sequence Number:	1
Processing:	dark subtract
Laser Power (mW):	300
Laser Current (mA):	823
Laser Diode Temp (C):	25.1
Laser Case Temp (C):	26.3
System Temp (C):	26.3
Spectrometer Temp (C):	24.1
CCD Temp (C):	0.005
Secondary Temp (C):	20.008
Heatsink Temp (C):	21.418
CCDPCB Temp (C):	35.873
SecondaryPCB Temp (C):	31.105

Wavelength	RamanShift	Raw Counts	Dark Subtracted
787.061	30.1047	465.7	58.35
787.2016	32.3739	466.95	62.25
787.3422	34.6426	473.1	65.55
787.4828	36.9109	480.45	69.7
787.6235	39.1787	490.15	76.35
787.7642	41.4461	499.3	83.25
787.9049	43.7131	506.15	83.35
788.0456	45.9796	515.9	92.7
788.1863	48.2456	524.25	95.65
788.3271	50.5112	533.1	101.5
788.4679	52.7764	545.25	110.65
788.6087	55.0411	554.95	114.75
788.7496	57.3054	570.15	123.6
788.8904	59.5692	579.25	131.35
789.0313	61.8326	594	145.7
789.1722	64.0955	604.15	152.25
789.3132	66.3579	622.8	164.4
789.4541	68.6199	641.25	179.35
789.5951	70.8815	682.75	215.1
789.7361	73.1426	762.95	294.1
789.8771	75.4032	981.1	507.5
790.0181	77.6634	1521.05	1043.7
790.1592	79.9231	2772.1	2285.7
790.3003	82.1824	5522.4	5015.75
790.4414	84.4412	10426.05	9890.1
790.5825	86.6995	17218.65	16639.1
790.7237	88.9574	23833.7	23219.95
790.8648	91.2148	28401.8	27769.9
791.006	93.4717	30544.65	29894.25
791.1472	95.7282	31092.85	30432.3
791.2885	97.9842	31035.6	30375.5
791.4297	100.2398	30595.3	29927.4
791.571	102.4949	30047	29377.25
791.7123	104.7495	29367.2	28694.95
791.8536	107.0036	28554.55	27884.45
791.9949	109.2573	27830	27162.9
792.1363	111.5105	27078.95	26406.2
792.2777	113.7632	26426.35	25750.7
792.4191	116.0154	25837.5	25149.3
792.5605	118.2672	25416.85	24738.05
792.7019	120.5185	24968.85	24285.75
792.8434	122.7693	24613.6	23924.4
792.9849	125.0197	24295.9	23607.75
793.1264	127.2696	24055.65	23363.8
793.2679	129.519	23953.35	23255.55
793.4094	131.7679	23765.15	23063.25
793.551	134.0163	23643.55	22937.1
793.6926	136.2642	23468.6	22761.95
793.8342	138.5117	23307.65	22587.1
793.9758	140.7587	23099	22386.5
794.1175	143.0052	22953.4	22238.2
794.2591	145.2512	22701.25	21988.75
794.4008	147.4967	22532.6	21815.7
794.5425	149.7417	22392.5	21676.3
794.6842	151.9863	22262.55	21537.2
794.826	154.2304	22244.4	21518.25
794.9677	156.4739	22081.25	21348.15
795.1095	158.717	22052.7	21320.3
795.2513	160.9596	21907	21168.55
795.3931	163.2017	21654.35	20919.45
795.535	165.4433	21406.6	20667.05
795.6768	167.6844	21125.85	20386.75
795.8187	169.925	20844.15	20103.9
795.9606	172.1651	20450.15	19704.7
796.1025	174.4047	20161.6	19411.6
796.2445	176.6439	19923.75	19174.7
796.3864	178.8825	19694.7	18937.9
796.5284	181.1206	19590.65	18828.65
796.6704	183.3582	19418.5	18653.9
796.8124	185.5954	19315.65	18549.85
796.9544	187.832	19243.75	18472.5
797.0965	190.0681	19260.25	18489.2
797.2386	192.3037	19271.8	18496.1
797.3806	194.5388	19267.8	18486.2
797.5228	196.7734	19324.15	18543.4
797.6649	199.0075	19454.2	18670.75
797.807	201.2411	19612.1	18826.6
797.9492	203.4742	19680.35	18891.1
798.0914	205.7068	19841.75	19047.5
798.2336	207.9389	19980.65	19191.4
798.3758	210.1704	20158.75	19374.8
798.518	212.4015	20311.7	19537.95
798.6603	214.632	20483.9	19716.95
798.8025	216.862	20655.8	19890.25
798.9448	219.0915	20858.3	20086.35
799.0871	221.3205	21101.1	20327.95
799.2294	223.549	21366.2	20597.45
799.3718	225.777	21673.2	20903.85
799.5141	228.0044	22065.95	21287.4
799.6565	230.2314	22571.4	21796.85
799.7989	232.4578	23005.4	22226.55
799.9413	234.6837	23368	22580.3
800.0837	236.909	23636.9	22846.4
800.2262	239.1339	23626.45	22807.85
800.3687	241.3582	23413.2	22613.75
800.5111	243.582	23103.1	22273
800.6536	245.8053	22768.05	21950.5
800.7961	248.0281	22427.3	21614.95
800.9387	250.2503	22207.3	21390.35
801.0812	252.472	22054.7	21242.75
801.2238	254.6932	22063.4	21251
801.3664	256.9139	21923.8	21103.1
801.509	259.134	21966.35	21142.9
801.6516	261.3536	21954	21132.05
801.7942	263.5727	22007.95	21182.15
801.9369	265.7912	21937.45	21114.55
802.0795	268.0092	21994.85	21173
802.2222	270.2267	21952.7	21129.65
802.3649	272.4436	21913.35	21088.45
802.5076	274.6601	21898.4	21063.7
802.6504	276.8759	21855.7	21027.05
802.7931	279.0913	21854.45	21027.3
802.9359	281.3061	21823.15	20989
803.0787	283.5204	21892.95	21051
803.2215	285.7341	21996.65	21157.4
803.3643	287.9473	22174.25	21327.4
803.5071	290.16	22438.6	21592.45
803.6499	292.3721	22781.8	21948.15
803.7928	294.5837	23209.75	22371.6
803.9357	296.7947	23601.7	22762.6
804.0786	299.0052	23827.2	22986.45
804.2215	301.2152	23673.95	22833.1
804.3644	303.4246	23355.55	22517.15
804.5074	305.6334	22839.2	22005.3
804.6503	307.8418	22314	21475.45
804.7933	310.0495	21922.8	21078.75
804.9363	312.2568	21642.55	20798
805.0793	314.4635	21432.75	20586.65
805.2223	316.6696	21343.3	20493.95
805.3653	318.8752	21313.8	20458.2
805.5084	321.0802	21387.15	20535.85
805.6514	323.2847	21519.35	20664.55
805.7945	325.4887	21564.5	20710.6
805.9376	327.692	21536.55	20676.85
806.0807	329.8949	21409.4	20551
806.2238	332.0972	21182.35	20321.2
806.367	334.2989	20914.35	20054.6
806.5101	336.5001	20654.25	19791.95
806.6533	338.7007	20498.9	19637.9
806.7965	340.9008	20391.3	19524.75
806.9397	343.1003	20307.55	19439.95
807.0829	345.2992	20265.65	19400.05
807.2261	347.4976	20247.2	19377
807.3693	349.6955	20276.6	19407.25
807.5126	351.8927	20343.5	19476.9
807.6559	354.0895	20370.7	19492.1
807.7991	356.2856	20424.85	19553.9
807.9424	358.4812	20386.15	19512.8
808.0857	360.6763	20474.5	19599.3
808.2291	362.8707	20466.9	19590.35
808.3724	365.0646	20512.75	19631.85
808.5158	367.258	20539.55	19661.7
808.6591	369.4508	20551.25	19668.5
808.8025	371.643	20660.75	19777.5
808.9459	373.8346	20640.9	19755.55
809.0893	376.0257	20655	19770.7
809.2327	378.2162	20553.15	19671.2
809.3762	380.4062	20456.2	19572.4
809.5196	382.5956	20338.9	19456.95
809.6631	384.7844	20271.35	19397.75
809.8066	386.9726	20141.55	19263.9
809.9501	389.1603	20087.25	19213.5
810.0936	391.3474	20097	19197.4
810.2371	393.5339	20100.4	19217.9
810.3806	395.7199	20023.5	19147.35
810.5241	397.9052	20128	19250.85
810.6677	400.09	20123.4	19247
810.8113	402.2743	20209.05	19330.6
810.9548	404.4579	20282	19402.05
811.0984	406.641	20464.15	19586.75
811.2421	408.8235	20698.35	19821.15
811.3857	411.0054	21038.75	20152.05
811.5293	413.1868	21526.45	20636.6
811.673	415.3675	21843.95	20952.25
811.8166	417.5477	22061.05	21169.3
811.9603	419.7273	22103.7	21210.6
812.104	421.9064	22016	21117.55
812.2477	424.0848	21890.55	21002
812.3914	426.2627	21667.5	20777.2
812.5351	428.4399	21364.35	20470.4
812.6788	430.6166	21021.5	20127.8
812.8226	432.7928	20684.85	19783.15
812.9663	434.9683	20383.55	19489.95
813.1101	437.1432	20200.8	19307.5
813.2539	439.3176	20018.65	19132.05
813.3977	441.4914	19919.75	19036.85
813.5415	443.6645	19904.9	19020
813.6853	445.8371	19809	18915.9
813.8291	448.0091	19749.25	18857
813.973	450.1806	19742.05	18849.65
814.1168	452.3514	19663	18773.15
814.2607	454.5216	19710.15	18809.75
814.4046	456.6913	19620.65	18729.35
814.5485	458.8603	19702.65	18811.65
814.6924	461.0288	19792.15	18907.4
814.8363	463.1967	19786.2	18907.3
814.9802	465.3639	19924.8	19035.75
815.1241	467.5306	20026.15	19137.3
815.2681	469.6967	20227.9	19339.1
815.412	471.8622	20363.6	19477.85
815.556	474.0271	20530.25	19645.05
815.7	476.1914	20598.45	19700.65
815.844	478.3551	20596.35	19701.6
815.988	480.5182	20595.45	19709.85
816.132	482.6807	20618	19740.05
816.276	484.8426	20754	19882.3
816.4201	487.0039	21056.5	20172.9
816.5641	489.1647	21479.85	20587.15
816.7082	491.3248	21913.95	21019
816.8522	493.4843	22084.05	21198.15
816.9963	495.6432	22118.25	21228.9
817.1404	497.8015	22038.1	21136.65
817.2845	499.9592	22074.05	21167.9
817.4286	502.1163	22021.7	21116.25
817.5727	504.2728	21791.7	20898.15
817.7168	506.4287	21535.05	20654.25
817.861	508.5839	21083.55	20196.8
818.0051	510.7386	20772.55	19882.9
818.1493	512.8927	20623.85	19718.2
818.2935	515.0461	20536.7	19635.2
818.4377	517.199	20511.35	19608.4
818.5818	519.3512	20485.25	19581.75
818.726	521.5029	20562	19656.7
818.8703	523.6539	20622.8	19716.65
819.0145	525.8043	20716.9	19816.55
819.1587	527.9541	20743.3	19837.5
819.303	530.1033	20766.6	19860.8
819.4472	532.2519	20812.65	19908.5
819.5915	534.3999	20975.05	20070.7
819.7357	536.5472	21234.45	20332.3
819.88	538.694	21753.7	20854.8
820.0243	540.8401	22372.4	21467.45
820.1686	542.9856	22873.55	21958.75
820.3129	545.1305	23009.35	22085.65
820.4572	547.2748	22949.8	22025.75
820.6016	549.4185	22593	21666.1
820.7459	551.5615	22220.3	21295.65
820.8902	553.704	22074.45	21154.05
821.0346	555.8458	22029.35	21114.75
821.1789	557.987	22067.15	21153
821.3233	560.1276	21997.55	21078.35
821.4677	562.2675	22062.8	21144.95
821.6121	564.4069	22057.45	21138.3
821.7565	566.5456	22038.85	21121.05
821.9009	568.6837	22000.55	21089.4
822.0453	570.8212	21744.45	20829.5
822.1897	572.958	21459.85	20547.35
822.3342	575.0942	21194.3	20284.75
822.4786	577.2299	20995	20090
822.6231	579.3648	20949.5	20056.7
822.7675	581.4992	21047.2	20169.05
822.912	583.6329	21247.95	20367.95
823.0565	585.766	21495.25	20605
823.201	587.8985	21641.25	20747.3
823.3454	590.0304	21662.55	20744.95
823.4899	592.1616	21604.75	20689.3
823.6345	594.2922	21502.05	20586.2
823.779	596.4222	21382.7	20459.85
823.9235	598.5515	21214.45	20293.4
824.068	600.6802	21087.2	20161.3
824.2126	602.8083	20886.95	19971.15
824.3571	604.9358	20830.45	19914.55
824.5017	607.0626	20782.4	19858.75
824.6462	609.1888	20764.25	19836.45
824.7908	611.3144	20721.45	19794.4
824.9354	613.4393	20638.8	19709.15
825.08	615.5636	20553.05	19624.5
825.2246	617.6873	20435.15	19506.55
825.3692	619.8103	20402.85	19474.1
825.5138	621.9327	20349.75	19425.25
825.6584	624.0544	20315.25	19394.35
825.803	626.1756	20314.1	19392.8
825.9477	628.2961	20293.45	19368.4
826.0923	630.4159	20229.55	19303
826.237	632.5351	20228.95	19297.2
826.3816	634.6537	20162.2	19231.25
826.5263	636.7716	20215.95	19278.05
826.6709	638.8889	20238.45	19300.5
826.8156	641.0056	20285.85	19351.75
826.9603	643.1216	20274.9	19339.5
827.105	645.237	20334.1	19399.65
827.2497	647.3518	20321.4	19397.6
827.3944	649.4659	20337.6	19419.7
827.5391	651.5793	20376.6	19458
827.6838	653.6922	20366.4	19441.25
827.8285	655.8043	20407.25	19482.55
827.9733	657.9159	20383.25	19459.95
828.118	660.0268	20303.4	19376.9
828.2627	662.137	20256.8	19329.15
828.4075	664.2466	20257.2	19320.85
828.5522	666.3556	20273.1	19339.9
828.697	668.4639	20224.15	19295.85
828.8418	670.5716	20298.75	19374.9
828.9865	672.6786	20440.65	19509.9
829.1313	674.785	20498.75	19562.85
829.2761	676.8907	20559.7	19629.2
829.4209	678.9958	20637.75	19713.6
829.5657	681.1002	20556.2	19626.05
829.7105	683.204	20588.8	19645.9
829.8553	685.3072	20577.25	19641.4
830.0001	687.4097	20494.75	19559.5
830.1449	689.5115	20501.05	19563.35
830.2898	691.6127	20468.8	19538.15
830.4346	693.7132	20397.7	19467.05
830.5794	695.8131	20395.9	19444.15
830.7243	697.9123	20380.05	19434.25
830.8691	700.0109	20362	19417.85
831.014	702.1089	20360.75	19422.3
831.1588	704.2061	20373.7	19436.35
831.3037	706.3028	20458.65	19520.7
831.4486	708.3987	20519.45	19577.2
831.5935	710.4941	20613.95	19680.6
831.7383	712.5887	20799.5	19865.7
831.8832	714.6827	21096.45	20159
832.0281	716.7761	21460.55	20526.5
832.173	718.8688	21846.9	20912.65
832.3179	720.9608	22044.45	21096.5
832.4628	723.0522	22153.2	21204.35
832.6077	725.1429	21945.9	20999.65
832.7527	727.233	21665.35	20721.45
832.8976	729.3224	21441.2	20500
833.0425	731.4112	21146.9	20205.6
833.1874	733.4993	20982.4	20043.6
833.3324	735.5867	20803.9	19863.35
833.4773	737.6735	20746.7	19804.8
833.6222	739.7596	20687.4	19746.5
833.7672	741.845	20672.8	19732.05
833.9122	743.9298	20652.85	19709.65
834.0571	746.014	20638.9	19696.4
834.2021	748.0974	20636.95	19690.35
834.347	750.1802	20676.35	19725.3
834.492	752.2624	20688.4	19738.6
834.637	754.3439	20697.95	19747.45
834.782	756.4247	20774.85	19818.65
834.9269	758.5048	20860.75	19912.8
835.0719	760.5843	21128.65	20182.6
835.2169	762.6631	21435.9	20488.35
835.3619	764.7413	21888.55	20942.65
835.5069	766.8188	22468.05	21521.55
835.6519	768.8956	22910.4	21963.5
835.7969	770.9718	23177.5	22234.6
835.9419	773.0473	23058.2	22109.05
836.0869	775.1221	22756.05	21808.05
836.232	777.1962	22378.7	21427.25
836.377	779.2697	22193.45	21243
836.522	781.3426	22293.45	21325.9
836.667	783.4147	22495.3	21544.4
836.8121	785.4862	22839.9	21891.1
836.9571	787.557	22859.6	21907.6
837.1021	789.6271	22574.55	21622.45
837.2472	791.6966	22038.7	21088.4
837.3922	793.7654	21489.1	20541.5
837.5373	795.8335	21224.3	20276.25
837.6823	797.901	21079.5	20127.65
837.8274	799.9678	21017.25	20063.75
837.9724	802.0339	21034.95	20083.8
838.1175	804.0993	21097.3	20135.7
838.2626	806.1641	21090.55	20134.4
838.4076	808.2282	21042.2	20096
838.5527	810.2916	20976.6	20023.35
838.6978	812.3544	20865.25	19916.4
838.8428	814.4164	20780.05	19828.2
838.9879	816.4778	20833.45	19879.7
839.133	818.5385	20822.25	19869.1
839.2781	820.5986	20965.6	20012.45
839.4232	822.658	21056.65	20103.65
839.5682	824.7166	21137.2	20182.7
839.7133	826.7747	21412.4	20460.35
839.8584	828.832	21581.1	20630.2
840.0035	830.8886	21676.65	20720.75
840.1486	832.9446	21853.85	20894.6
840.2937	834.9999	21905.65	20951.5
840.4388	837.0545	21955.5	20995.25
840.5839	839.1085	21938.6	20981.9
840.729	841.1618	21924.95	20965.45
840.8741	843.2143	21906.8	20951.7
841.0192	845.2662	21822.6	20868.3
841.1643	847.3175	21784.15	20827.1
841.3095	849.368	21677.6	20723.5
841.4546	851.4179	21552.05	20595.95
841.5997	853.467	21415.65	20462.45
841.7448	855.5155	21340.5	20384.1
841.8899	857.5633	21242.15	20287.4
842.0351	859.6105	21151.65	20192.45
842.1802	861.6569	21084.7	20124.15
842.3253	863.7027	21073.9	20116.55
842.4704	865.7478	21118.3	20160.3
842.6156	867.7922	21129.55	20169.75
842.7607	869.8359	21181.35	20222.35
842.9058	871.8789	21276.3	20314.05
843.0509	873.9212	21526	20533.1
843.1961	875.9629	21603.7	20646.2
843.3412	878.0039	21836.45	20880.2
843.4863	880.0441	21945.15	20988.3
843.6315	882.0837	21966.15	21009.75
843.7766	884.1226	21834.8	20874.3
843.9218	886.1609	21777.75	20820.5
844.0669	888.1984	21720.65	20759.9
844.212	890.2352	21737.75	20780.1
844.3572	892.2714	21715.2	20751.2
844.5023	894.3069	21712.4	20749.55
844.6475	896.3416	21642.75	20683.25
844.7926	898.3757	21641.45	20682
844.9377	900.4091	21623.7	20663.85
845.0829	902.4418	21639.95	20672.65
845.228	904.4739	21666.05	20702.2
845.3732	906.5052	21697.8	20732.6
845.5183	908.5358	21582.45	20618.55
845.6635	910.5658	21484.8	20519.05
845.8086	912.595	21317.6	20354.85
845.9538	914.6236	21158.05	20199.75
846.0989	916.6515	21120.35	20158.6
846.2441	918.6786	21121.8	20158.4
846.3892	920.7051	21182.85	20218.4
846.5344	922.7309	21341.1	20376.4
846.6795	924.756	21398.35	20438.65
846.8246	926.7804	21530.6	20566.85
846.9698	928.8041	21451.3	20489.95
847.1149	930.8272	21478.1	20515.55
847.2601	932.8495	21380.45	20418.3
847.4052	934.8711	21387.45	20419.95
847.5504	936.892	21200.7	20230.05
847.6955	938.9123	21064.95	20100.75
847.8407	940.9318	20979.65	20017.9
847.9858	942.9506	20820.4	19860.65
848.131	944.9688	20721.6	19764.8
848.2761	946.9862	20686.5	19729.2
848.4213	949.003	20571.35	19605.45
848.5664	951.019	20592.55	19630.55
848.7115	953.0344	20664.55	19700.05
848.8567	955.0491	20672.9	19706.7
849.0018	957.063	20792.6	19828.3
849.147	959.0763	20910.85	19948.75
849.2921	961.0888	20959.65	19997.6
849.4373	963.1007	21048.65	20088.45
849.5824	965.1119	21118	20167.4
849.7275	967.1223	21122.95	20181.55
849.8727	969.1321	21206.6	20260.8
850.0178	971.1412	21238.85	20289.55
850.1629	973.1495	21239.25	20282.05
850.3081	975.1572	21338.45	20327.65
850.4532	977.1641	21332.8	20369.25
850.5983	979.1704	21289.8	20323.7
850.7435	981.1759	21271.3	20304.75
850.8886	983.1808	21385.35	20416.75
851.0337	985.1849	21459.1	20486
851.1788	987.1884	21600.7	20636.25
851.324	989.1911	21775.45	20811
851.4691	991.1932	21970	21009.75
851.6142	993.1945	21976	21014.65
851.7593	995.1951	21904.5	20942.5
851.9045	997.1951	21893.05	20924.55
852.0496	999.1943	21771.75	20809
852.1947	1001.1928	21738.8	20775.4
852.3398	1003.1906	21714.3	20750.6
852.4849	1005.1877	21747.25	20787.75
852.63	1007.1841	21739.05	20776
852.7751	1009.1798	21654.2	20695.2
852.9202	1011.1748	21482.8	20523.7
853.0653	1013.1691	21263.65	20302.35
853.2104	1015.1627	21041.4	20082.25
853.3555	1017.1556	20814.5	19854
853.5006	1019.1477	20757.6	19797.5
853.6457	1021.1392	20614.35	19663.5
853.7908	1023.1299	20631.6	19682.8
853.9359	1025.12	20656.05	19715.9
854.081	1027.1093	20684.15	19755.5
854.2261	1029.0979	20744	19818.6
854.3712	1031.0859	20766.5	19837.3
854.5163	1033.0731	20755.45	19814.7
854.6613	1035.0596	20666.85	19718.2
854.8064	1037.0454	20515.7	19561.1
854.9515	1039.0304	20448.5	19489.25
855.0965	1041.0148	20294.7	19336.2
855.2416	1042.9985	20201.4	19245.1
855.3867	1044.9814	20216.15	19260.7
855.5317	1046.9636	20128.2	19171.95
855.6768	1048.9452	20118	19163
855.8219	1050.926	20129.8	19176.05
855.9669	1052.9061	20107.2	19150.4
856.112	1054.8855	20097.35	19136.1
856.257	1056.8642	20153.85	19196.35
856.4021	1058.8421	20193.85	19227.95
856.5471	1060.8194	20233.3	19272.35
856.6921	1062.7959	20267.6	19309.5
856.8372	1064.7717	20292.45	19333.2
856.9822	1066.7469	20327.6	19369.8
857.1272	1068.7213	20325.2	19363.45
857.2723	1070.695	20313.35	19356.05
857.4173	1072.6679	20208	19248.95
857.5623	1074.6402	20195.05	19236.65
857.7073	1076.6117	20171.75	19207
857.8523	1078.5826	20181.3	19223.4
857.9973	1080.5527	20186.25	19223.45
858.1423	1082.5221	20289	19329.9
858.2873	1084.4908	20500.1	19542.1
858.4323	1086.4587	20667.2	19708.95
858.5773	1088.426	20784.8	19825.55
858.7223	1090.3925	20768.3	19802.7
858.8673	1092.3584	20747.35	19788.45
859.0123	1094.3235	20588.4	19633.75
859.1573	1096.2879	20541.1	19582.75
859.3022	1098.2515	20504.6	19545.5
859.4472	1100.2145	20572.25	19616.05
859.5922	1102.1767	20636.25	19674.9
859.7371	1104.1382	20781.3	19823.8
859.8821	1106.099	21015.65	20056.2
860.027	1108.0591	21174.65	20216.85
860.172	1110.0185	21327.35	20365
860.3169	1111.9771	21372.3	20416.7
860.4619	1113.9351	21156.45	20195.45
860.6068	1115.8923	20821.9	19867.7
860.7517	1117.8488	20522.45	19561.05
860.8967	1119.8045	20234.45	19276.7
861.0416	1121.7596	20140.8	19184.9
861.1865	1123.7139	20032.75	19076.05
861.3314	1125.6675	20052.55	19093.05
861.4763	1127.6204	20140.65	19182.15
861.6212	1129.5726	20124.85	19166
861.7661	1131.524	20082.85	19123.6
861.911	1133.4748	20122.75	19164.7
862.0559	1135.4248	20087.95	19132
862.2008	1137.3741	20116.9	19161.85
862.3457	1139.3226	20076.7	19115.05
862.4905	1141.2705	20072.3	19113.05
862.6354	1143.2176	19904.75	18941.05
862.7803	1145.164	19913.65	18953
862.9251	1147.1097	19956.5	19002.3
863.07	1149.0546	19967.4	19009.35
863.2148	1150.9989	19849.95	18894.75
863.3597	1152.9424	19731.45	18770.3
863.5045	1154.8852	19575.95	18620.75
863.6493	1156.8272	19489.45	18532.45
863.7942	1158.7686	19460.85	18493.6
863.939	1160.7092	19344.6	18385.45
864.0838	1162.6491	19287.4	18330.8
864.2286	1164.5883	19395.35	18439.35
864.3734	1166.5267	19480.2	18521.35
864.5182	1168.4644	19620.8	18664.95
864.663	1170.4014	19779.1	18819.4
864.8078	1172.3377	20089.7	19136.35
864.9526	1174.2732	20273.5	19321.2
865.0974	1176.2081	20539.5	19586.15
865.2421	1178.1421	20769.5	19809.15
865.3869	1180.0755	20969.55	20016.5
865.5317	1182.0082	21036.4	20081.3
865.6764	1183.9401	21085.65	20133.8
865.8212	1185.8713	20892.3	19945.1
865.9659	1187.8017	20643.1	19706.75
866.1106	1189.7315	20365.85	19439.55
866.2554	1191.6605	20071	19142.7
866.4001	1193.5888	19843	18906.6
866.5448	1195.5163	19738.45	18794.15
866.6895	1197.4432	19632.9	18679.75
866.8342	1199.3693	19597.15	18649.5
866.9789	1201.2947	19516.4	18558.95
867.1236	1203.2193	19504.55	18550.3
867.2683	1205.1432	19533.95	18581.6
867.413	1207.0664	19530.1	18581.45
867.5576	1208.9889	19541	18584.15
867.7023	1210.9106	19533.35	18581.8
867.847	1212.8316	19594.3	18641.85
867.9916	1214.7519	19660.7	18699.2
868.1363	1216.6715	19694.55	18742.9
868.2809	1218.5903	19653.8	18702.45
868.4255	1220.5084	19595.05	18640.85
868.5701	1222.4257	19657.45	18707.45
868.7148	1224.3424	19524.75	18576.6
868.8594	1226.2583	19596.6	18642.35
869.004	1228.1735	19659.65	18709.9
869.1486	1230.0879	19743.05	18790.8
869.2932	1232.0016	19862.6	18914
869.4377	1233.9146	19840.35	18889.2
869.5823	1235.8269	19778.55	18830.9
869.7269	1237.7384	19661.8	18708.75
869.8715	1239.6492	19428.45	18480.05
870.016	1241.5592	19407.9	18456.9
870.1606	1243.4686	19269.45	18318.35
870.3051	1245.3772	19235.5	18283.8
870.4496	1247.285	19193.6	18244.35
870.5941	1249.1922	19166.6	18215.8
870.7387	1251.0986	19160.65	18209.9
870.8832	1253.0042	19125.6	18173.05
871.0277	1254.9092	19189.4	18243.2
871.1722	1256.8134	19243.65	18294.4
871.3167	1258.7169	19385.6	18437.9
871.4611	1260.6196	19485.1	18537.25
871.6056	1262.5216	19717.1	18767.1
871.7501	1264.4229	19879.75	18934.35
871.8945	1266.3234	20015.25	19065.15
872.039	1268.2232	20077.05	19123.15
872.1834	1270.1223	20098.5	19145
872.3278	1272.0207	20070.9	19121.25
872.4723	1273.9183	19996	19043.05
872.6167	1275.8151	19929.65	18980.65
872.7611	1277.7113	19838.7	18893.4
872.9055	1279.6067	19712.65	18767.15
873.0499	1281.5014	19598.65	18649.55
873.1943	1283.3953	19546.35	18597.9
873.3386	1285.2885	19537.95	18590.55
873.483	1287.181	19559.65	18612.4
873.6274	1289.0727	19664.8	18720.7
873.7717	1290.9637	19745	18799.5
873.9161	1292.854	19861.7	18911.5
874.0604	1294.7435	19981.95	19031.85
874.2047	1296.6323	20162	19214.05
874.349	1298.5204	20425.7	19474.55
874.4933	1300.4077	20595.3	19644.85
874.6376	1302.2943	20774.85	19823.95
874.7819	1304.1802	20842.8	19894.15
874.9262	1306.0653	20669.45	19726
875.0705	1307.9497	20445.75	19495.95
875.2147	1309.8333	20293.35	19344.7
875.359	1311.7162	20232.5	19284.6
875.5032	1313.5984	20221.45	19272
875.6475	1315.4798	20293.65	19336.7
875.7917	1317.3605	20352.35	19386.6
875.9359	1319.2405	20414.55	19464
876.0801	1321.1197	20334.7	19386.15
876.2243	1322.9982	20226.05	19276.65
876.3685	1324.876	20195.85	19250
876.5127	1326.753	20070.25	19122.6
876.6569	1328.6293	20052.3	19099.05
876.801	1330.5048	20063.25	19110
876.9452	1332.3796	19978.9	19029.65
877.0893	1334.2537	19983.55	19009.85
877.2335	1336.127	19861.7	18912.25
877.3776	1337.9996	19801.65	18853.15
877.5217	1339.8714	19772.5	18825.05
877.6658	1341.7426	19715.2	18722.3
877.8099	1343.6129	19713.5	18761.6
877.954	1345.4826	19640.65	18692.75
878.0981	1347.3515	19611.3	18658.5
878.2422	1349.2196	19504.4	18555.65
878.3862	1351.087	19537.65	18589.35
878.5303	1352.9537	19615.35	18667.25
878.6743	1354.8197	19734.45	18785.4
878.8184	1356.6849	19861.05	18913.85
878.9624	1358.5493	19947.3	18998.7
879.1064	1360.4131	19978.5	19032.25
879.2504	1362.276	19881.35	18934.95
879.3944	1364.1383	19761.2	18812.75
879.5384	1365.9998	19499.2	18546.8
879.6823	1367.8606	19147	18194
879.8263	1369.7206	18887.85	17939.35
879.9702	1371.5799	18666.7	17715.55
880.1142	1373.4384	18456.95	17507.9
880.2581	1375.2962	18315.3	17368.2
880.402	1377.1533	18039.4	17096.75
880.5459	1379.0096	17702.85	16759.8
880.6898	1380.8652	17414.45	16471.75
880.8337	1382.7201	17166.4	16222.75
880.9776	1384.5742	16932.7	15985.75
881.1215	1386.4275	16772.6	15820.05
881.2653	1388.2802	16602.9	15655.15
881.4092	1390.132	16448.05	15504.25
881.553	1391.9832	16395.75	15447.6
881.6968	1393.8336	16262.1	15318.3
881.8406	1395.6832	16229.15	15279.35
881.9844	1397.5322	16174.1	15225.35
882.1282	1399.3803	16136.85	15183.9
882.272	1401.2278	16030.4	15084.55
882.4158	1403.0745	16021.25	15077.3
882.5595	1404.9204	15950.05	15003.45
882.7033	1406.7656	15994.6	15050.05
882.847	1408.6101	15988.45	15043.45
882.9908	1410.4538	15956.9	15011.75
883.1345	1412.2968	16000.8	15056.1
883.2782	1414.139	15999.05	15052.55
883.4219	1415.9805	16059.5	15117.6
883.5656	1417.8213	16116.65	15163.95
883.7092	1419.6613	16208.9	15266.25
883.8529	1421.5006	16375.55	15430.55
883.9965	1423.3391	16590.45	15643.2
884.1402	1425.1769	16867.05	15920
884.2838	1427.0139	17342.85	16399.6
884.4274	1428.8502	17923.55	16978.25
884.571	1430.6858	18512.25	17574.1
884.7146	1432.5206	18876.65	17935.45
884.8582	1434.3547	19089.55	18146.25
885.0018	1436.188	19109.35	18165.7
885.1453	1438.0206	19024.8	18083.65
885.2889	1439.8524	18848.7	17908
885.4324	1441.6835	18743.3	17799.15
885.5759	1443.5139	18617.05	17670.7
885.7194	1445.3435	18547.4	17604.9
885.8629	1447.1724	18525.9	17586.55
886.0064	1449.0005	18415.6	17474.5
886.1499	1450.8279	18290.3	17350.05
886.2933	1452.6545	18277.25	17337.1
886.4368	1454.4804	18296.85	17356.2
886.5802	1456.3056	18255.75	17310.3
886.7237	1458.13	18179.85	17239.6
886.8671	1459.9536	17961.9	17020.55
887.0105	1461.7766	17599.95	16656.25
887.1539	1463.5987	17188.3	16245.9
887.2972	1465.4202	16794.45	15849.45
887.4406	1467.2409	16397.3	15456.9
887.584	1469.0608	16143.35	15201.15
887.7273	1470.88	15874.5	14930.95
887.8706	1472.6984	15655.45	14713.2
888.0139	1474.5161	15396.55	14452.25
888.1572	1476.3331	15226.15	14285.4
888.3005	1478.1493	15105.7	14160.7
888.4438	1479.9648	15015.5	14071.25
888.5871	1481.7795	14907.15	13965.3
888.7303	1483.5935	14814.1	13875.55
888.8736	1485.4067	14751.75	13810.2
889.0168	1487.2192	14698.45	13754.45
889.16	1489.031	14648.75	13706.65
889.3032	1490.842	14593.25	13654.5
889.4464	1492.6522	14532.75	13592.75
889.5896	1494.4618	14490.35	13547.2
889.7327	1496.2705	14454	13511.9
889.8759	1498.0785	14407.6	13468.8
890.019	1499.8858	14372.15	13430.5
890.1622	1501.6924	14347.2	13409.8
890.3053	1503.4981	14269.6	13331.4
890.4484	1505.3032	14289.85	13351.15
890.5914	1507.1075	14216.35	13275.7
890.7345	1508.911	14181.4	13239.6
890.8776	1510.7138	14090.4	13149.05
891.0206	1512.5159	14057.15	13120.75
891.1637	1514.3172	13983.1	13046.4
891.3067	1516.1178	13902.35	12965.8
891.4497	1517.9176	13880.75	12937.1
891.5927	1519.7166	13817.55	12879.2
891.7357	1521.515	13768.65	12821.35
891.8786	1523.3126	13741.95	12806.25
892.0216	1525.1094	13702.7	12764.65
892.1645	1526.9055	13645.7	12710.4
892.3074	1528.7008	13569.95	12633.45
892.4503	1530.4954	13541.45	12604.75
892.5932	1532.2893	13509.5	12576.25
892.7361	1534.0824	13438.15	12500.35
892.879	1535.8747	13395.3	12465.75
893.0218	1537.6663	13377.15	12443.5
893.1647	1539.4572	13342.3	12410.25
893.3075	1541.2473	13339.7	12408
893.4503	1543.0367	13300.75	12371.35
893.5931	1544.8253	13265	12325.65
893.7359	1546.6132	13268.95	12332.15
893.8787	1548.4003	13252.85	12313.15
894.0214	1550.1867	13242.9	12303.35
894.1642	1551.9723	13268.35	12334.95
894.3069	1553.7572	13280.8	12353.45
894.4496	1555.5414	13292.15	12365.1
894.5923	1557.3247	13330.55	12403.3
894.735	1559.1074	13367.4	12443.7
894.8777	1560.8893	13416.65	12488.75
895.0204	1562.6705	13463.7	12541.75
895.163	1564.4509	13520.1	12594.75
895.3056	1566.2305	13554.95	12636.5
895.4482	1568.0094	13645.25	12725.15
895.5908	1569.7876	13677.25	12756.35
895.7334	1571.565	13711.95	12784.75
895.876	1573.3417	13661.2	12736.45
896.0186	1575.1176	13689.2	12768.35
896.1611	1576.8928	13617.05	12698.45
896.3036	1578.6672	13471.85	12558.95
896.4461	1580.4409	13341.6	12433.15
896.5886	1582.2138	13254.75	12336.3
896.7311	1583.986	13112.85	12194.6
896.8736	1585.7575	13074.9	12153.5
897.0161	1587.5282	12972.6	12060.45
897.1585	1589.2981	12901.1	11988.65
897.3009	1591.0673	12844	11930
897.4433	1592.8358	12867.95	11954.9
897.5857	1594.6035	12828.35	11909.5
897.7281	1596.3704	12863.45	11943.8
897.8705	1598.1366	12880.8	11964.95
898.0128	1599.9021	12892.5	11978.6
898.1551	1601.6668	12942.85	12027.35
898.2975	1603.4308	12984.05	12064.3
898.4398	1605.194	13075.15	12153
898.5821	1606.9564	13116.3	12207.85
898.7243	1608.7182	13269.35	12360.05
898.8666	1610.4791	13388.7	12489
899.0088	1612.2394	13544.6	12647.35
899.1511	1613.9988	13696.7	12792.35
899.2933	1615.7576	13926.6	13018.3
899.4355	1617.5156	14124.5	13203.35
899.5776	1619.2728	14321.65	13399.9
899.7198	1621.0293	14400.55	13483.7
899.862	1622.785	14439.85	13523.25
900.0041	1624.54	14343.05	13434.7
900.1462	1626.2942	14179.9	13273.2
900.2883	1628.0477	13874.3	12961.25
900.4304	1629.8005	13620.3	12710.7
900.5725	1631.5525	13393.35	12485.9
900.7145	1633.3037	13203.65	12297.6
900.8566	1635.0542	13056.45	12149.45
900.9986	1636.804	12956.55	12047.35
901.1406	1638.553	12943.15	11950.55
901.2826	1640.3013	12826.35	11917.3
901.4245	1642.0488	12771.5	11862.7
901.5665	1643.7955	12802.65	11894.55
901.7085	1645.5416	12818.7	11912.6
901.8504	1647.2868	12884.6	11977.05
901.9923	1649.0313	12940.9	12027.95
902.1342	1650.7751	13096.95	12187.45
902.2761	1652.5181	13208	12300.75
902.4179	1654.2604	13403.75	12499.7
902.5598	1656.0019	13633.15	12729.35
902.7016	1657.7427	13968.75	13059.5
902.8434	1659.4828	14252.65	13342.8
902.9852	1661.222	14422.7	13514.3
903.127	1662.9606	14412.7	13504.6
903.2687	1664.6984	14191.4	13279.4
903.4105	1666.4354	13799.3	12886.45
903.5522	1668.1717	13295.05	12379.8
903.6939	1669.9072	12802.55	11886.55
903.8356	1671.642	12385.9	11469.1
903.9773	1673.3761	12016.8	11104.7
904.119	1675.1094	11745.55	10838.2
904.2606	1676.8419	11502.3	10590.4
904.4022	1678.5737	11321.5	10410.85
904.5439	1680.3048	11189.7	10279.95
904.6855	1682.0351	11080.95	10171.25
904.827	1683.7646	10943.05	10029.6
904.9686	1685.4934	10872.15	9965.15
905.1101	1687.2215	10778.95	9870.05
905.2517	1688.9488	10692.9	9787.7
905.3932	1690.6754	10629.65	9722.45
905.5347	1692.4012	10583.5	9672.2
905.6761	1694.1263	10532.45	9621.15
905.8176	1695.8506	10496.6	9588.75
905.9591	1697.5742	10474.35	9568.45
906.1005	1699.297	10398.6	9498.5
906.2419	1701.0191	10324.85	9423.8
906.3833	1702.7404	10295.1	9392.85
906.5246	1704.461	10218.95	9314
906.666	1706.1808	10180.65	9272
906.8073	1707.8999	10151.6	9248.4
906.9487	1709.6182	10098.85	9198.45
907.09	1711.3358	10064.4	9166.4
907.2313	1713.0527	10028.65	9131.8
907.3725	1714.7688	10007.65	9102.55
907.5138	1716.4841	9965	9062.1
907.655	1718.1987	9957.8	9049.25
907.7962	1719.9126	9897.95	9000.2
907.9374	1721.6257	9887.1	8986
908.0786	1723.338	9831.9	8935.5
908.2198	1725.0496	9776.2	8878.15
908.3609	1726.7605	9734.5	8831.85
908.502	1728.4706	9708.85	8806.4
908.6431	1730.18	9641.2	8741.9
908.7842	1731.8886	9629.7	8733.4
908.9253	1733.5964	9588.15	8683.5
909.0664	1735.3036	9586.05	8682.8
909.2074	1737.0099	9552.55	8655.95
909.3484	1738.7156	9528.65	8634.15
909.4894	1740.4204	9470.85	8569.05
909.6304	1742.1246	9470.2	8567.7
909.7714	1743.8279	9421.5	8521.5
909.9123	1745.5306	9420.65	8523.55
910.0532	1747.2325	9379.9	8482.25
910.1941	1748.9336	9367.75	8468.1
910.335	1750.634	9301.35	8398.1
910.4759	1752.3336	9282.85	8384.1
910.6168	1754.0325	9270.55	8378.05
910.7576	1755.7307	9250.45	8353.8
910.8984	1757.4281	9247.45	8346.85
911.0392	1759.1247	9246.95	8336.6
911.18	1760.8206	9206.1	8295.85
911.3208	1762.5158	9185.45	8277.3
911.4615	1764.2102	9141.6	8240
911.6022	1765.9039	9112.5	8214.9
911.7429	1767.5968	9085.35	8190.55
911.8836	1769.289	9057.2	8162.2
912.0243	1770.9804	9028.45	8129.5
912.1649	1772.6711	9016.45	8113.7
912.3056	1774.361	8997.3	8094.1
912.4462	1776.0502	8989.5	8086.8
912.5868	1777.7386	8971.05	8066.5
912.7274	1779.4263	8929.6	8033.3
912.8679	1781.1132	8910.2	8015.15
913.0084	1782.7994	8883.15	7988.9
913.149	1784.4849	8877.2	7983.85
913.2895	1786.1696	8830.3	7930.2
913.4299	1787.8535	8807	7915.05
913.5704	1789.5367	8801.85	7910.65
913.7108	1791.2192	8772.5	7880.45
913.8513	1792.9009	8771.85	7849.45
913.9917	1794.5818	8744.35	7842.55
914.132	1796.2621	8721.65	7823.65
914.2724	1797.9415	8693.3	7792.9
914.4128	1799.6202	8669.95	7773.3
914.5531	1801.2982	8650.55	7750.95
914.6934	1802.9755	8624.55	7725
914.8337	1804.6519	8621.25	7725
914.9739	1806.3277	8557.2	7662.15
915.1142	1808.0027	8532.35	7642.4
915.2544	1809.6769	8515.75	7625.4
915.3946	1811.3504	8496.55	7606.1
915.5348	1813.0231	8492.75	7600.95
915.675	1814.6951	8481.35	7588.3
915.8151	1816.3664	8475.35	7577.3
915.9553	1818.0369	8446.05	7547.85
916.0954	1819.7067	8437.3	7541.65
916.2355	1821.3757	8404.55	7504.45
916.3755	1823.044	8385.2	7485.35
916.5156	1824.7115	8395.1	7495.95
916.6556	1826.3783	8331.1	7434.4
916.7956	1828.0443	8299.75	7403.5
916.9356	1829.7096	8290.65	7389.25
917.0756	1831.3741	8271.75	7372.9
917.2155	1833.0379	8267.05	7374
917.3555	1834.701	8221.8	7328
917.4954	1836.3633	8209.8	7319.7
917.6353	1838.0248	8188.25	7295.3
917.7751	1839.6856	8157.05	7262.55
917.915	1841.3457	8175.9	7281
918.0548	1843.005	8163.85	7267.15
918.1946	1844.6636	8148	7252.1
918.3344	1846.3214	8093.15	7197.45
918.4742	1847.9785	8105.7	7213.05
918.6139	1849.6349	8106.45	7208
918.7537	1851.2904	8077.25	7169.45
918.8934	1852.9453	8065.45	7164.75
919.0331	1854.5994	8027.05	7125.35
919.1727	1856.2528	8033.6	7133
919.3124	1857.9054	7996.6	7100.15
919.452	1859.5572	7988.6	7095.55
919.5916	1861.2083	7963.3	7065.65
919.7312	1862.8587	7960.2	7061.85
919.8708	1864.5084	7958.4	7057.8
920.0103	1866.1572	7938.5	7039.2
920.1498	1867.8054	7894.85	6995.2
920.2893	1869.4528	7865.1	6963.3
920.4288	1871.0994	7864.75	6964.35
920.5683	1872.7453	7847.55	6948.65
920.7077	1874.3905	7852.9	6937.35
920.8471	1876.0349	7810.7	6913.8
920.9865	1877.6786	7802.7	6905.3
921.1259	1879.3215	7793.85	6897.45
921.2653	1880.9637	7769.35	6872.35
921.4046	1882.6051	7744.3	6848.95
921.5439	1884.2458	7750.5	6852.85
921.6832	1885.8858	7677.5	6781.95
921.8225	1887.525	7665.8	6769.3
921.9617	1889.1634	7661.75	6764.5
922.101	1890.8011	7634.6	6736.55
922.2402	1892.4381	7596.75	6697.4
922.3794	1894.0743	7592.35	6696.95
922.5185	1895.7098	7577.6	6679.95
922.6577	1897.3446	7574.2	6675.75
922.7968	1898.9786	7558.6	6659
922.9359	1900.6118	7526.3	6630.65
923.075	1902.2443	7491.85	6596.95
923.214	1903.8761	7479.45	6585.1
923.3531	1905.5071	7435.8	6539.2
923.4921	1907.1374	7423.5	6525.05
923.6311	1908.7669	7404.95	6509.25
923.77	1910.3957	7400.65	6507
923.909	1912.0237	7367.3	6471.45
924.0479	1913.651	7349.15	6454.1
924.1868	1915.2776	7327.25	6432.85
924.3257	1916.9034	7300.4	6406.5
924.4646	1918.5285	7283.75	6389.35
924.6034	1920.1528	7235.35	6339.9
924.7422	1921.7764	7235.9	6342.5
924.881	1923.3992	7222.6	6327.6
925.0198	1925.0213	7154.05	6258.15
925.1586	1926.6427	7137.55	6244.2
925.2973	1928.2633	7190.7	6194.6
925.436	1929.8832	7103.55	6204.15
925.5747	1931.5023	7074.05	6177.4
925.7134	1933.1207	7055.25	6161
925.852	1934.7383	7062.9	6167.15
925.9906	1936.3552	7015.7	6121.95
926.1292	1937.9714	6996.15	6102.5
926.2678	1939.5868	6975.95	6081.75
926.4064	1941.2015	6931.1	6034.25
926.5449	1942.8154	6911.45	6013.6
926.6834	1944.4286	6882.85	5983.3
926.8219	1946.041	6878.05	5959.25
926.9604	1947.6528	6838.6	5938.05
927.0988	1949.2637	6824.95	5931.75
927.2372	1950.8739	6801.6	5904.9
927.3756	1952.4834	6776.75	5884.4
927.514	1954.0921	6779.1	5885.1
927.6523	1955.7001	6760	5862.4
927.7907	1957.3074	6732	5841.45
927.929	1958.9139	6688.3	5799.45
928.0673	1960.5197	6664.95	5772.45
928.2055	1962.1247	6660.55	5768.8
928.3438	1963.729	6619.8	5728.8
928.482	1965.3325	6612.3	5719.05
928.6202	1966.9353	6578.25	5689.8
928.7584	1968.5374	6556.4	5666.65
928.8965	1970.1387	6533.55	5644.6
929.0346	1971.7393	6512.8	5622.85
929.1727	1973.3392	6504.5	5613.35
929.3108	1974.9383	6460.8	5573.2
929.4489	1976.5366	6436.4	5547.3
929.5869	1978.1342	6434.15	5547.8
929.7249	1979.7311	6433.6	5544.3
929.8629	1981.3273	6392.4	5503.8
930.0009	1982.9227	6378	5490.15
930.1388	1984.5173	6353.25	5467.25
930.2767	1986.1112	6331.4	5447.4
930.4146	1987.7044	6331.15	5446.75
930.5525	1989.2968	6293.05	5403.95
930.6904	1990.8885	6301.35	5412.45
930.8282	1992.4795	6276.45	5390.25
930.966	1994.0697	6252.55	5370.7
931.1038	1995.6592	6227.05	5342.35
931.2415	1997.2479	6231	5344.85
931.3793	1998.8359	6194.8	5309.75
931.517	2000.4232	6184.35	5301.35
931.6547	2002.0097	6155.4	5274.3
931.7923	2003.5955	6128.85	5246.6
931.93	2005.1805	6143.85	5259.05
932.0676	2006.7648	6132	5249.2
932.2052	2008.3484	6093.55	5209.9
932.3427	2009.9312	6109.95	5225.65
932.4803	2011.5133	6046.65	5168.75
932.6178	2013.0946	6051	5169.2
932.7553	2014.6752	6040.25	5159.15
932.8928	2016.2551	6022.15	5138.45
933.0302	2017.8342	5999.25	5115.65
933.1676	2019.4126	5972.35	5092.95
933.305	2020.9902	5944.3	5065.4
933.4424	2022.5672	5942.55	5060.95
933.5798	2024.1433	5953.95	5069.15
933.7171	2025.7188	5909.65	5033.95
933.8544	2027.2935	5890.4	5009.7
933.9917	2028.8674	5863.95	4985.95
934.129	2030.4406	5859.05	4981.25
934.2662	2032.0131	5819.85	4941.75
934.4034	2033.5849	5813.8	4933.65
934.5406	2035.1559	5819.5	4940.95
934.6778	2036.7261	5803.15	4922.55
934.8149	2038.2957	5785.9	4900.95
934.952	2039.8645	5779.3	4894.15
935.0891	2041.4325	5778.95	4891.2
935.2262	2042.9998	5738	4853.95
935.3632	2044.5664	5734.5	4851.6
935.5002	2046.1323	5714.65	4834.6
935.6372	2047.6974	5689.55	4810.9
935.7742	2049.2617	5689.3	4812.35
935.9111	2050.8254	5682.9	4797.15
936.048	2052.3883	5673.85	4791.2
936.1849	2053.9504	5656.1	4770.1
936.3218	2055.5118	5647.2	4762.8
936.4586	2057.0725	5617.4	4731.35
936.5955	2058.6325	5603.65	4721.8
936.7323	2060.1917	5587.6	4706.5
936.869	2061.7502	5593.85	4712.85
937.0058	2063.3079	5536.85	4659.3
937.1425	2064.8649	5538.4	4654.2
937.2792	2066.4212	5529.7	4646.4
937.4159	2067.9767	5519.3	4639.05
937.5525	2069.5315	5506.6	4624
937.6891	2071.0856	5480.6	4600.05
937.8257	2072.6389	5454.9	4572.6
937.9623	2074.1915	5433.25	4556.3
938.0989	2075.7433	5401.3	4517.9
938.2354	2077.2945	5412.55	4532.3
938.3719	2078.8448	5401.95	4519.5
938.5084	2080.3945	5371.1	4487.6
938.6448	2081.9434	5355.95	4471.85
938.7812	2083.4916	5356.7	4469.35
938.9176	2085.039	5346.9	4455.25
939.054	2086.5857	5328.25	4434.4
939.1903	2088.1317	5327.95	4437.15
939.3267	2089.677	5310.95	4416.95
939.463	2091.2215	5292.3	4401.05
939.5992	2092.7652	5269.2	4377.6
939.7355	2094.3083	5268.8	4376.4
939.8717	2095.8506	5242.25	4353.55
940.0079	2097.3921	5255.7	4370.2
940.1441	2098.933	5213.05	4326.7
940.2802	2100.4731	5224.7	4336.8
940.4163	2102.0124	5227.8	4320.3
940.5524	2103.5511	5199.55	4311
940.6885	2105.089	5202.7	4314.2
940.8245	2106.6261	5173.3	4286.7
940.9606	2108.1626	5150.05	4264.55
941.0965	2109.6983	5161.6	4245.45
941.2325	2111.2332	5139.4	4253.2
941.3684	2112.7675	5133.15	4243.45
941.5044	2114.301	5120	4231.85
941.6403	2115.8337	5111.5	4223.45
941.7761	2117.3657	5095.85	4207
941.912	2118.897	5094.25	4203.2
942.0478	2120.4276	5063.75	4169.05
942.1835	2121.9575	5046.65	4156.45
942.3193	2123.4866	5048.25	4145.15
942.455	2125.0149	5033	4145.55
942.5907	2126.5426	4986.05	4101.9
942.7264	2128.0695	4973.2	4087.85
942.8621	2129.5956	4974.15	4094.45
942.9977	2131.1211	4980.95	4091.5
943.1333	2132.6458	4959.7	4075.85
943.2689	2134.1698	4958.3	4068.6
943.4044	2135.693	4946.6	4053.45
943.54	2137.2155	4938.6	4045.1
943.6755	2138.7373	4909.85	4022.85
943.8109	2140.2584	4903.85	4020.15
943.9464	2141.7787	4877.95	3991.95
944.0818	2143.2983	4886.4	4005.2
944.2172	2144.8171	4836.75	3958.4
944.3526	2146.3353	4838.65	3955.7
944.4879	2147.8527	4831	3948.3
944.6232	2149.3693	4834.35	3947.05
944.7585	2150.8853	4818.95	3931.55
944.8938	2152.4005	4784.4	3894.3
945.029	2153.9149	4784.95	3895
945.1642	2155.4287	4790.6	3902.25
945.2994	2156.9417	4766	3877.15
945.4346	2158.454	4746.65	3857
945.5697	2159.9655	4730	3848
945.7048	2161.4764	4737.3	3853.9
945.8399	2162.9865	4715.95	3832.95
945.9749	2164.4958	4705.2	3818.95
946.1099	2166.0045	4691.2	3803.1
946.2449	2167.5124	4694.95	3809.95
946.3799	2169.0195	4668.25	3780.8
946.5148	2170.526	4682	3794.45
946.6498	2172.0317	4660	3770.35
946.7846	2173.5367	4657	3768.6
946.9195	2175.0409	4640.75	3753.7
947.0543	2176.5445	4637.65	3748.85
947.1891	2178.0473	4639.7	3747.8
947.3239	2179.5494	4600.85	3706.75
947.4587	2181.0507	4595.95	3709.4
947.5934	2182.5513	4571.05	3684.85
947.7281	2184.0512	4566.05	3676.65
947.8628	2185.5504	4558.35	3671.7
947.9974	2187.0488	4554.15	3668.65
948.132	2188.5465	4524.35	3642
948.2666	2190.0435	4499.3	3612.75
948.4012	2191.5397	4494.4	3607.15
948.5357	2193.0353	4487	3597.35
948.6702	2194.5301	4473.5	3583.55
948.8047	2196.0241	4460.4	3567.7
948.9392	2197.5175	4446.75	3552.6
949.0736	2199.0101	4443.2	3547.7
949.208	2200.502	4417.6	3527.5
949.3424	2201.9931	4402.1	3517.4
949.4767	2203.4835	4386.8	3501.75
949.611	2204.9733	4372.8	3482.45
949.7453	2206.4622	4350.4	3470.1
949.8796	2207.9505	4347.2	3460.15
950.0138	2209.438	4335.95	3455.65
950.148	2210.9248	4311.3	3427.15
950.2822	2212.4109	4309.75	3422.55
950.4164	2213.8962	4297.35	3407.05
950.5505	2215.3809	4306.15	3411.35
950.6846	2216.8648	4300.55	3405.8
950.8186	2218.3479	4285.5	3385.05
950.9527	2219.8304	4259.65	3361.15
951.0867	2221.3121	4252.1	3354.95
951.2207	2222.7931	4244.25	3351.6
951.3546	2224.2733	4229.4	3338.85
951.4886	2225.7529	4221.55	3334.25
951.6225	2227.2317	4197.3	3307.65
951.7563	2228.7098	4177.6	3293.95
951.8902	2230.1872	4184.7	3302.2
952.024	2231.6638	4175.1	3290.7
952.1578	2233.1397	4157.05	3270.85
952.2916	2234.6149	4150.15	3266.05
952.4253	2236.0894	4133.6	3249.85
952.559	2237.5632	4124.1	3229.35
952.6927	2239.0362	4111.4	3223.85
952.8263	2240.5085	4098.9	3212.95
952.9599	2241.9801	4094.45	3206.35
953.0935	2243.4509	4100.65	3210.35
953.2271	2244.921	4068.35	3177.4
953.3606	2246.3904	4060.5	3167.6
953.4941	2247.8591	4038.5	3146.95
953.6276	2249.3271	4029.35	3139.9
953.7611	2250.7943	4011.6	3119.7
953.8945	2252.2608	4003.2	3112.3
954.0279	2253.7266	4006.05	3116
954.1612	2255.1917	3988.95	3100.75
954.2946	2256.656	3988.15	3100
954.4279	2258.1197	3964.4	3079.3
954.5612	2259.5826	3950.25	3062.7
954.6944	2261.0447	3949.5	3060.55
954.8276	2262.5062	3946.3	3054.45
954.9608	2263.9669	3943.75	3048.7
955.094	2265.4269	3919.7	3029.1
955.2271	2266.8862	3913.05	3026.1
955.3602	2268.3448	3906.2	3018.65
955.4933	2269.8026	3902.55	3015.15
955.6264	2271.2598	3891.25	3005
955.7594	2272.7162	3879.7	2995.6
955.8924	2274.1719	3871.25	2978.2
956.0253	2275.6268	3878.8	2985.6
956.1583	2277.0811	3868.25	2978.1
956.2912	2278.5346	3839.3	2952.45
956.4241	2279.9874	3830.2	2944.15
956.5569	2281.4395	3831.75	2948.75
956.6897	2282.8908	3837.8	2944.95
956.8225	2284.3414	3826.1	2937.4
956.9553	2285.7914	3809.6	2921.4
957.088	2287.2406	3804.5	2914.35
957.2207	2288.689	3788.95	2897
957.3534	2290.1368	3785.15	2888
957.486	2291.5838	3791.55	2895.8
957.6186	2293.0302	3768.2	2872.2
957.7512	2294.4758	3765.05	2872.15
957.8838	2295.9206	3738.7	2846.9
958.0163	2297.3648	3740.5	2853.95
958.1488	2298.8082	3731.95	2844.4
958.2813	2300.251	3720.2	2830.6
958.4137	2301.693	3716.2	2821.5
958.5461	2303.1343	3707.55	2815.8
958.6785	2304.5748	3693.8	2806.4
958.8108	2306.0147	3686.05	2798
958.9432	2307.4538	3669.45	2782.05
959.0754	2308.8922	3657.35	2773.1
959.2077	2310.3299	3655.65	2772.8
959.3399	2311.7669	3636.65	2751.6
959.4721	2313.2031	3633.2	2744.4
959.6043	2314.6387	3624.3	2735.65
959.7365	2316.0735	3616.65	2727.85
959.8686	2317.5076	3601.3	2713.2
960.0006	2318.941	3599.35	2709.85
960.1327	2320.3737	3577.4	2685.05
960.2647	2321.8056	3583	2690.85
960.3967	2323.2369	3584.4	2693.65
960.5287	2324.6674	3564.2	2673.35
960.6606	2326.0972	3548.45	2657.25
960.7925	2327.5263	3540.5	2650.65
960.9244	2328.9547	3537.1	2646
961.0562	2330.3823	3527.85	2631.95
961.1881	2331.8092	3537.3	2638.6
961.3198	2333.2355	3522.65	2633.7
961.4516	2334.661	3511.1	2618.45
961.5833	2336.0858	3509.85	2616.85
961.715	2337.5098	3497.75	2605.45
961.8467	2338.9332	3486.3	2597.35
961.9783	2340.3558	3474.2	2583
962.1099	2341.7778	3450.05	2561.3
962.2415	2343.199	3449.65	2561.7
962.373	2344.6195	3445.85	2558.45
962.5045	2346.0393	3450.85	2563.95
962.636	2347.4583	3445	2554.9
962.7675	2348.8767	3433.9	2541.25
962.8989	2350.2943	3427.2	2535.85
963.0303	2351.7113	3417.2	2522
963.1617	2353.1275	3413.55	2520.5
963.293	2354.543	3417	2515.45
963.4243	2355.9578	3421.9	2529.8
963.5556	2357.3718	3379.5	2491.1
963.6868	2358.7852	3361.65	2476.7
963.818	2360.1978	3356	2469.25
963.9492	2361.6098	3359.8	2473.6
964.0803	2363.021	3353.65	2461.7
964.2114	2364.4315	3339.3	2450.15
964.3425	2365.8413	3341.25	2450.4
964.4736	2367.2504	3333.45	2449.1
964.6046	2368.6587	3305.25	2420.35
964.7356	2370.0664	3303.1	2419.1
964.8666	2371.4733	3285.5	2397.05
964.9975	2372.8795	3297.9	2411.6
965.1284	2374.285	3279.35	2392.9
965.2593	2375.6899	3268.55	2382.25
965.3901	2377.0939	3259.25	2373.65
965.5209	2378.4973	3242.2	2355.5
965.6517	2379.9	3230.65	2344.15
965.7825	2381.3019	3232.4	2349.9
965.9132	2382.7032	3209.75	2323.85
966.0439	2384.1037	3220	2339.45
966.1745	2385.5035	3205.95	2324.1
966.3051	2386.9027	3196.8	2314.7
966.4357	2388.3011	3195	2310.5
966.5663	2389.6987	3188.2	2304.55
966.6968	2391.0957	3178.5	2294.8
966.8273	2392.492	3157.25	2275.65
966.9578	2393.8876	3131.75	2246.05
967.0882	2395.2824	3137.8	2255.8
967.2186	2396.6765	3136.9	2254.7
967.349	2398.07	3127.7	2244.55
967.4793	2399.4627	3125.7	2239.15
967.6097	2400.8547	3116.95	2229.85
967.7399	2402.246	3116.15	2225.5
967.8702	2403.6366	3090.65	2204.3
968.0004	2405.0265	3082.5	2201.65
968.1306	2406.4156	3083.5	2194.7
968.2607	2407.8041	3072.1	2187.15
968.3909	2409.1918	3059.5	2174.45
968.521	2410.5789	3063.9	2178.7
968.651	2411.9652	3045.5	2157.35
968.781	2413.3508	3042	2155.7
968.911	2414.7358	3024.7	2139.8
969.041	2416.12	3011.35	2128.6
969.1709	2417.5035	3018.3	2133.9
969.3008	2418.8863	3012.1	2124.15
969.4307	2420.2684	3002.65	2116.3
969.5606	2421.6497	2986.5	2099.75
969.6904	2423.0304	2965.55	2080.65
969.8201	2424.4104	2967.6	2080.9
969.9499	2425.7896	2969.45	2084.4
970.0796	2427.1682	2950.15	2067.6
970.2093	2428.546	2957.75	2072.05
970.3389	2429.9232	2951.8	2065.35
970.4685	2431.2996	2939.55	2054.65
970.5981	2432.6753	2950.95	2065.05
970.7277	2434.0503	2931.6	2045.35
970.8572	2435.4246	2920.35	2033.4
970.9867	2436.7982	2920.7	2031.6
971.1161	2438.1711	2907.55	2019.85
971.2456	2439.5433	2909.5	2022.5
971.375	2440.9148	2885.1	1994.35
971.5043	2442.2856	2874.05	1987.9
971.6336	2443.6557	2874.4	1986.2
971.7629	2445.025	2867.85	1982.35
971.8922	2446.3937	2872.35	1983.9
972.0214	2447.7617	2852.35	1965.6
972.1506	2449.1289	2860.65	1973.35
972.2798	2450.4955	2860.9	1972.4
972.4089	2451.8613	2848.2	1966.05
972.538	2453.2265	2843.3	1958
972.6671	2454.5909	2826.65	1942.05
972.7961	2455.9546	2831.65	1945
972.9251	2457.3177	2803.4	1918.4
973.0541	2458.68	2809.95	1923.3
973.1831	2460.0416	2803.7	1916.2
973.312	2461.4025	2808.75	1921.45
973.4408	2462.7627	2797.05	1900.3
973.5697	2464.1222	2788.5	1905
973.6985	2465.4811	2796.9	1912.8
973.8273	2466.8392	2769.7	1884.35
973.956	2468.1966	2774.65	1887.85
974.0847	2469.5533	2784.35	1896.6
974.2134	2470.9093	2767.35	1883
974.3421	2472.2645	2756.65	1871.6
974.4707	2473.6191	2761.45	1876.65
974.5993	2474.973	2750.45	1865.15
974.7278	2476.3262	2739.8	1855
974.8563	2477.6787	2733.05	1848.7
974.9848	2479.0305	2730.15	1847.15
975.1132	2480.3816	2723.15	1836.8
975.2417	2481.7319	2717.35	1831.85
975.37	2483.0816	2705.85	1818.65
975.4984	2484.4306	2704.55	1816.6
975.6267	2485.7789	2684.75	1800.15
975.755	2487.1264	2681.7	1794.05
975.8833	2488.4733	2677.3	1792.1
976.0115	2489.8195	2693.1	1790.45
976.1397	2491.165	2669.05	1780.35
976.2678	2492.5097	2664.65	1778.1
976.3959	2493.8538	2646.7	1761.45
976.524	2495.1972	2628.6	1743.65
976.6521	2496.5398	2632.7	1746.95
976.7801	2497.8818	2633.15	1743.45
976.9081	2499.2231	2626.2	1738.95
977.036	2500.5637	2626	1737.9
977.164	2501.9035	2610.5	1720.25
977.2918	2503.2427	2607.7	1717.4
977.4197	2504.5812	2605.45	1718.55
977.5475	2505.919	2599.1	1709.65
977.6753	2507.256	2588.65	1700.65
977.8031	2508.5924	2591.25	1703.6
977.9308	2509.9281	2578.55	1687.45
978.0585	2511.2631	2581.7	1696.7
978.1861	2512.5974	2573	1687.9
978.3137	2513.9309	2565.85	1681.15
978.4413	2515.2638	2578.25	1662.65
978.5689	2516.596	2558.35	1669.1
978.6964	2517.9275	2543.4	1655.25
978.8239	2519.2583	2542.8	1658.3
978.9513	2520.5884	2530.2	1640.5
979.0788	2521.9178	2526.9	1640.55
979.2062	2523.2465	2525.45	1640.95
979.3335	2524.5745	2508.2	1624.85
979.4608	2525.9018	2520.55	1631.95
979.5881	2527.2284	2510.55	1625.1
979.7154	2528.5543	2503.45	1618.15
979.8426	2529.8796	2493.2	1606
979.9698	2531.2041	2483.75	1597
980.0969	2532.5279	2479.8	1596.95
980.224	2533.851	2490.8	1603.75
980.3511	2535.1735	2483.4	1596.85
980.4781	2536.4952	2469.65	1581.95
980.6052	2537.8163	2465.1	1578.25
980.7321	2539.1366	2453.2	1567.45
980.8591	2540.4562	2473	1583.1
980.986	2541.7752	2461.6	1574.95
981.1129	2543.0935	2460.95	1573.2
981.2397	2544.411	2452.4	1565.1
981.3665	2545.7279	2440.25	1553.25
981.4933	2547.0441	2453.45	1565.35
981.62	2548.3596	2432.65	1541.85
981.7467	2549.6744	2433.15	1546.7
981.8734	2550.9885	2431	1537.4
982.0001	2552.3019	2421.2	1535.95
982.1267	2553.6146	2421.75	1532.7
982.2532	2554.9266	2407	1518.95
982.3798	2556.2379	2409.3	1524.05
982.5063	2557.5485	2402.3	1515.15
982.6327	2558.8585	2395.65	1501.95
982.7592	2560.1677	2399.85	1506.45
982.8856	2561.4762	2394.25	1506.2
983.0119	2562.7841	2389.2	1498.5
983.1383	2564.0913	2381.3	1496.6
983.2646	2565.3977	2382.35	1498.1
983.3908	2566.7035	2378.05	1489.7
983.517	2568.0086	2381.15	1490.9
983.6432	2569.313	2379.65	1491.55
983.7694	2570.6167	2377.3	1485
983.8955	2571.9197	2374.45	1486.5
984.0216	2573.222	2364.45	1471.9
984.1476	2574.5236	2355.6	1466.5
984.2737	2575.8246	2357.85	1465.6
984.3996	2577.1248	2355.3	1468
984.5256	2578.4244	2344.1	1457.85
984.6515	2579.7232	2356.1	1468.55
984.7774	2581.0214	2370.25	1458.2
984.9032	2582.3189	2356.1	1469
985.029	2583.6157	2342.65	1450.4
985.1548	2584.9118	2345.8	1459.1
985.2806	2586.2072	2338.35	1452.5
985.4063	2587.5019	2335.15	1447.35
985.5319	2588.7959	2331.9	1445.2
985.6576	2590.0893	2330.55	1441
985.7832	2591.3819	2329.65	1442.85
985.9087	2592.6739	2317.65	1428.25
986.0343	2593.9652	2324.5	1434
986.1597	2595.2557	2326.95	1439.05
986.2852	2596.5456	2321.95	1433.25
986.4106	2597.8348	2306.7	1418.6
986.536	2599.1234	2310.7	1424
986.6614	2600.4112	2302.3	1412.6
986.7867	2601.6983	2302.05	1411.3
986.912	2602.9848	2297.5	1409.95
987.0372	2604.2705	2296.85	1404.15
987.1624	2605.5556	2296	1409.3
987.2876	2606.84	2277.35	1391.65
987.4128	2608.1237	2282.05	1394.35
987.5379	2609.4067	2274.3	1387.5
987.6629	2610.689	2280.5	1386.3
987.788	2611.9707	2263.15	1372
987.913	2613.2516	2262.8	1371
988.0379	2614.5319	2254.15	1368.65
988.1629	2615.8115	2246.8	1358.3
988.2878	2617.0903	2250.95	1363
988.4126	2618.3685	2242.55	1353.65
988.5375	2619.6461	2241.35	1354.55
988.6622	2620.9229	2233.35	1346.15
988.787	2622.199	2233.9	1346.7
988.9117	2623.4745	2222.45	1332.9
989.0364	2624.7493	2211.65	1325.25
989.161	2626.0234	2208.7	1323.2
989.2857	2627.2968	2209.05	1323.05
989.4102	2628.5695	2191.6	1303.8
989.5348	2629.8415	2202.15	1314.15
989.6593	2631.1128	2196.9	1309.55
989.7837	2632.3835	2185.65	1298.4
989.9082	2633.6535	2188.3	1303.1
990.0326	2634.9228	2183.8	1298.1
990.1569	2636.1914	2187.45	1303.55
990.2812	2637.4593	2191.85	1304.15
990.4055	2638.7265	2171.15	1283.55
990.5298	2639.9931	2177.25	1290.25
990.654	2641.259	2170.25	1283.1
990.7782	2642.5242	2172.45	1283.8
990.9023	2643.7887	2153.3	1267.3
991.0264	2645.0525	2155.05	1268.3
991.1505	2646.3156	2149.6	1263.05
991.2745	2647.5781	2153.3	1269.15
991.3985	2648.8398	2139.45	1252.65
991.5225	2650.1009	2150.05	1253.75
991.6464	2651.3613	2134.1	1248.05
991.7703	2652.6211	2133.15	1246.05
991.8942	2653.8801	2122.9	1237.3
992.018	2655.1385	2125.4	1235.95
992.1418	2656.3961	2118.65	1233.7
992.2655	2657.6531	2117.45	1230.75
992.3892	2658.9094	2113.4	1226.1
992.5129	2660.1651	2105.3	1221.1
992.6366	2661.42	2115.35	1229.65
992.7602	2662.6743	2103.3	1216.85
992.8837	2663.9279	2120.4	1234.9
993.0073	2665.1808	2106.8	1218.9
993.1307	2666.433	2112.2	1226.2
993.2542	2667.6846	2105.35	1221.5
993.3776	2668.9354	2112.65	1224.5
993.501	2670.1856	2110.45	1224.4
993.6244	2671.4351	2104.6	1219.15
993.7477	2672.6839	2100	1210.65
993.8709	2673.9321	2101.2	1215.7
993.9942	2675.1795	2101.7	1215.5
994.1174	2676.4263	2099.05	1212.05
994.2405	2677.6724	2099.55	1213.1
994.3637	2678.9179	2098	1212.25
994.4868	2680.1626	2099.75	1215.2
994.6098	2681.4067	2080.95	1194.4
994.7328	2682.6501	2081.1	1194.4
994.8558	2683.8928	2089.15	1200.95
994.9788	2685.1348	2067	1182.6
995.1017	2686.3761	2070.95	1182.9
995.2245	2687.6168	2065.6	1181.35
995.3474	2688.8568	2067.75	1180.8
995.4702	2690.0961	2052.25	1168.3
995.5929	2691.3348	2050.45	1163.65
995.7156	2692.5727	2044.8	1157.6
995.8383	2693.81	2042.2	1157.55
995.961	2695.0466	2034.6	1150.05
996.0836	2696.2826	2033.6	1148.3
996.2062	2697.5178	2032.2	1142.85
996.3287	2698.7524	2029.85	1142.45
996.4512	2699.9863	2031.05	1141.95
996.5737	2701.2195	2023	1139.4
996.6961	2702.452	2032.85	1146.45
996.8185	2703.6839	2043.25	1156.3
996.9408	2704.9151	2036.4	1152.35
997.0631	2706.1456	2031.25	1144.1
997.1854	2707.3755	2040.15	1152.5
997.3077	2708.6046	2045.15	1156.3
997.4299	2709.8331	2055.85	1169.45
997.552	2711.0609	2047.1	1162
997.6742	2712.2881	2061.85	1175.2
997.7963	2713.5145	2061.15	1174.1
997.9183	2714.7403	2068.3	1183.75
998.0403	2715.9654	2074.35	1189.95
998.1623	2717.1899	2094.45	1192.5
998.2842	2718.4136	2088.35	1202.5
998.4062	2719.6367	2104.8	1217.8
998.528	2720.8591	2116.75	1223.55
998.6498	2722.0809	2120.95	1236.1
998.7716	2723.3019	2131.75	1244.25
998.8934	2724.5223	2130.45	1246
999.0151	2725.7421	2125.45	1240.4
999.1368	2726.9611	2140.75	1255
999.2584	2728.1795	2141.2	1252.65
999.38	2729.3972	2117.75	1232.35
999.5016	2730.6142	2115.1	1218.6
999.6231	2731.8306	2087.85	1202.4
999.7446	2733.0462	2070.8	1184.45
999.8661	2734.2612	2052.85	1160.8
999.9875	2735.4756	2027.35	1139.2
1000.1089	2736.6892	2017.45	1130.8
1000.2302	2737.9022	2008.3	1123.2
1000.3515	2739.1145	1978	1091.5
1000.4728	2740.3262	1977.3	1084.65
1000.594	2741.5372	1952.7	1069.2
1000.7152	2742.7475	1934.45	1050.45
1000.8363	2743.9571	1936.35	1048.5
1000.9575	2745.1661	1918.85	1029
1001.0785	2746.3744	1911.35	1023.45
1001.1996	2747.582	1902	1018.1
1001.3206	2748.7889	1891.2	1002.3
1001.4415	2749.9952	1879.85	994.5
1001.5625	2751.2008	1868	981.95
1001.6833	2752.4057	1862.5	977.2
1001.8042	2753.61	1860.05	976
1001.925	2754.8136	1855	968.75
1002.0458	2756.0165	1855.55	969.45
1002.1665	2757.2188	1848	965.7
1002.2872	2758.4204	1852.35	967.6
1002.4078	2759.6213	1843.8	955.95
1002.5285	2760.8215	1856.1	967.1
1002.649	2762.0211	1851.45	965.15
1002.7696	2763.22	1832.75	946.2
1002.8901	2764.4182	1834.95	949.15
1003.0106	2765.6158	1823.75	935.8
1003.131	2766.8127	1830.4	946.25
1003.2514	2768.009	1826.75	941.5
1003.3717	2769.2045	1819.2	933.9
1003.492	2770.3994	1821.6	934.2
1003.6123	2771.5936	1806.45	920.1
1003.7325	2772.7872	1802.9	918.9
1003.8527	2773.9801	1797.45	912.3
1003.9729	2775.1723	1810.75	911.7
1004.093	2776.3639	1793.25	912.35
1004.2131	2777.5548	1795.35	909
1004.3331	2778.745	1788.55	903.8
1004.4531	2779.9346	1784.05	900.6
1004.5731	2781.1235	1795.4	910.2
1004.693	2782.3117	1794.75	909.8
1004.8129	2783.4992	1789.55	906.75
1004.9328	2784.6861	1795.1	911.7
1005.0526	2785.8723	1794.6	908.95
1005.1723	2787.0579	1798.6	916.3
1005.2921	2788.2428	1807.45	921.4
1005.4118	2789.427	1815.9	933.9
1005.5314	2790.6106	1814.35	931.5
1005.651	2791.7935	1823.05	937.9
1005.7706	2792.9757	1837.2	954.7
1005.8902	2794.1573	1836.05	947.85
1006.0097	2795.3382	1859.05	976.5
1006.1291	2796.5184	1861.55	983
1006.2485	2797.698	1882.25	994.75
1006.3679	2798.8769	1885.9	1003.25
1006.4873	2800.0551	1909.6	1025.95
1006.6066	2801.2327	1925.85	1041
1006.7258	2802.4096	1936.75	1054.6
1006.8451	2803.5859	1944.1	1061.4
1006.9642	2804.7615	1974.05	1089.7
1007.0834	2805.9364	1999.65	1117.6
1007.2025	2807.1106	2024.35	1144.05
1007.3216	2808.2842	2047.85	1163.95
1007.4406	2809.4572	2082.45	1202
1007.5596	2810.6294	2114.3	1228.85
1007.6785	2811.801	2152.4	1270.65
1007.7975	2812.972	2184.55	1301.9
1007.9163	2814.1423	2219.25	1335.1
1008.0352	2815.3119	2274.45	1390.8
1008.154	2816.4808	2326.45	1445.05
1008.2727	2817.6491	2366.75	1482.4
1008.3914	2818.8167	2408.95	1525.15
1008.5101	2819.9837	2455.95	1570.65
1008.6288	2821.15	2512.45	1630.75
1008.7474	2822.3157	2557.05	1675.7
1008.8659	2823.4807	2588.15	1705.1
1008.9844	2824.645	2645.4	1761.85
1009.1029	2825.8086	2684.65	1802.75
1009.2214	2826.9716	2734.9	1853.05
1009.3398	2828.134	2766.45	1884.05
1009.4581	2829.2957	2802.45	1919.8
1009.5764	2830.4567	2835.55	1953.95
1009.6947	2831.617	2851.45	1966.85
1009.813	2832.7767	2873.5	1993.05
1009.9312	2833.9358	2864.25	1983.2
1010.0493	2835.0941	2852.05	1966.4
1010.1675	2836.2519	2849.2	1966.5
1010.2855	2837.4089	2835.8	1950.85
1010.4036	2838.5653	2833.45	1951.95
1010.5216	2839.7211	2830.25	1948.6
1010.6396	2840.8761	2825.3	1943.05
1010.7575	2842.0306	2849.9	1967.5
1010.8754	2843.1843	2893.75	2010.25
1010.9932	2844.3374	2932.15	2049.9
1011.111	2845.4899	2985.05	2101.3
1011.2288	2846.6417	3061.1	2179.75
1011.3465	2847.7928	3132.15	2251.85
1011.4642	2848.9433	3195.95	2312.6
1011.5818	2850.0931	3291.1	2408.25
1011.6995	2851.2422	3358.7	2474.65
1011.817	2852.3907	3427.6	2544.55
1011.9345	2853.5385	3478.55	2593.75
1012.052	2854.6857	3555.9	2647
1012.1695	2855.8323	3583.4	2702.2
1012.2869	2856.9781	3637.7	2754.55
1012.4042	2858.1233	3679.85	2797.25
1012.5216	2859.2679	3726.05	2846.2
1012.6389	2860.4118	3770.9	2888.55
1012.7561	2861.555	3815.5	2927.95
1012.8733	2862.6976	3840.2	2957.6
1012.9905	2863.8395	3868.2	2987.85
1013.1076	2864.9808	3899.3	3016.7
1013.2247	2866.1214	3907.65	3024.35
1013.3417	2867.2614	3933.1	3047.65
1013.4587	2868.4007	3932.4	3050.05
1013.5757	2869.5393	3957.95	3075.1
1013.6926	2870.6773	3945.4	3059.55
1013.8095	2871.8146	3984.35	3097.3
1013.9263	2872.9513	3977.1	3090.35
1014.0431	2874.0874	3970.85	3087.8
1014.1599	2875.2227	3970.1	3086.1
1014.2766	2876.3574	3929.1	3045.45
1014.3933	2877.4915	3908.3	3024.85
1014.51	2878.6249	3881.65	3002.65
1014.6266	2879.7577	3863.3	2979.45
1014.7431	2880.8898	3844	2951.75
1014.8596	2882.0212	3828.45	2948.9
1014.9761	2883.152	3807.05	2926.15
1015.0925	2884.2821	3781.7	2903.05
1015.2089	2885.4116	3770.7	2888.05
1015.3253	2886.5405	3796.15	2915.55
1015.4416	2887.6686	3785.3	2899.6
1015.5579	2888.7962	3788.7	2908.75
1015.6741	2889.923	3813.45	2933.45
1015.7903	2891.0493	3818.15	2934.1
1015.9065	2892.1748	3830.6	2950.15
1016.0226	2893.2997	3822.6	2940.5
1016.1387	2894.424	3844.85	2966.15
1016.2547	2895.5476	3869.95	2989.9
1016.3707	2896.6706	3896.25	3014.35
1016.4866	2897.7929	3930.5	3049.3
1016.6025	2898.9145	3946.8	3065.85
1016.7184	2900.0355	3971.35	3091.3
1016.8342	2901.1559	3994.45	3114.35
1016.95	2902.2756	4044.1	3164.6
1017.0658	2903.3946	4060.9	3180.6
1017.1815	2904.513	4086.75	3202.4
1017.2971	2905.6308	4130.2	3249.85
1017.4127	2906.7479	4148	3266.55
1017.5283	2907.8643	4160	3279.25
1017.6439	2908.9801	4164.1	3282.25
1017.7594	2910.0953	4186.1	3303.55
1017.8748	2911.2098	4182.65	3296.75
1017.9902	2912.3236	4174.8	3286.4
1018.1056	2913.4368	4167.1	3282.35
1018.2209	2914.5494	4139.9	3260.55
1018.3362	2915.6613	4113.8	3228.2
1018.4515	2916.7725	4089.25	3205.2
1018.5667	2917.8831	4065.2	3183.75
1018.6819	2918.9931	4019.35	3134.35
1018.797	2920.1024	3978.05	3095.15
1018.9121	2921.211	3962.25	3079.45
1019.0271	2922.319	3958	3077
1019.1421	2923.4264	3929.8	3052.5
1019.2571	2924.5331	3923.1	3043.45
1019.372	2925.6391	3907.2	3027.25
1019.4869	2926.7445	3886.35	3007.25
1019.6017	2927.8493	3892.2	3011.65
1019.7165	2928.9534	3885.25	3004.25
1019.8313	2930.0569	3883.9	2999.6
1019.946	2931.1597	3873.65	2990.85
1020.0606	2932.2619	3867.95	2988.8
1020.1753	2933.3634	3857.15	2976.6
1020.2899	2934.4643	3857.85	2973.85
1020.4044	2935.5645	3839.2	2951.55
1020.5189	2936.6641	3799.25	2912
1020.6334	2937.763	3757.7	2878.7
1020.7478	2938.8613	3689.95	2807.45
1020.8622	2939.959	3645.5	2759.15
1020.9765	2941.056	3572.6	2693.2
1021.0908	2942.1523	3495.7	2613.05
1021.2051	2943.248	3398.55	2519.2
1021.3193	2944.3431	3290.45	2410.15
1021.4334	2945.4375	3189.25	2309.4
1021.5476	2946.5313	3089.35	2210.6
1021.6617	2947.6244	2992.45	2111
1021.7757	2948.7169	2892.35	2008.85
1021.8897	2949.8087	2797.35	1918.65
1022.0037	2950.8999	2710.55	1829.5
1022.1176	2951.9904	2633.85	1754.95
1022.2315	2953.0803	2547.35	1665
1022.3453	2954.1696	2494.25	1615.5
1022.4591	2955.2582	2456.75	1576.6
1022.5728	2956.3462	2397.95	1517.35
1022.6865	2957.4335	2353.7	1472.9
1022.8002	2958.5202	2315.75	1433.55
1022.9138	2959.6062	2294.85	1414.05
1023.0274	2960.6916	2273.55	1394.55
1023.141	2961.7764	2247.4	1366.05
1023.2545	2962.8605	2226.9	1347.7
1023.3679	2963.9439	2213.3	1333.15
1023.4813	2965.0267	2200.75	1319.9
1023.5947	2966.1089	2213.15	1309.85
1023.708	2967.1905	2184.3	1302.7
1023.8213	2968.2714	2181.45	1304.1
1023.9346	2969.3516	2182.2	1301.25
1024.0478	2970.4312	2191.8	1303.25
1024.1609	2971.5102	2194.65	1317
1024.274	2972.5885	2195.85	1318.4
1024.3871	2973.6662	2190.35	1309.1
1024.5002	2974.7432	2181.9	1303.1
1024.6132	2975.8196	2169.1	1288.2
1024.7261	2976.8954	2158.7	1281.7
1024.839	2977.9705	2151.15	1274
1024.9519	2979.045	2132.8	1255.2
1025.0647	2980.1188	2110.85	1231.2
1025.1775	2981.192	2091.75	1213.45
1025.2902	2982.2645	2075.9	1196.45
1025.4029	2983.3364	2054.95	1175.15
1025.5156	2984.4077	2021.1	1141.15
1025.6282	2985.4783	1989.15	1101.75
1025.7407	2986.5483	1966.9	1089.95
1025.8532	2987.6177	1930.85	1053.4
1025.9657	2988.6864	1881.75	1002.5
1026.0782	2989.7545	1860.6	982.5
1026.1906	2990.8219	1823.5	944.7
1026.3029	2991.8887	1787.25	905.45
1026.4152	2992.9548	1753.5	873.85
1026.5275	2994.0204	1727.8	850.8
1026.6397	2995.0852	1689.3	810.95
1026.7519	2996.1495	1668.7	791.1
1026.864	2997.2131	1647.9	768.4
1026.9761	2998.276	1621.25	741.85
1027.0882	2999.3383	1606.1	725.95
1027.2002	3000.4	1587.3	706.3
1027.3122	3001.4611	1573.3	694.5
1027.4241	3002.5215	1559.75	680.5
1027.536	3003.5812	1538.4	657.3
1027.6478	3004.6404	1526.75	647.15
1027.7596	3005.6989	1524.65	645.4
1027.8714	3006.7567	1505.65	624.5
1027.9831	3007.8139	1536.1	626.9
1028.0947	3008.8705	1493.35	613.1
1028.2064	3009.9264	1484.3	601
1028.3179	3010.9818	1473.25	595.8
1028.4295	3012.0364	1475.3	597.55
1028.541	3013.0905	1467.6	585.8
1028.6524	3014.1439	1468	590.3
1028.7638	3015.1966	1453.65	575.6
1028.8752	3016.2487	1464	584.5
1028.9865	3017.3002	1462.4	581.6
1029.0978	3018.3511	1455.95	578.45
1029.209	3019.4013	1462.85	584.85
1029.3202	3020.4509	1455.9	576.85
1029.4314	3021.4998	1451.9	573.4
1029.5425	3022.5481	1458.95	579.8
1029.6535	3023.5958	1458.05	580.7
1029.7645	3024.6428	1451.7	572.05
1029.8755	3025.6892	1458.15	580.2
1029.9864	3026.735	1460.8	581.45
1030.0973	3027.7802	1457.3	578.85
1030.2082	3028.8247	1460.35	582.05
1030.319	3029.8685	1464.15	587.35
1030.4297	3030.9118	1470.95	590.45
1030.5404	3031.9544	1465.5	588.3
1030.6511	3032.9963	1467.7	591.9
1030.7617	3034.0376	1470.35	591.75
1030.8723	3035.0783	1477.6	595.45
1030.9829	3036.1184	1474.75	594.55
1031.0934	3037.1578	1485	604.7
1031.2038	3038.1966	1487.55	608.8
1031.3142	3039.2348	1484.75	607
1031.4246	3040.2723	1492.5	603.15
1031.5349	3041.3092	1479.6	602
1031.6452	3042.3455	1479.6	601.05
1031.7554	3043.3811	1474.15	595.3
1031.8656	3044.4161	1477	595.2
1031.9758	3045.4505	1456	581.2
1032.0859	3046.4842	1460.3	580.25
1032.1959	3047.5173	1440.65	564.1
1032.3059	3048.5498	1446.8	565.2
1032.4159	3049.5816	1442.45	565.25
1032.5258	3050.6128	1436.55	556
1032.6357	3051.6434	1437.1	557.35
1032.7455	3052.6734	1422.05	543
1032.8553	3053.7027	1419.15	542.25
1032.9651	3054.7314	1406.8	528.4
1033.0748	3055.7594	1403.4	526.25
1033.1845	3056.7868	1400.45	521.85
1033.2941	3057.8136	1390.8	512.55
1033.4037	3058.8398	1382.95	506.15
1033.5132	3059.8653	1385.25	505.2
1033.6227	3060.8902	1375.75	496.45
1033.7321	3061.9145	1369.2	491
1033.8415	3062.9381	1371	490.25
1033.9509	3063.9612	1376.5	484.95
1034.0602	3064.9835	1351.55	473.75
1034.1694	3066.0053	1348.6	467.8
1034.2787	3067.0264	1340	463.15
1034.3878	3068.0469	1335.1	457.85
1034.497	3069.0668	1329.45	448.9
1034.6061	3070.086	1325.8	452.65
1034.7151	3071.1046	1309.1	432.95
1034.8241	3072.1226	1302.2	423.15
1034.9331	3073.1399	1294.95	419
1035.042	3074.1567	1283.25	404.2
1035.1508	3075.1727	1274.4	395
1035.2597	3076.1882	1272.85	395.9
1035.3684	3077.203	1265.8	387.1
1035.4772	3078.2173	1246.65	368.05
1035.5859	3079.2308	1241.95	362
1035.6945	3080.2438	1240.5	360.25
1035.8031	3081.2561	1224.05	345.1
1035.9117	3082.2678	1216.05	340.65
1036.0202	3083.2789	1216.5	337.7
1036.1286	3084.2893	1209.7	331.6
1036.2371	3085.2991	1205.05	327.6
1036.3454	3086.3083	1197.35	313.8
1036.4538	3087.3169	1190.3	309.45
1036.562	3088.3248	1186.55	307.1
1036.6703	3089.3321	1180.2	302.55
1036.7785	3090.3388	1170.3	294.5
1036.8866	3091.3449	1176.75	298.7
1036.9948	3092.3503	1169.5	289.15
1037.1028	3093.3551	1162.75	285.8
1037.2108	3094.3593	1162.7	284.55
1037.3188	3095.3629	1159.35	282.4
1037.4267	3096.3658	1154.95	276.4
1037.5346	3097.3681	1144.95	268.75
1037.6425	3098.3698	1148.35	267.25
1037.7503	3099.3708	1148.35	264.3
1037.858	3100.3713	1138.4	261.4
1037.9657	3101.3711	1133.35	254.4
1038.0734	3102.3702	1250.65	256.8
1038.181	3103.3688	1135.15	253.3
1038.2886	3104.3667	1127.3	252.1
1038.3961	3105.364	1122.95	245.75
1038.5036	3106.3607	1127.8	247.25
1038.611	3107.3568	1122.1	245.2
1038.7184	3108.3522	1122.65	247.1
1038.8257	3109.347	1120.15	242.65
1038.933	3110.3412	1118.4	236.7
1039.0403	3111.3348	1117.35	241.5
1039.1475	3112.3277	1108.5	230.55
1039.2547	3113.32	1107	231.3
1039.3618	3114.3117	1109.45	231.9
1039.4689	3115.3028	1107	230.35
1039.5759	3116.2932	1107.35	228.5
1039.6829	3117.2831	1108.1	228.9
1039.7898	3118.2723	1101.75	224.8
1039.8967	3119.2608	1094.7	217.95
1040.0035	3120.2488	1096.6	219.2
1040.1103	3121.2361	1096.95	220.55
1040.2171	3122.2229	1093.7	216.6
1040.3238	3123.209	1088.75	211.05
1040.4305	3124.1944	1084.85	207.85
1040.5371	3125.1793	1090.5	213.3
1040.6437	3126.1635	1085.35	208.8
1040.7502	3127.1471	1088.65	214.1
1040.8567	3128.1301	1085.55	210.15
1040.9631	3129.1125	1082.8	206.1
1041.0695	3130.0942	1074.1	196.1
1041.1759	3131.0753	1086.9	201.6
1041.2822	3132.0558	1080	202.95
1041.3884	3133.0357	1079.5	201.6
1041.4946	3134.015	1074.4	196.15
1041.6008	3134.9936	1071.1	193.2
1041.7069	3135.9716	1091.55	195.7
1041.813	3136.949	1070.55	192.6
1041.919	3137.9258	1085.95	191.15
1042.025	3138.902	1073.3	189.85
1042.1309	3139.8775	1063.75	189.55
1042.2368	3140.8524	1067.2	191.6
1042.3427	3141.8267	1068.7	189.45
1042.4485	3142.8004	1065.35	190.55
1042.5542	3143.7735	1062.3	182.2
1042.6599	3144.7459	1061	184.7
1042.7656	3145.7178	1061.5	185
1042.8712	3146.689	1052	175.7
1042.9768	3147.6596	1056.2	176.75
1043.0823	3148.6295	1051	173.2
1043.1878	3149.5989	1051.2	174.45
1043.2932	3150.5676	1050.6	174.3
1043.3986	3151.5357	1049	173.2
1043.5039	3152.5032	1049.25	173.15
1043.6092	3153.4701	1042.3	165.2
1043.7145	3154.4364	1050.5	169.6
1043.8197	3155.402	1045.55	170.35
1043.9248	3156.367	1048.15	171.45
1044.03	3157.3315	1071.1	168.5
1044.135	3158.2952	1040.05	162.8
1044.24	3159.2584	1039	163.65
1044.345	3160.221	1038.35	161.65
1044.4499	3161.1829	1039.05	162.1
1044.5548	3162.1442	1039.5	164.1
1044.6596	3163.105	1035.6	158.65
1044.7644	3164.065	1032.9	156.2
1044.8692	3165.0245	1032.85	156.7
1044.9739	3165.9834	1028.55	154.55
1045.0785	3166.9416	1028	151.2
1045.1831	3167.8993	1032.4	156.05
1045.2877	3168.8563	1027.55	151.85
1045.3922	3169.8127	1025.4	150.3
1045.4966	3170.7684	1029.7	153.1
1045.6011	3171.7236	1028.8	153.6
1045.7054	3172.6782	1027.4	153.3
1045.8098	3173.6321	1026.55	150.25
1045.914	3174.5854	1031.4	149.75
1046.0183	3175.5381	1022.3	146.05
1046.1224	3176.4902	1021.05	145.55
1046.2266	3177.4417	1020.75	145.65
1046.3307	3178.3926	1020.45	144.9
1046.4347	3179.3428	1019.25	143
1046.5387	3180.2924	1016.45	140.65
1046.6427	3181.2415	1016.25	141.7
1046.7466	3182.1899	1015.4	136.1
1046.8504	3183.1377	1018.6	143.05
1046.9542	3184.0848	1018.2	140.3
1047.058	3185.0314	1012.45	135.2
1047.1617	3185.9773	1008.2	131.65
1047.2654	3186.9227	1011.6	134.2
1047.369	3187.8674	1013.3	137.2
1047.4726	3188.8115	1012.5	133.5
1047.5761	3189.755	1008.1	132.85
1047.6796	3190.6979	1004.2	126.65
1047.783	3191.6402	1009.35	133.55
1047.8864	3192.5818	1006.2	130.2
1047.9898	3193.5229	1014.95	132.55
1048.0931	3194.4633	1003.25	129.6
1048.1963	3195.4031	1005.65	128.95
1048.2995	3196.3423	1002.2	125.7
1048.4027	3197.2809	1003.35	127.2
1048.5058	3198.2189	1003.2	126.6
1048.6089	3199.1563	1019.4	130
1048.7119	3200.0931	999.75	125.35
1048.8148	3201.0292	997.7	120.35
1048.9178	3201.9648	1001	124.35
1049.0206	3202.8997	1002.45	124.5
1049.1235	3203.834	1000.4	122.75
1049.2262	3204.7677	995	119.15
1049.329	3205.7008	997.05	117.8
1049.4317	3206.6333	992.55	118.3
1049.5343	3207.5652	1001.4	123.85
1049.6369	3208.4964	997.85	122.5
1049.7394	3209.4271	992.5	118.05
1049.8419	3210.3571	996.35	122.6
1049.9444	3211.2865	994.7	117.5
1050.0468	3212.2154	994.65	120.6
1050.1491	3213.1436	997.15	118.45
1050.2514	3214.0712	1000.1	118.9
1050.3537	3214.9982	992.75	117.9
1050.4559	3215.9246	991.7	114.15
1050.5581	3216.8503	987.6	112.25
1050.6602	3217.7755	987.8	111.25
1050.7623	3218.7001	988.85	114.35
1050.8643	3219.624	988.3	109.45
1050.9663	3220.5473	988.95	111.35
1051.0682	3221.4701	986.95	109.65
1051.1701	3222.3922	989.35	112.25
1051.2719	3223.3137	985	108.8
1051.3737	3224.2346	987	110.05
1051.4754	3225.1549	983.05	108.3
1051.5771	3226.0746	982.15	107.45
1051.6788	3226.9937	986.15	113.55
1051.7804	3227.9121	981.85	107.1
1051.8819	3228.83	982.75	106.6
1051.9834	3229.7473	979.5	104.2
1052.0849	3230.6639	979.6	104.05
1052.1863	3231.5799	981	106.7
1052.2876	3232.4954	981.8	106.05
1052.3889	3233.4102	980.9	105.3
1052.4902	3234.3244	979.25	103.8
1052.5914	3235.238	977.55	105.15
1052.6926	3236.151	992.3	102.35
1052.7937	3237.0634	976.7	104.25
1052.8948	3237.9752	973.95	99.9
1052.9958	3238.8864	972.65	95.9
1053.0968	3239.797	971.7	95.5
1053.1977	3240.7069	972	97.85
1053.2986	3241.6163	973.9	96.3
1053.3994	3242.5251	970.45	97.65
1053.5002	3243.4332	973.1	100.35
1053.6009	3244.3408	971.3	97.25
1053.7016	3245.2477	970.2	94.25
1053.8022	3246.154	969	93.45
1053.9028	3247.0598	966.1	91.25
1054.0034	3247.9649	966	91.1
1054.1039	3248.8694	967.8	94.05
1054.2043	3249.7733	967.25	93.2
1054.3047	3250.6766	968.2	91.9
1054.4051	3251.5793	966.3	90.65
1054.5054	3252.4814	963.85	88.75
1054.6056	3253.3829	961.7	86.9
1054.7058	3254.2838	963.2	89.95
1054.806	3255.1841	961.8	88.2
1054.9061	3256.0838	959.8	85.45
1055.0061	3256.9829	960.25	87.1
1055.1062	3257.8814	962.65	86.15
1055.2061	3258.7792	961.2	82.65
1055.306	3259.6765	959	82.9
1055.4059	3260.5731	957	81.65
1055.5057	3261.4692	955.45	81.6
1055.6055	3262.3647	954.6	79
1055.7052	3263.2595	951.95	76.65
1055.8049	3264.1538	952.35	78.45
1055.9045	3265.0474	950.65	75.85
1056.0041	3265.9404	948.2	74.55
1056.1036	3266.8329	950.15	76.75
1056.2031	3267.7247	955.6	70.35
1056.3025	3268.616	942.1	68.65
1056.4019	3269.5066	946.3	72.05
1056.5013	3270.3966	941	65.45
1056.6005	3271.286	937.2	63.65
