Software Version:	3.9.2.0
Unit SN:	10000200
Spectrometer SN:	6960
Date:	3/8/2024 11:27:47 AM
Data Line Index:	25
Spectral Points:	2048
Integration time (ms):	125
Averages:	20
Delay (ms):	30000
Sequence Number:	1
Processing:	dark subtract
Laser Power (mW):	305
Laser Current (mA):	822
Laser Diode Temp (C):	25
Laser Case Temp (C):	25
System Temp (C):	25
Spectrometer Temp (C):	22.8
CCD Temp (C):	0.002
Secondary Temp (C):	20.004
Heatsink Temp (C):	19.359
CCDPCB Temp (C):	32.439
SecondaryPCB Temp (C):	26.758

Wavelength	RamanShift	Raw Counts	Dark Subtracted
787.061	30.1047	415.45	5.8
787.2016	32.3739	414.15	7.1
787.3422	34.6426	414.95	6.35
787.4828	36.9109	416.85	7.7
787.6235	39.1787	420.75	5.8
787.7642	41.4461	426.8	6.95
787.9049	43.7131	430.6	8.2
788.0456	45.9796	432.5	8.4
788.1863	48.2456	437.5	9.95
788.3271	50.5112	442.3	11.2
788.4679	52.7764	446	9.3
788.6087	55.0411	451.75	10.6
788.7496	57.3054	456.25	11.9
788.8904	59.5692	460.75	12.15
789.0313	61.8326	462.05	13.6
789.1722	64.0955	467.15	15.85
789.3132	66.3579	475.85	18.9
789.4541	68.6199	477.7	16.25
789.5951	70.8815	491.4	25.6
789.7361	73.1426	506.9	37.9
789.8771	75.4032	540.45	66.3
790.0181	77.6634	610.4	134.7
790.1592	79.9231	771.95	290.55
790.3003	82.1824	1113.25	624.85
790.4414	84.4412	1660.35	1153.7
790.5825	86.6995	2372.2	1845.25
790.7237	88.9574	3027.1	2484.9
790.8648	91.2148	3490.1	2939
791.006	93.4717	3673.2	3116.6
791.1472	95.7282	3706.3	3145.1
791.2885	97.9842	3693	3131.7
791.4297	100.2398	3641.65	3074.75
791.571	102.4949	3595.5	3024.8
791.7123	104.7495	3556.7	2982.15
791.8536	107.0036	3526.35	2951.45
791.9949	109.2573	3464.55	2889.5
792.1363	111.5105	3389.35	2815.3
792.2777	113.7632	3293.4	2715.9
792.4191	116.0154	3225.85	2639.3
792.5605	118.2672	3125.1	2540.7
792.7019	120.5185	3026.7	2439
792.8434	122.7693	2937.05	2348.4
792.9849	125.0197	2862.4	2268.2
793.1264	127.2696	2777.2	2182.3
793.2679	129.519	2742.3	2140.35
793.4094	131.7679	2701.3	2102.3
793.551	134.0163	2678.75	2073.8
793.6926	136.2642	2683	2075.3
793.8342	138.5117	2681.3	2070.8
793.9758	140.7587	2656	2046.1
794.1175	143.0052	2611.3	1997.4
794.2591	145.2512	2564.95	1945.5
794.4008	147.4967	2510.8	1895.65
794.5425	149.7417	2464.9	1845.9
794.6842	151.9863	2450.7	1829.5
794.826	154.2304	2445.25	1816.75
794.9677	156.4739	2425.15	1792.55
795.1095	158.717	2445.5	1812.1
795.2513	160.9596	2481.55	1843.65
795.3931	163.2017	2498.6	1859.55
795.535	165.4433	2506	1867
795.6768	167.6844	2511.8	1865.55
795.8187	169.925	2486.65	1842.35
795.9606	172.1651	2442.85	1794.85
796.1025	174.4047	2396.6	1742.35
796.2445	176.6439	2352.6	1697.75
796.3864	178.8825	2324.35	1666.55
796.5284	181.1206	2310.45	1648.7
796.6704	183.3582	2306.8	1642.3
796.8124	185.5954	2301.3	1635.1
796.9544	187.832	2299.8	1628.9
797.0965	190.0681	2307.1	1629.95
797.2386	192.3037	2313.3	1633.5
797.3806	194.5388	2306.7	1628.65
797.5228	196.7734	2320.85	1641.95
797.6649	199.0075	2338.35	1655.6
797.807	201.2411	2357.25	1674.9
797.9492	203.4742	2373.8	1687.95
798.0914	205.7068	2409.4	1718.2
798.2336	207.9389	2428.5	1738.05
798.3758	210.1704	2437.5	1753.45
798.518	212.4015	2432.75	1759.85
798.6603	214.632	2441.75	1774.5
798.8025	216.862	2432.5	1763.15
798.9448	219.0915	2440.35	1770.1
799.0871	221.3205	2468.7	1796.6
799.2294	223.549	2454.55	1788.8
799.3718	225.777	2465.45	1796.7
799.5141	228.0044	2468	1790
799.6565	230.2314	2463.9	1786.45
799.7989	232.4578	2451.2	1770.15
799.9413	234.6837	2434.15	1742.55
800.0837	236.909	2424.95	1732.7
800.2262	239.1339	2440.75	1721.95
800.3687	241.3582	2424.9	1725.35
800.5111	243.582	2439.35	1707.4
800.6536	245.8053	2449.35	1729.35
800.7961	248.0281	2439.05	1721.2
800.9387	250.2503	2431.6	1713.05
801.0812	252.472	2464.4	1745.85
801.2238	254.6932	2460.5	1738.25
801.3664	256.9139	2470.15	1749.45
801.509	259.134	2479.3	1757.9
801.6516	261.3536	2502	1785.9
801.7942	263.5727	2543.05	1818.15
801.9369	265.7912	2589.6	1866.2
802.0795	268.0092	2633.05	1911.75
802.2222	270.2267	2689.8	1964.95
802.3649	272.4436	2731.65	2002.7
802.5076	274.6601	2770.9	2032.3
802.6504	276.8759	2797.95	2065.35
802.7931	279.0913	2812.75	2079.8
802.9359	281.3061	2838.25	2104.9
803.0787	283.5204	2848.1	2108.55
803.2215	285.7341	2872	2133.15
803.3643	287.9473	2891.95	2149.5
803.5071	290.16	2894.8	2147.55
803.6499	292.3721	2857.55	2119.25
803.7928	294.5837	2821.15	2081.15
803.9357	296.7947	2781.65	2040.55
804.0786	299.0052	2778.7	2039
804.2215	301.2152	2755.15	2012.75
804.3644	303.4246	2746.05	2003.95
804.5074	305.6334	2729.3	1989.3
804.6503	307.8418	2715.25	1971.85
804.7933	310.0495	2696.95	1951.25
804.9363	312.2568	2667.3	1918.8
805.0793	314.4635	2626.1	1874.95
805.2223	316.6696	2574.9	1823.6
805.3653	318.8752	2530.35	1770.9
805.5084	321.0802	2512.35	1760.3
805.6514	323.2847	2500.5	1745.2
805.7945	325.4887	2501	1744.1
805.9376	327.692	2512.6	1756.2
806.0807	329.8949	2565.85	1809.45
806.2238	332.0972	2606.95	1848.75
806.367	334.2989	2633	1870.2
806.5101	336.5001	2635.6	1870.6
806.6533	338.7007	2616.1	1850.15
806.7965	340.9008	2564.3	1799.85
806.9397	343.1003	2499	1731.4
807.0829	345.2992	2459.85	1695.1
807.2261	347.4976	2415.3	1645.55
807.3693	349.6955	2393.55	1619.2
807.5126	351.8927	2385.35	1609.45
807.6559	354.0895	2370.8	1586.45
807.7991	356.2856	2356.45	1581.35
807.9424	358.4812	2337.8	1561.05
808.0857	360.6763	2332.85	1556.9
808.2291	362.8707	2331	1552.5
808.3724	365.0646	2341.1	1557.3
808.5158	367.258	2351.65	1566.15
808.6591	369.4508	2363.3	1578.8
808.8025	371.643	2389.1	1600.8
808.9459	373.8346	2416.45	1628.45
809.0893	376.0257	2461	1668.5
809.2327	378.2162	2472.4	1684.15
809.3762	380.4062	2486.65	1693.45
809.5196	382.5956	2467.05	1679.05
809.6631	384.7844	2431.1	1645.85
809.8066	386.9726	2381.95	1595.65
809.9501	389.1603	2359.4	1575.5
810.0936	391.3474	2372.75	1559.05
810.2371	393.5339	2347.75	1561.85
810.3806	395.7199	2328.6	1547.9
810.5241	397.9052	2364.95	1581.5
810.6677	400.09	2402	1617.5
810.8113	402.2743	2441.65	1652.75
810.9548	404.4579	2490.2	1704.05
811.0984	406.641	2527.6	1738.9
811.2421	408.8235	2574.9	1785.55
811.3857	411.0054	2616.65	1823.55
811.5293	413.1868	2686.95	1891.45
811.673	415.3675	2724.2	1922.15
811.8166	417.5477	2743.4	1944.2
811.9603	419.7273	2683.95	1881.05
812.104	421.9064	2602.7	1791.6
812.2477	424.0848	2538.9	1734.05
812.3914	426.2627	2480.5	1676.7
812.5351	428.4399	2414.1	1609.1
812.6788	430.6166	2363.65	1553.95
812.8226	432.7928	2317	1506.7
812.9663	434.9683	2280.65	1470.6
813.1101	437.1432	2254.1	1442.65
813.2539	439.3176	2227.5	1423.35
813.3977	441.4914	2209.9	1404.15
813.5415	443.6645	2217.85	1408.45
813.6853	445.8371	2209.95	1400.35
813.8291	448.0091	2225.75	1413.55
813.973	450.1806	2221.55	1412.6
814.1168	452.3514	2212.7	1400.9
814.2607	454.5216	2215.4	1393.5
814.4046	456.6913	2212.4	1398.25
814.5485	458.8603	2214.65	1399.35
814.6924	461.0288	2230	1421.3
814.8363	463.1967	2209.05	1396.25
814.9802	465.3639	2213.45	1400.3
815.1241	467.5306	2207.4	1393.35
815.2681	469.6967	2208.7	1394.55
815.412	471.8622	2184.7	1372.7
815.556	474.0271	2188.15	1374.85
815.7	476.1914	2190.85	1375.55
815.844	478.3551	2181.75	1363.55
815.988	480.5182	2193.15	1375.55
816.132	482.6807	2188.9	1372.35
816.276	484.8426	2215.05	1403.2
816.4201	487.0039	2250.45	1434.7
816.5641	489.1647	2295.95	1474.2
816.7082	491.3248	2345.4	1528
816.8522	493.4843	2355.25	1539.5
816.9963	495.6432	2346.9	1529
817.1404	497.8015	2324.85	1498.9
817.2845	499.9592	2268.1	1441.6
817.4286	502.1163	2229.4	1404.25
817.5727	504.2728	2178.65	1355.75
817.7168	506.4287	2149.35	1329.7
817.861	508.5839	2134.35	1312.45
818.0051	510.7386	2138.1	1315.35
818.1493	512.8927	2146.6	1313.5
818.2935	515.0461	2157.9	1332
818.4377	517.199	2163.35	1338.5
818.5818	519.3512	2209.35	1380.25
818.726	521.5029	2277.45	1442.05
818.8703	523.6539	2332.6	1504.45
819.0145	525.8043	2338.6	1507.55
819.1587	527.9541	2285.95	1451.7
819.303	530.1033	2224.65	1392.6
819.4472	532.2519	2159.95	1328.7
819.5915	534.3999	2152.3	1319.2
819.7357	536.5472	2144.95	1311.95
819.88	538.694	2144.6	1312.8
820.0243	540.8401	2155.5	1326.3
820.1686	542.9856	2174.65	1336.65
820.3129	545.1305	2184.75	1342.25
820.4572	547.2748	2201.5	1360.55
820.6016	549.4185	2212.25	1367.9
820.7459	551.5615	2214.9	1371.35
820.8902	553.704	2227.1	1387.5
821.0346	555.8458	2248.05	1408.9
821.1789	557.987	2268.9	1431.1
821.3233	560.1276	2293.3	1453
821.4677	562.2675	2348.2	1507.45
821.6121	564.4069	2410.25	1570.7
821.7565	566.5456	2450.75	1614.55
821.9009	568.6837	2440.1	1600.55
822.0453	570.8212	2360.7	1523.7
822.1897	572.958	2294.65	1457.05
822.3342	575.0942	2224.9	1388.7
822.4786	577.2299	2193.4	1356.15
822.6231	579.3648	2164.3	1329.4
822.7675	581.4992	2141.2	1310.5
822.912	583.6329	2149.6	1319.35
823.0565	585.766	2183.2	1352.8
823.201	587.8985	2215.7	1380.95
823.3454	590.0304	2282.4	1428.8
823.4899	592.1616	2309.1	1464.25
823.6345	594.2922	2304.65	1460.45
823.779	596.4222	2278.65	1431.95
823.9235	598.5515	2214.05	1365.7
824.068	600.6802	2155.25	1308.95
824.2126	602.8083	2107.2	1260.95
824.3571	604.9358	2102.5	1257.35
824.5017	607.0626	2105.25	1259.95
824.6462	609.1888	2109.2	1259.25
824.7908	611.3144	2127.75	1277.65
824.9354	613.4393	2158.35	1307.95
825.08	615.5636	2220.4	1370.4
825.2246	617.6873	2263.5	1412.2
825.3692	619.8103	2301.75	1452.6
825.5138	621.9327	2297.3	1445.15
825.6584	624.0544	2259	1409.4
825.803	626.1756	2197.65	1347.9
825.9477	628.2961	2154.55	1303.8
826.0923	630.4159	2132.85	1280.8
826.237	632.5351	2135.15	1285.2
826.3816	634.6537	2106.3	1253.2
826.5263	636.7716	2095.45	1239.3
826.6709	638.8889	2101.8	1245.8
826.8156	641.0056	2116.4	1261.2
826.9603	643.1216	2113.85	1256.4
827.105	645.237	2119.55	1262.15
827.2497	647.3518	2098.85	1247.15
827.3944	649.4659	2069.35	1216.75
827.5391	651.5793	2055.65	1202.85
827.6838	653.6922	2042.75	1189.85
827.8285	655.8043	2035.85	1181.2
827.9733	657.9159	2020.5	1166.05
828.118	660.0268	2014.05	1157.4
828.2627	662.137	2007.95	1149.6
828.4075	664.2466	2015.05	1155.55
828.5522	666.3556	2010.6	1152.5
828.697	668.4639	2010.85	1153.2
828.8418	670.5716	2002.1	1146.65
828.9865	672.6786	1999.35	1139.45
829.1313	674.785	1991.85	1130.4
829.2761	676.8907	1980.7	1121.9
829.4209	678.9958	1978.9	1121.5
829.5657	681.1002	1986.8	1125.9
829.7105	683.204	1980.6	1114.1
829.8553	685.3072	1973.6	1111.5
830.0001	687.4097	1979.6	1118.4
830.1449	689.5115	1985.65	1121.6
830.2898	691.6127	1981.1	1123.85
830.4346	693.7132	1965.05	1104.85
830.5794	695.8131	1983.55	1109.6
830.7243	697.9123	1971.75	1108.75
830.8691	700.0109	1979.7	1116
831.014	702.1089	1991.15	1126.6
831.1588	704.2061	2001.05	1133.1
831.3037	706.3028	2022.95	1156.3
831.4486	708.3987	2047.3	1180.85
831.5935	710.4941	2053.15	1189.15
831.7383	712.5887	2063.65	1197.75
831.8832	714.6827	2069.35	1202.65
832.0281	716.7761	2044.5	1181.5
832.173	718.8688	2049.35	1182.65
832.3179	720.9608	2050.25	1178.95
832.4628	723.0522	2069.95	1198.9
832.6077	725.1429	2090.35	1220.55
832.7527	727.233	2117.65	1250.65
832.8976	729.3224	2175.35	1306.75
833.0425	731.4112	2224.4	1354.85
833.1874	733.4993	2252.85	1380.2
833.3324	735.5867	2206.9	1336.95
833.4773	737.6735	2134.25	1261.9
833.6222	739.7596	2081.65	1210.7
833.7672	741.845	2041.2	1173
833.9122	743.9298	2033.55	1159.1
834.0571	746.014	2044.75	1173.65
834.2021	748.0974	2071.2	1200.6
834.347	750.1802	2066.9	1194.5
834.492	752.2624	2049.2	1176.7
834.637	754.3439	2025.95	1152.05
834.782	756.4247	2036.5	1153.4
834.9269	758.5048	2025.15	1154.2
835.0719	760.5843	2055.8	1181.75
835.2169	762.6631	2066.9	1193.25
835.3619	764.7413	2132.75	1261.7
835.5069	766.8188	2197.75	1322.7
835.6519	768.8956	2285.8	1407.8
835.7969	770.9718	2346.05	1472.5
835.9419	773.0473	2330.6	1454.35
836.0869	775.1221	2304.85	1432.25
836.232	777.1962	2291.75	1419
836.377	779.2697	2340.35	1462.95
836.522	781.3426	2455.7	1564.9
836.667	783.4147	2508.15	1629.1
836.8121	785.4862	2507.05	1634.95
836.9571	787.557	2425.65	1547.5
837.1021	789.6271	2296.25	1421
837.2472	791.6966	2153.1	1276.65
837.3922	793.7654	2062.7	1188.3
837.5373	795.8335	2009.6	1134.55
837.6823	797.901	1983.15	1104.7
837.8274	799.9678	1971.9	1094.9
837.9724	802.0339	1971.15	1095.3
838.1175	804.0993	1979.15	1091.2
838.2626	806.1641	1968.55	1089.55
838.4076	808.2282	1941.85	1065.05
838.5527	810.2916	1941.65	1062.3
838.6978	812.3544	1928.9	1052.1
838.8428	814.4164	1910.55	1032.25
838.9879	816.4778	1920.35	1042.2
839.133	818.5385	1927.45	1050.05
839.2781	820.5986	1966.2	1086.5
839.4232	822.658	2022.75	1142.1
839.5682	824.7166	2074.35	1195.05
839.7133	826.7747	2165.3	1286.15
839.8584	828.832	2243.6	1363.55
840.0035	830.8886	2306.55	1425.05
840.1486	832.9446	2321.65	1439.15
840.2937	834.9999	2294.45	1414.85
840.4388	837.0545	2225.25	1340.95
840.5839	839.1085	2128.85	1248.8
840.729	841.1618	2074.75	1191.05
840.8741	843.2143	2012.5	1130.9
841.0192	845.2662	1974.65	1093.9
841.1643	847.3175	1958.2	1079.05
841.3095	849.368	1955.2	1074.95
841.4546	851.4179	1947.05	1064.65
841.5997	853.467	1948.75	1068.9
841.7448	855.5155	1951.65	1071.75
841.8899	857.5633	1959.1	1076.9
842.0351	859.6105	1955.85	1074.25
842.1802	861.6569	1947.8	1067.8
842.3253	863.7027	1921.9	1036.9
842.4704	865.7478	1923.15	1039.9
842.6156	867.7922	1902.25	1018.95
842.7607	869.8359	1891.3	1006.9
842.9058	871.8789	1888.5	1005
843.0509	873.9212	1915.45	999.95
843.1961	875.9629	1889.7	1006.05
843.3412	878.0039	1901.7	1016.5
843.4863	880.0441	1921.1	1038.2
843.6315	882.0837	1926.15	1042.05
843.7766	884.1226	1963.2	1077.1
843.9218	886.1609	1990.4	1107.55
844.0669	888.1984	2039.65	1155.35
844.212	890.2352	2092.55	1211.45
844.3572	892.2714	2109.8	1219.35
844.5023	894.3069	2081.9	1196.3
844.6475	896.3416	2018.6	1133.5
844.7926	898.3757	1978.7	1093.05
844.9377	900.4091	1953.65	1068
845.0829	902.4418	1957.8	1065.2
845.228	904.4739	1976.6	1091.05
845.3732	906.5052	2000.1	1114.7
845.5183	908.5358	1990.55	1103.05
845.6635	910.5658	1967.4	1079
845.8086	912.595	1939.75	1051.55
845.9538	914.6236	1908.4	1023.4
846.0989	916.6515	1866.5	979.45
846.2441	918.6786	1853.35	965.15
846.3892	920.7051	1850.95	962.3
846.5344	922.7309	1850.4	960.5
846.6795	924.756	1843.65	953.3
846.8246	926.7804	1854.1	967.35
846.9698	928.8041	1860.15	972.3
847.1149	930.8272	1882.55	995.45
847.2601	932.8495	1888.35	1001.1
847.4052	934.8711	1914.25	1025
847.5504	936.892	1898.85	1011.35
847.6955	938.9123	1914	1026.25
847.8407	940.9318	1947.25	1059.85
847.9858	942.9506	1968.8	1078.7
848.131	944.9688	1944.4	1058.05
848.2761	946.9862	1925.15	1035.5
848.4213	949.003	1901.15	1011.35
848.5664	951.019	1868.75	979.25
848.7115	953.0344	1845.5	954.05
848.8567	955.0491	1844.7	954.4
849.0018	957.063	1840.05	952.4
849.147	959.0763	1831.95	944.15
849.2921	961.0888	1831.05	939.8
849.4373	963.1007	1840.5	950.95
849.5824	965.1119	1822.95	938.5
849.7275	967.1223	1811.3	928.05
849.8727	969.1321	1809.7	925.9
850.0178	971.1412	1803.15	916.3
850.1629	973.1495	1799.25	911.6
850.3081	975.1572	1823.35	903.95
850.4532	977.1641	1797.4	907.7
850.5983	979.1704	1802.05	912.05
850.7435	981.1759	1803.75	911.3
850.8886	983.1808	1791.4	899.55
851.0337	985.1849	1794.6	893
851.1788	987.1884	1783.9	890.45
851.324	989.1911	1788.95	894.9
851.4691	991.1932	1804.55	913.9
851.6142	993.1945	1801.2	913.15
851.7593	995.1951	1795.5	905.55
851.9045	997.1951	1796.2	899.6
852.0496	999.1943	1791.2	901.75
852.1947	1001.1928	1797.45	902.7
852.3398	1003.1906	1795.8	904.4
852.4849	1005.1877	1825.4	931.5
852.63	1007.1841	1850.15	958.15
852.7751	1009.1798	1863.35	972.95
852.9202	1011.1748	1847.65	956.75
853.0653	1013.1691	1827.75	936.6
853.2104	1015.1627	1803.1	912.15
853.3555	1017.1556	1763.55	872.6
853.5006	1019.1477	1752.25	861.5
853.6457	1021.1392	1732.25	843.8
853.7908	1023.1299	1719.3	832.65
853.9359	1025.12	1721.05	834.15
854.081	1027.1093	1721.05	840.75
854.2261	1029.0979	1743.45	863.4
854.3712	1031.0859	1758.7	877.9
854.5163	1033.0731	1784.1	897.5
854.6613	1035.0596	1791.1	901.75
854.8064	1037.0454	1783.4	890.25
854.9515	1039.0304	1761.4	866.9
855.0965	1041.0148	1742.15	852.55
855.2416	1042.9985	1723	827.65
855.3867	1044.9814	1715.55	823.85
855.5317	1046.9636	1711.95	818.35
855.6768	1048.9452	1719	829.3
855.8219	1050.926	1724.25	835.3
855.9669	1052.9061	1742.8	851.3
856.112	1054.8855	1754.1	862.65
856.257	1056.8642	1752.25	858.45
856.4021	1058.8421	1757.25	860.7
856.5471	1060.8194	1747.45	856.25
856.6921	1062.7959	1741.15	849.05
856.8372	1064.7717	1743.05	847.9
856.9822	1066.7469	1744	852.8
857.1272	1068.7213	1751.75	858.55
857.2723	1070.695	1758.05	865.05
857.4173	1072.6679	1775.3	880.35
857.5623	1074.6402	1800.9	905.3
857.7073	1076.6117	1821.8	923.85
857.8523	1078.5826	1797.2	903.95
857.9973	1080.5527	1767.85	875.1
858.1423	1082.5221	1720.15	825.5
858.2873	1084.4908	1694.9	802.3
858.4323	1086.4587	1688.7	794.6
858.5773	1088.426	1675.25	782.4
858.7223	1090.3925	1682	782.85
858.8673	1092.3584	1668.8	774.3
859.0123	1094.3235	1683.75	791.5
859.1573	1096.2879	1705.15	808.75
859.3022	1098.2515	1726.35	834.8
859.4472	1100.2145	1750.45	858.05
859.5922	1102.1767	1788.35	893.1
859.7371	1104.1382	1827.8	933.05
859.8821	1106.099	1886.8	989.85
860.027	1108.0591	1929.05	1034.65
860.172	1110.0185	1966.5	1070.85
860.3169	1111.9771	1997.5	1103.9
860.4619	1113.9351	2038.35	1147.8
860.6068	1115.8923	2095.35	1201.95
860.7517	1117.8488	2134.1	1237.45
860.8967	1119.8045	2095.8	1201.65
861.0416	1121.7596	2007.9	1113.55
861.1865	1123.7139	1894.35	1002.85
861.3314	1125.6675	1840.65	949.65
861.4763	1127.6204	1840.2	948.75
861.6212	1129.5726	1860.3	964.5
861.7661	1131.524	1857.55	963.4
861.911	1133.4748	1821.9	927.8
862.0559	1135.4248	1761.8	866.05
862.2008	1137.3741	1711.65	816.45
862.3457	1139.3226	1696.1	802.6
862.4905	1141.2705	1679.4	783.85
862.6354	1143.2176	1688.6	788.7
862.7803	1145.164	1705.6	807.55
862.9251	1147.1097	1710.7	815.65
863.07	1149.0546	1686	792.45
863.2148	1150.9989	1666.3	773.55
863.3597	1152.9424	1649.55	754.3
863.5045	1154.8852	1630.2	735.55
863.6493	1156.8272	1621.25	726.65
863.7942	1158.7686	1629.4	728.85
863.939	1160.7092	1623.85	729.2
864.0838	1162.6491	1625.75	729.95
864.2286	1164.5883	1639.95	743.6
864.3734	1166.5267	1653.1	756.05
864.5182	1168.4644	1676.95	780.5
864.663	1170.4014	1704.15	808.1
864.8078	1172.3377	1741.2	847.95
864.9526	1174.2732	1786.9	891.9
865.0974	1176.2081	1873.5	977.05
865.2421	1178.1421	1986.3	1087.8
865.3869	1180.0755	2106.7	1214
865.5317	1182.0082	2172.95	1279.3
865.6764	1183.9401	2165.1	1268.15
865.8212	1185.8713	2064.65	1170.2
865.9659	1187.8017	1934.95	1043.25
866.1106	1189.7315	1834.35	946.9
866.2554	1191.6605	1777.9	861.95
866.4001	1193.5888	1710.05	818.45
866.5448	1195.5163	1682.9	790.45
866.6895	1197.4432	1661.1	765.95
866.8342	1199.3693	1647.35	752.2
866.9789	1201.2947	1632.8	733
867.1236	1203.2193	1630.55	734.45
867.2683	1205.1432	1625.95	730.1
867.413	1207.0664	1622.7	727.45
867.5576	1208.9889	1624.25	726.7
867.7023	1210.9106	1619.7	728.25
867.847	1212.8316	1624.45	730.35
867.9916	1214.7519	1640.9	738.9
868.1363	1216.6715	1640.6	746.7
868.2809	1218.5903	1662.2	766.5
868.4255	1220.5084	1667.25	774.2
868.5701	1222.4257	1690.25	795.9
868.7148	1224.3424	1691.7	799.95
868.8594	1226.2583	1718.7	820.35
869.004	1228.1735	1744.15	848.25
869.1486	1230.0879	1783.45	885.4
869.2932	1232.0016	1812.95	919.2
869.4377	1233.9146	1847.35	951.8
869.5823	1235.8269	1867.3	972
869.7269	1237.7384	1868.25	971.8
869.8715	1239.6492	1871.7	978.05
870.016	1241.5592	1873.05	977.9
870.1606	1243.4686	1925.5	1029.7
870.3051	1245.3772	1989.2	1092.65
870.4496	1247.285	2074.4	1178.5
870.5941	1249.1922	2153.35	1259.9
870.7387	1251.0986	2210.15	1315.8
870.8832	1253.0042	2287.55	1393.1
871.0277	1254.9092	2361.75	1467.15
871.1722	1256.8134	2452.7	1559.05
871.3167	1258.7169	2543.65	1650.15
871.4611	1260.6196	2579.15	1686.4
871.6056	1262.5216	2606.25	1707.5
871.7501	1264.4229	2600.25	1707
871.8945	1266.3234	2568.1	1670.05
872.039	1268.2232	2514.05	1615.6
872.1834	1270.1223	2456.6	1559.05
872.3278	1272.0207	2426.75	1530.4
872.4723	1273.9183	2410	1509.25
872.6167	1275.8151	2408.3	1514.15
872.7611	1277.7113	2442.25	1545.65
872.9055	1279.6067	2519	1622.15
873.0499	1281.5014	2659.6	1763.35
873.1943	1283.3953	2826.8	1931.25
873.3386	1285.2885	3024.6	2127.75
873.483	1287.181	3157.3	2263.3
873.6274	1289.0727	3213.35	2320.2
873.7717	1290.9637	3168	2272.05
873.9161	1292.854	3071.05	2176.15
874.0604	1294.7435	2946.55	2049.55
874.2047	1296.6323	2833.85	1934.9
874.349	1298.5204	2741.3	1840.65
874.4933	1300.4077	2649.3	1754
874.6376	1302.2943	2614.35	1717.3
874.7819	1304.1802	2564.8	1668.65
874.9262	1306.0653	2535.35	1638.5
875.0705	1307.9497	2502.15	1609.15
875.2147	1309.8333	2482	1584.9
875.359	1311.7162	2453.9	1558.85
875.5032	1313.5984	2412.05	1512.25
875.6475	1315.4798	2411.55	1500.95
875.7917	1317.3605	2408.35	1508.3
875.9359	1319.2405	2404.05	1506.25
876.0801	1321.1197	2391.8	1493.65
876.2243	1322.9982	2338.05	1436.85
876.3685	1324.876	2276.75	1380.05
876.5127	1326.753	2180.2	1284.75
876.6569	1328.6293	2100.25	1200.9
876.801	1330.5048	2013.15	1115.85
876.9452	1332.3796	1933.6	1037.6
877.0893	1334.2537	1902.15	981.2
877.2335	1336.127	1840.6	942.6
877.3776	1337.9996	1809.2	913.4
877.5217	1339.8714	1795.45	897.65
877.6658	1341.7426	1824.8	885.25
877.8099	1343.6129	1772.05	873.35
877.954	1345.4826	1747.35	849.95
878.0981	1347.3515	1729.5	830.55
878.2422	1349.2196	1716.8	819.45
878.3862	1351.087	1705.3	809.6
878.5303	1352.9537	1707.4	809.8
878.6743	1354.8197	1707.5	811.4
878.8184	1356.6849	1719.75	819.8
878.9624	1358.5493	1734.8	834.9
879.1064	1360.4131	1759.9	863.45
879.2504	1362.276	1790.35	895.35
879.3944	1364.1383	1825.6	930.1
879.5384	1365.9998	1849.2	947.75
879.6823	1367.8606	1843.5	947.7
879.8263	1369.7206	1821.5	923.75
879.9702	1371.5799	1827.5	928.75
880.1142	1373.4384	1809.5	911.95
880.2581	1375.2962	1792.7	895.65
880.402	1377.1533	1739.25	845.1
880.5459	1379.0096	1688.1	792.55
880.6898	1380.8652	1661.55	768.15
880.8337	1382.7201	1633.45	737.3
880.9776	1384.5742	1613.15	716.95
881.1215	1386.4275	1591.4	692.1
881.2653	1388.2802	1575.8	682.05
881.4092	1390.132	1558.35	662.2
881.553	1391.9832	1557.3	659.85
881.6968	1393.8336	1545.35	649.75
881.8406	1395.6832	1537.65	638.45
881.9844	1397.5322	1529.5	632.05
882.1282	1399.3803	1523	620.8
882.272	1401.2278	1515.25	617.95
882.4158	1403.0745	1506.9	610.3
882.5595	1404.9204	1498.3	603.4
882.7033	1406.7656	1495.85	600.1
882.847	1408.6101	1490.75	593.5
882.9908	1410.4538	1495.35	597.65
883.1345	1412.2968	1487.7	591.95
883.2782	1414.139	1483.7	585.15
883.4219	1415.9805	1491.1	595.2
883.5656	1417.8213	1504.85	600.35
883.7092	1419.6613	1519.9	623.9
883.8529	1421.5006	1551.05	655.45
883.9965	1423.3391	1579.7	683.85
884.1402	1425.1769	1636.5	741
884.2838	1427.0139	1704.95	809.2
884.4274	1428.8502	1778.35	879.95
884.571	1430.6858	1846.7	948.6
884.7146	1432.5206	1878.2	979.65
884.8582	1434.3547	1871.25	971.75
885.0018	1436.188	1852.8	956.2
885.1453	1438.0206	1838.45	942.55
885.2889	1439.8524	1828.6	931.95
885.4324	1441.6835	1835	938.95
885.5759	1443.5139	1828.5	928.2
885.7194	1445.3435	1833.75	938.95
885.8629	1447.1724	1839.75	942.85
886.0064	1449.0005	1836.95	944.15
886.1499	1450.8279	1823.4	925.95
886.2933	1452.6545	1813.4	918.7
886.4368	1454.4804	1807.5	912.45
886.5802	1456.3056	1811.15	906.75
886.7237	1458.13	1793.6	900.05
886.8671	1459.9536	1766	869.7
887.0105	1461.7766	1728.1	833.5
887.1539	1463.5987	1691.85	792.75
887.2972	1465.4202	1654.15	757.4
887.4406	1467.2409	1624.25	728.25
887.584	1469.0608	1594.1	699.75
887.7273	1470.88	1558.25	662.8
887.8706	1472.6984	1537.4	642
888.0139	1474.5161	1506.75	607.95
888.1572	1476.3331	1498.4	602.85
888.3005	1478.1493	1491.85	595.4
888.4438	1479.9648	1482.75	587
888.5871	1481.7795	1484.3	590.75
888.7303	1483.5935	1483.8	588.65
888.8736	1485.4067	1485.4	589.45
889.0168	1487.2192	1491.85	596.05
889.16	1489.031	1490.7	591.4
889.3032	1490.842	1488.15	592.9
889.4464	1492.6522	1483.25	587.1
889.5896	1494.4618	1484.75	588.8
889.7327	1496.2705	1482.5	590.45
889.8759	1498.0785	1476.5	580.3
890.019	1499.8858	1470.15	571.7
890.1622	1501.6924	1455.8	557.95
890.3053	1503.4981	1459.5	562.1
890.4484	1505.3032	1446.85	552.15
890.5914	1507.1075	1442.1	548.35
890.7345	1508.911	1431.7	537.95
890.8776	1510.7138	1436.65	540.9
891.0206	1512.5159	1429.65	532.4
891.1637	1514.3172	1418.95	524.3
891.3067	1516.1178	1405.75	511.75
891.4497	1517.9176	1411	514.2
891.5927	1519.7166	1397.7	503.45
891.7357	1521.515	1401.25	498.55
891.8786	1523.3126	1394.2	498.5
892.0216	1525.1094	1389.9	492.15
892.1645	1526.9055	1386.1	491.45
892.3074	1528.7008	1382.85	485.3
892.4503	1530.4954	1382	481.65
892.5932	1532.2893	1373.75	481.5
892.7361	1534.0824	1381.05	483.3
892.879	1535.8747	1369.8	474.95
893.0218	1537.6663	1370.35	474.45
893.1647	1539.4572	1372.55	476.15
893.3075	1541.2473	1374.65	479.65
893.4503	1543.0367	1372	477.65
893.5931	1544.8253	1381.6	482.65
893.7359	1546.6132	1377.65	479.35
893.8787	1548.4003	1385.75	482.55
894.0214	1550.1867	1395.15	492.4
894.1642	1551.9723	1400.65	502
894.3069	1553.7572	1410.65	515.65
894.4496	1555.5414	1421.3	527.45
894.5923	1557.3247	1448	556.6
894.735	1559.1074	1480	588.45
894.8777	1560.8893	1519.55	628.9
895.0204	1562.6705	1556.05	661.85
895.163	1564.4509	1582.25	687.65
895.3056	1566.2305	1586.75	696.1
895.4482	1568.0094	1591.95	701.75
895.5908	1569.7876	1592.35	703
895.7334	1571.565	1579.6	686.9
895.876	1573.3417	1585.3	692.3
896.0186	1575.1176	1590	697.45
896.1611	1576.8928	1603.3	711.6
896.3036	1578.6672	1614.95	725.7
896.4461	1580.4409	1648.35	759.7
896.5886	1582.2138	1681.6	790.5
896.7311	1583.986	1719.15	828.5
896.8736	1585.7575	1763.7	871.8
897.0161	1587.5282	1785.95	895.9
897.1585	1589.2981	1810.9	923.65
897.3009	1591.0673	1830.8	943.2
897.4433	1592.8358	1835.25	946.05
897.5857	1594.6035	1832.85	939.95
897.7281	1596.3704	1825.25	932.35
897.8705	1598.1366	1804.85	915.95
898.0128	1599.9021	1779.4	890.55
898.1551	1601.6668	1763.3	871.6
898.2975	1603.4308	1749	857.5
898.4398	1605.194	1749.55	853.85
898.5821	1606.9564	1765.45	876.3
898.7243	1608.7182	1825	934.1
898.8666	1610.4791	1892.5	1006.4
899.0088	1612.2394	1979.7	1094.45
899.1511	1613.9988	2089.85	1201.95
899.2933	1615.7576	2171.7	1282.1
899.4355	1617.5156	2205.9	1307.1
899.5776	1619.2728	2185.75	1293.8
899.7198	1621.0293	2101.35	1211.4
899.862	1622.785	1991.35	1096.5
900.0041	1624.54	1874.6	982.5
900.1462	1626.2942	1756.15	868.4
900.2883	1628.0477	1664.55	775.4
900.4304	1629.8005	1582.7	691.2
900.5725	1631.5525	1525.8	637.15
900.7145	1633.3037	1472.5	582.1
900.8566	1635.0542	1435.5	547.05
900.9986	1636.804	1403.25	515.05
901.1406	1638.553	1434.8	485.1
901.2826	1640.3013	1359.2	471.75
901.4245	1642.0488	1337.55	448.2
901.5665	1643.7955	1332.9	446.2
901.7085	1645.5416	1314.7	426
901.8504	1647.2868	1305.25	418.3
901.9923	1649.0313	1297.95	410.4
902.1342	1650.7751	1294.45	403.45
902.2761	1652.5181	1288.25	399.95
902.4179	1654.2604	1290.85	401.1
902.5598	1656.0019	1294.25	406.25
902.7016	1657.7427	1307.55	419.35
902.8434	1659.4828	1325.15	437.5
902.9852	1661.222	1352.8	461.65
903.127	1662.9606	1382.85	494
903.2687	1664.6984	1409.95	516.75
903.4105	1666.4354	1426.05	533.85
903.5522	1668.1717	1404.4	512.15
903.6939	1669.9072	1370	479.75
903.8356	1671.642	1335.5	443.9
903.9773	1673.3761	1291.15	401.9
904.119	1675.1094	1262.35	370.85
904.2606	1676.8419	1245.9	356.7
904.4022	1678.5737	1228.15	336.1
904.5439	1680.3048	1226.05	334.75
904.6855	1682.0351	1210.7	321.95
904.827	1683.7646	1210.55	316.2
904.9686	1685.4934	1199.8	310.95
905.1101	1687.2215	1200.75	309.25
905.2517	1688.9488	1191.05	300.65
905.3932	1690.6754	1184.4	294.2
905.5347	1692.4012	1188.3	297.55
905.6761	1694.1263	1182.3	292.75
905.8176	1695.8506	1188.7	298.95
905.9591	1697.5742	1177.55	288.7
906.1005	1699.297	1179	292.5
906.2419	1701.0191	1173.65	287.25
906.3833	1702.7404	1169.85	283.3
906.5246	1704.461	1170.95	281.9
906.666	1706.1808	1167.75	278.35
906.8073	1707.8999	1163.6	274.85
906.9487	1709.6182	1157.95	271.15
907.09	1711.3358	1155.4	265.65
907.2313	1713.0527	1160	275.8
907.3725	1714.7688	1160.3	268.25
907.5138	1716.4841	1159.45	270.4
907.655	1718.1987	1168	273.8
907.7962	1719.9126	1149.8	263.55
907.9374	1721.6257	1150.45	262.6
908.0786	1723.338	1159.35	273.35
908.2198	1725.0496	1151.1	263.6
908.3609	1726.7605	1145.45	257.45
908.502	1728.4706	1144.45	254.8
908.6431	1730.18	1147.6	257.4
908.7842	1731.8886	1145.05	257.6
908.9253	1733.5964	1163.95	255.95
909.0664	1735.3036	1148.95	257
909.2074	1737.0099	1141.15	254.65
909.3484	1738.7156	1145.05	259.9
909.4894	1740.4204	1141.5	252.2
909.6304	1742.1246	1143.95	253.1
909.7714	1743.8279	1138.2	251.35
909.9123	1745.5306	1133.8	245.1
910.0532	1747.2325	1136.5	250.3
910.1941	1748.9336	1137.7	247.8
910.335	1750.634	1137.95	248.55
910.4759	1752.3336	1129.15	242.7
910.6168	1754.0325	1131.15	245.5
910.7576	1755.7307	1140.65	254.6
910.8984	1757.4281	1132.95	245.65
911.0392	1759.1247	1142.6	243.65
911.18	1760.8206	1140.3	246.8
911.3208	1762.5158	1138.65	245
911.4615	1764.2102	1133.75	246.55
911.6022	1765.9039	1135.8	247.85
911.7429	1767.5968	1129.05	245.9
911.8836	1769.289	1125.9	239.4
912.0243	1770.9804	1133.5	243.55
912.1649	1772.6711	1131.85	243.15
912.3056	1774.361	1124.15	233.85
912.4462	1776.0502	1125.75	237.65
912.5868	1777.7386	1132.4	241.75
912.7274	1779.4263	1125	237.65
912.8679	1781.1132	1123.3	236.45
913.0084	1782.7994	1120.85	234.55
913.149	1784.4849	1121.1	234
913.2895	1786.1696	1135.35	230
913.4299	1787.8535	1120.15	230.25
913.5704	1789.5367	1115.55	231.05
913.7108	1791.2192	1117.6	233.65
913.8513	1792.9009	1143	227.35
913.9917	1794.5818	1118	227.5
914.132	1796.2621	1117.35	230.95
914.2724	1797.9415	1117.05	229.15
914.4128	1799.6202	1119.6	231.1
914.5531	1801.2982	1111.7	222.85
914.6934	1802.9755	1119.2	229.4
914.8337	1804.6519	1117.05	227.25
914.9739	1806.3277	1110.85	220.95
915.1142	1808.0027	1112.25	227.55
915.2544	1809.6769	1106.5	220.35
915.3946	1811.3504	1111.55	226.6
915.5348	1813.0231	1108.05	219.7
915.675	1814.6951	1111.95	227.45
915.8151	1816.3664	1113.65	223.5
915.9553	1818.0369	1108.75	222.25
916.0954	1819.7067	1104	218
916.2355	1821.3757	1110.85	220.45
916.3755	1823.044	1103.75	217
916.5156	1824.7115	1107.2	219.2
916.6556	1826.3783	1106.3	220.6
916.7956	1828.0443	1101.5	215.4
916.9356	1829.7096	1105.65	218.1
917.0756	1831.3741	1105.25	213.65
917.2155	1833.0379	1099.6	214.15
917.3555	1834.701	1103.95	218
917.4954	1836.3633	1098.7	213.3
917.6353	1838.0248	1097.05	205.65
917.7751	1839.6856	1099.15	211.8
917.915	1841.3457	1097.05	210
918.0548	1843.005	1099.7	212.8
918.1946	1844.6636	1096.9	211.05
918.3344	1846.3214	1099.05	211.5
918.4742	1847.9785	1098.95	212.9
918.6139	1849.6349	1096.5	206.5
918.7537	1851.2904	1104.05	208
918.8934	1852.9453	1099.05	208.05
919.0331	1854.5994	1096.05	204.8
919.1727	1856.2528	1101.85	208.45
919.3124	1857.9054	1097.85	207.9
919.452	1859.5572	1096.1	208.95
919.5916	1861.2083	1092.9	204.8
919.7312	1862.8587	1093.05	204.7
919.8708	1864.5084	1094.65	203.9
920.0103	1866.1572	1093.5	205.45
920.1498	1867.8054	1092.7	203.25
920.2893	1869.4528	1096.7	207.5
920.4288	1871.0994	1086.9	195.65
920.5683	1872.7453	1091.45	201.65
920.7077	1874.3905	1094.35	198.75
920.8471	1876.0349	1090.45	200.65
920.9865	1877.6786	1091.8	202.05
921.1259	1879.3215	1089.05	200.95
921.2653	1880.9637	1090.15	202.6
921.4046	1882.6051	1086.95	199.95
921.5439	1884.2458	1088.6	200.1
921.6832	1885.8858	1091.6	203.9
921.8225	1887.525	1092.35	204.4
921.9617	1889.1634	1083.6	194.8
922.101	1890.8011	1086.35	197.1
922.2402	1892.4381	1084	195.3
922.3794	1894.0743	1083.6	196.3
922.5185	1895.7098	1080.7	193.05
922.6577	1897.3446	1084.7	194.2
922.7968	1898.9786	1087.05	193.95
922.9359	1900.6118	1082.45	195.75
923.075	1902.2443	1080.65	192.85
923.214	1903.8761	1079.5	191.1
923.3531	1905.5071	1082.95	194.15
923.4921	1907.1374	1082.5	195.9
923.6311	1908.7669	1078.3	191.45
923.77	1910.3957	1076.65	187.9
923.909	1912.0237	1077.25	190.9
924.0479	1913.651	1078.35	187.45
924.1868	1915.2776	1075.3	188.7
924.3257	1916.9034	1071.65	186.75
924.4646	1918.5285	1073.95	188.25
924.6034	1920.1528	1072.6	186.1
924.7422	1921.7764	1076.5	189.75
924.881	1923.3992	1074.2	186.9
925.0198	1925.0213	1074.5	187.1
925.1586	1926.6427	1070.9	184.5
925.2973	1928.2633	1284.5	181.7
925.436	1929.8832	1077.4	186.25
925.5747	1931.5023	1067.35	178.75
925.7134	1933.1207	1073.85	188.95
925.852	1934.7383	1067.5	179.75
925.9906	1936.3552	1066.8	181
926.1292	1937.9714	1069.25	179.5
926.2678	1939.5868	1069.6	179.85
926.4064	1941.2015	1064.95	177.5
926.5449	1942.8154	1071.6	183.85
926.6834	1944.4286	1063.9	175.55
926.8219	1946.041	1090.75	179.35
926.9604	1947.6528	1071.25	179.6
927.0988	1949.2637	1054.25	167.6
927.2372	1950.8739	1061.5	173.6
927.3756	1952.4834	1058.75	173.3
927.514	1954.0921	1062.55	173.75
927.6523	1955.7001	1063.55	173
927.7907	1957.3074	1059.15	173.9
927.929	1958.9139	1060.5	173.75
928.0673	1960.5197	1055.1	165.75
928.2055	1962.1247	1056.35	170.65
928.3438	1963.729	1055.2	170.25
928.482	1965.3325	1078.05	169.85
928.6202	1966.9353	1060.65	177.3
928.7584	1968.5374	1051.5	166.8
928.8965	1970.1387	1054	168.25
929.0346	1971.7393	1051.95	166.8
929.1727	1973.3392	1052.7	166.25
929.3108	1974.9383	1048.1	162.25
929.4489	1976.5366	1048.75	165
929.5869	1978.1342	1050.65	165.85
929.7249	1979.7311	1051.25	164.85
929.8629	1981.3273	1047.85	164.05
930.0009	1982.9227	1047.4	160.15
930.1388	1984.5173	1044.55	159.8
930.2767	1986.1112	1047.65	163.1
930.4146	1987.7044	1048.35	166.2
930.5525	1989.2968	1049.35	164.75
930.6904	1990.8885	1052.35	166.35
930.8282	1992.4795	1048.3	164.35
930.966	1994.0697	1039.15	156.55
931.1038	1995.6592	1047.2	164.5
931.2415	1997.2479	1045.85	160.6
931.3793	1998.8359	1044.85	163.85
931.517	2000.4232	1040.75	160.6
931.6547	2002.0097	1037.9	158.35
931.7923	2003.5955	1041.55	159.55
931.93	2005.1805	1044.8	159.8
932.0676	2006.7648	1042.1	160.85
932.2052	2008.3484	1043.35	160.5
932.3427	2009.9312	1043.8	161
932.4803	2011.5133	1036.3	157
932.6178	2013.0946	1040.35	161.85
932.7553	2014.6752	1035.85	157.05
932.8928	2016.2551	1041.8	160.25
933.0302	2017.8342	1037.95	156.4
933.1676	2019.4126	1040.95	160.45
933.305	2020.9902	1036.15	156.25
933.4424	2022.5672	1036.55	156.05
933.5798	2024.1433	1040.95	155.8
933.7171	2025.7188	1035.5	155.75
933.8544	2027.2935	1035.85	154.25
933.9917	2028.8674	1034.05	154.75
934.129	2030.4406	1031.7	153.65
934.2662	2032.0131	1035.25	156.35
934.4034	2033.5849	1034.4	146.85
934.5406	2035.1559	1029.1	150.5
934.6778	2036.7261	1034.85	156.55
934.8149	2038.2957	1034.35	152.3
934.952	2039.8645	1033.15	150.55
935.0891	2041.4325	1037.45	152.65
935.2262	2042.9998	1030.45	148.8
935.3632	2044.5664	1035.55	154.7
935.5002	2046.1323	1032.7	152.05
935.6372	2047.6974	1030.5	152.35
935.7742	2049.2617	1025.55	146.85
935.9111	2050.8254	1034.35	148.15
936.048	2052.3883	1035.1	154.4
936.1849	2053.9504	1031.25	148.3
936.3218	2055.5118	1030.15	147.7
936.4586	2057.0725	1033.4	149.65
936.5955	2058.6325	1026.95	144.9
936.7323	2060.1917	1029.5	150.85
936.869	2061.7502	1030.9	149.55
937.0058	2063.3079	1027.7	148.2
937.1425	2064.8649	1028.2	144.75
937.2792	2066.4212	1027.5	145.2
937.4159	2067.9767	1029.5	150.95
937.5525	2069.5315	1031.15	150.35
937.6891	2071.0856	1026.1	144.9
937.8257	2072.6389	1032.05	150.3
937.9623	2074.1915	1025.6	146.45
938.0989	2075.7433	1028.2	147
938.2354	2077.2945	1024.4	145
938.3719	2078.8448	1027.55	145.8
938.5084	2080.3945	1026.6	145.95
938.6448	2081.9434	1024.95	142.9
938.7812	2083.4916	1027.75	145.7
938.9176	2085.039	1031.2	146.75
939.054	2086.5857	1029.2	142.55
939.1903	2088.1317	1029.55	143.7
939.3267	2089.677	1028.35	143.9
939.463	2091.2215	1026.1	143.15
939.5992	2092.7652	1023.3	137.9
939.7355	2094.3083	1026.2	141
939.8717	2095.8506	1023.15	141.6
940.0079	2097.3921	1026.65	144.8
940.1441	2098.933	1024.5	142.85
940.2802	2100.4731	1026.55	144.35
940.4163	2102.0124	1046.1	145.45
940.5524	2103.5511	1022.5	138
940.6885	2105.089	1019.7	137.5
940.8245	2106.6261	1024.4	142.95
940.9606	2108.1626	1023.2	139.7
941.0965	2109.6983	1053.4	140.45
941.2325	2111.2332	1024.75	142.3
941.3684	2112.7675	1025.45	141.85
941.5044	2114.301	1025.2	141.7
941.6403	2115.8337	1027.5	144.65
941.7761	2117.3657	1022.55	139.25
941.912	2118.897	1020.25	137.75
942.0478	2120.4276	1026.2	136.4
942.1835	2121.9575	1024.25	140.2
942.3193	2123.4866	1033.85	136.05
942.455	2125.0149	1026.7	140.9
942.5907	2126.5426	1020.7	141.45
942.7264	2128.0695	1024.25	140.65
942.8621	2129.5956	1016.2	137.85
942.9977	2131.1211	1021.1	135.8
943.1333	2132.6458	1018.65	135.8
943.2689	2134.1698	1022.2	137.95
943.4044	2135.693	1026.45	140.3
943.54	2137.2155	1027	141.05
943.6755	2138.7373	1021.9	139.35
943.8109	2140.2584	1015.25	134.25
943.9464	2141.7787	1025.3	139.05
944.0818	2143.2983	1014.65	136.85
944.2172	2144.8171	1013.1	133.1
944.3526	2146.3353	1015.2	133.8
944.4879	2147.8527	1017.9	137.2
944.6232	2149.3693	1020.1	138.05
944.7585	2150.8853	1018.65	133.25
944.8938	2152.4005	1017.65	135
945.029	2153.9149	1017.9	137.75
945.1642	2155.4287	1015.2	131.75
945.2994	2156.9417	1015	133.85
945.4346	2158.454	1015.5	132.35
945.5697	2159.9655	1013.35	132.9
945.7048	2161.4764	1015.55	134.6
945.8399	2162.9865	1015.1	133.6
945.9749	2164.4958	1015.3	132.15
946.1099	2166.0045	1015.95	131.1
946.2449	2167.5124	1013.7	132.15
946.3799	2169.0195	1013.4	133.2
946.5148	2170.526	1015.3	132.45
946.6498	2172.0317	1009.55	127.5
946.7846	2173.5367	1014.45	134.6
946.9195	2175.0409	1014.3	133.4
947.0543	2176.5445	1012.85	132.5
947.1891	2178.0473	1012.6	130.55
947.3239	2179.5494	1015.55	128.45
947.4587	2181.0507	1011.9	127.95
947.5934	2182.5513	1011.75	130.15
947.7281	2184.0512	1011.55	128.8
947.8628	2185.5504	1009.25	128.1
947.9974	2187.0488	1007.95	127
948.132	2188.5465	1009.1	130.4
948.2666	2190.0435	1007.6	127.65
948.4012	2191.5397	1008.75	127.05
948.5357	2193.0353	1012.4	129.05
948.6702	2194.5301	1013.85	130.95
948.8047	2196.0241	1011.75	127.6
948.9392	2197.5175	1011.5	128
949.0736	2199.0101	1008.5	120.6
949.208	2200.502	1007.75	126.6
949.3424	2201.9931	1006.45	125.65
949.4767	2203.4835	1007.15	126
949.611	2204.9733	1023.35	125.35
949.7453	2206.4622	1004.8	123.65
949.8796	2207.9505	1003.7	122.5
950.0138	2209.438	999.45	122.9
950.148	2210.9248	1004.1	122.45
950.2822	2212.4109	1003.65	122.35
950.4164	2213.8962	1008.55	125.2
950.5505	2215.3809	1011.45	125.5
950.6846	2216.8648	1005.15	119.55
950.8186	2218.3479	1010.65	120.6
950.9527	2219.8304	1005.4	117.25
951.0867	2221.3121	1004.8	119.5
951.2207	2222.7931	1006.2	124.3
951.3546	2224.2733	1001.35	119.45
951.4886	2225.7529	1002.25	121.3
951.6225	2227.2317	1001.55	118.9
951.7563	2228.7098	1000.15	121
951.8902	2230.1872	998.9	119.4
952.024	2231.6638	1000.7	119.35
952.1578	2233.1397	1003.7	117
952.2916	2234.6149	999.75	118.3
952.4253	2236.0894	998.15	113.9
952.559	2237.5632	1005.4	112.9
952.6927	2239.0362	1000.6	120.65
952.8263	2240.5085	998.15	116.8
952.9599	2241.9801	998.15	117.1
953.0935	2243.4509	999.65	117.95
953.2271	2244.921	997.1	114.85
953.3606	2246.3904	1001.15	115.65
953.4941	2247.8591	996.45	115.75
953.6276	2249.3271	997.8	116.7
953.7611	2250.7943	994.3	111.35
953.8945	2252.2608	994.75	112.9
954.0279	2253.7266	993.95	111.95
954.1612	2255.1917	995.65	113.95
954.2946	2256.656	992.55	109.15
954.4279	2258.1197	987.95	106.2
954.5612	2259.5826	994.8	112.7
954.6944	2261.0447	991.35	107.9
954.8276	2262.5062	993.7	109
954.9608	2263.9669	993.8	108.95
955.094	2265.4269	996.2	113
955.2271	2266.8862	991.1	108.45
955.3602	2268.3448	991.8	109.5
955.4933	2269.8026	991.55	108.95
955.6264	2271.2598	990.4	109.05
955.7594	2272.7162	990.05	108.4
955.8924	2274.1719	993.65	112.1
956.0253	2275.6268	992.5	109.55
956.1583	2277.0811	995.35	114.5
956.2912	2278.5346	992.2	109.1
956.4241	2279.9874	989.35	107.95
956.5569	2281.4395	989	110.4
956.6897	2282.8908	993.85	105.6
956.8225	2284.3414	992.95	109
956.9553	2285.7914	989.75	109.55
957.088	2287.2406	991.7	107.4
957.2207	2288.689	990.55	108.3
957.3534	2290.1368	992.05	106.1
957.486	2291.5838	996.15	110.2
957.6186	2293.0302	993.6	109.35
957.7512	2294.4758	988.75	104.85
957.8838	2295.9206	991.7	107.85
958.0163	2297.3648	989.85	109
958.1488	2298.8082	989.85	107.05
958.2813	2300.251	988.9	105.05
958.4137	2301.693	989.5	104.85
958.5461	2303.1343	987.6	104.6
958.6785	2304.5748	991.5	108.5
958.8108	2306.0147	989.45	107.8
958.9432	2307.4538	989.55	106.1
959.0754	2308.8922	983.7	104.9
959.2077	2310.3299	987.45	105.9
959.3399	2311.7669	982.2	100.25
959.4721	2313.2031	985.95	104.7
959.6043	2314.6387	984.05	101.85
959.7365	2316.0735	983.25	102.1
959.8686	2317.5076	985.55	103.65
960.0006	2318.941	982.05	99.6
960.1327	2320.3737	985.85	103.25
960.2647	2321.8056	993.9	110.35
960.3967	2323.2369	990.55	107.75
960.5287	2324.6674	991.55	108.4
960.6606	2326.0972	991.35	106
960.7925	2327.5263	994.65	110.85
960.9244	2328.9547	997.6	114.45
961.0562	2330.3823	992.4	110.4
961.1881	2331.8092	992.55	106
961.3198	2333.2355	983.5	100
961.4516	2334.661	985.25	102.2
961.5833	2336.0858	984.9	100.55
961.715	2337.5098	981.55	98.8
961.8467	2338.9332	983.25	99.85
961.9783	2340.3558	982.8	97.6
962.1099	2341.7778	983.7	101.35
962.2415	2343.199	981.45	98.3
962.373	2344.6195	979.4	99.8
962.5045	2346.0393	978.3	95.6
962.636	2347.4583	979.95	96.7
962.7675	2348.8767	982.15	99.75
962.8989	2350.2943	980.4	96.1
963.0303	2351.7113	982.8	98.55
963.1617	2353.1275	980.3	96.65
963.293	2354.543	1006.8	100.6
963.4243	2355.9578	977.4	94.2
963.5556	2357.3718	976.9	95.05
963.6868	2358.7852	978.6	93.3
963.818	2360.1978	978.15	94.6
963.9492	2361.6098	975.3	93
964.0803	2363.021	982.8	95.8
964.2114	2364.4315	977.55	94.4
964.3425	2365.8413	986	96.1
964.4736	2367.2504	976.95	94.75
964.6046	2368.6587	975.45	92.55
964.7356	2370.0664	976.05	91.8
964.8666	2371.4733	976.7	93.75
964.9975	2372.8795	976.2	92.75
965.1284	2374.285	978.05	94.45
965.2593	2375.6899	976	93.75
965.3901	2377.0939	979.1	95.55
965.5209	2378.4973	976.25	94.1
965.6517	2379.9	974.75	91.4
965.7825	2381.3019	974.75	92
965.9132	2382.7032	977.15	95.2
966.0439	2384.1037	975.05	93
966.1745	2385.5035	979.15	97.45
966.3051	2386.9027	969.55	86.8
966.4357	2388.3011	978.6	94.6
966.5663	2389.6987	972.05	90.55
966.6968	2391.0957	972.6	89.45
966.8273	2392.492	973.1	91.1
966.9578	2393.8876	972.3	87.95
967.0882	2395.2824	968.3	86.3
967.2186	2396.6765	970.05	85.3
967.349	2398.07	969.4	84
967.4793	2399.4627	977.35	90.35
967.6097	2400.8547	973.1	87.15
967.7399	2402.246	977.55	86.2
967.8702	2403.6366	972.8	86.45
968.0004	2405.0265	969.8	85.25
968.1306	2406.4156	975.3	87.75
968.2607	2407.8041	973.05	86.1
968.3909	2409.1918	975.8	88.45
968.521	2410.5789	972.35	87.95
968.651	2411.9652	975.25	86.05
968.781	2413.3508	966.5	80.95
968.911	2414.7358	967.8	82.7
969.041	2416.12	969.6	85.15
969.1709	2417.5035	961.8	79.85
969.3008	2418.8863	968.7	82.15
969.4307	2420.2684	971.5	85.95
969.5606	2421.6497	968.85	82.8
969.6904	2423.0304	965.7	82.15
969.8201	2424.4104	966.1	80.55
969.9499	2425.7896	974.9	85.85
970.0796	2427.1682	964.5	80.85
970.2093	2428.546	968.3	82.15
970.3389	2429.9232	968.2	81.05
970.4685	2431.2996	968	84.85
970.5981	2432.6753	968.15	83.55
970.7277	2434.0503	966.65	82
970.8572	2435.4246	962.25	80.05
970.9867	2436.7982	965.7	80.05
971.1161	2438.1711	966.15	82.35
971.2456	2439.5433	966.65	80.9
971.375	2440.9148	966.6	79.55
971.5043	2442.2856	962.95	80.25
971.6336	2443.6557	966.75	80.3
971.7629	2445.025	963.95	80.5
971.8922	2446.3937	967.45	82.65
972.0214	2447.7617	963	77.65
972.1506	2449.1289	962.3	80.2
972.2798	2450.4955	966.1	79.5
972.4089	2451.8613	961.7	78.35
972.538	2453.2265	962.55	79.45
972.6671	2454.5909	964.75	81.5
972.7961	2455.9546	961.85	77.5
972.9251	2457.3177	963.2	79.8
973.0541	2458.68	961.1	75.4
973.1831	2460.0416	965.45	80.35
973.312	2461.4025	963.15	77.3
973.4408	2462.7627	971.4	74.95
973.5697	2464.1222	953.65	72.85
973.6985	2465.4811	958.7	75
973.8273	2466.8392	960.3	76.95
973.956	2468.1966	958.55	72.7
974.0847	2469.5533	960.75	74.7
974.2134	2470.9093	960.15	76.55
974.3421	2472.2645	964.5	78.95
974.4707	2473.6191	955.85	72.3
974.5993	2474.973	960.85	77.9
974.7278	2476.3262	959.5	74
974.8563	2477.6787	956.25	74.45
974.9848	2479.0305	959.75	79.55
975.1132	2480.3816	961.3	74.75
975.2417	2481.7319	962.15	76.35
975.37	2483.0816	959.55	72.95
975.4984	2484.4306	954.85	71.35
975.6267	2485.7789	958.35	76.35
975.755	2487.1264	957.95	73.05
975.8833	2488.4733	954.2	70.75
976.0115	2489.8195	965.1	74.7
976.1397	2491.165	958.7	72.2
976.2678	2492.5097	959.95	75
976.3959	2493.8538	957.35	74.15
976.524	2495.1972	958.25	75.55
976.6521	2496.5398	959.6	76.65
976.7801	2497.8818	956.15	72.05
976.9081	2499.2231	958.8	75.3
977.036	2500.5637	958.55	74.3
977.164	2501.9035	958.05	74.2
977.2918	2503.2427	962	74.85
977.4197	2504.5812	956.9	71.9
977.5475	2505.919	956.75	71.75
977.6753	2507.256	955.5	71.9
977.8031	2508.5924	955.6	73.45
977.9308	2509.9281	959.9	71.85
978.0585	2511.2631	952	68.45
978.1861	2512.5974	955.1	71.85
978.3137	2513.9309	956.95	75.25
978.4413	2515.2638	977.5	64.8
978.5689	2516.596	955.25	73.25
978.6964	2517.9275	955.1	70.25
978.8239	2519.2583	952.6	70.75
978.9513	2520.5884	951.95	67.15
979.0788	2521.9178	952.7	68.75
979.2062	2523.2465	949.25	67.15
979.3335	2524.5745	952.15	71.3
979.4608	2525.9018	953.25	70.75
979.5881	2527.2284	950.3	68.2
979.7154	2528.5543	952.9	70.35
979.8426	2529.8796	950.15	67.25
979.9698	2531.2041	951.55	69
980.0969	2532.5279	949.05	67.15
980.224	2533.851	949.1	65.05
980.3511	2535.1735	951.35	70.25
980.4781	2536.4952	952.2	70.25
980.6052	2537.8163	952.7	68.6
980.7321	2539.1366	952.35	68.95
980.8591	2540.4562	953.1	68.4
980.986	2541.7752	948.25	61.9
981.1129	2543.0935	947.05	62.25
981.2397	2544.411	949.2	64.25
981.3665	2545.7279	952.7	71.75
981.4933	2547.0441	952.45	68.75
981.62	2548.3596	951.25	64
981.7467	2549.6744	949.2	64.75
981.8734	2550.9885	956.25	63.35
982.0001	2552.3019	949.4	69.15
982.1267	2553.6146	948.45	63.3
982.2532	2554.9266	946.45	62.7
982.3798	2556.2379	950.05	65.5
982.5063	2557.5485	944.9	61.2
982.6327	2558.8585	956.3	67.6
982.7592	2560.1677	952.15	64.25
982.8856	2561.4762	947.85	64.55
983.0119	2562.7841	950.9	64.25
983.1383	2564.0913	945.65	64
983.2646	2565.3977	946.6	63.65
983.3908	2566.7035	948.55	65.2
983.517	2568.0086	950.1	65.9
983.6432	2569.313	949	64.6
983.7694	2570.6167	951.2	63.1
983.8955	2571.9197	946.5	64.55
984.0216	2573.222	951.25	61.3
984.1476	2574.5236	947.05	63.15
984.2737	2575.8246	949.9	64
984.3996	2577.1248	951	66.65
984.5256	2578.4244	945.25	62.4
984.6515	2579.7232	947.85	64
984.7774	2581.0214	972.15	61.25
984.9032	2582.3189	943.25	61.3
985.029	2583.6157	949.75	61.25
985.1548	2584.9118	946.4	64.35
985.2806	2586.2072	943.5	60.6
985.4063	2587.5019	945.1	62.15
985.5319	2588.7959	946.3	61.3
985.6576	2590.0893	948.5	64.05
985.7832	2591.3819	946.85	62.9
985.9087	2592.6739	942.95	59.15
986.0343	2593.9652	947.95	62.4
986.1597	2595.2557	947.2	62.05
986.2852	2596.5456	948.55	63.3
986.4106	2597.8348	944.2	63.1
986.536	2599.1234	946.65	63.25
986.6614	2600.4112	942.5	60.75
986.7867	2601.6983	949.75	63.45
986.912	2602.9848	947.9	66.65
987.0372	2604.2705	953.5	64.1
987.1624	2605.5556	947.8	64.95
987.2876	2606.84	947.1	65.4
987.4128	2608.1237	946.95	62.65
987.5379	2609.4067	945.7	60.95
987.6629	2610.689	953.2	61.4
987.788	2611.9707	946.3	59.95
987.913	2613.2516	947.5	62.1
988.0379	2614.5319	942.85	59.45
988.1629	2615.8115	944.65	58.85
988.2878	2617.0903	944.35	58.6
988.4126	2618.3685	945.35	63.8
988.5375	2619.6461	941	59.6
988.6622	2620.9229	941.15	59.55
988.787	2622.199	943.5	60.65
988.9117	2623.4745	942.3	59
989.0364	2624.7493	942.45	59.1
989.161	2626.0234	940.25	59.8
989.2857	2627.2968	939.7	56.3
989.4102	2628.5695	941.75	58.2
989.5348	2629.8415	938.85	55.9
989.6593	2631.1128	943.7	59.75
989.7837	2632.3835	939.8	55.7
989.9082	2633.6535	939.5	57.45
990.0326	2634.9228	939.4	58.3
990.1569	2636.1914	939.7	57.15
990.2812	2637.4593	940.05	54.1
990.4055	2638.7265	942.45	58.35
990.5298	2639.9931	942.4	60.05
990.654	2641.259	941.55	57.15
990.7782	2642.5242	939.65	56.55
990.9023	2643.7887	938.1	53.4
991.0264	2645.0525	938.35	54.8
991.1505	2646.3156	937.7	53.8
991.2745	2647.5781	940.2	59.4
991.3985	2648.8398	938.05	54.5
991.5225	2650.1009	977.85	56.45
991.6464	2651.3613	941.15	60.2
991.7703	2652.6211	936.3	50.85
991.8942	2653.8801	934.4	52.05
992.018	2655.1385	940.4	54.7
992.1418	2656.3961	935.6	53.55
992.2655	2657.6531	934.35	51.7
992.3892	2658.9094	935.7	55.1
992.5129	2660.1651	935.15	52.55
992.6366	2661.42	936.05	52.8
992.7602	2662.6743	935.65	51.75
992.8837	2663.9279	933.8	51.95
993.0073	2665.1808	936.75	54.3
993.1307	2666.433	935.1	51.05
993.2542	2667.6846	936	56
993.3776	2668.9354	939.7	53.1
993.501	2670.1856	937.2	55.6
993.6244	2671.4351	937.6	54.9
993.7477	2672.6839	939.95	57.5
993.8709	2673.9321	935.1	55.4
993.9942	2675.1795	937.4	55.4
994.1174	2676.4263	939.65	56.25
994.2405	2677.6724	936.35	53.35
994.3637	2678.9179	939.15	58.3
994.4868	2680.1626	937.1	55.65
994.6098	2681.4067	940.9	57.8
994.7328	2682.6501	936.3	54.95
994.8558	2683.8928	935.55	53.45
994.9788	2685.1348	937.9	55.25
995.1017	2686.3761	938.25	56.5
995.2245	2687.6168	937.55	56.55
995.3474	2688.8568	932.45	50.15
995.4702	2690.0961	933	53.8
995.5929	2691.3348	931.7	48.6
995.7156	2692.5727	934.05	49.95
995.8383	2693.81	933.3	52.5
995.961	2695.0466	932.55	51.15
996.0836	2696.2826	936.35	51.75
996.2062	2697.5178	936.65	53.1
996.3287	2698.7524	933.4	50.7
996.4512	2699.9863	936.85	53.9
996.5737	2701.2195	932.45	51.05
996.6961	2702.452	936	52.8
996.8185	2703.6839	937.05	55.65
996.9408	2704.9151	933.25	51
997.0631	2706.1456	934.3	52.2
997.1854	2707.3755	934.75	51.5
997.3077	2708.6046	937.05	52.65
997.4299	2709.8331	934.8	52.2
997.552	2711.0609	937.75	56.3
997.6742	2712.2881	934.55	49.9
997.7963	2713.5145	939.15	56.3
997.9183	2714.7403	935.7	56.4
998.0403	2715.9654	937.45	54.65
998.1623	2717.1899	953.7	57.1
998.2842	2718.4136	937.95	58.65
998.4062	2719.6367	940.3	56.95
998.528	2720.8591	949.45	62.1
998.6498	2722.0809	941.95	60.2
998.7716	2723.3019	944.85	58.5
998.8934	2724.5223	941.9	60.25
999.0151	2725.7421	942.2	60.9
999.1368	2726.9611	943.8	62.1
999.2584	2728.1795	945.55	57.85
999.38	2729.3972	939.25	58.05
999.5016	2730.6142	944.35	53.25
999.6231	2731.8306	937.7	55.05
999.7446	2733.0462	941.25	57.35
999.8661	2734.2612	938.65	55.1
999.9875	2735.4756	936.4	53.6
1000.1089	2736.6892	932.7	50.5
1000.2302	2737.9022	932.6	52.2
1000.3515	2739.1145	932.25	51
1000.4728	2740.3262	941	51.5
1000.594	2741.5372	931	52
1000.7152	2742.7475	931.15	50.1
1000.8363	2743.9571	931.1	47.05
1000.9575	2745.1661	933.95	46.85
1001.0785	2746.3744	929	46.6
1001.1996	2747.582	926.95	44.65
1001.3206	2748.7889	928.45	44.85
1001.4415	2749.9952	924.65	43.8
1001.5625	2751.2008	927.95	46.7
1001.6833	2752.4057	927.7	43.55
1001.8042	2753.61	925.8	44.75
1001.925	2754.8136	923.9	41.45
1002.0458	2756.0165	923.35	41.7
1002.1665	2757.2188	922.95	41.9
1002.2872	2758.4204	922.65	39
1002.4078	2759.6213	927.7	43.35
1002.5285	2760.8215	929.25	42.5
1002.649	2762.0211	924.55	42.15
1002.7696	2763.22	929.5	44.35
1002.8901	2764.4182	924.8	41.75
1003.0106	2765.6158	923.55	43.45
1003.131	2766.8127	924.05	43.3
1003.2514	2768.009	927.1	46.8
1003.3717	2769.2045	923.05	39.9
1003.492	2770.3994	922.25	38.95
1003.6123	2771.5936	925	41.1
1003.7325	2772.7872	923.35	43.5
1003.8527	2773.9801	925.95	42.45
1003.9729	2775.1723	936.65	38.7
1004.093	2776.3639	919.5	39.35
1004.2131	2777.5548	924.15	39
1004.3331	2778.745	923.15	42.05
1004.4531	2779.9346	920.6	41.7
1004.5731	2781.1235	920.5	38.55
1004.693	2782.3117	921.65	40.85
1004.8129	2783.4992	920.6	41.4
1004.9328	2784.6861	920.9	39.2
1005.0526	2785.8723	923.25	39.7
1005.1723	2787.0579	921.65	40.15
1005.2921	2788.2428	920.05	37.8
1005.4118	2789.427	922.7	41.55
1005.5314	2790.6106	920.35	39.8
1005.651	2791.7935	923.15	41.55
1005.7706	2792.9757	922.25	43.65
1005.8902	2794.1573	923.1	37.8
1006.0097	2795.3382	921.45	39.05
1006.1291	2796.5184	921.4	40.6
1006.2485	2797.698	925.55	41.15
1006.3679	2798.8769	924.2	44.1
1006.4873	2800.0551	921.75	42.15
1006.6066	2801.2327	923.95	40.8
1006.7258	2802.4096	923.7	43.85
1006.8451	2803.5859	924.55	42.75
1006.9642	2804.7615	925.5	44
1007.0834	2805.9364	922.8	41.8
1007.2025	2807.1106	924.1	45.35
1007.3216	2808.2842	926.05	44.4
1007.4406	2809.4572	926.45	45.8
1007.5596	2810.6294	929.6	46.9
1007.6785	2811.801	929.5	49.25
1007.7975	2812.972	930.15	50.5
1007.9163	2814.1423	932.6	51.6
1008.0352	2815.3119	936.3	54.55
1008.154	2816.4808	938.4	58.4
1008.2727	2817.6491	941.5	59.85
1008.3914	2818.8167	942.85	64.6
1008.5101	2819.9837	950.15	64.45
1008.6288	2821.15	951.6	70.25
1008.7474	2822.3157	954.9	73.95
1008.8659	2823.4807	964.1	82.65
1008.9844	2824.645	969.35	87.1
1009.1029	2825.8086	977.25	97.8
1009.2214	2826.9716	982.15	101.85
1009.3398	2828.134	991.15	109.5
1009.4581	2829.2957	997.8	118.25
1009.5764	2830.4567	1000.9	120.6
1009.6947	2831.617	1009.1	130.45
1009.813	2832.7767	1007.2	127.4
1009.9312	2833.9358	1007.75	130.35
1010.0493	2835.0941	1010.05	126.4
1010.1675	2836.2519	1005.7	126.05
1010.2855	2837.4089	1003.6	120.45
1010.4036	2838.5653	1000.3	119.7
1010.5216	2839.7211	994.85	115.9
1010.6396	2840.8761	993.8	110.85
1010.7575	2842.0306	990.05	111.25
1010.8754	2843.1843	994.15	115.9
1010.9932	2844.3374	993.45	113
1011.111	2845.4899	997.6	116.45
1011.2288	2846.6417	998.45	118.95
1011.3465	2847.7928	996	116.45
1011.4642	2848.9433	999.3	117.8
1011.5818	2850.0931	999.3	121.4
1011.6995	2851.2422	1002.55	119.7
1011.817	2852.3907	1000.75	119.65
1011.9345	2853.5385	1004.5	122.6
1012.052	2854.6857	1034.35	128.3
1012.1695	2855.8323	1003.4	123.1
1012.2869	2856.9781	1008.25	130.15
1012.4042	2858.1233	1016.25	135.3
1012.5216	2859.2679	1015.4	134.6
1012.6389	2860.4118	1021.15	142.95
1012.7561	2861.555	1027.4	141.05
1012.8733	2862.6976	1026.85	144.4
1012.9905	2863.8395	1027.85	149.4
1013.1076	2864.9808	1029.8	151.1
1013.2247	2866.1214	1029.4	149.45
1013.3417	2867.2614	1029.5	149.8
1013.4587	2868.4007	1034.8	152.4
1013.5757	2869.5393	1037.3	155
1013.6926	2870.6773	1040.65	159.7
1013.8095	2871.8146	1038.9	154.9
1013.9263	2872.9513	1039.25	154.65
1014.0431	2874.0874	1039.9	161
1014.1599	2875.2227	1045.2	164.8
1014.2766	2876.3574	1042.95	164.45
1014.3933	2877.4915	1047.1	168.05
1014.51	2878.6249	1049.05	170.9
1014.6266	2879.7577	1053.65	171.75
1014.7431	2880.8898	1062.85	174.65
1014.8596	2882.0212	1053.15	175.1
1014.9761	2883.152	1055.5	174.3
1015.0925	2884.2821	1062.6	183.55
1015.2089	2885.4116	1057.3	176.75
1015.3253	2886.5405	1062.8	185.1
1015.4416	2887.6686	1067.45	181.65
1015.5579	2888.7962	1065.55	187.55
1015.6741	2889.923	1064.35	184.95
1015.7903	2891.0493	1062.15	183.2
1015.9065	2892.1748	1068.7	188.8
1016.0226	2893.2997	1062.95	181.7
1016.1387	2894.424	1060.45	182.6
1016.2547	2895.5476	1066.8	187.6
1016.3707	2896.6706	1062.7	183.85
1016.4866	2897.7929	1063.85	182.15
1016.6025	2898.9145	1061.25	180.9
1016.7184	2900.0355	1064.9	185.8
1016.8342	2901.1559	1066.35	184.75
1016.95	2902.2756	1066.15	181.95
1017.0658	2903.3946	1059.35	178.9
1017.1815	2904.513	1061.8	179.45
1017.2971	2905.6308	1060.5	181.25
1017.4127	2906.7479	1063.1	182.35
1017.5283	2907.8643	1065.4	183.7
1017.6439	2908.9801	1059.25	180.55
1017.7594	2910.0953	1056.15	177.25
1017.8748	2911.2098	1062.2	178
1017.9902	2912.3236	1063.45	175.75
1018.1056	2913.4368	1061	176.25
1018.2209	2914.5494	1057.05	178.15
1018.3362	2915.6613	1065.3	177.15
1018.4515	2916.7725	1058.05	176.85
1018.5667	2917.8831	1054.25	173.75
1018.6819	2918.9931	1055.8	174.4
1018.797	2920.1024	1051.55	171.6
1018.9121	2921.211	1043.95	164.4
1019.0271	2922.319	1042.95	162.9
1019.1421	2923.4264	1040.95	162.6
1019.2571	2924.5331	1038.1	158.6
1019.372	2925.6391	1039.95	161.3
1019.4869	2926.7445	1037.9	158.1
1019.6017	2927.8493	1039	160.5
1019.7165	2928.9534	1039.35	158.9
1019.8313	2930.0569	1041	159.2
1019.946	2931.1597	1042.4	159.4
1020.0606	2932.2619	1045.1	164.85
1020.1753	2933.3634	1045.25	166.2
1020.2899	2934.4643	1054.75	167
1020.4044	2935.5645	1055.15	169.95
1020.5189	2936.6641	1051.4	167.8
1020.6334	2937.763	1050.25	171.6
1020.7478	2938.8613	1049.65	171
1020.8622	2939.959	1050.8	167.25
1020.9765	2941.056	1046.6	167.7
1021.0908	2942.1523	1034.2	155.15
1021.2051	2943.248	1034.5	155.55
1021.3193	2944.3431	1021.25	142
1021.4334	2945.4375	1012.6	132.2
1021.5476	2946.5313	1007.7	132.35
1021.6617	2947.6244	999.3	119.85
1021.7757	2948.7169	998.25	117.5
1021.8897	2949.8087	988.05	109.65
1022.0037	2950.8999	986.3	107.3
1022.1176	2951.9904	976.65	95.75
1022.2315	2953.0803	972.55	92.2
1022.3453	2954.1696	965.15	84.45
1022.4591	2955.2582	966.3	86.6
1022.5728	2956.3462	966.55	88.55
1022.6865	2957.4335	964.9	82.85
1022.8002	2958.5202	964.7	82.3
1022.9138	2959.6062	962.55	83.85
1023.0274	2960.6916	963.55	86.2
1023.141	2961.7764	961.05	82.65
1023.2545	2962.8605	963.75	83.7
1023.3679	2963.9439	962.65	84
1023.4813	2965.0267	963.05	82.1
1023.5947	2966.1089	988	87.95
1023.708	2967.1905	962.25	81.3
1023.8213	2968.2714	960.5	81.3
1023.9346	2969.3516	958.55	79.8
1024.0478	2970.4312	967.75	79.85
1024.1609	2971.5102	960.6	82.4
1024.274	2972.5885	956.9	79.45
1024.3871	2973.6662	965.1	79.6
1024.5002	2974.7432	958.9	80.85
1024.6132	2975.8196	959.05	78.15
1024.7261	2976.8954	958.5	78.05
1024.839	2977.9705	958.45	78.45
1024.9519	2979.045	958.55	80.4
1025.0647	2980.1188	961.7	82.4
1025.1775	2981.192	957.35	80.25
1025.2902	2982.2645	959.75	79.85
1025.4029	2983.3364	953.1	75.7
1025.5156	2984.4077	952.3	72.7
1025.6282	2985.4783	957.4	72.95
1025.7407	2986.5483	946.35	67
1025.8532	2987.6177	946.45	67
1025.9657	2988.6864	946	66.8
1026.0782	2989.7545	941.05	58.65
1026.1906	2990.8219	940.5	62.35
1026.3029	2991.8887	941.45	60
1026.4152	2992.9548	936.95	56.15
1026.5275	2994.0204	929.65	52.9
1026.6397	2995.0852	927.75	50.25
1026.7519	2996.1495	932.3	50.7
1026.864	2997.2131	923.9	44.5
1026.9761	2998.276	922	43.2
1027.0882	2999.3383	923.2	42.2
1027.2002	3000.4	919.3	39.5
1027.3122	3001.4611	918.55	39.85
1027.4241	3002.5215	914.85	37.5
1027.536	3003.5812	912.65	33.9
1027.6478	3004.6404	913.45	36.75
1027.7596	3005.6989	912.35	33.2
1027.8714	3006.7567	911.65	34.05
1027.9831	3007.8139	939.3	32.2
1028.0947	3008.8705	909.85	30
1028.2064	3009.9264	912.1	29.5
1028.3179	3010.9818	909.25	29.9
1028.4295	3012.0364	910.05	30.5
1028.541	3013.0905	905.7	25.75
1028.6524	3014.1439	906.5	28.9
1028.7638	3015.1966	908.05	30.95
1028.8752	3016.2487	906.1	29
1028.9865	3017.3002	913.3	28
1029.0978	3018.3511	903.35	28.95
1029.209	3019.4013	902.65	23.2
1029.3202	3020.4509	904.4	26.4
1029.4314	3021.4998	904.5	24.95
1029.5425	3022.5481	909.35	29.8
1029.6535	3023.5958	905.45	25.85
1029.7645	3024.6428	904.65	26.2
1029.8755	3025.6892	903.7	26.85
1029.9864	3026.735	904.95	26
1030.0973	3027.7802	905.45	25.6
1030.2082	3028.8247	902.75	25.25
1030.319	3029.8685	904.4	25.95
1030.4297	3030.9118	904.9	25.4
1030.5404	3031.9544	902.9	24.4
1030.6511	3032.9963	903.4	23.95
1030.7617	3034.0376	904.4	26.55
1030.8723	3035.0783	907	27.3
1030.9829	3036.1184	906.5	28.35
1031.0934	3037.1578	902.25	24.65
1031.2038	3038.1966	905.65	27.25
1031.3142	3039.2348	902.15	24.35
1031.4246	3040.2723	915.05	27.7
1031.5349	3041.3092	902	24.7
1031.6452	3042.3455	903.85	25.6
1031.7554	3043.3811	903.3	24.2
1031.8656	3044.4161	905.5	26.05
1031.9758	3045.4505	903.4	27.95
1032.0859	3046.4842	904.15	25.05
1032.1959	3047.5173	901	24.05
1032.3059	3048.5498	905.45	27.4
1032.4159	3049.5816	903.8	26.75
1032.5258	3050.6128	904.95	27.6
1032.6357	3051.6434	905.85	24.9
1032.7455	3052.6734	906.7	28.7
1032.8553	3053.7027	905.35	26.65
1032.9651	3054.7314	904.8	25.8
1033.0748	3055.7594	901.85	24.35
1033.1845	3056.7868	905.4	25.75
1033.2941	3057.8136	906.55	29.5
1033.4037	3058.8398	903.35	26.65
1033.5132	3059.8653	901.85	23.6
1033.6227	3060.8902	904.5	27.6
1033.7321	3061.9145	905.95	27
1033.8415	3062.9381	907.65	29.8
1033.9509	3063.9612	923.55	30.15
1034.0602	3064.9835	906.75	28.45
1034.1694	3066.0053	906.9	24.5
1034.2787	3067.0264	905.05	26.05
1034.3878	3068.0469	907.6	28.35
1034.497	3069.0668	906.2	27.15
1034.6061	3070.086	906.65	29.4
1034.7151	3071.1046	905.8	25.55
1034.8241	3072.1226	907.7	28.35
1034.9331	3073.1399	905.2	26.95
1035.042	3074.1567	902.95	24.65
1035.1508	3075.1727	905.85	27.25
1035.2597	3076.1882	902.65	25.55
1035.3684	3077.203	901.9	25.55
1035.4772	3078.2173	904.25	24.45
1035.5859	3079.2308	906.9	23.25
1035.6945	3080.2438	904.4	24.45
1035.8031	3081.2561	898.7	21.35
1035.9117	3082.2678	897.5	19.75
1036.0202	3083.2789	900.45	19.8
1036.1286	3084.2893	898.7	20.7
1036.2371	3085.2991	897.85	18.75
1036.3454	3086.3083	901.35	18.3
1036.4538	3087.3169	899.6	20.9
1036.562	3088.3248	899.6	19.2
1036.6703	3089.3321	899.9	21.9
1036.7785	3090.3388	896.95	18.8
1036.8866	3091.3449	899.75	22.15
1036.9948	3092.3503	897.9	16.4
1037.1028	3093.3551	894.8	19.7
1037.2108	3094.3593	896	18.2
1037.3188	3095.3629	897.35	19.35
1037.4267	3096.3658	897.7	18.25
1037.5346	3097.3681	895.15	17.35
1037.6425	3098.3698	898.8	18.7
1037.7503	3099.3708	897.75	19.8
1037.858	3100.3713	895.25	18.65
1037.9657	3101.3711	895.6	16.65
1038.0734	3102.3702	1030	18.3
1038.181	3103.3688	897.65	18.3
1038.2886	3104.3667	892.55	16.15
1038.3961	3105.364	893.55	15.95
1038.5036	3106.3607	894.85	15.6
1038.611	3107.3568	894.1	14.45
1038.7184	3108.3522	893	16.15
1038.8257	3109.347	893.9	16.1
1038.933	3110.3412	896.8	15.05
1039.0403	3111.3348	892.55	14.3
1039.1475	3112.3277	894.65	16
1039.2547	3113.32	891.6	15
1039.3618	3114.3117	894.6	16.15
1039.4689	3115.3028	892.1	13.7
1039.5759	3116.2932	895.9	16
1039.6829	3117.2831	899.15	16.85
1039.7898	3118.2723	891.8	12
1039.8967	3119.2608	890.35	13.25
1040.0035	3120.2488	892.65	14.5
1040.1103	3121.2361	892.4	13.3
1040.2171	3122.2229	889.9	14.15
1040.3238	3123.209	891.8	14
1040.4305	3124.1944	890.4	13.9
1040.5371	3125.1793	891.65	13.3
1040.6437	3126.1635	890.8	14.3
1040.7502	3127.1471	891.2	12.4
1040.8567	3128.1301	890.75	11.9
1040.9631	3129.1125	889.65	12.4
1041.0695	3130.0942	891.8	15.65
1041.1759	3131.0753	899.45	14.55
1041.2822	3132.0558	891.1	10.25
1041.3884	3133.0357	889.55	11.3
1041.4946	3134.015	891.4	13.1
1041.6008	3134.9936	889.45	7.4
1041.7069	3135.9716	907.05	9.6
1041.813	3136.949	888.75	12.45
1041.919	3137.9258	906.7	12.95
1042.025	3138.902	895	13.25
1042.1309	3139.8775	887.55	9.6
1042.2368	3140.8524	887.1	9
1042.3427	3141.8267	890.55	10.95
1042.4485	3142.8004	886.85	7.7
1042.5542	3143.7735	896.4	12.35
1042.6599	3144.7459	890.75	9.75
1042.7656	3145.7178	887.75	7.85
1042.8712	3146.689	887.4	11.15
1042.9768	3147.6596	890.45	10.35
1043.0823	3148.6295	887.1	9.4
1043.1878	3149.5989	887	8.4
1043.2932	3150.5676	885.75	9.5
1043.3986	3151.5357	886.35	10.85
1043.5039	3152.5032	885.1	8.25
1043.6092	3153.4701	886.95	10.55
1043.7145	3154.4364	889.6	12
1043.8197	3155.402	888.3	11.55
1043.9248	3156.367	889.5	11.05
1044.03	3157.3315	931.15	12.05
1044.135	3158.2952	889.4	10.35
1044.24	3159.2584	884.95	5.7
1044.345	3160.221	887.35	6.8
1044.4499	3161.1829	887.6	10
1044.5548	3162.1442	885.45	8.25
1044.6596	3163.105	887.4	8.35
1044.7644	3164.065	886.75	10.4
1044.8692	3165.0245	888.85	9.5
1044.9739	3165.9834	886.3	7.45
1045.0785	3166.9416	887.4	10.4
1045.1831	3167.8993	888.1	9.4
1045.2877	3168.8563	887.9	9.4
1045.3922	3169.8127	888.2	10.2
1045.4966	3170.7684	885	7.45
1045.6011	3171.7236	887.45	10.6
1045.7054	3172.6782	885.4	8
1045.8098	3173.6321	886.65	6.45
1045.914	3174.5854	892.05	12.25
1046.0183	3175.5381	885.2	8.5
1046.1224	3176.4902	885.4	8.7
1046.2266	3177.4417	884.85	6.65
1046.3307	3178.3926	884.95	8.15
1046.4347	3179.3428	886.8	10.5
1046.5387	3180.2924	884.9	6.4
1046.6427	3181.2415	888.4	8.85
1046.7466	3182.1899	887.1	9.7
1046.8504	3183.1377	887.35	8.95
1046.9542	3184.0848	887.8	6.3
1047.058	3185.0314	884.6	6.45
1047.1617	3185.9773	887.2	9.55
1047.2654	3186.9227	886.6	9.6
1047.369	3187.8674	884.45	6.1
1047.4726	3188.8115	889.95	6.7
1047.5761	3189.755	886.1	8.25
1047.6796	3190.6979	884.3	7.7
1047.783	3191.6402	885.1	7.4
1047.8864	3192.5818	884.1	6.85
1047.9898	3193.5229	908.05	5.6
1048.0931	3194.4633	885.55	9
1048.1963	3195.4031	886.2	8.4
1048.2995	3196.3423	884.8	8.7
1048.4027	3197.2809	884.1	7.6
1048.5058	3198.2189	886.35	8.5
1048.6089	3199.1563	892.15	9.75
1048.7119	3200.0931	885.15	8.1
1048.8148	3201.0292	883.65	7.5
1048.9178	3201.9648	884.7	8
1049.0206	3202.8997	887.8	7.35
1049.1235	3203.834	883.95	6.65
1049.2262	3204.7677	885.4	7.2
1049.329	3205.7008	886.75	7.45
1049.4317	3206.6333	883.9	6.4
1049.5343	3207.5652	886.3	6.2
1049.6369	3208.4964	883.95	7.2
1049.7394	3209.4271	883.1	4.35
1049.8419	3210.3571	883.15	6.45
1049.9444	3211.2865	886.15	9.35
1050.0468	3212.2154	885.05	3.9
1050.1491	3213.1436	889.35	9.6
1050.2514	3214.0712	892.1	5.75
1050.3537	3214.9982	884.95	9.25
1050.4559	3215.9246	885.35	7.05
1050.5581	3216.8503	883.35	7.15
1050.6602	3217.7755	884.7	6.95
1050.7623	3218.7001	882.5	4.05
1050.8643	3219.624	886.3	8.1
1050.9663	3220.5473	882.75	5.95
1051.0682	3221.4701	886.75	8.6
1051.1701	3222.3922	885.05	6.75
1051.2719	3223.3137	884	6.15
1051.3737	3224.2346	882.2	5.8
1051.4754	3225.1549	881.85	4.3
1051.5771	3226.0746	882.75	6.9
1051.6788	3226.9937	882.25	3.85
1051.7804	3227.9121	883.3	5.9
1051.8819	3228.83	884.3	6.15
1051.9834	3229.7473	882.55	3.45
1052.0849	3230.6639	884.15	5.7
1052.1863	3231.5799	884.95	8.55
1052.2876	3232.4954	883.95	7.05
1052.3889	3233.4102	883.85	8.6
1052.4902	3234.3244	884.15	5.6
1052.5914	3235.238	884	6.7
1052.6926	3236.151	908.15	5.8
1052.7937	3237.0634	883.95	10.3
1052.8948	3237.9752	883.9	5.8
1052.9958	3238.8864	881.9	4.1
1053.0968	3239.797	883.7	8.65
1053.1977	3240.7069	885.15	7.3
1053.2986	3241.6163	885.5	6.65
1053.3994	3242.5251	883.65	7.9
1053.5002	3243.4332	882.5	5.75
1053.6009	3244.3408	883.5	3.3
1053.7016	3245.2477	881.25	3.35
1053.8022	3246.154	882.9	5.65
1053.9028	3247.0598	883.1	4.2
1054.0034	3247.9649	884.7	8.65
1054.1039	3248.8694	882.25	3.85
1054.2043	3249.7733	883.2	5.55
1054.3047	3250.6766	882.65	5.95
1054.4051	3251.5793	885.2	6.7
1054.5054	3252.4814	883.15	6.2
1054.6056	3253.3829	882.55	5.9
1054.7058	3254.2838	883.65	7.75
1054.806	3255.1841	882.3	5.25
1054.9061	3256.0838	883	7.25
1055.0061	3256.9829	882.15	2.9
1055.1062	3257.8814	885.55	5.2
1055.2061	3258.7792	882.05	0.85
1055.306	3259.6765	885.3	7
1055.4059	3260.5731	881.85	3.65
1055.5057	3261.4692	884.8	6.35
1055.6055	3262.3647	882.5	5.2
1055.7052	3263.2595	883.05	6.8
1055.8049	3264.1538	879.6	2.85
1055.9045	3265.0474	883.4	6.45
1056.0041	3265.9404	880	2.95
1056.1036	3266.8329	881.45	4.1
1056.2031	3267.7247	891.3	4.45
1056.3025	3268.616	879.45	5.05
1056.4019	3269.5066	881.65	4.1
1056.5013	3270.3966	882.6	4.05
1056.6005	3271.286	880.5	2.35
