Software Version:	3.9.2.0
Unit SN:	10000200
Spectrometer SN:	6960
Date:	3/8/2024 1:21:00 PM
Data Line Index:	25
Spectral Points:	2048
Integration time (ms):	125
Averages:	20
Delay (ms):	30000
Sequence Number:	1
Processing:	dark subtract
Laser Power (mW):	300
Laser Current (mA):	823
Laser Diode Temp (C):	25
Laser Case Temp (C):	26.2
System Temp (C):	26.1
Spectrometer Temp (C):	24
CCD Temp (C):	0.007
Secondary Temp (C):	20.01
Heatsink Temp (C):	21.173
CCDPCB Temp (C):	35.929
SecondaryPCB Temp (C):	30.482

Wavelength	RamanShift	Raw Counts	Dark Subtracted
787.061	30.1047	455.5	48.2
787.2016	32.3739	452.9	47.3
787.3422	34.6426	458.35	50.25
787.4828	36.9109	463.55	54.8
787.6235	39.1787	471.1	57.15
787.7642	41.4461	482.75	63.8
787.9049	43.7131	491.15	71.2
788.0456	45.9796	500.1	75.35
788.1863	48.2456	504.25	77.25
788.3271	50.5112	517.4	86.3
788.4679	52.7764	525.2	89.6
788.6087	55.0411	537.45	98.95
788.7496	57.3054	546.4	101.5
788.8904	59.5692	557.1	110.35
789.0313	61.8326	564.45	115.8
789.1722	64.0955	575.9	122.55
789.3132	66.3579	590.65	131.6
789.4541	68.6199	610.55	150.05
789.5951	70.8815	645.65	180.2
789.7361	73.1426	724.9	256.1
789.8771	75.4032	928.3	454.9
790.0181	77.6634	1415.5	936.55
790.1592	79.9231	2548.15	2059.85
790.3003	82.1824	5013.65	4505.45
790.4414	84.4412	9462.55	8924.75
790.5825	86.6995	15499.2	14919.9
790.7237	88.9574	21417.7	20798.95
790.8648	91.2148	25517.85	24880.25
791.006	93.4717	27405.75	26749.8
791.1472	95.7282	27662.65	27000.25
791.2885	97.9842	27483.1	26817.85
791.4297	100.2398	26879.95	26207.65
791.571	102.4949	26160.95	25486.8
791.7123	104.7495	25344.25	24667.35
791.8536	107.0036	24493.6	23819.9
791.9949	109.2573	23687.4	23013.2
792.1363	111.5105	22945.8	22262.4
792.2777	113.7632	22230	21545.7
792.4191	116.0154	21596.1	20906.5
792.5605	118.2672	21155.65	20469.6
792.7019	120.5185	20708.2	20017.25
792.8434	122.7693	20365.4	19672
792.9849	125.0197	20051.45	19356.2
793.1264	127.2696	19752.2	19053.55
793.2679	129.519	19562.9	18860.3
793.4094	131.7679	19348.3	18639.2
793.551	134.0163	19137.05	18426.05
793.6926	136.2642	18865.8	18158.85
793.8342	138.5117	18569.8	17856
793.9758	140.7587	18337.6	17619.15
794.1175	143.0052	18037.5	17321.55
794.2591	145.2512	17781.6	17064.35
794.4008	147.4967	17538.65	16822.9
794.5425	149.7417	17315.35	16590.35
794.6842	151.9863	17182.5	16458.25
794.826	154.2304	17115.8	16385.05
794.9677	156.4739	16964.25	16230.65
795.1095	158.717	16862.75	16126.85
795.2513	160.9596	16702.1	15962.75
795.3931	163.2017	16460.5	15711.2
795.535	165.4433	16185.2	15438.1
795.6768	167.6844	15852.55	15109.15
795.8187	169.925	15474.85	14725.3
795.9606	172.1651	15126.05	14376.3
796.1025	174.4047	14863.2	14110.75
796.2445	176.6439	14579.6	13824.5
796.3864	178.8825	14374.8	13613.55
796.5284	181.1206	14230.2	13463.6
796.6704	183.3582	14053.65	13284.85
796.8124	185.5954	13929.45	13155.55
796.9544	187.832	13840.7	13068.8
797.0965	190.0681	13812.85	13039.1
797.2386	192.3037	13798.85	13017.35
797.3806	194.5388	13811.4	13024.4
797.5228	196.7734	13844.15	13058.85
797.6649	199.0075	13888.35	13097.45
797.807	201.2411	14021.6	13229.65
797.9492	203.4742	14120.2	13327.6
798.0914	205.7068	14230.1	13436.9
798.2336	207.9389	14342.7	13551.45
798.3758	210.1704	14504.75	13714.3
798.518	212.4015	14586.4	13807.55
798.6603	214.632	14815.5	14043.25
798.8025	216.862	14949.5	14178.9
798.9448	219.0915	15112.2	14336.95
799.0871	221.3205	15279.1	14499.95
799.2294	223.549	15468.3	14690.5
799.3718	225.777	15704.55	14930.7
799.5141	228.0044	15974.05	15194.25
799.6565	230.2314	16357.5	15576.7
799.7989	232.4578	16649.2	15869.55
799.9413	234.6837	16953.45	16163.9
800.0837	236.909	17131.75	16335.9
800.2262	239.1339	17133.85	16311.8
800.3687	241.3582	16957.85	16158.15
800.5111	243.582	16702.85	15870.35
800.6536	245.8053	16447.15	15626.15
800.7961	248.0281	16181.8	15365.4
800.9387	250.2503	16005.45	15187.1
801.0812	252.472	15916.05	15091.9
801.2238	254.6932	15958.3	15139.8
801.3664	256.9139	15943.2	15121.85
801.509	259.134	15990.55	15163.65
801.6516	261.3536	16080.3	15255.65
801.7942	263.5727	16223.25	15393.6
801.9369	265.7912	16270.7	15442.5
802.0795	268.0092	16352.45	15529.2
802.2222	270.2267	16428.7	15601.65
802.3649	272.4436	16455.4	15626.9
802.5076	274.6601	16392.45	15554.15
802.6504	276.8759	16284.35	15452.1
802.7931	279.0913	16246.75	15415
802.9359	281.3061	16170.85	15339.05
803.0787	283.5204	16132.55	15293.65
803.2215	285.7341	16163.55	15318
803.3643	287.9473	16300.9	15449.4
803.5071	290.16	16506.85	15661.45
803.6499	292.3721	16725.3	15886.7
803.7928	294.5837	17064.15	16224.75
803.9357	296.7947	17394.65	16554.2
804.0786	299.0052	17588.95	16745.6
804.2215	301.2152	17505.85	16662.35
804.3644	303.4246	17213	16373.95
804.5074	305.6334	16723.7	15884.7
804.6503	307.8418	16206.75	15362.05
804.7933	310.0495	15757.95	14913.85
804.9363	312.2568	15428.75	14581.4
805.0793	314.4635	15163.55	14317.8
805.2223	316.6696	15001.95	14153.65
805.3653	318.8752	14902.05	14039
805.5084	321.0802	14903.35	14052.3
805.6514	323.2847	15014.4	14154.3
805.7945	325.4887	15033.9	14177.5
805.9376	327.692	15006.5	14149.65
806.0807	329.8949	14932.5	14070.7
806.2238	332.0972	14683.85	13824.85
806.367	334.2989	14414.45	13545.5
806.5101	336.5001	14144.7	13283.3
806.6533	338.7007	13956.3	13094.1
806.7965	340.9008	13803.45	12939.1
806.9397	343.1003	13681.45	12816
807.0829	345.2992	13577.45	12713.65
807.2261	347.4976	13531.25	12665.4
807.3693	349.6955	13500.35	12627.95
807.5126	351.8927	13568.8	12695.45
807.6559	354.0895	13572.15	12686.55
807.7991	356.2856	13602.6	12725.05
807.9424	358.4812	13532.55	12660.35
808.0857	360.6763	13555.35	12675.8
808.2291	362.8707	13556.3	12678.35
808.3724	365.0646	13584.5	12705.45
808.5158	367.258	13632.15	12753
808.6591	369.4508	13661.85	12777.6
808.8025	371.643	13736.3	12847.05
808.9459	373.8346	13776.6	12889
809.0893	376.0257	13763.7	12870.4
809.2327	378.2162	13755.1	12867.3
809.3762	380.4062	13672.3	12781.95
809.5196	382.5956	13537.1	12651.8
809.6631	384.7844	13427.45	12549.15
809.8066	386.9726	13297.4	12417.9
809.9501	389.1603	13256.85	12378.8
810.0936	391.3474	13237.2	12329.05
810.2371	393.5339	13211.4	12328.65
810.3806	395.7199	13158.7	12276.4
810.5241	397.9052	13154.15	12276.55
810.6677	400.09	13204.5	12325.4
810.8113	402.2743	13306.3	12427.15
810.9548	404.4579	13422.35	12544.65
811.0984	406.641	13592.05	12711.3
811.2421	408.8235	13793.4	12909.15
811.3857	411.0054	14045.5	13163.25
811.5293	413.1868	14399.55	13506
811.673	415.3675	14666.4	13773.85
811.8166	417.5477	14808.55	13918.2
811.9603	419.7273	14857.35	13962.85
812.104	421.9064	14772	13874.1
812.2477	424.0848	14625.5	13733.3
812.3914	426.2627	14437.6	13544.65
812.5351	428.4399	14147.15	13250.4
812.6788	430.6166	13799.1	12899
812.8226	432.7928	13480.4	12581.95
812.9663	434.9683	13139.6	12238.65
813.1101	437.1432	12930.8	12039.3
813.2539	439.3176	12736.3	11843.65
813.3977	441.4914	12619.1	11735.15
813.5415	443.6645	12598.6	11709.8
813.6853	445.8371	12536.95	11646.4
813.8291	448.0091	12484.25	11587.65
813.973	450.1806	12485.55	11593.6
814.1168	452.3514	12451.45	11561.65
814.2607	454.5216	12457.05	11556.55
814.4046	456.6913	12426.6	11533.85
814.5485	458.8603	12481.1	11589.15
814.6924	461.0288	12497.4	11612.75
814.8363	463.1967	12519.2	11635.6
814.9802	465.3639	12625.05	11737.15
815.1241	467.5306	12683.5	11792.45
815.2681	469.6967	12799.7	11906.35
815.412	471.8622	12893.1	12007.25
815.556	474.0271	12990.75	12098.6
815.7	476.1914	13061.1	12164.25
815.844	478.3551	13064.6	12166.5
815.988	480.5182	13055.7	12161.5
816.132	482.6807	13093.15	12209.95
816.276	484.8426	13216.15	12340.3
816.4201	487.0039	13506.55	12624.35
816.5641	489.1647	13902.95	13007.35
816.7082	491.3248	14270.6	13373.35
816.8522	493.4843	14455.45	13565.35
816.9963	495.6432	14434	13541.3
817.1404	497.8015	14358.2	13452.3
817.2845	499.9592	14327.05	13415.55
817.4286	502.1163	14213.95	13306.15
817.5727	504.2728	13957.5	13057
817.7168	506.4287	13666.2	12782.1
817.861	508.5839	13264.6	12378.3
818.0051	510.7386	12966.1	12070.85
818.1493	512.8927	12814.2	11905.45
818.2935	515.0461	12730.9	11825
818.4377	517.199	12732.15	11825.25
818.5818	519.3512	12822	11916.7
818.726	521.5029	12949.5	12042.65
818.8703	523.6539	13093.25	12190.05
819.0145	525.8043	13142.45	12234.15
819.1587	527.9541	13121.5	12211.6
819.303	530.1033	13026.6	12121.1
819.4472	532.2519	12994.65	12088.9
819.5915	534.3999	13111.3	12202.95
819.7357	536.5472	13309.9	12406.15
819.88	538.694	13663.5	12764.05
820.0243	540.8401	14170	13262.7
820.1686	542.9856	14559.2	13644.2
820.3129	545.1305	14707.05	13782.75
820.4572	547.2748	14585.9	13660.35
820.6016	549.4185	14289.9	13363.05
820.7459	551.5615	14001.6	13076.95
820.8902	553.704	13904.25	12983.7
821.0346	555.8458	13863.25	12942.15
821.1789	557.987	13952.15	13036.85
821.3233	560.1276	14016.75	13097.5
821.4677	562.2675	14163.15	13244.5
821.6121	564.4069	14371.7	13449.25
821.7565	566.5456	14545.55	13629.3
821.9009	568.6837	14560.95	13644.75
822.0453	570.8212	14214.05	13301
822.1897	572.958	13772.55	12857.35
822.3342	575.0942	13343.45	12430.45
822.4786	577.2299	13078.75	12166.15
822.6231	579.3648	12975.9	12081.3
822.7675	581.4992	13008.05	12123.05
822.912	583.6329	13186.45	12303.3
823.0565	585.766	13400.5	12509.9
823.201	587.8985	13517.6	12617.85
823.3454	590.0304	13549.8	12617.85
823.4899	592.1616	13515.45	12594.35
823.6345	594.2922	13368.5	12448.7
823.779	596.4222	13212.9	12291.15
823.9235	598.5515	13037.4	12109.05
824.068	600.6802	12875.15	11950.5
824.2126	602.8083	12683.8	11762.5
824.3571	604.9358	12666.15	11744.8
824.5017	607.0626	12659.8	11733.9
824.6462	609.1888	12650.95	11724.15
824.7908	611.3144	12701.1	11771.45
824.9354	613.4393	12637.6	11706.2
825.08	615.5636	12627.45	11699.7
825.2246	617.6873	12556.9	11629.4
825.3692	619.8103	12488.7	11560.15
825.5138	621.9327	12369.45	11445.7
825.6584	624.0544	12299.4	11377.2
825.803	626.1756	12211.55	11290.8
825.9477	628.2961	12111.6	11187.05
826.0923	630.4159	12071.85	11146.65
826.237	632.5351	12019.45	11091.4
826.3816	634.6537	11985.75	11055.95
826.5263	636.7716	11980.35	11049.1
826.6709	638.8889	12009.35	11071.35
826.8156	641.0056	12029.1	11094.45
826.9603	643.1216	12013.1	11078.85
827.105	645.237	12004.45	11072.05
827.2497	647.3518	11945.9	11023.05
827.3944	649.4659	11932.7	11009.7
827.5391	651.5793	11947.3	11029.05
827.6838	653.6922	11934.45	11010.1
827.8285	655.8043	11905.05	10979.45
827.9733	657.9159	11870.6	10944.85
828.118	660.0268	11844.85	10919.95
828.2627	662.137	11811.8	10881.9
828.4075	664.2466	11840.95	10904.8
828.5522	666.3556	11786.85	10851.75
828.697	668.4639	11739.5	10810
828.8418	670.5716	11763.2	10839.05
828.9865	672.6786	11812.5	10881.5
829.1313	674.785	11874.85	10940.35
829.2761	676.8907	11903.85	10974.45
829.4209	678.9958	11956.7	11031.75
829.5657	681.1002	11930.5	10997.8
829.7105	683.204	11913.6	10968.4
829.8553	685.3072	11888.45	10950.55
830.0001	687.4097	11823.3	10892.85
830.1449	689.5115	11789.7	10854.4
830.2898	691.6127	11767.4	10835.45
830.4346	693.7132	11724.8	10795.75
830.5794	695.8131	11715.55	10766.3
830.7243	697.9123	11695.75	10758.2
830.8691	700.0109	11700.75	10758
831.014	702.1089	11685	10746.65
831.1588	704.2061	11706.45	10768.65
831.3037	706.3028	11747.4	10805.95
831.4486	708.3987	11814.55	10874.1
831.5935	710.4941	11867.25	10931.6
831.7383	712.5887	11997.7	11058.3
831.8832	714.6827	12200.8	11256.4
832.0281	716.7761	12490.65	11559.1
832.173	718.8688	12805.45	11870.8
832.3179	720.9608	12980.05	12034.8
832.4628	723.0522	13077.05	12129.1
832.6077	725.1429	12971.05	12028.75
832.7527	727.233	12820.1	11878.75
832.8976	729.3224	12662	11722.65
833.0425	731.4112	12438.7	11500.3
833.1874	733.4993	12277.05	11334.8
833.3324	735.5867	12094.95	11155.8
833.4773	737.6735	11960	11019.9
833.6222	739.7596	11860.05	10917.65
833.7672	741.845	11780.05	10842.2
833.9122	743.9298	11747.3	10805.6
834.0571	746.014	11721.4	10780.9
834.2021	748.0974	11717.25	10768.5
834.347	750.1802	11739.75	10787.25
834.492	752.2624	11779	10836.45
834.637	754.3439	11818.25	10871.6
834.782	756.4247	11905.4	10950.2
834.9269	758.5048	12014.45	11065
835.0719	760.5843	12283.3	11336.4
835.2169	762.6631	12629.2	11679.25
835.3619	764.7413	13132.7	12187.65
835.5069	766.8188	13748.7	12795.35
835.6519	768.8956	14264.9	13314.55
835.7969	770.9718	14565.1	13615.6
835.9419	773.0473	14444.15	13497.55
836.0869	775.1221	14154.65	13209.75
836.232	777.1962	13808.55	12864.15
836.377	779.2697	13660.4	12709
836.522	781.3426	13671.8	12709.8
836.667	783.4147	13885.8	12936.25
836.8121	785.4862	14120.7	13171.05
836.9571	787.557	14095.8	13145.7
837.1021	789.6271	13693.55	12742.75
837.2472	791.6966	13154.65	12202.75
837.3922	793.7654	12588.65	11637.35
837.5373	795.8335	12249.9	11298.5
837.6823	797.901	12002.6	11053.8
837.8274	799.9678	11906.35	10955.8
837.9724	802.0339	11888.35	10935.6
838.1175	804.0993	11898.65	10935.85
838.2626	806.1641	11870.15	10918.15
838.4076	808.2282	11825.35	10875.55
838.5527	810.2916	11747.55	10796.05
838.6978	812.3544	11654.15	10706.85
838.8428	814.4164	11561.9	10613.65
838.9879	816.4778	11601.2	10646.95
839.133	818.5385	11620.95	10665.85
839.2781	820.5986	11736.85	10784.05
839.4232	822.658	11874.2	10921.05
839.5682	824.7166	12061.4	11108.6
839.7133	826.7747	12376.35	11422.9
839.8584	828.832	12698	11743.8
840.0035	830.8886	12937	11981.95
840.1486	832.9446	13078.05	12122.25
840.2937	834.9999	13036.05	12081.95
840.4388	837.0545	12957.8	12003.25
840.5839	839.1085	12810	11858.8
840.729	841.1618	12689.45	11729
840.8741	843.2143	12589.4	11632.9
841.0192	845.2662	12455.65	11499.95
841.1643	847.3175	12396.15	11441.7
841.3095	849.368	12240.2	11283.9
841.4546	851.4179	12152.55	11198
841.5997	853.467	12040.65	11088.9
841.7448	855.5155	11969.55	11014.85
841.8899	857.5633	11860.3	10905.75
842.0351	859.6105	11803.85	10848.7
842.1802	861.6569	11720.55	10762.35
842.3253	863.7027	11644.75	10684.5
842.4704	865.7478	11619.8	10661.9
842.6156	867.7922	11642.2	10688.25
842.7607	869.8359	11673.9	10716.2
842.9058	871.8789	11727.25	10767.2
843.0509	873.9212	11883.9	10896
843.1961	875.9629	12005.15	11049
843.3412	878.0039	12176.3	11216.7
843.4863	880.0441	12250.75	11299.7
843.6315	882.0837	12260.85	11304.05
843.7766	884.1226	12248.55	11291.15
843.9218	886.1609	12195.2	11240.7
844.0669	888.1984	12157.7	11197.55
844.212	890.2352	12201.3	11247.8
844.3572	892.2714	12182.9	11218.45
844.5023	894.3069	12137.4	11177.4
844.6475	896.3416	12037	11078.25
844.7926	898.3757	11964.25	11005.25
844.9377	900.4091	11930.55	10975.35
845.0829	902.4418	11962.5	10996.1
845.228	904.4739	11977	11009.55
845.3732	906.5052	12018.4	11058
845.5183	908.5358	11943.55	10984.4
845.6635	910.5658	11821.05	10857.45
845.8086	912.595	11642.2	10681.75
845.9538	914.6236	11456.4	10495.55
846.0989	916.6515	11346.1	10387.2
846.2441	918.6786	11332.3	10365.4
846.3892	920.7051	11389.4	10427.8
846.5344	922.7309	11465.15	10505.25
846.6795	924.756	11497.2	10537.1
846.8246	926.7804	11602.55	10645.4
846.9698	928.8041	11569.4	10613.05
847.1149	930.8272	11630.5	10673
847.2601	932.8495	11578.7	10615.75
847.4052	934.8711	11542.35	10583.9
847.5504	936.892	11447.85	10487.45
847.6955	938.9123	11357.25	10395.85
847.8407	940.9318	11269.85	10307.85
847.9858	942.9506	11190.3	10229.45
848.131	944.9688	11121.4	10164.65
848.2761	946.9862	11042.6	10080.7
848.4213	949.003	10946.4	9988.5
848.5664	951.019	10935.1	9974.55
848.7115	953.0344	10944.25	9981.9
848.8567	955.0491	10949.75	9988.55
849.0018	957.063	11040.85	10079.85
849.147	959.0763	11126.85	10167.75
849.2921	961.0888	11169.55	10211.55
849.4373	963.1007	11263.6	10310.15
849.5824	965.1119	11271.2	10321.3
849.7275	967.1223	11291.25	10350.25
849.8727	969.1321	11303	10359.25
850.0178	971.1412	11304.75	10355.45
850.1629	973.1495	11339.35	10381.85
850.3081	975.1572	11402.6	10397.85
850.4532	977.1641	11390.15	10430.05
850.5983	979.1704	11386.1	10422.35
850.7435	981.1759	11367.4	10403.85
850.8886	983.1808	11412.2	10451.55
851.0337	985.1849	11497.7	10522.4
851.1788	987.1884	11603.9	10643.2
851.324	989.1911	11730.6	10770.65
851.4691	991.1932	11869.8	10912.6
851.6142	993.1945	11925.9	10968.95
851.7593	995.1951	11865.4	10906.8
851.9045	997.1951	11860	10892.6
852.0496	999.1943	11784.8	10823.8
852.1947	1001.1928	11744.65	10786.55
852.3398	1003.1906	11755.75	10799.15
852.4849	1005.1877	11823.65	10864.4
852.63	1007.1841	11869.45	10910.25
852.7751	1009.1798	11831.75	10873.7
852.9202	1011.1748	11704.65	10746.95
853.0653	1013.1691	11484.85	10525.25
853.2104	1015.1627	11300.35	10340.75
853.3555	1017.1556	11092.05	10135.05
853.5006	1019.1477	11016	10062.5
853.6457	1021.1392	10927.1	9974.75
853.7908	1023.1299	10893.15	9950.7
853.9359	1025.12	10923.3	9979.9
854.081	1027.1093	10939.35	10013.4
854.2261	1029.0979	11054.7	10130.45
854.3712	1031.0859	11134.7	10204.45
854.5163	1033.0731	11155.6	10212.75
854.6613	1035.0596	11099.85	10152.9
854.8064	1037.0454	10965.05	10011.7
854.9515	1039.0304	10872.6	9918.15
855.0965	1041.0148	10739.1	9786.35
855.2416	1042.9985	10654.8	9694.4
855.3867	1044.9814	10621.55	9663.8
855.5317	1046.9636	10576.2	9616.9
855.6768	1048.9452	10534.25	9579.45
855.8219	1050.926	10577.9	9623.9
855.9669	1052.9061	10592.75	9637.55
856.112	1054.8855	10622.35	9663
856.257	1056.8642	10636.95	9678.6
856.4021	1058.8421	10697.4	9736.55
856.5471	1060.8194	10734.9	9776.35
856.6921	1062.7959	10769.45	9812.4
856.8372	1064.7717	10809.75	9851.05
856.9822	1066.7469	10869.5	9911.35
857.1272	1068.7213	10889.5	9928.35
857.2723	1070.695	10897.9	9940.85
857.4173	1072.6679	10860.1	9903.3
857.5623	1074.6402	10863.55	9906.8
857.7073	1076.6117	10830.95	9867.3
857.8523	1078.5826	10797.55	9840.45
857.9973	1080.5527	10757.9	9793.8
858.1423	1082.5221	10776.55	9818.4
858.2873	1084.4908	10901.5	9941.35
858.4323	1086.4587	11010.7	10049.9
858.5773	1088.426	11106.7	10148.6
858.7223	1090.3925	11128	10166.7
858.8673	1092.3584	11116.15	10158
859.0123	1094.3235	11032.9	10079.05
859.1573	1096.2879	11030.75	10076.7
859.3022	1098.2515	11075.55	10119.15
859.4472	1100.2145	11173.15	10219.95
859.5922	1102.1767	11277.05	10322.4
859.7371	1104.1382	11491.3	10534.85
859.8821	1106.099	11705.1	10746.85
860.027	1108.0591	11923.7	10967
860.172	1110.0185	12093.95	11134.3
860.3169	1111.9771	12101.4	11147.25
860.4619	1113.9351	11957.15	11002.45
860.6068	1115.8923	11735	10778.1
860.7517	1117.8488	11492.65	10535.55
860.8967	1119.8045	11248.05	10291.5
861.0416	1121.7596	11114.35	10160.8
861.1865	1123.7139	11041.9	10090.2
861.3314	1125.6675	11030.2	10077.95
861.4763	1127.6204	11090.8	10137.45
861.6212	1129.5726	11059.85	10103.6
861.7661	1131.524	11046.1	10091.45
861.911	1133.4748	10963.25	10004.9
862.0559	1135.4248	10864.45	9912
862.2008	1137.3741	10818.7	9864
862.3457	1139.3226	10777.55	9821.25
862.4905	1141.2705	10742.1	9787.4
862.6354	1143.2176	10638.2	9676
862.7803	1145.164	10609.75	9654.65
862.9251	1147.1097	10602.45	9647.35
863.07	1149.0546	10596.1	9638.85
863.2148	1150.9989	10483.1	9525.65
863.3597	1152.9424	10365.1	9410.65
863.5045	1154.8852	10226.15	9271.05
863.6493	1156.8272	10147.25	9192.05
863.7942	1158.7686	10130.15	9163.95
863.939	1160.7092	10119.7	9162.35
864.0838	1162.6491	10135.95	9179.05
864.2286	1164.5883	10218.8	9269.45
864.3734	1166.5267	10283.95	9328.05
864.5182	1168.4644	10426.55	9472.1
864.663	1170.4014	10605.45	9650.25
864.8078	1172.3377	10868.95	9917.45
864.9526	1174.2732	11118.7	10166.55
865.0974	1176.2081	11445.55	10490.3
865.2421	1178.1421	11764.35	10807.85
865.3869	1180.0755	12081.1	11127.95
865.5317	1182.0082	12316.35	11366.15
865.6764	1183.9401	12372.4	11419.75
865.8212	1185.8713	12216.4	11271
865.9659	1187.8017	11987.75	11050.2
866.1106	1189.7315	11670.6	10742.05
866.2554	1191.6605	11345.3	10417.55
866.4001	1193.5888	11144.55	10210.55
866.5448	1195.5163	11036.4	10092.6
866.6895	1197.4432	10967.85	10022
866.8342	1199.3693	10913.9	9964.25
866.9789	1201.2947	10876.45	9922.85
867.1236	1203.2193	10872.3	9923.1
867.2683	1205.1432	10880.65	9930.75
867.413	1207.0664	10878.6	9929.9
867.5576	1208.9889	10898.3	9949.15
867.7023	1210.9106	10892.25	9943.1
867.847	1212.8316	10947.5	10001.15
867.9916	1214.7519	10980.4	10019.2
868.1363	1216.6715	10996.45	10046.3
868.2809	1218.5903	11024.9	10073.15
868.4255	1220.5084	11068.6	10114.85
868.5701	1222.4257	11096.15	10147.7
868.7148	1224.3424	11056.45	10109.8
868.8594	1226.2583	11145.8	10194.35
869.004	1228.1735	11266.1	10322.3
869.1486	1230.0879	11363.35	10413.45
869.2932	1232.0016	11496.15	10547.3
869.4377	1233.9146	11557.7	10604.8
869.5823	1235.8269	11528	10579.85
869.7269	1237.7384	11382.55	10433.1
869.8715	1239.6492	11242.35	10296.85
870.016	1241.5592	11152.25	10203.35
870.1606	1243.4686	11108.9	10159.7
870.3051	1245.3772	11164.55	10216.15
870.4496	1247.285	11210.5	10260.2
870.5941	1249.1922	11239.75	10290.75
870.7387	1251.0986	11297.85	10350.1
870.8832	1253.0042	11289.55	10340.05
871.0277	1254.9092	11360.9	10414.7
871.1722	1256.8134	11434.25	10492
871.3167	1258.7169	11593.35	10646.25
871.4611	1260.6196	11776.5	10833.9
871.6056	1262.5216	11973	11025.25
871.7501	1264.4229	12162.4	11216.8
871.8945	1266.3234	12307.6	11362.95
872.039	1268.2232	12431.8	11480.7
872.1834	1270.1223	12461.25	11510.85
872.3278	1272.0207	12466.75	11518.5
872.4723	1273.9183	12431.1	11474.95
872.6167	1275.8151	12350.35	11405.55
872.7611	1277.7113	12317.1	11370.8
872.9055	1279.6067	12235.9	11292.95
873.0499	1281.5014	12272.75	11323.45
873.1943	1283.3953	12381.05	11430.2
873.3386	1285.2885	12553	11605.05
873.483	1287.181	12731.25	11781.7
873.6274	1289.0727	12947	12007.2
873.7717	1290.9637	13100.5	12157
873.9161	1292.854	13229.85	12280.9
874.0604	1294.7435	13350.25	12407
874.2047	1296.6323	13421.3	12473.4
874.349	1298.5204	13505.35	12558.05
874.4933	1300.4077	13590.55	12641
874.6376	1302.2943	13621.3	12675.7
874.7819	1304.1802	13587.25	12642.6
874.9262	1306.0653	13317.85	12372.2
875.0705	1307.9497	13032.55	12088.05
875.2147	1309.8333	12784.95	11838.4
875.359	1311.7162	12640.35	11692.4
875.5032	1313.5984	12578.15	11630.1
875.6475	1315.4798	12558.85	11612.85
875.7917	1317.3605	12570.65	11609
875.9359	1319.2405	12575.95	11626.1
876.0801	1321.1197	12411.05	11463.4
876.2243	1322.9982	12254	11305.15
876.3685	1324.876	12130.35	11180.35
876.5127	1326.753	11962.85	11016.65
876.6569	1328.6293	11889.75	10943.4
876.801	1330.5048	11821.05	10870.25
876.9452	1332.3796	11730.1	10780.4
877.0893	1334.2537	11705.35	10736.3
877.2335	1336.127	11639.45	10691.3
877.3776	1337.9996	11618.85	10674.6
877.5217	1339.8714	11622.3	10678.45
877.6658	1341.7426	11622.15	10634.4
877.8099	1343.6129	11599.6	10651.45
877.954	1345.4826	11582.45	10631.9
878.0981	1347.3515	11574.3	10621.5
878.2422	1349.2196	11539.2	10592.9
878.3862	1351.087	11532.85	10588.4
878.5303	1352.9537	11605.15	10655.7
878.6743	1354.8197	11722.35	10775.8
878.8184	1356.6849	11897.1	10949.85
878.9624	1358.5493	12006.95	11060.75
879.1064	1360.4131	12092.4	11148.8
879.2504	1362.276	12102.55	11159.95
879.3944	1364.1383	12017	11073.55
879.5384	1365.9998	11804.3	10853.45
879.6823	1367.8606	11462.3	10514.9
879.8263	1369.7206	11142.1	10196.45
879.9702	1371.5799	10893.35	9945.15
880.1142	1373.4384	10668.15	9723.3
880.2581	1375.2962	10492.55	9546.25
880.402	1377.1533	10213.3	9267.65
880.5459	1379.0096	9901.2	8961
880.6898	1380.8652	9605.2	8666.55
880.8337	1382.7201	9315.05	8374.4
880.9776	1384.5742	9077.55	8132.65
881.1215	1386.4275	8913.3	7970.65
881.2653	1388.2802	8774.9	7828.2
881.4092	1390.132	8657.1	7709.25
881.553	1391.9832	8574.25	7630.6
881.6968	1393.8336	8504.7	7560.3
881.8406	1395.6832	8480.55	7533.4
881.9844	1397.5322	8454.3	7509.75
882.1282	1399.3803	8412.9	7465.6
882.272	1401.2278	8392.95	7452
882.4158	1403.0745	8389.95	7450.5
882.5595	1404.9204	8375.15	7433.8
882.7033	1406.7656	8378.55	7437.5
882.847	1408.6101	8430.75	7484.55
882.9908	1410.4538	8444.65	7498.75
883.1345	1412.2968	8486.9	7542.35
883.2782	1414.139	8524.25	7582.15
883.4219	1415.9805	8614.65	7671.3
883.5656	1417.8213	8700.85	7754.05
883.7092	1419.6613	8811.85	7870.25
883.8529	1421.5006	8983.15	8041
883.9965	1423.3391	9204	8262.25
884.1402	1425.1769	9516.3	8574
884.2838	1427.0139	9964.1	9021.2
884.4274	1428.8502	10528.25	9584
884.571	1430.6858	11069.8	10127.8
884.7146	1432.5206	11479.6	10538.65
884.8582	1434.3547	11710.3	10767.85
885.0018	1436.188	11741	10799.7
885.1453	1438.0206	11666.4	10723.45
885.2889	1439.8524	11481.15	10541.6
885.4324	1441.6835	11398	10456.25
885.5759	1443.5139	11297.3	10352.7
885.7194	1445.3435	11202	10264.2
885.8629	1447.1724	11169.05	10230.1
886.0064	1449.0005	11121	10181.5
886.1499	1450.8279	11032.15	10090.45
886.2933	1452.6545	10993.9	10056.8
886.4368	1454.4804	11030.05	10095.4
886.5802	1456.3056	11023.65	10078.75
886.7237	1458.13	10922.2	9985.75
886.8671	1459.9536	10709.45	9769.7
887.0105	1461.7766	10418.8	9480.25
887.1539	1463.5987	10029.85	9088.4
887.2972	1465.4202	9684.05	8743.25
887.4406	1467.2409	9345.45	8405.65
887.584	1469.0608	9064.45	8129.65
887.7273	1470.88	8781.3	7841.5
887.8706	1472.6984	8574.5	7635.3
888.0139	1474.5161	8346.3	7405.85
888.1572	1476.3331	8201.4	7261.05
888.3005	1478.1493	8112.7	7173.35
888.4438	1479.9648	7996.1	7057.45
888.5871	1481.7795	7920.25	6981.95
888.7303	1483.5935	7841.5	6902.75
888.8736	1485.4067	7771.85	6832.75
889.0168	1487.2192	7744.55	6803.05
889.16	1489.031	7690.3	6751.2
889.3032	1490.842	7645.65	6707.05
889.4464	1492.6522	7616.25	6678.45
889.5896	1494.4618	7572.85	6632.3
889.7327	1496.2705	7546.9	6608.45
889.8759	1498.0785	7488.45	6549.4
890.019	1499.8858	7470.25	6531.5
890.1622	1501.6924	7436.3	6496
890.3053	1503.4981	7407.95	6470
890.4484	1505.3032	7379.9	6440.3
890.5914	1507.1075	7350.9	6412.45
890.7345	1508.911	7302.45	6363.15
890.8776	1510.7138	7261.25	6323.65
891.0206	1512.5159	7216.3	6280.1
891.1637	1514.3172	7161.35	6223.45
891.3067	1516.1178	7107.3	6172.6
891.4497	1517.9176	7114.75	6175.4
891.5927	1519.7166	7053.35	6115.55
891.7357	1521.515	7036.15	6093.5
891.8786	1523.3126	7016.75	6080.9
892.0216	1525.1094	6985.3	6049.45
892.1645	1526.9055	6942.85	6008.45
892.3074	1528.7008	6912.1	5979.7
892.4503	1530.4954	6909.65	5974.8
892.5932	1532.2893	6893.15	5960.75
892.7361	1534.0824	6861.9	5925.6
892.879	1535.8747	6864.6	5934.75
893.0218	1537.6663	6867.1	5936.2
893.1647	1539.4572	6839.85	5907.95
893.3075	1541.2473	6859.4	5928.95
893.4503	1543.0367	6842.65	5914.15
893.5931	1544.8253	6827.65	5891.65
893.7359	1546.6132	6839.95	5905.1
893.8787	1548.4003	6867.35	5925.55
894.0214	1550.1867	6910.4	5974.35
894.1642	1551.9723	6935.05	6001.45
894.3069	1553.7572	6971.9	6039.8
894.4496	1555.5414	7048.15	6119.9
894.5923	1557.3247	7139.85	6213.6
894.735	1559.1074	7226.6	6304.85
894.8777	1560.8893	7361.2	6438.1
895.0204	1562.6705	7433.3	6509.4
895.163	1564.4509	7524.4	6599.3
895.3056	1566.2305	7603.35	6682.45
895.4482	1568.0094	7663.25	6747.25
895.5908	1569.7876	7687.05	6767.35
895.7334	1571.565	7688	6764.4
895.876	1573.3417	7668.45	6744.05
896.0186	1575.1176	7628.65	6707.65
896.1611	1576.8928	7606.05	6688.15
896.3036	1578.6672	7557.3	6643.75
896.4461	1580.4409	7509.55	6598.5
896.5886	1582.2138	7434.65	6517.1
896.7311	1583.986	7405.5	6484.95
896.8736	1585.7575	7363.3	6444.95
897.0161	1587.5282	7333.35	6416.3
897.1585	1589.2981	7371.15	6458.25
897.3009	1591.0673	7360.95	6446.9
897.4433	1592.8358	7422.45	6511.4
897.5857	1594.6035	7486.85	6567.45
897.7281	1596.3704	7528.75	6607.95
897.8705	1598.1366	7569.55	6650.1
898.0128	1599.9021	7647	6734.85
898.1551	1601.6668	7713.3	6795.2
898.2975	1603.4308	7815.8	6896.85
898.4398	1605.194	7947.15	7026.1
898.5821	1606.9564	8107.55	7199.15
898.7243	1608.7182	8284.25	7379.5
898.8666	1610.4791	8481.8	7582.9
899.0088	1612.2394	8710.9	7810.95
899.1511	1613.9988	8905.05	8002
899.2933	1615.7576	9158.5	8251.9
899.4355	1617.5156	9364.65	8443.5
899.5776	1619.2728	9497.1	8577.85
899.7198	1621.0293	9555.85	8640.75
899.862	1622.785	9488.55	8571.2
900.0041	1624.54	9339.8	8429.1
900.1462	1626.2942	9114.45	8206.3
900.2883	1628.0477	8822.1	7909.65
900.4304	1629.8005	8580.95	7668.5
900.5725	1631.5525	8353.55	7444.1
900.7145	1633.3037	8169.1	7261.65
900.8566	1635.0542	7976	7070.7
900.9986	1636.804	7867.75	6959.85
901.1406	1638.553	7864.2	6883.35
901.2826	1640.3013	7768.75	6859.65
901.4245	1642.0488	7743.65	6831.85
901.5665	1643.7955	7782.55	6876.3
901.7085	1645.5416	7832.9	6929.25
901.8504	1647.2868	7928.45	7020.7
901.9923	1649.0313	8030.65	7119.4
902.1342	1650.7751	8198.25	7285.65
902.2761	1652.5181	8350.25	7442.45
902.4179	1654.2604	8539	7632.9
902.5598	1656.0019	8778.3	7870.9
902.7016	1657.7427	9085.2	8179.9
902.8434	1659.4828	9327.4	8413.9
902.9852	1661.222	9513.7	8601.85
903.127	1662.9606	9499.45	8591.8
903.2687	1664.6984	9252.15	8341.25
903.4105	1666.4354	8857	7942.6
903.5522	1668.1717	8324.3	7409.75
903.6939	1669.9072	7786.25	6871.15
903.8356	1671.642	7352.5	6436.5
903.9773	1673.3761	6954.65	6043.85
904.119	1675.1094	6651.15	5741.05
904.2606	1676.8419	6425.55	5514.95
904.4022	1678.5737	6252.9	5345.3
904.5439	1680.3048	6119.15	5209.35
904.6855	1682.0351	6012.9	5103.45
904.827	1683.7646	5899.85	4986.8
904.9686	1685.4934	5834.8	4923.9
905.1101	1687.2215	5748.65	4839.4
905.2517	1688.9488	5679.4	4775.6
905.3932	1690.6754	5629.65	4724.05
905.5347	1692.4012	5595.7	4686.65
905.6761	1694.1263	5553.45	4644.05
905.8176	1695.8506	5541.85	4634.15
905.9591	1697.5742	5484.75	4579.2
906.1005	1699.297	5449.15	4544.25
906.2419	1701.0191	5404.8	4504.75
906.3833	1702.7404	5385.75	4483.65
906.5246	1704.461	5343.6	4438.5
906.666	1706.1808	5314.4	4406.45
906.8073	1707.8999	5301.55	4396.2
906.9487	1709.6182	5251.2	4351.05
907.09	1711.3358	5233.5	4334.45
907.2313	1713.0527	5204.85	4308.95
907.3725	1714.7688	5180.4	4272.25
907.5138	1716.4841	5168.2	4261.65
907.655	1718.1987	5143.45	4235
907.7962	1719.9126	5131.25	4232.2
907.9374	1721.6257	5100.05	4201.4
908.0786	1723.338	5084.65	4187.8
908.2198	1725.0496	5061.55	4159.65
908.3609	1726.7605	5049.85	4146.9
908.502	1728.4706	5041.3	4140.35
908.6431	1730.18	5024.65	4125.6
908.7842	1731.8886	4990.45	4094.25
908.9253	1733.5964	5025.65	4105.45
909.0664	1735.3036	4976.6	4075.9
909.2074	1737.0099	4963	4066.05
909.3484	1738.7156	4929.55	4030.65
909.4894	1740.4204	4906.2	4006.05
909.6304	1742.1246	4895.4	3991.85
909.7714	1743.8279	4869.25	3968.25
909.9123	1745.5306	4850.2	3951.85
910.0532	1747.2325	4834.65	3935.15
910.1941	1748.9336	4825.35	3926.8
910.335	1750.634	4800.45	3897
910.4759	1752.3336	4781.55	3884.2
910.6168	1754.0325	4772.5	3879.15
910.7576	1755.7307	4766.75	3869.55
910.8984	1757.4281	4754.4	3853.6
911.0392	1759.1247	4743.7	3834.35
911.18	1760.8206	4737.1	3828.1
911.3208	1762.5158	4713.5	3807.35
911.4615	1764.2102	4701.45	3801.15
911.6022	1765.9039	4676.35	3776.35
911.7429	1767.5968	4661.8	3766.95
911.8836	1769.289	4651.75	3753.8
912.0243	1770.9804	4644.65	3746.6
912.1649	1772.6711	4647.95	3745.8
912.3056	1774.361	4632.25	3729.75
912.4462	1776.0502	4615.55	3713.15
912.5868	1777.7386	4619.4	3716.05
912.7274	1779.4263	4584.2	3684.75
912.8679	1781.1132	4606.6	3711.75
913.0084	1782.7994	4573.15	3677
913.149	1784.4849	4573.9	3681.05
913.2895	1786.1696	4570.7	3668.9
913.4299	1787.8535	4548.55	3654.95
913.5704	1789.5367	4533.2	3640.4
913.7108	1791.2192	4528.5	3634.35
913.8513	1792.9009	4538.7	3614.95
913.9917	1794.5818	4508.45	3606.95
914.132	1796.2621	4497.65	3602.05
914.2724	1797.9415	4479.3	3581.4
914.4128	1799.6202	4472.6	3574.8
914.5531	1801.2982	4477.55	3578.75
914.6934	1802.9755	4466.9	3565.65
914.8337	1804.6519	4456.25	3559.15
914.9739	1806.3277	4429.6	3534.15
915.1142	1808.0027	4422.65	3528.6
915.2544	1809.6769	4416.75	3525.25
915.3946	1811.3504	4386.95	3491.75
915.5348	1813.0231	4410.85	3516.1
915.675	1814.6951	4405.1	3509.9
915.8151	1816.3664	4384.3	3486.95
915.9553	1818.0369	4380.85	3481.65
916.0954	1819.7067	4366.5	3471.6
916.2355	1821.3757	4374.45	3474.3
916.3755	1823.044	4363.45	3465.2
916.5156	1824.7115	4344.7	3443.85
916.6556	1826.3783	4323.75	3425.85
916.7956	1828.0443	4329.65	3433.5
916.9356	1829.7096	4309.55	3409.55
917.0756	1831.3741	4317.7	3419.1
917.2155	1833.0379	4292.8	3395.45
917.3555	1834.701	4272.15	3377.1
917.4954	1836.3633	4266.1	3374.4
917.6353	1838.0248	4268.35	3374.45
917.7751	1839.6856	4250.5	3354.9
917.915	1841.3457	4261.25	3364.6
918.0548	1843.005	4246.5	3346.15
918.1946	1844.6636	4249.15	3351.55
918.3344	1846.3214	4217.5	3319.5
918.4742	1847.9785	4232.6	3338.6
918.6139	1849.6349	4223.25	3324.2
918.7537	1851.2904	4204.95	3295.9
918.8934	1852.9453	4208.1	3308
919.0331	1854.5994	4208.35	3306.2
919.1727	1856.2528	4197.3	3295
919.3124	1857.9054	4173.75	3273.9
919.452	1859.5572	4179.35	3284.2
919.5916	1861.2083	4180.85	3282
919.7312	1862.8587	4175.6	3277.45
919.8708	1864.5084	4167.75	3267.55
920.0103	1866.1572	4146.8	3247.8
920.1498	1867.8054	4157.85	3255.75
920.2893	1869.4528	4140.75	3238
920.4288	1871.0994	4129.3	3228.75
920.5683	1872.7453	4122.05	3222.35
920.7077	1874.3905	4109.05	3192.7
920.8471	1876.0349	4099.9	3201.95
920.9865	1877.6786	4090.65	3190.2
921.1259	1879.3215	4082.05	3184.3
921.2653	1880.9637	4089.7	3192.65
921.4046	1882.6051	4051.05	3152.95
921.5439	1884.2458	4064.3	3166.5
921.6832	1885.8858	4042.4	3149
921.8225	1887.525	4045.4	3147.5
921.9617	1889.1634	4028.55	3130.95
922.101	1890.8011	4032.2	3131.9
922.2402	1892.4381	4015.75	3115.8
922.3794	1894.0743	4014.5	3117.15
922.5185	1895.7098	3994.4	3096.55
922.6577	1897.3446	3975.2	3077.95
922.7968	1898.9786	3981.5	3082.25
922.9359	1900.6118	3974.25	3078.7
923.075	1902.2443	3959.85	3062.9
923.214	1903.8761	3958.2	3061
923.3531	1905.5071	3928.05	3031.05
923.4921	1907.1374	3911.45	3015.3
923.6311	1908.7669	3916.2	3019.55
923.77	1910.3957	3904.9	3008.35
923.909	1912.0237	3893.35	2996.55
924.0479	1913.651	3889.9	2993.7
924.1868	1915.2776	3881.35	2984.65
924.3257	1916.9034	3850.15	2955
924.4646	1918.5285	3860.75	2967.25
924.6034	1920.1528	3830.9	2934.4
924.7422	1921.7764	3832.75	2936.8
924.881	1923.3992	3819.55	2923.55
925.0198	1925.0213	3800.25	2902.7
925.1586	1926.6427	3794.65	2902.8
925.2973	1928.2633	3963.65	2862.7
925.436	1929.8832	3811.25	2909.45
925.5747	1931.5023	3781.45	2883.95
925.7134	1933.1207	3765.95	2869.25
925.852	1934.7383	3758.55	2863.4
925.9906	1936.3552	3732.65	2838.3
926.1292	1937.9714	3726.8	2832.05
926.2678	1939.5868	3718.95	2818.75
926.4064	1941.2015	3707	2809.3
926.5449	1942.8154	3701.15	2804.2
926.6834	1944.4286	3689.55	2791.6
926.8219	1946.041	3686.25	2772.25
926.9604	1947.6528	3662.7	2760.6
927.0988	1949.2637	3646.6	2750
927.2372	1950.8739	3643	2747.5
927.3756	1952.4834	3629.15	2734.75
927.514	1954.0921	3631.4	2736.05
927.6523	1955.7001	3630.65	2733.3
927.7907	1957.3074	3602.2	2712.05
927.929	1958.9139	3594.75	2703.8
928.0673	1960.5197	3584.2	2692.35
928.2055	1962.1247	3566.3	2673.65
928.3438	1963.729	3553.7	2663.1
928.482	1965.3325	3549.25	2653.6
928.6202	1966.9353	3537.35	2647.95
928.7584	1968.5374	3545.05	2653.45
928.8965	1970.1387	3523.7	2632.1
929.0346	1971.7393	3500.3	2608.35
929.1727	1973.3392	3501.35	2610.8
929.3108	1974.9383	3487.1	2596.45
929.4489	1976.5366	3465.7	2576.1
929.5869	1978.1342	3481.5	2591.5
929.7249	1979.7311	3477.15	2587.95
929.8629	1981.3273	3470.65	2579.85
930.0009	1982.9227	3457.9	2568.9
930.1388	1984.5173	3446.9	2560.35
930.2767	1986.1112	3436.7	2547.9
930.4146	1987.7044	3434.15	2542.6
930.5525	1989.2968	3411.35	2521.15
930.6904	1990.8885	3422.25	2529.75
930.8282	1992.4795	3404.25	2516.05
930.966	1994.0697	3393.95	2508.4
931.1038	1995.6592	3384.6	2499.9
931.2415	1997.2479	3396.8	2507.7
931.3793	1998.8359	3382.05	2494.65
931.517	2000.4232	3364.7	2480.3
931.6547	2002.0097	3358.5	2477.75
931.7923	2003.5955	3340.85	2455.25
931.93	2005.1805	3355.95	2466.7
932.0676	2006.7648	3333.5	2450.05
932.2052	2008.3484	3329.05	2444.7
932.3427	2009.9312	3324.1	2442.15
932.4803	2011.5133	3303.55	2421.65
932.6178	2013.0946	3312.65	2430.6
932.7553	2014.6752	3299.8	2417.85
932.8928	2016.2551	3284.05	2396.95
933.0302	2017.8342	3276.25	2391.35
933.1676	2019.4126	3273.45	2390.15
933.305	2020.9902	3252.3	2370
933.4424	2022.5672	3266.55	2386.85
933.5798	2024.1433	3257	2369.7
933.7171	2025.7188	3250.8	2370.6
933.8544	2027.2935	3242.7	2359.85
933.9917	2028.8674	3222.45	2339.8
934.129	2030.4406	3213.05	2334.1
934.2662	2032.0131	3203.05	2324.45
934.4034	2033.5849	3196.4	2315.65
934.5406	2035.1559	3210.05	2331
934.6778	2036.7261	3194.4	2310.9
934.8149	2038.2957	3185.25	2299.7
934.952	2039.8645	3171.4	2284
935.0891	2041.4325	3186.1	2297.05
935.2262	2042.9998	3169.3	2285.25
935.3632	2044.5664	3166.4	2281.55
935.5002	2046.1323	3156.9	2276.9
935.6372	2047.6974	3156.85	2277.6
935.7742	2049.2617	3147.1	2265.8
935.9111	2050.8254	3170.15	2254.05
936.048	2052.3883	3142.45	2256.5
936.1849	2053.9504	3132.45	2245.25
936.3218	2055.5118	3130.45	2245.25
936.4586	2057.0725	3122.15	2229.7
936.5955	2058.6325	3110.15	2226.1
936.7323	2060.1917	3102.1	2220.05
936.869	2061.7502	3083.2	2199.55
937.0058	2063.3079	3078.6	2199.2
937.1425	2064.8649	3084.85	2198.9
937.2792	2066.4212	3072.85	2188.65
937.4159	2067.9767	3076.8	2193.4
937.5525	2069.5315	3053.3	2169.6
937.6891	2071.0856	3040.95	2158.4
937.8257	2072.6389	3038.8	2154.7
937.9623	2074.1915	3032.95	2153.7
938.0989	2075.7433	3017.45	2134.1
938.2354	2077.2945	3012	2128.15
938.3719	2078.8448	3019.95	2132.75
938.5084	2080.3945	3016.55	2131.2
938.6448	2081.9434	3000.6	2113.45
938.7812	2083.4916	3000.2	2111
938.9176	2085.039	2995.6	2103.55
939.054	2086.5857	2988.5	2095.95
939.1903	2088.1317	2984.6	2090.1
939.3267	2089.677	2973.85	2080.6
939.463	2091.2215	2972.55	2081.05
939.5992	2092.7652	2961.05	2065.9
939.7355	2094.3083	2958.1	2066.6
939.8717	2095.8506	2952.75	2062.5
940.0079	2097.3921	2945.8	2061.6
940.1441	2098.933	2937.95	2048.45
940.2802	2100.4731	2933.6	2043.35
940.4163	2102.0124	2950.25	2054.2
940.5524	2103.5511	2928.4	2036.45
940.6885	2105.089	2931.6	2042.3
940.8245	2106.6261	2922.1	2033.05
940.9606	2108.1626	2910.95	2023.95
941.0965	2109.6983	2942.7	2027
941.2325	2111.2332	2907.55	2016.3
941.3684	2112.7675	2891	2000.8
941.5044	2114.301	2889.3	1996.65
941.6403	2115.8337	2898.9	2006.25
941.7761	2117.3657	2888.45	1999.3
941.912	2118.897	2879.2	1987.85
942.0478	2120.4276	2883.1	1984.05
942.1835	2121.9575	2878.15	1986.8
942.3193	2123.4866	2861.25	1967.2
942.455	2125.0149	2853.7	1962.8
942.5907	2126.5426	2846.45	1959.6
942.7264	2128.0695	2820.8	1932.35
942.8621	2129.5956	2827.3	1943.35
942.9977	2131.1211	2831	1939.4
943.1333	2132.6458	2817.85	1929.95
943.2689	2134.1698	2824.95	1933.85
943.4044	2135.693	2812.85	1916
943.54	2137.2155	2824.4	1930.95
943.6755	2138.7373	2799.7	1909.8
943.8109	2140.2584	2794.4	1910.45
943.9464	2141.7787	2795.3	1909.2
944.0818	2143.2983	2789.7	1907.3
944.2172	2144.8171	2765.85	1886.9
944.3526	2146.3353	2772.1	1883.85
944.4879	2147.8527	2771.35	1888.25
944.6232	2149.3693	2776.05	1883.7
944.7585	2150.8853	2758.4	1867.1
944.8938	2152.4005	2754.65	1861.2
945.029	2153.9149	2747.85	1853.55
945.1642	2155.4287	2746.45	1854.3
945.2994	2156.9417	2741	1850.9
945.4346	2158.454	2729.35	1839.5
945.5697	2159.9655	2709.85	1823.75
945.7048	2161.4764	2714.6	1826.7
945.8399	2162.9865	2722.5	1833.4
945.9749	2164.4958	2711.65	1825.9
946.1099	2166.0045	2696.9	1807.8
946.2449	2167.5124	2712.55	1826.4
946.3799	2169.0195	2701.1	1810.5
946.5148	2170.526	2692.05	1801.8
946.6498	2172.0317	2696.1	1808.25
946.7846	2173.5367	2683.5	1793.85
946.9195	2175.0409	2677	1790.65
947.0543	2176.5445	2670.4	1780.25
947.1891	2178.0473	2674.3	1783.75
947.3239	2179.5494	2684.85	1790.65
947.4587	2181.0507	2655.1	1764.45
947.5934	2182.5513	2653.3	1763.45
947.7281	2184.0512	2653.95	1762.85
947.8628	2185.5504	2632.1	1743.9
947.9974	2187.0488	2615.4	1729.4
948.132	2188.5465	2619.5	1732.65
948.2666	2190.0435	2622.25	1737.7
948.4012	2191.5397	2626.9	1737.85
948.5357	2193.0353	2624.25	1732.1
948.6702	2194.5301	2616.75	1724
948.8047	2196.0241	2617.4	1723.4
948.9392	2197.5175	2605.2	1711.7
949.0736	2199.0101	2604.25	1705.6
949.208	2200.502	2590.9	1700.4
949.3424	2201.9931	2567.25	1680.95
949.4767	2203.4835	2570.8	1684.3
949.611	2204.9733	2567.2	1672.2
949.7453	2206.4622	2556.2	1670.25
949.8796	2207.9505	2554.8	1668.45
950.0138	2209.438	2533.6	1651.9
950.148	2210.9248	2534.3	1647.25
950.2822	2212.4109	2537.3	1649.2
950.4164	2213.8962	2542.75	1649.25
950.5505	2215.3809	2534.6	1637.3
950.6846	2216.8648	2532.3	1635.8
950.8186	2218.3479	2528.7	1626.1
950.9527	2219.8304	2537.2	1637.2
951.0867	2221.3121	2510.25	1612.55
951.2207	2222.7931	2505.1	1610.3
951.3546	2224.2733	2499.85	1605.7
951.4886	2225.7529	2491.35	1600.55
951.6225	2227.2317	2479.95	1587.4
951.7563	2228.7098	2468.25	1583
951.8902	2230.1872	2469.3	1585.35
952.024	2231.6638	2469.95	1584.35
952.1578	2233.1397	2466.7	1573.95
952.2916	2234.6149	2452.7	1567.7
952.4253	2236.0894	2453.15	1564.3
952.559	2237.5632	2458.05	1557.65
952.6927	2239.0362	2447.85	1558.65
952.8263	2240.5085	2435.35	1544.5
952.9599	2241.9801	2436.75	1546.35
953.0935	2243.4509	2432.4	1540.1
953.2271	2244.921	2426.9	1533.7
953.3606	2246.3904	2416.15	1521.2
953.4941	2247.8591	2416.1	1523.5
953.6276	2249.3271	2414.65	1523.25
953.7611	2250.7943	2403.15	1508.7
953.8945	2252.2608	2402.3	1510.25
954.0279	2253.7266	2392.85	1498.3
954.1612	2255.1917	2395.15	1504.4
954.2946	2256.656	2376.65	1486.75
954.4279	2258.1197	2371.7	1485.2
954.5612	2259.5826	2372.5	1480.75
954.6944	2261.0447	2369.4	1476.7
954.8276	2262.5062	2355.85	1463.65
954.9608	2263.9669	2369.85	1473.9
955.094	2265.4269	2360.5	1468.2
955.2271	2266.8862	2359.45	1470.75
955.3602	2268.3448	2349.8	1460.55
955.4933	2269.8026	2340.6	1451.35
955.6264	2271.2598	2340.55	1449.95
955.7594	2272.7162	2333.85	1447.2
955.8924	2274.1719	2329.35	1438.6
956.0253	2275.6268	2331.7	1438.3
956.1583	2277.0811	2323.95	1432.05
956.2912	2278.5346	2319.4	1429.9
956.4241	2279.9874	2317.65	1430.25
956.5569	2281.4395	2324.25	1437.3
956.6897	2282.8908	2312.45	1419.45
956.8225	2284.3414	2314.7	1422.05
956.9553	2285.7914	2310.8	1420
957.088	2287.2406	2297.55	1403.6
957.2207	2288.689	2296.95	1403.75
957.3534	2290.1368	2297.8	1400.15
957.486	2291.5838	2304.2	1406.55
957.6186	2293.0302	2296.1	1397.3
957.7512	2294.4758	2287.8	1391.6
957.8838	2295.9206	2273.9	1378.45
958.0163	2297.3648	2278.65	1390.6
958.1488	2298.8082	2269.15	1377.35
958.2813	2300.251	2269.5	1379.35
958.4137	2301.693	2274.25	1377.85
958.5461	2303.1343	2262.55	1367.65
958.6785	2304.5748	2250.8	1359.65
958.8108	2306.0147	2249.65	1359.9
958.9432	2307.4538	2240.05	1351.35
959.0754	2308.8922	2237.3	1353.5
959.2077	2310.3299	2228.7	1340.15
959.3399	2311.7669	2220.8	1332.9
959.4721	2313.2031	2229.85	1338.65
959.6043	2314.6387	2227.75	1332.35
959.7365	2316.0735	2205.3	1314.35
959.8686	2317.5076	2216.95	1326.7
960.0006	2318.941	2218	1323.35
960.1327	2320.3737	2214.75	1318.7
960.2647	2321.8056	2202	1306.7
960.3967	2323.2369	2212.25	1317.8
960.5287	2324.6674	2193.45	1300
960.6606	2326.0972	2192.35	1300
960.7925	2327.5263	2195.6	1304.7
960.9244	2328.9547	2192.7	1299.05
961.0562	2330.3823	2194.2	1300.95
961.1881	2331.8092	2193.95	1296.75
961.3198	2333.2355	2175.2	1278.75
961.4516	2334.661	2173.15	1278.25
961.5833	2336.0858	2176.1	1280.65
961.715	2337.5098	2163.15	1270.75
961.8467	2338.9332	2169.45	1278.15
961.9783	2340.3558	2163.55	1271.15
962.1099	2341.7778	2140.55	1249.8
962.2415	2343.199	2153.35	1261.05
962.373	2344.6195	2149.55	1258.5
962.5045	2346.0393	2142.6	1254.3
962.636	2347.4583	2143.45	1250.65
962.7675	2348.8767	2152.95	1259.95
962.8989	2350.2943	2138.65	1241.6
963.0303	2351.7113	2153.6	1256
963.1617	2353.1275	2141.5	1244.3
963.293	2354.543	2149.4	1245.05
963.4243	2355.9578	2120.65	1228.15
963.5556	2357.3718	2106.05	1216.35
963.6868	2358.7852	2108.65	1217.45
963.818	2360.1978	2115.15	1224.3
963.9492	2361.6098	2118	1228.85
964.0803	2363.021	2104.65	1209.85
964.2114	2364.4315	2099.25	1209.75
964.3425	2365.8413	2101.1	1209.4
964.4736	2367.2504	2084.25	1195.3
964.6046	2368.6587	2093.45	1205.5
964.7356	2370.0664	2078.05	1189.2
964.8666	2371.4733	2078.05	1186.15
964.9975	2372.8795	2078.35	1188.05
965.1284	2374.285	2077.8	1188.05
965.2593	2375.6899	2065.35	1175.75
965.3901	2377.0939	2066.05	1179.65
965.5209	2378.4973	2060.45	1171.1
965.6517	2379.9	2062.7	1175
965.7825	2381.3019	2042.15	1154.5
965.9132	2382.7032	2041.75	1153.6
966.0439	2384.1037	2032	1146.35
966.1745	2385.5035	2021.7	1136.55
966.3051	2386.9027	2038.5	1153.7
966.4357	2388.3011	2044.95	1156.55
966.5663	2389.6987	2028.6	1141.95
966.6968	2391.0957	2026	1139.1
966.8273	2392.492	2019.5	1133.2
966.9578	2393.8876	2016.5	1128.6
967.0882	2395.2824	2002.8	1117.35
967.2186	2396.6765	1995.55	1108.2
967.349	2398.07	1990.85	1103.75
967.4793	2399.4627	1990.1	1099.5
967.6097	2400.8547	1995.95	1105.25
967.7399	2402.246	2003.2	1109.2
967.8702	2403.6366	1979.15	1090.3
968.0004	2405.0265	1978.65	1092.6
968.1306	2406.4156	1984.25	1090.9
968.2607	2407.8041	1984	1091.65
968.3909	2409.1918	1981.9	1091.05
968.521	2410.5789	1965.7	1077.55
968.651	2411.9652	1966.65	1074.95
968.781	2413.3508	1965.05	1076.15
968.911	2414.7358	1954.85	1067.15
969.041	2416.12	1967.85	1079.15
969.1709	2417.5035	1950.75	1063.5
969.3008	2418.8863	1953.45	1065.8
969.4307	2420.2684	1944.95	1058.85
969.5606	2421.6497	1941.85	1052.85
969.6904	2423.0304	1931.25	1044.75
969.8201	2424.4104	1937.6	1049.3
969.9499	2425.7896	1927.15	1036.95
970.0796	2427.1682	1933.65	1047.85
970.2093	2428.546	1935.55	1048.7
970.3389	2429.9232	1919.6	1031.35
970.4685	2431.2996	1917.85	1030
970.5981	2432.6753	1922.85	1034.25
970.7277	2434.0503	1906.95	1018.3
970.8572	2435.4246	1920.15	1029.9
970.9867	2436.7982	1917.5	1022.95
971.1161	2438.1711	1906.5	1018.1
971.2456	2439.5433	1900.6	1011.55
971.375	2440.9148	1902.65	1009.65
971.5043	2442.2856	1892.65	1002.9
971.6336	2443.6557	1896.95	1008.2
971.7629	2445.025	1891.95	1005.1
971.8922	2446.3937	1893.35	1003.2
972.0214	2447.7617	1888.15	996.8
972.1506	2449.1289	1884.15	994.5
972.2798	2450.4955	1876.2	984.8
972.4089	2451.8613	1870.75	982.65
972.538	2453.2265	1865.75	974.4
972.6671	2454.5909	1869.25	980.1
972.7961	2455.9546	1854.65	963.7
972.9251	2457.3177	1859.6	971.75
973.0541	2458.68	1861.7	972.2
973.1831	2460.0416	1861.7	973.35
973.312	2461.4025	1851.3	960.95
973.4408	2462.7627	1867.9	966.55
973.5697	2464.1222	1850.2	962.85
973.6985	2465.4811	1849	961.7
973.8273	2466.8392	1842.4	954
973.956	2468.1966	1848.6	956.5
974.0847	2469.5533	1847.3	955.1
974.2134	2470.9093	1842.2	953.35
974.3421	2472.2645	1849.85	960.55
974.4707	2473.6191	1835.7	946.65
974.5993	2474.973	1834.85	945.4
974.7278	2476.3262	1839.3	948.15
974.8563	2477.6787	1831.55	944
974.9848	2479.0305	1828.25	938.65
975.1132	2480.3816	1821.25	931.15
975.2417	2481.7319	1824.25	935.8
975.37	2483.0816	1817	926.75
975.4984	2484.4306	1808.2	918.7
975.6267	2485.7789	1806.25	918.95
975.755	2487.1264	1810	921.9
975.8833	2488.4733	1809.5	922.85
976.0115	2489.8195	1808.8	903.9
976.1397	2491.165	1805.2	913.6
976.2678	2492.5097	1794.75	906.85
976.3959	2493.8538	1782.8	894.75
976.524	2495.1972	1786.4	898.15
976.6521	2496.5398	1790.8	900.3
976.7801	2497.8818	1784.15	891.9
976.9081	2499.2231	1780.3	890.7
977.036	2500.5637	1774.85	880.4
977.164	2501.9035	1768.65	877.1
977.2918	2503.2427	1774.8	881.4
977.4197	2504.5812	1766.6	875.1
977.5475	2505.919	1769.25	877.4
977.6753	2507.256	1759.05	869.75
977.8031	2508.5924	1750.8	862.25
977.9308	2509.9281	1763.6	867.45
978.0585	2511.2631	1753.75	865.6
978.1861	2512.5974	1751.3	864
978.3137	2513.9309	1750.4	860.7
978.4413	2515.2638	1771.85	856.5
978.5689	2516.596	1744.1	854.7
978.6964	2517.9275	1747.2	854.25
978.8239	2519.2583	1741.5	851.15
978.9513	2520.5884	1741.4	851.45
979.0788	2521.9178	1739.05	850.5
979.2062	2523.2465	1737.6	849.95
979.3335	2524.5745	1733.65	846.9
979.4608	2525.9018	1724.95	836.45
979.5881	2527.2284	1724.85	833.75
979.7154	2528.5543	1736.05	850
979.8426	2529.8796	1720.3	830.6
979.9698	2531.2041	1721.5	831.25
980.0969	2532.5279	1711.95	827.1
980.224	2533.851	1715.65	826.25
980.3511	2535.1735	1709.25	818.8
980.4781	2536.4952	1712.6	824
980.6052	2537.8163	1718.05	827.15
980.7321	2539.1366	1708.7	817.8
980.8591	2540.4562	1711.95	819.85
980.986	2541.7752	1700.2	808.05
981.1129	2543.0935	1701.85	809.6
981.2397	2544.411	1695.45	804.35
981.3665	2545.7279	1700.65	810.45
981.4933	2547.0441	1700.7	809.05
981.62	2548.3596	1708.05	816.3
981.7467	2549.6744	1694.45	804.5
981.8734	2550.9885	1692.8	802.85
982.0001	2552.3019	1694.65	804.65
982.1267	2553.6146	1688.85	799.85
982.2532	2554.9266	1688.05	795.95
982.3798	2556.2379	1681.55	791.2
982.5063	2557.5485	1691.35	802.75
982.6327	2558.8585	1681.15	783
982.7592	2560.1677	1685.95	791.25
982.8856	2561.4762	1676.3	785.4
983.0119	2562.7841	1681.9	789.45
983.1383	2564.0913	1668.1	779.75
983.2646	2565.3977	1675.95	785.95
983.3908	2566.7035	1672.95	782.2
983.517	2568.0086	1673.1	784.25
983.6432	2569.313	1668.85	776.05
983.7694	2570.6167	1674	780.15
983.8955	2571.9197	1677.5	788.05
984.0216	2573.222	1669.5	774.9
984.1476	2574.5236	1661.85	770.35
984.2737	2575.8246	1659.1	765.9
984.3996	2577.1248	1664.8	776.05
984.5256	2578.4244	1654.7	767.1
984.6515	2579.7232	1656.6	768.3
984.7774	2581.0214	1677.1	761.95
984.9032	2582.3189	1657.2	766.75
985.029	2583.6157	1663.35	768.8
985.1548	2584.9118	1653.7	762.5
985.2806	2586.2072	1657.3	764.85
985.4063	2587.5019	1656.9	767.55
985.5319	2588.7959	1662.85	771.7
985.6576	2590.0893	1667.4	775.75
985.7832	2591.3819	1656.25	765.3
985.9087	2592.6739	1653.8	764.15
986.0343	2593.9652	1659.15	765.6
986.1597	2595.2557	1652.5	763.2
986.2852	2596.5456	1656.45	763.8
986.4106	2597.8348	1648.6	758.75
986.536	2599.1234	1648	759.95
986.6614	2600.4112	1662.65	772.75
986.7867	2601.6983	1651.6	757.45
986.912	2602.9848	1650.4	760.15
987.0372	2604.2705	1652.85	756
987.1624	2605.5556	1648.5	758.95
987.2876	2606.84	1639.75	752.05
987.4128	2608.1237	1637.75	746.05
987.5379	2609.4067	1638.85	748.4
987.6629	2610.689	1644.9	747.85
987.788	2611.9707	1636.05	744.4
987.913	2613.2516	1636.7	743.45
988.0379	2614.5319	1623.4	734.95
988.1629	2615.8115	1623.45	733.6
988.2878	2617.0903	1620.85	730.75
988.4126	2618.3685	1626.5	737.8
988.5375	2619.6461	1621.4	731.15
988.6622	2620.9229	1614.7	723.9
988.787	2622.199	1617.75	728.1
988.9117	2623.4745	1616.35	726.35
989.0364	2624.7493	1622.35	734.05
989.161	2626.0234	1612.1	723.8
989.2857	2627.2968	1609.2	720.8
989.4102	2628.5695	1608.1	717.8
989.5348	2629.8415	1613.3	722.85
989.6593	2631.1128	1608.5	717.25
989.7837	2632.3835	1611.45	722.75
989.9082	2633.6535	1603.9	714.9
990.0326	2634.9228	1602.6	713.5
990.1569	2636.1914	1595.3	707.9
990.2812	2637.4593	1604.35	714.7
990.4055	2638.7265	1601.2	713.25
990.5298	2639.9931	1587.95	700.9
990.654	2641.259	1593.3	705.1
990.7782	2642.5242	1586.55	697.7
990.9023	2643.7887	1581.65	692.9
991.0264	2645.0525	1579.4	690.35
991.1505	2646.3156	1585.15	698.05
991.2745	2647.5781	1581.95	694.8
991.3985	2648.8398	1577.45	688.55
991.5225	2650.1009	1614.85	692.35
991.6464	2651.3613	1578.4	690.2
991.7703	2652.6211	1575.35	684.85
991.8942	2653.8801	1565.2	678.25
992.018	2655.1385	1572.1	679.75
992.1418	2656.3961	1569.4	680.75
992.2655	2657.6531	1577.7	688.55
992.3892	2658.9094	1574.95	685
992.5129	2660.1651	1570.5	681.2
992.6366	2661.42	1572.6	686.1
992.7602	2662.6743	1572.95	683.1
992.8837	2663.9279	1579.35	692.9
993.0073	2665.1808	1571	682.5
993.1307	2666.433	1568.25	678.9
993.2542	2667.6846	1574.75	685.35
993.3776	2668.9354	1582.05	692.3
993.501	2670.1856	1578.7	691.05
993.6244	2671.4351	1581.8	695.95
993.7477	2672.6839	1585.05	695.95
993.8709	2673.9321	1589	700.3
993.9942	2675.1795	1571	683.55
994.1174	2676.4263	1583.25	696.3
994.2405	2677.6724	1587.3	699.6
994.3637	2678.9179	1581.35	694.2
994.4868	2680.1626	1585.2	696.7
994.6098	2681.4067	1582.95	694.15
994.7328	2682.6501	1582.5	694.35
994.8558	2683.8928	1579.35	688.8
994.9788	2685.1348	1573.65	685.75
995.1017	2686.3761	1566.75	677.3
995.2245	2687.6168	1566.45	679.4
995.3474	2688.8568	1560.95	673.35
995.4702	2690.0961	1558.8	671.1
995.5929	2691.3348	1562.3	674.95
995.7156	2692.5727	1553.35	665.05
995.8383	2693.81	1547.35	659.45
995.961	2695.0466	1543.45	655.7
996.0836	2696.2826	1549.65	660.65
996.2062	2697.5178	1549	657.95
996.3287	2698.7524	1551.3	663.05
996.4512	2699.9863	1556.65	667.15
996.5737	2701.2195	1549.3	664.8
996.6961	2702.452	1558.8	671.7
996.8185	2703.6839	1565.3	674.8
996.9408	2704.9151	1558.3	670.85
997.0631	2706.1456	1559	671
997.1854	2707.3755	1566.7	678.75
997.3077	2708.6046	1589.35	698.8
997.4299	2709.8331	1578	690.25
997.552	2711.0609	1588.45	699.25
997.6742	2712.2881	1600.95	715.05
997.7963	2713.5145	1598.4	708.6
997.9183	2714.7403	1606.55	721
998.0403	2715.9654	1616.55	730.3
998.1623	2717.1899	1635.05	733.95
998.2842	2718.4136	1648.85	761.1
998.4062	2719.6367	1652.75	765.55
998.528	2720.8591	1666.3	772.6
998.6498	2722.0809	1673.85	785.95
998.7716	2723.3019	1678.6	786.9
998.8934	2724.5223	1691.2	803.2
999.0151	2725.7421	1695.05	806.3
999.1368	2726.9611	1697.25	808.1
999.2584	2728.1795	1698.75	808.35
999.38	2729.3972	1693.75	807.2
999.5016	2730.6142	1688.2	788.95
999.6231	2731.8306	1659.55	770.2
999.7446	2733.0462	1648.2	758.55
999.8661	2734.2612	1632.3	738.45
999.9875	2735.4756	1614.8	725.6
1000.1089	2736.6892	1597.15	710.55
1000.2302	2737.9022	1575.9	691
1000.3515	2739.1145	1565.6	678.75
1000.4728	2740.3262	1564.6	668.6
1000.594	2741.5372	1545	657.7
1000.7152	2742.7475	1538.3	650.45
1000.8363	2743.9571	1525.35	636.5
1000.9575	2745.1661	1519.95	628.3
1001.0785	2746.3744	1505.15	618.85
1001.1996	2747.582	1492.7	606.55
1001.3206	2748.7889	1486.75	596.3
1001.4415	2749.9952	1485.2	597.5
1001.5625	2751.2008	1480.2	591.1
1001.6833	2752.4057	1467.85	578.1
1001.8042	2753.61	1466	578.9
1001.925	2754.8136	1467.3	577.9
1002.0458	2756.0165	1465.45	580.65
1002.1665	2757.2188	1462.1	576.8
1002.2872	2758.4204	1463.6	578.5
1002.4078	2759.6213	1467.8	579.55
1002.5285	2760.8215	1468.45	577.45
1002.649	2762.0211	1466.45	576.9
1002.7696	2763.22	1463.25	572.45
1002.8901	2764.4182	1451.7	563.1
1003.0106	2765.6158	1455.3	568.6
1003.131	2766.8127	1451.15	563.5
1003.2514	2768.009	1438.5	552.8
1003.3717	2769.2045	1444.45	556.9
1003.492	2770.3994	1436.6	547.2
1003.6123	2771.5936	1441.1	556.55
1003.7325	2772.7872	1438.35	554
1003.8527	2773.9801	1433.45	546.05
1003.9729	2775.1723	1450.65	549.65
1004.093	2776.3639	1427.25	540.2
1004.2131	2777.5548	1434.05	546.3
1004.3331	2778.745	1431.85	545.6
1004.4531	2779.9346	1429.15	544.8
1004.5731	2781.1235	1432.9	545.55
1004.693	2782.3117	1438.5	553.4
1004.8129	2783.4992	1433.85	549.1
1004.9328	2784.6861	1439.75	554.65
1005.0526	2785.8723	1446.8	560.25
1005.1723	2787.0579	1450.25	564.75
1005.2921	2788.2428	1455.4	568.8
1005.4118	2789.427	1462	577.85
1005.5314	2790.6106	1465.5	581.35
1005.651	2791.7935	1487	600.7
1005.7706	2792.9757	1487.45	602.1
1005.8902	2794.1573	1497.05	608.7
1006.0097	2795.3382	1510.7	623.35
1006.1291	2796.5184	1518.55	633.65
1006.2485	2797.698	1529.4	642.75
1006.3679	2798.8769	1546.1	659.2
1006.4873	2800.0551	1553.95	669.15
1006.6066	2801.2327	1573.5	688.25
1006.7258	2802.4096	1579.5	697.25
1006.8451	2803.5859	1610.15	724.1
1006.9642	2804.7615	1630.55	744.15
1007.0834	2805.9364	1636.45	752.05
1007.2025	2807.1106	1662.5	776.4
1007.3216	2808.2842	1692.25	806.75
1007.4406	2809.4572	1723.25	837.15
1007.5596	2810.6294	1764.45	879.1
1007.6785	2811.801	1794.6	909.65
1007.7975	2812.972	1824.75	940.25
1007.9163	2814.1423	1879.9	994.7
1008.0352	2815.3119	1907.85	1023.85
1008.154	2816.4808	1958.85	1075.7
1008.2727	2817.6491	2012.05	1126.15
1008.3914	2818.8167	2062.55	1179.85
1008.5101	2819.9837	2114.35	1224.15
1008.6288	2821.15	2158.65	1273.35
1008.7474	2822.3157	2203.95	1322.35
1008.8659	2823.4807	2260.25	1376.8
1008.9844	2824.645	2311.6	1426.1
1009.1029	2825.8086	2355.05	1471.45
1009.2214	2826.9716	2401.7	1516.7
1009.3398	2828.134	2459.8	1576.4
1009.4581	2829.2957	2490.55	1606.6
1009.5764	2830.4567	2522	1637.6
1009.6947	2831.617	2537.55	1651.4
1009.813	2832.7767	2551	1667.6
1009.9312	2833.9358	2561.55	1677.8
1010.0493	2835.0941	2559.6	1675.4
1010.1675	2836.2519	2543.5	1660.4
1010.2855	2837.4089	2522.85	1637.35
1010.4036	2838.5653	2521.25	1637.25
1010.5216	2839.7211	2509.3	1627.6
1010.6396	2840.8761	2509.3	1622.2
1010.7575	2842.0306	2536.75	1654.2
1010.8754	2843.1843	2566.65	1684.95
1010.9932	2844.3374	2594.4	1712.1
1011.111	2845.4899	2655.35	1769.35
1011.2288	2846.6417	2715.8	1830.45
1011.3465	2847.7928	2782.75	1898.95
1011.4642	2848.9433	2854.65	1968.9
1011.5818	2850.0931	2928.3	2046.15
1011.6995	2851.2422	2978.7	2092.8
1011.817	2852.3907	3058.6	2175.3
1011.9345	2853.5385	3103.35	2216.6
1012.052	2854.6857	3179.4	2285.1
1012.1695	2855.8323	3221.25	2336.05
1012.2869	2856.9781	3279.75	2396.25
1012.4042	2858.1233	3321	2436.15
1012.5216	2859.2679	3366.7	2485.75
1012.6389	2860.4118	3433.7	2551.2
1012.7561	2861.555	3467.95	2579.4
1012.8733	2862.6976	3496.75	2612.05
1012.9905	2863.8395	3522.8	2637.4
1013.1076	2864.9808	3538.25	2653.4
1013.2247	2866.1214	3559.75	2675.9
1013.3417	2867.2614	3579.95	2695.4
1013.4587	2868.4007	3600.25	2715.95
1013.5757	2869.5393	3600.95	2714.75
1013.6926	2870.6773	3615.4	2728.45
1013.8095	2871.8146	3635	2748.65
1013.9263	2872.9513	3632.05	2744.9
1014.0431	2874.0874	3641.8	2756.75
1014.1599	2875.2227	3617	2732.15
1014.2766	2876.3574	3604.3	2719.8
1014.3933	2877.4915	3577.2	2693.1
1014.51	2878.6249	3549.45	2668.2
1014.6266	2879.7577	3519.8	2634.65
1014.7431	2880.8898	3518.75	2625.3
1014.8596	2882.0212	3503.2	2621.85
1014.9761	2883.152	3492.5	2610.25
1015.0925	2884.2821	3470.6	2587.75
1015.2089	2885.4116	3467.5	2586.35
1015.3253	2886.5405	3469.95	2586.1
1015.4416	2887.6686	3477.9	2592.85
1015.5579	2888.7962	3480.8	2600
1015.6741	2889.923	3489.4	2607.2
1015.7903	2891.0493	3492.55	2610.15
1015.9065	2892.1748	3497.2	2614.8
1016.0226	2893.2997	3517.35	2633.75
1016.1387	2894.424	3533.6	2652.35
1016.2547	2895.5476	3532.8	2650.5
1016.3707	2896.6706	3573.7	2687.8
1016.4866	2897.7929	3591.65	2707
1016.6025	2898.9145	3624	2741
1016.7184	2900.0355	3643.05	2762.4
1016.8342	2901.1559	3681.9	2797.5
1016.95	2902.2756	3715.2	2831.85
1017.0658	2903.3946	3739.35	2859.2
1017.1815	2904.513	3769.95	2883.55
1017.2971	2905.6308	3806.1	2925.05
1017.4127	2906.7479	3824.95	2945.7
1017.5283	2907.8643	3870.9	2987.45
1017.6439	2908.9801	3877.25	2996.7
1017.7594	2910.0953	3877.8	2995.65
1017.8748	2911.2098	3879.35	2994
1017.9902	2912.3236	3863.05	2972.75
1018.1056	2913.4368	3854	2968.7
1018.2209	2914.5494	3838.55	2955.45
1018.3362	2915.6613	3800.95	2909.85
1018.4515	2916.7725	3774.55	2890.65
1018.5667	2917.8831	3747.4	2864.9
1018.6819	2918.9931	3719.25	2835.6
1018.797	2920.1024	3685.2	2802.15
1018.9121	2921.211	3671.2	2785.95
1019.0271	2922.319	3647.95	2765.75
1019.1421	2923.4264	3648.35	2766.2
1019.2571	2924.5331	3622.45	2742.55
1019.372	2925.6391	3612.45	2729.7
1019.4869	2926.7445	3615.65	2736.3
1019.6017	2927.8493	3606.25	2723.55
1019.7165	2928.9534	3598.85	2714.65
1019.8313	2930.0569	3599.9	2716.6
1019.946	2931.1597	3608.15	2726.4
1020.0606	2932.2619	3587.65	2705.25
1020.1753	2933.3634	3581.3	2700.15
1020.2899	2934.4643	3597.8	2707.9
1020.4044	2935.5645	3570.55	2681.65
1020.5189	2936.6641	3550.6	2665.25
1020.6334	2937.763	3514.45	2633.3
1020.7478	2938.8613	3447.45	2563.65
1020.8622	2939.959	3422.85	2536.6
1020.9765	2941.056	3345.2	2463.85
1021.0908	2942.1523	3264.6	2383.4
1021.2051	2943.248	3190.15	2307.4
1021.3193	2944.3431	3092.35	2211.55
1021.4334	2945.4375	2993.25	2110.5
1021.5476	2946.5313	2889.05	2007.85
1021.6617	2947.6244	2789.55	1905.35
1021.7757	2948.7169	2695.15	1812.55
1021.8897	2949.8087	2596.6	1715.95
1022.0037	2950.8999	2519.15	1639.3
1022.1176	2951.9904	2425.3	1544.75
1022.2315	2953.0803	2368.9	1485.35
1022.3453	2954.1696	2301.55	1420.8
1022.4591	2955.2582	2255.75	1374.45
1022.5728	2956.3462	2206.85	1324.75
1022.6865	2957.4335	2173.05	1290.15
1022.8002	2958.5202	2138.5	1253.2
1022.9138	2959.6062	2108	1225.85
1023.0274	2960.6916	2083	1203.05
1023.141	2961.7764	2064.7	1182.4
1023.2545	2962.8605	2042.6	1161.05
1023.3679	2963.9439	2038.2	1159.25
1023.4813	2965.0267	2027.75	1144.65
1023.5947	2966.1089	2037.05	1133.55
1023.708	2967.1905	2011.9	1129.45
1023.8213	2968.2714	2003.6	1123.45
1023.9346	2969.3516	1999.95	1119.85
1024.0478	2970.4312	2014.9	1125.3
1024.1609	2971.5102	2013.45	1133.1
1024.274	2972.5885	2005.75	1123.55
1024.3871	2973.6662	2017.65	1132.35
1024.5002	2974.7432	2006.5	1126.5
1024.6132	2975.8196	2008.95	1126.6
1024.7261	2976.8954	1995.35	1113.95
1024.839	2977.9705	1988.25	1108.75
1024.9519	2979.045	1974.15	1093.8
1025.0647	2980.1188	1957.75	1078.3
1025.1775	2981.192	1941.9	1062.2
1025.2902	2982.2645	1920.2	1038.05
1025.4029	2983.3364	1897.75	1016.45
1025.5156	2984.4077	1861.25	980.85
1025.6282	2985.4783	1855	969
1025.7407	2986.5483	1813.75	932.75
1025.8532	2987.6177	1777.8	897.95
1025.9657	2988.6864	1748.35	866.75
1026.0782	2989.7545	1713.65	831.05
1026.1906	2990.8219	1682.35	801.7
1026.3029	2991.8887	1654.25	772.9
1026.4152	2992.9548	1614.05	731.3
1026.5275	2994.0204	1586.65	705.95
1026.6397	2995.0852	1558.7	678.9
1026.7519	2996.1495	1533.7	651.95
1026.864	2997.2131	1503.2	620.6
1026.9761	2998.276	1486.75	607.5
1027.0882	2999.3383	1464.85	582.8
1027.2002	3000.4	1448.15	565.15
1027.3122	3001.4611	1422.85	541.85
1027.4241	3002.5215	1415.35	536.3
1027.536	3003.5812	1401.55	522.05
1027.6478	3004.6404	1381.55	500.35
1027.7596	3005.6989	1369.45	486.6
1027.8714	3006.7567	1366.95	486.85
1027.9831	3007.8139	1378.75	472.9
1028.0947	3008.8705	1346.6	464.45
1028.2064	3009.9264	1342.6	457.95
1028.3179	3010.9818	1333.2	452.25
1028.4295	3012.0364	1328.25	447
1028.541	3013.0905	1327.05	443.55
1028.6524	3014.1439	1316.95	435.8
1028.7638	3015.1966	1317.25	437.3
1028.8752	3016.2487	1319.95	440.05
1028.9865	3017.3002	1322.6	436.35
1029.0978	3018.3511	1304.15	426.9
1029.209	3019.4013	1304.05	425.35
1029.3202	3020.4509	1308.4	427.3
1029.4314	3021.4998	1306.75	426.9
1029.5425	3022.5481	1305.25	423.45
1029.6535	3023.5958	1303.85	423.45
1029.7645	3024.6428	1307.15	425.25
1029.8755	3025.6892	1302	425.05
1029.9864	3026.735	1314.75	433.3
1030.0973	3027.7802	1304.05	424.25
1030.2082	3028.8247	1306.7	425.6
1030.319	3029.8685	1307.2	425.9
1030.4297	3030.9118	1311.4	429.8
1030.5404	3031.9544	1318.5	439.6
1030.6511	3032.9963	1311.8	432.75
1030.7617	3034.0376	1320.7	439.35
1030.8723	3035.0783	1334.75	454
1030.9829	3036.1184	1334.2	452.4
1031.0934	3037.1578	1335.35	457.85
1031.2038	3038.1966	1332.15	450.85
1031.3142	3039.2348	1332	454.3
1031.4246	3040.2723	1350.15	460.95
1031.5349	3041.3092	1323.95	446.7
1031.6452	3042.3455	1334.15	453.65
1031.7554	3043.3811	1327.7	449.15
1031.8656	3044.4161	1326.45	447.2
1031.9758	3045.4505	1323.8	445.6
1032.0859	3046.4842	1323.75	442.2
1032.1959	3047.5173	1317.4	437.9
1032.3059	3048.5498	1308.9	429.85
1032.4159	3049.5816	1306.15	427
1032.5258	3050.6128	1308.2	428.95
1032.6357	3051.6434	1297.05	417.15
1032.7455	3052.6734	1294.5	414.8
1032.8553	3053.7027	1292.5	414.6
1032.9651	3054.7314	1285.3	406.4
1033.0748	3055.7594	1280	400.6
1033.1845	3056.7868	1276.45	398.2
1033.2941	3057.8136	1269.1	390.05
1033.4037	3058.8398	1266.55	386.7
1033.5132	3059.8653	1259.8	382.1
1033.6227	3060.8902	1258.05	379.35
1033.7321	3061.9145	1257.1	378.4
1033.8415	3062.9381	1245.65	367.3
1033.9509	3063.9612	1266.5	370.65
1034.0602	3064.9835	1237.4	358.85
1034.1694	3066.0053	1238.3	356.9
1034.2787	3067.0264	1227.6	348.6
1034.3878	3068.0469	1226.9	347.95
1034.497	3069.0668	1225.65	342.15
1034.6061	3070.086	1215.95	339.65
1034.7151	3071.1046	1201.95	321.1
1034.8241	3072.1226	1202.65	322.5
1034.9331	3073.1399	1194.9	316.8
1035.042	3074.1567	1181.35	302.85
1035.1508	3075.1727	1177.05	296.05
1035.2597	3076.1882	1166.4	288.1
1035.3684	3077.203	1161.6	284.1
1035.4772	3078.2173	1154	274.35
1035.5859	3079.2308	1149.65	265.7
1035.6945	3080.2438	1143.2	260.25
1035.8031	3081.2561	1136.95	258.75
1035.9117	3082.2678	1127.25	249.15
1036.0202	3083.2789	1122.3	245.15
1036.1286	3084.2893	1113.9	234.35
1036.2371	3085.2991	1114.35	234.7
1036.3454	3086.3083	1107.55	223.1
1036.4538	3087.3169	1101.45	223.25
1036.562	3088.3248	1094.05	212.4
1036.6703	3089.3321	1097.55	215.9
1036.7785	3090.3388	1085.85	206.4
1036.8866	3091.3449	1087.4	210.45
1036.9948	3092.3503	1085.3	203.8
1037.1028	3093.3551	1074.65	197.55
1037.2108	3094.3593	1071.5	193.4
1037.3188	3095.3629	1068.35	192.9
1037.4267	3096.3658	1063.8	184.05
1037.5346	3097.3681	1065.85	187.75
1037.6425	3098.3698	1062.5	180.8
1037.7503	3099.3708	1061.85	175
1037.858	3100.3713	1060.6	181.15
1037.9657	3101.3711	1055.15	173.75
1038.0734	3102.3702	1188.7	174.25
1038.181	3103.3688	1056.6	176.3
1038.2886	3104.3667	1044	165.7
1038.3961	3105.364	1046.45	168.2
1038.5036	3106.3607	1042.9	163.35
1038.611	3107.3568	1045	165.55
1038.7184	3108.3522	1042.15	165.1
1038.8257	3109.347	1042.1	163.95
1038.933	3110.3412	1035.2	153.75
1039.0403	3111.3348	1038.15	160.35
1039.1475	3112.3277	1034.95	154.55
1039.2547	3113.32	1029.75	152.15
1039.3618	3114.3117	1031.85	151.15
1039.4689	3115.3028	1029.8	151.85
1039.5759	3116.2932	1026.9	147
1039.6829	3117.2831	1032.95	151.15
1039.7898	3118.2723	1025.85	147.6
1039.8967	3119.2608	1024.3	145.65
1040.0035	3120.2488	1021.8	143.4
1040.1103	3121.2361	1019.2	139.8
1040.2171	3122.2229	1018.55	139.3
1040.3238	3123.209	1019.45	139.5
1040.4305	3124.1944	1017.25	139.2
1040.5371	3125.1793	1018.05	141.5
1040.6437	3126.1635	1016.1	139.1
1040.7502	3127.1471	1014.4	136.8
1040.8567	3128.1301	1011.55	133.2
1040.9631	3129.1125	1009.5	132.8
1041.0695	3130.0942	1011.95	134.15
1041.1759	3131.0753	1019.6	131
1041.2822	3132.0558	1010.3	129.4
1041.3884	3133.0357	1006	126.8
1041.4946	3134.015	1005.1	124.45
1041.6008	3134.9936	1005.8	125.9
1041.7069	3135.9716	1020.35	121.85
1041.813	3136.949	999.8	122.85
1041.919	3137.9258	1022.2	127.55
1042.025	3138.902	1005.45	121.2
1042.1309	3139.8775	1001.15	122.8
1042.2368	3140.8524	995.95	116.35
1042.3427	3141.8267	996.45	114.35
1042.4485	3142.8004	997.8	120.3
1042.5542	3143.7735	1002	120.1
1042.6599	3144.7459	994.2	116.6
1042.7656	3145.7178	994.7	116.35
1042.8712	3146.689	992.35	115.25
1042.9768	3147.6596	993.15	114.5
1043.0823	3148.6295	993.25	117
1043.1878	3149.5989	987.9	111.05
1043.2932	3150.5676	986	109.3
1043.3986	3151.5357	986.45	110.4
1043.5039	3152.5032	985.65	107.6
1043.6092	3153.4701	985	106.85
1043.7145	3154.4364	984.8	103.7
1043.8197	3155.402	980.9	103.05
1043.9248	3156.367	988.8	108.35
1044.03	3157.3315	1011.4	106.75
1044.135	3158.2952	979.95	104.3
1044.24	3159.2584	979.45	100.3
1044.345	3160.221	977.6	98.4
1044.4499	3161.1829	981.65	102.45
1044.5548	3162.1442	978.25	99.6
1044.6596	3163.105	974.7	96.15
1044.7644	3164.065	975.45	98.55
1044.8692	3165.0245	978.25	95.95
1044.9739	3165.9834	974.1	99.2
1045.0785	3166.9416	974.5	97.55
1045.1831	3167.8993	978.35	101.65
1045.2877	3168.8563	974.1	96.65
1045.3922	3169.8127	971.55	93.5
1045.4966	3170.7684	971.65	94.1
1045.6011	3171.7236	974.85	95.4
1045.7054	3172.6782	971.6	93.3
1045.8098	3173.6321	969.3	90.2
1045.914	3174.5854	974.35	92.2
1046.0183	3175.5381	968.75	90.7
1046.1224	3176.4902	965.25	87.5
1046.2266	3177.4417	963.4	85.9
1046.3307	3178.3926	968.35	91.5
1046.4347	3179.3428	964.85	88.15
1046.5387	3180.2924	963.75	86.05
1046.6427	3181.2415	966.3	87.85
1046.7466	3182.1899	966.75	88.7
1046.8504	3183.1377	967.2	89.75
1046.9542	3184.0848	966.55	84.75
1047.058	3185.0314	963.2	85.7
1047.1617	3185.9773	962.55	84.65
1047.2654	3186.9227	962.05	82.9
1047.369	3187.8674	960	83.15
1047.4726	3188.8115	963.45	82.65
1047.5761	3189.755	959.8	82.75
1047.6796	3190.6979	962.45	85.1
1047.783	3191.6402	956.5	79.85
1047.8864	3192.5818	959.3	82.2
1047.9898	3193.5229	977.2	81.15
1048.0931	3194.4633	955.15	77.6
1048.1963	3195.4031	957.15	75.7
1048.2995	3196.3423	953.2	75.8
1048.4027	3197.2809	954.3	78.9
1048.5058	3198.2189	954.8	78.15
1048.6089	3199.1563	964.6	80.9
1048.7119	3200.0931	956.4	81.3
1048.8148	3201.0292	951.8	74.85
1048.9178	3201.9648	954.1	78.15
1049.0206	3202.8997	955.75	75.75
1049.1235	3203.834	955.25	76.9
1049.2262	3204.7677	956.6	79.4
1049.329	3205.7008	956.05	77.6
1049.4317	3206.6333	950.9	76.3
1049.5343	3207.5652	952.55	75.25
1049.6369	3208.4964	955.25	79.95
1049.7394	3209.4271	949	75.2
1049.8419	3210.3571	947.9	70.65
1049.9444	3211.2865	951.75	74.2
1050.0468	3212.2154	952.7	72.5
1050.1491	3213.1436	948.35	69.9
1050.2514	3214.0712	955.15	70.65
1050.3537	3214.9982	950.4	74.65
1050.4559	3215.9246	947.6	68.95
1050.5581	3216.8503	948.6	73.15
1050.6602	3217.7755	947.4	70.25
1050.7623	3218.7001	948.05	72.4
1050.8643	3219.624	949.55	70.85
1050.9663	3220.5473	946.25	70.1
1051.0682	3221.4701	946.4	67.3
1051.1701	3222.3922	946.35	66.7
1051.2719	3223.3137	944.3	66
1051.3737	3224.2346	941.5	65.75
1051.4754	3225.1549	943.35	67.25
1051.5771	3226.0746	943.3	67.4
1051.6788	3226.9937	941.05	65.15
1051.7804	3227.9121	942.8	68.5
1051.8819	3228.83	940.15	62.75
1051.9834	3229.7473	943.3	67.2
1052.0849	3230.6639	941.2	65.45
1052.1863	3231.5799	938.55	61.55
1052.2876	3232.4954	940.5	61.55
1052.3889	3233.4102	942.8	66.5
1052.4902	3234.3244	941.7	65.9
1052.5914	3235.238	939.15	64.45
1052.6926	3236.151	964.7	64.85
1052.7937	3237.0634	940.25	66.8
1052.8948	3237.9752	936.45	60.8
1052.9958	3238.8864	938.35	61.75
1053.0968	3239.797	936.65	58.55
1053.1977	3240.7069	937.05	59.15
1053.2986	3241.6163	937.5	60.1
1053.3994	3242.5251	931.05	53.65
1053.5002	3243.4332	933.1	57.6
1053.6009	3244.3408	937.2	60.95
1053.7016	3245.2477	933.75	58.2
1053.8022	3246.154	937.3	61.1
1053.9028	3247.0598	935.05	58.35
1054.0034	3247.9649	934.2	57.45
1054.1039	3248.8694	931.85	55.8
1054.2043	3249.7733	931.8	56.75
1054.3047	3250.6766	932.85	54.95
1054.4051	3251.5793	932.5	54.45
1054.5054	3252.4814	928.8	52.05
1054.6056	3253.3829	930.4	54.45
1054.7058	3254.2838	931.25	55.15
1054.806	3255.1841	930.7	55.15
1054.9061	3256.0838	929.8	54.6
1055.0061	3256.9829	929.05	55
1055.1062	3257.8814	931.15	52.65
1055.2061	3258.7792	927.7	49.45
1055.306	3259.6765	927.6	50.9
1055.4059	3260.5731	927.65	52.5
1055.5057	3261.4692	927.15	49.65
1055.6055	3262.3647	922.8	44.8
1055.7052	3263.2595	923.6	49.45
1055.8049	3264.1538	922.95	47.45
1055.9045	3265.0474	923.45	48.95
1056.0041	3265.9404	920.8	46.45
1056.1036	3266.8329	919.4	43.8
1056.2031	3267.7247	929.15	43.25
1056.3025	3268.616	917.9	44.6
1056.4019	3269.5066	914.85	38.55
1056.5013	3270.3966	917.8	39.25
1056.6005	3271.286	913.5	39.55
