Software Version:	3.9.2.0
Unit SN:	10000200
Spectrometer SN:	6960
Date:	3/8/2024 12:10:06 PM
Data Line Index:	25
Spectral Points:	2048
Integration time (ms):	125
Averages:	20
Delay (ms):	30000
Sequence Number:	1
Processing:	dark subtract
Laser Power (mW):	305
Laser Current (mA):	822
Laser Diode Temp (C):	25.1
Laser Case Temp (C):	25.7
System Temp (C):	25.7
Spectrometer Temp (C):	23.6
CCD Temp (C):	-0.002
Secondary Temp (C):	20.004
Heatsink Temp (C):	20.036
CCDPCB Temp (C):	34.817
SecondaryPCB Temp (C):	28.526

Wavelength	RamanShift	Raw Counts	Dark Subtracted
787.061	30.1047	451.8	45.75
787.2016	32.3739	450.9	47.05
787.3422	34.6426	451.65	43.45
787.4828	36.9109	457.75	49.45
787.6235	39.1787	468.95	55.55
787.7642	41.4461	475.35	55.2
787.9049	43.7131	483.75	62.15
788.0456	45.9796	493.85	70.05
788.1863	48.2456	502.4	73.2
788.3271	50.5112	510.6	78.25
788.4679	52.7764	524.35	88.35
788.6087	55.0411	532.4	92.35
788.7496	57.3054	542.8	97.05
788.8904	59.5692	550	101.6
789.0313	61.8326	564.1	114
789.1722	64.0955	571.35	119.35
789.3132	66.3579	590.95	132.4
789.4541	68.6199	610.05	146.8
789.5951	70.8815	645.05	177.85
789.7361	73.1426	730.7	259.65
789.8771	75.4032	962.4	487.95
790.0181	77.6634	1517.95	1041.2
790.1592	79.9231	2826.85	2344.45
790.3003	82.1824	5613.7	5122.2
790.4414	84.4412	10536.5	10028.65
790.5825	86.6995	17118.05	16591.55
790.7237	88.9574	23288.7	22745.4
790.8648	91.2148	27293.8	26738.2
791.006	93.4717	28899.25	28335.65
791.1472	95.7282	28954.35	28387.1
791.2885	97.9842	28461.75	27889.15
791.4297	100.2398	27550	26975.45
791.571	102.4949	26495.55	25918.45
791.7123	104.7495	25321	24740.4
791.8536	107.0036	24140.6	23559.75
791.9949	109.2573	23071.3	22490.7
792.1363	111.5105	22163.15	21580.8
792.2777	113.7632	21262.45	20678.1
792.4191	116.0154	20584.05	19988.5
792.5605	118.2672	20066.25	19477.25
792.7019	120.5185	19564.5	18968.55
792.8434	122.7693	19187.55	18592.6
792.9849	125.0197	18880.45	18281.6
793.1264	127.2696	18539.4	17934.9
793.2679	129.519	18335.9	17730.15
793.4094	131.7679	18009.75	17400.7
793.551	134.0163	17671.05	17058.75
793.6926	136.2642	17234.65	16621.1
793.8342	138.5117	16788.35	16163.75
793.9758	140.7587	16268.55	15650.35
794.1175	143.0052	15782.8	15160.55
794.2591	145.2512	15310.55	14689.7
794.4008	147.4967	14877.5	14256
794.5425	149.7417	14487.4	13861.8
794.6842	151.9863	14199.05	13567.85
794.826	154.2304	14041.45	13405.45
794.9677	156.4739	13856.4	13219.3
795.1095	158.717	13750.05	13108.8
795.2513	160.9596	13588.9	12941.7
795.3931	163.2017	13363.15	12717.3
795.535	165.4433	13070.2	12422.95
795.6768	167.6844	12723.35	12073.65
795.8187	169.925	12340.4	11687.9
795.9606	172.1651	11905.15	11248.4
796.1025	174.4047	11547.2	10890.8
796.2445	176.6439	11208.4	10547.9
796.3864	178.8825	10920.95	10255.75
796.5284	181.1206	10740.15	10071.75
796.6704	183.3582	10585.15	9913.4
796.8124	185.5954	10455	9780.45
796.9544	187.832	10398.3	9718.4
797.0965	190.0681	10343.75	9661.6
797.2386	192.3037	10300.85	9617.65
797.3806	194.5388	10301.35	9613.95
797.5228	196.7734	10299.25	9614.7
797.6649	199.0075	10372.15	9684.2
797.807	201.2411	10474.35	9782.5
797.9492	203.4742	10565.95	9872.15
798.0914	205.7068	10726.7	10029.6
798.2336	207.9389	10893.25	10196.25
798.3758	210.1704	11080.35	10391.7
798.518	212.4015	11220.8	10541.65
798.6603	214.632	11378.6	10703.15
798.8025	216.862	11535.55	10862.85
798.9448	219.0915	11641.2	10966.6
799.0871	221.3205	11750.4	11069.6
799.2294	223.549	11822.1	11148.1
799.3718	225.777	11867.95	11191.95
799.5141	228.0044	11876.45	11191.7
799.6565	230.2314	11958.5	11271.55
799.7989	232.4578	11945.6	11257.05
799.9413	234.6837	12009.55	11310.25
800.0837	236.909	12017.65	11316.6
800.2262	239.1339	11993.9	11268.1
800.3687	241.3582	11930.15	11220.9
800.5111	243.582	11855.65	11115.75
800.6536	245.8053	11797.2	11068.35
800.7961	248.0281	11734.2	11011.8
800.9387	250.2503	11733.1	11010.65
801.0812	252.472	11809.45	11083.55
801.2238	254.6932	11922.15	11196.15
801.3664	256.9139	12059.8	11332.85
801.509	259.134	12276.1	11545.85
801.6516	261.3536	12545.2	11816.45
801.7942	263.5727	12928	12196.6
801.9369	265.7912	13302.3	12574.8
802.0795	268.0092	13821.25	13089.05
802.2222	270.2267	14216.65	13486.6
802.3649	272.4436	14575.45	13842.55
802.5076	274.6601	14767.35	14024.85
802.6504	276.8759	14839.2	14102.25
802.7931	279.0913	14774.85	14034.4
802.9359	281.3061	14663	13921.65
803.0787	283.5204	14604.5	13857.75
803.2215	285.7341	14627.45	13876.85
803.3643	287.9473	14652.25	13903.3
803.5071	290.16	14598.5	13847.5
803.6499	292.3721	14548.35	13803.5
803.7928	294.5837	14578.75	13831
803.9357	296.7947	14735	13990.05
804.0786	299.0052	14966	14218
804.2215	301.2152	15073.55	14322.45
804.3644	303.4246	15071.6	14324.8
804.5074	305.6334	14850.4	14101.6
804.6503	307.8418	14484.3	13733.5
804.7933	310.0495	13985.2	13231.95
804.9363	312.2568	13433.8	12681.7
805.0793	314.4635	12839.05	12081.85
805.2223	316.6696	12314.15	11557.5
805.3653	318.8752	11883.9	11117.65
805.5084	321.0802	11663.35	10906.35
805.6514	323.2847	11681.05	10918.35
805.7945	325.4887	11738.7	10977.1
805.9376	327.692	11820.55	11056.7
806.0807	329.8949	11882.15	11116
806.2238	332.0972	11767	11002.85
806.367	334.2989	11569.75	10795.2
806.5101	336.5001	11274.25	10506.1
806.6533	338.7007	10980.35	10208.65
806.7965	340.9008	10736.15	9963.9
806.9397	343.1003	10451.95	9677.85
807.0829	345.2992	10213.25	9437.35
807.2261	347.4976	9984.7	9208.4
807.3693	349.6955	9879.5	9097.9
807.5126	351.8927	9776.55	8998.1
807.6559	354.0895	9668.6	8877.3
807.7991	356.2856	9577.8	8792.7
807.9424	358.4812	9505.75	8721.45
808.0857	360.6763	9444.7	8656.75
808.2291	362.8707	9402.95	8613
808.3724	365.0646	9410.95	8622.5
808.5158	367.258	9483.35	8691.2
808.6591	369.4508	9580.8	8784.7
808.8025	371.643	9754.05	8962.55
808.9459	373.8346	9918.8	9121.95
809.0893	376.0257	10151.55	9354.05
809.2327	378.2162	10311.1	9514.1
809.3762	380.4062	10354	9555.35
809.5196	382.5956	10247.8	9454.35
809.6631	384.7844	10071.85	9283.65
809.8066	386.9726	9848.75	9059.9
809.9501	389.1603	9715.75	8929.05
810.0936	391.3474	9628.85	8805.6
810.2371	393.5339	9573.9	8779.75
810.3806	395.7199	9564.6	8776.55
810.5241	397.9052	9690	8899.65
810.6677	400.09	9857.35	9066.35
810.8113	402.2743	10115.45	9321.8
810.9548	404.4579	10408.35	9616.65
811.0984	406.641	10688.15	9889.1
811.2421	408.8235	10897.55	10100.1
811.3857	411.0054	11046	10248.35
811.5293	413.1868	11099.45	10296.6
811.673	415.3675	11095.4	10287.7
811.8166	417.5477	11023.2	10213
811.9603	419.7273	10912.65	10102.65
812.104	421.9064	10831.05	10015.5
812.2477	424.0848	10772.4	9962.2
812.3914	426.2627	10607.85	9801.95
812.5351	428.4399	10332	9520.25
812.6788	430.6166	9936.7	9121.75
812.8226	432.7928	9484.55	8671
812.9663	434.9683	9071.65	8257.45
813.1101	437.1432	8803.2	7988.1
813.2539	439.3176	8571.45	7758.45
813.3977	441.4914	8446	7636.8
813.5415	443.6645	8385.55	7571.2
813.6853	445.8371	8340.8	7526.4
813.8291	448.0091	8313.35	7500.35
813.973	450.1806	8343.65	7529.15
814.1168	452.3514	8330.45	7513.35
814.2607	454.5216	8381.9	7554.15
814.4046	456.6913	8401.5	7581.55
814.5485	458.8603	8455.1	7637.85
814.6924	461.0288	8509.2	7691.85
814.8363	463.1967	8530.15	7714.55
814.9802	465.3639	8515.8	7698.6
815.1241	467.5306	8466.5	7646.85
815.2681	469.6967	8443.6	7625.25
815.412	471.8622	8450.3	7632.1
815.556	474.0271	8462.9	7646
815.7	476.1914	8462.8	7640.75
815.844	478.3551	8476	7654.7
815.988	480.5182	8542.6	7723.4
816.132	482.6807	8655	7837.4
816.276	484.8426	8887.5	8071.15
816.4201	487.0039	9296.1	8474.45
816.5641	489.1647	9824.95	9001.5
816.7082	491.3248	10227.45	9403.4
816.8522	493.4843	10368.3	9547
816.9963	495.6432	10265.65	9442.4
817.1404	497.8015	10060.15	9233.55
817.2845	499.9592	9860.7	9029.95
817.4286	502.1163	9562.1	8730.2
817.5727	504.2728	9160.45	8332.05
817.7168	506.4287	8780.95	7955.7
817.861	508.5839	8398.5	7571.25
818.0051	510.7386	8193.4	7362.4
818.1493	512.8927	8105.85	7275.85
818.2935	515.0461	8099.8	7267.5
818.4377	517.199	8216.75	7383
818.5818	519.3512	8492.6	7661.35
818.726	521.5029	8925.5	8087.2
818.8703	523.6539	9393.8	8559.55
819.0145	525.8043	9633.95	8799.2
819.1587	527.9541	9525.85	8685.8
819.303	530.1033	9188.35	8351.3
819.4472	532.2519	8859.15	8022.3
819.5915	534.3999	8661.85	7822.9
819.7357	536.5472	8638.55	7802.05
819.88	538.694	8786.85	7951.45
820.0243	540.8401	9069.2	8230.2
820.1686	542.9856	9285.2	8442.2
820.3129	545.1305	9329.2	8486.85
820.4572	547.2748	9268.95	8424.25
820.6016	549.4185	9101.5	8255.75
820.7459	551.5615	9000.65	8156.8
820.8902	553.704	9036.8	8191.2
821.0346	555.8458	9190.05	8349.1
821.1789	557.987	9431.35	8592.15
821.3233	560.1276	9770.55	8928.6
821.4677	562.2675	10324.65	9482
821.6121	564.4069	11098.9	10252.85
821.7565	566.5456	11912.95	11071.25
821.9009	568.6837	12315.8	11471.95
822.0453	570.8212	11848.85	11004.15
822.1897	572.958	10829.35	9984
822.3342	575.0942	9794.45	8953.35
822.4786	577.2299	9078.6	8233.2
822.6231	579.3648	8697.55	7858.55
822.7675	581.4992	8600.95	7765.25
822.912	583.6329	8706.3	7871.95
823.0565	585.766	8919.05	8084.65
823.201	587.8985	9186.9	8346.95
823.3454	590.0304	9394.35	8528.25
823.4899	592.1616	9468.65	8617.85
823.6345	594.2922	9369.25	8521.55
823.779	596.4222	9112.65	8261.4
823.9235	598.5515	8841.85	7993.35
824.068	600.6802	8569.3	7719.35
824.2126	602.8083	8362.45	7511.05
824.3571	604.9358	8308.85	7457
824.5017	607.0626	8353.3	7501.25
824.6462	609.1888	8506.3	7649.85
824.7908	611.3144	8799.45	7946.5
824.9354	613.4393	9072.75	8216.65
825.08	615.5636	9359.9	8503.8
825.2246	617.6873	9495.75	8641.3
825.3692	619.8103	9450.4	8590.3
825.5138	621.9327	9191.3	8335.95
825.6584	624.0544	8820.05	7968.55
825.803	626.1756	8452.95	7597.55
825.9477	628.2961	8200.8	7345
826.0923	630.4159	8094.9	7236.8
826.237	632.5351	8076.05	7218.15
826.3816	634.6537	8076.65	7219.6
826.5263	636.7716	8102.75	7239.2
826.6709	638.8889	8095.25	7236.3
826.8156	641.0056	8141.8	7280.5
826.9603	643.1216	8158.6	7295.95
827.105	645.237	8119.65	7258.1
827.2497	647.3518	8007.6	7149.95
827.3944	649.4659	7859.4	7003.3
827.5391	651.5793	7759.2	6901.2
827.6838	653.6922	7719.45	6862.9
827.8285	655.8043	7694.75	6838.1
827.9733	657.9159	7685.75	6828.85
828.118	660.0268	7662.8	6805.45
828.2627	662.137	7690.4	6830.65
828.4075	664.2466	7726.55	6859
828.5522	666.3556	7720.85	6859.65
828.697	668.4639	7668.75	6804.9
828.8418	670.5716	7573.6	6712.35
828.9865	672.6786	7487.5	6624.85
829.1313	674.785	7386.4	6519.9
829.2761	676.8907	7317.55	6452.85
829.4209	678.9958	7267.2	6405.75
829.5657	681.1002	7255.8	6392.2
829.7105	683.204	7245.9	6377.45
829.8553	685.3072	7219.2	6354.2
830.0001	687.4097	7199.75	6335.05
830.1449	689.5115	7212.85	6347.75
830.2898	691.6127	7204.7	6339.1
830.4346	693.7132	7190.05	6323.7
830.5794	695.8131	7218.3	6333.1
830.7243	697.9123	7262.45	6393.05
830.8691	700.0109	7304.35	6433
831.014	702.1089	7417.3	6546.65
831.1588	704.2061	7530.65	6661.8
831.3037	706.3028	7676.7	6806.95
831.4486	708.3987	7799.3	6931.8
831.5935	710.4941	7859.95	6990.5
831.7383	712.5887	7864.7	6993.3
831.8832	714.6827	7888.2	7013.4
832.0281	716.7761	7914.9	7045.4
832.173	718.8688	8055.9	7182.3
832.3179	720.9608	8187.25	7313
832.4628	723.0522	8393.2	7520.3
832.6077	725.1429	8573.15	7700.75
832.7527	727.233	8803.65	7931.85
832.8976	729.3224	9030.25	8156.85
833.0425	731.4112	9058.55	8185.55
833.1874	733.4993	8913.35	8038.15
833.3324	735.5867	8576.95	7705.65
833.4773	737.6735	8206.85	7333.05
833.6222	739.7596	7862.35	6989.25
833.7672	741.845	7660.85	6788.1
833.9122	743.9298	7497.2	6621.25
834.0571	746.014	7439.15	6564.45
834.2021	748.0974	7406.5	6530.6
834.347	750.1802	7416.05	6537.5
834.492	752.2624	7425.15	6546.8
834.637	754.3439	7506.6	6626.85
834.782	756.4247	7633.35	6750.05
834.9269	758.5048	7827.85	6949.25
835.0719	760.5843	8122.95	7243.55
835.2169	762.6631	8585	7704.75
835.3619	764.7413	9277.3	8399.85
835.5069	766.8188	10260	9381.55
835.6519	768.8956	11188.8	10311.35
835.7969	770.9718	11902.85	11023.8
835.9419	773.0473	12017.45	11142.4
836.0869	775.1221	11729.45	10851.35
836.232	777.1962	11425.9	10547.9
836.377	779.2697	11443.05	10562.9
836.522	781.3426	11772.2	10873.55
836.667	783.4147	12094.1	11215.35
836.8121	785.4862	12208.95	11328.35
836.9571	787.557	11890.6	11014.05
837.1021	789.6271	11157.35	10273.5
837.2472	791.6966	10194.25	9317.1
837.3922	793.7654	9245.45	8360.75
837.5373	795.8335	8531.4	7652.45
837.6823	797.901	8067.45	7187.65
837.8274	799.9678	7791.85	6909.55
837.9724	802.0339	7656.55	6775.45
838.1175	804.0993	7579.8	6687.8
838.2626	806.1641	7519.65	6636.35
838.4076	808.2282	7430.05	6549.2
838.5527	810.2916	7334.95	6448.05
838.6978	812.3544	7212.95	6332
838.8428	814.4164	7138.9	6258.7
838.9879	816.4778	7165.25	6280.85
839.133	818.5385	7205.45	6320.45
839.2781	820.5986	7356.9	6472.35
839.4232	822.658	7663	6777.45
839.5682	824.7166	8133.5	7249.7
839.7133	826.7747	8876.75	7992.9
839.8584	828.832	9750.4	8869.45
840.0035	830.8886	10539.2	9652.9
840.1486	832.9446	10970.8	10086.45
840.2937	834.9999	10929.7	10046.8
840.4388	837.0545	10469.7	9580.5
840.5839	839.1085	9866.95	8980.35
840.729	841.1618	9285.65	8394.85
840.8741	843.2143	8817.2	7931.1
841.0192	845.2662	8465.8	7578.95
841.1643	847.3175	8253.15	7367.2
841.3095	849.368	8074.45	7188.3
841.4546	851.4179	7984.3	7100.3
841.5997	853.467	7876.1	6987.9
841.7448	855.5155	7824.45	6941
841.8899	857.5633	7746.7	6858.4
842.0351	859.6105	7651.55	6765.35
842.1802	861.6569	7539.7	6653.95
842.3253	863.7027	7434.8	6545.7
842.4704	865.7478	7353.35	6463.05
842.6156	867.7922	7258.7	6369
842.7607	869.8359	7197.45	6310.05
842.9058	871.8789	7204.55	6317.85
843.0509	873.9212	7277.7	6354.15
843.1961	875.9629	7345.4	6454.65
843.3412	878.0039	7464.6	6575.1
843.4863	880.0441	7580.1	6693.1
843.6315	882.0837	7689.65	6802.3
843.7766	884.1226	7769	6877.55
843.9218	886.1609	7947.1	7061.2
844.0669	888.1984	8163.25	7275.8
844.212	890.2352	8449.3	7560.15
844.3572	892.2714	8621.65	7729.1
844.5023	894.3069	8590.1	7698.8
844.6475	896.3416	8315.7	7426.4
844.7926	898.3757	8007.85	7117.85
844.9377	900.4091	7765.6	6873.4
845.0829	902.4418	7705.35	6809.15
845.228	904.4739	7752.35	6859.65
845.3732	906.5052	7901.15	7010.65
845.5183	908.5358	7924.6	7033.45
845.6635	910.5658	7791.75	6898.45
845.8086	912.595	7521.3	6629.55
845.9538	914.6236	7215.2	6323.7
846.0989	916.6515	6950.1	6058.8
846.2441	918.6786	6797.8	5905.6
846.3892	920.7051	6751.7	5857.8
846.5344	922.7309	6773.45	5880.5
846.6795	924.756	6810.65	5922.8
846.8246	926.7804	6902.05	6008.5
846.9698	928.8041	6943.75	6047.6
847.1149	930.8272	7046.1	6153.05
847.2601	932.8495	7036.9	6141.55
847.4052	934.8711	7047.75	6152.35
847.5504	936.892	7016.45	6124.05
847.6955	938.9123	7079.2	6186.65
847.8407	940.9318	7213.5	6321.35
847.9858	942.9506	7332.45	6436.35
848.131	944.9688	7329.3	6433.95
848.2761	946.9862	7200.75	6308.75
848.4213	949.003	6958.1	6063.85
848.5664	951.019	6716	5821.25
848.7115	953.0344	6592.9	5700.2
848.8567	955.0491	6531	5637.4
849.0018	957.063	6556.65	5661.25
849.147	959.0763	6626.6	5734.6
849.2921	961.0888	6673.35	5778.95
849.4373	963.1007	6756.7	5864.05
849.5824	965.1119	6772.25	5884.15
849.7275	967.1223	6740.75	5852.65
849.8727	969.1321	6711.2	5822.85
850.0178	971.1412	6655	5764.75
850.1629	973.1495	6641.85	5749.75
850.3081	975.1572	6691.7	5763.05
850.4532	977.1641	6675.7	5781.25
850.5983	979.1704	6647.3	5754.85
850.7435	981.1759	6616	5718.8
850.8886	983.1808	6611.6	5717.2
851.0337	985.1849	6589.7	5683.6
851.1788	987.1884	6640.7	5745.3
851.324	989.1911	6746	5846.7
851.4691	991.1932	6842.3	5947.2
851.6142	993.1945	6895.4	6000.95
851.7593	995.1951	6896.4	6002.15
851.9045	997.1951	6875.1	5975.2
852.0496	999.1943	6809.1	5914.2
852.1947	1001.1928	6838.6	5946.2
852.3398	1003.1906	6907.65	6013.15
852.4849	1005.1877	7104.1	6206.25
852.63	1007.1841	7318.85	6423.2
852.7751	1009.1798	7460.4	6568.7
852.9202	1011.1748	7416	6524.15
853.0653	1013.1691	7208.75	6315.45
853.2104	1015.1627	6978.55	6083.3
853.3555	1017.1556	6719.85	5824.9
853.5006	1019.1477	6519.05	5623.4
853.6457	1021.1392	6365.1	5473.95
853.7908	1023.1299	6282.35	5392.7
853.9359	1025.12	6310.35	5420.75
854.081	1027.1093	6403.95	5518.8
854.2261	1029.0979	6579.05	5696.7
854.3712	1031.0859	6772	5886
854.5163	1033.0731	6858.25	5969.35
854.6613	1035.0596	6856.85	5963.5
854.8064	1037.0454	6738.1	5843.5
854.9515	1039.0304	6609.2	5714.5
855.0965	1041.0148	6475	5579.45
855.2416	1042.9985	6342.4	5445.7
855.3867	1044.9814	6255.2	5362.5
855.5317	1046.9636	6189.3	5294.65
855.6768	1048.9452	6198.95	5306.25
855.8219	1050.926	6281.65	5387.35
855.9669	1052.9061	6354.2	5459.05
856.112	1054.8855	6421.7	5525.9
856.257	1056.8642	6457.55	5560.8
856.4021	1058.8421	6526.2	5630.7
856.5471	1060.8194	6549.4	5650.1
856.6921	1062.7959	6604.2	5708.75
856.8372	1064.7717	6650.1	5752.6
856.9822	1066.7469	6785	5889.8
857.1272	1068.7213	6894.6	5997.9
857.2723	1070.695	7042.35	6144.95
857.4173	1072.6679	7174.65	6280.2
857.5623	1074.6402	7292.25	6395.75
857.7073	1076.6117	7323.05	6421.75
857.8523	1078.5826	7157.2	6256.9
857.9973	1080.5527	6900.35	6001.25
858.1423	1082.5221	6647.65	5753.7
858.2873	1084.4908	6525.9	5630.95
858.4323	1086.4587	6433	5536.65
858.5773	1088.426	6429.75	5535.55
858.7223	1090.3925	6458.4	5558.05
858.8673	1092.3584	6513.85	5619
859.0123	1094.3235	6586.2	5688.5
859.1573	1096.2879	6736.15	5841.4
859.3022	1098.2515	6918.35	6023.5
859.4472	1100.2145	7192.35	6297.15
859.5922	1102.1767	7497.9	6598.1
859.7371	1104.1382	7828.8	6936.85
859.8821	1106.099	8203.8	7304.85
860.027	1108.0591	8579.15	7684.6
860.172	1110.0185	8852	7954.65
860.3169	1111.9771	9024.9	8129.65
860.4619	1113.9351	8966.05	8069.5
860.6068	1115.8923	8889.5	7993.15
860.7517	1117.8488	8798.75	7900.5
860.8967	1119.8045	8596.6	7702.1
861.0416	1121.7596	8355.55	7459.5
861.1865	1123.7139	8020.9	7127.7
861.3314	1125.6675	7849.2	6954
861.4763	1127.6204	7859.65	6964.75
861.6212	1129.5726	7872.8	6976.95
861.7661	1131.524	7852.8	6957.7
861.911	1133.4748	7645.8	6751.95
862.0559	1135.4248	7366.25	6471
862.2008	1137.3741	7086.45	6191.65
862.3457	1139.3226	6875.2	5978.3
862.4905	1141.2705	6785.9	5890.85
862.6354	1143.2176	6731.8	5830.7
862.7803	1145.164	6759.7	5862
862.9251	1147.1097	6666.9	5770.9
863.07	1149.0546	6489.8	5591.6
863.2148	1150.9989	6294.15	5396.8
863.3597	1152.9424	6119.85	5222.7
863.5045	1154.8852	6001.6	5104.25
863.6493	1156.8272	5933.7	5038.85
863.7942	1158.7686	5932.05	5028.3
863.939	1160.7092	5965.9	5068.15
864.0838	1162.6491	6027.85	5127.5
864.2286	1164.5883	6145.45	5250.8
864.3734	1166.5267	6327.5	5429.1
864.5182	1168.4644	6518.15	5619.45
864.663	1170.4014	6775.9	5873.65
864.8078	1172.3377	7081.45	6186.75
864.9526	1174.2732	7460.15	6565.35
865.0974	1176.2081	8036.7	7142.2
865.2421	1178.1421	8801.7	7901.6
865.3869	1180.0755	9723.5	8826.8
865.5317	1182.0082	10467	9574.45
865.6764	1183.9401	10883.8	9989.5
865.8212	1185.8713	10727	9835.85
865.9659	1187.8017	10165.95	9276.15
866.1106	1189.7315	9423	8535.55
866.2554	1191.6605	8731.65	7841.85
866.4001	1193.5888	8230.95	7341.5
866.5448	1195.5163	7874.75	6981.15
866.6895	1197.4432	7638.55	6743.35
866.8342	1199.3693	7488.4	6591.75
866.9789	1201.2947	7401.35	6506.8
867.1236	1203.2193	7332	6437.2
867.2683	1205.1432	7301.25	6406.35
867.413	1207.0664	7291.75	6396.75
867.5576	1208.9889	7285.1	6386.8
867.7023	1210.9106	7302.05	6406.45
867.847	1212.8316	7345.3	6451.85
867.9916	1214.7519	7438.85	6535.6
868.1363	1216.6715	7502.9	6608.6
868.2809	1218.5903	7605.9	6712.6
868.4255	1220.5084	7747.9	6853.05
868.5701	1222.4257	7907.25	7012.55
868.7148	1224.3424	8048.55	7153.4
868.8594	1226.2583	8276.25	7379.1
869.004	1228.1735	8557.75	7662.45
869.1486	1230.0879	8874.1	7978.25
869.2932	1232.0016	9266.15	8372.8
869.4377	1233.9146	9576.45	8681.55
869.5823	1235.8269	9757.8	8862.25
869.7269	1237.7384	9760.5	8866.45
869.8715	1239.6492	9630.15	8735.15
870.016	1241.5592	9563.9	8668.95
870.1606	1243.4686	9666.95	8771.7
870.3051	1245.3772	9978.9	9086.2
870.4496	1247.285	10443.1	9549.6
870.5941	1249.1922	10928.5	10032.7
870.7387	1251.0986	11368.75	10476.4
870.8832	1253.0042	11737.7	10845.35
871.0277	1254.9092	12073.45	11180.85
871.1722	1256.8134	12335.25	11443.35
871.3167	1258.7169	12577.6	11681.75
871.4611	1260.6196	12742.95	11849.7
871.6056	1262.5216	13006.7	12111.8
871.7501	1264.4229	13316.6	12423.15
871.8945	1266.3234	13594	12698
872.039	1268.2232	13816.5	12921.25
872.1834	1270.1223	13951.5	13055.7
872.3278	1272.0207	14039.75	13142.75
872.4723	1273.9183	13999	13098.55
872.6167	1275.8151	13878.95	12984.95
872.7611	1277.7113	13778.85	12882.75
872.9055	1279.6067	13891.25	12996.9
873.0499	1281.5014	14352.25	13457.35
873.1943	1283.3953	15256.3	14359
873.3386	1285.2885	16453	15557.6
873.483	1287.181	17793.75	16896
873.6274	1289.0727	19188.7	18294.1
873.7717	1290.9637	20236.75	19340.95
873.9161	1292.854	20991.25	20096.6
874.0604	1294.7435	21158.45	20262.85
874.2047	1296.6323	20860.6	19965.95
874.349	1298.5204	20286.25	19387.95
874.4933	1300.4077	19501.05	18606.4
874.6376	1302.2943	18686.8	17792.6
874.7819	1304.1802	17752.35	16856.45
874.9262	1306.0653	16711.85	15815.85
875.0705	1307.9497	15685.8	14789.65
875.2147	1309.8333	14818.9	13924.05
875.359	1311.7162	14168.55	13276.1
875.5032	1313.5984	13739.85	12841.9
875.6475	1315.4798	13491.9	12586.45
875.7917	1317.3605	13412.4	12501.1
875.9359	1319.2405	13305.25	12406.8
876.0801	1321.1197	13023.95	12124.85
876.2243	1322.9982	12521.1	11622.95
876.3685	1324.876	11980.15	11084.4
876.5127	1326.753	11346.8	10451.8
876.6569	1328.6293	10795.7	9899.2
876.801	1330.5048	10314.9	9416.2
876.9452	1332.3796	9901.55	9005.15
877.0893	1334.2537	9549.45	8625.7
877.2335	1336.127	9223.35	8328.35
877.3776	1337.9996	9050.9	8154.8
877.5217	1339.8714	8942.7	8047.2
877.6658	1341.7426	8906.2	7965.65
877.8099	1343.6129	8912.15	8012.75
877.954	1345.4826	8872.9	7975.2
878.0981	1347.3515	8852.25	7953.15
878.2422	1349.2196	8774.25	7876.7
878.3862	1351.087	8767.3	7871.3
878.5303	1352.9537	8799.2	7900.55
878.6743	1354.8197	8896.4	8000.95
878.8184	1356.6849	9100.6	8207.2
878.9624	1358.5493	9334.5	8438.25
879.1064	1360.4131	9676.2	8782.55
879.2504	1362.276	10015.8	9121.15
879.3944	1364.1383	10224.2	9329.95
879.5384	1365.9998	10217.55	9316.5
879.6823	1367.8606	9941.9	9045.05
879.8263	1369.7206	9558.55	8661.65
879.9702	1371.5799	9207.55	8309.2
880.1142	1373.4384	8896.55	8001.25
880.2581	1375.2962	8582.8	7684.55
880.402	1377.1533	8164	7268.6
880.5459	1379.0096	7699.65	6805.35
880.6898	1380.8652	7249.95	6356.7
880.8337	1382.7201	6844.3	5950.2
880.9776	1384.5742	6509.15	5614.85
881.1215	1386.4275	6267	5370
881.2653	1388.2802	6088.9	5195.95
881.4092	1390.132	5922.1	5024.65
881.553	1391.9832	5820.6	4924.05
881.6968	1393.8336	5777.85	4881.05
881.8406	1395.6832	5725.45	4828.4
881.9844	1397.5322	5670.55	4775.65
882.1282	1399.3803	5627.9	4728.95
882.272	1401.2278	5565.85	4671
882.4158	1403.0745	5549.9	4653.85
882.5595	1404.9204	5512.1	4618.65
882.7033	1406.7656	5504.35	4609.5
882.847	1408.6101	5482.35	4586.7
882.9908	1410.4538	5482.9	4588.3
883.1345	1412.2968	5552.2	4656.1
883.2782	1414.139	5608	4714.3
883.4219	1415.9805	5681.85	4785.85
883.5656	1417.8213	5799.95	4883.25
883.7092	1419.6613	5939.1	5045.15
883.8529	1421.5006	6152.7	5258.45
883.9965	1423.3391	6453.25	5557.95
884.1402	1425.1769	6854.5	5958.6
884.2838	1427.0139	7419.9	6524.15
884.4274	1428.8502	8144.6	7249.9
884.571	1430.6858	8832.1	7940.2
884.7146	1432.5206	9393.05	8498.65
884.8582	1434.3547	9706.1	8809.4
885.0018	1436.188	9798.1	8902.8
885.1453	1438.0206	9696.2	8800.85
885.2889	1439.8524	9532.45	8638.4
885.4324	1441.6835	9355.75	8463.5
885.5759	1443.5139	9254.9	8358.85
885.7194	1445.3435	9157.7	8262.1
885.8629	1447.1724	9126.2	8231.75
886.0064	1449.0005	9091.6	8196.95
886.1499	1450.8279	9016.1	8122.05
886.2933	1452.6545	9010.85	8116.55
886.4368	1454.4804	9043.55	8150.85
886.5802	1456.3056	9066.1	8164.15
886.7237	1458.13	8981.7	8090.3
886.8671	1459.9536	8806.25	7914.35
887.0105	1461.7766	8488.65	7596.55
887.1539	1463.5987	8096.2	7200.75
887.2972	1465.4202	7718.4	6824.75
887.4406	1467.2409	7298.6	6404.15
887.584	1469.0608	6910.8	6016.65
887.7273	1470.88	6561.65	5668.05
887.8706	1472.6984	6226.05	5333.35
888.0139	1474.5161	5960.45	5061.95
888.1572	1476.3331	5764.2	4873.25
888.3005	1478.1493	5634.35	4739.75
888.4438	1479.9648	5518.1	4624.35
888.5871	1481.7795	5427.5	4535
888.7303	1483.5935	5394.25	4500.6
888.8736	1485.4067	5347.65	4454.05
889.0168	1487.2192	5321.7	4425.8
889.16	1489.031	5287.95	4392.3
889.3032	1490.842	5259.55	4366.9
889.4464	1492.6522	5253.25	4361.45
889.5896	1494.4618	5220.75	4327.75
889.7327	1496.2705	5199.4	4306.55
889.8759	1498.0785	5167.5	4274.4
890.019	1499.8858	5126.75	4231.25
890.1622	1501.6924	5070.1	4176.8
890.3053	1503.4981	5043.3	4150.35
890.4484	1505.3032	4974.1	4080.3
890.5914	1507.1075	4931.25	4038.85
890.7345	1508.911	4875.65	3984.3
890.8776	1510.7138	4821.75	3929
891.0206	1512.5159	4758.65	3866.85
891.1637	1514.3172	4701.85	3809.35
891.3067	1516.1178	4651.1	3760.7
891.4497	1517.9176	4618.65	3724.3
891.5927	1519.7166	4568.25	3677.25
891.7357	1521.515	4538.3	3640.75
891.8786	1523.3126	4512.95	3621.4
892.0216	1525.1094	4472.65	3581.05
892.1645	1526.9055	4460.75	3570.45
892.3074	1528.7008	4432.35	3539.35
892.4503	1530.4954	4401.75	3507.85
892.5932	1532.2893	4406.25	3516.65
892.7361	1534.0824	4390	3493.7
892.879	1535.8747	4404.05	3515.6
893.0218	1537.6663	4391.1	3502.15
893.1647	1539.4572	4387.45	3495.1
893.3075	1541.2473	4406.4	3514.6
893.4503	1543.0367	4405.9	3517.95
893.5931	1544.8253	4442.85	3546.85
893.7359	1546.6132	4483.2	3591.85
893.8787	1548.4003	4512.8	3614.1
894.0214	1550.1867	4598.75	3700.25
894.1642	1551.9723	4681.2	3787.25
894.3069	1553.7572	4816.2	3925.5
894.4496	1555.5414	4961.3	4070.45
894.5923	1557.3247	5165.55	4277.85
894.735	1559.1074	5404.6	4518
894.8777	1560.8893	5711.95	4826.1
895.0204	1562.6705	5992.6	5103.6
895.163	1564.4509	6240.8	5352.2
895.3056	1566.2305	6426.2	5540.2
895.4482	1568.0094	6561.15	5677
895.5908	1569.7876	6604.2	5715.55
895.7334	1571.565	6629.95	5741.3
895.876	1573.3417	6665.25	5776.15
896.0186	1575.1176	6705.35	5817.35
896.1611	1576.8928	6762.1	5875.95
896.3036	1578.6672	6865.15	5981.2
896.4461	1580.4409	7005.25	6123.7
896.5886	1582.2138	7175.3	6286.2
896.7311	1583.986	7381.15	6496.4
896.8736	1585.7575	7566.2	6680.9
897.0161	1587.5282	7797.25	6911
897.1585	1589.2981	8015.8	7132.35
897.3009	1591.0673	8188.9	7303.5
897.4433	1592.8358	8369.1	7482.9
897.5857	1594.6035	8508.55	7622.3
897.7281	1596.3704	8559.1	7673.75
897.8705	1598.1366	8633.2	7747.7
898.0128	1599.9021	8687.3	7801.75
898.1551	1601.6668	8694.65	7808.5
898.2975	1603.4308	8748.3	7861.6
898.4398	1605.194	8860.9	7969.45
898.5821	1606.9564	9062.85	8179.6
898.7243	1608.7182	9361.15	8473.15
898.8666	1610.4791	9795	8914.25
899.0088	1612.2394	10316.1	9435.4
899.1511	1613.9988	10895.9	10013.65
899.2933	1615.7576	11515.7	10632.3
899.4355	1617.5156	11999.95	11108.2
899.5776	1619.2728	12295.6	11410.7
899.7198	1621.0293	12251.95	11366.8
899.862	1622.785	11911.45	11023.2
900.0041	1624.54	11346	10460.05
900.1462	1626.2942	10646.55	9763.3
900.2883	1628.0477	9871.15	8984.45
900.4304	1629.8005	9178.6	8291.9
900.5725	1631.5525	8509.95	7627.85
900.7145	1633.3037	7942.1	7060.7
900.8566	1635.0542	7485.3	6603.2
900.9986	1636.804	7105.55	6222.6
901.1406	1638.553	6851.4	5898.65
901.2826	1640.3013	6577.05	5694.25
901.4245	1642.0488	6410.4	5525.35
901.5665	1643.7955	6366.65	5485.05
901.7085	1645.5416	6340.5	5456.45
901.8504	1647.2868	6381.25	5498.6
901.9923	1649.0313	6404.45	5520.9
902.1342	1650.7751	6492.95	5607
902.2761	1652.5181	6562	5680.8
902.4179	1654.2604	6723.85	5841.15
902.5598	1656.0019	6909.9	6029
902.7016	1657.7427	7179.2	6297.2
902.8434	1659.4828	7532.6	6647.15
902.9852	1661.222	7853.95	6971.45
903.127	1662.9606	8030.45	7147.85
903.2687	1664.6984	7985.5	7102
903.4105	1666.4354	7615.1	6731.45
903.5522	1668.1717	7045.1	6159.4
903.6939	1669.9072	6401.5	5518.95
903.8356	1671.642	5793.3	4905.15
903.9773	1673.3761	5297.45	4415.9
904.119	1675.1094	4861.4	3977.85
904.2606	1676.8419	4548	3665
904.4022	1678.5737	4301.1	3418
904.5439	1680.3048	4123.4	3240.2
904.6855	1682.0351	3972.95	3092.35
904.827	1683.7646	3870.8	2983.2
904.9686	1685.4934	3765.4	2883.8
905.1101	1687.2215	3694.45	2810.35
905.2517	1688.9488	3615.3	2731.7
905.3932	1690.6754	3538.1	2655.65
905.5347	1692.4012	3492.9	2609.6
905.6761	1694.1263	3465.05	2582.75
905.8176	1695.8506	3425.25	2544.1
905.9591	1697.5742	3388.25	2505.65
906.1005	1699.297	3342.8	2461.65
906.2419	1701.0191	3311.3	2428.55
906.3833	1702.7404	3275.15	2396.15
906.5246	1704.461	3238.1	2354.55
906.666	1706.1808	3214.25	2330.8
906.8073	1707.8999	3181	2298.15
906.9487	1709.6182	3159.6	2277.7
907.09	1711.3358	3136.7	2256.45
907.2313	1713.0527	3117.5	2237.95
907.3725	1714.7688	3099.3	2210.4
907.5138	1716.4841	3087.05	2206.4
907.655	1718.1987	3064.5	2177.7
907.7962	1719.9126	3051.95	2172.3
907.9374	1721.6257	3031.3	2146.8
908.0786	1723.338	3018.2	2136.4
908.2198	1725.0496	3017.4	2135.7
908.3609	1726.7605	3003.5	2124.65
908.502	1728.4706	2989.9	2108.85
908.6431	1730.18	2965.35	2082.55
908.7842	1731.8886	2958.7	2079.8
908.9253	1733.5964	2967.8	2066.05
909.0664	1735.3036	2929.75	2048.45
909.2074	1737.0099	2915.3	2033.2
909.3484	1738.7156	2903.15	2022.5
909.4894	1740.4204	2883.4	1999.1
909.6304	1742.1246	2875.4	1991.35
909.7714	1743.8279	2861.15	1978.8
909.9123	1745.5306	2838.2	1957.7
910.0532	1747.2325	2837.5	1958.1
910.1941	1748.9336	2817.4	1937.8
910.335	1750.634	2811.35	1928.2
910.4759	1752.3336	2801.45	1922.15
910.6168	1754.0325	2786.5	1906.8
910.7576	1755.7307	2776.05	1896.75
910.8984	1757.4281	2777.35	1895.3
911.0392	1759.1247	2783.5	1893.7
911.18	1760.8206	2783.75	1897.9
911.3208	1762.5158	2770.85	1886.25
911.4615	1764.2102	2761.6	1880.5
911.6022	1765.9039	2741.25	1857.05
911.7429	1767.5968	2738.85	1856.95
911.8836	1769.289	2735.25	1854.45
912.0243	1770.9804	2720.45	1838.05
912.1649	1772.6711	2720.45	1837.55
912.3056	1774.361	2723.85	1841.25
912.4462	1776.0502	2719.75	1838.5
912.5868	1777.7386	2714.7	1829.95
912.7274	1779.4263	2697.5	1816.65
912.8679	1781.1132	2696.5	1816.2
913.0084	1782.7994	2690.05	1807.6
913.149	1784.4849	2685.55	1806.25
913.2895	1786.1696	2706.55	1805.55
913.4299	1787.8535	2678.3	1800.15
913.5704	1789.5367	2668.65	1788.05
913.7108	1791.2192	2657.6	1775.7
913.8513	1792.9009	2676.05	1767.6
913.9917	1794.5818	2647.05	1764.6
914.132	1796.2621	2648.9	1768.95
914.2724	1797.9415	2641.8	1759.15
914.4128	1799.6202	2626.9	1747.05
914.5531	1801.2982	2629.15	1748.05
914.6934	1802.9755	2625.45	1743.5
914.8337	1804.6519	2612.8	1732.05
914.9739	1806.3277	2602.2	1720.85
915.1142	1808.0027	2591.4	1711.55
915.2544	1809.6769	2594.55	1714.2
915.3946	1811.3504	2591.9	1711.2
915.5348	1813.0231	2580.45	1700
915.675	1814.6951	2574.25	1691.9
915.8151	1816.3664	2583.8	1700.85
915.9553	1818.0369	2571.95	1689.1
916.0954	1819.7067	2566.4	1686.35
916.2355	1821.3757	2576.6	1693.95
916.3755	1823.044	2576.75	1694.55
916.5156	1824.7115	2569.55	1687.7
916.6556	1826.3783	2562.2	1681.4
916.7956	1828.0443	2564.65	1684.7
916.9356	1829.7096	2546.15	1664.25
917.0756	1831.3741	2539.4	1653.95
917.2155	1833.0379	2544.05	1665.9
917.3555	1834.701	2550.3	1667.9
917.4954	1836.3633	2529.7	1648.35
917.6353	1838.0248	2520.2	1638.2
917.7751	1839.6856	2522.6	1641.65
917.915	1841.3457	2517.55	1637.35
918.0548	1843.005	2519.85	1636.9
918.1946	1844.6636	2523	1644.4
918.3344	1846.3214	2518.15	1636.55
918.4742	1847.9785	2512.95	1633.35
918.6139	1849.6349	2513.5	1632.3
918.7537	1851.2904	2525.75	1632.85
918.8934	1852.9453	2509.25	1629.5
919.0331	1854.5994	2508.95	1625.25
919.1727	1856.2528	2505.25	1619.4
919.3124	1857.9054	2491.15	1610.3
919.452	1859.5572	2497.1	1613.65
919.5916	1861.2083	2502.65	1620.4
919.7312	1862.8587	2478.7	1597.9
919.8708	1864.5084	2480.55	1598.55
920.0103	1866.1572	2467.85	1588.45
920.1498	1867.8054	2463.55	1583.35
920.2893	1869.4528	2467	1585.2
920.4288	1871.0994	2453.45	1574.5
920.5683	1872.7453	2458.7	1576.05
920.7077	1874.3905	2454	1566.25
920.8471	1876.0349	2441.1	1559.5
920.9865	1877.6786	2447.8	1565.65
921.1259	1879.3215	2448.9	1568.2
921.2653	1880.9637	2438.35	1554.3
921.4046	1882.6051	2432.5	1550
921.5439	1884.2458	2418.35	1536.8
921.6832	1885.8858	2423.45	1541.95
921.8225	1887.525	2424.35	1542.9
921.9617	1889.1634	2415.95	1534.05
922.101	1890.8011	2402.8	1519.6
922.2402	1892.4381	2396.2	1515.65
922.3794	1894.0743	2393.4	1510.95
922.5185	1895.7098	2399.15	1520.65
922.6577	1897.3446	2405.55	1523.9
922.7968	1898.9786	2389.75	1503.05
922.9359	1900.6118	2385.4	1503.75
923.075	1902.2443	2374.5	1490.65
923.214	1903.8761	2379.1	1499.5
923.3531	1905.5071	2365.7	1483.1
923.4921	1907.1374	2363.9	1483.85
923.6311	1908.7669	2358.05	1475.9
923.77	1910.3957	2345.85	1464.95
923.909	1912.0237	2339.65	1459
924.0479	1913.651	2343.75	1463.05
924.1868	1915.2776	2339.5	1458.25
924.3257	1916.9034	2320.45	1440.1
924.4646	1918.5285	2321.55	1441.15
924.6034	1920.1528	2318.3	1438.55
924.7422	1921.7764	2315.05	1432.5
924.881	1923.3992	2316.35	1437.9
925.0198	1925.0213	2298.65	1416.05
925.1586	1926.6427	2293.55	1413.6
925.2973	1928.2633	2374.9	1410
925.436	1929.8832	2302.6	1421.85
925.5747	1931.5023	2295.6	1414.5
925.7134	1933.1207	2284	1402.2
925.852	1934.7383	2282.4	1399.8
925.9906	1936.3552	2268.3	1387.65
926.1292	1937.9714	2258.75	1378.65
926.2678	1939.5868	2265.5	1384.25
926.4064	1941.2015	2263.3	1384.35
926.5449	1942.8154	2250.85	1368.05
926.6834	1944.4286	2249.6	1368.05
926.8219	1946.041	2266	1361.35
926.9604	1947.6528	2245.5	1358.55
927.0988	1949.2637	2235.15	1353.35
927.2372	1950.8739	2230.8	1347.25
927.3756	1952.4834	2225.15	1343.85
927.514	1954.0921	2229.55	1347.3
927.6523	1955.7001	2225	1338.75
927.7907	1957.3074	2212.9	1335.05
927.929	1958.9139	2209.35	1329.15
928.0673	1960.5197	2206	1325
928.2055	1962.1247	2206.15	1327.1
928.3438	1963.729	2192.75	1313.35
928.482	1965.3325	2191.25	1305.9
928.6202	1966.9353	2180.95	1302.5
928.7584	1968.5374	2183.35	1299.65
928.8965	1970.1387	2188.25	1308.3
929.0346	1971.7393	2181.75	1301.7
929.1727	1973.3392	2179.95	1299.65
929.3108	1974.9383	2161.7	1280.7
929.4489	1976.5366	2146.35	1266.4
929.5869	1978.1342	2163.45	1284.25
929.7249	1979.7311	2162.9	1281.2
929.8629	1981.3273	2149.55	1270.7
930.0009	1982.9227	2150.15	1267.4
930.1388	1984.5173	2150.25	1272.5
930.2767	1986.1112	2141.6	1261
930.4146	1987.7044	2130.55	1250.95
930.5525	1989.2968	2129.95	1251.4
930.6904	1990.8885	2134.35	1251.3
930.8282	1992.4795	2119.55	1240.7
930.966	1994.0697	2115.05	1238.15
931.1038	1995.6592	2113.55	1232.5
931.2415	1997.2479	2115.1	1235.75
931.3793	1998.8359	2112.05	1233.75
931.517	2000.4232	2107.45	1230.65
931.6547	2002.0097	2099.2	1223.6
931.7923	2003.5955	2107.3	1230.7
931.93	2005.1805	2105.65	1224.3
932.0676	2006.7648	2099.2	1219.75
932.2052	2008.3484	2085.25	1205.6
932.3427	2009.9312	2089.35	1209
932.4803	2011.5133	2082.35	1205.2
932.6178	2013.0946	2092.95	1216.95
932.7553	2014.6752	2079.8	1202.1
932.8928	2016.2551	2069.95	1191.1
933.0302	2017.8342	2072.95	1192.95
933.1676	2019.4126	2066.9	1189.75
933.305	2020.9902	2061.1	1183.25
933.4424	2022.5672	2061.1	1184.25
933.5798	2024.1433	2072.75	1187.95
933.7171	2025.7188	2061.45	1184.25
933.8544	2027.2935	2055.1	1176.2
933.9917	2028.8674	2048.7	1168.4
934.129	2030.4406	2051.55	1176.75
934.2662	2032.0131	2032.35	1154.2
934.4034	2033.5849	2040.2	1156.3
934.5406	2035.1559	2038.3	1161.8
934.6778	2036.7261	2038.65	1159.9
934.8149	2038.2957	2032.1	1155.7
934.952	2039.8645	2029.7	1148.8
935.0891	2041.4325	2038.5	1156.15
935.2262	2042.9998	2023.5	1144.6
935.3632	2044.5664	2022.05	1142.95
935.5002	2046.1323	2019.45	1141.7
935.6372	2047.6974	2007.85	1129.65
935.7742	2049.2617	2012.75	1137.1
935.9111	2050.8254	2016	1132.1
936.048	2052.3883	2013.8	1134.7
936.1849	2053.9504	2003.85	1124.25
936.3218	2055.5118	2005.55	1123.3
936.4586	2057.0725	1999.6	1117.45
936.5955	2058.6325	1992.45	1116.4
936.7323	2060.1917	1997.8	1118.2
936.869	2061.7502	2006.45	1127.2
937.0058	2063.3079	1999.3	1121.2
937.1425	2064.8649	1991.25	1108.95
937.2792	2066.4212	1983.15	1106.35
937.4159	2067.9767	1982.2	1103
937.5525	2069.5315	1986.6	1109.2
937.6891	2071.0856	1978.3	1098.35
937.8257	2072.6389	1969.7	1089.35
937.9623	2074.1915	1957.1	1082.35
938.0989	2075.7433	1956.95	1075.55
938.2354	2077.2945	1960.6	1085.3
938.3719	2078.8448	1958.2	1079.95
938.5084	2080.3945	1958.85	1079.7
938.6448	2081.9434	1952.35	1072.9
938.7812	2083.4916	1945.75	1067.25
938.9176	2085.039	1943.45	1061.45
939.054	2086.5857	1941.6	1061.6
939.1903	2088.1317	1939.85	1060.4
939.3267	2089.677	1939.45	1057.1
939.463	2091.2215	1934.8	1053.85
939.5992	2092.7652	1932.5	1049.1
939.7355	2094.3083	1924.15	1042.55
939.8717	2095.8506	1922.95	1042.6
940.0079	2097.3921	1932.75	1054.75
940.1441	2098.933	1915.35	1035.3
940.2802	2100.4731	1922.9	1043
940.4163	2102.0124	1940.85	1045.95
940.5524	2103.5511	1919.85	1041.5
940.6885	2105.089	1916.75	1036.5
940.8245	2106.6261	1920.4	1041.4
940.9606	2108.1626	1905.25	1024.85
941.0965	2109.6983	1942.2	1035.35
941.2325	2111.2332	1914.55	1033.85
941.3684	2112.7675	1910.65	1032.8
941.5044	2114.301	1905.95	1023.75
941.6403	2115.8337	1908.25	1028.2
941.7761	2117.3657	1902.05	1021.3
941.912	2118.897	1902.85	1020.45
942.0478	2120.4276	1893.55	1007.55
942.1835	2121.9575	1887.9	1005.85
942.3193	2123.4866	1893.05	1011.2
942.455	2125.0149	1880.3	996.8
942.5907	2126.5426	1879.25	998.75
942.7264	2128.0695	1877.4	996.2
942.8621	2129.5956	1869.3	991.8
942.9977	2131.1211	1872.25	986.5
943.1333	2132.6458	1872.05	992.7
943.2689	2134.1698	1871.25	989.3
943.4044	2135.693	1863.45	980.5
943.54	2137.2155	1874.55	990.95
943.6755	2138.7373	1859.55	979.55
943.8109	2140.2584	1865.65	987.8
943.9464	2141.7787	1860.15	977.45
944.0818	2143.2983	1850.9	973.6
944.2172	2144.8171	1845.55	968.15
944.3526	2146.3353	1852.2	970.45
944.4879	2147.8527	1840.45	963.8
944.6232	2149.3693	1849.15	970.7
944.7585	2150.8853	1849.9	969.55
944.8938	2152.4005	1843.45	964.15
945.029	2153.9149	1842.05	960.25
945.1642	2155.4287	1832	950.55
945.2994	2156.9417	1832.3	951.4
945.4346	2158.454	1831	948.1
945.5697	2159.9655	1824.25	945
945.7048	2161.4764	1823.05	942.95
945.8399	2162.9865	1811.75	932.3
945.9749	2164.4958	1824.15	942.3
946.1099	2166.0045	1814.4	931.6
946.2449	2167.5124	1809.1	928.55
946.3799	2169.0195	1814.15	933.1
946.5148	2170.526	1805.1	925.35
946.6498	2172.0317	1821.3	942.6
946.7846	2173.5367	1806.45	924.65
946.9195	2175.0409	1807.45	928.55
947.0543	2176.5445	1810.35	931.25
947.1891	2178.0473	1799.55	916.5
947.3239	2179.5494	1804.7	921.35
947.4587	2181.0507	1803.8	923.55
947.5934	2182.5513	1790.6	910
947.7281	2184.0512	1797.05	915.25
947.8628	2185.5504	1788.8	909.7
947.9974	2187.0488	1791.75	911.8
948.132	2188.5465	1798.6	920.15
948.2666	2190.0435	1792.9	913.25
948.4012	2191.5397	1798.8	917.75
948.5357	2193.0353	1785.7	907
948.6702	2194.5301	1776.95	891.95
948.8047	2196.0241	1784.45	903.95
948.9392	2197.5175	1778.8	898
949.0736	2199.0101	1789	904.35
949.208	2200.502	1773.15	893.75
949.3424	2201.9931	1772.75	893.4
949.4767	2203.4835	1758.35	876.5
949.611	2204.9733	1771.4	884.3
949.7453	2206.4622	1757.35	879
949.8796	2207.9505	1762.2	878.5
950.0138	2209.438	1751.75	874.25
950.148	2210.9248	1758.65	876.75
950.2822	2212.4109	1751.75	873.85
950.4164	2213.8962	1749.35	864.4
950.5505	2215.3809	1748.2	866.05
950.6846	2216.8648	1753.95	869.65
950.8186	2218.3479	1753.4	867.05
950.9527	2219.8304	1743.95	857.25
951.0867	2221.3121	1743.4	861.1
951.2207	2222.7931	1730.2	849.35
951.3546	2224.2733	1728.1	846.65
951.4886	2225.7529	1726.45	845
951.6225	2227.2317	1716.5	834.65
951.7563	2228.7098	1717.3	838.45
951.8902	2230.1872	1707.95	830.8
952.024	2231.6638	1722.35	841.55
952.1578	2233.1397	1725.95	843.65
952.2916	2234.6149	1706.85	829.45
952.4253	2236.0894	1709.8	829.55
952.559	2237.5632	1715.25	826.75
952.6927	2239.0362	1712	832.3
952.8263	2240.5085	1701.35	820.35
952.9599	2241.9801	1696.15	816.6
953.0935	2243.4509	1696.2	814
953.2271	2244.921	1691.7	809.8
953.3606	2246.3904	1688.6	804.55
953.4941	2247.8591	1691.75	811.6
953.6276	2249.3271	1682.15	800.75
953.7611	2250.7943	1685.55	803.6
953.8945	2252.2608	1678.1	795.7
954.0279	2253.7266	1678.3	798.6
954.1612	2255.1917	1668.8	789.05
954.2946	2256.656	1679.2	798.45
954.4279	2258.1197	1671.2	791.55
954.5612	2259.5826	1667.05	785.6
954.6944	2261.0447	1670.05	787.05
954.8276	2262.5062	1659.85	777.95
954.9608	2263.9669	1665.1	780.8
955.094	2265.4269	1661.3	783.4
955.2271	2266.8862	1664.6	784.15
955.3602	2268.3448	1660.75	779.2
955.4933	2269.8026	1661.7	781.45
955.6264	2271.2598	1663.15	782.65
955.7594	2272.7162	1654.1	774.45
955.8924	2274.1719	1653.5	771.65
956.0253	2275.6268	1651.2	772.1
956.1583	2277.0811	1654.6	771.6
956.2912	2278.5346	1653.05	773.15
956.4241	2279.9874	1649.25	768.25
956.5569	2281.4395	1643.35	767
956.6897	2282.8908	1646.55	760.5
956.8225	2284.3414	1651.45	770.05
956.9553	2285.7914	1644.45	765.2
957.088	2287.2406	1647.4	764.7
957.2207	2288.689	1643.2	761.8
957.3534	2290.1368	1643.6	760.6
957.486	2291.5838	1645.85	761.6
957.6186	2293.0302	1639.5	754.65
957.7512	2294.4758	1632.95	751.55
957.8838	2295.9206	1631.2	746.85
958.0163	2297.3648	1633	753.15
958.1488	2298.8082	1630.45	748.05
958.2813	2300.251	1631.95	751.55
958.4137	2301.693	1630.1	746.7
958.5461	2303.1343	1626.65	746.9
958.6785	2304.5748	1626.65	748.2
958.8108	2306.0147	1629.6	748.8
958.9432	2307.4538	1619.05	733.7
959.0754	2308.8922	1621.85	744.35
959.2077	2310.3299	1609.85	730.25
959.3399	2311.7669	1618	739.5
959.4721	2313.2031	1617.55	735.5
959.6043	2314.6387	1605.75	724
959.7365	2316.0735	1613.5	733.15
959.8686	2317.5076	1608.35	726.2
960.0006	2318.941	1608.3	727.05
960.1327	2320.3737	1608.65	727.65
960.2647	2321.8056	1599.9	714.7
960.3967	2323.2369	1597.75	714
960.5287	2324.6674	1599.25	715.25
960.6606	2326.0972	1595.75	712.7
960.7925	2327.5263	1594.75	712.85
960.9244	2328.9547	1600.75	719
961.0562	2330.3823	1586.8	705
961.1881	2331.8092	1594.35	708.65
961.3198	2333.2355	1587.65	708.7
961.4516	2334.661	1590.3	708.3
961.5833	2336.0858	1581.7	698.2
961.715	2337.5098	1584.7	703.65
961.8467	2338.9332	1585.45	702.9
961.9783	2340.3558	1581.75	697.1
962.1099	2341.7778	1580.45	700.35
962.2415	2343.199	1578.6	693.7
962.373	2344.6195	1569.45	689.95
962.5045	2346.0393	1574.6	695
962.636	2347.4583	1580.7	699.85
962.7675	2348.8767	1578.55	694.95
962.8989	2350.2943	1583	700.1
963.0303	2351.7113	1578.15	695.05
963.1617	2353.1275	1570.55	688.2
963.293	2354.543	1598.95	691
963.4243	2355.9578	1578.65	695.7
963.5556	2357.3718	1570.45	689.2
963.6868	2358.7852	1565.45	683.1
963.818	2360.1978	1572.55	690.9
963.9492	2361.6098	1570.25	689.25
964.0803	2363.021	1566	682.95
964.2114	2364.4315	1564.15	683.15
964.3425	2365.8413	1566.4	685.15
964.4736	2367.2504	1563.35	681.1
964.6046	2368.6587	1560	679.75
964.7356	2370.0664	1555.4	673.6
964.8666	2371.4733	1555.15	672.15
964.9975	2372.8795	1560.85	679.55
965.1284	2374.285	1559.65	677.95
965.2593	2375.6899	1549.15	669
965.3901	2377.0939	1548.95	668.05
965.5209	2378.4973	1543.2	663.3
965.6517	2379.9	1550.2	670.2
965.7825	2381.3019	1544.45	661.6
965.9132	2382.7032	1542	660.85
966.0439	2384.1037	1541.9	664.5
966.1745	2385.5035	1537.95	657.2
966.3051	2386.9027	1532.85	653.5
966.4357	2388.3011	1530.75	646.2
966.5663	2389.6987	1533.6	654.45
966.6968	2391.0957	1521.55	643.1
966.8273	2392.492	1517.95	639
966.9578	2393.8876	1517.55	638.4
967.0882	2395.2824	1519.6	639.9
967.2186	2396.6765	1510.3	630.05
967.349	2398.07	1509.1	629.85
967.4793	2399.4627	1513	629.1
967.6097	2400.8547	1515.3	634.1
967.7399	2402.246	1518.45	628.5
967.8702	2403.6366	1508.9	628.95
968.0004	2405.0265	1514.8	632
968.1306	2406.4156	1506.95	621.45
968.2607	2407.8041	1503.4	619.05
968.3909	2409.1918	1501.65	617.2
968.521	2410.5789	1499.05	617.45
968.651	2411.9652	1505.2	621.25
968.781	2413.3508	1504.45	621.35
968.911	2414.7358	1507.85	627.05
969.041	2416.12	1503	623.75
969.1709	2417.5035	1497.1	615.75
969.3008	2418.8863	1497.6	615.9
969.4307	2420.2684	1495.7	613.85
969.5606	2421.6497	1491.05	609.75
969.6904	2423.0304	1496.6	615.5
969.8201	2424.4104	1493.5	609.7
969.9499	2425.7896	1493.85	607.1
970.0796	2427.1682	1491.25	610.05
970.2093	2428.546	1485.5	602.5
970.3389	2429.9232	1483.15	601.7
970.4685	2431.2996	1488.75	608.55
970.5981	2432.6753	1482.1	601.75
970.7277	2434.0503	1477.95	598.15
970.8572	2435.4246	1477.85	595
970.9867	2436.7982	1479.2	596.2
971.1161	2438.1711	1481.85	599.65
971.2456	2439.5433	1480.75	599.15
971.375	2440.9148	1480.15	594.35
971.5043	2442.2856	1467	587.85
971.6336	2443.6557	1474.05	590.55
971.7629	2445.025	1466.05	584.55
971.8922	2446.3937	1466.9	585.85
972.0214	2447.7617	1459.4	576.9
972.1506	2449.1289	1458.05	576.55
972.2798	2450.4955	1464.55	579.45
972.4089	2451.8613	1458.95	578.6
972.538	2453.2265	1460.85	580.2
972.6671	2454.5909	1450.65	567.25
972.7961	2455.9546	1451.35	571.25
972.9251	2457.3177	1458.8	578.4
973.0541	2458.68	1451.65	569.1
973.1831	2460.0416	1455.3	573.65
973.312	2461.4025	1456.7	575.25
973.4408	2462.7627	1461.65	568.9
973.5697	2464.1222	1455.55	577.6
973.6985	2465.4811	1450.4	567.4
973.8273	2466.8392	1453.1	571.6
973.956	2468.1966	1449.9	566.1
974.0847	2469.5533	1454.7	569.15
974.2134	2470.9093	1452.75	570.55
974.3421	2472.2645	1451.1	567.7
974.4707	2473.6191	1454.9	572.55
974.5993	2474.973	1452.45	571.85
974.7278	2476.3262	1448.45	565.45
974.8563	2477.6787	1444.65	565.45
974.9848	2479.0305	1451	568.95
975.1132	2480.3816	1448.7	566
975.2417	2481.7319	1445.05	562.6
975.37	2483.0816	1445.85	562.95
975.4984	2484.4306	1448.8	567.25
975.6267	2485.7789	1440.4	560.8
975.755	2487.1264	1444	560.35
975.8833	2488.4733	1444.8	566.45
976.0115	2489.8195	1463.2	566.3
976.1397	2491.165	1438.6	554.7
976.2678	2492.5097	1436.95	554.35
976.3959	2493.8538	1428.4	546.5
976.524	2495.1972	1432.7	550.75
976.6521	2496.5398	1440.5	558.1
976.7801	2497.8818	1435.65	553.15
976.9081	2499.2231	1430.55	548.65
977.036	2500.5637	1434	552.75
977.164	2501.9035	1434.8	552.6
977.2918	2503.2427	1430.8	546.35
977.4197	2504.5812	1416.45	535.65
977.5475	2505.919	1427.55	543.35
977.6753	2507.256	1437.8	556.6
977.8031	2508.5924	1424.55	542.2
977.9308	2509.9281	1425.7	538.9
978.0585	2511.2631	1422.05	539.95
978.1861	2512.5974	1411.15	533.5
978.3137	2513.9309	1419.6	539.15
978.4413	2515.2638	1441.95	534.45
978.5689	2516.596	1413.45	533.05
978.6964	2517.9275	1414.65	531.8
978.8239	2519.2583	1413.55	532.65
978.9513	2520.5884	1407	523.65
979.0788	2521.9178	1413.2	532.6
979.2062	2523.2465	1406.35	526.8
979.3335	2524.5745	1403.55	523.7
979.4608	2525.9018	1406	526.5
979.5881	2527.2284	1402.35	523.9
979.7154	2528.5543	1402.3	521.9
979.8426	2529.8796	1408.85	528.55
979.9698	2531.2041	1406.25	525.1
980.0969	2532.5279	1406	526.7
980.224	2533.851	1398.5	518.5
980.3511	2535.1735	1397.85	516.45
980.4781	2536.4952	1411.9	529.8
980.6052	2537.8163	1400.7	515.75
980.7321	2539.1366	1403.2	521.8
980.8591	2540.4562	1401.65	520.7
980.986	2541.7752	1404.9	524.55
981.1129	2543.0935	1403.55	523.35
981.2397	2544.411	1400.65	519.5
981.3665	2545.7279	1412.3	532.1
981.4933	2547.0441	1397.4	515.35
981.62	2548.3596	1403.65	520.7
981.7467	2549.6744	1395.35	513.7
981.8734	2550.9885	1403.4	512.8
982.0001	2552.3019	1400.9	523.15
982.1267	2553.6146	1391.4	510.45
982.2532	2554.9266	1394.7	513.15
982.3798	2556.2379	1400.85	517.3
982.5063	2557.5485	1394	514.8
982.6327	2558.8585	1398.15	508.95
982.7592	2560.1677	1392.7	507.85
982.8856	2561.4762	1395.75	515.45
983.0119	2562.7841	1396	514.25
983.1383	2564.0913	1393.9	516.55
983.2646	2565.3977	1389.95	508.2
983.3908	2566.7035	1391.55	512.2
983.517	2568.0086	1393.1	509.6
983.6432	2569.313	1390.8	511.2
983.7694	2570.6167	1401.35	516.35
983.8955	2571.9197	1388.95	507.95
984.0216	2573.222	1392.25	508.9
984.1476	2574.5236	1394.05	512.7
984.2737	2575.8246	1394.15	511.7
984.3996	2577.1248	1396.25	513.95
984.5256	2578.4244	1391.45	510.2
984.6515	2579.7232	1387.7	506.85
984.7774	2581.0214	1417.9	511.45
984.9032	2582.3189	1396	516.85
985.029	2583.6157	1394.7	509.95
985.1548	2584.9118	1393.5	513
985.2806	2586.2072	1388.75	510.15
985.4063	2587.5019	1387.3	506.5
985.5319	2588.7959	1393.1	512
985.6576	2590.0893	1398.5	516.4
985.7832	2591.3819	1397.75	518.85
985.9087	2592.6739	1400.6	519.9
986.0343	2593.9652	1406.5	524.05
986.1597	2595.2557	1391.85	513.35
986.2852	2596.5456	1406.2	524.3
986.4106	2597.8348	1395.5	516.45
986.536	2599.1234	1405.9	525.55
986.6614	2600.4112	1407.15	527.6
986.7867	2601.6983	1414.7	529.45
986.912	2602.9848	1405.3	525.6
987.0372	2604.2705	1407.8	519.3
987.1624	2605.5556	1414.55	533.4
987.2876	2606.84	1410.15	530.3
987.4128	2608.1237	1410.05	526.4
987.5379	2609.4067	1399	519.1
987.6629	2610.689	1411.55	521.95
987.788	2611.9707	1402.3	519.3
987.913	2613.2516	1390.45	505.15
988.0379	2614.5319	1392.5	513.45
988.1629	2615.8115	1390.9	508.9
988.2878	2617.0903	1388.3	507.55
988.4126	2618.3685	1389.6	509.65
988.5375	2619.6461	1387.5	508.95
988.6622	2620.9229	1381.3	501.3
988.787	2622.199	1381.25	499.7
988.9117	2623.4745	1389.35	508.55
989.0364	2624.7493	1376.4	496.5
989.161	2626.0234	1379.15	499.65
989.2857	2627.2968	1378.8	497.95
989.4102	2628.5695	1375.55	494
989.5348	2629.8415	1370.55	490.05
989.6593	2631.1128	1371.55	492.15
989.7837	2632.3835	1379.15	499.8
989.9082	2633.6535	1372.6	493.45
990.0326	2634.9228	1371.35	491.6
990.1569	2636.1914	1373.85	493.9
990.2812	2637.4593	1380.4	499.45
990.4055	2638.7265	1374.35	492.8
990.5298	2639.9931	1371.15	491.2
990.654	2641.259	1373.1	492.6
990.7782	2642.5242	1371.15	492.2
990.9023	2643.7887	1366.85	487.15
991.0264	2645.0525	1360.95	481.8
991.1505	2646.3156	1362.35	481.2
991.2745	2647.5781	1365.9	487
991.3985	2648.8398	1352.8	476.5
991.5225	2650.1009	1365.5	476.15
991.6464	2651.3613	1361.15	482.5
991.7703	2652.6211	1354.8	475.25
991.8942	2653.8801	1360.4	482.3
992.018	2655.1385	1353.8	471.25
992.1418	2656.3961	1349.55	471.65
992.2655	2657.6531	1353.75	472.8
992.3892	2658.9094	1357.75	478.55
992.5129	2660.1651	1355.3	474.85
992.6366	2661.42	1357.15	477.35
992.7602	2662.6743	1364.65	480.65
992.8837	2663.9279	1365.6	487
993.0073	2665.1808	1361.8	481.5
993.1307	2666.433	1360.7	481.65
993.2542	2667.6846	1364.8	486.3
993.3776	2668.9354	1375.9	493.2
993.501	2670.1856	1369.8	489.25
993.6244	2671.4351	1380.05	501.4
993.7477	2672.6839	1389.45	508.2
993.8709	2673.9321	1395.25	515.4
993.9942	2675.1795	1390.65	510.2
994.1174	2676.4263	1390.7	511.45
994.2405	2677.6724	1395.15	516.4
994.3637	2678.9179	1389.9	511.2
994.4868	2680.1626	1395.9	517.1
994.6098	2681.4067	1398.35	520.25
994.7328	2682.6501	1392.3	512.45
994.8558	2683.8928	1396.7	514.25
994.9788	2685.1348	1381.45	502.1
995.1017	2686.3761	1375.4	496.45
995.2245	2687.6168	1369.8	491.5
995.3474	2688.8568	1373.3	493.25
995.4702	2690.0961	1367.3	489.75
995.5929	2691.3348	1360.4	481.25
995.7156	2692.5727	1356.8	479
995.8383	2693.81	1358.95	478.5
995.961	2695.0466	1359.9	483.55
996.0836	2696.2826	1358.1	478.05
996.2062	2697.5178	1380.9	480.8
996.3287	2698.7524	1364.25	485.15
996.4512	2699.9863	1365.2	483.8
996.5737	2701.2195	1369.95	492.75
996.6961	2702.452	1379.05	498.8
996.8185	2703.6839	1387.3	507.55
996.9408	2704.9151	1392.45	514.75
997.0631	2706.1456	1400.35	521.75
997.1854	2707.3755	1405.2	524.95
997.3077	2708.6046	1413.25	531.45
997.4299	2709.8331	1423.8	544.7
997.552	2711.0609	1430.65	552.05
997.6742	2712.2881	1439.8	559.95
997.7963	2713.5145	1457.4	576.2
997.9183	2714.7403	1452.85	576.4
998.0403	2715.9654	1477.2	596.95
998.1623	2717.1899	1500.05	605.25
998.2842	2718.4136	1503.4	626.1
998.4062	2719.6367	1516.85	637.9
998.528	2720.8591	1532.75	647.7
998.6498	2722.0809	1539.5	661
998.7716	2723.3019	1563.5	680
998.8934	2724.5223	1576.4	697.75
999.0151	2725.7421	1574.85	695.95
999.1368	2726.9611	1586.05	705
999.2584	2728.1795	1576.15	691.5
999.38	2729.3972	1552.8	674.95
999.5016	2730.6142	1552.7	665.85
999.6231	2731.8306	1534.4	653.2
999.7446	2733.0462	1515.35	634.45
999.8661	2734.2612	1488.05	604.85
999.9875	2735.4756	1474.4	594
1000.1089	2736.6892	1453.65	575.6
1000.2302	2737.9022	1444.1	567.5
1000.3515	2739.1145	1418.8	542.1
1000.4728	2740.3262	1423.25	534.4
1000.594	2741.5372	1401.1	522.1
1000.7152	2742.7475	1391.3	512.8
1000.8363	2743.9571	1389.85	507.8
1000.9575	2745.1661	1371.8	489.3
1001.0785	2746.3744	1358.25	477.4
1001.1996	2747.582	1353.2	473.95
1001.3206	2748.7889	1346.1	466.35
1001.4415	2749.9952	1335.4	458.1
1001.5625	2751.2008	1334.25	454.55
1001.6833	2752.4057	1325.15	444.9
1001.8042	2753.61	1320	441.4
1001.925	2754.8136	1332.55	452.4
1002.0458	2756.0165	1324.45	445.9
1002.1665	2757.2188	1320.55	443.55
1002.2872	2758.4204	1315.45	434.35
1002.4078	2759.6213	1318.75	435.9
1002.5285	2760.8215	1327.35	443.1
1002.649	2762.0211	1317.05	437.65
1002.7696	2763.22	1321.6	439.7
1002.8901	2764.4182	1315.7	435.6
1003.0106	2765.6158	1316.1	437.95
1003.131	2766.8127	1311.05	430.6
1003.2514	2768.009	1306.85	428.1
1003.3717	2769.2045	1301.55	419.3
1003.492	2770.3994	1295.15	414.65
1003.6123	2771.5936	1290.5	410.1
1003.7325	2772.7872	1295.4	418.25
1003.8527	2773.9801	1297.25	416.65
1003.9729	2775.1723	1310.4	414.15
1004.093	2776.3639	1284.75	409.1
1004.2131	2777.5548	1287.95	406.9
1004.3331	2778.745	1286.95	407.35
1004.4531	2779.9346	1285.45	405.7
1004.5731	2781.1235	1292.85	413.75
1004.693	2782.3117	1292.1	412.8
1004.8129	2783.4992	1286	408.2
1004.9328	2784.6861	1285.5	405.95
1005.0526	2785.8723	1296.85	417.3
1005.1723	2787.0579	1301.35	421.55
1005.2921	2788.2428	1300.9	421.85
1005.4118	2789.427	1315.95	438.5
1005.5314	2790.6106	1324.95	447.65
1005.651	2791.7935	1320.6	440.9
1005.7706	2792.9757	1327.7	452
1005.8902	2794.1573	1336.4	454.5
1006.0097	2795.3382	1341	464.05
1006.1291	2796.5184	1351.55	474.65
1006.2485	2797.698	1363.35	482.7
1006.3679	2798.8769	1370.1	491.05
1006.4873	2800.0551	1383.65	504.75
1006.6066	2801.2327	1408.05	528.4
1006.7258	2802.4096	1415.15	537.6
1006.8451	2803.5859	1432.1	551.9
1006.9642	2804.7615	1455.75	576.85
1007.0834	2805.9364	1466.25	588.35
1007.2025	2807.1106	1495.85	616.9
1007.3216	2808.2842	1520.5	641.35
1007.4406	2809.4572	1547.65	668
1007.5596	2810.6294	1583.95	707.15
1007.6785	2811.801	1624.8	749.3
1007.7975	2812.972	1670.35	794.9
1007.9163	2814.1423	1720.5	840.75
1008.0352	2815.3119	1761.9	881.95
1008.154	2816.4808	1817	940.15
1008.2727	2817.6491	1885.55	1005.9
1008.3914	2818.8167	1938.35	1061.2
1008.5101	2819.9837	2012.95	1131.1
1008.6288	2821.15	2075.55	1197.85
1008.7474	2822.3157	2136.85	1260.5
1008.8659	2823.4807	2226.8	1348.35
1008.9844	2824.645	2292.05	1411.9
1009.1029	2825.8086	2366.9	1491.1
1009.2214	2826.9716	2422.55	1546
1009.3398	2828.134	2494.65	1615.3
1009.4581	2829.2957	2554.1	1675.35
1009.5764	2830.4567	2592.8	1715.75
1009.6947	2831.617	2617.5	1738.8
1009.813	2832.7767	2626.05	1748.65
1009.9312	2833.9358	2629.3	1751.15
1010.0493	2835.0941	2619.75	1740.55
1010.1675	2836.2519	2604.15	1729.55
1010.2855	2837.4089	2586.65	1708.7
1010.4036	2838.5653	2559.9	1683.75
1010.5216	2839.7211	2549.3	1670.05
1010.6396	2840.8761	2543.6	1663.2
1010.7575	2842.0306	2550.4	1673.45
1010.8754	2843.1843	2573.65	1696.65
1010.9932	2844.3374	2617.8	1740.8
1011.111	2845.4899	2667.85	1788
1011.2288	2846.6417	2725.5	1850.55
1011.3465	2847.7928	2793.15	1916.3
1011.4642	2848.9433	2849.4	1972.3
1011.5818	2850.0931	2914.25	2035.1
1011.6995	2851.2422	2982.8	2102.25
1011.817	2852.3907	3044.7	2165.65
1011.9345	2853.5385	3108.3	2228.25
1012.052	2854.6857	3183.35	2278.55
1012.1695	2855.8323	3218	2340.65
1012.2869	2856.9781	3271.4	2392.5
1012.4042	2858.1233	3333.5	2457.35
1012.5216	2859.2679	3388.3	2510
1012.6389	2860.4118	3453.35	2575.4
1012.7561	2861.555	3510.95	2627.85
1012.8733	2862.6976	3558.5	2679.35
1012.9905	2863.8395	3598.35	2722.3
1013.1076	2864.9808	3642.65	2763.8
1013.2247	2866.1214	3668.65	2790.15
1013.3417	2867.2614	3672.7	2795.3
1013.4587	2868.4007	3701.5	2820.55
1013.5757	2869.5393	3723.3	2845.65
1013.6926	2870.6773	3751.45	2869.8
1013.8095	2871.8146	3748.95	2868.55
1013.9263	2872.9513	3764.8	2885.4
1014.0431	2874.0874	3747.65	2869.45
1014.1599	2875.2227	3731.35	2852.6
1014.2766	2876.3574	3718.25	2840.25
1014.3933	2877.4915	3681.4	2803.5
1014.51	2878.6249	3646.4	2770.5
1014.6266	2879.7577	3620.95	2741.05
1014.7431	2880.8898	3622.4	2734.7
1014.8596	2882.0212	3588.5	2712.75
1014.9761	2883.152	3584.65	2703.75
1015.0925	2884.2821	3584.5	2708.45
1015.2089	2885.4116	3575.75	2699.4
1015.3253	2886.5405	3581.15	2703.85
1015.4416	2887.6686	3600.55	2721.45
1015.5579	2888.7962	3596.25	2718.85
1015.6741	2889.923	3600	2725.45
1015.7903	2891.0493	3631.85	2754.7
1015.9065	2892.1748	3631.6	2754.65
1016.0226	2893.2997	3645.85	2769.15
1016.1387	2894.424	3671.25	2793.95
1016.2547	2895.5476	3680.45	2803.7
1016.3707	2896.6706	3702.55	2825.8
1016.4866	2897.7929	3719.8	2842.35
1016.6025	2898.9145	3759.75	2882.95
1016.7184	2900.0355	3772.2	2892.1
1016.8342	2901.1559	3811.65	2934.75
1016.95	2902.2756	3843.9	2964.25
1017.0658	2903.3946	3887.9	3010.45
1017.1815	2904.513	3918	3036.4
1017.2971	2905.6308	3938.1	3058.35
1017.4127	2906.7479	3959.55	3081.55
1017.5283	2907.8643	3975.75	3096.8
1017.6439	2908.9801	3990.15	3111.8
1017.7594	2910.0953	3999.55	3122.7
1017.8748	2911.2098	3980.6	3098.6
1017.9902	2912.3236	3992.75	3107.9
1018.1056	2913.4368	3955.5	3075.45
1018.2209	2914.5494	3920.65	3044.05
1018.3362	2915.6613	3894.55	3011.45
1018.4515	2916.7725	3833.25	2952.15
1018.5667	2917.8831	3797.2	2918.65
1018.6819	2918.9931	3775.25	2893.1
1018.797	2920.1024	3727	2848.25
1018.9121	2921.211	3709.05	2832.6
1019.0271	2922.319	3698	2819.75
1019.1421	2923.4264	3669.55	2791.9
1019.2571	2924.5331	3661.35	2787.2
1019.372	2925.6391	3664.5	2787.1
1019.4869	2926.7445	3675.8	2801.55
1019.6017	2927.8493	3656.45	2776.95
1019.7165	2928.9534	3661.55	2781.65
1019.8313	2930.0569	3661.6	2783.4
1019.946	2931.1597	3681.5	2803.1
1020.0606	2932.2619	3706.1	2828.65
1020.1753	2933.3634	3686.05	2808.35
1020.2899	2934.4643	3707.2	2822.4
1020.4044	2935.5645	3716.25	2833.25
1020.5189	2936.6641	3689.1	2810.1
1020.6334	2937.763	3681.05	2804.9
1020.7478	2938.8613	3638.8	2761.2
1020.8622	2939.959	3612.05	2727.05
1020.9765	2941.056	3531.15	2654.1
1021.0908	2942.1523	3469.6	2590.65
1021.2051	2943.248	3384.85	2508.25
1021.3193	2944.3431	3283.15	2404.2
1021.4334	2945.4375	3190.05	2312.45
1021.5476	2946.5313	3046.25	2170.25
1021.6617	2947.6244	2945.8	2067.65
1021.7757	2948.7169	2843.35	1965.45
1021.8897	2949.8087	2736.6	1860.15
1022.0037	2950.8999	2641.05	1762.45
1022.1176	2951.9904	2559.9	1684.4
1022.2315	2953.0803	2474.25	1596.05
1022.3453	2954.1696	2398.3	1520.8
1022.4591	2955.2582	2349	1472.8
1022.5728	2956.3462	2296.05	1420.85
1022.6865	2957.4335	2251.05	1372
1022.8002	2958.5202	2216.05	1337.4
1022.9138	2959.6062	2183.65	1306.15
1023.0274	2960.6916	2155.95	1280.7
1023.141	2961.7764	2135.8	1258.2
1023.2545	2962.8605	2123.2	1245.55
1023.3679	2963.9439	2114.65	1237.45
1023.4813	2965.0267	2105.25	1228.75
1023.5947	2966.1089	2118.6	1218.4
1023.708	2967.1905	2094.35	1217.7
1023.8213	2968.2714	2072.65	1195.15
1023.9346	2969.3516	2090.45	1213.2
1024.0478	2970.4312	2106.4	1222.05
1024.1609	2971.5102	2103.3	1227.95
1024.274	2972.5885	2107.25	1229.9
1024.3871	2973.6662	2115.15	1235.15
1024.5002	2974.7432	2116.25	1239.25
1024.6132	2975.8196	2122.75	1245.55
1024.7261	2976.8954	2100.9	1224.25
1024.839	2977.9705	2096.25	1218.35
1024.9519	2979.045	2087.45	1210.45
1025.0647	2980.1188	2076.15	1200.95
1025.1775	2981.192	2052.25	1176.8
1025.2902	2982.2645	2043.25	1166.3
1025.4029	2983.3364	2012.35	1134.35
1025.5156	2984.4077	1981.9	1104.35
1025.6282	2985.4783	1966.4	1081.65
1025.7407	2986.5483	1921.9	1045.2
1025.8532	2987.6177	1890.55	1013.45
1025.9657	2988.6864	1855.2	978.9
1026.0782	2989.7545	1815.9	935.05
1026.1906	2990.8219	1768.75	892.9
1026.3029	2991.8887	1734.95	858.15
1026.4152	2992.9548	1693.2	815.45
1026.5275	2994.0204	1646.05	770
1026.6397	2995.0852	1621.1	744.85
1026.7519	2996.1495	1589.7	709.8
1026.864	2997.2131	1563.3	686.55
1026.9761	2998.276	1527.95	652.7
1027.0882	2999.3383	1500.6	622.4
1027.2002	3000.4	1480.55	602.5
1027.3122	3001.4611	1445	567.05
1027.4241	3002.5215	1432.95	554.7
1027.536	3003.5812	1405.85	527
1027.6478	3004.6404	1380.55	503.9
1027.7596	3005.6989	1372.85	494.9
1027.8714	3006.7567	1359.25	483.55
1027.9831	3007.8139	1367.5	462
1028.0947	3008.8705	1327.15	452.8
1028.2064	3009.9264	1326.4	444
1028.3179	3010.9818	1305.65	428.55
1028.4295	3012.0364	1304.35	426.9
1028.541	3013.0905	1294.65	419.45
1028.6524	3014.1439	1284	406.8
1028.7638	3015.1966	1276.8	402.15
1028.8752	3016.2487	1271.3	392.05
1028.9865	3017.3002	1268.75	387.55
1029.0978	3018.3511	1263.1	390
1029.209	3019.4013	1258.85	381.55
1029.3202	3020.4509	1253.9	374.95
1029.4314	3021.4998	1251.7	374.85
1029.5425	3022.5481	1253.2	377.1
1029.6535	3023.5958	1254.35	377.4
1029.7645	3024.6428	1246.85	370.9
1029.8755	3025.6892	1244.85	368
1029.9864	3026.735	1246.65	369.6
1030.0973	3027.7802	1245.55	368.05
1030.2082	3028.8247	1239.35	364.3
1030.319	3029.8685	1244.75	368.4
1030.4297	3030.9118	1242.45	365
1030.5404	3031.9544	1245.9	369.3
1030.6511	3032.9963	1251.15	376
1030.7617	3034.0376	1245.85	368.25
1030.8723	3035.0783	1254.95	376.45
1030.9829	3036.1184	1253.15	374.25
1031.0934	3037.1578	1262.1	387.1
1031.2038	3038.1966	1258	380.15
1031.3142	3039.2348	1264.75	389.45
1031.4246	3040.2723	1273.7	387.15
1031.5349	3041.3092	1265.35	390.25
1031.6452	3042.3455	1263.7	385.85
1031.7554	3043.3811	1265.1	388.15
1031.8656	3044.4161	1264.65	385.7
1031.9758	3045.4505	1267.65	391.05
1032.0859	3046.4842	1254.25	376.05
1032.1959	3047.5173	1266.4	389.8
1032.3059	3048.5498	1252.55	377.5
1032.4159	3049.5816	1259.5	380.7
1032.5258	3050.6128	1255.1	378.35
1032.6357	3051.6434	1255.45	377.55
1032.7455	3052.6734	1252.35	373.35
1032.8553	3053.7027	1252.85	375
1032.9651	3054.7314	1245.05	370.15
1033.0748	3055.7594	1243.8	367.65
1033.1845	3056.7868	1246.35	368.5
1033.2941	3057.8136	1241.85	364.1
1033.4037	3058.8398	1238.55	363.65
1033.5132	3059.8653	1242.2	366.55
1033.6227	3060.8902	1239.35	363.7
1033.7321	3061.9145	1235.2	358.95
1033.8415	3062.9381	1234.75	356.35
1033.9509	3063.9612	1253.4	361.55
1034.0602	3064.9835	1227.05	351.45
1034.1694	3066.0053	1228.25	348.65
1034.2787	3067.0264	1222.85	345.4
1034.3878	3068.0469	1228.85	350.4
1034.497	3069.0668	1227.1	346.8
1034.6061	3070.086	1217.65	343.25
1034.7151	3071.1046	1209.65	333.25
1034.8241	3072.1226	1202.4	325.4
1034.9331	3073.1399	1200.15	323.65
1035.042	3074.1567	1193.5	316.05
1035.1508	3075.1727	1185.8	309.05
1035.2597	3076.1882	1178.05	300.4
1035.3684	3077.203	1170.75	293.65
1035.4772	3078.2173	1166.5	288.4
1035.5859	3079.2308	1159.95	280.45
1035.6945	3080.2438	1152.7	272.35
1035.8031	3081.2561	1141.25	263.15
1035.9117	3082.2678	1138.4	262
1036.0202	3083.2789	1132.6	256.95
1036.1286	3084.2893	1123.75	247.55
1036.2371	3085.2991	1117.9	240.9
1036.3454	3086.3083	1116.7	236.55
1036.4538	3087.3169	1105.75	229
1036.562	3088.3248	1104.1	225.2
1036.6703	3089.3321	1097.15	217.85
1036.7785	3090.3388	1089.15	213.4
1036.8866	3091.3449	1087.95	210.85
1036.9948	3092.3503	1086.75	207.55
1037.1028	3093.3551	1077.15	199.15
1037.2108	3094.3593	1076.8	200.7
1037.3188	3095.3629	1072.1	196.6
1037.4267	3096.3658	1070.95	191.7
1037.5346	3097.3681	1065.25	188.8
1037.6425	3098.3698	1059	181.45
1037.7503	3099.3708	1061.7	178.3
1037.858	3100.3713	1057.85	182.7
1037.9657	3101.3711	1055.8	178.75
1038.0734	3102.3702	1184.75	170
1038.181	3103.3688	1047.85	168.55
1038.2886	3104.3667	1045.35	169.15
1038.3961	3105.364	1041.45	163.8
1038.5036	3106.3607	1039.5	162.9
1038.611	3107.3568	1042.25	163.7
1038.7184	3108.3522	1039.2	162.15
1038.8257	3109.347	1039.3	161.5
1038.933	3110.3412	1037.85	158
1039.0403	3111.3348	1030.4	153.55
1039.1475	3112.3277	1029.15	154.25
1039.2547	3113.32	1024.35	148.25
1039.3618	3114.3117	1024.85	146.2
1039.4689	3115.3028	1023.5	146.9
1039.5759	3116.2932	1024.45	146
1039.6829	3117.2831	1023.4	142
1039.7898	3118.2723	1014.85	137.85
1039.8967	3119.2608	1017.05	140.3
1040.0035	3120.2488	1011.65	134.4
1040.1103	3121.2361	1011.65	135.45
1040.2171	3122.2229	1008.15	131.95
1040.3238	3123.209	1007.2	129.85
1040.4305	3124.1944	1002.4	126.95
1040.5371	3125.1793	1008.6	131.4
1040.6437	3126.1635	1003.45	127.35
1040.7502	3127.1471	1003.55	128.65
1040.8567	3128.1301	1000.1	125
1040.9631	3129.1125	1000.5	124.55
1041.0695	3130.0942	998.65	122.15
1041.1759	3131.0753	1007.9	122.05
1041.2822	3132.0558	996.65	118.7
1041.3884	3133.0357	992.25	114.3
1041.4946	3134.015	994.5	114.95
1041.6008	3134.9936	995.15	117.55
1041.7069	3135.9716	1011.3	114.65
1041.813	3136.949	987.5	114.25
1041.919	3137.9258	1006.5	112.9
1042.025	3138.902	993.95	113
1042.1309	3139.8775	986.7	110.9
1042.2368	3140.8524	984.9	110
1042.3427	3141.8267	986.6	108.45
1042.4485	3142.8004	983.25	104.8
1042.5542	3143.7735	990.05	108.1
1042.6599	3144.7459	983	106.3
1042.7656	3145.7178	981.65	105.1
1042.8712	3146.689	978.7	103.45
1042.9768	3147.6596	978.1	100
1043.0823	3148.6295	978	101.6
1043.1878	3149.5989	978.35	101.1
1043.2932	3150.5676	973.4	97.55
1043.3986	3151.5357	970.85	96.8
1043.5039	3152.5032	972.7	97.05
1043.6092	3153.4701	972.4	95.2
1043.7145	3154.4364	974.3	94.5
1043.8197	3155.402	969.75	93.45
1043.9248	3156.367	971.4	93.5
1044.03	3157.3315	1006.1	92.45
1044.135	3158.2952	969.6	93.45
1044.24	3159.2584	968.35	90.35
1044.345	3160.221	971.65	94
1044.4499	3161.1829	965.7	88.05
1044.5548	3162.1442	964.2	85.7
1044.6596	3163.105	964.9	88.4
1044.7644	3164.065	964.6	85.55
1044.8692	3165.0245	966.5	86.65
1044.9739	3165.9834	964.55	89
1045.0785	3166.9416	964.9	89.4
1045.1831	3167.8993	965.55	89.05
1045.2877	3168.8563	964.8	87.35
1045.3922	3169.8127	961.6	85.6
1045.4966	3170.7684	961.85	84.4
1045.6011	3171.7236	961.75	83.2
1045.7054	3172.6782	957.8	80.7
1045.8098	3173.6321	958.25	81.9
1045.914	3174.5854	960.8	78.35
1046.0183	3175.5381	959.1	84.4
1046.1224	3176.4902	959.65	83.55
1046.2266	3177.4417	955.8	79.95
1046.3307	3178.3926	955.65	79
1046.4347	3179.3428	953.3	76.2
1046.5387	3180.2924	956.05	79.05
1046.6427	3181.2415	953.9	76.7
1046.7466	3182.1899	953.8	73.75
1046.8504	3183.1377	951.55	74.8
1046.9542	3184.0848	958.2	79.35
1047.058	3185.0314	953.6	77
1047.1617	3185.9773	950.4	73.45
1047.2654	3186.9227	952.35	75.8
1047.369	3187.8674	950.95	74.85
1047.4726	3188.8115	951.85	71.65
1047.5761	3189.755	947.3	71.15
1047.6796	3190.6979	947.7	70.45
1047.783	3191.6402	947.7	71.55
1047.8864	3192.5818	948.9	72.05
1047.9898	3193.5229	955.7	71.95
1048.0931	3194.4633	948.25	70.55
1048.1963	3195.4031	944.9	67.8
1048.2995	3196.3423	944.1	67.25
1048.4027	3197.2809	943.5	66.95
1048.5058	3198.2189	945.1	67.3
1048.6089	3199.1563	959.45	66.9
1048.7119	3200.0931	942.45	69.5
1048.8148	3201.0292	941.65	67.65
1048.9178	3201.9648	946.05	68.2
1049.0206	3202.8997	945.7	66.95
1049.1235	3203.834	941.2	65.45
1049.2262	3204.7677	940.8	64.7
1049.329	3205.7008	944.85	67.15
1049.4317	3206.6333	938.05	62.95
1049.5343	3207.5652	944.4	67.15
1049.6369	3208.4964	941	65.4
1049.7394	3209.4271	937.55	60.7
1049.8419	3210.3571	938.45	62.5
1049.9444	3211.2865	940.8	63.45
1050.0468	3212.2154	939.6	60.3
1050.1491	3213.1436	939.85	59.6
1050.2514	3214.0712	943.25	59.85
1050.3537	3214.9982	936.1	59.25
1050.4559	3215.9246	937.15	60.2
1050.5581	3216.8503	934.05	58.75
1050.6602	3217.7755	936.65	59.95
1050.7623	3218.7001	937.95	62.35
1050.8643	3219.624	935.6	57.65
1050.9663	3220.5473	936.3	61.45
1051.0682	3221.4701	935.95	58.8
1051.1701	3222.3922	937.8	56.35
1051.2719	3223.3137	935.35	59.55
1051.3737	3224.2346	933.95	56.45
1051.4754	3225.1549	934.55	58.05
1051.5771	3226.0746	934	58.4
1051.6788	3226.9937	932.3	54.7
1051.7804	3227.9121	931.1	56.8
1051.8819	3228.83	930.1	53.85
1051.9834	3229.7473	929.3	52.8
1052.0849	3230.6639	929.25	53.35
1052.1863	3231.5799	931.2	56.4
1052.2876	3232.4954	931.1	54.75
1052.3889	3233.4102	931.2	56.05
1052.4902	3234.3244	930	53.4
1052.5914	3235.238	931.9	56.35
1052.6926	3236.151	954.05	53.35
1052.7937	3237.0634	926.75	53.6
1052.8948	3237.9752	928.5	51.15
1052.9958	3238.8864	926.6	50.4
1053.0968	3239.797	926.75	49.45
1053.1977	3240.7069	927.75	50.4
1053.2986	3241.6163	928.1	49.85
1053.3994	3242.5251	925.25	49.05
1053.5002	3243.4332	926.95	51.3
1053.6009	3244.3408	926.2	50.05
1053.7016	3245.2477	922.8	46.4
1053.8022	3246.154	926.75	49.35
1053.9028	3247.0598	925.4	47.1
1054.0034	3247.9649	922.95	45.6
1054.1039	3248.8694	927.55	51.35
1054.2043	3249.7733	921.55	46.55
1054.3047	3250.6766	924.05	48.1
1054.4051	3251.5793	925.35	48.65
1054.5054	3252.4814	921.05	44.7
1054.6056	3253.3829	918.25	41.85
1054.7058	3254.2838	919.55	44.45
1054.806	3255.1841	922.05	46.25
1054.9061	3256.0838	920.9	45.5
1055.0061	3256.9829	918.15	43.4
1055.1062	3257.8814	920.55	42.25
1055.2061	3258.7792	921.2	41.35
1055.306	3259.6765	919.3	42.75
1055.4059	3260.5731	916.05	40.3
1055.5057	3261.4692	915.75	39.05
1055.6055	3262.3647	917.25	40.2
1055.7052	3263.2595	913.85	37
1055.8049	3264.1538	916.25	41.15
1055.9045	3265.0474	914.5	35.7
1056.0041	3265.9404	911.3	33.9
1056.1036	3266.8329	912.85	36.2
1056.2031	3267.7247	920.8	35.95
1056.3025	3268.616	911.9	35.9
1056.4019	3269.5066	911.8	34.75
1056.5013	3270.3966	910.95	32.5
1056.6005	3271.286	907.4	30.7
