Software Version:	3.9.2.0
Unit SN:	10000200
Spectrometer SN:	6960
Date:	3/8/2024 11:32:33 AM
Data Line Index:	25
Spectral Points:	2048
Integration time (ms):	125
Averages:	20
Delay (ms):	30000
Sequence Number:	1
Processing:	dark subtract
Laser Power (mW):	305
Laser Current (mA):	822
Laser Diode Temp (C):	25.1
Laser Case Temp (C):	25.1
System Temp (C):	25
Spectrometer Temp (C):	22.9
CCD Temp (C):	-0.002
Secondary Temp (C):	20.007
Heatsink Temp (C):	19.698
CCDPCB Temp (C):	33.861
SecondaryPCB Temp (C):	26.781

Wavelength	RamanShift	Raw Counts	Dark Subtracted
787.061	30.1047	413.5	5.45
787.2016	32.3739	413.5	7.25
787.3422	34.6426	413.2	4.05
787.4828	36.9109	416.95	5.5
787.6235	39.1787	420.8	6.5
787.7642	41.4461	426.9	7.85
787.9049	43.7131	429.85	8.2
788.0456	45.9796	433.25	9.1
788.1863	48.2456	438.25	8.8
788.3271	50.5112	444	9.95
788.4679	52.7764	446.2	11.15
788.6087	55.0411	451.85	11.4
788.7496	57.3054	456.25	11.6
788.8904	59.5692	461.65	16.75
789.0313	61.8326	463.8	15.2
789.1722	64.0955	468.3	16.55
789.3132	66.3579	476.65	19.65
789.4541	68.6199	483	22.4
789.5951	70.8815	493.5	28.75
789.7361	73.1426	511.35	41.1
789.8771	75.4032	544.9	72.95
790.0181	77.6634	626.7	151.75
790.1592	79.9231	807.25	328.05
790.3003	82.1824	1192.6	709.65
790.4414	84.4412	1802.9	1309.5
790.5825	86.6995	2595.15	2088.8
790.7237	88.9574	3331.9	2815.85
790.8648	91.2148	3843.55	3318.5
791.006	93.4717	4046	3515.15
791.1472	95.7282	4067.35	3533.35
791.2885	97.9842	4069.8	3537.35
791.4297	100.2398	4011.4	3474.5
791.571	102.4949	3972.95	3429.75
791.7123	104.7495	3923.7	3379.85
791.8536	107.0036	3861.45	3318.2
791.9949	109.2573	3797.85	3256.9
792.1363	111.5105	3711.45	3164.85
792.2777	113.7632	3576.2	3028.25
792.4191	116.0154	3495.1	2936.55
792.5605	118.2672	3380	2824.95
792.7019	120.5185	3282.95	2726.75
792.8434	122.7693	3176.15	2616.95
792.9849	125.0197	3075.8	2511.3
793.1264	127.2696	2988.85	2421.2
793.2679	129.519	2946.35	2375.35
793.4094	131.7679	2916.75	2345.7
793.551	134.0163	2893.9	2319.5
793.6926	136.2642	2890.75	2314.35
793.8342	138.5117	2875.6	2295.15
793.9758	140.7587	2845.8	2265.2
794.1175	143.0052	2795.55	2208.4
794.2591	145.2512	2746.55	2160.4
794.4008	147.4967	2682.1	2092.35
794.5425	149.7417	2647.25	2058.3
794.6842	151.9863	2615.8	2020.6
794.826	154.2304	2605.85	2008.8
794.9677	156.4739	2590.1	1988.05
795.1095	158.717	2601.1	1995.85
795.2513	160.9596	2642.75	2034.1
795.3931	163.2017	2674.8	2064.25
795.535	165.4433	2689.4	2076.7
795.6768	167.6844	2676.85	2061.35
795.8187	169.925	2653	2034.05
795.9606	172.1651	2592.2	1971.9
796.1025	174.4047	2540.55	1914.55
796.2445	176.6439	2495.05	1869.15
796.3864	178.8825	2463.75	1833.65
796.5284	181.1206	2441.2	1807.55
796.6704	183.3582	2432	1795.45
796.8124	185.5954	2429.8	1790.4
796.9544	187.832	2433.8	1791.5
797.0965	190.0681	2427.9	1782.9
797.2386	192.3037	2439.45	1787.15
797.3806	194.5388	2442.5	1791.05
797.5228	196.7734	2461.7	1808.6
797.6649	199.0075	2483.05	1829.4
797.807	201.2411	2510.2	1855.25
797.9492	203.4742	2516.45	1858.8
798.0914	205.7068	2549.15	1887
798.2336	207.9389	2571.2	1910.35
798.3758	210.1704	2591.25	1936.25
798.518	212.4015	2575.75	1928.1
798.6603	214.632	2588.3	1949.6
798.8025	216.862	2586.75	1946.75
798.9448	219.0915	2585.1	1942.35
799.0871	221.3205	2612.8	1968.9
799.2294	223.549	2615.2	1975.8
799.3718	225.777	2618.2	1975.2
799.5141	228.0044	2609.45	1958.2
799.6565	230.2314	2606.05	1957.3
799.7989	232.4578	2587.2	1931.5
799.9413	234.6837	2588.2	1923.5
800.0837	236.909	2573.7	1907.65
800.2262	239.1339	2589.15	1900.9
800.3687	241.3582	2561.25	1886.9
800.5111	243.582	2588.35	1883.85
800.6536	245.8053	2580.15	1887.7
800.7961	248.0281	2587.9	1900.7
800.9387	250.2503	2591.5	1903
801.0812	252.472	2598.25	1907.5
801.2238	254.6932	2607.9	1915.4
801.3664	256.9139	2616.65	1924.05
801.509	259.134	2630.7	1934.95
801.6516	261.3536	2658.4	1962.45
801.7942	263.5727	2698.25	2001.35
801.9369	265.7912	2741.7	2044.5
802.0795	268.0092	2804.7	2109.4
802.2222	270.2267	2874.8	2174
802.3649	272.4436	2932.8	2234.95
802.5076	274.6601	2966.35	2255.55
802.6504	276.8759	2978.05	2271.7
802.7931	279.0913	3008.5	2303.15
802.9359	281.3061	3029.35	2319.6
803.0787	283.5204	3051.9	2343.05
803.2215	285.7341	3073.75	2359.35
803.3643	287.9473	3115.8	2402.45
803.5071	290.16	3094.1	2377.65
803.6499	292.3721	3050	2338.55
803.7928	294.5837	3023	2310.3
803.9357	296.7947	2992.3	2280.2
804.0786	299.0052	2981.05	2265.75
804.2215	301.2152	2953.7	2237.05
804.3644	303.4246	2946.95	2231.9
804.5074	305.6334	2914.65	2199.65
804.6503	307.8418	2896.2	2174.45
804.7933	310.0495	2873.65	2155.6
804.9363	312.2568	2849.3	2131
805.0793	314.4635	2790.1	2066.2
805.2223	316.6696	2732.75	2009.9
805.3653	318.8752	2694.7	1960.6
805.5084	321.0802	2669.8	1940.5
805.6514	323.2847	2656.25	1925.7
805.7945	325.4887	2648.65	1916.9
805.9376	327.692	2674.5	1942.7
806.0807	329.8949	2728.15	1996.45
806.2238	332.0972	2763.55	2032.95
806.367	334.2989	2812.2	2076
806.5101	336.5001	2800.8	2063.6
806.6533	338.7007	2770.45	2033.6
806.7965	340.9008	2716.3	1975.85
806.9397	343.1003	2662.65	1921
807.0829	345.2992	2609.9	1868.1
807.2261	347.4976	2557.95	1815.2
807.3693	349.6955	2530.25	1782.25
807.5126	351.8927	2501.35	1753.2
807.6559	354.0895	2500.75	1741.2
807.7991	356.2856	2474.2	1722.9
807.9424	358.4812	2469.9	1719.45
808.0857	360.6763	2465.15	1713.5
808.2291	362.8707	2451.25	1698.65
808.3724	365.0646	2456.85	1699.2
808.5158	367.258	2472.1	1713.7
808.6591	369.4508	2493.5	1731.5
808.8025	371.643	2516.75	1756.15
808.9459	373.8346	2550.65	1789.8
809.0893	376.0257	2591.35	1826.1
809.2327	378.2162	2607.35	1843.3
809.3762	380.4062	2629.65	1863.1
809.5196	382.5956	2606.85	1841.9
809.6631	384.7844	2562.6	1802.3
809.8066	386.9726	2517.2	1758.15
809.9501	389.1603	2478.3	1720.3
810.0936	391.3474	2480.2	1687.15
810.2371	393.5339	2463.4	1703.65
810.3806	395.7199	2479.2	1721.75
810.5241	397.9052	2486.2	1727.4
810.6677	400.09	2543	1783.75
810.8113	402.2743	2592.5	1830.35
810.9548	404.4579	2634.55	1871.5
811.0984	406.641	2681.65	1915.5
811.2421	408.8235	2732.9	1964
811.3857	411.0054	2776.5	2006.35
811.5293	413.1868	2839.4	2067.7
811.673	415.3675	2904.3	2128.05
811.8166	417.5477	2886.65	2110.7
811.9603	419.7273	2829.55	2050.4
812.104	421.9064	2754.3	1969.45
812.2477	424.0848	2686.45	1909.1
812.3914	426.2627	2617.15	1835.75
812.5351	428.4399	2547.95	1768.35
812.6788	430.6166	2487.75	1701.6
812.8226	432.7928	2454.5	1667.6
812.9663	434.9683	2408.8	1621.75
813.1101	437.1432	2367.55	1578.3
813.2539	439.3176	2345.45	1561.15
813.3977	441.4914	2331.55	1548.1
813.5415	443.6645	2331.6	1544
813.6853	445.8371	2330.55	1545.3
813.8291	448.0091	2336	1546.2
813.973	450.1806	2333.95	1544.35
814.1168	452.3514	2321	1531.25
814.2607	454.5216	2324.45	1524.3
814.4046	456.6913	2310	1515.95
814.5485	458.8603	2321.1	1529.75
814.6924	461.0288	2326.55	1536.55
814.8363	463.1967	2336.3	1547.95
814.9802	465.3639	2337.95	1546.2
815.1241	467.5306	2323	1529.85
815.2681	469.6967	2316.5	1525.8
815.412	471.8622	2296.55	1506.05
815.556	474.0271	2300.95	1509.85
815.7	476.1914	2297.65	1502.1
815.844	478.3551	2288.95	1494.85
815.988	480.5182	2287.9	1493.35
816.132	482.6807	2292.4	1497.9
816.276	484.8426	2308.45	1517.1
816.4201	487.0039	2364.75	1568.45
816.5641	489.1647	2418.7	1621.3
816.7082	491.3248	2474.4	1675.3
816.8522	493.4843	2485.5	1685.65
816.9963	495.6432	2479.25	1681.8
817.1404	497.8015	2448.3	1644.35
817.2845	499.9592	2395.6	1591.9
817.4286	502.1163	2330.9	1528.05
817.5727	504.2728	2293.55	1488.9
817.7168	506.4287	2268.8	1467.25
817.861	508.5839	2254.95	1451.15
818.0051	510.7386	2239.35	1435.9
818.1493	512.8927	2249.5	1437.4
818.2935	515.0461	2249.75	1441.5
818.4377	517.199	2281.2	1478.55
818.5818	519.3512	2333.25	1525.5
818.726	521.5029	2402.6	1588.25
818.8703	523.6539	2462.65	1654.8
819.0145	525.8043	2460.35	1650.95
819.1587	527.9541	2416.8	1605.5
819.303	530.1033	2336.85	1525.25
819.4472	532.2519	2280.4	1470.85
819.5915	534.3999	2253.6	1441.55
819.7357	536.5472	2254.55	1443.3
819.88	538.694	2244.25	1433.4
820.0243	540.8401	2261.2	1448.5
820.1686	542.9856	2282.3	1466.95
820.3129	545.1305	2301.95	1485.5
820.4572	547.2748	2320.7	1503.7
820.6016	549.4185	2314.85	1495.15
820.7459	551.5615	2331.6	1513.8
820.8902	553.704	2350.5	1531.6
821.0346	555.8458	2355.8	1540
821.1789	557.987	2380.3	1563.1
821.3233	560.1276	2411.05	1590.1
821.4677	562.2675	2465.55	1645.6
821.6121	564.4069	2551.15	1732.15
821.7565	566.5456	2597.8	1781.6
821.9009	568.6837	2577.65	1760.2
822.0453	570.8212	2493.95	1677.85
822.1897	572.958	2412.95	1592.2
822.3342	575.0942	2338	1520.5
822.4786	577.2299	2304.1	1485.35
822.6231	579.3648	2267.9	1451.05
822.7675	581.4992	2253.65	1438.1
822.912	583.6329	2268.15	1454.85
823.0565	585.766	2301.7	1484.5
823.201	587.8985	2342.45	1524.65
823.3454	590.0304	2411.25	1576.85
823.4899	592.1616	2437.1	1610.5
823.6345	594.2922	2430.9	1606.6
823.779	596.4222	2402.3	1575.25
823.9235	598.5515	2324.7	1500.55
824.068	600.6802	2269.1	1443.4
824.2126	602.8083	2224.05	1400.3
824.3571	604.9358	2215.4	1390
824.5017	607.0626	2213	1384.95
824.6462	609.1888	2211.5	1383.25
824.7908	611.3144	2228.4	1399.1
824.9354	613.4393	2275.9	1447.95
825.08	615.5636	2342.35	1512.15
825.2246	617.6873	2395	1565.4
825.3692	619.8103	2425.1	1593.85
825.5138	621.9327	2426.35	1592.7
825.6584	624.0544	2376.15	1546.05
825.803	626.1756	2327.3	1494.75
825.9477	628.2961	2275.65	1444
826.0923	630.4159	2245.35	1413.4
826.237	632.5351	2233.15	1401.35
826.3816	634.6537	2221.9	1389.3
826.5263	636.7716	2216.3	1383.45
826.6709	638.8889	2200.55	1364.55
826.8156	641.0056	2211.2	1374.95
826.9603	643.1216	2225.75	1390.95
827.105	645.237	2227.75	1392.55
827.2497	647.3518	2206.65	1373.4
827.3944	649.4659	2189.5	1356.8
827.5391	651.5793	2149.45	1313.65
827.6838	653.6922	2142.3	1308.1
827.8285	655.8043	2140.25	1305.3
827.9733	657.9159	2122.55	1285.6
828.118	660.0268	2103.35	1264.9
828.2627	662.137	2101.65	1263.55
828.4075	664.2466	2108.7	1268.1
828.5522	666.3556	2104.1	1265.05
828.697	668.4639	2096.75	1256.95
828.8418	670.5716	2091.05	1253.25
828.9865	672.6786	2084.95	1247.35
829.1313	674.785	2075.9	1232.9
829.2761	676.8907	2063.45	1221.8
829.4209	678.9958	2071.9	1234.3
829.5657	681.1002	2069.2	1227.9
829.7105	683.204	2071.8	1226.9
829.8553	685.3072	2072.4	1229.45
830.0001	687.4097	2061.65	1219.45
830.1449	689.5115	2056.5	1210.1
830.2898	691.6127	2070.25	1227.9
830.4346	693.7132	2068.5	1225.4
830.5794	695.8131	2065.5	1212.45
830.7243	697.9123	2057.9	1212.15
830.8691	700.0109	2068.75	1223.5
831.014	702.1089	2081	1236.35
831.1588	704.2061	2091.75	1246.6
831.3037	706.3028	2116.95	1269.25
831.4486	708.3987	2149.1	1303.15
831.5935	710.4941	2156.15	1313.4
831.7383	712.5887	2162.1	1316.95
831.8832	714.6827	2162.5	1312.3
832.0281	716.7761	2151.3	1305.35
832.173	718.8688	2148.75	1298.5
832.3179	720.9608	2147.1	1294.6
832.4628	723.0522	2171.15	1318.9
832.6077	725.1429	2186.1	1336.7
832.7527	727.233	2238.35	1389.95
832.8976	729.3224	2300.55	1452.85
833.0425	731.4112	2362.75	1510.6
833.1874	733.4993	2369.45	1518.2
833.3324	735.5867	2317.35	1466.65
833.4773	737.6735	2243.9	1390.65
833.6222	739.7596	2159.7	1307.4
833.7672	741.845	2134.5	1282.85
833.9122	743.9298	2129.1	1276.5
834.0571	746.014	2142.3	1291.8
834.2021	748.0974	2145.85	1292.9
834.347	750.1802	2144.3	1292.05
834.492	752.2624	2132.8	1280.8
834.637	754.3439	2122.6	1265.85
834.782	756.4247	2132.15	1271.45
834.9269	758.5048	2127.95	1275.65
835.0719	760.5843	2144.75	1289.6
835.2169	762.6631	2177.6	1323.2
835.3619	764.7413	2244.9	1391.8
835.5069	766.8188	2331.2	1473.8
835.6519	768.8956	2415.5	1560.35
835.7969	770.9718	2493.25	1637.4
835.9419	773.0473	2471.5	1616.8
836.0869	775.1221	2431.25	1573.7
836.232	777.1962	2428.85	1572.85
836.377	779.2697	2489.6	1631.2
836.522	781.3426	2611.75	1737.55
836.667	783.4147	2684	1826.25
836.8121	785.4862	2660.2	1804
836.9571	787.557	2552.7	1694.4
837.1021	789.6271	2418.25	1559.95
837.2472	791.6966	2271.9	1413.5
837.3922	793.7654	2161.6	1305.45
837.5373	795.8335	2117.3	1259.15
837.6823	797.901	2079.6	1221.35
837.8274	799.9678	2066.3	1206.65
837.9724	802.0339	2070.1	1212.65
838.1175	804.0993	2076.9	1208.8
838.2626	806.1641	2063.9	1206.45
838.4076	808.2282	2046.5	1187.3
838.5527	810.2916	2029.5	1166.4
838.6978	812.3544	2017.1	1160.05
838.8428	814.4164	2007.45	1150.3
838.9879	816.4778	2012.8	1150.75
839.133	818.5385	2018.35	1158.55
839.2781	820.5986	2042.1	1182.05
839.4232	822.658	2111.6	1248.3
839.5682	824.7166	2183.35	1324.8
839.7133	826.7747	2276.25	1414.3
839.8584	828.832	2358.4	1495.45
840.0035	830.8886	2436.25	1574.7
840.1486	832.9446	2469.85	1605.9
840.2937	834.9999	2424.05	1564.55
840.4388	837.0545	2341.85	1475.65
840.5839	839.1085	2251.75	1389.45
840.729	841.1618	2168.85	1303.4
840.8741	843.2143	2107.55	1247.45
841.0192	845.2662	2072.9	1209.75
841.1643	847.3175	2051.65	1190.45
841.3095	849.368	2042.85	1178.85
841.4546	851.4179	2045.6	1180.65
841.5997	853.467	2046.95	1182.85
841.7448	855.5155	2042.15	1176.65
841.8899	857.5633	2051.65	1187.05
842.0351	859.6105	2051.75	1187.6
842.1802	861.6569	2034.95	1171.65
842.3253	863.7027	2015.3	1150.65
842.4704	865.7478	1997.45	1133.35
842.6156	867.7922	1994.9	1131.75
842.7607	869.8359	1977.95	1111
842.9058	871.8789	1977.2	1110
843.0509	873.9212	1999.6	1103.05
843.1961	875.9629	1987.45	1120.6
843.3412	878.0039	1997.55	1131.35
843.4863	880.0441	2011.4	1145.8
843.6315	882.0837	2035.4	1169.5
843.7766	884.1226	2058.85	1190.5
843.9218	886.1609	2087.8	1222.5
844.0669	888.1984	2156.05	1293.25
844.212	890.2352	2205.35	1337.65
844.3572	892.2714	2214.55	1344.1
844.5023	894.3069	2180.5	1312.3
844.6475	896.3416	2118.05	1251.25
844.7926	898.3757	2078	1210.1
844.9377	900.4091	2054.25	1186.4
845.0829	902.4418	2059.05	1183.35
845.228	904.4739	2076.05	1203.55
845.3732	906.5052	2090	1218.6
845.5183	908.5358	2088.1	1220.55
845.6635	910.5658	2067.25	1197
845.8086	912.595	2026.25	1157.5
845.9538	914.6236	1980.35	1112.4
846.0989	916.6515	1959.65	1092.95
846.2441	918.6786	1928.15	1057.05
846.3892	920.7051	1923.1	1052.6
846.5344	922.7309	1928.25	1058.85
846.6795	924.756	1924.9	1054.85
846.8246	926.7804	1936.7	1066.2
846.9698	928.8041	1945.55	1076
847.1149	930.8272	1955.65	1085.7
847.2601	932.8495	1974.7	1105.15
847.4052	934.8711	1985.15	1115.2
847.5504	936.892	1992.75	1120.05
847.6955	938.9123	2012.85	1142.25
847.8407	940.9318	2034.35	1161.9
847.9858	942.9506	2056.05	1182.7
848.131	944.9688	2054.9	1183.85
848.2761	946.9862	2023.35	1151.7
848.4213	949.003	1980.2	1108.2
848.5664	951.019	1954.8	1082.7
848.7115	953.0344	1926.05	1053.5
848.8567	955.0491	1927.3	1054.25
849.0018	957.063	1910.1	1037.85
849.147	959.0763	1916.75	1044.45
849.2921	961.0888	1907.55	1033.55
849.4373	963.1007	1906.5	1037.25
849.5824	965.1119	1903.3	1031.65
849.7275	967.1223	1890.55	1019.6
849.8727	969.1321	1875.85	1007.15
850.0178	971.1412	1879.05	1007.55
850.1629	973.1495	1875.7	1003.65
850.3081	975.1572	1901.2	997.8
850.4532	977.1641	1872.05	997.95
850.5983	979.1704	1878.25	1006.55
850.7435	981.1759	1876.8	999.65
850.8886	983.1808	1868.1	991.95
851.0337	985.1849	1869.75	986.3
851.1788	987.1884	1855.95	979.7
851.324	989.1911	1866.75	990.15
851.4691	991.1932	1870.4	994.85
851.6142	993.1945	1870.2	997.45
851.7593	995.1951	1868.7	995
851.9045	997.1951	1872.4	993.05
852.0496	999.1943	1864.15	989.55
852.1947	1001.1928	1867.8	995.3
852.3398	1003.1906	1871.9	997.3
852.4849	1005.1877	1896.7	1023.8
852.63	1007.1841	1934.55	1056.65
852.7751	1009.1798	1938.2	1066.3
852.9202	1011.1748	1928.2	1052.95
853.0653	1013.1691	1909.85	1034.35
853.2104	1015.1627	1870.75	996.7
853.3555	1017.1556	1842.05	967.85
853.5006	1019.1477	1819.3	943.75
853.6457	1021.1392	1799.5	926.75
853.7908	1023.1299	1777.05	903.9
853.9359	1025.12	1782.6	909.25
854.081	1027.1093	1803.25	933.55
854.2261	1029.0979	1813.55	944.75
854.3712	1031.0859	1837.95	967.8
854.5163	1033.0731	1858.5	984.4
854.6613	1035.0596	1853.3	977.9
854.8064	1037.0454	1846.75	971.7
854.9515	1039.0304	1827.3	948.85
855.0965	1041.0148	1797.9	922.1
855.2416	1042.9985	1790	912.4
855.3867	1044.9814	1776.2	901.55
855.5317	1046.9636	1770.4	891.5
855.6768	1048.9452	1776.4	902.15
855.8219	1050.926	1798.15	922.2
855.9669	1052.9061	1805.95	928.1
856.112	1054.8855	1824.55	947.5
856.257	1056.8642	1819.4	942.3
856.4021	1058.8421	1819.15	939
856.5471	1060.8194	1816.95	940.75
856.6921	1062.7959	1806.35	930
856.8372	1064.7717	1811.15	932.1
856.9822	1066.7469	1809.35	930.7
857.1272	1068.7213	1815.25	935.45
857.2723	1070.695	1829.55	952.25
857.4173	1072.6679	1859.7	980.15
857.5623	1074.6402	1889.45	1012.95
857.7073	1076.6117	1888.6	1005.5
857.8523	1078.5826	1869.2	991.45
857.9973	1080.5527	1827.15	946.7
858.1423	1082.5221	1782.1	901.95
858.2873	1084.4908	1756.7	879.85
858.4323	1086.4587	1738.55	858.15
858.5773	1088.426	1731.95	853.2
858.7223	1090.3925	1738.75	855.95
858.8673	1092.3584	1736.6	857.95
859.0123	1094.3235	1742.6	868.1
859.1573	1096.2879	1769.25	891.05
859.3022	1098.2515	1798.5	919.6
859.4472	1100.2145	1823.2	946.3
859.5922	1102.1767	1856	974.75
859.7371	1104.1382	1907.2	1029.9
859.8821	1106.099	1953.75	1073.5
860.027	1108.0591	2014.05	1134.45
860.172	1110.0185	2051.2	1170.3
860.3169	1111.9771	2098.2	1219.45
860.4619	1113.9351	2163.65	1284.8
860.6068	1115.8923	2211.9	1332.5
860.7517	1117.8488	2248.75	1367
860.8967	1119.8045	2195.95	1316.05
861.0416	1121.7596	2098.6	1217.2
861.1865	1123.7139	1975.9	1098.1
861.3314	1125.6675	1912.6	1033.4
861.4763	1127.6204	1916.55	1038.45
861.6212	1129.5726	1930.8	1051.65
861.7661	1131.524	1941.55	1061.45
861.911	1133.4748	1897.5	1015.5
862.0559	1135.4248	1836	955.75
862.2008	1137.3741	1781.7	902
862.3457	1139.3226	1749.8	870.3
862.4905	1141.2705	1740.5	861.1
862.6354	1143.2176	1766.6	879.7
862.7803	1145.164	1777.5	896.1
862.9251	1147.1097	1772.35	892.1
863.07	1149.0546	1748.85	868.8
863.2148	1150.9989	1708.95	829.65
863.3597	1152.9424	1698.1	818.5
863.5045	1154.8852	1681.05	799.4
863.6493	1156.8272	1669.5	790
863.7942	1158.7686	1675.45	789.35
863.939	1160.7092	1677.85	796.25
864.0838	1162.6491	1680.9	800.25
864.2286	1164.5883	1691.7	811.9
864.3734	1166.5267	1715.2	833.1
864.5182	1168.4644	1733.85	851.9
864.663	1170.4014	1767.35	886.55
864.8078	1172.3377	1803	922.45
864.9526	1174.2732	1868.7	990.7
865.0974	1176.2081	1962.55	1081.4
865.2421	1178.1421	2094.45	1211.45
865.3869	1180.0755	2220.3	1341.45
865.5317	1182.0082	2287.5	1406.55
865.6764	1183.9401	2265.5	1381.75
865.8212	1185.8713	2168.9	1290.55
865.9659	1187.8017	2025.95	1146.15
866.1106	1189.7315	1905.2	1029.35
866.2554	1191.6605	1851.8	948.2
866.4001	1193.5888	1774.25	896.55
866.5448	1195.5163	1744	865.9
866.6895	1197.4432	1728.4	846.8
866.8342	1199.3693	1702.85	823.7
866.9789	1201.2947	1688.6	805.95
867.1236	1203.2193	1684.15	803
867.2683	1205.1432	1676.95	796.25
867.413	1207.0664	1677.95	796.95
867.5576	1208.9889	1683.1	800.8
867.7023	1210.9106	1680.3	796.5
867.847	1212.8316	1686	804.85
867.9916	1214.7519	1689.3	796.15
868.1363	1216.6715	1708.15	826.35
868.2809	1218.5903	1719.25	840.85
868.4255	1220.5084	1733.45	851.25
868.5701	1222.4257	1747.15	865.9
868.7148	1224.3424	1759.55	878
868.8594	1226.2583	1784.7	899.45
869.004	1228.1735	1815.05	934.6
869.1486	1230.0879	1842.1	960.95
869.2932	1232.0016	1900.65	1018.7
869.4377	1233.9146	1938.75	1054.15
869.5823	1235.8269	1954.8	1075.35
869.7269	1237.7384	1955.7	1071.85
869.8715	1239.6492	1956.8	1074.5
870.016	1241.5592	1982.5	1101.1
870.1606	1243.4686	2022	1138.9
870.3051	1245.3772	2100.7	1219.25
870.4496	1247.285	2193.8	1311.3
870.5941	1249.1922	2284.5	1402.15
870.7387	1251.0986	2350.2	1467.4
870.8832	1253.0042	2425.1	1543.05
871.0277	1254.9092	2525.35	1644.9
871.1722	1256.8134	2612.35	1733.85
871.3167	1258.7169	2708.25	1826.15
871.4611	1260.6196	2746.1	1865.25
871.6056	1262.5216	2765.3	1878.8
871.7501	1264.4229	2740.75	1858.1
871.8945	1266.3234	2710.25	1828.55
872.039	1268.2232	2651.75	1767.35
872.1834	1270.1223	2609.5	1729.05
872.3278	1272.0207	2557.35	1675.5
872.4723	1273.9183	2550.35	1661.05
872.6167	1275.8151	2546.3	1664.55
872.7611	1277.7113	2581.8	1698.95
872.9055	1279.6067	2673.25	1793.45
873.0499	1281.5014	2826.6	1942
873.1943	1283.3953	3022.15	2136.4
873.3386	1285.2885	3211.7	2330.3
873.483	1287.181	3358.85	2475.35
873.6274	1289.0727	3418	2535.25
873.7717	1290.9637	3386.25	2503.05
873.9161	1292.854	3266.4	2383.15
874.0604	1294.7435	3141.55	2258.5
874.2047	1296.6323	3023.45	2141.05
874.349	1298.5204	2908.4	2024.55
874.4933	1300.4077	2831.75	1946.85
874.6376	1302.2943	2774.6	1893.1
874.7819	1304.1802	2740.9	1858.9
874.9262	1306.0653	2716.3	1829.85
875.0705	1307.9497	2659.95	1778.75
875.2147	1309.8333	2627.35	1744.3
875.359	1311.7162	2586.1	1702.65
875.5032	1313.5984	2565.5	1679.05
875.6475	1315.4798	2549.6	1655.3
875.7917	1317.3605	2528.05	1640.15
875.9359	1319.2405	2530.65	1645.15
876.0801	1321.1197	2519.75	1632.15
876.2243	1322.9982	2469.9	1581.65
876.3685	1324.876	2393.75	1512.65
876.5127	1326.753	2298.75	1416.75
876.6569	1328.6293	2185.95	1301.3
876.801	1330.5048	2102.4	1214.5
876.9452	1332.3796	2018.4	1136.45
877.0893	1334.2537	1988.15	1080.85
877.2335	1336.127	1918.8	1037.15
877.3776	1337.9996	1881.95	999.05
877.5217	1339.8714	1851.1	964.15
877.6658	1341.7426	1880.9	952.75
877.8099	1343.6129	1834.35	952.4
877.954	1345.4826	1809.7	923.1
878.0981	1347.3515	1801.95	915.05
878.2422	1349.2196	1778.35	892
878.3862	1351.087	1774.2	890.05
878.5303	1352.9537	1764.2	881.3
878.6743	1354.8197	1778.05	891.95
878.8184	1356.6849	1776.4	892.7
878.9624	1358.5493	1798.55	915.3
879.1064	1360.4131	1828.75	943.95
879.2504	1362.276	1860.35	975.6
879.3944	1364.1383	1908.6	1022.8
879.5384	1365.9998	1933.6	1044.5
879.6823	1367.8606	1905.8	1020.8
879.8263	1369.7206	1888.6	1004.55
879.9702	1371.5799	1899.45	1012.55
880.1142	1373.4384	1883.6	998.85
880.2581	1375.2962	1858.55	971.65
880.402	1377.1533	1805.65	921.75
880.5459	1379.0096	1752.55	868.2
880.6898	1380.8652	1716.2	833.95
880.8337	1382.7201	1685.5	800.4
880.9776	1384.5742	1658.85	774.4
881.1215	1386.4275	1631.35	747.15
881.2653	1388.2802	1619.2	736.45
881.4092	1390.132	1603.05	719.05
881.553	1391.9832	1594.1	710.2
881.6968	1393.8336	1577.25	694.15
881.8406	1395.6832	1574.1	689.6
881.9844	1397.5322	1569.95	686.9
882.1282	1399.3803	1559.8	672.9
882.272	1401.2278	1551.1	666.45
882.4158	1403.0745	1542.05	659.65
882.5595	1404.9204	1533.95	651.05
882.7033	1406.7656	1530	646.8
882.847	1408.6101	1522.25	637.4
882.9908	1410.4538	1523.1	638.75
883.1345	1412.2968	1524.7	641.9
883.2782	1414.139	1522.75	636.95
883.4219	1415.9805	1533.4	648.85
883.5656	1417.8213	1547.4	658.25
883.7092	1419.6613	1564.65	681.55
883.8529	1421.5006	1587.55	702.5
883.9965	1423.3391	1623.75	737.6
884.1402	1425.1769	1681.25	796.05
884.2838	1427.0139	1761.25	876.65
884.4274	1428.8502	1857.2	972.9
884.571	1430.6858	1926.75	1041
884.7146	1432.5206	1959.05	1075.75
884.8582	1434.3547	1947.7	1061.45
885.0018	1436.188	1933.2	1048.6
885.1453	1438.0206	1910.7	1026.55
885.2889	1439.8524	1901	1014.95
885.4324	1441.6835	1901.85	1016.1
885.5759	1443.5139	1902.3	1013
885.7194	1445.3435	1897.8	1014.45
885.8629	1447.1724	1903.95	1021.25
886.0064	1449.0005	1902.65	1019.4
886.1499	1450.8279	1885.75	996.85
886.2933	1452.6545	1884.85	1000.15
886.4368	1454.4804	1886.9	1006.45
886.5802	1456.3056	1877.5	986.35
886.7237	1458.13	1854.4	970.2
886.8671	1459.9536	1823.8	937.95
887.0105	1461.7766	1789.85	907
887.1539	1463.5987	1748.25	862.65
887.2972	1465.4202	1709.5	824.1
887.4406	1467.2409	1664.75	781.75
887.584	1469.0608	1633.9	747.9
887.7273	1470.88	1601.75	715.45
887.8706	1472.6984	1572.7	686.9
888.0139	1474.5161	1550.4	663.75
888.1572	1476.3331	1525.9	642.8
888.3005	1478.1493	1531.45	645.6
888.4438	1479.9648	1519.6	636.65
888.5871	1481.7795	1523.7	639.85
888.7303	1483.5935	1515.9	631.25
888.8736	1485.4067	1518.7	632.3
889.0168	1487.2192	1525.45	639.8
889.16	1489.031	1528.55	642.7
889.3032	1490.842	1514.35	630
889.4464	1492.6522	1524.8	641.45
889.5896	1494.4618	1511.15	626.1
889.7327	1496.2705	1516.7	632.6
889.8759	1498.0785	1502.85	618.2
890.019	1499.8858	1497.1	610.65
890.1622	1501.6924	1488.15	603.2
890.3053	1503.4981	1486.8	601.2
890.4484	1505.3032	1479.45	595.7
890.5914	1507.1075	1475.7	591.3
890.7345	1508.911	1460.2	575.65
890.8776	1510.7138	1465.3	582.25
891.0206	1512.5159	1448.5	563.1
891.1637	1514.3172	1445.8	564.5
891.3067	1516.1178	1437.45	554.3
891.4497	1517.9176	1432.95	546.85
891.5927	1519.7166	1428.85	545.45
891.7357	1521.515	1420.85	532.2
891.8786	1523.3126	1421	537.4
892.0216	1525.1094	1414.7	528.15
892.1645	1526.9055	1405.9	521.7
892.3074	1528.7008	1407	522.95
892.4503	1530.4954	1408.7	517.95
892.5932	1532.2893	1394.3	513.2
892.7361	1534.0824	1403.8	515.8
892.879	1535.8747	1391.25	505.8
893.0218	1537.6663	1392.6	509.15
893.1647	1539.4572	1399.7	513.25
893.3075	1541.2473	1393.65	506.6
893.4503	1543.0367	1392.95	508.35
893.5931	1544.8253	1393.4	504.5
893.7359	1546.6132	1402.4	517.85
893.8787	1548.4003	1409.4	515.2
894.0214	1550.1867	1416.45	525.15
894.1642	1551.9723	1425.95	538.65
894.3069	1553.7572	1441.5	555.95
894.4496	1555.5414	1454.05	569.25
894.5923	1557.3247	1481.5	598.1
894.735	1559.1074	1518.7	638.2
894.8777	1560.8893	1561.4	678.45
895.0204	1562.6705	1592.25	707.95
895.163	1564.4509	1622.65	741.45
895.3056	1566.2305	1630.45	748.2
895.4482	1568.0094	1639.25	756.3
895.5908	1569.7876	1626.1	742.6
895.7334	1571.565	1621.8	738.05
895.876	1573.3417	1630.95	748.3
896.0186	1575.1176	1637.2	754.85
896.1611	1576.8928	1649.2	766.7
896.3036	1578.6672	1663.8	783.15
896.4461	1580.4409	1701.65	821.25
896.5886	1582.2138	1733.35	849.2
896.7311	1583.986	1769.7	887.5
896.8736	1585.7575	1810.15	928
897.0161	1587.5282	1833.8	952.5
897.1585	1589.2981	1859.6	977.95
897.3009	1591.0673	1875.15	995.45
897.4433	1592.8358	1899.9	1019.2
897.5857	1594.6035	1897.15	1013.4
897.7281	1596.3704	1890.1	1006.9
897.8705	1598.1366	1864	982.65
898.0128	1599.9021	1833.35	952.6
898.1551	1601.6668	1811.65	927.9
898.2975	1603.4308	1797.85	912.95
898.4398	1605.194	1809.75	923.4
898.5821	1606.9564	1824.6	944.2
898.7243	1608.7182	1891.05	1006.9
898.8666	1610.4791	1966.65	1088.4
899.0088	1612.2394	2067.15	1188.2
899.1511	1613.9988	2168.2	1287.75
899.2933	1615.7576	2247.75	1367.7
899.4355	1617.5156	2292.9	1406.3
899.5776	1619.2728	2248.2	1365.8
899.7198	1621.0293	2163.2	1282.05
899.862	1622.785	2049.55	1163.9
900.0041	1624.54	1923.85	1039.1
900.1462	1626.2942	1802.4	920.5
900.2883	1628.0477	1691.05	809.3
900.4304	1629.8005	1616.55	731.55
900.5725	1631.5525	1543.65	662.85
900.7145	1633.3037	1494.65	612.05
900.8566	1635.0542	1454.8	574.25
900.9986	1636.804	1424.65	541.05
901.1406	1638.553	1456.5	514.8
901.2826	1640.3013	1376.4	496.5
901.4245	1642.0488	1361	477.1
901.5665	1643.7955	1342.85	463.95
901.7085	1645.5416	1327.8	446.6
901.8504	1647.2868	1320.1	438.25
901.9923	1649.0313	1310.45	429.3
902.1342	1650.7751	1315.4	430.8
902.2761	1652.5181	1305.15	425.35
902.4179	1654.2604	1302.45	420.4
902.5598	1656.0019	1312.15	429.5
902.7016	1657.7427	1325.05	445.85
902.8434	1659.4828	1341.8	460.45
902.9852	1661.222	1367.7	486.8
903.127	1662.9606	1401	519.7
903.2687	1664.6984	1431.75	548.55
903.4105	1666.4354	1445.3	561.55
903.5522	1668.1717	1420.55	539.1
903.6939	1669.9072	1380.6	499.05
903.8356	1671.642	1337.8	453.4
903.9773	1673.3761	1297.8	416.45
904.119	1675.1094	1271.4	391.75
904.2606	1676.8419	1252.4	373.3
904.4022	1678.5737	1234.3	352.15
904.5439	1680.3048	1223.1	341.95
904.6855	1682.0351	1214.2	332.45
904.827	1683.7646	1209.3	325.8
904.9686	1685.4934	1202.65	321
905.1101	1687.2215	1198.4	315.35
905.2517	1688.9488	1194.25	314.4
905.3932	1690.6754	1186.85	306.05
905.5347	1692.4012	1193.3	309.3
905.6761	1694.1263	1180.2	298.1
905.8176	1695.8506	1189.4	307.15
905.9591	1697.5742	1180.3	300.85
906.1005	1699.297	1176.8	295.3
906.2419	1701.0191	1175.25	292.25
906.3833	1702.7404	1169.5	288.5
906.5246	1704.461	1170.95	287.7
906.666	1706.1808	1167.85	286.6
906.8073	1707.8999	1167.75	285.9
906.9487	1709.6182	1167.4	285.75
907.09	1711.3358	1161.05	279.35
907.2313	1713.0527	1156.15	276.45
907.3725	1714.7688	1159.5	273.55
907.5138	1716.4841	1150.1	266.75
907.655	1718.1987	1162.55	274.15
907.7962	1719.9126	1149.45	269.9
907.9374	1721.6257	1153.75	269.4
908.0786	1723.338	1150.4	270
908.2198	1725.0496	1149.45	267.65
908.3609	1726.7605	1147.4	264.45
908.502	1728.4706	1140.6	259.7
908.6431	1730.18	1149.6	267.95
908.7842	1731.8886	1141.2	260.55
908.9253	1733.5964	1163.1	262.75
909.0664	1735.3036	1143.5	262.9
909.2074	1737.0099	1146.7	266.65
909.3484	1738.7156	1145.4	264.65
909.4894	1740.4204	1148.65	263.5
909.6304	1742.1246	1142.8	262
909.7714	1743.8279	1136.05	254.9
909.9123	1745.5306	1142.5	260.75
910.0532	1747.2325	1134.75	254.7
910.1941	1748.9336	1136.15	255.7
910.335	1750.634	1139	255.1
910.4759	1752.3336	1133.65	252.75
910.6168	1754.0325	1130.55	251.95
910.7576	1755.7307	1130.05	248.65
910.8984	1757.4281	1135.55	255.75
911.0392	1759.1247	1136	244.65
911.18	1760.8206	1138.5	254.2
911.3208	1762.5158	1136.45	251.15
911.4615	1764.2102	1125.45	244.15
911.6022	1765.9039	1134.3	252.35
911.7429	1767.5968	1127.85	247.4
911.8836	1769.289	1131.3	251.9
912.0243	1770.9804	1127.5	244.45
912.1649	1772.6711	1131.35	249.85
912.3056	1774.361	1126.85	245.25
912.4462	1776.0502	1125.95	244.95
912.5868	1777.7386	1129.5	247.35
912.7274	1779.4263	1126.5	244.5
912.8679	1781.1132	1125.35	245.15
913.0084	1782.7994	1121.8	236.8
913.149	1784.4849	1119.95	242.45
913.2895	1786.1696	1140.25	241.45
913.4299	1787.8535	1120.9	241.65
913.5704	1789.5367	1119.95	238.5
913.7108	1791.2192	1116.1	235.65
913.8513	1792.9009	1141.65	233.75
913.9917	1794.5818	1120.8	238.55
914.132	1796.2621	1117.9	239.65
914.2724	1797.9415	1116.3	234.9
914.4128	1799.6202	1114.25	233.5
914.5531	1801.2982	1117.5	237.35
914.6934	1802.9755	1114.3	232.7
914.8337	1804.6519	1116.45	234.75
914.9739	1806.3277	1112.5	231.1
915.1142	1808.0027	1108.75	229.25
915.2544	1809.6769	1108.9	228.9
915.3946	1811.3504	1106.65	223.35
915.5348	1813.0231	1107.9	229.35
915.675	1814.6951	1107.25	226.7
915.8151	1816.3664	1111.1	228.55
915.9553	1818.0369	1109.6	230.15
916.0954	1819.7067	1099.85	220.55
916.2355	1821.3757	1106.25	224.25
916.3755	1823.044	1107.35	225.65
916.5156	1824.7115	1105.85	221.35
916.6556	1826.3783	1105.4	226.15
916.7956	1828.0443	1104.8	223.2
916.9356	1829.7096	1108.4	226.2
917.0756	1831.3741	1103	218.7
917.2155	1833.0379	1104.1	224.1
917.3555	1834.701	1103.7	221.95
917.4954	1836.3633	1100.85	221.3
917.6353	1838.0248	1099.85	216.6
917.7751	1839.6856	1103.6	224.4
917.915	1841.3457	1100.3	220.25
918.0548	1843.005	1096.05	215.75
918.1946	1844.6636	1100.65	221.45
918.3344	1846.3214	1101.25	220.5
918.4742	1847.9785	1096.05	215.8
918.6139	1849.6349	1102.6	217.7
918.7537	1851.2904	1105.15	214.1
918.8934	1852.9453	1096.9	214.3
919.0331	1854.5994	1095.35	211.15
919.1727	1856.2528	1101.55	213.2
919.3124	1857.9054	1092.65	210.9
919.452	1859.5572	1096.9	216.8
919.5916	1861.2083	1088.95	207.45
919.7312	1862.8587	1092.35	211.15
919.8708	1864.5084	1091.5	209.1
920.0103	1866.1572	1088.2	206.95
920.1498	1867.8054	1098.8	217.5
920.2893	1869.4528	1094.2	213.3
920.4288	1871.0994	1093.8	211.55
920.5683	1872.7453	1093	210.3
920.7077	1874.3905	1093.35	208.2
920.8471	1876.0349	1086.05	202.4
920.9865	1877.6786	1087.15	203.35
921.1259	1879.3215	1086.7	205.6
921.2653	1880.9637	1090.05	209.4
921.4046	1882.6051	1087.1	204.9
921.5439	1884.2458	1090.65	206.8
921.6832	1885.8858	1081	201.25
921.8225	1887.525	1085.4	203.1
921.9617	1889.1634	1084.05	203.75
922.101	1890.8011	1080.55	197.45
922.2402	1892.4381	1080.95	201
922.3794	1894.0743	1079.7	197.65
922.5185	1895.7098	1078.65	198.1
922.6577	1897.3446	1079.2	194.6
922.7968	1898.9786	1086.3	202.8
922.9359	1900.6118	1085	204.75
923.075	1902.2443	1079.15	197.15
923.214	1903.8761	1081.6	199.2
923.3531	1905.5071	1079.15	196.55
923.4921	1907.1374	1076.15	192.5
923.6311	1908.7669	1076.8	196.65
923.77	1910.3957	1076.15	194.1
923.909	1912.0237	1073.85	192.75
924.0479	1913.651	1079.35	196.25
924.1868	1915.2776	1070.95	191.8
924.3257	1916.9034	1073.55	193.95
924.4646	1918.5285	1069.8	193.8
924.6034	1920.1528	1073.15	192.05
924.7422	1921.7764	1067.65	188.35
924.881	1923.3992	1067.9	187.85
925.0198	1925.0213	1069.8	185.45
925.1586	1926.6427	1069	190.5
925.2973	1928.2633	1275.9	176.9
925.436	1929.8832	1079.4	194.5
925.5747	1931.5023	1064.55	181.3
925.7134	1933.1207	1067.85	187.75
925.852	1934.7383	1066.75	184.55
925.9906	1936.3552	1063.25	181.3
926.1292	1937.9714	1062.9	181.1
926.2678	1939.5868	1065.05	181.5
926.4064	1941.2015	1060.55	180.9
926.5449	1942.8154	1062.7	179.95
926.6834	1944.4286	1062.4	180.75
926.8219	1946.041	1086.55	178.65
926.9604	1947.6528	1071.7	187.1
927.0988	1949.2637	1057.75	176.6
927.2372	1950.8739	1063.85	182.75
927.3756	1952.4834	1063.6	182.1
927.514	1954.0921	1061.8	180.7
927.6523	1955.7001	1059.75	176.25
927.7907	1957.3074	1056.85	177.55
927.929	1958.9139	1052.15	171.65
928.0673	1960.5197	1058.85	178.3
928.2055	1962.1247	1054.85	173.75
928.3438	1963.729	1057.15	180.55
928.482	1965.3325	1059.6	172.5
928.6202	1966.9353	1054.25	173.95
928.7584	1968.5374	1054.2	174.9
928.8965	1970.1387	1058.95	178.8
929.0346	1971.7393	1055.75	175.65
929.1727	1973.3392	1054.7	174.1
929.3108	1974.9383	1050.9	172.5
929.4489	1976.5366	1050.2	171.55
929.5869	1978.1342	1053.1	173.55
929.7249	1979.7311	1050.25	170.2
929.8629	1981.3273	1050.2	169.75
930.0009	1982.9227	1044.45	164.15
930.1388	1984.5173	1052.65	173.95
930.2767	1986.1112	1047.5	169.45
930.4146	1987.7044	1048.3	171.8
930.5525	1989.2968	1050.4	171.65
930.6904	1990.8885	1051.55	168.15
930.8282	1992.4795	1050.15	167.45
930.966	1994.0697	1045.25	167.35
931.1038	1995.6592	1042.2	164.05
931.2415	1997.2479	1046.7	165.95
931.3793	1998.8359	1045.95	168.7
931.517	2000.4232	1045.65	169.75
931.6547	2002.0097	1039.3	162.9
931.7923	2003.5955	1045.65	169.35
931.93	2005.1805	1042.6	165.45
932.0676	2006.7648	1044.3	166.2
932.2052	2008.3484	1039.25	159.7
932.3427	2009.9312	1048.5	168.15
932.4803	2011.5133	1041.8	164.65
932.6178	2013.0946	1040.9	164.15
932.7553	2014.6752	1038.2	160.35
932.8928	2016.2551	1043.3	166.6
933.0302	2017.8342	1039.4	161.7
933.1676	2019.4126	1041.3	165.45
933.305	2020.9902	1038	161.75
933.4424	2022.5672	1040.95	164.15
933.5798	2024.1433	1045.45	161.75
933.7171	2025.7188	1037.6	159.9
933.8544	2027.2935	1041.55	164.35
933.9917	2028.8674	1035.95	159.3
934.129	2030.4406	1036.4	160.35
934.2662	2032.0131	1035.05	157.85
934.4034	2033.5849	1039.55	155.7
934.5406	2035.1559	1036.5	160.1
934.6778	2036.7261	1034.75	158.85
934.8149	2038.2957	1039.15	161.15
934.952	2039.8645	1035.1	157.15
935.0891	2041.4325	1039.5	159.85
935.2262	2042.9998	1034.05	156.05
935.3632	2044.5664	1035.75	156.6
935.5002	2046.1323	1033.45	157
935.6372	2047.6974	1033.8	157
935.7742	2049.2617	1037.95	162.55
935.9111	2050.8254	1056.65	172.3
936.048	2052.3883	1037.55	158.1
936.1849	2053.9504	1034	156
936.3218	2055.5118	1035.15	156.45
936.4586	2057.0725	1034.9	155.25
936.5955	2058.6325	1030.1	152.25
936.7323	2060.1917	1036.3	158.1
936.869	2061.7502	1034.65	153.05
937.0058	2063.3079	1030	152.55
937.1425	2064.8649	1035.2	156.45
937.2792	2066.4212	1035.4	156.7
937.4159	2067.9767	1032.05	152.55
937.5525	2069.5315	1032.9	153.25
937.6891	2071.0856	1028	149.35
937.8257	2072.6389	1031.35	151.8
937.9623	2074.1915	1032.1	157.55
938.0989	2075.7433	1032	153.05
938.2354	2077.2945	1026.35	147.5
938.3719	2078.8448	1031.5	153.1
938.5084	2080.3945	1026.25	148.5
938.6448	2081.9434	1029.85	151.55
938.7812	2083.4916	1030.6	151.6
938.9176	2085.039	1031.15	151.2
939.054	2086.5857	1031.3	149.8
939.1903	2088.1317	1032.6	153.8
939.3267	2089.677	1031.75	153.05
939.463	2091.2215	1027.5	147.5
939.5992	2092.7652	1031.75	152.15
939.7355	2094.3083	1031	149.25
939.8717	2095.8506	1029.15	150.7
940.0079	2097.3921	1025.85	146.05
940.1441	2098.933	1024.95	149.1
940.2802	2100.4731	1030.35	152.35
940.4163	2102.0124	1046.4	151.9
940.5524	2103.5511	1028.4	149.65
940.6885	2105.089	1025.95	146.15
940.8245	2106.6261	1027.9	149.8
940.9606	2108.1626	1026.3	146.55
941.0965	2109.6983	1057.5	151.2
941.2325	2111.2332	1026.9	148.1
941.3684	2112.7675	1030.85	151.25
941.5044	2114.301	1029.15	146.15
941.6403	2115.8337	1028.3	148.65
941.7761	2117.3657	1023.95	146.55
941.912	2118.897	1025.95	147.65
942.0478	2120.4276	1030.8	143.85
942.1835	2121.9575	1021.45	143.9
942.3193	2123.4866	1042.15	147.7
942.455	2125.0149	1027.55	145.9
942.5907	2126.5426	1026.2	149.1
942.7264	2128.0695	1028.95	147.65
942.8621	2129.5956	1020	143.95
942.9977	2131.1211	1029.65	147.55
943.1333	2132.6458	1027.25	151.45
943.2689	2134.1698	1025.55	146.4
943.4044	2135.693	1023.5	140.1
943.54	2137.2155	1025.95	144.85
943.6755	2138.7373	1027.75	149
943.8109	2140.2584	1021.9	146.35
943.9464	2141.7787	1029.75	145.05
944.0818	2143.2983	1022.3	145.7
944.2172	2144.8171	1020.6	144.3
944.3526	2146.3353	1021.9	143.25
944.4879	2147.8527	1020.4	143.85
944.6232	2149.3693	1021.15	143.4
944.7585	2150.8853	1024.2	143.45
944.8938	2152.4005	1024.2	146.75
945.029	2153.9149	1025.6	145.75
945.1642	2155.4287	1021.9	143.4
945.2994	2156.9417	1020.55	142.2
945.4346	2158.454	1022.1	141.1
945.5697	2159.9655	1021.95	144.05
945.7048	2161.4764	1023.45	146.05
945.8399	2162.9865	1018.65	139.9
945.9749	2164.4958	1018.25	138.5
946.1099	2166.0045	1020.95	139.45
946.2449	2167.5124	1015.7	138.6
946.3799	2169.0195	1018.7	139.45
946.5148	2170.526	1018.95	139.9
946.6498	2172.0317	1016.9	137.25
946.7846	2173.5367	1018.2	138.65
946.9195	2175.0409	1017.3	140.15
947.0543	2176.5445	1018.75	141
947.1891	2178.0473	1020.6	141.35
947.3239	2179.5494	1019.35	137.1
947.4587	2181.0507	1018.65	139.95
947.5934	2182.5513	1016.45	138.15
947.7281	2184.0512	1016	138.05
947.8628	2185.5504	1018.35	138
947.9974	2187.0488	1013.25	135.6
948.132	2188.5465	1014.6	136.5
948.2666	2190.0435	1015.2	136.65
948.4012	2191.5397	1012.25	135.05
948.5357	2193.0353	1018.85	141.35
948.6702	2194.5301	1015.25	135.95
948.8047	2196.0241	1017.25	137.5
948.9392	2197.5175	1010.75	135.1
949.0736	2199.0101	1016.6	133.65
949.208	2200.502	1012.2	133.9
949.3424	2201.9931	1011.85	132.7
949.4767	2203.4835	1010.8	132.2
949.611	2204.9733	1028.3	134.45
949.7453	2206.4622	1013.4	137.8
949.8796	2207.9505	1012	130.85
950.0138	2209.438	1006.8	130.95
950.148	2210.9248	1010.55	130.45
950.2822	2212.4109	1009	133
950.4164	2213.8962	1011.05	129.4
950.5505	2215.3809	1008.65	130.1
950.6846	2216.8648	1010.85	132.7
950.8186	2218.3479	1015.8	131.45
950.9527	2219.8304	1012.9	128.65
951.0867	2221.3121	1009.55	128.05
951.2207	2222.7931	1005.95	124.55
951.3546	2224.2733	1006.7	128
951.4886	2225.7529	1007.5	128.2
951.6225	2227.2317	1007.65	126.95
951.7563	2228.7098	999.85	123.25
951.8902	2230.1872	1003.9	125.05
952.024	2231.6638	1004.6	129.35
952.1578	2233.1397	1014	130.7
952.2916	2234.6149	1002	125.35
952.4253	2236.0894	1008.15	129.15
952.559	2237.5632	1016.3	128.6
952.6927	2239.0362	1005.55	129.3
952.8263	2240.5085	1005.2	127.7
952.9599	2241.9801	1005	125.95
953.0935	2243.4509	1001.15	123.5
953.2271	2244.921	1003.1	125.3
953.3606	2246.3904	1004.2	121.15
953.4941	2247.8591	998.75	122.5
953.6276	2249.3271	999.65	121.9
953.7611	2250.7943	1004.45	125.15
953.8945	2252.2608	997.85	118.55
954.0279	2253.7266	998.15	119.2
954.1612	2255.1917	998.45	119.55
954.2946	2256.656	1002.45	122.05
954.4279	2258.1197	996.65	120.55
954.5612	2259.5826	998.75	119.95
954.6944	2261.0447	1001.45	122.1
954.8276	2262.5062	998.3	119
954.9608	2263.9669	1003.1	121.95
955.094	2265.4269	996.2	117.35
955.2271	2266.8862	997.85	120.1
955.3602	2268.3448	995.65	115.65
955.4933	2269.8026	993.95	117.5
955.6264	2271.2598	994.65	116.05
955.7594	2272.7162	994.9	117.3
955.8924	2274.1719	994.4	116.5
956.0253	2275.6268	1002.15	125.85
956.1583	2277.0811	992.45	113.1
956.2912	2278.5346	994.25	116.15
956.4241	2279.9874	995.85	119.55
956.5569	2281.4395	992.85	116.15
956.6897	2282.8908	1000	116.4
956.8225	2284.3414	998.15	117.9
956.9553	2285.7914	993.4	114.65
957.088	2287.2406	995.1	115.3
957.2207	2288.689	997.95	118
957.3534	2290.1368	995.35	115.6
957.486	2291.5838	1000.8	120.25
957.6186	2293.0302	996.2	116.65
957.7512	2294.4758	987.65	107.75
957.8838	2295.9206	996.35	115.45
958.0163	2297.3648	991.65	112.15
958.1488	2298.8082	992	114.8
958.2813	2300.251	992.45	113.95
958.4137	2301.693	996.05	113.85
958.5461	2303.1343	995.9	115.8
958.6785	2304.5748	991.1	111.85
958.8108	2306.0147	991.85	111.85
958.9432	2307.4538	996.55	116.6
959.0754	2308.8922	986.25	109.65
959.2077	2310.3299	988.4	110.3
959.3399	2311.7669	987.15	107.75
959.4721	2313.2031	990.2	110.35
959.6043	2314.6387	990.85	113.4
959.7365	2316.0735	987.3	108.05
959.8686	2317.5076	988.6	109.45
960.0006	2318.941	987.2	108.3
960.1327	2320.3737	989.8	111.8
960.2647	2321.8056	988.15	109.35
960.3967	2323.2369	989.6	107.9
960.5287	2324.6674	992.45	110.5
960.6606	2326.0972	996.45	116.1
960.7925	2327.5263	992.65	113.65
960.9244	2328.9547	1001.5	119.75
961.0562	2330.3823	998.05	119.45
961.1881	2331.8092	992.75	110.1
961.3198	2333.2355	990.95	112.3
961.4516	2334.661	988.75	108.4
961.5833	2336.0858	988.8	106.1
961.715	2337.5098	987.85	108.7
961.8467	2338.9332	984.05	104.7
961.9783	2340.3558	988.95	105.25
962.1099	2341.7778	983.9	104.4
962.2415	2343.199	984.9	103.8
962.373	2344.6195	984.35	105.15
962.5045	2346.0393	981.3	103.35
962.636	2347.4583	982.65	101.95
962.7675	2348.8767	984.45	104.35
962.8989	2350.2943	983.75	102.55
963.0303	2351.7113	984.95	102.1
963.1617	2353.1275	979.05	99.55
963.293	2354.543	1008.15	102.25
963.4243	2355.9578	984.3	104.8
963.5556	2357.3718	981	105.6
963.6868	2358.7852	984	103.25
963.818	2360.1978	980.55	101.95
963.9492	2361.6098	982.1	103.45
964.0803	2363.021	988.4	105.75
964.2114	2364.4315	982.75	102.7
964.3425	2365.8413	984.9	98.75
964.4736	2367.2504	979.7	102.1
964.6046	2368.6587	976.85	96.45
964.7356	2370.0664	978.2	101.15
964.8666	2371.4733	982.7	105.85
964.9975	2372.8795	976.65	98.95
965.1284	2374.285	978.05	100.7
965.2593	2375.6899	978.8	100.55
965.3901	2377.0939	975.95	96.55
965.5209	2378.4973	980.75	102.35
965.6517	2379.9	979.95	100.3
965.7825	2381.3019	978.9	99.35
965.9132	2382.7032	981.3	103.15
966.0439	2384.1037	977.55	99.6
966.1745	2385.5035	976.55	97.85
966.3051	2386.9027	976.25	98.15
966.4357	2388.3011	978.3	95.9
966.5663	2389.6987	976.8	96.55
966.6968	2391.0957	978.85	101
966.8273	2392.492	976	97.2
966.9578	2393.8876	974.25	95.3
967.0882	2395.2824	973.05	92.95
967.2186	2396.6765	971.4	93
967.349	2398.07	973.1	91.75
967.4793	2399.4627	972.85	90.65
967.6097	2400.8547	976.35	97.35
967.7399	2402.246	978.25	93.65
967.8702	2403.6366	971.85	92.7
968.0004	2405.0265	972.65	94
968.1306	2406.4156	976.05	91.65
968.2607	2407.8041	975.3	91.15
968.3909	2409.1918	975.05	94.9
968.521	2410.5789	970.4	90.9
968.651	2411.9652	974.55	88.7
968.781	2413.3508	972	92.55
968.911	2414.7358	973.8	91.25
969.041	2416.12	969.45	90.7
969.1709	2417.5035	969.2	90.85
969.3008	2418.8863	972.2	88.7
969.4307	2420.2684	968.35	89.75
969.5606	2421.6497	968.9	88.05
969.6904	2423.0304	967.55	90.5
969.8201	2424.4104	973.75	92.75
969.9499	2425.7896	974.25	89.15
970.0796	2427.1682	967.15	88.1
970.2093	2428.546	965.6	84.85
970.3389	2429.9232	971	90.1
970.4685	2431.2996	965.15	84.25
970.5981	2432.6753	966.05	86.3
970.7277	2434.0503	965.4	84.55
970.8572	2435.4246	967.2	87.9
970.9867	2436.7982	969.9	88.15
971.1161	2438.1711	964	83.6
971.2456	2439.5433	968.6	86
971.375	2440.9148	973.7	94.25
971.5043	2442.2856	964.9	85.85
971.6336	2443.6557	967.4	85.75
971.7629	2445.025	962.95	82.55
971.8922	2446.3937	967.3	85.35
972.0214	2447.7617	967.3	87.05
972.1506	2449.1289	966.15	87.75
972.2798	2450.4955	965.85	82.5
972.4089	2451.8613	964.1	86.6
972.538	2453.2265	964.8	85.05
972.6671	2454.5909	962.75	83.55
972.7961	2455.9546	964.7	84.75
972.9251	2457.3177	963.05	84.8
973.0541	2458.68	964.35	81.8
973.1831	2460.0416	962.95	84.65
973.312	2461.4025	966.4	83.05
973.4408	2462.7627	976	84.2
973.5697	2464.1222	962.45	84.05
973.6985	2465.4811	959.25	80.5
973.8273	2466.8392	962.7	84
973.956	2468.1966	963.9	82.05
974.0847	2469.5533	962.15	80.7
974.2134	2470.9093	963.55	83
974.3421	2472.2645	963.4	83.25
974.4707	2473.6191	961.1	79.95
974.5993	2474.973	960.6	82.55
974.7278	2476.3262	962.5	81.2
974.8563	2477.6787	962.95	83.85
974.9848	2479.0305	960.15	81.4
975.1132	2480.3816	961	79
975.2417	2481.7319	958.4	78.1
975.37	2483.0816	964.8	83.6
975.4984	2484.4306	959.45	80.15
975.6267	2485.7789	962.25	83.45
975.755	2487.1264	961.8	80.7
975.8833	2488.4733	958.7	82.35
976.0115	2489.8195	963.5	77.2
976.1397	2491.165	962.85	79.05
976.2678	2492.5097	962.6	81.15
976.3959	2493.8538	958.5	79.6
976.524	2495.1972	959.85	79.55
976.6521	2496.5398	959.15	78.6
976.7801	2497.8818	959.05	76.15
976.9081	2499.2231	958.5	80.1
977.036	2500.5637	958.85	76.4
977.164	2501.9035	958.2	77.7
977.2918	2503.2427	960.4	74.75
977.4197	2504.5812	959.55	79.15
977.5475	2505.919	959.65	77.5
977.6753	2507.256	956	75.55
977.8031	2508.5924	955.45	76.65
977.9308	2509.9281	959.3	74.2
978.0585	2511.2631	950.7	73.05
978.1861	2512.5974	954.5	73.2
978.3137	2513.9309	957.55	77.95
978.4413	2515.2638	981.55	74.6
978.5689	2516.596	956.05	77
978.6964	2517.9275	958.5	78.85
978.8239	2519.2583	954.5	73.1
978.9513	2520.5884	956.05	75.65
979.0788	2521.9178	953.7	74.7
979.2062	2523.2465	952.9	74.2
979.3335	2524.5745	953.6	76.3
979.4608	2525.9018	953.65	74.05
979.5881	2527.2284	951.9	74.8
979.7154	2528.5543	955.7	76.95
979.8426	2529.8796	954.9	77.55
979.9698	2531.2041	954.9	75.55
980.0969	2532.5279	951.45	75.4
980.224	2533.851	953.7	72.3
980.3511	2535.1735	951	73.5
980.4781	2536.4952	952.7	72.55
980.6052	2537.8163	954.2	73.45
980.7321	2539.1366	951.95	73.8
980.8591	2540.4562	953.15	73
980.986	2541.7752	950.05	70.05
981.1129	2543.0935	951.85	71.55
981.2397	2544.411	951.5	70.55
981.3665	2545.7279	950.95	69.55
981.4933	2547.0441	951.45	70.95
981.62	2548.3596	953.05	70.75
981.7467	2549.6744	949.85	70.45
981.8734	2550.9885	959.05	70.9
982.0001	2552.3019	947.85	70
982.1267	2553.6146	950.75	71.25
982.2532	2554.9266	949.85	70.3
982.3798	2556.2379	950.35	70.75
982.5063	2557.5485	948.75	72.65
982.6327	2558.8585	958.25	71.9
982.7592	2560.1677	949.85	67.1
982.8856	2561.4762	950.7	71.25
983.0119	2562.7841	950	66.8
983.1383	2564.0913	944.45	67.5
983.2646	2565.3977	948.7	68.95
983.3908	2566.7035	947.3	68.7
983.517	2568.0086	950.7	68.95
983.6432	2569.313	948.9	71.9
983.7694	2570.6167	953.4	69.05
983.8955	2571.9197	948.3	70.3
984.0216	2573.222	952.25	68.65
984.1476	2574.5236	950.4	71.25
984.2737	2575.8246	947.8	65.8
984.3996	2577.1248	950.6	71.25
984.5256	2578.4244	947.35	68.4
984.6515	2579.7232	947.35	66.9
984.7774	2581.0214	972.25	65.35
984.9032	2582.3189	948.9	72.55
985.029	2583.6157	951.15	68.2
985.1548	2584.9118	948.6	68.55
985.2806	2586.2072	945.5	67.2
985.4063	2587.5019	946.2	66.7
985.5319	2588.7959	946.25	66
985.6576	2590.0893	949.4	68.8
985.7832	2591.3819	945.65	69.85
985.9087	2592.6739	947.15	70
986.0343	2593.9652	948.15	65.55
986.1597	2595.2557	946.5	67.35
986.2852	2596.5456	949.9	69.2
986.4106	2597.8348	946.15	68.25
986.536	2599.1234	945.95	64.85
986.6614	2600.4112	947.25	68.1
986.7867	2601.6983	950.8	67.5
986.912	2602.9848	948.7	68.15
987.0372	2604.2705	958.7	72.3
987.1624	2605.5556	942.9	63.8
987.2876	2606.84	945.45	68.5
987.4128	2608.1237	945.65	62.65
987.5379	2609.4067	944.05	64.75
987.6629	2610.689	951.5	62.85
987.788	2611.9707	949.3	68.05
987.913	2613.2516	951.4	68.75
988.0379	2614.5319	943.25	64.1
988.1629	2615.8115	942.35	62.7
988.2878	2617.0903	945.15	63.05
988.4126	2618.3685	943.9	65.3
988.5375	2619.6461	943.45	63.35
988.6622	2620.9229	944.7	65.35
988.787	2622.199	946.3	66.45
988.9117	2623.4745	944.8	66.2
989.0364	2624.7493	942.4	64.65
989.161	2626.0234	943.65	64.8
989.2857	2627.2968	942.35	63.4
989.4102	2628.5695	941.8	63.3
989.5348	2629.8415	941.55	62.65
989.6593	2631.1128	944.05	65.75
989.7837	2632.3835	942.65	61.7
989.9082	2633.6535	939.55	61.15
990.0326	2634.9228	940.25	60.9
990.1569	2636.1914	940	62.1
990.2812	2637.4593	938.7	57.3
990.4055	2638.7265	942.15	60.4
990.5298	2639.9931	943.2	65.2
990.654	2641.259	941.65	62.4
990.7782	2642.5242	941	61.6
990.9023	2643.7887	940	61.15
991.0264	2645.0525	940.9	59.65
991.1505	2646.3156	938.2	57.45
991.2745	2647.5781	936.5	57.65
991.3985	2648.8398	936.35	55.95
991.5225	2650.1009	975.4	59.2
991.6464	2651.3613	940.65	61.75
991.7703	2652.6211	935.7	57.75
991.8942	2653.8801	933.3	54.2
992.018	2655.1385	938.25	55.4
992.1418	2656.3961	932.9	53.9
992.2655	2657.6531	936.35	57.65
992.3892	2658.9094	937.95	59.15
992.5129	2660.1651	935.65	57
992.6366	2661.42	936.2	58.1
992.7602	2662.6743	934.45	53.6
992.8837	2663.9279	933.15	54.25
993.0073	2665.1808	938.8	58.45
993.1307	2666.433	937.6	57.85
993.2542	2667.6846	937.15	58.35
993.3776	2668.9354	939.8	57.4
993.501	2670.1856	941.75	63.5
993.6244	2671.4351	936.65	59.5
993.7477	2672.6839	937.95	60.15
993.8709	2673.9321	938.1	58.15
993.9942	2675.1795	939.5	62.2
994.1174	2676.4263	937.55	57.85
994.2405	2677.6724	937.55	60.55
994.3637	2678.9179	937.5	61.95
994.4868	2680.1626	939.1	60.35
994.6098	2681.4067	937.2	58.05
994.7328	2682.6501	936.95	56.6
994.8558	2683.8928	935.2	57.85
994.9788	2685.1348	931.7	54.7
995.1017	2686.3761	935.4	57.2
995.2245	2687.6168	934.55	57.25
995.3474	2688.8568	935.6	56.7
995.4702	2690.0961	933.95	55.9
995.5929	2691.3348	934.65	54.35
995.7156	2692.5727	933.15	55.2
995.8383	2693.81	932.6	54.35
995.961	2695.0466	931.95	56.55
996.0836	2696.2826	934.05	53.7
996.2062	2697.5178	931.45	50.35
996.3287	2698.7524	934	56.8
996.4512	2699.9863	938.05	57.95
996.5737	2701.2195	931.1	53.4
996.6961	2702.452	933.1	52.25
996.8185	2703.6839	934.25	54.2
996.9408	2704.9151	934.4	56.15
997.0631	2706.1456	935.35	55.4
997.1854	2707.3755	936.3	55.7
997.3077	2708.6046	938	55.9
997.4299	2709.8331	940.2	61
997.552	2711.0609	935.1	57.45
997.6742	2712.2881	936	56.8
997.7963	2713.5145	938.55	58.5
997.9183	2714.7403	938.2	62.15
998.0403	2715.9654	940.75	63.25
998.1623	2717.1899	954.25	62.05
998.2842	2718.4136	941.1	62.15
998.4062	2719.6367	942.1	62.1
998.528	2720.8591	949.15	64.05
998.6498	2722.0809	940.7	63.95
998.7716	2723.3019	947.25	64.15
998.8934	2724.5223	945.95	66.55
999.0151	2725.7421	947.4	67.4
999.1368	2726.9611	944.4	65.3
999.2584	2728.1795	945.85	63.2
999.38	2729.3972	939.3	60.85
999.5016	2730.6142	944.05	56.8
999.6231	2731.8306	939.2	59
999.7446	2733.0462	938.8	58.9
999.8661	2734.2612	941.3	56
999.9875	2735.4756	938.15	57.2
1000.1089	2736.6892	932.9	52.95
1000.2302	2737.9022	936.1	57.8
1000.3515	2739.1145	931.35	52.8
1000.4728	2740.3262	939.85	52.15
1000.594	2741.5372	932.25	54.95
1000.7152	2742.7475	932.45	53.95
1000.8363	2743.9571	931.75	53
1000.9575	2745.1661	933.8	52.85
1001.0785	2746.3744	929.6	50.9
1001.1996	2747.582	928.9	51.95
1001.3206	2748.7889	928.25	48.05
1001.4415	2749.9952	923.35	46.65
1001.5625	2751.2008	927.25	46.25
1001.6833	2752.4057	928.35	46.8
1001.8042	2753.61	926.05	47.4
1001.925	2754.8136	929.7	50.55
1002.0458	2756.0165	925.75	48.65
1002.1665	2757.2188	922.2	46.1
1002.2872	2758.4204	925.95	46.4
1002.4078	2759.6213	927.4	47
1002.5285	2760.8215	929.3	46.15
1002.649	2762.0211	925.75	46.45
1002.7696	2763.22	930.25	49.5
1002.8901	2764.4182	927.25	46.9
1003.0106	2765.6158	923.55	44.4
1003.131	2766.8127	923.55	46.25
1003.2514	2768.009	924.75	46.25
1003.3717	2769.2045	924.85	46.4
1003.492	2770.3994	925.2	45.8
1003.6123	2771.5936	924.85	47.15
1003.7325	2772.7872	921.45	44.8
1003.8527	2773.9801	924.85	46.9
1003.9729	2775.1723	937.6	42.5
1004.093	2776.3639	922.1	43.65
1004.2131	2777.5548	921.55	38.65
1004.3331	2778.745	922.3	41.65
1004.4531	2779.9346	920.5	42.9
1004.5731	2781.1235	920.15	37.8
1004.693	2782.3117	920.65	43.35
1004.8129	2783.4992	923.2	44.1
1004.9328	2784.6861	918.8	41.9
1005.0526	2785.8723	923.7	45.85
1005.1723	2787.0579	921.85	43.1
1005.2921	2788.2428	921.65	43.45
1005.4118	2789.427	919.35	42.75
1005.5314	2790.6106	920.15	41.5
1005.651	2791.7935	924.85	44.2
1005.7706	2792.9757	919.05	43.15
1005.8902	2794.1573	923.6	42.2
1006.0097	2795.3382	923.35	44
1006.1291	2796.5184	922.35	46.25
1006.2485	2797.698	925.25	44.45
1006.3679	2798.8769	920.5	44
1006.4873	2800.0551	922.55	43.25
1006.6066	2801.2327	925.8	44.45
1006.7258	2802.4096	922.05	44.5
1006.8451	2803.5859	924.1	44.95
1006.9642	2804.7615	923.75	45
1007.0834	2805.9364	924.85	48
1007.2025	2807.1106	925.1	47.35
1007.3216	2808.2842	929.65	50.7
1007.4406	2809.4572	927.75	50.5
1007.5596	2810.6294	929.4	51.75
1007.6785	2811.801	927.95	49.8
1007.7975	2812.972	930.6	52.95
1007.9163	2814.1423	932.3	53.65
1008.0352	2815.3119	933.4	55.55
1008.154	2816.4808	935.6	57.35
1008.2727	2817.6491	943.2	65.3
1008.3914	2818.8167	943.5	66.7
1008.5101	2819.9837	951.1	68.75
1008.6288	2821.15	952.9	75.3
1008.7474	2822.3157	955.7	80.25
1008.8659	2823.4807	966.55	88.3
1008.9844	2824.645	974.25	95.7
1009.1029	2825.8086	983	105.7
1009.2214	2826.9716	992.15	116.5
1009.3398	2828.134	999.9	122.3
1009.4581	2829.2957	1005.35	125.95
1009.5764	2830.4567	1004.25	126.9
1009.6947	2831.617	1013.95	136.2
1009.813	2832.7767	1016	138.4
1009.9312	2833.9358	1018.35	140.8
1010.0493	2835.0941	1017.4	141.55
1010.1675	2836.2519	1011.2	132.5
1010.2855	2837.4089	1008.65	131.05
1010.4036	2838.5653	1005.4	127.85
1010.5216	2839.7211	1003.1	126.65
1010.6396	2840.8761	1003.9	124.3
1010.7575	2842.0306	993.95	117.65
1010.8754	2843.1843	999.8	124.35
1010.9932	2844.3374	994.15	115.45
1011.111	2845.4899	1005.15	126.35
1011.2288	2846.6417	1005.2	128.75
1011.3465	2847.7928	1001.85	123.4
1011.4642	2848.9433	1006.9	130.2
1011.5818	2850.0931	1008.2	129.8
1011.6995	2851.2422	1010.4	130.75
1011.817	2852.3907	1011.25	133.8
1011.9345	2853.5385	1014	133.75
1012.052	2854.6857	1036.05	132.2
1012.1695	2855.8323	1012.05	134.85
1012.2869	2856.9781	1013.45	136.45
1012.4042	2858.1233	1018.6	140.65
1012.5216	2859.2679	1023.3	144.7
1012.6389	2860.4118	1029.75	151.9
1012.7561	2861.555	1033	149.65
1012.8733	2862.6976	1034.3	156.2
1012.9905	2863.8395	1031.65	155.65
1013.1076	2864.9808	1036.05	158.7
1013.2247	2866.1214	1031.6	154.55
1013.3417	2867.2614	1038.5	161.85
1013.4587	2868.4007	1044.35	164.9
1013.5757	2869.5393	1044.65	165.4
1013.6926	2870.6773	1046.4	166.9
1013.8095	2871.8146	1049.75	167.95
1013.9263	2872.9513	1049.85	169.35
1014.0431	2874.0874	1051.7	174.15
1014.1599	2875.2227	1057.8	179.85
1014.2766	2876.3574	1054.85	177.9
1014.3933	2877.4915	1054.05	175.5
1014.51	2878.6249	1058.7	181.9
1014.6266	2879.7577	1058.45	180.65
1014.7431	2880.8898	1069.55	181.3
1014.8596	2882.0212	1064.85	189.25
1014.9761	2883.152	1065.65	187.45
1015.0925	2884.2821	1075.1	200.2
1015.2089	2885.4116	1069.2	191.6
1015.3253	2886.5405	1069.35	191.35
1015.4416	2887.6686	1077.85	198.2
1015.5579	2888.7962	1078.15	204
1015.6741	2889.923	1071.6	194.05
1015.7903	2891.0493	1074	194.75
1015.9065	2892.1748	1078.75	201.75
1016.0226	2893.2997	1066.55	187.85
1016.1387	2894.424	1068.85	191.75
1016.2547	2895.5476	1076.4	199.9
1016.3707	2896.6706	1070.15	193.55
1016.4866	2897.7929	1075.8	199.05
1016.6025	2898.9145	1076.1	198.4
1016.7184	2900.0355	1076.35	198.15
1016.8342	2901.1559	1076.65	199.65
1016.95	2902.2756	1076.45	193.9
1017.0658	2903.3946	1075.2	199.25
1017.1815	2904.513	1072.55	192.6
1017.2971	2905.6308	1066.8	191.5
1017.4127	2906.7479	1069.65	192.2
1017.5283	2907.8643	1067.2	190.15
1017.6439	2908.9801	1073.15	195.6
1017.7594	2910.0953	1068.65	193.35
1017.8748	2911.2098	1072.15	189.4
1017.9902	2912.3236	1078.2	193.15
1018.1056	2913.4368	1070.7	191.1
1018.2209	2914.5494	1068.6	190.05
1018.3362	2915.6613	1071.3	189.25
1018.4515	2916.7725	1065.3	185.8
1018.5667	2917.8831	1056.4	175.65
1018.6819	2918.9931	1057.65	179.6
1018.797	2920.1024	1057.85	179.55
1018.9121	2921.211	1051.45	175
1019.0271	2922.319	1053.2	175.1
1019.1421	2923.4264	1049.3	173.75
1019.2571	2924.5331	1047.25	170.1
1019.372	2925.6391	1050.3	174.15
1019.4869	2926.7445	1047.05	171.1
1019.6017	2927.8493	1047.15	168.85
1019.7165	2928.9534	1050.4	172.9
1019.8313	2930.0569	1054.65	175.75
1019.946	2931.1597	1054.8	177.2
1020.0606	2932.2619	1052.9	176.5
1020.1753	2933.3634	1053.15	177.85
1020.2899	2934.4643	1061.35	177.1
1020.4044	2935.5645	1063.15	180.45
1020.5189	2936.6641	1061.95	180.35
1020.6334	2937.763	1054.7	177.95
1020.7478	2938.8613	1060.1	181.15
1020.8622	2939.959	1063.05	181.25
1020.9765	2941.056	1053.05	177.45
1021.0908	2942.1523	1044.9	167.15
1021.2051	2943.248	1039.85	161
1021.3193	2944.3431	1031.8	155.25
1021.4334	2945.4375	1023	144.25
1021.5476	2946.5313	1013.85	138.85
1021.6617	2947.6244	1005.55	127.2
1021.7757	2948.7169	1001.3	123.3
1021.8897	2949.8087	991.9	113
1022.0037	2950.8999	990.65	116.05
1022.1176	2951.9904	983.85	107.75
1022.2315	2953.0803	981	102.8
1022.3453	2954.1696	976.45	99.55
1022.4591	2955.2582	972.05	97.4
1022.5728	2956.3462	966.65	91.35
1022.6865	2957.4335	971	92.65
1022.8002	2958.5202	967.35	87.75
1022.9138	2959.6062	966.6	90
1023.0274	2960.6916	966.65	89.35
1023.141	2961.7764	967.45	88.95
1023.2545	2962.8605	966	89.9
1023.3679	2963.9439	965.7	90.1
1023.4813	2965.0267	966.1	86.55
1023.5947	2966.1089	987.7	88.75
1023.708	2967.1905	964.6	88.7
1023.8213	2968.2714	959.6	83.45
1023.9346	2969.3516	962	82.8
1024.0478	2970.4312	970.05	83.6
1024.1609	2971.5102	963.5	86.05
1024.274	2972.5885	960.5	85.25
1024.3871	2973.6662	967.6	86.65
1024.5002	2974.7432	961.25	84.75
1024.6132	2975.8196	965.65	89.6
1024.7261	2976.8954	960.7	86
1024.839	2977.9705	964.05	88.2
1024.9519	2979.045	963.1	87.45
1025.0647	2980.1188	962.75	84.9
1025.1775	2981.192	957.75	80.8
1025.2902	2982.2645	960.05	84.15
1025.4029	2983.3364	957.1	79.7
1025.5156	2984.4077	950.2	73.4
1025.6282	2985.4783	957.5	73.15
1025.7407	2986.5483	954.75	79.05
1025.8532	2987.6177	949.55	73.7
1025.9657	2988.6864	947.35	73.2
1026.0782	2989.7545	945.65	65.25
1026.1906	2990.8219	943.3	67.65
1026.3029	2991.8887	939.35	60.9
1026.4152	2992.9548	938.55	59.9
1026.5275	2994.0204	935.8	60.45
1026.6397	2995.0852	927.6	51.5
1026.7519	2996.1495	928.9	49.3
1026.864	2997.2131	923.35	47.6
1026.9761	2998.276	923.25	47.8
1027.0882	2999.3383	922.25	44.2
1027.2002	3000.4	921.85	44.6
1027.3122	3001.4611	917.5	40.45
1027.4241	3002.5215	915.7	38.75
1027.536	3003.5812	914.05	36.65
1027.6478	3004.6404	914.45	37.35
1027.7596	3005.6989	914.25	34.75
1027.8714	3006.7567	913.45	35
1027.9831	3007.8139	940	30.75
1028.0947	3008.8705	909.85	33.65
1028.2064	3009.9264	913.05	31.05
1028.3179	3010.9818	908.6	30.4
1028.4295	3012.0364	909.4	31.45
1028.541	3013.0905	907.3	29.8
1028.6524	3014.1439	909.15	32.05
1028.7638	3015.1966	904.5	26.8
1028.8752	3016.2487	905.8	30.8
1028.9865	3017.3002	912.1	26.55
1029.0978	3018.3511	904.65	31.55
1029.209	3019.4013	907.15	28.9
1029.3202	3020.4509	904.55	26.65
1029.4314	3021.4998	905	27.6
1029.5425	3022.5481	906.2	29.45
1029.6535	3023.5958	906.2	29.55
1029.7645	3024.6428	906.45	28.05
1029.8755	3025.6892	905.85	29.85
1029.9864	3026.735	902.65	26.95
1030.0973	3027.7802	905.4	28.45
1030.2082	3028.8247	904.4	28.45
1030.319	3029.8685	904.85	26.75
1030.4297	3030.9118	904.75	25.6
1030.5404	3031.9544	903.2	27.25
1030.6511	3032.9963	903.95	27.6
1030.7617	3034.0376	901.6	25.7
1030.8723	3035.0783	906.55	28.75
1030.9829	3036.1184	905.7	29
1031.0934	3037.1578	903.35	26.4
1031.2038	3038.1966	903.95	27.2
1031.3142	3039.2348	901.7	26.75
1031.4246	3040.2723	912.65	27.15
1031.5349	3041.3092	902.1	28.15
1031.6452	3042.3455	905.7	27.85
1031.7554	3043.3811	906.35	28.95
1031.8656	3044.4161	905	25.9
1031.9758	3045.4505	904.35	28.8
1032.0859	3046.4842	905.35	29.55
1032.1959	3047.5173	901.65	25.4
1032.3059	3048.5498	903.5	27
1032.4159	3049.5816	904.4	27.2
1032.5258	3050.6128	903.65	25.8
1032.6357	3051.6434	909	29.65
1032.7455	3052.6734	905.3	27.35
1032.8553	3053.7027	907.1	28.9
1032.9651	3054.7314	901.95	24.85
1033.0748	3055.7594	903.9	29.4
1033.1845	3056.7868	906.9	29.6
1033.2941	3057.8136	903.1	27.6
1033.4037	3058.8398	901.6	24.5
1033.5132	3059.8653	905.6	28.35
1033.6227	3060.8902	904.6	29.75
1033.7321	3061.9145	905.8	30.45
1033.8415	3062.9381	903.95	27.7
1033.9509	3063.9612	923.65	31.65
1034.0602	3064.9835	905.75	30.45
1034.1694	3066.0053	909.1	29.85
1034.2787	3067.0264	905.25	29.15
1034.3878	3068.0469	907.25	29.65
1034.497	3069.0668	908.3	30.9
1034.6061	3070.086	905.35	28.95
1034.7151	3071.1046	906.05	31.25
1034.8241	3072.1226	907.1	29.2
1034.9331	3073.1399	904.45	27.95
1035.042	3074.1567	903.35	26.4
1035.1508	3075.1727	904.25	26.45
1035.2597	3076.1882	903.85	28.25
1035.3684	3077.203	903.5	25.2
1035.4772	3078.2173	901.8	23.6
1035.5859	3079.2308	903.5	25.5
1035.6945	3080.2438	902.9	22.8
1035.8031	3081.2561	896.95	21.65
1035.9117	3082.2678	898.65	23.35
1036.0202	3083.2789	901.15	23.25
1036.1286	3084.2893	902.4	27.6
1036.2371	3085.2991	900.45	25.65
1036.3454	3086.3083	903.75	23.1
1036.4538	3087.3169	899.45	18.95
1036.562	3088.3248	898.4	18.55
1036.6703	3089.3321	898.55	21.15
1036.7785	3090.3388	896.65	20.45
1036.8866	3091.3449	896.6	21.8
1036.9948	3092.3503	902	24
1037.1028	3093.3551	895.4	22.55
1037.2108	3094.3593	895.4	20.9
1037.3188	3095.3629	895.1	18.7
1037.4267	3096.3658	895.15	15.2
1037.5346	3097.3681	895.95	20.7
1037.6425	3098.3698	897.5	19.35
1037.7503	3099.3708	897.65	21.5
1037.858	3100.3713	896.05	18.8
1037.9657	3101.3711	896.5	21
1038.0734	3102.3702	1028.95	21.15
1038.181	3103.3688	898.45	19.85
1038.2886	3104.3667	893.3	18.65
1038.3961	3105.364	893.35	15.7
1038.5036	3106.3607	895.6	16.5
1038.611	3107.3568	894.35	17.75
1038.7184	3108.3522	889.85	16
1038.8257	3109.347	895.45	17.45
1038.933	3110.3412	900.95	22.2
1039.0403	3111.3348	893.2	15.9
1039.1475	3112.3277	894.8	19.75
1039.2547	3113.32	891.9	16.15
1039.3618	3114.3117	892.6	15.25
1039.4689	3115.3028	893.5	19.05
1039.5759	3116.2932	894	14.75
1039.6829	3117.2831	896.5	15.9
1039.7898	3118.2723	891.45	14.15
1039.8967	3119.2608	891.1	14.5
1040.0035	3120.2488	891.55	14.05
1040.1103	3121.2361	890.7	12.85
1040.2171	3122.2229	892.15	15.7
1040.3238	3123.209	891.8	15
1040.4305	3124.1944	891.8	14.6
1040.5371	3125.1793	892	15.05
1040.6437	3126.1635	887.95	11.25
1040.7502	3127.1471	889.75	12.45
1040.8567	3128.1301	888.8	12.55
1040.9631	3129.1125	887.25	11.6
1041.0695	3130.0942	890	13.5
1041.1759	3131.0753	899.2	12.75
1041.2822	3132.0558	893.85	19.5
1041.3884	3133.0357	889.9	12.85
1041.4946	3134.015	889.1	11.9
1041.6008	3134.9936	888.75	11.5
1041.7069	3135.9716	910.5	13.95
1041.813	3136.949	888.6	12.65
1041.919	3137.9258	907.4	10.05
1042.025	3138.902	892.65	8.85
1042.1309	3139.8775	887.9	13.65
1042.2368	3140.8524	888.3	12.05
1042.3427	3141.8267	891.6	14.25
1042.4485	3142.8004	889	12.65
1042.5542	3143.7735	894.25	9.8
1042.6599	3144.7459	890.15	12.75
1042.7656	3145.7178	889.45	10.5
1042.8712	3146.689	887.45	12.05
1042.9768	3147.6596	889	12.05
1043.0823	3148.6295	887.15	10.8
1043.1878	3149.5989	886.65	8.9
1043.2932	3150.5676	885.75	11.15
1043.3986	3151.5357	888.05	13.45
1043.5039	3152.5032	887.35	10.45
1043.6092	3153.4701	885.45	7.4
1043.7145	3154.4364	890.45	12.05
1043.8197	3155.402	885.8	11.75
1043.9248	3156.367	888.2	10.05
1044.03	3157.3315	930.4	8.95
1044.135	3158.2952	888.2	11.5
1044.24	3159.2584	885.7	9.8
1044.345	3160.221	886.75	9.9
1044.4499	3161.1829	887.05	11.65
1044.5548	3162.1442	887.9	11.05
1044.6596	3163.105	885.15	8.4
1044.7644	3164.065	886.5	9.1
1044.8692	3165.0245	887.45	8.4
1044.9739	3165.9834	885.95	12
1045.0785	3166.9416	887.2	13.2
1045.1831	3167.8993	886.4	9.8
1045.2877	3168.8563	887.65	8.95
1045.3922	3169.8127	886.6	12.45
1045.4966	3170.7684	885.9	9.8
1045.6011	3171.7236	887.65	9.1
1045.7054	3172.6782	885.1	8.5
1045.8098	3173.6321	888.15	11.85
1045.914	3174.5854	889.8	9.9
1046.0183	3175.5381	883.45	7.5
1046.1224	3176.4902	885.2	10.7
1046.2266	3177.4417	884.5	7.35
1046.3307	3178.3926	886.2	9.15
1046.4347	3179.3428	884.3	9.4
1046.5387	3180.2924	884.9	9.5
1046.6427	3181.2415	886.65	10.35
1046.7466	3182.1899	887.45	10.15
1046.8504	3183.1377	884.75	9
1046.9542	3184.0848	887.05	9.1
1047.058	3185.0314	883.7	8.4
1047.1617	3185.9773	884.95	9.45
1047.2654	3186.9227	883.5	5.95
1047.369	3187.8674	884.5	6.85
1047.4726	3188.8115	889.2	9.15
1047.5761	3189.755	885.35	8.6
1047.6796	3190.6979	884.65	8.5
1047.783	3191.6402	882.45	6.6
1047.8864	3192.5818	884.45	8.35
1047.9898	3193.5229	909.1	7.6
1048.0931	3194.4633	885.65	11.25
1048.1963	3195.4031	884.6	9.1
1048.2995	3196.3423	884.25	10.4
1048.4027	3197.2809	885.3	7.6
1048.5058	3198.2189	883.15	7.2
1048.6089	3199.1563	889.4	6.65
1048.7119	3200.0931	882.05	7.9
1048.8148	3201.0292	882	7.4
1048.9178	3201.9648	884.75	9.3
1049.0206	3202.8997	889	12.25
1049.1235	3203.834	883.75	5.65
1049.2262	3204.7677	883.65	8.4
1049.329	3205.7008	883.8	5.75
1049.4317	3206.6333	882.35	7.9
1049.5343	3207.5652	885.9	7.9
1049.6369	3208.4964	883.15	5.55
1049.7394	3209.4271	882.3	7.05
1049.8419	3210.3571	881.65	5.8
1049.9444	3211.2865	884.1	7.75
1050.0468	3212.2154	883.8	6.65
1050.1491	3213.1436	887.05	5.85
1050.2514	3214.0712	891.7	9.6
1050.3537	3214.9982	883.7	6.9
1050.4559	3215.9246	885.65	9.55
1050.5581	3216.8503	882.1	7.6
1050.6602	3217.7755	884.15	6.35
1050.7623	3218.7001	883.5	8.6
1050.8643	3219.624	884.25	9.55
1050.9663	3220.5473	885.15	8.15
1051.0682	3221.4701	885.3	7.5
1051.1701	3222.3922	883.95	4.8
1051.2719	3223.3137	881.8	5.65
1051.3737	3224.2346	882.45	3.9
1051.4754	3225.1549	881.7	5.15
1051.5771	3226.0746	881.75	5.7
1051.6788	3226.9937	882.55	7.1
1051.7804	3227.9121	882.85	6.85
1051.8819	3228.83	881.8	4.95
1051.9834	3229.7473	882.95	7.35
1052.0849	3230.6639	884.35	8.65
1052.1863	3231.5799	881.9	3.95
1052.2876	3232.4954	884.9	6.55
1052.3889	3233.4102	880.8	4.6
1052.4902	3234.3244	882.8	7.7
1052.5914	3235.238	881.1	6.25
1052.6926	3236.151	904.2	4.45
1052.7937	3237.0634	881.15	6.3
1052.8948	3237.9752	883.05	7.2
1052.9958	3238.8864	883.25	6.9
1053.0968	3239.797	883.1	5.8
1053.1977	3240.7069	884.25	6.75
1053.2986	3241.6163	884	5.55
1053.3994	3242.5251	884.15	9.85
1053.5002	3243.4332	879.35	3.5
1053.6009	3244.3408	883.2	7
1053.7016	3245.2477	880.95	5.25
1053.8022	3246.154	883.7	6.85
1053.9028	3247.0598	883.55	7.35
1054.0034	3247.9649	881.1	5.15
1054.1039	3248.8694	882.85	7.45
1054.2043	3249.7733	880.35	3.95
1054.3047	3250.6766	882.55	7.05
1054.4051	3251.5793	883.65	7.5
1054.5054	3252.4814	883.55	7.55
1054.6056	3253.3829	879.95	3.45
1054.7058	3254.2838	882.8	7.55
1054.806	3255.1841	879.85	3.5
1054.9061	3256.0838	883.4	7.35
1055.0061	3256.9829	880.1	6.85
1055.1062	3257.8814	882.45	4.5
1055.2061	3258.7792	884.35	3.9
1055.306	3259.6765	880.95	3.65
1055.4059	3260.5731	882.6	5.75
1055.5057	3261.4692	882	5.25
1055.6055	3262.3647	882.8	7
1055.7052	3263.2595	881.55	5.7
1055.8049	3264.1538	880.85	4.35
1055.9045	3265.0474	880.85	5.25
1056.0041	3265.9404	879.65	3.85
1056.1036	3266.8329	880.1	5.15
1056.2031	3267.7247	892.55	6.5
1056.3025	3268.616	878.55	4.25
1056.4019	3269.5066	881.7	5.1
1056.5013	3270.3966	885.2	5.45
1056.6005	3271.286	878.8	4.95
