Software Version:	3.9.2.0
Unit SN:	10000200
Spectrometer SN:	6960
Date:	3/8/2024 12:42:22 PM
Data Line Index:	25
Spectral Points:	2048
Integration time (ms):	125
Averages:	20
Delay (ms):	30000
Sequence Number:	1
Processing:	dark subtract
Laser Power (mW):	305
Laser Current (mA):	823
Laser Diode Temp (C):	25
Laser Case Temp (C):	26.1
System Temp (C):	26.1
Spectrometer Temp (C):	23.9
CCD Temp (C):	0.001
Secondary Temp (C):	20.001
Heatsink Temp (C):	21.128
CCDPCB Temp (C):	36.051
SecondaryPCB Temp (C):	29.437

Wavelength	RamanShift	Raw Counts	Dark Subtracted
787.061	30.1047	459.7	48.95
787.2016	32.3739	456.4	49.75
787.3422	34.6426	464.2	55.65
787.4828	36.9109	467.05	57.55
787.6235	39.1787	479.45	63.8
787.7642	41.4461	487.2	68.05
787.9049	43.7131	493.25	70.1
788.0456	45.9796	502.25	75.45
788.1863	48.2456	514.2	86.05
788.3271	50.5112	523.05	91.1
788.4679	52.7764	531.3	94.05
788.6087	55.0411	544.7	102.2
788.7496	57.3054	554.85	108.35
788.8904	59.5692	562.95	116.4
789.0313	61.8326	570.05	118.85
789.1722	64.0955	587	134.95
789.3132	66.3579	600.55	141.6
789.4541	68.6199	621.2	159.4
789.5951	70.8815	663.85	196.7
789.7361	73.1426	748.85	275.1
789.8771	75.4032	978.1	502.7
790.0181	77.6634	1531	1049.8
790.1592	79.9231	2816	2327.4
790.3003	82.1824	5614.65	5105.45
790.4414	84.4412	10573.2	10028.95
790.5825	86.6995	17344.45	16754
790.7237	88.9574	23808.5	23182.85
790.8648	91.2148	28169.15	27510.7
791.006	93.4717	30116.95	29440.4
791.1472	95.7282	30306.9	29621.1
791.2885	97.9842	29920.6	29232.8
791.4297	100.2398	29097	28403.8
791.571	102.4949	28160.1	27468.35
791.7123	104.7495	27176.95	26484.8
791.8536	107.0036	26207.85	25519.95
791.9949	109.2573	25340.95	24647.1
792.1363	111.5105	24557.95	23859.4
792.2777	113.7632	23802.15	23107.8
792.4191	116.0154	23234.5	22521
792.5605	118.2672	22817.65	22109.65
792.7019	120.5185	22386.1	21681.8
792.8434	122.7693	22072.65	21366.4
792.9849	125.0197	21771.9	21058
793.1264	127.2696	21490.05	20773.65
793.2679	129.519	21332.5	20612.6
793.4094	131.7679	21014.55	20291.9
793.551	134.0163	20713.6	19987.2
793.6926	136.2642	20336.5	19602.55
793.8342	138.5117	19930.25	19194.2
793.9758	140.7587	19547.9	18815.3
794.1175	143.0052	19164.35	18423.35
794.2591	145.2512	18800.6	18066.95
794.4008	147.4967	18441.05	17701.05
794.5425	149.7417	18197.4	17460.7
794.6842	151.9863	17986.3	17243.75
794.826	154.2304	17895.65	17148.3
794.9677	156.4739	17695.2	16944.55
795.1095	158.717	17567.8	16811.65
795.2513	160.9596	17378.95	16616.25
795.3931	163.2017	17120.2	16360.25
795.535	165.4433	16815.3	16053.3
795.6768	167.6844	16465.15	15703.6
795.8187	169.925	16128	15368.6
795.9606	172.1651	15778.45	15015.9
796.1025	174.4047	15482.05	14715.05
796.2445	176.6439	15235.05	14460.55
796.3864	178.8825	14990.75	14215.05
796.5284	181.1206	14870.75	14085.4
796.6704	183.3582	14743	13956.65
796.8124	185.5954	14653.2	13865.95
796.9544	187.832	14559.65	13768.05
797.0965	190.0681	14543.05	13748.15
797.2386	192.3037	14529.25	13733.55
797.3806	194.5388	14516.8	13713.55
797.5228	196.7734	14556.8	13755.05
797.6649	199.0075	14618.8	13814.35
797.807	201.2411	14756.3	13954.4
797.9492	203.4742	14819.85	14011.2
798.0914	205.7068	14996.65	14185.85
798.2336	207.9389	15121.05	14310
798.3758	210.1704	15309.75	14505.95
798.518	212.4015	15431.75	14635.05
798.6603	214.632	15586.65	14796
798.8025	216.862	15710.7	14921.05
798.9448	219.0915	15795.85	15009.55
799.0871	221.3205	15918.4	15121
799.2294	223.549	16014.35	15225.2
799.3718	225.777	16089.3	15295.55
799.5141	228.0044	16175.8	15381.45
799.6565	230.2314	16323.6	15531.3
799.7989	232.4578	16397.2	15600.75
799.9413	234.6837	16533.65	15727.2
800.0837	236.909	16603.15	15793.35
800.2262	239.1339	16602.55	15765.9
800.3687	241.3582	16555.9	15733.95
800.5111	243.582	16477.4	15626.6
800.6536	245.8053	16370.6	15533.1
800.7961	248.0281	16288.45	15460.05
800.9387	250.2503	16330.15	15495
801.0812	252.472	16345.5	15508.95
801.2238	254.6932	16511.4	15678.6
801.3664	256.9139	16675.05	15835.9
801.509	259.134	16921.9	16080.1
801.6516	261.3536	17153.1	16314.2
801.7942	263.5727	17483.4	16638.05
801.9369	265.7912	17735.45	16896.55
802.0795	268.0092	18065.95	17224.5
802.2222	270.2267	18295.75	17454
802.3649	272.4436	18465.35	17624.85
802.5076	274.6601	18508.3	17653.1
802.6504	276.8759	18423.35	17575.6
802.7931	279.0913	18306.4	17457.8
802.9359	281.3061	18156.55	17305.85
803.0787	283.5204	18088.95	17235.7
803.2215	285.7341	18068.65	17207.5
803.3643	287.9473	18108.6	17239.2
803.5071	290.16	18132.7	17270.45
803.6499	292.3721	18216.25	17362.1
803.7928	294.5837	18437.1	17581.2
803.9357	296.7947	18656.45	17797.9
804.0786	299.0052	18840.1	17984.2
804.2215	301.2152	18790.1	17935.6
804.3644	303.4246	18633.5	17778.35
804.5074	305.6334	18297.25	17447.55
804.6503	307.8418	17872.4	17014.8
804.7933	310.0495	17461.85	16603.05
804.9363	312.2568	16983.45	16122.15
805.0793	314.4635	16580.6	15716.7
805.2223	316.6696	16231.2	15366.9
805.3653	318.8752	15980.55	15107.7
805.5084	321.0802	15880.5	15013.4
805.6514	323.2847	15854.95	14987.25
805.7945	325.4887	15921.15	15052.35
805.9376	327.692	15932.35	15057.6
806.0807	329.8949	15875.15	14999.3
806.2238	332.0972	15701.6	14827.7
806.367	334.2989	15493.9	14616.35
806.5101	336.5001	15229.4	14350.65
806.6533	338.7007	15009.5	14129.15
806.7965	340.9008	14833.6	13957.65
806.9397	343.1003	14634.95	13754.35
807.0829	345.2992	14526.85	13645.15
807.2261	347.4976	14434	13551.85
807.3693	349.6955	14338.3	13452.3
807.5126	351.8927	14323.4	13435.1
807.6559	354.0895	14251.55	13352
807.7991	356.2856	14215.05	13327.1
807.9424	358.4812	14131.7	13242.75
808.0857	360.6763	14137.45	13250.25
808.2291	362.8707	14107.9	13213.65
808.3724	365.0646	14140.9	13243.95
808.5158	367.258	14211.15	13311.65
808.6591	369.4508	14284.8	13386.4
808.8025	371.643	14464	13567.05
808.9459	373.8346	14558.4	13655.95
809.0893	376.0257	14610.9	13711.45
809.2327	378.2162	14633.95	13732.45
809.3762	380.4062	14628.2	13726.4
809.5196	382.5956	14513.25	13617.85
809.6631	384.7844	14416	13521.55
809.8066	386.9726	14247.45	13357.2
809.9501	389.1603	14169.2	13279.35
810.0936	391.3474	14110.6	13184.3
810.2371	393.5339	14063.3	13165.15
810.3806	395.7199	14016.15	13121.8
810.5241	397.9052	14072.7	13184.3
810.6677	400.09	14163.35	13274.35
810.8113	402.2743	14338.25	13449.65
810.9548	404.4579	14539.95	13647.1
811.0984	406.641	14753.95	13856.35
811.2421	408.8235	14940.9	14045.55
811.3857	411.0054	15061.25	14160.95
811.5293	413.1868	15234.65	14331.05
811.673	415.3675	15276.15	14366.25
811.8166	417.5477	15279.3	14375.55
811.9603	419.7273	15201.6	14294.35
812.104	421.9064	15097.9	14189
812.2477	424.0848	15042	14135.6
812.3914	426.2627	14911.6	14007.4
812.5351	428.4399	14646.15	13738.1
812.6788	430.6166	14328.05	13414
812.8226	432.7928	13955.15	13041.9
812.9663	434.9683	13679.9	12768.6
813.1101	437.1432	13394.1	12484.5
813.2539	439.3176	13258.45	12360.15
813.3977	441.4914	13148.65	12252.3
813.5415	443.6645	13100.9	12195.55
813.6853	445.8371	13022.5	12116
813.8291	448.0091	13011.75	12104.25
813.973	450.1806	12972.05	12066.1
814.1168	452.3514	12937.5	12032.75
814.2607	454.5216	13030.75	12115.55
814.4046	456.6913	12965.75	12055.95
814.5485	458.8603	13039.1	12138.35
814.6924	461.0288	13085.5	12184.2
814.8363	463.1967	13052	12156.9
814.9802	465.3639	13090.65	12187.4
815.1241	467.5306	13062.1	12160.25
815.2681	469.6967	13074.95	12175.05
815.412	471.8622	13090.05	12192.15
815.556	474.0271	13140.4	12235.35
815.7	476.1914	13159.3	12252.3
815.844	478.3551	13152.75	12241.95
815.988	480.5182	13214.85	12310.75
816.132	482.6807	13316.3	12422.45
816.276	484.8426	13521.8	12633.2
816.4201	487.0039	13877.95	12980.4
816.5641	489.1647	14272.7	13367.15
816.7082	491.3248	14617.2	13705.85
816.8522	493.4843	14715.9	13814.55
816.9963	495.6432	14671.5	13767.95
817.1404	497.8015	14539.3	13619.2
817.2845	499.9592	14384.3	13463.45
817.4286	502.1163	14196.2	13274.5
817.5727	504.2728	13858.1	12947.15
817.7168	506.4287	13546.95	12648.2
817.861	508.5839	13237.75	12342.3
818.0051	510.7386	12999.8	12095.15
818.1493	512.8927	12925.85	12010.2
818.2935	515.0461	12926.2	12013.75
818.4377	517.199	13006.9	12091.95
818.5818	519.3512	13188.35	12271.5
818.726	521.5029	13518.8	12596.6
818.8703	523.6539	13780.55	12861.55
819.0145	525.8043	13901.8	12985.85
819.1587	527.9541	13799.35	12881.45
819.303	530.1033	13643	12725.85
819.4472	532.2519	13447.9	12528.4
819.5915	534.3999	13359.25	12437.4
819.7357	536.5472	13403.75	12483.5
819.88	538.694	13584.15	12669.1
820.0243	540.8401	13860.65	12939.4
820.1686	542.9856	14074.3	13144.4
820.3129	545.1305	14133	13198.55
820.4572	547.2748	14033.05	13098.65
820.6016	549.4185	13860.2	12916.95
820.7459	551.5615	13709.55	12773.6
820.8902	553.704	13733.7	12801.65
821.0346	555.8458	13837.85	12906.55
821.1789	557.987	14068.5	13141
821.3233	560.1276	14293.95	13361.7
821.4677	562.2675	14715.65	13782.25
821.6121	564.4069	15300.25	14365.95
821.7565	566.5456	15777.8	14851.5
821.9009	568.6837	15945.9	15017.45
822.0453	570.8212	15543.2	14614.9
822.1897	572.958	14792.4	13866.65
822.3342	575.0942	14118.5	13195.4
822.4786	577.2299	13589.35	12670.7
822.6231	579.3648	13329.6	12421.95
822.7675	581.4992	13259.45	12362.95
822.912	583.6329	13370.1	12474.35
823.0565	585.766	13548.05	12645.3
823.201	587.8985	13679.85	12767.9
823.3454	590.0304	13784.05	12841.75
823.4899	592.1616	13728	12799.85
823.6345	594.2922	13602.6	12668.3
823.779	596.4222	13393.05	12450.95
823.9235	598.5515	13174.85	12238.25
824.068	600.6802	13019.3	12082.4
824.2126	602.8083	12843.8	11913.9
824.3571	604.9358	12840.6	11909.85
824.5017	607.0626	12848.5	11909.45
824.6462	609.1888	12956.05	12014.95
824.7908	611.3144	13097.7	12154.7
824.9354	613.4393	13273.65	12333
825.08	615.5636	13418.5	12477.8
825.2246	617.6873	13435.45	12495.5
825.3692	619.8103	13372.2	12429
825.5138	621.9327	13124.8	12190.35
825.6584	624.0544	12882.8	11953.55
825.803	626.1756	12692	11760.1
825.9477	628.2961	12542.15	11603.3
826.0923	630.4159	12439.45	11497.35
826.237	632.5351	12432.8	11487.05
826.3816	634.6537	12391.3	11446.85
826.5263	636.7716	12408.9	11463.4
826.6709	638.8889	12436.4	11484.75
826.8156	641.0056	12434.6	11483.65
826.9603	643.1216	12433.65	11480.75
827.105	645.237	12423.7	11483.85
827.2497	647.3518	12307.2	11371.05
827.3944	649.4659	12244.7	11311.95
827.5391	651.5793	12170.25	11238.9
827.6838	653.6922	12110.95	11179.2
827.8285	655.8043	12093.95	11154.85
827.9733	657.9159	12094.15	11157
828.118	660.0268	12089.05	11148.1
828.2627	662.137	12076.35	11134.4
828.4075	664.2466	12099.25	11148.95
828.5522	666.3556	12080.75	11136.65
828.697	668.4639	12052.75	11110.55
828.8418	670.5716	11987.85	11053.15
828.9865	672.6786	11946.7	11006.8
829.1313	674.785	11912.45	10964.9
829.2761	676.8907	11864.6	10921
829.4209	678.9958	11871.45	10933.8
829.5657	681.1002	11834.85	10893.4
829.7105	683.204	11830.7	10878.5
829.8553	685.3072	11787.9	10837.55
830.0001	687.4097	11774.25	10829.45
830.1449	689.5115	11801	10854.2
830.2898	691.6127	11791.05	10847.65
830.4346	693.7132	11753.2	10812.4
830.5794	695.8131	11808.65	10842.3
830.7243	697.9123	11805.9	10854.7
830.8691	700.0109	11836.1	10882.5
831.014	702.1089	11892.1	10939.15
831.1588	704.2061	11936.2	10985.05
831.3037	706.3028	12010.7	11062.35
831.4486	708.3987	12044.9	11095.35
831.5935	710.4941	12074.1	11125.3
831.7383	712.5887	12104.45	11158.55
831.8832	714.6827	12202.8	11256
832.0281	716.7761	12317	11373.5
832.173	718.8688	12466.2	11518.7
832.3179	720.9608	12608.65	11652.9
832.4628	723.0522	12786.8	11830
832.6077	725.1429	12880.5	11923.85
832.7527	727.233	12925.85	11972.6
832.8976	729.3224	13027.1	12078
833.0425	731.4112	12943.35	11989.55
833.1874	733.4993	12808.3	11858.1
833.3324	735.5867	12568.45	11616.9
833.4773	737.6735	12336.8	11380.7
833.6222	739.7596	12137.75	11186.7
833.7672	741.845	11992.55	11038.1
833.9122	743.9298	11872.4	10916.45
834.0571	746.014	11826.35	10872.05
834.2021	748.0974	11825.5	10863.2
834.347	750.1802	11816.1	10852.9
834.492	752.2624	11831.15	10873.9
834.637	754.3439	11895.55	10937.25
834.782	756.4247	12026.6	11064.8
834.9269	758.5048	12184.6	11231
835.0719	760.5843	12484.4	11526.15
835.2169	762.6631	12896.6	11935.85
835.3619	764.7413	13524.9	12568.05
835.5069	766.8188	14280.35	13320.9
835.6519	768.8956	14908.3	13947.85
835.7969	770.9718	15336.4	14377.95
835.9419	773.0473	15295.35	14337.2
836.0869	775.1221	15020.65	14066.1
836.232	777.1962	14728.7	13766.7
836.377	779.2697	14644.1	13686.65
836.522	781.3426	14740.35	13766.65
836.667	783.4147	14831.25	13870.05
836.8121	785.4862	14895.25	13936.2
836.9571	787.557	14683.05	13721.5
837.1021	789.6271	14158.85	13198.2
837.2472	791.6966	13477.8	12519.1
837.3922	793.7654	12835.85	11875.75
837.5373	795.8335	12378.8	11421.7
837.6823	797.901	12061.75	11105.45
837.8274	799.9678	11848.7	10885.35
837.9724	802.0339	11772.35	10808.9
838.1175	804.0993	11727.45	10753.95
838.2626	806.1641	11648.95	10687.25
838.4076	808.2282	11589.8	10629.85
838.5527	810.2916	11498.4	10537.15
838.6978	812.3544	11415.55	10453.3
838.8428	814.4164	11378.8	10422.1
838.9879	816.4778	11408.05	10447.45
839.133	818.5385	11442.55	10478.1
839.2781	820.5986	11604.2	10636.7
839.4232	822.658	11872.75	10904.15
839.5682	824.7166	12236.2	11274.8
839.7133	826.7747	12854.1	11889.9
839.8584	828.832	13414.6	12445.65
840.0035	830.8886	13797.1	12831.9
840.1486	832.9446	14049.5	13084.35
840.2937	834.9999	13876.75	12912.95
840.4388	837.0545	13566.8	12597.4
840.5839	839.1085	13155.3	12189.4
840.729	841.1618	12794.65	11822.75
840.8741	843.2143	12489.2	11526.8
841.0192	845.2662	12260.25	11294.75
841.1643	847.3175	12130.65	11163.35
841.3095	849.368	11978.65	11014.6
841.4546	851.4179	11907.05	10943.35
841.5997	853.467	11766.5	10802.35
841.7448	855.5155	11711.7	10744.6
841.8899	857.5633	11646.5	10683.6
842.0351	859.6105	11550.65	10586.1
842.1802	861.6569	11479.65	10510.95
842.3253	863.7027	11402.85	10433.6
842.4704	865.7478	11341.7	10376.4
842.6156	867.7922	11288.9	10322.1
842.7607	869.8359	11264.8	10298.5
842.9058	871.8789	11294.35	10324.9
843.0509	873.9212	11407.45	10402.05
843.1961	875.9629	11441.45	10472.3
843.3412	878.0039	11554.05	10584.4
843.4863	880.0441	11645.95	10678.8
843.6315	882.0837	11729.45	10766.65
843.7766	884.1226	11755.5	10785.1
843.9218	886.1609	11827.45	10863.1
844.0669	888.1984	11959.1	10997.8
844.212	890.2352	12101.2	11134.95
844.3572	892.2714	12157.25	11186.8
844.5023	894.3069	12071.8	11103.65
844.6475	896.3416	11903.1	10933.85
844.7926	898.3757	11711.65	10743.3
844.9377	900.4091	11608.95	10637.95
845.0829	902.4418	11601.85	10625.75
845.228	904.4739	11619.95	10646.25
845.3732	906.5052	11703.6	10734.4
845.5183	908.5358	11669.6	10698
845.6635	910.5658	11536.6	10560.6
845.8086	912.595	11324.7	10355.85
845.9538	914.6236	11068.8	10100.45
846.0989	916.6515	10919.35	9948.65
846.2441	918.6786	10832.85	9857.45
846.3892	920.7051	10839.9	9869.65
846.5344	922.7309	10879.9	9911.5
846.6795	924.756	10903.55	9931.75
846.8246	926.7804	10970.3	9997.65
846.9698	928.8041	10943.95	9972.3
847.1149	930.8272	11021.3	10049.8
847.2601	932.8495	10991.55	10018.85
847.4052	934.8711	10986.7	10014.75
847.5504	936.892	10939.8	9968.3
847.6955	938.9123	10938.2	9964.9
847.8407	940.9318	10987.5	10017.5
847.9858	942.9506	10979.7	10008.7
848.131	944.9688	10906.45	9937.4
848.2761	946.9862	10809.25	9841.85
848.4213	949.003	10650.1	9677.8
848.5664	951.019	10527.65	9554.4
848.7115	953.0344	10477.65	9508.6
848.8567	955.0491	10451.65	9478.75
849.0018	957.063	10515.65	9543.2
849.147	959.0763	10569.85	9600.4
849.2921	961.0888	10602.75	9629.3
849.4373	963.1007	10651.3	9686.1
849.5824	965.1119	10656.5	9697.35
849.7275	967.1223	10631.3	9676.8
849.8727	969.1321	10590.8	9640.75
850.0178	971.1412	10627.85	9668.85
850.1629	973.1495	10565.4	9599.7
850.3081	975.1572	10638.5	9622.9
850.4532	977.1641	10633.25	9662.8
850.5983	979.1704	10618.8	9648.4
850.7435	981.1759	10595.6	9621.2
850.8886	983.1808	10560.8	9586.45
851.0337	985.1849	10605.8	9624.05
851.1788	987.1884	10655.8	9683.15
851.324	989.1911	10730.75	9761.55
851.4691	991.1932	10793.35	9826.85
851.6142	993.1945	10818	9854.2
851.7593	995.1951	10765.35	9795.05
851.9045	997.1951	10762.95	9787.85
852.0496	999.1943	10700.2	9729.4
852.1947	1001.1928	10699.2	9724.1
852.3398	1003.1906	10779.45	9809.55
852.4849	1005.1877	10900.65	9928.85
852.63	1007.1841	10968	9996.8
852.7751	1009.1798	11016.7	10049.3
852.9202	1011.1748	10927.45	9959.15
853.0653	1013.1691	10759.4	9788.45
853.2104	1015.1627	10588.9	9624.8
853.3555	1017.1556	10335.05	9371.55
853.5006	1019.1477	10214.15	9251.75
853.6457	1021.1392	10121.75	9162.45
853.7908	1023.1299	10059.4	9102.05
853.9359	1025.12	10066.45	9121.45
854.081	1027.1093	10142.85	9208.45
854.2261	1029.0979	10252.1	9320.95
854.3712	1031.0859	10331.4	9393.05
854.5163	1033.0731	10397.85	9447.3
854.6613	1035.0596	10358.75	9403.1
854.8064	1037.0454	10268.55	9308
854.9515	1039.0304	10139.2	9175
855.0965	1041.0148	10011.55	9049.05
855.2416	1042.9985	9913.25	8949
855.3867	1044.9814	9856.55	8898.15
855.5317	1046.9636	9802.7	8838.25
855.6768	1048.9452	9793.1	8830.85
855.8219	1050.926	9858.75	8897.65
855.9669	1052.9061	9855.7	8891.1
856.112	1054.8855	9896.8	8933.45
856.257	1056.8642	9910.05	8944.9
856.4021	1058.8421	9970.15	9000.05
856.5471	1060.8194	10021.65	9053.9
856.6921	1062.7959	10076.25	9110.3
856.8372	1064.7717	10127.6	9160.55
856.9822	1066.7469	10224.95	9258.25
857.1272	1068.7213	10297.15	9329.95
857.2723	1070.695	10387.45	9422.85
857.4173	1072.6679	10413.2	9444.05
857.5623	1074.6402	10471.05	9503.45
857.7073	1076.6117	10423.9	9451.4
857.8523	1078.5826	10308.4	9340.2
857.9973	1080.5527	10163.7	9196.7
858.1423	1082.5221	10016	9051.1
858.2873	1084.4908	9980.85	9019.35
858.4323	1086.4587	9996.7	9032.15
858.5773	1088.426	10030	9066.85
858.7223	1090.3925	10070.95	9100.05
858.8673	1092.3584	10074.5	9112.65
859.0123	1094.3235	10096.2	9132.45
859.1573	1096.2879	10213.7	9247.9
859.3022	1098.2515	10330.95	9367.7
859.4472	1100.2145	10532.9	9570.15
859.5922	1102.1767	10741.35	9775.05
859.7371	1104.1382	10980.45	10017.2
859.8821	1106.099	11288.8	10324.25
860.027	1108.0591	11483.5	10520.85
860.172	1110.0185	11648.6	10682
860.3169	1111.9771	11714.1	10749.05
860.4619	1113.9351	11648.9	10682.7
860.6068	1115.8923	11543.25	10580.35
860.7517	1117.8488	11390.35	10426.25
860.8967	1119.8045	11187.7	10223.15
861.0416	1121.7596	11038.95	10072.6
861.1865	1123.7139	10909.85	9949.5
861.3314	1125.6675	10846.65	9883.7
861.4763	1127.6204	10855.05	9896.35
861.6212	1129.5726	10800.15	9832.45
861.7661	1131.524	10731.6	9768.35
861.911	1133.4748	10554.75	9591.8
862.0559	1135.4248	10326	9360.45
862.2008	1137.3741	10195.8	9232.2
862.3457	1139.3226	10027.95	9065.8
862.4905	1141.2705	9980.8	9016.75
862.6354	1143.2176	9905.3	8933.8
862.7803	1145.164	9864.85	8898.9
862.9251	1147.1097	9771.95	8809.1
863.07	1149.0546	9648.9	8684.85
863.2148	1150.9989	9549.85	8585.55
863.3597	1152.9424	9442.6	8478.6
863.5045	1154.8852	9386.65	8421.05
863.6493	1156.8272	9362.05	8397.4
863.7942	1158.7686	9382.55	8413.3
863.939	1160.7092	9382.6	8416.6
864.0838	1162.6491	9434.35	8467.85
864.2286	1164.5883	9579.7	8614.1
864.3734	1166.5267	9652.75	8689.05
864.5182	1168.4644	9838.95	8877.6
864.663	1170.4014	10062.05	9095.5
864.8078	1172.3377	10335.45	9377.45
864.9526	1174.2732	10655.05	9697.25
865.0974	1176.2081	11103.3	10144.8
865.2421	1178.1421	11670.4	10704.35
865.3869	1180.0755	12281.15	11322.1
865.5317	1182.0082	12692.55	11731.45
865.6764	1183.9401	12879.25	11920.45
865.8212	1185.8713	12710.3	11758.75
865.9659	1187.8017	12339.1	11396.7
866.1106	1189.7315	11869	10936.3
866.2554	1191.6605	11428.3	10493.45
866.4001	1193.5888	11123.95	10181.15
866.5448	1195.5163	10955.15	10006.7
866.6895	1197.4432	10836.5	9878.8
866.8342	1199.3693	10808.5	9849.4
866.9789	1201.2947	10790.4	9827.1
867.1236	1203.2193	10735.65	9776.05
867.2683	1205.1432	10707.2	9748.95
867.413	1207.0664	10685.6	9728
867.5576	1208.9889	10638.45	9679.85
867.7023	1210.9106	10626.1	9668.55
867.847	1212.8316	10615.85	9659.15
867.9916	1214.7519	10652.45	9685.55
868.1363	1216.6715	10694.35	9735.25
868.2809	1218.5903	10756.4	9800.2
868.4255	1220.5084	10879.05	9921.55
868.5701	1222.4257	10953.55	9997.5
868.7148	1224.3424	11048.8	10095.8
868.8594	1226.2583	11217.15	10256.35
869.004	1228.1735	11338.5	10380.55
869.1486	1230.0879	11492.3	10536.35
869.2932	1232.0016	11720.9	10763.95
869.4377	1233.9146	11876.15	10917
869.5823	1235.8269	11935.9	10979.7
869.7269	1237.7384	11923.2	10967.4
869.8715	1239.6492	11790.35	10837.55
870.016	1241.5592	11789.65	10835.4
870.1606	1243.4686	11823.95	10868.65
870.3051	1245.3772	12049.35	11095.4
870.4496	1247.285	12323.65	11367.05
870.5941	1249.1922	12547.2	11587.35
870.7387	1251.0986	12762.3	11806.5
870.8832	1253.0042	12872.6	11916.6
871.0277	1254.9092	12994.95	12039.1
871.1722	1256.8134	13106.8	12154.75
871.3167	1258.7169	13267.1	12310.5
871.4611	1260.6196	13406.6	12449.4
871.6056	1262.5216	13662.4	12704.05
871.7501	1264.4229	13886.6	12935.95
871.8945	1266.3234	14124.3	13167.75
872.039	1268.2232	14219.5	13259.2
872.1834	1270.1223	14285.5	13327.5
872.3278	1272.0207	14338.65	13381.7
872.4723	1273.9183	14330.05	13367.8
872.6167	1275.8151	14274.7	13321.7
872.7611	1277.7113	14274.8	13322.2
872.9055	1279.6067	14381.35	13429
873.0499	1281.5014	14709.95	13756.7
873.1943	1283.3953	15207.55	14254.75
873.3386	1285.2885	15785.5	14831.7
873.483	1287.181	16407.05	15451.15
873.6274	1289.0727	17049.1	16097.05
873.7717	1290.9637	17408.65	16453.8
873.9161	1292.854	17674	16721.4
874.0604	1294.7435	17651.25	16699.4
874.2047	1296.6323	17463.6	16507
874.349	1298.5204	17247.65	16290.85
874.4933	1300.4077	16958.85	16002.45
874.6376	1302.2943	16627.35	15671.25
874.7819	1304.1802	16223.95	15269.65
874.9262	1306.0653	15706.2	14752.95
875.0705	1307.9497	15136.25	14183.6
875.2147	1309.8333	14658.9	13703.15
875.359	1311.7162	14277.15	13326.25
875.5032	1313.5984	14046.35	13087.2
875.6475	1315.4798	13864.95	12903.35
875.7917	1317.3605	13758.65	12800.05
875.9359	1319.2405	13593.85	12637.9
876.0801	1321.1197	13308.95	12353.65
876.2243	1322.9982	12929.85	11974
876.3685	1324.876	12606.55	11654.05
876.5127	1326.753	12248.9	11296.35
876.6569	1328.6293	11996.2	11042.15
876.801	1330.5048	11815.05	10856.6
876.9452	1332.3796	11576.9	10621.3
877.0893	1334.2537	11471.75	10494
877.2335	1336.127	11378.65	10426.75
877.3776	1337.9996	11335.25	10382.85
877.5217	1339.8714	11330.2	10379.25
877.6658	1341.7426	11346.05	10349.5
877.8099	1343.6129	11328.55	10370.55
877.954	1345.4826	11321.6	10365.45
878.0981	1347.3515	11333.4	10377.2
878.2422	1349.2196	11342.65	10387.45
878.3862	1351.087	11346.9	10393.3
878.5303	1352.9537	11415.55	10460.75
878.6743	1354.8197	11524.65	10567.05
878.8184	1356.6849	11690.85	10732.35
878.9624	1358.5493	11869.75	10916.15
879.1064	1360.4131	12075.5	11121.7
879.2504	1362.276	12240.45	11288.2
879.3944	1364.1383	12282.5	11326.85
879.5384	1365.9998	12113.6	11156.4
879.6823	1367.8606	11752.05	10797.2
879.8263	1369.7206	11373.05	10419.85
879.9702	1371.5799	11013.3	10055.75
880.1142	1373.4384	10701.6	9747.25
880.2581	1375.2962	10455	9494.6
880.402	1377.1533	10103.75	9149.2
880.5459	1379.0096	9707.7	8758
880.6898	1380.8652	9362.05	8415.8
880.8337	1382.7201	9040.15	8093.45
880.9776	1384.5742	8775.1	7824.4
881.1215	1386.4275	8575.05	7621.55
881.2653	1388.2802	8432.65	7478.85
881.4092	1390.132	8288.05	7331.75
881.553	1391.9832	8238.85	7283.8
881.6968	1393.8336	8129.9	7177.05
881.8406	1395.6832	8099.65	7141.95
881.9844	1397.5322	8058.9	7104.4
882.1282	1399.3803	8003.05	7046.6
882.272	1401.2278	7945.35	6995.15
882.4158	1403.0745	7964	7015.05
882.5595	1404.9204	7936.95	6984.75
882.7033	1406.7656	7932.3	6981.35
882.847	1408.6101	7945.4	6990.95
882.9908	1410.4538	7973.85	7023.05
883.1345	1412.2968	8026.65	7077.6
883.2782	1414.139	8084.8	7133.75
883.4219	1415.9805	8144.95	7194.75
883.5656	1417.8213	8205.7	7250.15
883.7092	1419.6613	8310.85	7360.55
883.8529	1421.5006	8457.5	7508.45
883.9965	1423.3391	8688.65	7739.1
884.1402	1425.1769	8971	8019.35
884.2838	1427.0139	9397.75	8448.1
884.4274	1428.8502	9961.95	9011.45
884.571	1430.6858	10532.45	9581.8
884.7146	1432.5206	10936.65	9989.65
884.8582	1434.3547	11187	10233.55
885.0018	1436.188	11197.3	10249.25
885.1453	1438.0206	11083.15	10132.05
885.2889	1439.8524	10901.55	9956.15
885.4324	1441.6835	10815.35	9865.7
885.5759	1443.5139	10683.4	9732.55
885.7194	1445.3435	10615.25	9669.3
885.8629	1447.1724	10601.35	9653.2
886.0064	1449.0005	10567.55	9623.4
886.1499	1450.8279	10520	9573.05
886.2933	1452.6545	10476.1	9532.15
886.4368	1454.4804	10520.75	9579.1
886.5802	1456.3056	10511.55	9557.65
886.7237	1458.13	10430.25	9487.5
886.8671	1459.9536	10275.15	9332.35
887.0105	1461.7766	10007.7	9060.7
887.1539	1463.5987	9673.5	8727.35
887.2972	1465.4202	9345.35	8397.65
887.4406	1467.2409	8972.95	8026.65
887.584	1469.0608	8703.1	7756.5
887.7273	1470.88	8408.25	7458.75
887.8706	1472.6984	8200.5	7255.2
888.0139	1474.5161	7997.1	7050.9
888.1572	1476.3331	7806.7	6864.4
888.3005	1478.1493	7693.9	6745.7
888.4438	1479.9648	7608.45	6661.6
888.5871	1481.7795	7526.5	6579.65
888.7303	1483.5935	7486.85	6542.25
888.8736	1485.4067	7409.3	6463.55
889.0168	1487.2192	7374.9	6425.5
889.16	1489.031	7344.05	6394.2
889.3032	1490.842	7303.8	6356.85
889.4464	1492.6522	7257.95	6314.25
889.5896	1494.4618	7240	6294.35
889.7327	1496.2705	7198.6	6256.8
889.8759	1498.0785	7144.75	6194.15
890.019	1499.8858	7108.4	6161.15
890.1622	1501.6924	7053.4	6109.75
890.3053	1503.4981	7009.6	6064.25
890.4484	1505.3032	6972.45	6028.65
890.5914	1507.1075	6926.6	5984.55
890.7345	1508.911	6880.35	5936.8
890.8776	1510.7138	6828.1	5884.05
891.0206	1512.5159	6760.6	5815.55
891.1637	1514.3172	6732.9	5788.2
891.3067	1516.1178	6682.95	5740.75
891.4497	1517.9176	6643.2	5696.8
891.5927	1519.7166	6601.65	5662.95
891.7357	1521.515	6607.15	5657.95
891.8786	1523.3126	6556.8	5617.2
892.0216	1525.1094	6513.7	5572.25
892.1645	1526.9055	6501.6	5562.85
892.3074	1528.7008	6484.6	5543.75
892.4503	1530.4954	6447.2	5506.9
892.5932	1532.2893	6433.65	5496.6
892.7361	1534.0824	6412.55	5468.85
892.879	1535.8747	6420.45	5482
893.0218	1537.6663	6400.95	5466.45
893.1647	1539.4572	6403.55	5466.5
893.3075	1541.2473	6411.95	5475.6
893.4503	1543.0367	6420	5485.8
893.5931	1544.8253	6419.25	5477
893.7359	1546.6132	6464.8	5522.95
893.8787	1548.4003	6487.85	5541.25
894.0214	1550.1867	6533.6	5590.6
894.1642	1551.9723	6617.7	5680.7
894.3069	1553.7572	6725.1	5791
894.4496	1555.5414	6851.7	5921
894.5923	1557.3247	7014.5	6084.9
894.735	1559.1074	7192.55	6263.3
894.8777	1560.8893	7384.35	6453.95
895.0204	1562.6705	7582.95	6651.85
895.163	1564.4509	7704.6	6774.7
895.3056	1566.2305	7785.5	6862.75
895.4482	1568.0094	7840.5	6916.55
895.5908	1569.7876	7822.1	6894.05
895.7334	1571.565	7807.05	6878
895.876	1573.3417	7804.95	6876.3
896.0186	1575.1176	7797.15	6869.4
896.1611	1576.8928	7814.85	6889.55
896.3036	1578.6672	7814.7	6895.8
896.4461	1580.4409	7830.7	6911.35
896.5886	1582.2138	7908	6985.35
896.7311	1583.986	7970.5	7047.6
896.8736	1585.7575	8106.3	7177.5
897.0161	1587.5282	8216.05	7293.85
897.1585	1589.2981	8347.55	7429.65
897.3009	1591.0673	8435.25	7516.45
897.4433	1592.8358	8584.35	7666.85
897.5857	1594.6035	8710.3	7787.4
897.7281	1596.3704	8822.95	7896.55
897.8705	1598.1366	8941.15	8020.4
898.0128	1599.9021	9032.35	8108.85
898.1551	1601.6668	9156.3	8234.25
898.2975	1603.4308	9296.8	8373.95
898.4398	1605.194	9490.05	8564.45
898.5821	1606.9564	9675.05	8759.5
898.7243	1608.7182	9988.05	9076.25
898.8666	1610.4791	10310.9	9406.6
899.0088	1612.2394	10659.35	9754.35
899.1511	1613.9988	11004.3	10096.3
899.2933	1615.7576	11336.7	10422.05
899.4355	1617.5156	11557.35	10632.9
899.5776	1619.2728	11627.9	10704
899.7198	1621.0293	11511.75	10592.35
899.862	1622.785	11241	10321.6
900.0041	1624.54	10854.1	9939.6
900.1462	1626.2942	10408.75	9494.1
900.2883	1628.0477	9907.6	8991.7
900.4304	1629.8005	9510	8592.8
900.5725	1631.5525	9119.75	8205.2
900.7145	1633.3037	8784.5	7870.8
900.8566	1635.0542	8531.75	7619.15
900.9986	1636.804	8319.4	7407.15
901.1406	1638.553	8233.1	7233.55
901.2826	1640.3013	8090.3	7177.1
901.4245	1642.0488	8020.75	7105.65
901.5665	1643.7955	8023.45	7114.45
901.7085	1645.5416	8082.1	7169.1
901.8504	1647.2868	8185.9	7273.15
901.9923	1649.0313	8270.7	7353.45
902.1342	1650.7751	8424.9	7507.1
902.2761	1652.5181	8623.6	7711.7
902.4179	1654.2604	8769.05	7859.9
902.5598	1656.0019	9000.55	8089.2
902.7016	1657.7427	9266.65	8351.45
902.8434	1659.4828	9532.25	8615.3
902.9852	1661.222	9696.05	8777.15
903.127	1662.9606	9691.05	8775.2
903.2687	1664.6984	9444.9	8528.65
903.4105	1666.4354	8972.3	8052.4
903.5522	1668.1717	8420.35	7501.2
903.6939	1669.9072	7845.8	6927.65
903.8356	1671.642	7328.3	6407.7
903.9773	1673.3761	6923.5	6006.9
904.119	1675.1094	6589.65	5673.9
904.2606	1676.8419	6300.8	5386.65
904.4022	1678.5737	6078.6	5162.3
904.5439	1680.3048	5901.95	4983.75
904.6855	1682.0351	5777.3	4861.7
904.827	1683.7646	5665.05	4744.55
904.9686	1685.4934	5553.4	4635.7
905.1101	1687.2215	5470.85	4556.05
905.2517	1688.9488	5380.4	4468.4
905.3932	1690.6754	5307.15	4392.2
905.5347	1692.4012	5276	4362.25
905.6761	1694.1263	5228.6	4313.2
905.8176	1695.8506	5181.45	4269
905.9591	1697.5742	5117	4205.1
906.1005	1699.297	5063.5	4157.25
906.2419	1701.0191	5034.05	4125.5
906.3833	1702.7404	4984.1	4077.15
906.5246	1704.461	4943.35	4030.55
906.666	1706.1808	4914.95	4003.9
906.8073	1707.8999	4873.7	3963.5
906.9487	1709.6182	4857.8	3954.75
907.09	1711.3358	4834.45	3929.2
907.2313	1713.0527	4785.55	3885.65
907.3725	1714.7688	4764	3852.7
907.5138	1716.4841	4754.15	3844.1
907.655	1718.1987	4750.65	3837.4
907.7962	1719.9126	4716.4	3810.9
907.9374	1721.6257	4670.7	3766.5
908.0786	1723.338	4683.35	3778.75
908.2198	1725.0496	4650.85	3743.35
908.3609	1726.7605	4663.35	3754.15
908.502	1728.4706	4626.4	3721.05
908.6431	1730.18	4600.5	3694.95
908.7842	1731.8886	4588.7	3686.3
908.9253	1733.5964	4606.8	3684.25
909.0664	1735.3036	4569.8	3662.2
909.2074	1737.0099	4555.3	3650.4
909.3484	1738.7156	4517.2	3611.6
909.4894	1740.4204	4493.6	3586.85
909.6304	1742.1246	4474.75	3566.4
909.7714	1743.8279	4454.35	3548.15
909.9123	1745.5306	4425.05	3519.95
910.0532	1747.2325	4402.95	3503.5
910.1941	1748.9336	4388.45	3482.5
910.335	1750.634	4354	3444.9
910.4759	1752.3336	4373	3467.8
910.6168	1754.0325	4346.65	3445.95
910.7576	1755.7307	4322.7	3421.2
910.8984	1757.4281	4347.45	3442.1
911.0392	1759.1247	4317.3	3401.7
911.18	1760.8206	4305.5	3391.05
911.3208	1762.5158	4303.4	3389.6
911.4615	1764.2102	4292.65	3384.35
911.6022	1765.9039	4253.5	3348.9
911.7429	1767.5968	4259.4	3359.2
911.8836	1769.289	4244.7	3343.55
912.0243	1770.9804	4222.35	3315.55
912.1649	1772.6711	4217.95	3310.6
912.3056	1774.361	4222.2	3310.65
912.4462	1776.0502	4215.55	3307.35
912.5868	1777.7386	4213.15	3303.35
912.7274	1779.4263	4187.55	3282.9
912.8679	1781.1132	4188.8	3289.1
913.0084	1782.7994	4169.4	3267.3
913.149	1784.4849	4158	3258.9
913.2895	1786.1696	4165	3246.6
913.4299	1787.8535	4141	3244.15
913.5704	1789.5367	4132.25	3236.25
913.7108	1791.2192	4121.1	3220.8
913.8513	1792.9009	4123.4	3195.95
913.9917	1794.5818	4113.35	3206.55
914.132	1796.2621	4089.1	3184.95
914.2724	1797.9415	4089.6	3183.45
914.4128	1799.6202	4074.6	3169.25
914.5531	1801.2982	4077.05	3171.3
914.6934	1802.9755	4071.65	3164.25
914.8337	1804.6519	4061.95	3156.25
914.9739	1806.3277	4041.75	3139
915.1142	1808.0027	4021.6	3124.6
915.2544	1809.6769	4036.25	3138.7
915.3946	1811.3504	4011.1	3113.65
915.5348	1813.0231	4019.45	3121.3
915.675	1814.6951	3997.1	3096.6
915.8151	1816.3664	4023.3	3117.75
915.9553	1818.0369	3982.05	3076.5
916.0954	1819.7067	3992.05	3090.5
916.2355	1821.3757	3972.1	3066.75
916.3755	1823.044	3978.6	3072.3
916.5156	1824.7115	3969.6	3065.65
916.6556	1826.3783	3946.75	3041.8
916.7956	1828.0443	3932.25	3030.35
916.9356	1829.7096	3944.85	3042.05
917.0756	1831.3741	3926.75	3022.05
917.2155	1833.0379	3919	3018.25
917.3555	1834.701	3904.9	3003.8
917.4954	1836.3633	3912.1	3014.65
917.6353	1838.0248	3904.1	3002.55
917.7751	1839.6856	3884.25	2980.6
917.915	1841.3457	3901.7	3001.15
918.0548	1843.005	3881.95	2976.05
918.1946	1844.6636	3883.25	2980.05
918.3344	1846.3214	3869.9	2966.6
918.4742	1847.9785	3872.85	2969.7
918.6139	1849.6349	3852.85	2947.85
918.7537	1851.2904	3853.75	2937.7
918.8934	1852.9453	3864.9	2958.7
919.0331	1854.5994	3843.8	2936.2
919.1727	1856.2528	3850.2	2939.7
919.3124	1857.9054	3823.6	2920.45
919.452	1859.5572	3823.1	2920.25
919.5916	1861.2083	3826.25	2923.55
919.7312	1862.8587	3807.6	2904.7
919.8708	1864.5084	3809.15	2902.8
920.0103	1866.1572	3793.4	2887.35
920.1498	1867.8054	3772.95	2864
920.2893	1869.4528	3788.5	2880.6
920.4288	1871.0994	3761.85	2858.4
920.5683	1872.7453	3756.85	2852.9
920.7077	1874.3905	3752.15	2844.85
920.8471	1876.0349	3750.95	2843.75
920.9865	1877.6786	3750.15	2846
921.1259	1879.3215	3737.6	2834.9
921.2653	1880.9637	3739.65	2836.15
921.4046	1882.6051	3712.8	2810.6
921.5439	1884.2458	3715.75	2813.85
921.6832	1885.8858	3698.9	2795.6
921.8225	1887.525	3708.35	2805.45
921.9617	1889.1634	3690.35	2785.6
922.101	1890.8011	3674.55	2767.25
922.2402	1892.4381	3672.6	2769.3
922.3794	1894.0743	3672.85	2770.45
922.5185	1895.7098	3662.9	2762.5
922.6577	1897.3446	3643.2	2740.2
922.7968	1898.9786	3646.15	2739.95
922.9359	1900.6118	3631	2729.35
923.075	1902.2443	3620.8	2718.15
923.214	1903.8761	3627.15	2724.65
923.3531	1905.5071	3610.65	2707.25
923.4921	1907.1374	3603.75	2700.65
923.6311	1908.7669	3593	2692.75
923.77	1910.3957	3574.95	2672.75
923.909	1912.0237	3564.5	2664.55
924.0479	1913.651	3562.95	2660.3
924.1868	1915.2776	3558.65	2658.5
924.3257	1916.9034	3551.1	2652.2
924.4646	1918.5285	3526.55	2626.45
924.6034	1920.1528	3516.5	2615.95
924.7422	1921.7764	3514.45	2611.8
924.881	1923.3992	3505.4	2605
925.0198	1925.0213	3479.65	2576.35
925.1586	1926.6427	3485	2583.8
925.2973	1928.2633	3541.85	2560.95
925.436	1929.8832	3478.95	2574.8
925.5747	1931.5023	3450.95	2548.6
925.7134	1933.1207	3449.7	2546.75
925.852	1934.7383	3449.75	2547.75
925.9906	1936.3552	3437.25	2538
926.1292	1937.9714	3431.85	2530.55
926.2678	1939.5868	3420.85	2517
926.4064	1941.2015	3416.3	2512.9
926.5449	1942.8154	3403.65	2501.45
926.6834	1944.4286	3389.05	2486.9
926.8219	1946.041	3397.35	2474.3
926.9604	1947.6528	3366.95	2461.4
927.0988	1949.2637	3360.7	2460.1
927.2372	1950.8739	3359.7	2458.75
927.3756	1952.4834	3353.7	2453.95
927.514	1954.0921	3334.2	2432.65
927.6523	1955.7001	3332.75	2429.65
927.7907	1957.3074	3325.9	2431.1
927.929	1958.9139	3324.55	2426.55
928.0673	1960.5197	3301.1	2401.55
928.2055	1962.1247	3288.3	2389.6
928.3438	1963.729	3275.85	2379
928.482	1965.3325	3280.45	2379.45
928.6202	1966.9353	3263	2370.25
928.7584	1968.5374	3259.4	2360.1
928.8965	1970.1387	3259.35	2361.35
929.0346	1971.7393	3238.15	2339.7
929.1727	1973.3392	3228.6	2331.95
929.3108	1974.9383	3216.1	2320.1
929.4489	1976.5366	3211.5	2319.6
929.5869	1978.1342	3205.9	2310.85
929.7249	1979.7311	3205.3	2309.05
929.8629	1981.3273	3185.9	2291.45
930.0009	1982.9227	3191.55	2297.7
930.1388	1984.5173	3181.1	2288.5
930.2767	1986.1112	3173.3	2280.65
930.4146	1987.7044	3155.8	2261.75
930.5525	1989.2968	3154.6	2259.45
930.6904	1990.8885	3155.25	2261.15
930.8282	1992.4795	3142.75	2251.1
930.966	1994.0697	3124.6	2234.1
931.1038	1995.6592	3133.85	2241.6
931.2415	1997.2479	3111.1	2218.65
931.3793	1998.8359	3103.65	2211.8
931.517	2000.4232	3101.65	2213.8
931.6547	2002.0097	3097.15	2212.65
931.7923	2003.5955	3083.4	2195.95
931.93	2005.1805	3082.05	2190.7
932.0676	2006.7648	3097.1	2209.15
932.2052	2008.3484	3081.15	2192.95
932.3427	2009.9312	3071.85	2184.9
932.4803	2011.5133	3070	2185.5
932.6178	2013.0946	3059.2	2173.9
932.7553	2014.6752	3039.4	2150.55
932.8928	2016.2551	3047	2157.85
933.0302	2017.8342	3036.4	2145.1
933.1676	2019.4126	3023.7	2135.45
933.305	2020.9902	3022.15	2137.25
933.4424	2022.5672	3001.8	2114.25
933.5798	2024.1433	3019.9	2130.3
933.7171	2025.7188	3010.15	2128.7
933.8544	2027.2935	3001.45	2116.1
933.9917	2028.8674	2992.3	2107.9
934.129	2030.4406	2994.9	2113.1
934.2662	2032.0131	2974.8	2093.4
934.4034	2033.5849	2965.85	2080.75
934.5406	2035.1559	2964.5	2081
934.6778	2036.7261	2965.9	2076.1
934.8149	2038.2957	2956.15	2067.45
934.952	2039.8645	2957.9	2066.7
935.0891	2041.4325	2962.55	2069
935.2262	2042.9998	2942.85	2054.95
935.3632	2044.5664	2946.05	2058.75
935.5002	2046.1323	2934.5	2051.4
935.6372	2047.6974	2938.4	2053.9
935.7742	2049.2617	2926.5	2042.35
935.9111	2050.8254	2933.15	2041.15
936.048	2052.3883	2914.25	2023.2
936.1849	2053.9504	2913	2020.8
936.3218	2055.5118	2900.15	2009.95
936.4586	2057.0725	2883.4	1988.95
936.5955	2058.6325	2891.65	2005.75
936.7323	2060.1917	2888.9	2003.9
936.869	2061.7502	2893.2	2005.65
937.0058	2063.3079	2863.05	1979
937.1425	2064.8649	2862.3	1973.9
937.2792	2066.4212	2854.15	1967.9
937.4159	2067.9767	2848.5	1958.6
937.5525	2069.5315	2847.6	1959.85
937.6891	2071.0856	2838	1950
937.8257	2072.6389	2813.55	1925.7
937.9623	2074.1915	2817.15	1933.9
938.0989	2075.7433	2819.5	1931.5
938.2354	2077.2945	2809.15	1922.15
938.3719	2078.8448	2807.45	1916.3
938.5084	2080.3945	2802.1	1910.9
938.6448	2081.9434	2807.7	1917.85
938.7812	2083.4916	2800.05	1908.45
938.9176	2085.039	2791.25	1894.1
939.054	2086.5857	2791.95	1892.4
939.1903	2088.1317	2777.05	1878.7
939.3267	2089.677	2780.15	1882.4
939.463	2091.2215	2773.35	1874.1
939.5992	2092.7652	2774	1875.25
939.7355	2094.3083	2767.5	1870
939.8717	2095.8506	2762	1867.7
940.0079	2097.3921	2754.55	1864.2
940.1441	2098.933	2748.4	1856.1
940.2802	2100.4731	2744.05	1850.6
940.4163	2102.0124	2773.8	1863.55
940.5524	2103.5511	2724.5	1829.95
940.6885	2105.089	2742.4	1847.65
940.8245	2106.6261	2727.55	1835.35
940.9606	2108.1626	2719.55	1825.5
941.0965	2109.6983	2747.7	1826.4
941.2325	2111.2332	2723.05	1827.9
941.3684	2112.7675	2708.55	1812
941.5044	2114.301	2702.25	1804.5
941.6403	2115.8337	2695.4	1800.6
941.7761	2117.3657	2685.2	1789.1
941.912	2118.897	2687.05	1791.05
942.0478	2120.4276	2686.75	1783.65
942.1835	2121.9575	2685.45	1791.3
942.3193	2123.4866	2686.95	1789.7
942.455	2125.0149	2673.45	1776.75
942.5907	2126.5426	2666.7	1779.75
942.7264	2128.0695	2659.65	1770.1
942.8621	2129.5956	2644.15	1759.45
942.9977	2131.1211	2649.85	1756.8
943.1333	2132.6458	2649	1758.95
943.2689	2134.1698	2628	1728.1
943.4044	2135.693	2637.7	1738.6
943.54	2137.2155	2630.75	1731.45
943.6755	2138.7373	2620.45	1728.95
943.8109	2140.2584	2618.25	1730.35
943.9464	2141.7787	2612.35	1723.55
944.0818	2143.2983	2602.05	1716.8
944.2172	2144.8171	2585.85	1700.85
944.3526	2146.3353	2594.45	1704.15
944.4879	2147.8527	2578.45	1689.7
944.6232	2149.3693	2588.4	1693.75
944.7585	2150.8853	2583.95	1687
944.8938	2152.4005	2576.1	1679.45
945.029	2153.9149	2572.8	1675.8
945.1642	2155.4287	2570.7	1675.45
945.2994	2156.9417	2573.4	1680.9
945.4346	2158.454	2560.95	1668.9
945.5697	2159.9655	2551.85	1663.4
945.7048	2161.4764	2550.95	1658.65
945.8399	2162.9865	2538.25	1647.8
945.9749	2164.4958	2550.6	1659.3
946.1099	2166.0045	2532.6	1642.15
946.2449	2167.5124	2529.3	1637.05
946.3799	2169.0195	2537.7	1643.6
946.5148	2170.526	2539.6	1645.15
946.6498	2172.0317	2521.15	1627
946.7846	2173.5367	2522.4	1629.65
946.9195	2175.0409	2513.7	1622.2
947.0543	2176.5445	2521.05	1628.5
947.1891	2178.0473	2510	1613.8
947.3239	2179.5494	2498.1	1600.45
947.4587	2181.0507	2497.3	1604.5
947.5934	2182.5513	2493.1	1597.85
947.7281	2184.0512	2494.7	1600.8
947.8628	2185.5504	2486.15	1592.1
947.9974	2187.0488	2471.5	1580.2
948.132	2188.5465	2461.8	1573.6
948.2666	2190.0435	2466.3	1573.35
948.4012	2191.5397	2459.15	1565.5
948.5357	2193.0353	2467.45	1571.2
948.6702	2194.5301	2452.8	1550.7
948.8047	2196.0241	2455.4	1557.7
948.9392	2197.5175	2451.95	1551.55
949.0736	2199.0101	2445.25	1543.05
949.208	2200.502	2429.45	1536.15
949.3424	2201.9931	2418.6	1528.65
949.4767	2203.4835	2418.95	1530.1
949.611	2204.9733	2436.95	1532.2
949.7453	2206.4622	2411.45	1523.5
949.8796	2207.9505	2408.8	1518.15
950.0138	2209.438	2400.9	1513.55
950.148	2210.9248	2391.45	1501.2
950.2822	2212.4109	2383.15	1491.3
950.4164	2213.8962	2389.4	1490.85
950.5505	2215.3809	2392.65	1496.5
950.6846	2216.8648	2381.75	1482.55
950.8186	2218.3479	2381.45	1477.25
950.9527	2219.8304	2382.1	1480.15
951.0867	2221.3121	2370.15	1469.3
951.2207	2222.7931	2373.45	1475
951.3546	2224.2733	2349.8	1452.65
951.4886	2225.7529	2342.25	1445.3
951.6225	2227.2317	2348.4	1455.9
951.7563	2228.7098	2332.1	1440.4
951.8902	2230.1872	2333.55	1445.45
952.024	2231.6638	2327.9	1436.9
952.1578	2233.1397	2328.75	1435.1
952.2916	2234.6149	2320.55	1430.55
952.4253	2236.0894	2304.7	1413.75
952.559	2237.5632	2326.1	1422.85
952.6927	2239.0362	2299.35	1407.05
952.8263	2240.5085	2299.95	1407
952.9599	2241.9801	2306.45	1413.2
953.0935	2243.4509	2294.7	1399.3
953.2271	2244.921	2289.65	1391.05
953.3606	2246.3904	2292.25	1391.8
953.4941	2247.8591	2289	1393.6
953.6276	2249.3271	2290.25	1395.3
953.7611	2250.7943	2257.45	1358.5
953.8945	2252.2608	2272.45	1374.4
954.0279	2253.7266	2275.45	1379.2
954.1612	2255.1917	2261.65	1368.75
954.2946	2256.656	2244.55	1351.9
954.4279	2258.1197	2241.35	1351.8
954.5612	2259.5826	2245.7	1352.1
954.6944	2261.0447	2246.7	1351.5
954.8276	2262.5062	2235.55	1336.9
954.9608	2263.9669	2235.35	1337.15
955.094	2265.4269	2225.15	1331.25
955.2271	2266.8862	2216.25	1320.9
955.3602	2268.3448	2223.15	1329.5
955.4933	2269.8026	2224.6	1335.2
955.6264	2271.2598	2213.9	1324.1
955.7594	2272.7162	2208.6	1316.15
955.8924	2274.1719	2210	1313.25
956.0253	2275.6268	2221.1	1324.6
956.1583	2277.0811	2213.95	1315.6
956.2912	2278.5346	2204.65	1311.95
956.4241	2279.9874	2201.25	1309.45
956.5569	2281.4395	2188.65	1300.8
956.6897	2282.8908	2185.55	1290.8
956.8225	2284.3414	2199.8	1304
956.9553	2285.7914	2186.3	1292
957.088	2287.2406	2189.9	1291.9
957.2207	2288.689	2185.75	1288.6
957.3534	2290.1368	2177.05	1276.4
957.486	2291.5838	2182.25	1280.9
957.6186	2293.0302	2171.1	1269.1
957.7512	2294.4758	2177.55	1278
957.8838	2295.9206	2167.55	1271
958.0163	2297.3648	2163.3	1270.9
958.1488	2298.8082	2149.1	1254.35
958.2813	2300.251	2148.55	1251.4
958.4137	2301.693	2162.25	1260.6
958.5461	2303.1343	2167.95	1269.6
958.6785	2304.5748	2144.15	1253.45
958.8108	2306.0147	2136.15	1245.25
958.9432	2307.4538	2138.65	1246.55
959.0754	2308.8922	2126.9	1238.95
959.2077	2310.3299	2127.85	1236.55
959.3399	2311.7669	2127	1232.3
959.4721	2313.2031	2122.3	1227.3
959.6043	2314.6387	2123.4	1229.15
959.7365	2316.0735	2117.15	1220.95
959.8686	2317.5076	2109.25	1214.2
960.0006	2318.941	2103.35	1206.45
960.1327	2320.3737	2110.95	1213.5
960.2647	2321.8056	2104.2	1203.9
960.3967	2323.2369	2112.9	1215.95
960.5287	2324.6674	2104.55	1208.6
960.6606	2326.0972	2097.1	1200.45
960.7925	2327.5263	2095.65	1200.7
960.9244	2328.9547	2084.85	1188.35
961.0562	2330.3823	2095.45	1197.7
961.1881	2331.8092	2093.45	1190.55
961.3198	2333.2355	2075.8	1176.6
961.4516	2334.661	2075	1175.9
961.5833	2336.0858	2063.4	1163.1
961.715	2337.5098	2077.85	1182.1
961.8467	2338.9332	2064.6	1167.4
961.9783	2340.3558	2058.7	1158.95
962.1099	2341.7778	2056.15	1163.65
962.2415	2343.199	2052.85	1156.25
962.373	2344.6195	2044.35	1150.65
962.5045	2346.0393	2052.1	1158.15
962.636	2347.4583	2044.75	1149.7
962.7675	2348.8767	2040.65	1141.5
962.8989	2350.2943	2046.25	1145.45
963.0303	2351.7113	2043.95	1141.1
963.1617	2353.1275	2050.35	1148.95
963.293	2354.543	2050.45	1141.65
963.4243	2355.9578	2035.65	1138.3
963.5556	2357.3718	2031.4	1136.95
963.6868	2358.7852	2029.45	1134.15
963.818	2360.1978	2027.5	1131.6
963.9492	2361.6098	2023.55	1128.8
964.0803	2363.021	2018.75	1120.55
964.2114	2364.4315	2012.65	1114.8
964.3425	2365.8413	2011.6	1112.95
964.4736	2367.2504	1994.5	1102.8
964.6046	2368.6587	2004.45	1112.2
964.7356	2370.0664	2002.45	1109.1
964.8666	2371.4733	1999.05	1101.6
964.9975	2372.8795	1998.3	1103.8
965.1284	2374.285	1995.55	1098.75
965.2593	2375.6899	1985.2	1089.1
965.3901	2377.0939	1975.5	1080.75
965.5209	2378.4973	1975.8	1081.15
965.6517	2379.9	1979.5	1083.75
965.7825	2381.3019	1977.2	1084.05
965.9132	2382.7032	1961.25	1068.75
966.0439	2384.1037	1967.75	1076.9
966.1745	2385.5035	1953.45	1061.5
966.3051	2386.9027	1949.85	1059.55
966.4357	2388.3011	1959.65	1064.7
966.5663	2389.6987	1949.5	1056.25
966.6968	2391.0957	1949.15	1057.25
966.8273	2392.492	1936.65	1044.7
966.9578	2393.8876	1937.4	1044.1
967.0882	2395.2824	1923.2	1029.35
967.2186	2396.6765	1930.1	1036.7
967.349	2398.07	1928.75	1032.85
967.4793	2399.4627	1927.2	1029.4
967.6097	2400.8547	1926.6	1030.35
967.7399	2402.246	1924.8	1024
967.8702	2403.6366	1909.65	1015.05
968.0004	2405.0265	1898.4	1005.55
968.1306	2406.4156	1896.85	998.9
968.2607	2407.8041	1902.75	1005.1
968.3909	2409.1918	1898.05	999.55
968.521	2410.5789	1900.4	1005.3
968.651	2411.9652	1888.35	988.5
968.781	2413.3508	1891	994.1
968.911	2414.7358	1891.95	993.85
969.041	2416.12	1892.05	998.5
969.1709	2417.5035	1894.6	1000
969.3008	2418.8863	1890.8	995.05
969.4307	2420.2684	1880.75	986.9
969.5606	2421.6497	1876.55	978.75
969.6904	2423.0304	1868.6	970.55
969.8201	2424.4104	1863.7	967.1
969.9499	2425.7896	1876.4	975.2
970.0796	2427.1682	1873.15	977.15
970.2093	2428.546	1871.65	977.4
970.3389	2429.9232	1866.45	969.2
970.4685	2431.2996	1864.1	968.75
970.5981	2432.6753	1869.1	973.75
970.7277	2434.0503	1853.6	958.4
970.8572	2435.4246	1850	953.75
970.9867	2436.7982	1854.2	955.4
971.1161	2438.1711	1849.55	952.6
971.2456	2439.5433	1849.3	953.6
971.375	2440.9148	1838.45	938.75
971.5043	2442.2856	1827.9	935
971.6336	2443.6557	1828.85	932.35
971.7629	2445.025	1824.65	929.7
971.8922	2446.3937	1820.4	923.8
972.0214	2447.7617	1821.5	924.25
972.1506	2449.1289	1816.55	922.4
972.2798	2450.4955	1817.4	917.8
972.4089	2451.8613	1804.95	912.4
972.538	2453.2265	1798.25	903.8
972.6671	2454.5909	1814.9	917.3
972.7961	2455.9546	1806.95	914.2
972.9251	2457.3177	1804.35	909.25
973.0541	2458.68	1811.8	913.9
973.1831	2460.0416	1800.4	903.8
973.312	2461.4025	1800.55	903.85
973.4408	2462.7627	1802.7	898.1
973.5697	2464.1222	1789.6	898.1
973.6985	2465.4811	1791.55	898.15
973.8273	2466.8392	1793.65	901.55
973.956	2468.1966	1790.35	893.5
974.0847	2469.5533	1802	905.6
974.2134	2470.9093	1790.1	894.35
974.3421	2472.2645	1782.55	885.3
974.4707	2473.6191	1787.5	897.25
974.5993	2474.973	1781.25	884.9
974.7278	2476.3262	1779	884.7
974.8563	2477.6787	1769.35	875.45
974.9848	2479.0305	1773.05	878.5
975.1132	2480.3816	1766.75	872.1
975.2417	2481.7319	1764.1	869.85
975.37	2483.0816	1770.7	873.3
975.4984	2484.4306	1752.1	859.65
975.6267	2485.7789	1757.45	863.05
975.755	2487.1264	1756.2	861.45
975.8833	2488.4733	1752.2	858.3
976.0115	2489.8195	1752.15	851.2
976.1397	2491.165	1749.45	851.4
976.2678	2492.5097	1735.9	841.05
976.3959	2493.8538	1733.4	839.95
976.524	2495.1972	1726.6	833.3
976.6521	2496.5398	1734.95	837.6
976.7801	2497.8818	1721.65	823.65
976.9081	2499.2231	1723.9	828.2
977.036	2500.5637	1720.6	822.5
977.164	2501.9035	1723.65	827.35
977.2918	2503.2427	1735.8	834.6
977.4197	2504.5812	1726.25	830
977.5475	2505.919	1720.35	820.55
977.6753	2507.256	1720.4	825.7
977.8031	2508.5924	1715.9	821.75
977.9308	2509.9281	1717	816.1
978.0585	2511.2631	1711.7	819.55
978.1861	2512.5974	1706.25	812.75
978.3137	2513.9309	1708.75	815.6
978.4413	2515.2638	1726.7	802.75
978.5689	2516.596	1702.95	809.1
978.6964	2517.9275	1696.9	802.5
978.8239	2519.2583	1694.7	797.55
978.9513	2520.5884	1690.95	793.65
979.0788	2521.9178	1691.95	798.15
979.2062	2523.2465	1679.2	788.05
979.3335	2524.5745	1688.05	793.95
979.4608	2525.9018	1686.9	790.1
979.5881	2527.2284	1680.35	787.95
979.7154	2528.5543	1670.05	777.75
979.8426	2529.8796	1679.15	783.15
979.9698	2531.2041	1689.85	796.15
980.0969	2532.5279	1671.45	777.6
980.224	2533.851	1665.2	772.1
980.3511	2535.1735	1673.5	779
980.4781	2536.4952	1677.25	780.3
980.6052	2537.8163	1672	775.75
980.7321	2539.1366	1674.45	780.25
980.8591	2540.4562	1662.95	766.2
980.986	2541.7752	1667.7	772.65
981.1129	2543.0935	1670.95	777.15
981.2397	2544.411	1665.6	767
981.3665	2545.7279	1661.85	769.15
981.4933	2547.0441	1655.85	760.05
981.62	2548.3596	1665.35	766.3
981.7467	2549.6744	1659.25	762.55
981.8734	2550.9885	1672.85	767.7
982.0001	2552.3019	1651.55	756.25
982.1267	2553.6146	1652.15	756.3
982.2532	2554.9266	1653.5	761.2
982.3798	2556.2379	1652.45	755.9
982.5063	2557.5485	1648.3	755.95
982.6327	2558.8585	1650.9	748.85
982.7592	2560.1677	1652.45	752.3
982.8856	2561.4762	1645.2	751.75
983.0119	2562.7841	1654.65	755.8
983.1383	2564.0913	1647.6	754.45
983.2646	2565.3977	1641.85	747.55
983.3908	2566.7035	1636.7	742.2
983.517	2568.0086	1643.25	745.95
983.6432	2569.313	1640.3	743.45
983.7694	2570.6167	1645.7	746
983.8955	2571.9197	1634.4	738.45
984.0216	2573.222	1638.1	739.7
984.1476	2574.5236	1634.6	740.35
984.2737	2575.8246	1637.6	739.75
984.3996	2577.1248	1637.2	740.7
984.5256	2578.4244	1626.85	732
984.6515	2579.7232	1627.45	734.05
984.7774	2581.0214	1645.45	724.75
984.9032	2582.3189	1632.55	739.7
985.029	2583.6157	1628.8	728.25
985.1548	2584.9118	1624.15	730.45
985.2806	2586.2072	1631.9	738.85
985.4063	2587.5019	1625.1	733.2
985.5319	2588.7959	1627.6	732.2
985.6576	2590.0893	1630.1	733.05
985.7832	2591.3819	1629.35	735.9
985.9087	2592.6739	1629.9	735.55
986.0343	2593.9652	1629.75	733.15
986.1597	2595.2557	1619.55	725.6
986.2852	2596.5456	1625.05	729.25
986.4106	2597.8348	1629.3	737.95
986.536	2599.1234	1623.2	728.7
986.6614	2600.4112	1626.9	733.35
986.7867	2601.6983	1629.2	732.2
986.912	2602.9848	1616	721.65
987.0372	2604.2705	1621.8	722.3
987.1624	2605.5556	1619.3	723.7
987.2876	2606.84	1624.3	733.15
987.4128	2608.1237	1613.55	718.2
987.5379	2609.4067	1611	717.6
987.6629	2610.689	1616.95	715.05
987.788	2611.9707	1610.45	714.55
987.913	2613.2516	1603.75	706.4
988.0379	2614.5319	1600	709.7
988.1629	2615.8115	1595.9	703.5
988.2878	2617.0903	1588.35	694.5
988.4126	2618.3685	1587.2	692.4
988.5375	2619.6461	1593.25	699.65
988.6622	2620.9229	1587.1	694.5
988.787	2622.199	1591	697.3
988.9117	2623.4745	1583.1	689.7
989.0364	2624.7493	1577.5	685.15
989.161	2626.0234	1572.3	683.15
989.2857	2627.2968	1573.2	680.45
989.4102	2628.5695	1574.75	680
989.5348	2629.8415	1582.3	692.35
989.6593	2631.1128	1572	678.8
989.7837	2632.3835	1571.75	680.2
989.9082	2633.6535	1571	679.55
990.0326	2634.9228	1562.3	670.15
990.1569	2636.1914	1565.65	674.25
990.2812	2637.4593	1567.75	673
990.4055	2638.7265	1567.15	674.6
990.5298	2639.9931	1569.25	678.3
990.654	2641.259	1555.6	663.2
990.7782	2642.5242	1558.15	665.05
990.9023	2643.7887	1558.1	668.1
991.0264	2645.0525	1555.9	663.95
991.1505	2646.3156	1542.9	650.65
991.2745	2647.5781	1544.9	652.75
991.3985	2648.8398	1542.1	651
991.5225	2650.1009	1573.9	645.25
991.6464	2651.3613	1545.55	653.8
991.7703	2652.6211	1541.1	652.75
991.8942	2653.8801	1539.5	648.5
992.018	2655.1385	1543.4	649.8
992.1418	2656.3961	1538.95	646.7
992.2655	2657.6531	1541.15	650.45
992.3892	2658.9094	1540.55	648.15
992.5129	2660.1651	1538.35	646.25
992.6366	2661.42	1536.15	643
992.7602	2662.6743	1541.1	648.65
992.8837	2663.9279	1547.8	659.05
993.0073	2665.1808	1542.65	651.85
993.1307	2666.433	1548.85	655.35
993.2542	2667.6846	1547.05	655.25
993.3776	2668.9354	1556.5	662.65
993.501	2670.1856	1549.45	656.6
993.6244	2671.4351	1550.65	659.05
993.7477	2672.6839	1549	658.6
993.8709	2673.9321	1551.85	661.45
993.9942	2675.1795	1550.7	658.7
994.1174	2676.4263	1563.2	672.15
994.2405	2677.6724	1556.4	664.25
994.3637	2678.9179	1557.7	665.35
994.4868	2680.1626	1559.75	668.75
994.6098	2681.4067	1558.95	668.3
994.7328	2682.6501	1563.45	672.25
994.8558	2683.8928	1547.9	656.25
994.9788	2685.1348	1549.95	660.35
995.1017	2686.3761	1537.5	644.55
995.2245	2687.6168	1541.45	653.65
995.3474	2688.8568	1537.8	647.3
995.4702	2690.0961	1526.7	638.75
995.5929	2691.3348	1520.25	630.45
995.7156	2692.5727	1522.65	631.15
995.8383	2693.81	1516.9	628.55
995.961	2695.0466	1516.65	625.5
996.0836	2696.2826	1525.4	631.95
996.2062	2697.5178	1522.9	626.05
996.3287	2698.7524	1519.75	628.6
996.4512	2699.9863	1527.65	633.85
996.5737	2701.2195	1521.8	632.15
996.6961	2702.452	1541.7	650.25
996.8185	2703.6839	1536.9	646.2
996.9408	2704.9151	1540.85	649.75
997.0631	2706.1456	1545.55	656.1
997.1854	2707.3755	1552.2	659.9
997.3077	2708.6046	1554.1	660.2
997.4299	2709.8331	1553.65	664
997.552	2711.0609	1556.75	665.75
997.6742	2712.2881	1568.45	678.55
997.7963	2713.5145	1586.55	693.75
997.9183	2714.7403	1586.8	696.95
998.0403	2715.9654	1584.45	693.05
998.1623	2717.1899	1618.5	715.15
998.2842	2718.4136	1611.4	721
998.4062	2719.6367	1634.3	744.9
998.528	2720.8591	1647.2	749.7
998.6498	2722.0809	1645.55	753.6
998.7716	2723.3019	1656	762.6
998.8934	2724.5223	1668.6	776.6
999.0151	2725.7421	1675.35	783.6
999.1368	2726.9611	1678.9	787.45
999.2584	2728.1795	1671.15	777.05
999.38	2729.3972	1664.5	776.15
999.5016	2730.6142	1668.95	765.15
999.6231	2731.8306	1641.95	750.65
999.7446	2733.0462	1623.4	728.75
999.8661	2734.2612	1611.55	716.85
999.9875	2735.4756	1589.65	697.75
1000.1089	2736.6892	1569.65	681.05
1000.2302	2737.9022	1557.15	668.35
1000.3515	2739.1145	1549.3	659.7
1000.4728	2740.3262	1541.7	644.15
1000.594	2741.5372	1524.85	635.3
1000.7152	2742.7475	1510.85	619.45
1000.8363	2743.9571	1502.7	609.45
1000.9575	2745.1661	1503.3	609.2
1001.0785	2746.3744	1486.7	596.1
1001.1996	2747.582	1483.05	593.3
1001.3206	2748.7889	1468.2	576.75
1001.4415	2749.9952	1471.45	582.55
1001.5625	2751.2008	1454.05	565.05
1001.6833	2752.4057	1454.15	561.75
1001.8042	2753.61	1454.3	565.1
1001.925	2754.8136	1448.15	556.45
1002.0458	2756.0165	1441.8	553.05
1002.1665	2757.2188	1442.45	554.95
1002.2872	2758.4204	1442.65	553.45
1002.4078	2759.6213	1445.25	556
1002.5285	2760.8215	1446.55	552.65
1002.649	2762.0211	1457.35	565.15
1002.7696	2763.22	1443.7	552.75
1002.8901	2764.4182	1444.7	552.45
1003.0106	2765.6158	1436.9	545.25
1003.131	2766.8127	1434.65	545.75
1003.2514	2768.009	1431.65	542.75
1003.3717	2769.2045	1431.6	542.3
1003.492	2770.3994	1418.25	528.3
1003.6123	2771.5936	1426.3	536.35
1003.7325	2772.7872	1419	530.55
1003.8527	2773.9801	1416.6	525.1
1003.9729	2775.1723	1431.05	524.25
1004.093	2776.3639	1408.55	520.95
1004.2131	2777.5548	1418.8	527.35
1004.3331	2778.745	1406.5	517.4
1004.4531	2779.9346	1420.35	531.05
1004.5731	2781.1235	1410.4	522.8
1004.693	2782.3117	1413.2	525.35
1004.8129	2783.4992	1413.35	525.05
1004.9328	2784.6861	1414.85	527.45
1005.0526	2785.8723	1416	528.25
1005.1723	2787.0579	1420.45	532.9
1005.2921	2788.2428	1430.4	544.35
1005.4118	2789.427	1429.45	542.05
1005.5314	2790.6106	1429.9	543.45
1005.651	2791.7935	1436.3	547.8
1005.7706	2792.9757	1445.15	558.55
1005.8902	2794.1573	1452.75	563.45
1006.0097	2795.3382	1460.85	572.25
1006.1291	2796.5184	1470.25	583.2
1006.2485	2797.698	1483.95	593.2
1006.3679	2798.8769	1488.55	599.45
1006.4873	2800.0551	1505.25	617.35
1006.6066	2801.2327	1513.6	622.6
1006.7258	2802.4096	1522.35	635.25
1006.8451	2803.5859	1534.2	647.6
1006.9642	2804.7615	1552.35	664.7
1007.0834	2805.9364	1579.35	693.1
1007.2025	2807.1106	1596.05	708.75
1007.3216	2808.2842	1612.1	723.2
1007.4406	2809.4572	1642.75	754.1
1007.5596	2810.6294	1672.55	783.75
1007.6785	2811.801	1707.15	820.55
1007.7975	2812.972	1742.95	857.8
1007.9163	2814.1423	1778.65	892.1
1008.0352	2815.3119	1832.6	945.6
1008.154	2816.4808	1871.25	986.15
1008.2727	2817.6491	1925.5	1035.95
1008.3914	2818.8167	1977.85	1091.25
1008.5101	2819.9837	2032.85	1140.65
1008.6288	2821.15	2092	1203.95
1008.7474	2822.3157	2151.55	1263.55
1008.8659	2823.4807	2201.8	1313.65
1008.9844	2824.645	2278	1389.5
1009.1029	2825.8086	2328.85	1443.5
1009.2214	2826.9716	2390.3	1504.15
1009.3398	2828.134	2445.2	1558.45
1009.4581	2829.2957	2490.1	1604.35
1009.5764	2830.4567	2520.5	1635.45
1009.6947	2831.617	2552.2	1666.65
1009.813	2832.7767	2569	1683.9
1009.9312	2833.9358	2568.4	1681.55
1010.0493	2835.0941	2558.25	1670.05
1010.1675	2836.2519	2544.75	1657.35
1010.2855	2837.4089	2525.25	1636.4
1010.4036	2838.5653	2498.45	1613
1010.5216	2839.7211	2475.55	1587.7
1010.6396	2840.8761	2483.05	1595.8
1010.7575	2842.0306	2492.85	1607.3
1010.8754	2843.1843	2511	1622.55
1010.9932	2844.3374	2546.35	1658.5
1011.111	2845.4899	2587.95	1700.2
1011.2288	2846.6417	2639.35	1754.35
1011.3465	2847.7928	2688.15	1803.1
1011.4642	2848.9433	2760.15	1872.75
1011.5818	2850.0931	2823.5	1938.55
1011.6995	2851.2422	2873.3	1984.8
1011.817	2852.3907	2930.85	2043.6
1011.9345	2853.5385	2983.8	2096.95
1012.052	2854.6857	3064.8	2151.5
1012.1695	2855.8323	3090.8	2205.1
1012.2869	2856.9781	3136.6	2251.45
1012.4042	2858.1233	3183.25	2299.05
1012.5216	2859.2679	3234.85	2348.85
1012.6389	2860.4118	3298.4	2411.7
1012.7561	2861.555	3346.95	2455.8
1012.8733	2862.6976	3373.15	2485.85
1012.9905	2863.8395	3412.15	2526.4
1013.1076	2864.9808	3451.2	2565
1013.2247	2866.1214	3484.2	2598.2
1013.3417	2867.2614	3511.5	2626.75
1013.4587	2868.4007	3519.25	2632.9
1013.5757	2869.5393	3530.7	2642.35
1013.6926	2870.6773	3544.4	2653.7
1013.8095	2871.8146	3549.6	2659.5
1013.9263	2872.9513	3563.6	2674
1014.0431	2874.0874	3547	2659.15
1014.1599	2875.2227	3525.2	2636.8
1014.2766	2876.3574	3508.65	2624.7
1014.3933	2877.4915	3488.25	2603.65
1014.51	2878.6249	3457.65	2573.25
1014.6266	2879.7577	3442.25	2557
1014.7431	2880.8898	3424.05	2528.7
1014.8596	2882.0212	3401.85	2517.15
1014.9761	2883.152	3386.95	2498.45
1015.0925	2884.2821	3379.45	2494.3
1015.2089	2885.4116	3362.85	2478.9
1015.3253	2886.5405	3373.35	2486.65
1015.4416	2887.6686	3371.35	2483.4
1015.5579	2888.7962	3375.35	2490.8
1015.6741	2889.923	3390.6	2506.1
1015.7903	2891.0493	3409.35	2526.55
1015.9065	2892.1748	3416.7	2529.85
1016.0226	2893.2997	3427.55	2542.8
1016.1387	2894.424	3440	2556.05
1016.2547	2895.5476	3460.25	2574.5
1016.3707	2896.6706	3469.95	2586.7
1016.4866	2897.7929	3495.35	2609.65
1016.6025	2898.9145	3521.4	2636.05
1016.7184	2900.0355	3541.85	2655.2
1016.8342	2901.1559	3570.5	2684.2
1016.95	2902.2756	3609.65	2719.5
1017.0658	2903.3946	3637.35	2752.5
1017.1815	2904.513	3664	2776.5
1017.2971	2905.6308	3694.55	2810.4
1017.4127	2906.7479	3716.7	2831.5
1017.5283	2907.8643	3741.2	2857.7
1017.6439	2908.9801	3747	2863
1017.7594	2910.0953	3758.6	2871.65
1017.8748	2911.2098	3755	2865.8
1017.9902	2912.3236	3765.1	2872.25
1018.1056	2913.4368	3750.3	2862.4
1018.2209	2914.5494	3707.6	2824.1
1018.3362	2915.6613	3700.85	2811.55
1018.4515	2916.7725	3663.75	2776.45
1018.5667	2917.8831	3634.4	2747.25
1018.6819	2918.9931	3605.15	2718.2
1018.797	2920.1024	3572.5	2686.55
1018.9121	2921.211	3560.4	2676.95
1019.0271	2922.319	3532.75	2649.1
1019.1421	2923.4264	3512.95	2629.95
1019.2571	2924.5331	3498.35	2614.7
1019.372	2925.6391	3501.5	2617.85
1019.4869	2926.7445	3508.15	2624.9
1019.6017	2927.8493	3503	2620.25
1019.7165	2928.9534	3509.75	2624.7
1019.8313	2930.0569	3515.05	2628.35
1019.946	2931.1597	3528.15	2642.85
1020.0606	2932.2619	3517.25	2631.6
1020.1753	2933.3634	3522.85	2639.6
1020.2899	2934.4643	3544.15	2653.95
1020.4044	2935.5645	3528.2	2639.55
1020.5189	2936.6641	3501.7	2614.45
1020.6334	2937.763	3484.55	2602
1020.7478	2938.8613	3448.1	2562.75
1020.8622	2939.959	3400.3	2510.05
1020.9765	2941.056	3335.95	2451.2
1021.0908	2942.1523	3260.75	2374.2
1021.2051	2943.248	3183.2	2297.75
1021.3193	2944.3431	3095	2211.1
1021.4334	2945.4375	2994.5	2110.1
1021.5476	2946.5313	2898.9	2017.1
1021.6617	2947.6244	2793.45	1909.05
1021.7757	2948.7169	2700.7	1814
1021.8897	2949.8087	2604.7	1720.35
1022.0037	2950.8999	2519.4	1637.05
1022.1176	2951.9904	2437.6	1553.9
1022.2315	2953.0803	2374.05	1489.9
1022.3453	2954.1696	2297.85	1412.4
1022.4591	2955.2582	2261.55	1379.15
1022.5728	2956.3462	2205.15	1320.5
1022.6865	2957.4335	2158.7	1274.3
1022.8002	2958.5202	2137.2	1253.5
1022.9138	2959.6062	2097.85	1215.65
1023.0274	2960.6916	2082.15	1201.05
1023.141	2961.7764	2065.25	1181.65
1023.2545	2962.8605	2037.4	1151.25
1023.3679	2963.9439	2031.05	1148.15
1023.4813	2965.0267	2024.5	1138.35
1023.5947	2966.1089	2030.15	1126.1
1023.708	2967.1905	2012.2	1128.65
1023.8213	2968.2714	1999.7	1117.35
1023.9346	2969.3516	1997	1114.45
1024.0478	2970.4312	2017.95	1128.25
1024.1609	2971.5102	2011.95	1129.05
1024.274	2972.5885	2021	1137.5
1024.3871	2973.6662	2029	1141.7
1024.5002	2974.7432	2020.3	1135.25
1024.6132	2975.8196	2014.3	1130.65
1024.7261	2976.8954	2013.25	1131.65
1024.839	2977.9705	2014.25	1130.5
1024.9519	2979.045	1987.5	1104.65
1025.0647	2980.1188	1978.2	1095.15
1025.1775	2981.192	1957.5	1075.45
1025.2902	2982.2645	1948.05	1063.8
1025.4029	2983.3364	1919	1035.05
1025.5156	2984.4077	1885.75	1003.25
1025.6282	2985.4783	1874.4	984.9
1025.7407	2986.5483	1839.65	955.85
1025.8532	2987.6177	1804.25	921.75
1025.9657	2988.6864	1771.6	887.4
1026.0782	2989.7545	1738.5	853.25
1026.1906	2990.8219	1706.25	826.5
1026.3029	2991.8887	1672.6	788.25
1026.4152	2992.9548	1637.65	751.35
1026.5275	2994.0204	1608.05	724.75
1026.6397	2995.0852	1575.7	691.65
1026.7519	2996.1495	1548.75	663.1
1026.864	2997.2131	1529.25	645.75
1026.9761	2998.276	1501.85	618.3
1027.0882	2999.3383	1478.75	596.5
1027.2002	3000.4	1452.9	568.5
1027.3122	3001.4611	1441.9	561.3
1027.4241	3002.5215	1424.65	541.1
1027.536	3003.5812	1404.35	520.15
1027.6478	3004.6404	1387.45	504.3
1027.7596	3005.6989	1386.15	500.8
1027.8714	3006.7567	1361.4	479
1027.9831	3007.8139	1380.75	467.75
1028.0947	3008.8705	1346.65	463.6
1028.2064	3009.9264	1337	450.6
1028.3179	3010.9818	1325.55	442
1028.4295	3012.0364	1319.05	436.1
1028.541	3013.0905	1310.7	427.45
1028.6524	3014.1439	1296.8	413.55
1028.7638	3015.1966	1298.85	416.55
1028.8752	3016.2487	1297.65	414.65
1028.9865	3017.3002	1296.45	409.85
1029.0978	3018.3511	1286.35	403.8
1029.209	3019.4013	1281.6	397.7
1029.3202	3020.4509	1287.1	403.7
1029.4314	3021.4998	1284.7	400.7
1029.5425	3022.5481	1272.45	391.65
1029.6535	3023.5958	1284.15	402.6
1029.7645	3024.6428	1273.85	389.45
1029.8755	3025.6892	1277.7	394.8
1029.9864	3026.735	1275	390.35
1030.0973	3027.7802	1275.25	392.75
1030.2082	3028.8247	1265.65	384.2
1030.319	3029.8685	1270.8	388.95
1030.4297	3030.9118	1273.3	392.25
1030.5404	3031.9544	1271.55	389.8
1030.6511	3032.9963	1280.45	397.6
1030.7617	3034.0376	1278.5	397
1030.8723	3035.0783	1280.05	395.55
1030.9829	3036.1184	1284.3	399
1031.0934	3037.1578	1280.8	398.55
1031.2038	3038.1966	1290.15	404.75
1031.3142	3039.2348	1291.2	409.9
1031.4246	3040.2723	1296.95	406
1031.5349	3041.3092	1280.4	398.3
1031.6452	3042.3455	1285.95	403
1031.7554	3043.3811	1283.8	401.25
1031.8656	3044.4161	1282.8	400.05
1031.9758	3045.4505	1279.35	398.5
1032.0859	3046.4842	1282.05	398.6
1032.1959	3047.5173	1283.1	401.65
1032.3059	3048.5498	1274.1	389.55
1032.4159	3049.5816	1264.5	381.85
1032.5258	3050.6128	1268.65	386.45
1032.6357	3051.6434	1271.85	389.05
1032.7455	3052.6734	1270.9	389.45
1032.8553	3053.7027	1262.05	380.15
1032.9651	3054.7314	1255.15	373.35
1033.0748	3055.7594	1257.6	377.65
1033.1845	3056.7868	1259.2	377.2
1033.2941	3057.8136	1253.8	373.15
1033.4037	3058.8398	1254.9	371.85
1033.5132	3059.8653	1250	367.55
1033.6227	3060.8902	1244.95	365.95
1033.7321	3061.9145	1244.1	361.2
1033.8415	3062.9381	1240.2	359.3
1033.9509	3063.9612	1251.9	354.2
1034.0602	3064.9835	1236.75	355.6
1034.1694	3066.0053	1239.85	357.6
1034.2787	3067.0264	1226.75	344.5
1034.3878	3068.0469	1227.7	344.6
1034.497	3069.0668	1222.35	337.05
1034.6061	3070.086	1220.75	340.5
1034.7151	3071.1046	1211.65	328.9
1034.8241	3072.1226	1210.2	326.25
1034.9331	3073.1399	1201.6	319.5
1035.042	3074.1567	1192.35	313.55
1035.1508	3075.1727	1192	308.25
1035.2597	3076.1882	1186	305.45
1035.3684	3077.203	1178.15	297.65
1035.4772	3078.2173	1172.05	289.5
1035.5859	3079.2308	1168.4	282.35
1035.6945	3080.2438	1157.5	272.65
1035.8031	3081.2561	1150.1	267.6
1035.9117	3082.2678	1142.25	259.95
1036.0202	3083.2789	1139.25	257.6
1036.1286	3084.2893	1131.55	250.9
1036.2371	3085.2991	1126.15	243.85
1036.3454	3086.3083	1130.7	242.95
1036.4538	3087.3169	1118.25	235.8
1036.562	3088.3248	1121.4	238.95
1036.6703	3089.3321	1111.5	226.8
1036.7785	3090.3388	1104.45	222.2
1036.8866	3091.3449	1101.85	218.25
1036.9948	3092.3503	1100.05	216.9
1037.1028	3093.3551	1092.85	214.1
1037.2108	3094.3593	1088.25	208.95
1037.3188	3095.3629	1081.9	199.95
1037.4267	3096.3658	1087.4	204.9
1037.5346	3097.3681	1082.1	200.95
1037.6425	3098.3698	1089.15	205.45
1037.7503	3099.3708	1084	197.05
1037.858	3100.3713	1074.6	192.7
1037.9657	3101.3711	1071.15	187
1038.0734	3102.3702	1182.9	183.6
1038.181	3103.3688	1071	186.55
1038.2886	3104.3667	1064.1	183.3
1038.3961	3105.364	1060.55	178.85
1038.5036	3106.3607	1060.8	178.15
1038.611	3107.3568	1057.5	174.95
1038.7184	3108.3522	1054.75	174.1
1038.8257	3109.347	1053.75	172.8
1038.933	3110.3412	1053.1	167.8
1039.0403	3111.3348	1049.75	170.05
1039.1475	3112.3277	1045.25	162.65
1039.2547	3113.32	1041.6	162.4
1039.3618	3114.3117	1045.3	164.7
1039.4689	3115.3028	1043.35	163.85
1039.5759	3116.2932	1037.95	153.7
1039.6829	3117.2831	1043.65	156.25
1039.7898	3118.2723	1035.65	155.25
1039.8967	3119.2608	1033	150.2
1040.0035	3120.2488	1032.25	151.5
1040.1103	3121.2361	1031.15	149.55
1040.2171	3122.2229	1030.85	149.8
1040.3238	3123.209	1030	147.35
1040.4305	3124.1944	1024.5	144.2
1040.5371	3125.1793	1024.95	141.45
1040.6437	3126.1635	1025.25	146.55
1040.7502	3127.1471	1022.55	140.4
1040.8567	3128.1301	1019.4	138.9
1040.9631	3129.1125	1022.5	142.1
1041.0695	3130.0942	1013.85	133.1
1041.1759	3131.0753	1028.1	139.5
1041.2822	3132.0558	1018.5	135.55
1041.3884	3133.0357	1017.95	137.4
1041.4946	3134.015	1011.25	128.35
1041.6008	3134.9936	1014.65	132.55
1041.7069	3135.9716	1033.5	130.7
1041.813	3136.949	1008.05	126.25
1041.919	3137.9258	1026.4	128.05
1042.025	3138.902	1014.1	127.55
1042.1309	3139.8775	1008.3	127.7
1042.2368	3140.8524	1007.65	126.3
1042.3427	3141.8267	1005	122.1
1042.4485	3142.8004	1005	124.2
1042.5542	3143.7735	1011.25	124.55
1042.6599	3144.7459	1001.1	118.05
1042.7656	3145.7178	1003	122.3
1042.8712	3146.689	995.15	112.8
1042.9768	3147.6596	1001.65	119.9
1043.0823	3148.6295	998.25	117.7
1043.1878	3149.5989	999.05	118.15
1043.2932	3150.5676	998.65	119.1
1043.3986	3151.5357	994.6	115.5
1043.5039	3152.5032	991.95	111.8
1043.6092	3153.4701	993.4	114
1043.7145	3154.4364	997.7	113.3
1043.8197	3155.402	991.45	111.4
1043.9248	3156.367	992.5	108.95
1044.03	3157.3315	1026.05	108.75
1044.135	3158.2952	989.9	107.8
1044.24	3159.2584	988.3	108.5
1044.345	3160.221	990.95	111.5
1044.4499	3161.1829	988.1	105.15
1044.5548	3162.1442	986.9	107
1044.6596	3163.105	987.05	106.55
1044.7644	3164.065	985.25	106.05
1044.8692	3165.0245	987.2	103.3
1044.9739	3165.9834	980.45	103.2
1045.0785	3166.9416	981.3	99.15
1045.1831	3167.8993	983.3	102.95
1045.2877	3168.8563	980.6	97.15
1045.3922	3169.8127	978.65	100.25
1045.4966	3170.7684	980.25	98.35
1045.6011	3171.7236	981.35	101.1
1045.7054	3172.6782	979.8	100.65
1045.8098	3173.6321	980.5	98.25
1045.914	3174.5854	982.2	98.15
1046.0183	3175.5381	972.5	91.9
1046.1224	3176.4902	974.2	93.5
1046.2266	3177.4417	973.9	92.9
1046.3307	3178.3926	972.95	93.8
1046.4347	3179.3428	977.2	99.5
1046.5387	3180.2924	974.1	96.2
1046.6427	3181.2415	972.85	90.15
1046.7466	3182.1899	974.8	95.65
1046.8504	3183.1377	974.6	94.55
1046.9542	3184.0848	976.25	94.15
1047.058	3185.0314	971.75	90.75
1047.1617	3185.9773	973.3	92.2
1047.2654	3186.9227	968.35	86.55
1047.369	3187.8674	968.4	86.95
1047.4726	3188.8115	971.15	87.6
1047.5761	3189.755	970.2	90.7
1047.6796	3190.6979	967.6	87.8
1047.783	3191.6402	964.95	85.95
1047.8864	3192.5818	964.75	84.85
1047.9898	3193.5229	969.8	83
1048.0931	3194.4633	968.7	88.15
1048.1963	3195.4031	966.7	85.4
1048.2995	3196.3423	961.95	81.75
1048.4027	3197.2809	962.15	81.85
1048.5058	3198.2189	962.7	81.95
1048.6089	3199.1563	981.1	84.45
1048.7119	3200.0931	961.55	82.15
1048.8148	3201.0292	960.7	83.25
1048.9178	3201.9648	958.4	79.75
1049.0206	3202.8997	964.65	82.35
1049.1235	3203.834	960.6	79.45
1049.2262	3204.7677	960.1	79.6
1049.329	3205.7008	961.65	80.55
1049.4317	3206.6333	956.45	76.15
1049.5343	3207.5652	960.8	77.4
1049.6369	3208.4964	961.05	80.7
1049.7394	3209.4271	956.8	78.45
1049.8419	3210.3571	955.2	75.7
1049.9444	3211.2865	957.6	78.8
1050.0468	3212.2154	958.1	78.05
1050.1491	3213.1436	958.75	77.05
1050.2514	3214.0712	964.2	77.55
1050.3537	3214.9982	955.8	77.5
1050.4559	3215.9246	954.9	74.4
1050.5581	3216.8503	951.1	68.85
1050.6602	3217.7755	953.8	73.2
1050.7623	3218.7001	951.5	72.3
1050.8643	3219.624	948.5	68.05
1050.9663	3220.5473	954.4	75.35
1051.0682	3221.4701	951.35	70.45
1051.1701	3222.3922	953.95	73.1
1051.2719	3223.3137	946.5	66.55
1051.3737	3224.2346	950.35	68.8
1051.4754	3225.1549	948.7	69.25
1051.5771	3226.0746	945.55	65.95
1051.6788	3226.9937	949.5	69.2
1051.7804	3227.9121	947.85	69.1
1051.8819	3228.83	944.3	66.2
1051.9834	3229.7473	950.8	69.25
1052.0849	3230.6639	947	66.15
1052.1863	3231.5799	945	64.2
1052.2876	3232.4954	949.7	70
1052.3889	3233.4102	944.1	65.65
1052.4902	3234.3244	947.15	67.75
1052.5914	3235.238	945.7	68.3
1052.6926	3236.151	966.9	62.1
1052.7937	3237.0634	944.8	66.75
1052.8948	3237.9752	939	59.8
1052.9958	3238.8864	944.2	66.3
1053.0968	3239.797	940.8	63.45
1053.1977	3240.7069	941.6	63.1
1053.2986	3241.6163	942.95	62.25
1053.3994	3242.5251	939.75	60.05
1053.5002	3243.4332	942.2	63.7
1053.6009	3244.3408	940.55	61
1053.7016	3245.2477	937.9	60.85
1053.8022	3246.154	943.15	62.65
1053.9028	3247.0598	938	57.45
1054.0034	3247.9649	938.35	60.05
1054.1039	3248.8694	937.3	56.05
1054.2043	3249.7733	935.45	56.2
1054.3047	3250.6766	935.35	56.15
1054.4051	3251.5793	936.75	55.85
1054.5054	3252.4814	934.95	57.15
1054.6056	3253.3829	931.65	52.45
1054.7058	3254.2838	933.55	54.4
1054.806	3255.1841	936.3	57.25
1054.9061	3256.0838	932.05	52.4
1055.0061	3256.9829	930.8	52.45
1055.1062	3257.8814	932.4	51.2
1055.2061	3258.7792	933.5	51
1055.306	3259.6765	931.5	52.55
1055.4059	3260.5731	930.4	50.9
1055.5057	3261.4692	929.9	51.65
1055.6055	3262.3647	930.65	50.1
1055.7052	3263.2595	928.45	48.15
1055.8049	3264.1538	926.2	49.25
1055.9045	3265.0474	924.65	45.75
1056.0041	3265.9404	924.9	45.85
1056.1036	3266.8329	926.05	47.4
1056.2031	3267.7247	932	44
1056.3025	3268.616	922.3	44.9
1056.4019	3269.5066	922.75	44.15
1056.5013	3270.3966	921.45	42.2
1056.6005	3271.286	920.55	43.2
