Software Version:	3.9.2.0
Unit SN:	10000200
Spectrometer SN:	6960
Date:	3/8/2024 12:41:35 PM
Data Line Index:	25
Spectral Points:	2048
Integration time (ms):	125
Averages:	20
Delay (ms):	30000
Sequence Number:	1
Processing:	dark subtract
Laser Power (mW):	305
Laser Current (mA):	823
Laser Diode Temp (C):	25.1
Laser Case Temp (C):	26.1
System Temp (C):	26.1
Spectrometer Temp (C):	23.9
CCD Temp (C):	0.005
Secondary Temp (C):	20.01
Heatsink Temp (C):	21.127
CCDPCB Temp (C):	35.684
SecondaryPCB Temp (C):	29.849

Wavelength	RamanShift	Raw Counts	Dark Subtracted
787.061	30.1047	451.3	41.7
787.2016	32.3739	454.9	47.25
787.3422	34.6426	460.45	52.2
787.4828	36.9109	466.3	55.6
787.6235	39.1787	472.95	58.2
787.7642	41.4461	485.6	65.7
787.9049	43.7131	486.25	63.9
788.0456	45.9796	498.45	73.6
788.1863	48.2456	507.3	77.8
788.3271	50.5112	514.45	82.05
788.4679	52.7764	522.2	85.25
788.6087	55.0411	533.4	92.3
788.7496	57.3054	550.75	104.6
788.8904	59.5692	559.4	112.15
789.0313	61.8326	566.35	117.25
789.1722	64.0955	579.05	125.75
789.3132	66.3579	594.75	135.65
789.4541	68.6199	615.85	152.9
789.5951	70.8815	649.7	180.95
789.7361	73.1426	734.35	264.05
789.8771	75.4032	948.05	471.9
790.0181	77.6634	1463.2	981.25
790.1592	79.9231	2671.1	2181.05
790.3003	82.1824	5278.5	4768.45
790.4414	84.4412	9922.3	9376.3
790.5825	86.6995	16252.4	15662.3
790.7237	88.9574	22314.05	21683
790.8648	91.2148	26418.9	25761.75
791.006	93.4717	28215.95	27542.3
791.1472	95.7282	28418.15	27735.45
791.2885	97.9842	28093.1	27404.45
791.4297	100.2398	27322.4	26629.55
791.571	102.4949	26500.8	25809.1
791.7123	104.7495	25535.15	24842.55
791.8536	107.0036	24582.6	23887.95
791.9949	109.2573	23782.95	23089.55
792.1363	111.5105	23046.85	22348
792.2777	113.7632	22373.75	21674.55
792.4191	116.0154	21829.75	21122.5
792.5605	118.2672	21454.9	20751.45
792.7019	120.5185	21035.2	20330.75
792.8434	122.7693	20761.2	20050.4
792.9849	125.0197	20509.65	19796.75
793.1264	127.2696	20262.75	19547
793.2679	129.519	20060.3	19340.35
793.4094	131.7679	19799.85	19072.2
793.551	134.0163	19504.4	18778.75
793.6926	136.2642	19162.3	18432
793.8342	138.5117	18794.85	18053.8
793.9758	140.7587	18414	17676.25
794.1175	143.0052	18095.3	17356.35
794.2591	145.2512	17718.8	16981.8
794.4008	147.4967	17389.65	16654.25
794.5425	149.7417	17140.15	16399.95
794.6842	151.9863	16985.8	16245.65
794.826	154.2304	16858.3	16105.5
794.9677	156.4739	16702.7	15944.15
795.1095	158.717	16595.6	15840
795.2513	160.9596	16426.9	15664.9
795.3931	163.2017	16162.45	15405
795.535	165.4433	15864.15	15099.7
795.6768	167.6844	15515.25	14750.95
795.8187	169.925	15256.8	14489.55
795.9606	172.1651	14898.7	14132.45
796.1025	174.4047	14652.65	13881.15
796.2445	176.6439	14428.05	13657.6
796.3864	178.8825	14219.45	13445.4
796.5284	181.1206	14063.3	13280
796.6704	183.3582	13927.05	13142.7
796.8124	185.5954	13878.4	13094.95
796.9544	187.832	13798.35	13006.6
797.0965	190.0681	13778.25	12981.85
797.2386	192.3037	13773.4	12977.05
797.3806	194.5388	13763.05	12963.9
797.5228	196.7734	13813.5	13015.85
797.6649	199.0075	13869.65	13061.4
797.807	201.2411	13978.6	13174.3
797.9492	203.4742	14086.6	13274.35
798.0914	205.7068	14222.3	13413.15
798.2336	207.9389	14325.05	13512.65
798.3758	210.1704	14484.85	13675.85
798.518	212.4015	14609.35	13810.7
798.6603	214.632	14737.85	13940.9
798.8025	216.862	14878.2	14086.05
798.9448	219.0915	14953.85	14160.75
799.0871	221.3205	15065.5	14269.8
799.2294	223.549	15126.55	14332.6
799.3718	225.777	15197.8	14410.65
799.5141	228.0044	15299.7	14498.95
799.6565	230.2314	15412	14618.05
799.7989	232.4578	15505.5	14707.65
799.9413	234.6837	15596.7	14791.15
800.0837	236.909	15644.3	14836.05
800.2262	239.1339	15652.15	14815.15
800.3687	241.3582	15602.8	14778.8
800.5111	243.582	15513.45	14658.5
800.6536	245.8053	15440.1	14604.3
800.7961	248.0281	15381.7	14547.9
800.9387	250.2503	15404.35	14567.9
801.0812	252.472	15490.55	14653.5
801.2238	254.6932	15632.65	14797.2
801.3664	256.9139	15726.7	14888.6
801.509	259.134	15923.55	15077
801.6516	261.3536	16178.95	15336.7
801.7942	263.5727	16505.1	15660.85
801.9369	265.7912	16775.9	15928.65
802.0795	268.0092	17073.7	16232.65
802.2222	270.2267	17309	16466.05
802.3649	272.4436	17401.55	16560
802.5076	274.6601	17463.5	16607.95
802.6504	276.8759	17391.3	16542.8
802.7931	279.0913	17277.55	16425.55
802.9359	281.3061	17139.05	16289.2
803.0787	283.5204	17098.4	16245.2
803.2215	285.7341	17068.95	16212.35
803.3643	287.9473	17098.15	16227.3
803.5071	290.16	17158.9	16297.35
803.6499	292.3721	17210.3	16356.8
803.7928	294.5837	17380.4	16520.8
803.9357	296.7947	17583.1	16724.75
804.0786	299.0052	17784.3	16925.95
804.2215	301.2152	17740.65	16880.45
804.3644	303.4246	17600.85	16744.5
804.5074	305.6334	17269.75	16416.75
804.6503	307.8418	16892.4	16031.3
804.7933	310.0495	16496.35	15639.6
804.9363	312.2568	16070.4	15210.15
805.0793	314.4635	15660.9	14797.3
805.2223	316.6696	15345	14479.85
805.3653	318.8752	15129.3	14250.15
805.5084	321.0802	15034.85	14169.05
805.6514	323.2847	15058.6	14184.35
805.7945	325.4887	15059.6	14187
805.9376	327.692	15051.6	14176.9
806.0807	329.8949	15024.4	14147.15
806.2238	332.0972	14867.35	13994.1
806.367	334.2989	14675.15	13795.55
806.5101	336.5001	14430.15	13554
806.6533	338.7007	14225.75	13347.5
806.7965	340.9008	14055.55	13174.3
806.9397	343.1003	13892.65	13013.3
807.0829	345.2992	13799.6	12918.25
807.2261	347.4976	13699.75	12818.85
807.3693	349.6955	13613.15	12723.8
807.5126	351.8927	13593.65	12705.95
807.6559	354.0895	13510.8	12613.4
807.7991	356.2856	13471	12578.1
807.9424	358.4812	13418.7	12526.35
808.0857	360.6763	13409.45	12518.65
808.2291	362.8707	13393.8	12501.45
808.3724	365.0646	13420.65	12523.6
808.5158	367.258	13474.1	12581.95
808.6591	369.4508	13539.85	12637.95
808.8025	371.643	13700.8	12796.6
808.9459	373.8346	13746.3	12843.75
809.0893	376.0257	13862.55	12959.65
809.2327	378.2162	13874.25	12973.9
809.3762	380.4062	13869.35	12970.6
809.5196	382.5956	13773.05	12874.65
809.6631	384.7844	13657.75	12758.95
809.8066	386.9726	13536.95	12642.6
809.9501	389.1603	13456.05	12562.45
810.0936	391.3474	13410	12482.95
810.2371	393.5339	13348.75	12449.7
810.3806	395.7199	13311.85	12420.35
810.5241	397.9052	13379.25	12484.4
810.6677	400.09	13453.8	12559.35
810.8113	402.2743	13623.85	12732
810.9548	404.4579	13772.8	12879.55
811.0984	406.641	13983.85	13088.05
811.2421	408.8235	14130.7	13235.7
811.3857	411.0054	14305.8	13402.25
811.5293	413.1868	14420.6	13511.4
811.673	415.3675	14460	13549.25
811.8166	417.5477	14445.9	13542.4
811.9603	419.7273	14403.95	13498.05
812.104	421.9064	14323.7	13409.85
812.2477	424.0848	14262.55	13356.2
812.3914	426.2627	14116.15	13203.85
812.5351	428.4399	13889	12980.75
812.6788	430.6166	13589.65	12674.35
812.8226	432.7928	13255.8	12341.9
812.9663	434.9683	12952.2	12042.5
813.1101	437.1432	12737.55	11828.35
813.2539	439.3176	12570	11667.05
813.3977	441.4914	12458.9	11563.5
813.5415	443.6645	12427.3	11520.65
813.6853	445.8371	12388.75	11479.3
813.8291	448.0091	12315.65	11406.25
813.973	450.1806	12342.2	11433.55
814.1168	452.3514	12330.5	11427.4
814.2607	454.5216	12355.7	11441.7
814.4046	456.6913	12347.95	11440.15
814.5485	458.8603	12365.95	11462.05
814.6924	461.0288	12431.15	11528.65
814.8363	463.1967	12400.65	11501.7
814.9802	465.3639	12414.3	11505.95
815.1241	467.5306	12381.4	11471.4
815.2681	469.6967	12383.35	11477.5
815.412	471.8622	12407.45	11508.95
815.556	474.0271	12442.85	11537.95
815.7	476.1914	12485.45	11572.1
815.844	478.3551	12489.45	11580.3
815.988	480.5182	12548.2	11642.8
816.132	482.6807	12637.9	11741.7
816.276	484.8426	12801.25	11911.45
816.4201	487.0039	13089.55	12189.9
816.5641	489.1647	13515.45	12605.6
816.7082	491.3248	13796.4	12886.7
816.8522	493.4843	13925.2	13018.65
816.9963	495.6432	13856.85	12952.15
817.1404	497.8015	13718.5	12799.35
817.2845	499.9592	13615.45	12696.1
817.4286	502.1163	13417	12496.55
817.5727	504.2728	13121.7	12211.1
817.7168	506.4287	12848.85	11952.45
817.861	508.5839	12539.75	11641.45
818.0051	510.7386	12344.05	11438.6
818.1493	512.8927	12254.75	11333.6
818.2935	515.0461	12278.1	11361.9
818.4377	517.199	12339.75	11424.75
818.5818	519.3512	12526.9	11606.6
818.726	521.5029	12795.15	11877.55
818.8703	523.6539	13048	12129.25
819.0145	525.8043	13159.65	12237.45
819.1587	527.9541	13114.7	12195.85
819.303	530.1033	12904.35	11989.55
819.4472	532.2519	12765.05	11846
819.5915	534.3999	12672.2	11754.2
819.7357	536.5472	12688.7	11774.8
819.88	538.694	12875.25	11965
820.0243	540.8401	13119.4	12201.8
820.1686	542.9856	13301.8	12373
820.3129	545.1305	13340.95	12404.1
820.4572	547.2748	13252.65	12313.05
820.6016	549.4185	13124.05	12183.2
820.7459	551.5615	13006.4	12071
820.8902	553.704	13042.1	12104.7
821.0346	555.8458	13098.8	12170.25
821.1789	557.987	13262.2	12333.65
821.3233	560.1276	13494.95	12561.25
821.4677	562.2675	13920.55	12986.25
821.6121	564.4069	14443.8	13511.2
821.7565	566.5456	14920.4	13987.85
821.9009	568.6837	15070.6	14143.9
822.0453	570.8212	14681.05	13758
822.1897	572.958	13999.55	13068.1
822.3342	575.0942	13339.45	12413.15
822.4786	577.2299	12895.5	11974.3
822.6231	579.3648	12633.65	11722.15
822.7675	581.4992	12582.1	11684.25
822.912	583.6329	12655.6	11757.6
823.0565	585.766	12814.35	11909.8
823.201	587.8985	12958.25	12049.35
823.3454	590.0304	13019.45	12079.25
823.4899	592.1616	13022.45	12090.7
823.6345	594.2922	12883.85	11952.6
823.779	596.4222	12685.1	11746.95
823.9235	598.5515	12494.1	11557.75
824.068	600.6802	12297.85	11361.8
824.2126	602.8083	12123.95	11190.9
824.3571	604.9358	12121	11187.6
824.5017	607.0626	12172.15	11235.55
824.6462	609.1888	12269.25	11324.3
824.7908	611.3144	12440.75	11499.3
824.9354	613.4393	12584.55	11641.55
825.08	615.5636	12694	11751.8
825.2246	617.6873	12724.3	11783.05
825.3692	619.8103	12664.15	11719
825.5138	621.9327	12451.3	11512.9
825.6584	624.0544	12258.7	11326.35
825.803	626.1756	12055.95	11119.4
825.9477	628.2961	11906.15	10966.25
826.0923	630.4159	11820.35	10881.8
826.237	632.5351	11781	10842.85
826.3816	634.6537	11787.2	10843
826.5263	636.7716	11807.15	10863.4
826.6709	638.8889	11813.85	10865.4
826.8156	641.0056	11818.9	10869.35
826.9603	643.1216	11812.8	10865.5
827.105	645.237	11763.8	10817.45
827.2497	647.3518	11653.9	10716.6
827.3944	649.4659	11616.3	10684.95
827.5391	651.5793	11538.45	10606.35
827.6838	653.6922	11474.2	10535.9
827.8285	655.8043	11498.6	10560.75
827.9733	657.9159	11503.75	10566.75
828.118	660.0268	11446.65	10507.65
828.2627	662.137	11467.8	10524.15
828.4075	664.2466	11495.55	10547.5
828.5522	666.3556	11477.95	10531.65
828.697	668.4639	11438	10494.25
828.8418	670.5716	11382.75	10446.65
828.9865	672.6786	11354.4	10410.7
829.1313	674.785	11277.1	10328.1
829.2761	676.8907	11253.05	10307.8
829.4209	678.9958	11256	10318.25
829.5657	681.1002	11213.75	10272.3
829.7105	683.204	11236.9	10285.95
829.8553	685.3072	11171.35	10220.05
830.0001	687.4097	11178.25	10230.9
830.1449	689.5115	11192.55	10246.55
830.2898	691.6127	11156.8	10213.4
830.4346	693.7132	11152.05	10209.55
830.5794	695.8131	11201.8	10234.8
830.7243	697.9123	11222.25	10271.5
830.8691	700.0109	11242.65	10288.65
831.014	702.1089	11272.7	10322.85
831.1588	704.2061	11325.2	10375.4
831.3037	706.3028	11388.7	10435.55
831.4486	708.3987	11432.65	10481.4
831.5935	710.4941	11465.75	10516.45
831.7383	712.5887	11523.15	10573.85
831.8832	714.6827	11552.3	10600.8
832.0281	716.7761	11653.35	10706.5
832.173	718.8688	11791	10843.9
832.3179	720.9608	11946.35	10993.4
832.4628	723.0522	12102.1	11143.1
832.6077	725.1429	12181.05	11225.25
832.7527	727.233	12277.9	11326
832.8976	729.3224	12345.35	11392.1
833.0425	731.4112	12253	11303.8
833.1874	733.4993	12125.95	11170.45
833.3324	735.5867	11900.4	10948.45
833.4773	737.6735	11686.85	10733.2
833.6222	739.7596	11484.5	10527.25
833.7672	741.845	11338.7	10388.3
833.9122	743.9298	11271.9	10317.85
834.0571	746.014	11215.25	10261.7
834.2021	748.0974	11229.7	10271.8
834.347	750.1802	11198.75	10237.75
834.492	752.2624	11235.2	10278
834.637	754.3439	11286.75	10329.25
834.782	756.4247	11364.15	10395.55
834.9269	758.5048	11530.25	10573.35
835.0719	760.5843	11806.85	10848.2
835.2169	762.6631	12236.05	11281.75
835.3619	764.7413	12779	11822.15
835.5069	766.8188	13511.6	12548.1
835.6519	768.8956	14083.1	13123.4
835.7969	770.9718	14471.9	13511.5
835.9419	773.0473	14376.6	13421.55
836.0869	775.1221	14169.95	13211.65
836.232	777.1962	13926.55	12966.1
836.377	779.2697	13831.3	12871.2
836.522	781.3426	13885.7	12911.65
836.667	783.4147	14002.9	13043.25
836.8121	785.4862	14051.25	13092.1
836.9571	787.557	13847.95	12886.85
837.1021	789.6271	13367	12407.9
837.2472	791.6966	12708.6	11748.75
837.3922	793.7654	12150.35	11190.15
837.5373	795.8335	11731.4	10777.85
837.6823	797.901	11405.9	10447.55
837.8274	799.9678	11245.15	10283.9
837.9724	802.0339	11171.45	10207.35
838.1175	804.0993	11128.9	10159.85
838.2626	806.1641	11045.1	10079.65
838.4076	808.2282	10980.3	10015.6
838.5527	810.2916	10884.7	9924.7
838.6978	812.3544	10829.8	9873.6
838.8428	814.4164	10759.2	9801.65
838.9879	816.4778	10791.75	9827.25
839.133	818.5385	10871.9	9904.9
839.2781	820.5986	10994	10029.55
839.4232	822.658	11258.75	10294.25
839.5682	824.7166	11583.1	10619.4
839.7133	826.7747	12121.8	11159.1
839.8584	828.832	12664.55	11699.75
840.0035	830.8886	13113.35	12148.05
840.1486	832.9446	13272.8	12307.9
840.2937	834.9999	13098.5	12132.2
840.4388	837.0545	12780.2	11814.25
840.5839	839.1085	12427.75	11458.1
840.729	841.1618	12077	11108.1
840.8741	843.2143	11821.15	10856.7
841.0192	845.2662	11584.7	10620.45
841.1643	847.3175	11460.5	10495.25
841.3095	849.368	11320.6	10354.95
841.4546	851.4179	11246.95	10278.7
841.5997	853.467	11165.8	10200.9
841.7448	855.5155	11101.55	10135
841.8899	857.5633	11002.7	10036.75
842.0351	859.6105	10934.45	9967.15
842.1802	861.6569	10860.25	9893.55
842.3253	863.7027	10799.5	9831.5
842.4704	865.7478	10731.55	9764.6
842.6156	867.7922	10694.1	9728.8
842.7607	869.8359	10673.75	9703.8
842.9058	871.8789	10704.5	9735.2
843.0509	873.9212	10766.55	9765.7
843.1961	875.9629	10819.95	9851.45
843.3412	878.0039	10925.45	9963.15
843.4863	880.0441	11023.55	10058.2
843.6315	882.0837	11082.45	10120.45
843.7766	884.1226	11121.7	10150.7
843.9218	886.1609	11205.55	10237.95
844.0669	888.1984	11286.25	10322.35
844.212	890.2352	11423.85	10452.3
844.3572	892.2714	11472.7	10500.6
844.5023	894.3069	11425.6	10457.3
844.6475	896.3416	11243.05	10274.5
844.7926	898.3757	11087.8	10120.2
844.9377	900.4091	11002.95	10031.7
845.0829	902.4418	10999.9	10028.2
845.228	904.4739	11031.9	10057.05
845.3732	906.5052	11062.7	10088.45
845.5183	908.5358	11029.15	10053.25
845.6635	910.5658	10916.65	9944.2
845.8086	912.595	10699.65	9730.8
845.9538	914.6236	10494.95	9524.7
846.0989	916.6515	10346.4	9379.55
846.2441	918.6786	10256.1	9282.75
846.3892	920.7051	10247.2	9275.35
846.5344	922.7309	10307.5	9338.3
846.6795	924.756	10294.15	9327
846.8246	926.7804	10362.75	9394.1
846.9698	928.8041	10323.2	9356.45
847.1149	930.8272	10408.35	9437.7
847.2601	932.8495	10408.2	9435.6
847.4052	934.8711	10396.05	9422.55
847.5504	936.892	10370.95	9400.1
847.6955	938.9123	10361.55	9388.4
847.8407	940.9318	10388.95	9416.9
847.9858	942.9506	10375.25	9406.45
848.131	944.9688	10314.5	9343.55
848.2761	946.9862	10216.5	9250.75
848.4213	949.003	10090	9124.5
848.5664	951.019	9990.95	9020.4
848.7115	953.0344	9913.2	8942.6
848.8567	955.0491	9894.85	8923.6
849.0018	957.063	9941.05	8969.5
849.147	959.0763	10006.85	9036.95
849.2921	961.0888	10007.95	9040.35
849.4373	963.1007	10083.4	9115
849.5824	965.1119	10084.05	9123.95
849.7275	967.1223	10096.55	9143.4
849.8727	969.1321	10015.7	9065.8
850.0178	971.1412	10028.75	9070.6
850.1629	973.1495	10033.25	9068.65
850.3081	975.1572	10065.3	9053.45
850.4532	977.1641	10040.85	9069.5
850.5983	979.1704	10021	9047.45
850.7435	981.1759	10011.95	9036.05
850.8886	983.1808	9996.4	9024.4
851.0337	985.1849	10016.65	9032.8
851.1788	987.1884	10063.45	9088.85
851.324	989.1911	10147.2	9179.75
851.4691	991.1932	10195.85	9228.5
851.6142	993.1945	10217.1	9245.4
851.7593	995.1951	10155.1	9185
851.9045	997.1951	10166	9192.6
852.0496	999.1943	10125.7	9155.9
852.1947	1001.1928	10100.25	9128.8
852.3398	1003.1906	10162.6	9190.9
852.4849	1005.1877	10294.4	9323.5
852.63	1007.1841	10388.8	9423.05
852.7751	1009.1798	10407.7	9436.65
852.9202	1011.1748	10351.7	9385.5
853.0653	1013.1691	10231.7	9265.75
853.2104	1015.1627	9984.8	9016.4
853.3555	1017.1556	9808.9	8845.2
853.5006	1019.1477	9675.25	8710.85
853.6457	1021.1392	9560.15	8601.75
853.7908	1023.1299	9525.4	8574.2
853.9359	1025.12	9524.25	8577.15
854.081	1027.1093	9588.75	8652.65
854.2261	1029.0979	9699.05	8764.5
854.3712	1031.0859	9751.95	8813.45
854.5163	1033.0731	9825.35	8872
854.6613	1035.0596	9782.8	8823.95
854.8064	1037.0454	9675.6	8714.3
854.9515	1039.0304	9574.9	8608.8
855.0965	1041.0148	9465.05	8504.25
855.2416	1042.9985	9390.5	8426.85
855.3867	1044.9814	9317.75	8356.2
855.5317	1046.9636	9261.1	8297.3
855.6768	1048.9452	9252.45	8291.1
855.8219	1050.926	9302.85	8340.3
855.9669	1052.9061	9338.95	8375.2
856.112	1054.8855	9357.05	8390.15
856.257	1056.8642	9398.05	8437.3
856.4021	1058.8421	9438.85	8468
856.5471	1060.8194	9451	8481.65
856.6921	1062.7959	9513.4	8548.8
856.8372	1064.7717	9578.65	8613.75
856.9822	1066.7469	9650.8	8687.9
857.1272	1068.7213	9721.75	8755
857.2723	1070.695	9832	8868.4
857.4173	1072.6679	9875.3	8907.25
857.5623	1074.6402	9873.9	8908.15
857.7073	1076.6117	9843.7	8869.75
857.8523	1078.5826	9757	8787.9
857.9973	1080.5527	9587.9	8618.3
858.1423	1082.5221	9477.1	8514.05
858.2873	1084.4908	9422.1	8455
858.4323	1086.4587	9445.45	8478.65
858.5773	1088.426	9461.3	8494.4
858.7223	1090.3925	9479.1	8510.6
858.8673	1092.3584	9490.65	8521.7
859.0123	1094.3235	9528.7	8567.4
859.1573	1096.2879	9636.7	8672.4
859.3022	1098.2515	9741.35	8777.35
859.4472	1100.2145	9930.8	8966.95
859.5922	1102.1767	10126	9159.3
859.7371	1104.1382	10365.9	9403.15
859.8821	1106.099	10602.8	9635.2
860.027	1108.0591	10828.45	9863.8
860.172	1110.0185	10969.75	10006.35
860.3169	1111.9771	11059.25	10097
860.4619	1113.9351	10981.95	10017.25
860.6068	1115.8923	10838.25	9875.95
860.7517	1117.8488	10759.15	9792
860.8967	1119.8045	10569.3	9605.9
861.0416	1121.7596	10424.8	9463.05
861.1865	1123.7139	10283.35	9319.8
861.3314	1125.6675	10218.7	9257.65
861.4763	1127.6204	10231.6	9267.9
861.6212	1129.5726	10205.85	9240.9
861.7661	1131.524	10100.3	9138.55
861.911	1133.4748	9983.15	9018.25
862.0559	1135.4248	9764.4	8802.1
862.2008	1137.3741	9605.45	8643.5
862.3457	1139.3226	9496.95	8535.3
862.4905	1141.2705	9436.4	8476.8
862.6354	1143.2176	9356.6	8385.85
862.7803	1145.164	9327.15	8360
862.9251	1147.1097	9228.05	8264.25
863.07	1149.0546	9122.65	8155.6
863.2148	1150.9989	9035.55	8073.45
863.3597	1152.9424	8926.95	7965.55
863.5045	1154.8852	8848.35	7886
863.6493	1156.8272	8824.95	7866.05
863.7942	1158.7686	8846.1	7877.3
863.939	1160.7092	8876.5	7912
864.0838	1162.6491	8898.75	7931.2
864.2286	1164.5883	9033.65	8071.1
864.3734	1166.5267	9160.45	8200.4
864.5182	1168.4644	9283.4	8317.95
864.663	1170.4014	9469.7	8502.3
864.8078	1172.3377	9740.4	8781.1
864.9526	1174.2732	10049.95	9092.4
865.0974	1176.2081	10460.45	9500.65
865.2421	1178.1421	11007.65	10042.5
865.3869	1180.0755	11555.9	10596
865.5317	1182.0082	11931.35	10972.85
865.6764	1183.9401	12096.85	11139.85
865.8212	1185.8713	11974.15	11022.05
865.9659	1187.8017	11609.85	10664.1
866.1106	1189.7315	11192.35	10259.9
866.2554	1191.6605	10767.9	9831.9
866.4001	1193.5888	10468.4	9524.15
866.5448	1195.5163	10308.1	9356.05
866.6895	1197.4432	10226.8	9271.85
866.8342	1199.3693	10180.8	9225.2
866.9789	1201.2947	10132.2	9168.7
867.1236	1203.2193	10095.6	9135.55
867.2683	1205.1432	10085.45	9127.65
867.413	1207.0664	10038.55	9081.9
867.5576	1208.9889	10032.1	9074.4
867.7023	1210.9106	9994.8	9037.7
867.847	1212.8316	9993.6	9035.55
867.9916	1214.7519	10019.25	9049.25
868.1363	1216.6715	10055.35	9097.95
868.2809	1218.5903	10148	9190.75
868.4255	1220.5084	10257.5	9301.2
868.5701	1222.4257	10350.4	9398.5
868.7148	1224.3424	10403.3	9449.3
868.8594	1226.2583	10526.65	9567.9
869.004	1228.1735	10680.55	9721.85
869.1486	1230.0879	10841.1	9885.25
869.2932	1232.0016	11032.4	10074.25
869.4377	1233.9146	11196.1	10235.1
869.5823	1235.8269	11226.95	10271.75
869.7269	1237.7384	11217.85	10263.75
869.8715	1239.6492	11103.45	10148.2
870.016	1241.5592	11091	10135.95
870.1606	1243.4686	11167.4	10205.5
870.3051	1245.3772	11363.8	10403.4
870.4496	1247.285	11607.15	10648.25
870.5941	1249.1922	11838.7	10881.9
870.7387	1251.0986	12010.25	11053.15
870.8832	1253.0042	12110.2	11157.45
871.0277	1254.9092	12236.4	11281.95
871.1722	1256.8134	12330.5	11375.5
871.3167	1258.7169	12482.65	11528.7
871.4611	1260.6196	12622.6	11669.5
871.6056	1262.5216	12826.85	11871.8
871.7501	1264.4229	13025.35	12074.25
871.8945	1266.3234	13232.9	12280.45
872.039	1268.2232	13398.75	12444.4
872.1834	1270.1223	13474.5	12517.2
872.3278	1272.0207	13496.7	12535.85
872.4723	1273.9183	13498.6	12535.95
872.6167	1275.8151	13430.95	12476.25
872.7611	1277.7113	13434.2	12485.65
872.9055	1279.6067	13502.65	12549.6
873.0499	1281.5014	13791.5	12835.9
873.1943	1283.3953	14268.45	13314.55
873.3386	1285.2885	14870.45	13920.85
873.483	1287.181	15440.9	14487.7
873.6274	1289.0727	16056.65	15106.55
873.7717	1290.9637	16438.05	15487.75
873.9161	1292.854	16632.3	15677.6
874.0604	1294.7435	16606.35	15652.75
874.2047	1296.6323	16479.1	15527.15
874.349	1298.5204	16238.3	15279
874.4933	1300.4077	15950.5	14992.8
874.6376	1302.2943	15667.7	14714.55
874.7819	1304.1802	15270.75	14319.2
874.9262	1306.0653	14791.15	13835.7
875.0705	1307.9497	14242	13288.25
875.2147	1309.8333	13782.9	12832.9
875.359	1311.7162	13415.1	12461.15
875.5032	1313.5984	13174.15	12218.7
875.6475	1315.4798	13028	12057.6
875.7917	1317.3605	12887	11928.4
875.9359	1319.2405	12763.55	11810.3
876.0801	1321.1197	12503.8	11547.3
876.2243	1322.9982	12181	11224.1
876.3685	1324.876	11850.8	10898.25
876.5127	1326.753	11519.9	10562.15
876.6569	1328.6293	11299.8	10343.7
876.801	1330.5048	11079.5	10120
876.9452	1332.3796	10886.4	9929.9
877.0893	1334.2537	10805.35	9827.45
877.2335	1336.127	10683.05	9727.95
877.3776	1337.9996	10627.8	9675.4
877.5217	1339.8714	10634.35	9681.75
877.6658	1341.7426	10667.9	9669
877.8099	1343.6129	10646.6	9687.6
877.954	1345.4826	10669.85	9716.6
878.0981	1347.3515	10670.5	9712.4
878.2422	1349.2196	10619.75	9665.6
878.3862	1351.087	10664.85	9710.4
878.5303	1352.9537	10697.95	9743.6
878.6743	1354.8197	10802.5	9845
878.8184	1356.6849	10974	10017.45
878.9624	1358.5493	11119.7	10167.3
879.1064	1360.4131	11334.15	10382.2
879.2504	1362.276	11514.6	10564.4
879.3944	1364.1383	11547.3	10595.85
879.5384	1365.9998	11370	10412.2
879.6823	1367.8606	11046.95	10090.9
879.8263	1369.7206	10694.95	9737.75
879.9702	1371.5799	10367	9411.5
880.1142	1373.4384	10098.55	9143.5
880.2581	1375.2962	9848.6	8895.9
880.402	1377.1533	9530.6	8581.7
880.5459	1379.0096	9141	8193.35
880.6898	1380.8652	8842.6	7895.9
880.8337	1382.7201	8527.6	7579.1
880.9776	1384.5742	8277.05	7326
881.1215	1386.4275	8113.65	7163.15
881.2653	1388.2802	7952.95	6997.4
881.4092	1390.132	7848.25	6893.9
881.553	1391.9832	7766.65	6813.25
881.6968	1393.8336	7696.25	6743.9
881.8406	1395.6832	7648.9	6696.55
881.9844	1397.5322	7594.95	6643.2
882.1282	1399.3803	7584.45	6628.35
882.272	1401.2278	7548.75	6600.1
882.4158	1403.0745	7520.05	6569.75
882.5595	1404.9204	7503.2	6555.95
882.7033	1406.7656	7517.55	6562.85
882.847	1408.6101	7494.4	6540.75
882.9908	1410.4538	7543.8	6592.25
883.1345	1412.2968	7581.1	6629.95
883.2782	1414.139	7613.35	6665.85
883.4219	1415.9805	7711.1	6763
883.5656	1417.8213	7776.65	6821.05
883.7092	1419.6613	7854.25	6907.5
883.8529	1421.5006	7995.7	7046.7
883.9965	1423.3391	8176.5	7228.1
884.1402	1425.1769	8451.9	7502.5
884.2838	1427.0139	8858.35	7910.4
884.4274	1428.8502	9387.35	8438.35
884.571	1430.6858	9878.85	8931.5
884.7146	1432.5206	10246.9	9298.15
884.8582	1434.3547	10469	9519.7
885.0018	1436.188	10484.9	9539.05
885.1453	1438.0206	10412.65	9460.75
885.2889	1439.8524	10234.75	9288.9
885.4324	1441.6835	10140.75	9192.55
885.5759	1443.5139	10024.55	9072.45
885.7194	1445.3435	9984.25	9035.15
885.8629	1447.1724	9963.4	9019.55
886.0064	1449.0005	9890.85	8943.35
886.1499	1450.8279	9822.3	8875.55
886.2933	1452.6545	9851.3	8906.35
886.4368	1454.4804	9870.2	8927.4
886.5802	1456.3056	9861.75	8911.45
886.7237	1458.13	9797.55	8854.75
886.8671	1459.9536	9656.4	8707.95
887.0105	1461.7766	9397.75	8451.5
887.1539	1463.5987	9111	8163.55
887.2972	1465.4202	8794.45	7851.5
887.4406	1467.2409	8463.15	7517.6
887.584	1469.0608	8205.5	7259.1
887.7273	1470.88	7962.65	7017.05
887.8706	1472.6984	7728.55	6782
888.0139	1474.5161	7540.65	6590.6
888.1572	1476.3331	7395.7	6452.55
888.3005	1478.1493	7275.65	6329.3
888.4438	1479.9648	7203.3	6258.7
888.5871	1481.7795	7116.65	6168.9
888.7303	1483.5935	7063.75	6118.05
888.8736	1485.4067	7019.55	6074.7
889.0168	1487.2192	6983.5	6035.85
889.16	1489.031	6951.1	6004.1
889.3032	1490.842	6901.3	5956.35
889.4464	1492.6522	6883.85	5939.1
889.5896	1494.4618	6842.85	5898.3
889.7327	1496.2705	6812.4	5866.4
889.8759	1498.0785	6774.7	5830.55
890.019	1499.8858	6723.15	5779.35
890.1622	1501.6924	6687.9	5744.95
890.3053	1503.4981	6631.15	5686.3
890.4484	1505.3032	6611.35	5663.45
890.5914	1507.1075	6559	5615.5
890.7345	1508.911	6528.1	5584
890.8776	1510.7138	6472.1	5525.85
891.0206	1512.5159	6422.4	5479.8
891.1637	1514.3172	6376.75	5435.65
891.3067	1516.1178	6329.75	5387.1
891.4497	1517.9176	6305.3	5361.35
891.5927	1519.7166	6267.9	5327.2
891.7357	1521.515	6265.4	5317.3
891.8786	1523.3126	6225.8	5285.4
892.0216	1525.1094	6191.75	5250.85
892.1645	1526.9055	6159.15	5220.05
892.3074	1528.7008	6147	5207.5
892.4503	1530.4954	6131.05	5190.2
892.5932	1532.2893	6111.75	5172.95
892.7361	1534.0824	6087.9	5148.1
892.879	1535.8747	6082	5146.4
893.0218	1537.6663	6068.3	5134.05
893.1647	1539.4572	6069.5	5131.35
893.3075	1541.2473	6080.25	5143.55
893.4503	1543.0367	6098.45	5162
893.5931	1544.8253	6092.4	5150.3
893.7359	1546.6132	6124.1	5181.65
893.8787	1548.4003	6164.95	5220.45
894.0214	1550.1867	6207.75	5265.5
894.1642	1551.9723	6293.2	5355.6
894.3069	1553.7572	6385.55	5450.15
894.4496	1555.5414	6513.25	5579
894.5923	1557.3247	6652.85	5724.2
894.735	1559.1074	6796.9	5868.45
894.8777	1560.8893	6985	6060.3
895.0204	1562.6705	7154.7	6225.05
895.163	1564.4509	7302.8	6374.95
895.3056	1566.2305	7375.75	6450.9
895.4482	1568.0094	7431.85	6508.9
895.5908	1569.7876	7419.85	6492.15
895.7334	1571.565	7385.3	6455.85
895.876	1573.3417	7380.9	6452
896.0186	1575.1176	7363.95	6436.15
896.1611	1576.8928	7363.6	6440.85
896.3036	1578.6672	7380.45	6463.45
896.4461	1580.4409	7420.3	6501.4
896.5886	1582.2138	7478.2	6551.35
896.7311	1583.986	7542.4	6619.9
896.8736	1585.7575	7649.45	6725.55
897.0161	1587.5282	7777.6	6854.4
897.1585	1589.2981	7893.2	6975.75
897.3009	1591.0673	8008.3	7091.25
897.4433	1592.8358	8136.25	7217.9
897.5857	1594.6035	8234.35	7312.6
897.7281	1596.3704	8350.65	7427.55
897.8705	1598.1366	8410.1	7487.65
898.0128	1599.9021	8528.65	7607.25
898.1551	1601.6668	8626.6	7704.7
898.2975	1603.4308	8785.1	7861.7
898.4398	1605.194	8938.9	8013.85
898.5821	1606.9564	9140.65	8227.2
898.7243	1608.7182	9395.15	8482.75
898.8666	1610.4791	9725.5	8820.35
899.0088	1612.2394	10053.8	9145.05
899.1511	1613.9988	10345.15	9438.55
899.2933	1615.7576	10686.4	9774.6
899.4355	1617.5156	10895	9966.9
899.5776	1619.2728	10959.45	10035.85
899.7198	1621.0293	10816.45	9896
899.862	1622.785	10574	9655.7
900.0041	1624.54	10202.85	9288.85
900.1462	1626.2942	9788.65	8874.55
900.2883	1628.0477	9328.4	8409.75
900.4304	1629.8005	8949.05	8030.2
900.5725	1631.5525	8578.65	7665.55
900.7145	1633.3037	8262.85	7351.7
900.8566	1635.0542	8027.85	7115.55
900.9986	1636.804	7834.7	6924.15
901.1406	1638.553	7766.85	6763.1
901.2826	1640.3013	7606	6690
901.4245	1642.0488	7556.45	6641.65
901.5665	1643.7955	7561.8	6651.5
901.7085	1645.5416	7593.65	6683.4
901.8504	1647.2868	7691.5	6778.6
901.9923	1649.0313	7797	6884.4
902.1342	1650.7751	7929.8	7012.9
902.2761	1652.5181	8054.4	7143.4
902.4179	1654.2604	8238.85	7328.75
902.5598	1656.0019	8456.85	7547.25
902.7016	1657.7427	8702.35	7792.35
902.8434	1659.4828	8960.35	8042.9
902.9852	1661.222	9079.85	8163.9
903.127	1662.9606	9062.05	8149.35
903.2687	1664.6984	8856.4	7939.05
903.4105	1666.4354	8449.85	7532.2
903.5522	1668.1717	7925	7004.6
903.6939	1669.9072	7348.35	6432.35
903.8356	1671.642	6906.85	5987.2
903.9773	1673.3761	6521.45	5605.15
904.119	1675.1094	6227.45	5312.05
904.2606	1676.8419	5963.65	5050.15
904.4022	1678.5737	5748.3	4831.05
904.5439	1680.3048	5596.7	4680.8
904.6855	1682.0351	5463.45	4548.3
904.827	1683.7646	5357.5	4437.75
904.9686	1685.4934	5260.25	4342.6
905.1101	1687.2215	5187.7	4274.1
905.2517	1688.9488	5113.05	4202.1
905.3932	1690.6754	5059.4	4148.05
905.5347	1692.4012	5007.35	4092
905.6761	1694.1263	4970.2	4055.2
905.8176	1695.8506	4911.9	3996.35
905.9591	1697.5742	4862.8	3956.25
906.1005	1699.297	4824.65	3916.85
906.2419	1701.0191	4786.7	3881.35
906.3833	1702.7404	4746.2	3838.45
906.5246	1704.461	4708.2	3796.5
906.666	1706.1808	4676.6	3763.4
906.8073	1707.8999	4652.5	3745.65
906.9487	1709.6182	4617.8	3713.5
907.09	1711.3358	4591.75	3689.75
907.2313	1713.0527	4567.85	3666.25
907.3725	1714.7688	4550.55	3638.65
907.5138	1716.4841	4508.25	3598.3
907.655	1718.1987	4514.8	3600.3
907.7962	1719.9126	4476.95	3572.95
907.9374	1721.6257	4460.4	3556.3
908.0786	1723.338	4454.4	3550.3
908.2198	1725.0496	4422.7	3517.85
908.3609	1726.7605	4430.4	3521.7
908.502	1728.4706	4430.35	3523.8
908.6431	1730.18	4390.45	3483.35
908.7842	1731.8886	4370.35	3466.55
908.9253	1733.5964	4371.9	3447.45
909.0664	1735.3036	4368.2	3459.8
909.2074	1737.0099	4329	3424.9
909.3484	1738.7156	4307.4	3405.65
909.4894	1740.4204	4303.05	3396.85
909.6304	1742.1246	4278.5	3371.55
909.7714	1743.8279	4248.55	3344.5
909.9123	1745.5306	4228.75	3325.15
910.0532	1747.2325	4198.9	3295.75
910.1941	1748.9336	4174.35	3267.6
910.335	1750.634	4154.3	3247.45
910.4759	1752.3336	4161	3259.35
910.6168	1754.0325	4140.35	3240.2
910.7576	1755.7307	4129.95	3227.95
910.8984	1757.4281	4129.05	3224.2
911.0392	1759.1247	4118.65	3204.75
911.18	1760.8206	4112.1	3199.05
911.3208	1762.5158	4110	3197.65
911.4615	1764.2102	4085.5	3177.85
911.6022	1765.9039	4066.75	3161.2
911.7429	1767.5968	4061.5	3162.2
911.8836	1769.289	4057.1	3154.4
912.0243	1770.9804	4034.05	3128.75
912.1649	1772.6711	4042.3	3132.1
912.3056	1774.361	4026.7	3115.9
912.4462	1776.0502	4028.35	3119.65
912.5868	1777.7386	4022.85	3113.95
912.7274	1779.4263	3989.4	3087.45
912.8679	1781.1132	3988.35	3086.55
913.0084	1782.7994	3980.95	3078.7
913.149	1784.4849	3970.95	3073.4
913.2895	1786.1696	3981.35	3060.15
913.4299	1787.8535	3957.5	3058.3
913.5704	1789.5367	3938.8	3039.75
913.7108	1791.2192	3945.05	3044.7
913.8513	1792.9009	3934.35	3006.95
913.9917	1794.5818	3915.9	3008.35
914.132	1796.2621	3909.65	3004.45
914.2724	1797.9415	3906.4	3001.95
914.4128	1799.6202	3882.7	2976.05
914.5531	1801.2982	3889.9	2983.2
914.6934	1802.9755	3890.35	2982.1
914.8337	1804.6519	3875.2	2968.9
914.9739	1806.3277	3859.45	2958.75
915.1142	1808.0027	3838	2941.3
915.2544	1809.6769	3842.65	2946.8
915.3946	1811.3504	3827.3	2928.4
915.5348	1813.0231	3827.45	2930.9
915.675	1814.6951	3821.8	2923.05
915.8151	1816.3664	3809.1	2901.45
915.9553	1818.0369	3807.65	2903.4
916.0954	1819.7067	3809.4	2906.7
916.2355	1821.3757	3790.55	2885.05
916.3755	1823.044	3781.65	2877.45
916.5156	1824.7115	3794.1	2889.85
916.6556	1826.3783	3778.75	2876.4
916.7956	1828.0443	3763.25	2859.8
916.9356	1829.7096	3745.75	2842.45
917.0756	1831.3741	3753.95	2850.6
917.2155	1833.0379	3733.3	2834.8
917.3555	1834.701	3732.6	2832.3
917.4954	1836.3633	3728.35	2830.5
917.6353	1838.0248	3716.95	2817.95
917.7751	1839.6856	3725.45	2824.95
917.915	1841.3457	3722.8	2820.15
918.0548	1843.005	3717.65	2813.6
918.1946	1844.6636	3711.35	2811.6
918.3344	1846.3214	3689.45	2787.95
918.4742	1847.9785	3710.4	2809.35
918.6139	1849.6349	3693.7	2789.05
918.7537	1851.2904	3686.85	2773.8
918.8934	1852.9453	3680.55	2776.9
919.0331	1854.5994	3691.8	2783.75
919.1727	1856.2528	3685.85	2777.75
919.3124	1857.9054	3654.8	2749.1
919.452	1859.5572	3644.1	2742.25
919.5916	1861.2083	3645.75	2741.9
919.7312	1862.8587	3643.15	2740.9
919.8708	1864.5084	3644.05	2738.1
920.0103	1866.1572	3614.95	2710.7
920.1498	1867.8054	3622.3	2716.7
920.2893	1869.4528	3617.45	2711.7
920.4288	1871.0994	3619.5	2714.05
920.5683	1872.7453	3600.45	2692.45
920.7077	1874.3905	3586.6	2676.05
920.8471	1876.0349	3588.75	2684.55
920.9865	1877.6786	3580.05	2676.5
921.1259	1879.3215	3575.2	2671.6
921.2653	1880.9637	3570.1	2668.1
921.4046	1882.6051	3565.15	2665.45
921.5439	1884.2458	3555.9	2652.6
921.6832	1885.8858	3539.25	2638.6
921.8225	1887.525	3553.45	2651.35
921.9617	1889.1634	3538.6	2635.55
922.101	1890.8011	3529.95	2625.65
922.2402	1892.4381	3513.05	2608.1
922.3794	1894.0743	3508.7	2606.25
922.5185	1895.7098	3508.55	2606.9
922.6577	1897.3446	3503.45	2601.3
922.7968	1898.9786	3498	2593.45
922.9359	1900.6118	3477.3	2576.15
923.075	1902.2443	3461.9	2561.3
923.214	1903.8761	3457.75	2557.6
923.3531	1905.5071	3450.85	2547.65
923.4921	1907.1374	3440.75	2538.25
923.6311	1908.7669	3444.25	2542.65
923.77	1910.3957	3427.8	2527.95
923.909	1912.0237	3421.65	2522.3
924.0479	1913.651	3411.5	2508.6
924.1868	1915.2776	3401.8	2502.25
924.3257	1916.9034	3398.25	2499.25
924.4646	1918.5285	3374.15	2476.2
924.6034	1920.1528	3375.75	2476.35
924.7422	1921.7764	3365.5	2462.5
924.881	1923.3992	3364.15	2463.5
925.0198	1925.0213	3352.1	2451.05
925.1586	1926.6427	3329.7	2432.15
925.2973	1928.2633	3399.65	2414.5
925.436	1929.8832	3331.55	2428.8
925.5747	1931.5023	3318.1	2416.4
925.7134	1933.1207	3303.2	2401.95
925.852	1934.7383	3294.85	2392.75
925.9906	1936.3552	3291.35	2393.2
926.1292	1937.9714	3285.7	2384.15
926.2678	1939.5868	3270.15	2366.85
926.4064	1941.2015	3252.55	2348.05
926.5449	1942.8154	3250	2347.55
926.6834	1944.4286	3251.4	2349.15
926.8219	1946.041	3246.6	2321.95
926.9604	1947.6528	3222.75	2315.8
927.0988	1949.2637	3225.65	2325.05
927.2372	1950.8739	3215.3	2313.95
927.3756	1952.4834	3206.5	2306.7
927.514	1954.0921	3192.8	2290.25
927.6523	1955.7001	3202.95	2299.8
927.7907	1957.3074	3188.1	2293.55
927.929	1958.9139	3178.9	2283.6
928.0673	1960.5197	3180.55	2284.15
928.2055	1962.1247	3159.05	2259.75
928.3438	1963.729	3149.65	2253.7
928.482	1965.3325	3143.75	2241.25
928.6202	1966.9353	3120.8	2224.85
928.7584	1968.5374	3122.45	2226.5
928.8965	1970.1387	3113	2215.45
929.0346	1971.7393	3108.1	2209.6
929.1727	1973.3392	3096.6	2199.25
929.3108	1974.9383	3083	2187.8
929.4489	1976.5366	3081.5	2187.35
929.5869	1978.1342	3080.15	2186.45
929.7249	1979.7311	3062.85	2167.9
929.8629	1981.3273	3068.9	2174.95
930.0009	1982.9227	3060	2167.55
930.1388	1984.5173	3047.75	2153.4
930.2767	1986.1112	3045.6	2154.2
930.4146	1987.7044	3022.6	2129.3
930.5525	1989.2968	3033.85	2138.25
930.6904	1990.8885	3036.7	2140.2
930.8282	1992.4795	3023.15	2130.65
930.966	1994.0697	3006.15	2116
931.1038	1995.6592	3012.6	2121.3
931.2415	1997.2479	3000.95	2107.45
931.3793	1998.8359	2986.45	2094.05
931.517	2000.4232	2977.15	2089.8
931.6547	2002.0097	2967.75	2083.65
931.7923	2003.5955	2952.3	2068.5
931.93	2005.1805	2976.1	2087.15
932.0676	2006.7648	2949.5	2060.6
932.2052	2008.3484	2941.2	2051.35
932.3427	2009.9312	2945.9	2056.7
932.4803	2011.5133	2946.85	2062.85
932.6178	2013.0946	2934.55	2049.05
932.7553	2014.6752	2937.15	2051.55
932.8928	2016.2551	2926.8	2038.35
933.0302	2017.8342	2919.35	2028.05
933.1676	2019.4126	2914	2027.85
933.305	2020.9902	2895.3	2009.65
933.4424	2022.5672	2889.05	2002.25
933.5798	2024.1433	2895.25	2004.15
933.7171	2025.7188	2883.65	1999.7
933.8544	2027.2935	2874.95	1990
933.9917	2028.8674	2867.2	1982.9
934.129	2030.4406	2867.85	1985.8
934.2662	2032.0131	2848.15	1965.1
934.4034	2033.5849	2855.1	1969.8
934.5406	2035.1559	2847.85	1966
934.6778	2036.7261	2841.5	1951.65
934.8149	2038.2957	2836.35	1946.65
934.952	2039.8645	2834.05	1941
935.0891	2041.4325	2840.15	1947.3
935.2262	2042.9998	2821.55	1934.5
935.3632	2044.5664	2821	1933.75
935.5002	2046.1323	2814.85	1931.75
935.6372	2047.6974	2804.8	1920.45
935.7742	2049.2617	2803.9	1923.35
935.9111	2050.8254	2812.35	1919.95
936.048	2052.3883	2819.55	1930.75
936.1849	2053.9504	2795.6	1904.9
936.3218	2055.5118	2791.3	1900.55
936.4586	2057.0725	2776.95	1887.05
936.5955	2058.6325	2776.05	1888.65
936.7323	2060.1917	2766.95	1884
936.869	2061.7502	2766	1878.25
937.0058	2063.3079	2758	1874.75
937.1425	2064.8649	2751.1	1862.9
937.2792	2066.4212	2743.65	1856.1
937.4159	2067.9767	2740.55	1852.05
937.5525	2069.5315	2727.35	1839.05
937.6891	2071.0856	2722.7	1836.6
937.8257	2072.6389	2716.05	1830
937.9623	2074.1915	2709.65	1828.05
938.0989	2075.7433	2703.55	1817.45
938.2354	2077.2945	2693.4	1808.7
938.3719	2078.8448	2702.4	1811.95
938.5084	2080.3945	2686.1	1796.45
938.6448	2081.9434	2693.2	1804.15
938.7812	2083.4916	2688.35	1794.1
938.9176	2085.039	2678.05	1781.05
939.054	2086.5857	2672.65	1774.35
939.1903	2088.1317	2681.2	1782.5
939.3267	2089.677	2666.85	1767.45
939.463	2091.2215	2665.35	1767
939.5992	2092.7652	2667.75	1767.75
939.7355	2094.3083	2654.1	1758.05
939.8717	2095.8506	2658.3	1765.45
940.0079	2097.3921	2645.05	1753.65
940.1441	2098.933	2618.95	1727.55
940.2802	2100.4731	2637.95	1743.85
940.4163	2102.0124	2658.25	1749.5
940.5524	2103.5511	2643.05	1749.4
940.6885	2105.089	2637.55	1743.7
940.8245	2106.6261	2627.7	1735.5
940.9606	2108.1626	2629.75	1738.45
941.0965	2109.6983	2647.4	1728.25
941.2325	2111.2332	2612	1719.15
941.3684	2112.7675	2606.2	1709.9
941.5044	2114.301	2605.05	1711.2
941.6403	2115.8337	2596.9	1704.1
941.7761	2117.3657	2593.75	1702.15
941.912	2118.897	2598.7	1705.55
942.0478	2120.4276	2591.7	1692
942.1835	2121.9575	2576.7	1683.6
942.3193	2123.4866	2570.4	1674.7
942.455	2125.0149	2568.95	1673.4
942.5907	2126.5426	2553.1	1664.3
942.7264	2128.0695	2555.25	1664.5
942.8621	2129.5956	2552.2	1669.85
942.9977	2131.1211	2548.75	1658.05
943.1333	2132.6458	2530.55	1639.45
943.2689	2134.1698	2542.4	1646.1
943.4044	2135.693	2545.65	1645.5
943.54	2137.2155	2539.35	1641.05
943.6755	2138.7373	2517.6	1624.2
943.8109	2140.2584	2509.2	1620.25
943.9464	2141.7787	2512.2	1622.5
944.0818	2143.2983	2509.9	1625.85
944.2172	2144.8171	2481.45	1596.55
944.3526	2146.3353	2496.45	1608.6
944.4879	2147.8527	2484.3	1595.4
944.6232	2149.3693	2500.55	1608.05
944.7585	2150.8853	2486.7	1589.95
944.8938	2152.4005	2483.7	1587.75
945.029	2153.9149	2476.6	1583.35
945.1642	2155.4287	2470.5	1576.95
945.2994	2156.9417	2475.55	1581.45
945.4346	2158.454	2470.4	1577.85
945.5697	2159.9655	2461.85	1575.4
945.7048	2161.4764	2466.2	1575.15
945.8399	2162.9865	2453	1563
945.9749	2164.4958	2450.35	1562.2
946.1099	2166.0045	2447.25	1556.65
946.2449	2167.5124	2427.6	1535.6
946.3799	2169.0195	2447.3	1555.5
946.5148	2170.526	2445.5	1551.1
946.6498	2172.0317	2429.55	1537.2
946.7846	2173.5367	2426	1533.7
946.9195	2175.0409	2422.75	1531
947.0543	2176.5445	2421.65	1529.5
947.1891	2178.0473	2415.3	1519.2
947.3239	2179.5494	2422.55	1526.35
947.4587	2181.0507	2408.35	1516.8
947.5934	2182.5513	2395.85	1503.8
947.7281	2184.0512	2401.6	1509.55
947.8628	2185.5504	2382.8	1489.25
947.9974	2187.0488	2385.9	1498.65
948.132	2188.5465	2368.25	1480.5
948.2666	2190.0435	2374.9	1484
948.4012	2191.5397	2373.35	1481.9
948.5357	2193.0353	2368.6	1472.75
948.6702	2194.5301	2360.35	1463.75
948.8047	2196.0241	2364.4	1465.7
948.9392	2197.5175	2360.2	1461.9
949.0736	2199.0101	2356.4	1454.55
949.208	2200.502	2343.15	1448.6
949.3424	2201.9931	2332.9	1443.05
949.4767	2203.4835	2334.65	1445.95
949.611	2204.9733	2343.2	1438.4
949.7453	2206.4622	2318.15	1432.4
949.8796	2207.9505	2323.95	1435.8
950.0138	2209.438	2297.65	1411.55
950.148	2210.9248	2296.95	1409
950.2822	2212.4109	2295.7	1403.65
950.4164	2213.8962	2293.45	1396.55
950.5505	2215.3809	2299.4	1398.45
950.6846	2216.8648	2299.35	1399.7
950.8186	2218.3479	2307.1	1402.55
950.9527	2219.8304	2293.35	1389.75
951.0867	2221.3121	2290.25	1390.95
951.2207	2222.7931	2285.3	1387.6
951.3546	2224.2733	2267.4	1371.05
951.4886	2225.7529	2268.65	1375.3
951.6225	2227.2317	2258.55	1365.45
951.7563	2228.7098	2242.95	1355.5
951.8902	2230.1872	2261.4	1371.3
952.024	2231.6638	2243.45	1353.9
952.1578	2233.1397	2240.75	1349.35
952.2916	2234.6149	2242.15	1351.9
952.4253	2236.0894	2236	1346.55
952.559	2237.5632	2244.2	1343.05
952.6927	2239.0362	2222.9	1329.4
952.8263	2240.5085	2228.9	1337.3
952.9599	2241.9801	2220.05	1327.4
953.0935	2243.4509	2223.2	1329.45
953.2271	2244.921	2216.05	1319.7
953.3606	2246.3904	2211.15	1311.7
953.4941	2247.8591	2198.45	1301.85
953.6276	2249.3271	2200.25	1305.15
953.7611	2250.7943	2199.6	1304.9
953.8945	2252.2608	2185.6	1290.1
954.0279	2253.7266	2191.3	1294.75
954.1612	2255.1917	2171.2	1278.9
954.2946	2256.656	2169.35	1276.65
954.4279	2258.1197	2162.8	1273.9
954.5612	2259.5826	2168.05	1274.25
954.6944	2261.0447	2158.4	1265.8
954.8276	2262.5062	2157.2	1259.15
954.9608	2263.9669	2161.95	1264.15
955.094	2265.4269	2152.7	1258.65
955.2271	2266.8862	2158.7	1264.65
955.3602	2268.3448	2148	1255.95
955.4933	2269.8026	2144.75	1253.95
955.6264	2271.2598	2129.7	1238.3
955.7594	2272.7162	2128.75	1238.9
955.8924	2274.1719	2137.85	1243.15
956.0253	2275.6268	2140.15	1244.8
956.1583	2277.0811	2130.85	1235.3
956.2912	2278.5346	2132.05	1238.9
956.4241	2279.9874	2135.2	1244.3
956.5569	2281.4395	2131.9	1241.9
956.6897	2282.8908	2120.45	1223.95
956.8225	2284.3414	2108.55	1215.05
956.9553	2285.7914	2116.5	1223.65
957.088	2287.2406	2113.85	1219.3
957.2207	2288.689	2109.3	1212.7
957.3534	2290.1368	2105.4	1206.45
957.486	2291.5838	2108.85	1207.05
957.6186	2293.0302	2106.05	1204.15
957.7512	2294.4758	2092.6	1195.15
957.8838	2295.9206	2091.4	1194.9
958.0163	2297.3648	2095.55	1203.1
958.1488	2298.8082	2098	1205.9
958.2813	2300.251	2082.2	1186.45
958.4137	2301.693	2073.55	1172.75
958.5461	2303.1343	2078.1	1182.65
958.6785	2304.5748	2082.1	1187.65
958.8108	2306.0147	2072.6	1180.2
958.9432	2307.4538	2060.5	1167.75
959.0754	2308.8922	2063.35	1175.05
959.2077	2310.3299	2054.4	1164.45
959.3399	2311.7669	2052.15	1160.95
959.4721	2313.2031	2060.4	1166.05
959.6043	2314.6387	2049.65	1156.35
959.7365	2316.0735	2039.35	1144.85
959.8686	2317.5076	2049.2	1156.75
960.0006	2318.941	2042.35	1146.05
960.1327	2320.3737	2046.45	1149.25
960.2647	2321.8056	2027.15	1128.05
960.3967	2323.2369	2035.95	1140.1
960.5287	2324.6674	2026.75	1131
960.6606	2326.0972	2019.65	1126.75
960.7925	2327.5263	2027.6	1134.55
960.9244	2328.9547	2011.15	1114.9
961.0562	2330.3823	2021.4	1124.6
961.1881	2331.8092	2019.5	1115.8
961.3198	2333.2355	2005.35	1107.35
961.4516	2334.661	2011.2	1115.7
961.5833	2336.0858	2003.8	1107.1
961.715	2337.5098	2003.05	1107.95
961.8467	2338.9332	1997.65	1100.9
961.9783	2340.3558	1999.55	1104.4
962.1099	2341.7778	1994.9	1101.6
962.2415	2343.199	1990.65	1096.4
962.373	2344.6195	1990.85	1099.25
962.5045	2346.0393	1986.1	1093.8
962.636	2347.4583	1974.85	1081.4
962.7675	2348.8767	1975.9	1077.5
962.8989	2350.2943	1982.75	1084.75
963.0303	2351.7113	1987.85	1086.7
963.1617	2353.1275	1970.7	1069.45
963.293	2354.543	1983.65	1077.5
963.4243	2355.9578	1987.9	1091.2
963.5556	2357.3718	1966.75	1074.85
963.6868	2358.7852	1967.6	1072.15
963.818	2360.1978	1957	1064.25
963.9492	2361.6098	1949.05	1056.2
964.0803	2363.021	1955	1054.25
964.2114	2364.4315	1944.65	1047.85
964.3425	2365.8413	1946.5	1052.15
964.4736	2367.2504	1936.1	1044.5
964.6046	2368.6587	1939.1	1047.55
964.7356	2370.0664	1929.9	1037.3
964.8666	2371.4733	1940.35	1047.9
964.9975	2372.8795	1941.35	1048.75
965.1284	2374.285	1931.25	1034
965.2593	2375.6899	1923.6	1031.3
965.3901	2377.0939	1912.2	1018.15
965.5209	2378.4973	1911.7	1016.5
965.6517	2379.9	1908.4	1012.9
965.7825	2381.3019	1909.95	1018.15
965.9132	2382.7032	1900.45	1010.3
966.0439	2384.1037	1902.75	1012.45
966.1745	2385.5035	1894.55	1003.25
966.3051	2386.9027	1879.9	991.8
966.4357	2388.3011	1889.25	994.8
966.5663	2389.6987	1883.15	990.75
966.6968	2391.0957	1882.25	988.25
966.8273	2392.492	1885.3	993.75
966.9578	2393.8876	1864.85	972.85
967.0882	2395.2824	1881.9	989.75
967.2186	2396.6765	1876.9	986.8
967.349	2398.07	1871.35	974.75
967.4793	2399.4627	1872.65	975.25
967.6097	2400.8547	1858.55	961.85
967.7399	2402.246	1866.25	964.6
967.8702	2403.6366	1845.8	951.45
968.0004	2405.0265	1854.55	962.1
968.1306	2406.4156	1850.45	953.6
968.2607	2407.8041	1850.9	954.55
968.3909	2409.1918	1848.75	951.6
968.521	2410.5789	1846.75	951.05
968.651	2411.9652	1833.9	937.05
968.781	2413.3508	1841.65	945.55
968.911	2414.7358	1837.55	941.2
969.041	2416.12	1835.9	940
969.1709	2417.5035	1820.35	927.1
969.3008	2418.8863	1826.65	930.3
969.4307	2420.2684	1819.95	925.7
969.5606	2421.6497	1823.9	927.15
969.6904	2423.0304	1808.95	914
969.8201	2424.4104	1813.85	921.3
969.9499	2425.7896	1814.1	914.3
970.0796	2427.1682	1805.15	911.75
970.2093	2428.546	1811.95	916.95
970.3389	2429.9232	1803.3	906.3
970.4685	2431.2996	1802.75	907.6
970.5981	2432.6753	1799.75	905.1
970.7277	2434.0503	1794.55	899.65
970.8572	2435.4246	1797.45	902.2
970.9867	2436.7982	1790.55	891
971.1161	2438.1711	1786.45	892.3
971.2456	2439.5433	1787.05	889.7
971.375	2440.9148	1787.25	883.9
971.5043	2442.2856	1776.55	882.35
971.6336	2443.6557	1776.2	883.15
971.7629	2445.025	1770.8	876.7
971.8922	2446.3937	1771.3	877.2
972.0214	2447.7617	1764.55	867.75
972.1506	2449.1289	1766.85	873.4
972.2798	2450.4955	1759.9	861.25
972.4089	2451.8613	1758.15	864.9
972.538	2453.2265	1751.1	856.25
972.6671	2454.5909	1753.9	859.15
972.7961	2455.9546	1750.15	856.75
972.9251	2457.3177	1742.8	850.1
973.0541	2458.68	1747.2	852.05
973.1831	2460.0416	1746.15	851.75
973.312	2461.4025	1751.4	857.2
973.4408	2462.7627	1747.4	843.15
973.5697	2464.1222	1741.9	851.85
973.6985	2465.4811	1727.6	832.3
973.8273	2466.8392	1730.05	837.55
973.956	2468.1966	1733.75	838.85
974.0847	2469.5533	1735.1	839.05
974.2134	2470.9093	1737.55	842.6
974.3421	2472.2645	1739.7	845.9
974.4707	2473.6191	1740.4	848.65
974.5993	2474.973	1721.25	827.15
974.7278	2476.3262	1727.85	833.25
974.8563	2477.6787	1728.45	834.1
974.9848	2479.0305	1719.6	828.35
975.1132	2480.3816	1721	824.35
975.2417	2481.7319	1711.55	817.2
975.37	2483.0816	1710.7	815.35
975.4984	2484.4306	1719.05	824.6
975.6267	2485.7789	1705.85	814.25
975.755	2487.1264	1711.2	818.25
975.8833	2488.4733	1698.15	805.95
976.0115	2489.8195	1705.85	805.05
976.1397	2491.165	1702.7	804.9
976.2678	2492.5097	1709.75	815
976.3959	2493.8538	1683.2	791.75
976.524	2495.1972	1685	793.6
976.6521	2496.5398	1688.2	792.35
976.7801	2497.8818	1683.6	787.95
976.9081	2499.2231	1685	786.65
977.036	2500.5637	1678.1	782.7
977.164	2501.9035	1678.7	781.45
977.2918	2503.2427	1674.05	776
977.4197	2504.5812	1676.4	780.75
977.5475	2505.919	1672.1	775.6
977.6753	2507.256	1665	770.4
977.8031	2508.5924	1662.9	769.05
977.9308	2509.9281	1672.7	772.35
978.0585	2511.2631	1653.95	758.75
978.1861	2512.5974	1650.55	756.6
978.3137	2513.9309	1657.5	765.25
978.4413	2515.2638	1683.2	763.65
978.5689	2516.596	1657.95	764.85
978.6964	2517.9275	1653.65	757.9
978.8239	2519.2583	1648.95	754.3
978.9513	2520.5884	1645.25	748.85
979.0788	2521.9178	1643.05	749.4
979.2062	2523.2465	1638.85	747
979.3335	2524.5745	1641.05	746.75
979.4608	2525.9018	1634.1	740.15
979.5881	2527.2284	1628.55	735.7
979.7154	2528.5543	1628.45	736.9
979.8426	2529.8796	1627.65	733.2
979.9698	2531.2041	1628.8	735.4
980.0969	2532.5279	1626.3	732.65
980.224	2533.851	1635.3	741.6
980.3511	2535.1735	1626.3	733.05
980.4781	2536.4952	1623.6	730.25
980.6052	2537.8163	1630.45	734.2
980.7321	2539.1366	1630.2	735.65
980.8591	2540.4562	1626.9	731.15
980.986	2541.7752	1622.35	725.8
981.1129	2543.0935	1620.85	725.65
981.2397	2544.411	1620.75	725.9
981.3665	2545.7279	1622.3	727
981.4933	2547.0441	1621	727.6
981.62	2548.3596	1625.4	725.7
981.7467	2549.6744	1615.6	723.1
981.8734	2550.9885	1621.7	719.75
982.0001	2552.3019	1612.4	716.9
982.1267	2553.6146	1615.3	721.1
982.2532	2554.9266	1608.7	715.15
982.3798	2556.2379	1605.65	710.7
982.5063	2557.5485	1601.05	707.95
982.6327	2558.8585	1604.6	702.65
982.7592	2560.1677	1601.35	703.2
982.8856	2561.4762	1599	704.55
983.0119	2562.7841	1600.4	704.2
983.1383	2564.0913	1597	705.45
983.2646	2565.3977	1596.8	702.3
983.3908	2566.7035	1593.05	698.35
983.517	2568.0086	1600.6	706.75
983.6432	2569.313	1600.9	702.8
983.7694	2570.6167	1599.45	701.8
983.8955	2571.9197	1594.55	700.45
984.0216	2573.222	1594.35	696.7
984.1476	2574.5236	1591.25	698.65
984.2737	2575.8246	1593.6	697.3
984.3996	2577.1248	1590.65	692.75
984.5256	2578.4244	1587.8	693.45
984.6515	2579.7232	1594	700.6
984.7774	2581.0214	1618.6	699.75
984.9032	2582.3189	1588.8	694.7
985.029	2583.6157	1593.55	693.65
985.1548	2584.9118	1584.2	688.05
985.2806	2586.2072	1585.25	692.6
985.4063	2587.5019	1585.8	692.6
985.5319	2588.7959	1580.5	686.9
985.6576	2590.0893	1589.75	692.8
985.7832	2591.3819	1585.4	692.95
985.9087	2592.6739	1577.4	683.6
986.0343	2593.9652	1575.4	680.35
986.1597	2595.2557	1584.5	692.05
986.2852	2596.5456	1581.6	686.45
986.4106	2597.8348	1575.1	681.65
986.536	2599.1234	1575.1	684.4
986.6614	2600.4112	1579.75	689.3
986.7867	2601.6983	1578.35	684.25
986.912	2602.9848	1573.65	681.65
987.0372	2604.2705	1581.7	682.6
987.1624	2605.5556	1578.35	686.15
987.2876	2606.84	1569.6	678.55
987.4128	2608.1237	1570.7	676.7
987.5379	2609.4067	1564.35	673.25
987.6629	2610.689	1574.05	675.3
987.788	2611.9707	1574.7	676.65
987.913	2613.2516	1557.15	662.45
988.0379	2614.5319	1553.2	661.45
988.1629	2615.8115	1546.9	655.2
988.2878	2617.0903	1555.45	664
988.4126	2618.3685	1553.25	658.6
988.5375	2619.6461	1545.45	653.55
988.6622	2620.9229	1540.2	648.9
988.787	2622.199	1544.25	652.15
988.9117	2623.4745	1545.7	655.55
989.0364	2624.7493	1538.75	648.65
989.161	2626.0234	1532.45	643
989.2857	2627.2968	1532.75	644.4
989.4102	2628.5695	1531.1	637.3
989.5348	2629.8415	1532.4	643.85
989.6593	2631.1128	1533.4	639.6
989.7837	2632.3835	1524.8	635.75
989.9082	2633.6535	1528.65	638.55
990.0326	2634.9228	1522.65	631.6
990.1569	2636.1914	1525.1	635.2
990.2812	2637.4593	1521.15	627.8
990.4055	2638.7265	1522.95	628.95
990.5298	2639.9931	1519.1	627.2
990.654	2641.259	1521.85	630.1
990.7782	2642.5242	1511.85	620.85
990.9023	2643.7887	1513.9	622.3
991.0264	2645.0525	1511.9	620.45
991.1505	2646.3156	1507.3	615.05
991.2745	2647.5781	1505.45	614.05
991.3985	2648.8398	1509.6	619.65
991.5225	2650.1009	1540.5	612.8
991.6464	2651.3613	1504.65	615.7
991.7703	2652.6211	1498.65	610.8
991.8942	2653.8801	1493.75	603.7
992.018	2655.1385	1499.85	605
992.1418	2656.3961	1500.9	610.45
992.2655	2657.6531	1496.55	605.05
992.3892	2658.9094	1502.9	611.4
992.5129	2660.1651	1499.7	609.9
992.6366	2661.42	1502.1	613.5
992.7602	2662.6743	1502.5	610.95
992.8837	2663.9279	1504.35	614.25
993.0073	2665.1808	1504.1	614.45
993.1307	2666.433	1505.95	615.3
993.2542	2667.6846	1506.3	615.25
993.3776	2668.9354	1509.6	616.5
993.501	2670.1856	1509.95	615.75
993.6244	2671.4351	1498.35	608.9
993.7477	2672.6839	1516.35	624.55
993.8709	2673.9321	1515.55	627.05
993.9942	2675.1795	1520.5	629.8
994.1174	2676.4263	1513.1	622.25
994.2405	2677.6724	1514.4	624.65
994.3637	2678.9179	1514.55	624.05
994.4868	2680.1626	1518.85	629.6
994.6098	2681.4067	1518.85	627.8
994.7328	2682.6501	1512	622.85
994.8558	2683.8928	1507.15	618.7
994.9788	2685.1348	1507.75	619.15
995.1017	2686.3761	1496.9	608.4
995.2245	2687.6168	1496.65	607.35
995.3474	2688.8568	1487.55	596.35
995.4702	2690.0961	1483.35	595.75
995.5929	2691.3348	1478.4	588.4
995.7156	2692.5727	1485.75	594
995.8383	2693.81	1487.75	599.3
995.961	2695.0466	1478.7	590
996.0836	2696.2826	1493.85	603
996.2062	2697.5178	1496.2	586.3
996.3287	2698.7524	1477.15	585.35
996.4512	2699.9863	1498.2	606.15
996.5737	2701.2195	1481	592
996.6961	2702.452	1475.1	582.2
996.8185	2703.6839	1491.4	599.95
996.9408	2704.9151	1497.35	607.5
997.0631	2706.1456	1507.7	618.95
997.1854	2707.3755	1500	607.75
997.3077	2708.6046	1513.8	621.5
997.4299	2709.8331	1509.6	620
997.552	2711.0609	1514.65	626.25
997.6742	2712.2881	1529.85	641.35
997.7963	2713.5145	1542.1	649.65
997.9183	2714.7403	1540.75	651.2
998.0403	2715.9654	1551.7	663.2
998.1623	2717.1899	1578.55	674.2
998.2842	2718.4136	1565.7	675.2
998.4062	2719.6367	1580.2	690.6
998.528	2720.8591	1597.25	702.2
998.6498	2722.0809	1598.2	707.7
998.7716	2723.3019	1609.1	717.25
998.8934	2724.5223	1615.35	724.4
999.0151	2725.7421	1631.2	740.9
999.1368	2726.9611	1621.75	730.65
999.2584	2728.1795	1629.2	735.05
999.38	2729.3972	1613.85	725.9
999.5016	2730.6142	1614.05	711.55
999.6231	2731.8306	1579.75	691.1
999.7446	2733.0462	1582.15	691.75
999.8661	2734.2612	1565.1	671.65
999.9875	2735.4756	1547.8	657.4
1000.1089	2736.6892	1535.15	646.75
1000.2302	2737.9022	1514.95	627.95
1000.3515	2739.1145	1503	614.05
1000.4728	2740.3262	1496.25	599.2
1000.594	2741.5372	1484.25	595.1
1000.7152	2742.7475	1476.9	589.15
1000.8363	2743.9571	1467.1	574.5
1000.9575	2745.1661	1465.55	573.9
1001.0785	2746.3744	1449.15	559.35
1001.1996	2747.582	1438.85	552.2
1001.3206	2748.7889	1437.5	545.6
1001.4415	2749.9952	1424	533.2
1001.5625	2751.2008	1425.45	534.1
1001.6833	2752.4057	1422.8	531.95
1001.8042	2753.61	1411.95	522.75
1001.925	2754.8136	1411.65	520.1
1002.0458	2756.0165	1410.8	524
1002.1665	2757.2188	1406.25	518.5
1002.2872	2758.4204	1408.2	520.15
1002.4078	2759.6213	1407.65	515.65
1002.5285	2760.8215	1413.25	518.15
1002.649	2762.0211	1412.9	522.25
1002.7696	2763.22	1396.6	505.1
1002.8901	2764.4182	1410.85	521.35
1003.0106	2765.6158	1407.4	520.35
1003.131	2766.8127	1395.5	508.7
1003.2514	2768.009	1391.75	504.35
1003.3717	2769.2045	1386.6	499.2
1003.492	2770.3994	1393.35	501.4
1003.6123	2771.5936	1384.35	493.75
1003.7325	2772.7872	1381.65	494.45
1003.8527	2773.9801	1377.95	490.4
1003.9729	2775.1723	1388.55	483.3
1004.093	2776.3639	1370.65	484.15
1004.2131	2777.5548	1377.95	487.05
1004.3331	2778.745	1377	489.55
1004.4531	2779.9346	1376.65	489.75
1004.5731	2781.1235	1376.35	489.75
1004.693	2782.3117	1372.65	485.35
1004.8129	2783.4992	1374.95	489.95
1004.9328	2784.6861	1382.2	493.4
1005.0526	2785.8723	1386.05	498.7
1005.1723	2787.0579	1382.45	497.1
1005.2921	2788.2428	1391.35	503.05
1005.4118	2789.427	1392.85	505.45
1005.5314	2790.6106	1394.45	507.3
1005.651	2791.7935	1402.85	514.2
1005.7706	2792.9757	1411.6	523.55
1005.8902	2794.1573	1407.5	519.2
1006.0097	2795.3382	1415.7	530.45
1006.1291	2796.5184	1429.65	544.4
1006.2485	2797.698	1439.3	550.5
1006.3679	2798.8769	1442.85	555.55
1006.4873	2800.0551	1459.35	571.6
1006.6066	2801.2327	1466.65	576.1
1006.7258	2802.4096	1475.4	590
1006.8451	2803.5859	1488.95	601.7
1006.9642	2804.7615	1511.95	625.8
1007.0834	2805.9364	1524	638.1
1007.2025	2807.1106	1548.1	661.3
1007.3216	2808.2842	1567.15	681.55
1007.4406	2809.4572	1593.2	706
1007.5596	2810.6294	1614.8	727
1007.6785	2811.801	1645.6	761.85
1007.7975	2812.972	1680.65	795.85
1007.9163	2814.1423	1707.35	820.4
1008.0352	2815.3119	1740.75	854.75
1008.154	2816.4808	1794.6	907.9
1008.2727	2817.6491	1843.15	955.15
1008.3914	2818.8167	1889.9	1006.05
1008.5101	2819.9837	1945.55	1054.9
1008.6288	2821.15	1996.3	1108.35
1008.7474	2822.3157	2047.5	1164.5
1008.8659	2823.4807	2110.95	1222.75
1008.9844	2824.645	2162	1275.65
1009.1029	2825.8086	2212.65	1326.8
1009.2214	2826.9716	2278.7	1393.5
1009.3398	2828.134	2328.8	1444.8
1009.4581	2829.2957	2369.45	1484.2
1009.5764	2830.4567	2407.6	1521.75
1009.6947	2831.617	2427	1538.05
1009.813	2832.7767	2453.6	1568.9
1009.9312	2833.9358	2431.9	1546.75
1010.0493	2835.0941	2421.95	1536.5
1010.1675	2836.2519	2424.8	1539
1010.2855	2837.4089	2400.25	1513.5
1010.4036	2838.5653	2374.25	1492.6
1010.5216	2839.7211	2375.1	1489.35
1010.6396	2840.8761	2364.7	1477.7
1010.7575	2842.0306	2373.25	1489.95
1010.8754	2843.1843	2388.4	1502.4
1010.9932	2844.3374	2404.95	1518.85
1011.111	2845.4899	2457.5	1570.65
1011.2288	2846.6417	2495.65	1610.2
1011.3465	2847.7928	2552.5	1668.75
1011.4642	2848.9433	2613.8	1731.5
1011.5818	2850.0931	2677.1	1791.85
1011.6995	2851.2422	2718.2	1831.5
1011.817	2852.3907	2771.6	1885.95
1011.9345	2853.5385	2835.45	1949.2
1012.052	2854.6857	2884.8	1973.1
1012.1695	2855.8323	2915.45	2027.95
1012.2869	2856.9781	2965.2	2081.65
1012.4042	2858.1233	3012.6	2126.5
1012.5216	2859.2679	3061.85	2175.7
1012.6389	2860.4118	3104.3	2219
1012.7561	2861.555	3146.95	2257.15
1012.8733	2862.6976	3187.35	2300.9
1012.9905	2863.8395	3237.45	2351.65
1013.1076	2864.9808	3236.85	2353.7
1013.2247	2866.1214	3278.7	2395.55
1013.3417	2867.2614	3290.15	2405.55
1013.4587	2868.4007	3307.05	2419.35
1013.5757	2869.5393	3326.55	2439.35
1013.6926	2870.6773	3341.35	2451.6
1013.8095	2871.8146	3350.65	2459.9
1013.9263	2872.9513	3348.2	2459.2
1014.0431	2874.0874	3328.95	2442.9
1014.1599	2875.2227	3329.1	2443
1014.2766	2876.3574	3309.2	2425.45
1014.3933	2877.4915	3287.95	2405.15
1014.51	2878.6249	3251.9	2368
1014.6266	2879.7577	3223.9	2338.15
1014.7431	2880.8898	3224.9	2326.05
1014.8596	2882.0212	3200.4	2315.5
1014.9761	2883.152	3186.8	2302.3
1015.0925	2884.2821	3178.1	2292.5
1015.2089	2885.4116	3164.65	2283.1
1015.3253	2886.5405	3182.15	2299.75
1015.4416	2887.6686	3181.1	2294.7
1015.5579	2888.7962	3184.45	2301.65
1015.6741	2889.923	3186.3	2303.55
1015.7903	2891.0493	3207.05	2324.15
1015.9065	2892.1748	3224	2337.8
1016.0226	2893.2997	3225.95	2341.5
1016.1387	2894.424	3245.35	2363.65
1016.2547	2895.5476	3240	2354.95
1016.3707	2896.6706	3265.65	2382.9
1016.4866	2897.7929	3292.65	2405.45
1016.6025	2898.9145	3313.1	2429.3
1016.7184	2900.0355	3339.65	2454.5
1016.8342	2901.1559	3370.6	2483.9
1016.95	2902.2756	3397.85	2509.6
1017.0658	2903.3946	3404.7	2522.15
1017.1815	2904.513	3444.2	2558.05
1017.2971	2905.6308	3462.8	2579.7
1017.4127	2906.7479	3488.35	2601.65
1017.5283	2907.8643	3520.4	2637.4
1017.6439	2908.9801	3527.2	2644.15
1017.7594	2910.0953	3534	2650.4
1017.8748	2911.2098	3541.85	2654.2
1017.9902	2912.3236	3533.8	2643.2
1018.1056	2913.4368	3511.3	2624.4
1018.2209	2914.5494	3495.15	2609.7
1018.3362	2915.6613	3481.75	2592.3
1018.4515	2916.7725	3446.45	2561.35
1018.5667	2917.8831	3422	2534.15
1018.6819	2918.9931	3369.9	2485.95
1018.797	2920.1024	3350.55	2465.95
1018.9121	2921.211	3338.35	2455.45
1019.0271	2922.319	3323.45	2439.05
1019.1421	2923.4264	3290.7	2408.3
1019.2571	2924.5331	3294.65	2411.95
1019.372	2925.6391	3289.2	2407.75
1019.4869	2926.7445	3292.5	2410.75
1019.6017	2927.8493	3289.9	2404.7
1019.7165	2928.9534	3308.9	2423.35
1019.8313	2930.0569	3316	2430.3
1019.946	2931.1597	3307.6	2424.45
1020.0606	2932.2619	3317.7	2434.25
1020.1753	2933.3634	3324.9	2441.85
1020.2899	2934.4643	3334.1	2442.3
1020.4044	2935.5645	3310.5	2419.85
1020.5189	2936.6641	3309.75	2423.3
1020.6334	2937.763	3277.25	2393.95
1020.7478	2938.8613	3241.7	2359.35
1020.8622	2939.959	3211.7	2323.75
1020.9765	2941.056	3143.45	2259.35
1021.0908	2942.1523	3076.6	2193.15
1021.2051	2943.248	3015.65	2132.05
1021.3193	2944.3431	2918.25	2036.2
1021.4334	2945.4375	2844.35	1958.8
1021.5476	2946.5313	2749.8	1867.95
1021.6617	2947.6244	2654.45	1772.05
1021.7757	2948.7169	2570.55	1686.55
1021.8897	2949.8087	2492.25	1608.7
1022.0037	2950.8999	2375.1	1490.05
1022.1176	2951.9904	2319.35	1436.65
1022.2315	2953.0803	2256.6	1373.9
1022.3453	2954.1696	2202.1	1319.3
1022.4591	2955.2582	2144.55	1265
1022.5728	2956.3462	2099.25	1216.5
1022.6865	2957.4335	2070.15	1186.15
1022.8002	2958.5202	2043.45	1159.55
1022.9138	2959.6062	2010.1	1126.8
1023.0274	2960.6916	1988.9	1106.15
1023.141	2961.7764	1977.25	1092.35
1023.2545	2962.8605	1960.7	1077.35
1023.3679	2963.9439	1943.65	1060.45
1023.4813	2965.0267	1931.8	1049.25
1023.5947	2966.1089	1950.25	1046.9
1023.708	2967.1905	1921.55	1039.6
1023.8213	2968.2714	1913.1	1030.7
1023.9346	2969.3516	1915.6	1032.95
1024.0478	2970.4312	1929.7	1037.45
1024.1609	2971.5102	1913.4	1030.55
1024.274	2972.5885	1921.05	1040.75
1024.3871	2973.6662	1938.05	1051.7
1024.5002	2974.7432	1932.9	1052.55
1024.6132	2975.8196	1927.85	1044.5
1024.7261	2976.8954	1924.95	1043.85
1024.839	2977.9705	1917.75	1034.25
1024.9519	2979.045	1899.1	1017.4
1025.0647	2980.1188	1899.45	1017.15
1025.1775	2981.192	1866.25	986.25
1025.2902	2982.2645	1854.9	971.75
1025.4029	2983.3364	1838.7	956.2
1025.5156	2984.4077	1820.25	937.8
1025.6282	2985.4783	1793.05	904.55
1025.7407	2986.5483	1762.15	879.8
1025.8532	2987.6177	1730.8	849.2
1025.9657	2988.6864	1706.95	825.7
1026.0782	2989.7545	1672.1	786.95
1026.1906	2990.8219	1637.05	754.7
1026.3029	2991.8887	1611.65	728.4
1026.4152	2992.9548	1582.55	698.95
1026.5275	2994.0204	1553.35	672
1026.6397	2995.0852	1527.55	644.8
1026.7519	2996.1495	1505.95	618.95
1026.864	2997.2131	1479.7	597.6
1026.9761	2998.276	1458.1	573.5
1027.0882	2999.3383	1433.35	550.4
1027.2002	3000.4	1414.95	533.05
1027.3122	3001.4611	1393.85	511.2
1027.4241	3002.5215	1383	502.6
1027.536	3003.5812	1368.4	488.1
1027.6478	3004.6404	1352.15	470.7
1027.7596	3005.6989	1341.85	457
1027.8714	3006.7567	1322.95	441.15
1027.9831	3007.8139	1345.4	432.5
1028.0947	3008.8705	1305.9	425
1028.2064	3009.9264	1305.8	418.5
1028.3179	3010.9818	1299.55	414.85
1028.4295	3012.0364	1293.3	410.15
1028.541	3013.0905	1286.9	403.9
1028.6524	3014.1439	1268.45	386.1
1028.7638	3015.1966	1275.4	394.85
1028.8752	3016.2487	1267.15	384.2
1028.9865	3017.3002	1266.15	379.65
1029.0978	3018.3511	1257.4	378.4
1029.209	3019.4013	1257.55	375.2
1029.3202	3020.4509	1252.25	372.45
1029.4314	3021.4998	1250.55	365.35
1029.5425	3022.5481	1247.15	366.5
1029.6535	3023.5958	1249	369.7
1029.7645	3024.6428	1242.8	359.6
1029.8755	3025.6892	1244.5	364.65
1029.9864	3026.735	1246.2	365.7
1030.0973	3027.7802	1242.8	360.8
1030.2082	3028.8247	1245.45	364.5
1030.319	3029.8685	1244.1	361.5
1030.4297	3030.9118	1243.6	362.5
1030.5404	3031.9544	1246.2	366.45
1030.6511	3032.9963	1242.4	361.6
1030.7617	3034.0376	1249.2	367.25
1030.8723	3035.0783	1256.7	373.1
1030.9829	3036.1184	1249.75	367.05
1031.0934	3037.1578	1256.75	376.45
1031.2038	3038.1966	1261.95	379.05
1031.3142	3039.2348	1254.05	374.25
1031.4246	3040.2723	1256.85	367.2
1031.5349	3041.3092	1252.7	372.7
1031.6452	3042.3455	1255	374.1
1031.7554	3043.3811	1256.8	374
1031.8656	3044.4161	1258.25	376.85
1031.9758	3045.4505	1249	370.75
1032.0859	3046.4842	1252.6	370.9
1032.1959	3047.5173	1246.25	364.65
1032.3059	3048.5498	1243.2	362.7
1032.4159	3049.5816	1242.6	362.7
1032.5258	3050.6128	1245.65	360.25
1032.6357	3051.6434	1243.25	361.9
1032.7455	3052.6734	1237.55	352.35
1032.8553	3053.7027	1233.25	354.7
1032.9651	3054.7314	1230.7	349.05
1033.0748	3055.7594	1230.45	350.8
1033.1845	3056.7868	1225.55	343.1
1033.2941	3057.8136	1224.95	343.95
1033.4037	3058.8398	1228.25	346.05
1033.5132	3059.8653	1223.45	344.2
1033.6227	3060.8902	1218.25	337.95
1033.7321	3061.9145	1220.55	341.15
1033.8415	3062.9381	1218.55	339.25
1033.9509	3063.9612	1231.3	332.7
1034.0602	3064.9835	1209.65	327
1034.1694	3066.0053	1210.95	330.9
1034.2787	3067.0264	1203.6	321.6
1034.3878	3068.0469	1205.1	323.65
1034.497	3069.0668	1199.95	317.35
1034.6061	3070.086	1196.15	317
1034.7151	3071.1046	1187.9	308.2
1034.8241	3072.1226	1182.55	298.85
1034.9331	3073.1399	1179.2	299.7
1035.042	3074.1567	1166.45	285.6
1035.1508	3075.1727	1163.5	281.35
1035.2597	3076.1882	1160.75	279.95
1035.3684	3077.203	1154.65	272.75
1035.4772	3078.2173	1151.4	269.5
1035.5859	3079.2308	1146.9	262.1
1035.6945	3080.2438	1134.85	249.75
1035.8031	3081.2561	1130.85	249.85
1035.9117	3082.2678	1125.15	245.05
1036.0202	3083.2789	1125.55	247.9
1036.1286	3084.2893	1114.95	235.45
1036.2371	3085.2991	1111.5	229.9
1036.3454	3086.3083	1109.35	224.85
1036.4538	3087.3169	1104.6	224.6
1036.562	3088.3248	1099.95	215.8
1036.6703	3089.3321	1095.55	212.35
1036.7785	3090.3388	1089.8	211.55
1036.8866	3091.3449	1085.35	204.65
1036.9948	3092.3503	1085.55	201.7
1037.1028	3093.3551	1082.1	202.85
1037.2108	3094.3593	1076.9	197.3
1037.3188	3095.3629	1075.35	195.45
1037.4267	3096.3658	1073.75	192.35
1037.5346	3097.3681	1069.35	189.8
1037.6425	3098.3698	1068.2	186.65
1037.7503	3099.3708	1068.55	183.05
1037.858	3100.3713	1059.6	180.5
1037.9657	3101.3711	1057.65	178.1
1038.0734	3102.3702	1170.45	174.45
1038.181	3103.3688	1058.65	176.65
1038.2886	3104.3667	1049.65	169.75
1038.3961	3105.364	1046.45	165.85
1038.5036	3106.3607	1047.15	164.15
1038.611	3107.3568	1044.35	160.6
1038.7184	3108.3522	1040.55	162.95
1038.8257	3109.347	1043.6	159.75
1038.933	3110.3412	1043.5	160.95
1039.0403	3111.3348	1038.35	158.95
1039.1475	3112.3277	1031.6	151.4
1039.2547	3113.32	1033.5	154.55
1039.3618	3114.3117	1029.5	147.9
1039.4689	3115.3028	1028.1	147.5
1039.5759	3116.2932	1031.35	150.4
1039.6829	3117.2831	1034.4	147.35
1039.7898	3118.2723	1027.8	149.2
1039.8967	3119.2608	1025.9	145.25
1040.0035	3120.2488	1021.35	142.2
1040.1103	3121.2361	1021.65	142.7
1040.2171	3122.2229	1018.45	137.95
1040.3238	3123.209	1016.5	137.5
1040.4305	3124.1944	1017.55	138.05
1040.5371	3125.1793	1013.65	132.55
1040.6437	3126.1635	1015.4	137.1
1040.7502	3127.1471	1013.6	134
1040.8567	3128.1301	1010.55	130.75
1040.9631	3129.1125	1010.8	130.4
1041.0695	3130.0942	1005.35	126.8
1041.1759	3131.0753	1012.4	123.95
1041.2822	3132.0558	1005	122.85
1041.3884	3133.0357	1009.4	129.45
1041.4946	3134.015	1008.1	126.65
1041.6008	3134.9936	1005.3	121.15
1041.7069	3135.9716	1019.15	119
1041.813	3136.949	1002.4	123.6
1041.919	3137.9258	1018.75	120.85
1042.025	3138.902	1007.3	123
1042.1309	3139.8775	994.45	115
1042.2368	3140.8524	999.85	120.15
1042.3427	3141.8267	998.75	118.25
1042.4485	3142.8004	1002.05	119.9
1042.5542	3143.7735	1003.25	115.05
1042.6599	3144.7459	994.7	112.5
1042.7656	3145.7178	993.05	111.45
1042.8712	3146.689	989.75	112.75
1042.9768	3147.6596	990.05	108.3
1043.0823	3148.6295	992.7	112.8
1043.1878	3149.5989	988.25	108.4
1043.2932	3150.5676	984.95	106.05
1043.3986	3151.5357	986.85	107.8
1043.5039	3152.5032	984.15	106
1043.6092	3153.4701	984.6	105.3
1043.7145	3154.4364	990.1	107.75
1043.8197	3155.402	983.3	105.55
1043.9248	3156.367	991.55	110.3
1044.03	3157.3315	1020.5	105.85
1044.135	3158.2952	983.05	103.75
1044.24	3159.2584	979.75	100.2
1044.345	3160.221	980.55	101.2
1044.4499	3161.1829	979.15	99.75
1044.5548	3162.1442	977.35	98.7
1044.6596	3163.105	978.65	99.2
1044.7644	3164.065	978.2	97.25
1044.8692	3165.0245	977.25	96.75
1044.9739	3165.9834	975.5	96.75
1045.0785	3166.9416	977.3	98.85
1045.1831	3167.8993	973.15	92.55
1045.2877	3168.8563	974.45	94.45
1045.3922	3169.8127	975.7	96.1
1045.4966	3170.7684	974.9	95.75
1045.6011	3171.7236	975.8	95.15
1045.7054	3172.6782	971.2	91.05
1045.8098	3173.6321	974.35	93.6
1045.914	3174.5854	974.65	92.6
1046.0183	3175.5381	969.3	91.2
1046.1224	3176.4902	968	89
1046.2266	3177.4417	968.65	90.15
1046.3307	3178.3926	966.3	86.8
1046.4347	3179.3428	967.65	89.85
1046.5387	3180.2924	968.15	89.45
1046.6427	3181.2415	968.75	88.35
1046.7466	3182.1899	966.7	85.2
1046.8504	3183.1377	966.35	86.5
1046.9542	3184.0848	964.95	83.8
1047.058	3185.0314	964.25	86.8
1047.1617	3185.9773	963.6	82.85
1047.2654	3186.9227	964.75	84.8
1047.369	3187.8674	963.45	86.45
1047.4726	3188.8115	965.1	80.75
1047.5761	3189.755	964.45	86.25
1047.6796	3190.6979	961.45	85
1047.783	3191.6402	961.7	84.4
1047.8864	3192.5818	958.7	80.35
1047.9898	3193.5229	967.3	81.85
1048.0931	3194.4633	959.3	81.05
1048.1963	3195.4031	959.1	79.15
1048.2995	3196.3423	957.7	76.65
1048.4027	3197.2809	956.3	77
1048.5058	3198.2189	955.95	76.75
1048.6089	3199.1563	974.65	77.6
1048.7119	3200.0931	956.15	78.2
1048.8148	3201.0292	955.75	75.8
1048.9178	3201.9648	955.25	77.4
1049.0206	3202.8997	956.8	75.2
1049.1235	3203.834	956.2	77.65
1049.2262	3204.7677	957.4	77.05
1049.329	3205.7008	954.7	73
1049.4317	3206.6333	951.8	74.95
1049.5343	3207.5652	954.45	71.4
1049.6369	3208.4964	951.9	71.85
1049.7394	3209.4271	950.95	72.5
1049.8419	3210.3571	950.9	72.2
1049.9444	3211.2865	949.45	70.7
1050.0468	3212.2154	953.55	73.05
1050.1491	3213.1436	951.75	71.1
1050.2514	3214.0712	954.75	70.45
1050.3537	3214.9982	948.75	69.9
1050.4559	3215.9246	952.9	70.95
1050.5581	3216.8503	947	68.8
1050.6602	3217.7755	947.3	68.4
1050.7623	3218.7001	949.55	73.5
1050.8643	3219.624	947.2	67.9
1050.9663	3220.5473	947.45	68.95
1051.0682	3221.4701	947.55	68.2
1051.1701	3222.3922	948.65	68.5
1051.2719	3223.3137	947.4	67
1051.3737	3224.2346	944.95	63.55
1051.4754	3225.1549	943.65	62.75
1051.5771	3226.0746	945.3	66.55
1051.6788	3226.9937	943.9	65.85
1051.7804	3227.9121	942.2	65.3
1051.8819	3228.83	941.85	62.45
1051.9834	3229.7473	940.55	64.95
1052.0849	3230.6639	943.6	66.6
1052.1863	3231.5799	943.35	66.3
1052.2876	3232.4954	943.25	63.45
1052.3889	3233.4102	941.45	63.9
1052.4902	3234.3244	941.1	58.5
1052.5914	3235.238	937.85	58
1052.6926	3236.151	963	60.2
1052.7937	3237.0634	939.15	61.15
1052.8948	3237.9752	938.45	59.9
1052.9958	3238.8864	940.55	61.85
1053.0968	3239.797	936.25	57
1053.1977	3240.7069	936.9	57.3
1053.2986	3241.6163	938.4	57.8
1053.3994	3242.5251	938.15	61.75
1053.5002	3243.4332	937.8	59.75
1053.6009	3244.3408	935.8	57.65
1053.7016	3245.2477	934.7	57.2
1053.8022	3246.154	939.6	60.65
1053.9028	3247.0598	936.45	56.5
1054.0034	3247.9649	934.6	57.05
1054.1039	3248.8694	934.9	56.1
1054.2043	3249.7733	929.95	52
1054.3047	3250.6766	930.65	51.85
1054.4051	3251.5793	933.55	52.6
1054.5054	3252.4814	932.2	55.8
1054.6056	3253.3829	930.45	51.85
1054.7058	3254.2838	930.6	52.5
1054.806	3255.1841	928.85	48.6
1054.9061	3256.0838	931.15	53.65
1055.0061	3256.9829	926.55	48.8
1055.1062	3257.8814	932.3	51.3
1055.2061	3258.7792	930.6	49.75
1055.306	3259.6765	929.05	49.2
1055.4059	3260.5731	925.85	47.05
1055.5057	3261.4692	925.9	45.8
1055.6055	3262.3647	927.45	48.4
1055.7052	3263.2595	926.55	47.15
1055.8049	3264.1538	924.4	45.75
1055.9045	3265.0474	923.75	45.75
1056.0041	3265.9404	920.15	43.1
1056.1036	3266.8329	921.9	43.35
1056.2031	3267.7247	931.2	43.4
1056.3025	3268.616	916.85	38.5
1056.4019	3269.5066	917.05	38.15
1056.5013	3270.3966	917.6	39.35
1056.6005	3271.286	916.6	38.8
