Software Version:	3.9.2.0
Unit SN:	10000200
Spectrometer SN:	6960
Date:	3/8/2024 1:28:05 PM
Data Line Index:	25
Spectral Points:	2048
Integration time (ms):	125
Averages:	20
Delay (ms):	30000
Sequence Number:	1
Processing:	dark subtract
Laser Power (mW):	305
Laser Current (mA):	822
Laser Diode Temp (C):	25
Laser Case Temp (C):	26.3
System Temp (C):	26.3
Spectrometer Temp (C):	24.1
CCD Temp (C):	0.008
Secondary Temp (C):	20.016
Heatsink Temp (C):	21.269
CCDPCB Temp (C):	36.374
SecondaryPCB Temp (C):	31.605

Wavelength	RamanShift	Raw Counts	Dark Subtracted
787.061	30.1047	452.65	42.8
787.2016	32.3739	454.15	47.35
787.3422	34.6426	457.75	50.35
787.4828	36.9109	464.15	53.8
787.6235	39.1787	473.75	60.45
787.7642	41.4461	479.9	62.15
787.9049	43.7131	489.6	68.9
788.0456	45.9796	496.25	71.35
788.1863	48.2456	507.1	77.8
788.3271	50.5112	512.3	79.5
788.4679	52.7764	523.65	86.65
788.6087	55.0411	531.9	89.7
788.7496	57.3054	546.55	99.05
788.8904	59.5692	554.3	107.1
789.0313	61.8326	560.2	111.25
789.1722	64.0955	576.3	125.2
789.3132	66.3579	589	131.7
789.4541	68.6199	605.95	143.35
789.5951	70.8815	645.25	179.1
789.7361	73.1426	717.9	248
789.8771	75.4032	914.5	440.15
790.0181	77.6634	1389.95	910.45
790.1592	79.9231	2514.7	2028.9
790.3003	82.1824	4933.85	4426.75
790.4414	84.4412	9317.9	8780.75
790.5825	86.6995	15340.4	14761.45
790.7237	88.9574	21195.25	20580.65
790.8648	91.2148	25247.95	24617
791.006	93.4717	27111.9	26464.55
791.1472	95.7282	27423.9	26769.35
791.2885	97.9842	27214.5	26554.45
791.4297	100.2398	26639.4	25974.05
791.571	102.4949	25953.1	25286.4
791.7123	104.7495	25149.7	24482.55
791.8536	107.0036	24297.2	23626.8
791.9949	109.2573	23473	22804.05
792.1363	111.5105	22743.85	22069.25
792.2777	113.7632	22005.9	21330.5
792.4191	116.0154	21397.35	20712.9
792.5605	118.2672	20925.85	20244.8
792.7019	120.5185	20489.25	19805.35
792.8434	122.7693	20091.65	19407.75
792.9849	125.0197	19781.55	19092.55
793.1264	127.2696	19464.55	18774.65
793.2679	129.519	19316.45	18618.2
793.4094	131.7679	19072.35	18370.9
793.551	134.0163	18883.45	18183.15
793.6926	136.2642	18632	17925.6
793.8342	138.5117	18349	17643.35
793.9758	140.7587	18091.2	17383.7
794.1175	143.0052	17838.4	17128.5
794.2591	145.2512	17566	16856.6
794.4008	147.4967	17335.5	16620.8
794.5425	149.7417	17142.8	16424.4
794.6842	151.9863	16979.45	16257.6
794.826	154.2304	16904.25	16176.7
794.9677	156.4739	16787.2	16056.6
795.1095	158.717	16704	15975.5
795.2513	160.9596	16507.6	15768.7
795.3931	163.2017	16268	15530.2
795.535	165.4433	15984.3	15246
795.6768	167.6844	15642.55	14903.65
795.8187	169.925	15328.9	14584.15
795.9606	172.1651	14937.95	14192.2
796.1025	174.4047	14656.3	13909.3
796.2445	176.6439	14389.9	13641.95
796.3864	178.8825	14163.3	13409.1
796.5284	181.1206	13979	13217.55
796.6704	183.3582	13834.35	13069.6
796.8124	185.5954	13712	12947.4
796.9544	187.832	13667.55	12901.1
797.0965	190.0681	13602.1	12832.3
797.2386	192.3037	13596.35	12825.2
797.3806	194.5388	13585.9	12815.65
797.5228	196.7734	13620.55	12839.85
797.6649	199.0075	13653.45	12870.85
797.807	201.2411	13823.9	13040.3
797.9492	203.4742	13863.15	13078.45
798.0914	205.7068	14027.45	13238.5
798.2336	207.9389	14087.55	13301.05
798.3758	210.1704	14251.85	13474.3
798.518	212.4015	14403.65	13634
798.6603	214.632	14556.6	13787.85
798.8025	216.862	14700.9	13938.6
798.9448	219.0915	14856.3	14089.9
799.0871	221.3205	15040.25	14270.8
799.2294	223.549	15236.55	14472.85
799.3718	225.777	15497.7	14733.4
799.5141	228.0044	15781.3	15005.7
799.6565	230.2314	16185.25	15411.9
799.7989	232.4578	16492.65	15712.2
799.9413	234.6837	16833.9	16048.8
800.0837	236.909	16993.55	16207.65
800.2262	239.1339	17018.95	16205.6
800.3687	241.3582	16835.2	16036.45
800.5111	243.582	16547.3	15720.45
800.6536	245.8053	16276.2	15454.1
800.7961	248.0281	16016.95	15207.65
800.9387	250.2503	15795.6	14982.15
801.0812	252.472	15699.2	14887.15
801.2238	254.6932	15673.9	14860.3
801.3664	256.9139	15654.6	14837.85
801.509	259.134	15683.55	14862.3
801.6516	261.3536	15725.45	14909.95
801.7942	263.5727	15863.9	15045.5
801.9369	265.7912	15871.4	15053.3
802.0795	268.0092	15990.3	15172.05
802.2222	270.2267	16020.4	15200.35
802.3649	272.4436	15999.95	15179.3
802.5076	274.6601	15956.7	15123
802.6504	276.8759	15845.75	15019.9
802.7931	279.0913	15795.15	14972.7
802.9359	281.3061	15708.1	14878.9
803.0787	283.5204	15740.4	14905.5
803.2215	285.7341	15767.6	14926.65
803.3643	287.9473	15878.55	15035.95
803.5071	290.16	16069.15	15231.3
803.6499	292.3721	16328.55	15500.25
803.7928	294.5837	16772.95	15941.45
803.9357	296.7947	17052.1	16215.05
804.0786	299.0052	17229.35	16396.2
804.2215	301.2152	17151.45	16314.9
804.3644	303.4246	16840.65	16008.8
804.5074	305.6334	16318.95	15487.8
804.6503	307.8418	15794.05	14958.45
804.7933	310.0495	15381.65	14548.45
804.9363	312.2568	15037.5	14197.25
805.0793	314.4635	14781.15	13938.5
805.2223	316.6696	14649.4	13804.35
805.3653	318.8752	14556.75	13702.75
805.5084	321.0802	14593.55	13745.8
805.6514	323.2847	14657.35	13807.5
805.7945	325.4887	14711.95	13868.95
805.9376	327.692	14663.7	13809.1
806.0807	329.8949	14543.5	13692.55
806.2238	332.0972	14298.85	13441.1
806.367	334.2989	14058.6	13203.55
806.5101	336.5001	13763	12909.65
806.6533	338.7007	13553.55	12696.75
806.7965	340.9008	13426.4	12570.35
806.9397	343.1003	13304.7	12441.1
807.0829	345.2992	13207.65	12349.1
807.2261	347.4976	13176.4	12313.4
807.3693	349.6955	13175.65	12310.3
807.5126	351.8927	13213.2	12347.1
807.6559	354.0895	13190.95	12312.65
807.7991	356.2856	13224.55	12351.2
807.9424	358.4812	13171.1	12306.35
808.0857	360.6763	13211.35	12338.9
808.2291	362.8707	13187.45	12320.65
808.3724	365.0646	13251.85	12375.55
808.5158	367.258	13235.8	12362.6
808.6591	369.4508	13268.7	12388.85
808.8025	371.643	13361.35	12479.9
808.9459	373.8346	13400.75	12521.95
809.0893	376.0257	13402.65	12522.8
809.2327	378.2162	13327.55	12452.6
809.3762	380.4062	13247.95	12365.25
809.5196	382.5956	13114.15	12237.4
809.6631	384.7844	13018.15	12144.5
809.8066	386.9726	12871.5	12001.5
809.9501	389.1603	12824.3	11951.55
810.0936	391.3474	12805.15	11899.9
810.2371	393.5339	12779.15	11901.45
810.3806	395.7199	12733.1	11853.85
810.5241	397.9052	12736.95	11866.65
810.6677	400.09	12772.15	11899.7
810.8113	402.2743	12853.7	11981.95
810.9548	404.4579	12948.5	12075.85
811.0984	406.641	13141.4	12264.55
811.2421	408.8235	13332.8	12455.6
811.3857	411.0054	13594.75	12714.1
811.5293	413.1868	13974.6	13090.45
811.673	415.3675	14238.85	13350.7
811.8166	417.5477	14426.55	13539.95
811.9603	419.7273	14450.6	13562.15
812.104	421.9064	14344.7	13453.5
812.2477	424.0848	14222.6	13334.95
812.3914	426.2627	14024.75	13141.4
812.5351	428.4399	13750.5	12863.7
812.6788	430.6166	13404.6	12506.85
812.8226	432.7928	13037.25	12144.5
812.9663	434.9683	12674.85	11785.5
813.1101	437.1432	12494.6	11607.35
813.2539	439.3176	12321.1	11438.95
813.3977	441.4914	12230.7	11347.2
813.5415	443.6645	12203.45	11319.05
813.6853	445.8371	12132.75	11246.9
813.8291	448.0091	12077.8	11187.65
813.973	450.1806	12041.8	11151.2
814.1168	452.3514	12002.1	11112.85
814.2607	454.5216	12013.45	11113.5
814.4046	456.6913	12005.65	11115.9
814.5485	458.8603	12032.6	11144.35
814.6924	461.0288	12066.35	11182.1
814.8363	463.1967	12063.3	11180.8
814.9802	465.3639	12177.4	11289.6
815.1241	467.5306	12269.6	11378.7
815.2681	469.6967	12352	11466.65
815.412	471.8622	12458.6	11577
815.556	474.0271	12609.8	11726.05
815.7	476.1914	12681.6	11790
815.844	478.3551	12631.25	11738.9
815.988	480.5182	12639.7	11749.05
816.132	482.6807	12671.55	11793.1
816.276	484.8426	12804.2	11932.45
816.4201	487.0039	13089.3	12207.9
816.5641	489.1647	13470.75	12579.85
816.7082	491.3248	13880.4	12984.35
816.8522	493.4843	14050.1	13164.05
816.9963	495.6432	14027.25	13141.1
817.1404	497.8015	13947.35	13050.1
817.2845	499.9592	13924.5	13019.7
817.4286	502.1163	13827.2	12924.2
817.5727	504.2728	13567.8	12678
817.7168	506.4287	13244.5	12363.85
817.861	508.5839	12848.3	11963.25
818.0051	510.7386	12554.7	11662.25
818.1493	512.8927	12389.35	11491.1
818.2935	515.0461	12316.35	11420.85
818.4377	517.199	12271.05	11367.2
818.5818	519.3512	12322.35	11418.25
818.726	521.5029	12450.9	11546.45
818.8703	523.6539	12563.3	11663.35
819.0145	525.8043	12634.6	11732.1
819.1587	527.9541	12642.8	11738.15
819.303	530.1033	12542.85	11640.6
819.4472	532.2519	12542.35	11642.35
819.5915	534.3999	12625.75	11724.5
819.7357	536.5472	12842.8	11943.7
819.88	538.694	13235.95	12340.05
820.0243	540.8401	13737.85	12834.95
820.1686	542.9856	14193.75	13280.6
820.3129	545.1305	14311.05	13392.55
820.4572	547.2748	14181.3	13258.4
820.6016	549.4185	13873.1	12953.35
820.7459	551.5615	13571.2	12653.45
820.8902	553.704	13465	12547.85
821.0346	555.8458	13420.2	12509.1
821.1789	557.987	13494.85	12584.25
821.3233	560.1276	13526.1	12614.65
821.4677	562.2675	13656.1	12734.95
821.6121	564.4069	13820.65	12906.3
821.7565	566.5456	13913.95	13002.55
821.9009	568.6837	13897.95	12992.65
822.0453	570.8212	13618.4	12707.3
822.1897	572.958	13173.5	12260.25
822.3342	575.0942	12789.8	11882.45
822.4786	577.2299	12527.25	11624.55
822.6231	579.3648	12445.55	11554.3
822.7675	581.4992	12477.6	11596.85
822.912	583.6329	12639.3	11758.45
823.0565	585.766	12900	12012.95
823.201	587.8985	13012.35	12118.4
823.3454	590.0304	13086.1	12156.1
823.4899	592.1616	12981.95	12065.5
823.6345	594.2922	12901.65	11985.2
823.779	596.4222	12730.6	11809.1
823.9235	598.5515	12543.55	11624.9
824.068	600.6802	12376.25	11454.6
824.2126	602.8083	12178.65	11264.45
824.3571	604.9358	12148.4	11229.15
824.5017	607.0626	12122.05	11201.55
824.6462	609.1888	12137.75	11215.3
824.7908	611.3144	12117.85	11190.7
824.9354	613.4393	12076.65	11151.65
825.08	615.5636	12025.35	11099.7
825.2246	617.6873	11965.45	11040.75
825.3692	619.8103	11926.45	11003.25
825.5138	621.9327	11781.55	10858.15
825.6584	624.0544	11687.45	10772.85
825.803	626.1756	11634.4	10717.75
825.9477	628.2961	11577.15	10654.4
826.0923	630.4159	11504.55	10581.7
826.237	632.5351	11467.1	10544
826.3816	634.6537	11409	10483.7
826.5263	636.7716	11376.75	10448.15
826.6709	638.8889	11378.15	10442.75
826.8156	641.0056	11421.4	10489.2
826.9603	643.1216	11424.15	10492.9
827.105	645.237	11434.35	10507.8
827.2497	647.3518	11388.7	10465.6
827.3944	649.4659	11377.15	10458.45
827.5391	651.5793	11362.35	10447.95
827.6838	653.6922	11378.9	10460.4
827.8285	655.8043	11347.25	10423.3
827.9733	657.9159	11319.2	10400.4
828.118	660.0268	11256.1	10330.5
828.2627	662.137	11245.35	10322.1
828.4075	664.2466	11226	10290
828.5522	666.3556	11218.05	10286.85
828.697	668.4639	11167.65	10240.1
828.8418	670.5716	11188.05	10270.65
828.9865	672.6786	11235.4	10310.45
829.1313	674.785	11276.45	10350
829.2761	676.8907	11345.45	10419.45
829.4209	678.9958	11351.35	10424.7
829.5657	681.1002	11332.8	10403.45
829.7105	683.204	11370.25	10436.05
829.8553	685.3072	11315.1	10381.9
830.0001	687.4097	11275.15	10348.05
830.1449	689.5115	11228	10296.7
830.2898	691.6127	11205.7	10279.75
830.4346	693.7132	11120.2	10193.2
830.5794	695.8131	11132.95	10196.35
830.7243	697.9123	11109.55	10175.25
830.8691	700.0109	11102.8	10165.8
831.014	702.1089	11103.8	10171.1
831.1588	704.2061	11100.6	10164.75
831.3037	706.3028	11136.1	10200
831.4486	708.3987	11198	10260.75
831.5935	710.4941	11255.15	10318.65
831.7383	712.5887	11387.25	10453.1
831.8832	714.6827	11625.05	10693
832.0281	716.7761	11908.9	10979.55
832.173	718.8688	12254.35	11322.7
832.3179	720.9608	12399.65	11458.15
832.4628	723.0522	12501.3	11552.7
832.6077	725.1429	12373.55	11435.05
832.7527	727.233	12182.15	11242.5
832.8976	729.3224	12007.1	11069.4
833.0425	731.4112	11806.05	10867.6
833.1874	733.4993	11603.35	10665.85
833.3324	735.5867	11422.1	10483.95
833.4773	737.6735	11306.65	10371.8
833.6222	739.7596	11201.35	10264.3
833.7672	741.845	11138.2	10204.05
833.9122	743.9298	11103.55	10161.55
834.0571	746.014	11098.4	10161.3
834.2021	748.0974	11104.65	10160.6
834.347	750.1802	11107.75	10166
834.492	752.2624	11131.55	10189.25
834.637	754.3439	11166.05	10223.95
834.782	756.4247	11250.7	10297.8
834.9269	758.5048	11384.4	10441.75
835.0719	760.5843	11618.4	10675.6
835.2169	762.6631	11955.85	11008.5
835.3619	764.7413	12489.5	11548.6
835.5069	766.8188	13062.4	12120.55
835.6519	768.8956	13566.1	12620.9
835.7969	770.9718	13907.95	12966.65
835.9419	773.0473	13771.3	12826.4
836.0869	775.1221	13451.25	12511.65
836.232	777.1962	13125.75	12182.15
836.377	779.2697	12928.55	11984.35
836.522	781.3426	12952.5	11998.1
836.667	783.4147	13207.1	12263.45
836.8121	785.4862	13439.5	12496
836.9571	787.557	13431.4	12485.4
837.1021	789.6271	13070.7	12121.45
837.2472	791.6966	12490.5	11543.9
837.3922	793.7654	11928.7	10985.15
837.5373	795.8335	11607.85	10662.95
837.6823	797.901	11375.95	10433.35
837.8274	799.9678	11272.95	10325.65
837.9724	802.0339	11251.3	10304.1
838.1175	804.0993	11278.5	10322.9
838.2626	806.1641	11243.65	10293.2
838.4076	808.2282	11189.1	10243.3
838.5527	810.2916	11107.55	10162.15
838.6978	812.3544	11040.65	10098.75
838.8428	814.4164	10925.9	9982.3
838.9879	816.4778	10977.65	10030
839.133	818.5385	10986.15	10034.35
839.2781	820.5986	11085.55	10137.3
839.4232	822.658	11212.6	10258.9
839.5682	824.7166	11382.75	10435.25
839.7133	826.7747	11687.4	10737
839.8584	828.832	11982.15	11030.4
840.0035	830.8886	12174.8	11219.95
840.1486	832.9446	12329.4	11372.9
840.2937	834.9999	12296.85	11348.45
840.4388	837.0545	12229.75	11276.2
840.5839	839.1085	12148.1	11198.5
840.729	841.1618	12033.7	11076.65
840.8741	843.2143	11916.85	10967.15
841.0192	845.2662	11841.65	10888.95
841.1643	847.3175	11743.1	10789.4
841.3095	849.368	11618.25	10665.55
841.4546	851.4179	11528	10577.8
841.5997	853.467	11420.4	10467.15
841.7448	855.5155	11312.15	10362.45
841.8899	857.5633	11213.05	10263.35
842.0351	859.6105	11145.3	10193.55
842.1802	861.6569	11056.5	10103.1
842.3253	863.7027	11018.45	10065.75
842.4704	865.7478	10996.95	10041.9
842.6156	867.7922	10966.3	10010.8
842.7607	869.8359	10994.45	10039.4
842.9058	871.8789	11085.7	10132.5
843.0509	873.9212	11277.55	10290.1
843.1961	875.9629	11368.8	10417.5
843.3412	878.0039	11523.8	10569
843.4863	880.0441	11660.4	10710.3
843.6315	882.0837	11660.4	10710.95
843.7766	884.1226	11587.1	10633.95
843.9218	886.1609	11546.05	10593.95
844.0669	888.1984	11513.2	10561.8
844.212	890.2352	11540.75	10585
844.3572	892.2714	11501.85	10545.75
844.5023	894.3069	11480.75	10524.15
844.6475	896.3416	11388.2	10433.8
844.7926	898.3757	11324.95	10373.45
844.9377	900.4091	11301.35	10346.4
845.0829	902.4418	11296.5	10334.45
845.228	904.4739	11320.6	10363.2
845.3732	906.5052	11376.05	10421.5
845.5183	908.5358	11266.05	10314.1
845.6635	910.5658	11085.65	10130.2
845.8086	912.595	10903.4	9946.4
845.9538	914.6236	10753.15	9795.85
846.0989	916.6515	10689.95	9732.6
846.2441	918.6786	10663.3	9703.9
846.3892	920.7051	10701.15	9741.75
846.5344	922.7309	10812.15	9856.15
846.6795	924.756	10873.7	9914.65
846.8246	926.7804	10956.65	9999.65
846.9698	928.8041	10941.4	9986.15
847.1149	930.8272	10966.85	10007.5
847.2601	932.8495	10936.75	9983.55
847.4052	934.8711	10876.8	9917.45
847.5504	936.892	10785.9	9829.55
847.6955	938.9123	10675.45	9716.8
847.8407	940.9318	10581.55	9626.9
847.9858	942.9506	10525.75	9573.4
848.131	944.9688	10438.1	9482.1
848.2761	946.9862	10381.4	9421.6
848.4213	949.003	10281.45	9325.2
848.5664	951.019	10256.55	9299.3
848.7115	953.0344	10232.7	9272.45
848.8567	955.0491	10275.4	9316.75
849.0018	957.063	10364.8	9408.05
849.147	959.0763	10464.25	9509.35
849.2921	961.0888	10526.5	9568.5
849.4373	963.1007	10570.2	9618.45
849.5824	965.1119	10604.65	9660.3
849.7275	967.1223	10656.2	9717.35
849.8727	969.1321	10641.9	9700.3
850.0178	971.1412	10676.1	9729.5
850.1629	973.1495	10672.95	9721.5
850.3081	975.1572	10749.75	9747.5
850.4532	977.1641	10764.6	9807.75
850.5983	979.1704	10735.2	9777.9
850.7435	981.1759	10716.2	9758.55
850.8886	983.1808	10771.2	9811.15
851.0337	985.1849	10862.25	9895.45
851.1788	987.1884	10987.6	10028.9
851.324	989.1911	11143.3	10189.55
851.4691	991.1932	11256.3	10302.7
851.6142	993.1945	11279.9	10326.15
851.7593	995.1951	11272.1	10315.25
851.9045	997.1951	11227.1	10266
852.0496	999.1943	11170.4	10214.8
852.1947	1001.1928	11160	10201.75
852.3398	1003.1906	11156.85	10198.85
852.4849	1005.1877	11202.15	10247.9
852.63	1007.1841	11244	10290.75
852.7751	1009.1798	11206.2	10250.9
852.9202	1011.1748	11045.35	10090.25
853.0653	1013.1691	10878.35	9924.2
853.2104	1015.1627	10633	9672.8
853.3555	1017.1556	10442.75	9493.8
853.5006	1019.1477	10371.65	9417.25
853.6457	1021.1392	10283.9	9336.55
853.7908	1023.1299	10254.2	9309.9
853.9359	1025.12	10281.3	9348.65
854.081	1027.1093	10348.85	9425.75
854.2261	1029.0979	10449.05	9526.6
854.3712	1031.0859	10497.45	9570.8
854.5163	1033.0731	10526.2	9586.9
854.6613	1035.0596	10474.1	9529.85
854.8064	1037.0454	10352.65	9402.75
854.9515	1039.0304	10258.1	9305.6
855.0965	1041.0148	10135.15	9182.65
855.2416	1042.9985	10052.3	9096.55
855.3867	1044.9814	10021.25	9068.2
855.5317	1046.9636	9964.45	9009.7
855.6768	1048.9452	9940.3	8989.45
855.8219	1050.926	9938.85	8991.35
855.9669	1052.9061	9955.7	9002
856.112	1054.8855	9980.7	9024.95
856.257	1056.8642	10006.25	9055.2
856.4021	1058.8421	10070.1	9114.15
856.5471	1060.8194	10105.1	9149.7
856.6921	1062.7959	10157.65	9204.8
856.8372	1064.7717	10199.95	9244.4
856.9822	1066.7469	10234.5	9279.55
857.1272	1068.7213	10276.7	9322.15
857.2723	1070.695	10263.1	9309.65
857.4173	1072.6679	10236.45	9286.85
857.5623	1074.6402	10208.1	9254.05
857.7073	1076.6117	10173.15	9212.8
857.8523	1078.5826	10109.25	9151.1
857.9973	1080.5527	10112.05	9152.65
858.1423	1082.5221	10154.15	9199.15
858.2873	1084.4908	10290.4	9337.85
858.4323	1086.4587	10457	9503.15
858.5773	1088.426	10570.75	9619
858.7223	1090.3925	10565.2	9608.5
858.8673	1092.3584	10530.55	9576.85
859.0123	1094.3235	10443.3	9491.9
859.1573	1096.2879	10432.85	9482.85
859.3022	1098.2515	10473.05	9520.3
859.4472	1100.2145	10535.4	9585.55
859.5922	1102.1767	10675.9	9722.4
859.7371	1104.1382	10808.4	9856.45
859.8821	1106.099	11043.3	10088.45
860.027	1108.0591	11287	10333.2
860.172	1110.0185	11432.3	10478.65
860.3169	1111.9771	11478.65	10528.6
860.4619	1113.9351	11312	10359.7
860.6068	1115.8923	11074.7	10123.8
860.7517	1117.8488	10800.8	9845
860.8967	1119.8045	10561	9611
861.0416	1121.7596	10439.4	9486.6
861.1865	1123.7139	10368.9	9422.25
861.3314	1125.6675	10373.2	9422.35
861.4763	1127.6204	10412.35	9460.05
861.6212	1129.5726	10366.45	9414.8
861.7661	1131.524	10365.6	9414.05
861.911	1133.4748	10300.45	9348.9
862.0559	1135.4248	10239.85	9285.4
862.2008	1137.3741	10199.25	9246
862.3457	1139.3226	10134.35	9183
862.4905	1141.2705	10100.15	9147.95
862.6354	1143.2176	10015.45	9059.15
862.7803	1145.164	9996.2	9040.15
862.9251	1147.1097	9975.4	9021.85
863.07	1149.0546	9952.05	8999.55
863.2148	1150.9989	9888.75	8937.65
863.3597	1152.9424	9752.35	8798.1
863.5045	1154.8852	9619.25	8667.5
863.6493	1156.8272	9524.1	8574.5
863.7942	1158.7686	9476.85	8516.4
863.939	1160.7092	9481.75	8533.25
864.0838	1162.6491	9477.15	8521.3
864.2286	1164.5883	9566.8	8610.8
864.3734	1166.5267	9635.05	8683.35
864.5182	1168.4644	9817.4	8868.2
864.663	1170.4014	9996.8	9046.35
864.8078	1172.3377	10213	9263.75
864.9526	1174.2732	10471.2	9521.5
865.0974	1176.2081	10768.45	9820.3
865.2421	1178.1421	11071.3	10116.55
865.3869	1180.0755	11381.1	10428.2
865.5317	1182.0082	11589.5	10642.7
865.6764	1183.9401	11614.25	10665.85
865.8212	1185.8713	11490.45	10547.15
865.9659	1187.8017	11267.5	10331.4
866.1106	1189.7315	10978.65	10052.85
866.2554	1191.6605	10667.85	9741.45
866.4001	1193.5888	10437.5	9503.9
866.5448	1195.5163	10330.3	9391.3
866.6895	1197.4432	10249.7	9302.3
866.8342	1199.3693	10211.2	9261.2
866.9789	1201.2947	10199.1	9251.8
867.1236	1203.2193	10157.65	9210.05
867.2683	1205.1432	10189.1	9240.6
867.413	1207.0664	10190.75	9244.75
867.5576	1208.9889	10195.65	9242.45
867.7023	1210.9106	10220.7	9274.95
867.847	1212.8316	10265.7	9320.8
867.9916	1214.7519	10341.35	9383.7
868.1363	1216.6715	10340.2	9393.5
868.2809	1218.5903	10377.3	9427.65
868.4255	1220.5084	10385.75	9438.7
868.5701	1222.4257	10397.45	9449.7
868.7148	1224.3424	10398.15	9454
868.8594	1226.2583	10461.2	9510.5
869.004	1228.1735	10559.4	9613.1
869.1486	1230.0879	10652.9	9705.55
869.2932	1232.0016	10777.65	9829.7
869.4377	1233.9146	10844.35	9897.05
869.5823	1235.8269	10781.55	9833.25
869.7269	1237.7384	10693	9743.85
869.8715	1239.6492	10530.4	9583.5
870.016	1241.5592	10454.45	9506.1
870.1606	1243.4686	10378.05	9431.3
870.3051	1245.3772	10406.45	9460.3
870.4496	1247.285	10434.1	9485.4
870.5941	1249.1922	10478.9	9535
870.7387	1251.0986	10499.15	9554.65
870.8832	1253.0042	10523.25	9578.85
871.0277	1254.9092	10577.8	9631.95
871.1722	1256.8134	10661.7	9719.25
871.3167	1258.7169	10803	9860.05
871.4611	1260.6196	10953.6	10008.8
871.6056	1262.5216	11198.25	10250.85
871.7501	1264.4229	11368.4	10425.6
871.8945	1266.3234	11536.2	10590.35
872.039	1268.2232	11596.9	10649.3
872.1834	1270.1223	11635.8	10691.35
872.3278	1272.0207	11629.15	10685.6
872.4723	1273.9183	11594.35	10641.95
872.6167	1275.8151	11552.1	10611
872.7611	1277.7113	11477.5	10535.05
872.9055	1279.6067	11443.55	10499.75
873.0499	1281.5014	11419.5	10472.3
873.1943	1283.3953	11503	10557.65
873.3386	1285.2885	11593	10650.35
873.483	1287.181	11769	10825.45
873.6274	1289.0727	11952.45	11014.3
873.7717	1290.9637	12106.75	11162.25
873.9161	1292.854	12224.85	11282.6
874.0604	1294.7435	12324.9	11379.45
874.2047	1296.6323	12444.75	11501.7
874.349	1298.5204	12555.05	11609.55
874.4933	1300.4077	12687.75	11743.5
874.6376	1302.2943	12721.1	11777.55
874.7819	1304.1802	12708.7	11764.25
874.9262	1306.0653	12492	11548.1
875.0705	1307.9497	12227.95	11284.65
875.2147	1309.8333	12011.8	11070.1
875.359	1311.7162	11853.2	10912.85
875.5032	1313.5984	11814.25	10868
875.6475	1315.4798	11815.25	10865.6
875.7917	1317.3605	11865.65	10902.85
875.9359	1319.2405	11878.5	10931.85
876.0801	1321.1197	11755.7	10809.15
876.2243	1322.9982	11606.4	10659.2
876.3685	1324.876	11506	10561.3
876.5127	1326.753	11340.7	10398.5
876.6569	1328.6293	11305.75	10358.1
876.801	1330.5048	11248.05	10300.65
876.9452	1332.3796	11154.25	10209.9
877.0893	1334.2537	11123	10152.05
877.2335	1336.127	11049.4	10106.9
877.3776	1337.9996	11017.55	10075.25
877.5217	1339.8714	11008.45	10067
877.6658	1341.7426	11028.75	10043.15
877.8099	1343.6129	11019.5	10072.25
877.954	1345.4826	10986.9	10040.05
878.0981	1347.3515	10938.9	9991.05
878.2422	1349.2196	10898.5	9950.75
878.3862	1351.087	10967.35	10020.95
878.5303	1352.9537	11014.15	10067.75
878.6743	1354.8197	11110	10167.4
878.8184	1356.6849	11279.2	10336.05
878.9624	1358.5493	11389.05	10445.9
879.1064	1360.4131	11468.25	10526.2
879.2504	1362.276	11470.4	10527.25
879.3944	1364.1383	11409.65	10468.2
879.5384	1365.9998	11163.05	10215.95
879.6823	1367.8606	10831.6	9885.15
879.8263	1369.7206	10527.05	9581.4
879.9702	1371.5799	10258.45	9311.15
880.1142	1373.4384	10037.9	9092.65
880.2581	1375.2962	9866.1	8921.9
880.402	1377.1533	9594.45	8654.85
880.5459	1379.0096	9295.9	8355.95
880.6898	1380.8652	8994.4	8056.75
880.8337	1382.7201	8726.45	7790.35
880.9776	1384.5742	8492.95	7550.35
881.1215	1386.4275	8344.2	7399.85
881.2653	1388.2802	8204.05	7265.55
881.4092	1390.132	8088.4	7142.45
881.553	1391.9832	8060.1	7112.6
881.6968	1393.8336	7963.1	7017.9
881.8406	1395.6832	7918	6974.45
881.9844	1397.5322	7891.65	6950
882.1282	1399.3803	7864	6918.55
882.272	1401.2278	7824.25	6885.75
882.4158	1403.0745	7844.6	6903.7
882.5595	1404.9204	7855.75	6919
882.7033	1406.7656	7866	6924.1
882.847	1408.6101	7862.35	6920.55
882.9908	1410.4538	7889.8	6949.95
883.1345	1412.2968	7937.8	6994.85
883.2782	1414.139	7974.75	7036.1
883.4219	1415.9805	8089.8	7148.95
883.5656	1417.8213	8186.2	7240.15
883.7092	1419.6613	8302.9	7363.35
883.8529	1421.5006	8464	7521.95
883.9965	1423.3391	8680.1	7742.95
884.1402	1425.1769	8988.05	8047.35
884.2838	1427.0139	9454.85	8512.6
884.4274	1428.8502	10009.95	9069.7
884.571	1430.6858	10594.4	9657.2
884.7146	1432.5206	11001.2	10064.05
884.8582	1434.3547	11258.75	10319.55
885.0018	1436.188	11276.7	10333.95
885.1453	1438.0206	11188.1	10249.85
885.2889	1439.8524	11026.05	10083.75
885.4324	1441.6835	10900.95	9963.05
885.5759	1443.5139	10824	9885.9
885.7194	1445.3435	10761.1	9823.8
885.8629	1447.1724	10696.7	9759.4
886.0064	1449.0005	10651.95	9712.75
886.1499	1450.8279	10571.55	9633.25
886.2933	1452.6545	10512.9	9579.2
886.4368	1454.4804	10572.15	9635.95
886.5802	1456.3056	10538.2	9595
886.7237	1458.13	10455.2	9517.2
886.8671	1459.9536	10278.65	9343.1
887.0105	1461.7766	9941	9004.6
887.1539	1463.5987	9552.6	8612.2
887.2972	1465.4202	9171.15	8232.7
887.4406	1467.2409	8829.5	7892.2
887.584	1469.0608	8563.9	7626.85
887.7273	1470.88	8290.1	7352.4
887.8706	1472.6984	8065.6	7126.65
888.0139	1474.5161	7870.2	6927.6
888.1572	1476.3331	7727.2	6790.8
888.3005	1478.1493	7594.95	6660.75
888.4438	1479.9648	7486.9	6549.8
888.5871	1481.7795	7401.75	6464.2
888.7303	1483.5935	7348.25	6412.4
888.8736	1485.4067	7271.2	6334.95
889.0168	1487.2192	7240.1	6302
889.16	1489.031	7205.3	6266
889.3032	1490.842	7162.55	6225
889.4464	1492.6522	7108.2	6172.6
889.5896	1494.4618	7093.15	6156.6
889.7327	1496.2705	7058.7	6124.1
889.8759	1498.0785	7037.85	6102.15
890.019	1499.8858	6997.45	6061.15
890.1622	1501.6924	6951.7	6016.8
890.3053	1503.4981	6933.45	5997.8
890.4484	1505.3032	6909.8	5974.25
890.5914	1507.1075	6852.15	5915.8
890.7345	1508.911	6817.8	5879.6
890.8776	1510.7138	6788.05	5854.2
891.0206	1512.5159	6738.45	5806.4
891.1637	1514.3172	6710.9	5777.8
891.3067	1516.1178	6684.85	5752.35
891.4497	1517.9176	6631.55	5694.85
891.5927	1519.7166	6598.4	5663.25
891.7357	1521.515	6587.55	5645.85
891.8786	1523.3126	6549.45	5616.05
892.0216	1525.1094	6520.9	5586.5
892.1645	1526.9055	6501.2	5568.5
892.3074	1528.7008	6490.85	5558
892.4503	1530.4954	6435.5	5504.1
892.5932	1532.2893	6435.35	5504.9
892.7361	1534.0824	6398.95	5466.85
892.879	1535.8747	6389.6	5461.4
893.0218	1537.6663	6377.55	5449.5
893.1647	1539.4572	6364.65	5433.7
893.3075	1541.2473	6381.75	5451.2
893.4503	1543.0367	6369.8	5441.5
893.5931	1544.8253	6391.95	5457.25
893.7359	1546.6132	6402.35	5471.45
893.8787	1548.4003	6400.65	5459.75
894.0214	1550.1867	6445.3	5507.4
894.1642	1551.9723	6466.35	5535.95
894.3069	1553.7572	6513.4	5585.6
894.4496	1555.5414	6591.15	5665.7
894.5923	1557.3247	6651.7	5730.3
894.735	1559.1074	6758.45	5837.05
894.8777	1560.8893	6841.9	5919.7
895.0204	1562.6705	6946.35	6020
895.163	1564.4509	7040.75	6118.75
895.3056	1566.2305	7094.3	6176.65
895.4482	1568.0094	7145.3	6225.9
895.5908	1569.7876	7164.75	6244
895.7334	1571.565	7199.1	6276.4
895.876	1573.3417	7201.05	6275.1
896.0186	1575.1176	7182.75	6259
896.1611	1576.8928	7148.7	6232.7
896.3036	1578.6672	7071.5	6160.05
896.4461	1580.4409	7003.35	6092.6
896.5886	1582.2138	6907	5990.3
896.7311	1583.986	6878.95	5960.9
896.8736	1585.7575	6835.65	5914.9
897.0161	1587.5282	6841.8	5928.1
897.1585	1589.2981	6817.3	5904.35
897.3009	1591.0673	6825.65	5910.15
897.4433	1592.8358	6867.6	5953.25
897.5857	1594.6035	6903.2	5983.75
897.7281	1596.3704	6922.9	6004.35
897.8705	1598.1366	7020.2	6103.6
898.0128	1599.9021	7076.95	6160.9
898.1551	1601.6668	7137.25	6218.2
898.2975	1603.4308	7239.6	6320
898.4398	1605.194	7362.25	6441.45
898.5821	1606.9564	7512.4	6603.05
898.7243	1608.7182	7700.2	6792.7
898.8666	1610.4791	7900	6998.95
899.0088	1612.2394	8096.5	7194.4
899.1511	1613.9988	8295.5	7391.45
899.2933	1615.7576	8534.9	7626.15
899.4355	1617.5156	8742.25	7824.7
899.5776	1619.2728	8888.9	7972.8
899.7198	1621.0293	8961.95	8048.75
899.862	1622.785	8924.05	8008.85
900.0041	1624.54	8800.6	7889.8
900.1462	1626.2942	8607.45	7699.2
900.2883	1628.0477	8341.3	7432.65
900.4304	1629.8005	8061.05	7149.05
900.5725	1631.5525	7849.75	6942.3
900.7145	1633.3037	7644.75	6736.25
900.8566	1635.0542	7516.8	6610.35
900.9986	1636.804	7380.4	6471.5
901.1406	1638.553	7379.2	6409.4
901.2826	1640.3013	7316.35	6407.35
901.4245	1642.0488	7287.8	6378.8
901.5665	1643.7955	7335.4	6430.2
901.7085	1645.5416	7375.8	6470.75
901.8504	1647.2868	7468.45	6561.5
901.9923	1649.0313	7577.95	6668.8
902.1342	1650.7751	7736.8	6825.85
902.2761	1652.5181	7887.9	6982.85
902.4179	1654.2604	8075.7	7171.05
902.5598	1656.0019	8340.85	7438.2
902.7016	1657.7427	8630.9	7724.05
902.8434	1659.4828	8912.2	8001.4
902.9852	1661.222	9088	8176.15
903.127	1662.9606	9074.85	8165.9
903.2687	1664.6984	8833.85	7920.45
903.4105	1666.4354	8421.15	7505.65
903.5522	1668.1717	7902.35	6990.05
903.6939	1669.9072	7383	6473.5
903.8356	1671.642	6946.6	6029.95
903.9773	1673.3761	6592	5679.6
904.119	1675.1094	6283.8	5374.65
904.2606	1676.8419	6060.8	5151.85
904.4022	1678.5737	5856.35	4947.75
904.5439	1680.3048	5729.3	4817.1
904.6855	1682.0351	5610.2	4699.8
904.827	1683.7646	5528.85	4614.55
904.9686	1685.4934	5476.5	4568.65
905.1101	1687.2215	5398.05	4488.95
905.2517	1688.9488	5324.45	4418.25
905.3932	1690.6754	5294.2	4388.6
905.5347	1692.4012	5251.1	4342.6
905.6761	1694.1263	5204	4293.1
905.8176	1695.8506	5178.75	4268.9
905.9591	1697.5742	5137.85	4231.85
906.1005	1699.297	5097.2	4194.15
906.2419	1701.0191	5070.6	4168.9
906.3833	1702.7404	5045.4	4144.2
906.5246	1704.461	5004.6	4099.2
906.666	1706.1808	4987.75	4083.7
906.8073	1707.8999	4956.85	4054.8
906.9487	1709.6182	4935.5	4035.4
907.09	1711.3358	4912.2	4013.3
907.2313	1713.0527	4875.4	3979.2
907.3725	1714.7688	4860.65	3953.85
907.5138	1716.4841	4839.4	3932.65
907.655	1718.1987	4831.45	3920.75
907.7962	1719.9126	4802.45	3901.95
907.9374	1721.6257	4779.2	3880.2
908.0786	1723.338	4778.1	3882.35
908.2198	1725.0496	4750.35	3849.5
908.3609	1726.7605	4751.5	3848.35
908.502	1728.4706	4729.55	3829.2
908.6431	1730.18	4702.15	3800.25
908.7842	1731.8886	4664.5	3764.3
908.9253	1733.5964	4685.4	3766.45
909.0664	1735.3036	4658.3	3757.05
909.2074	1737.0099	4632	3733.35
909.3484	1738.7156	4610.25	3713.2
909.4894	1740.4204	4607.5	3705
909.6304	1742.1246	4580.5	3678.55
909.7714	1743.8279	4562.05	3661.9
909.9123	1745.5306	4548.5	3648.45
910.0532	1747.2325	4520.85	3620.85
910.1941	1748.9336	4509.3	3609.75
910.335	1750.634	4482.05	3580.75
910.4759	1752.3336	4470.3	3574.25
910.6168	1754.0325	4477.85	3582.55
910.7576	1755.7307	4453.1	3556.3
910.8984	1757.4281	4455.85	3555.05
911.0392	1759.1247	4455.15	3543.15
911.18	1760.8206	4431.35	3523.9
911.3208	1762.5158	4439.45	3534.75
911.4615	1764.2102	4403.25	3503.45
911.6022	1765.9039	4390	3492.5
911.7429	1767.5968	4385.45	3490.85
911.8836	1769.289	4354.15	3458.3
912.0243	1770.9804	4360.1	3461.75
912.1649	1772.6711	4359.95	3458.05
912.3056	1774.361	4346.3	3443.3
912.4462	1776.0502	4330.7	3426.3
912.5868	1777.7386	4336.45	3430.95
912.7274	1779.4263	4331.85	3432.45
912.8679	1781.1132	4308.05	3413.3
913.0084	1782.7994	4294.25	3396.1
913.149	1784.4849	4291.05	3397.25
913.2895	1786.1696	4290.1	3376.2
913.4299	1787.8535	4281.6	3388.1
913.5704	1789.5367	4241.9	3347.9
913.7108	1791.2192	4233.7	3338.9
913.8513	1792.9009	4236.8	3311.9
913.9917	1794.5818	4233.65	3334
914.132	1796.2621	4212.85	3315.55
914.2724	1797.9415	4206.2	3306.75
914.4128	1799.6202	4189.45	3291.1
914.5531	1801.2982	4204.85	3304.15
914.6934	1802.9755	4175.85	3275.45
914.8337	1804.6519	4185.9	3287.9
914.9739	1806.3277	4147.35	3249.95
915.1142	1808.0027	4138.9	3245.05
915.2544	1809.6769	4158	3265.75
915.3946	1811.3504	4131.15	3237.5
915.5348	1813.0231	4123.6	3229.6
915.675	1814.6951	4116.35	3221.7
915.8151	1816.3664	4127.85	3229.6
915.9553	1818.0369	4103.8	3205.15
916.0954	1819.7067	4089.25	3192.45
916.2355	1821.3757	4090.65	3188.2
916.3755	1823.044	4087.3	3184.55
916.5156	1824.7115	4089.1	3190.5
916.6556	1826.3783	4069.55	3170.5
916.7956	1828.0443	4066.55	3169.55
916.9356	1829.7096	4055.2	3155.2
917.0756	1831.3741	4042.4	3143.35
917.2155	1833.0379	4030.2	3137.2
917.3555	1834.701	4028.15	3133.05
917.4954	1836.3633	4019.05	3126.25
917.6353	1838.0248	4003.6	3107.95
917.7751	1839.6856	3997.3	3102.85
917.915	1841.3457	3986	3088.15
918.0548	1843.005	3976.3	3078.35
918.1946	1844.6636	3976.15	3081.65
918.3344	1846.3214	3966.8	3069.65
918.4742	1847.9785	3983.2	3085.75
918.6139	1849.6349	3968.35	3068.1
918.7537	1851.2904	3970.2	3061.95
918.8934	1852.9453	3944.95	3043.6
919.0331	1854.5994	3937.8	3036
919.1727	1856.2528	3943.55	3039.95
919.3124	1857.9054	3929.8	3033.15
919.452	1859.5572	3930.5	3037.6
919.5916	1861.2083	3896.15	2998.95
919.7312	1862.8587	3919.25	3019.15
919.8708	1864.5084	3905.8	3006.7
920.0103	1866.1572	3898.5	2997.8
920.1498	1867.8054	3883	2982.65
920.2893	1869.4528	3872.75	2971.5
920.4288	1871.0994	3863.3	2964.35
920.5683	1872.7453	3858.5	2956.95
920.7077	1874.3905	3882.75	2966.95
920.8471	1876.0349	3841.25	2942.2
920.9865	1877.6786	3852.85	2953.25
921.1259	1879.3215	3848.05	2951.65
921.2653	1880.9637	3828.95	2930.7
921.4046	1882.6051	3828.65	2932.4
921.5439	1884.2458	3820.3	2922.35
921.6832	1885.8858	3796.95	2900
921.8225	1887.525	3785.15	2887.4
921.9617	1889.1634	3765.5	2865.85
922.101	1890.8011	3770.1	2872
922.2402	1892.4381	3761.95	2862.35
922.3794	1894.0743	3759.85	2862.6
922.5185	1895.7098	3760.25	2863.15
922.6577	1897.3446	3751.2	2849.55
922.7968	1898.9786	3733.9	2834
922.9359	1900.6118	3727.25	2830.25
923.075	1902.2443	3712.45	2816.05
923.214	1903.8761	3699.5	2803.2
923.3531	1905.5071	3703.3	2806.55
923.4921	1907.1374	3687.05	2788.75
923.6311	1908.7669	3682.15	2783.65
923.77	1910.3957	3672.35	2777.35
923.909	1912.0237	3666	2769.55
924.0479	1913.651	3667.35	2767.65
924.1868	1915.2776	3654.45	2758.45
924.3257	1916.9034	3649.1	2755
924.4646	1918.5285	3628	2730.35
924.6034	1920.1528	3600.4	2704.2
924.7422	1921.7764	3621.85	2727.1
924.881	1923.3992	3602.95	2705.4
925.0198	1925.0213	3577.9	2683.05
925.1586	1926.6427	3560.75	2664.85
925.2973	1928.2633	3746.6	2645.35
925.436	1929.8832	3578.65	2678.5
925.5747	1931.5023	3556.9	2661.8
925.7134	1933.1207	3543	2647.25
925.852	1934.7383	3550.95	2652.3
925.9906	1936.3552	3534.1	2637.9
926.1292	1937.9714	3519.85	2622.15
926.2678	1939.5868	3512.4	2613.8
926.4064	1941.2015	3499.55	2601.35
926.5449	1942.8154	3477.25	2580.05
926.6834	1944.4286	3471.25	2574.35
926.8219	1946.041	3478.2	2564
926.9604	1947.6528	3461.4	2559.8
927.0988	1949.2637	3457.8	2562.05
927.2372	1950.8739	3440	2543.2
927.3756	1952.4834	3427.25	2530.85
927.514	1954.0921	3416.9	2520
927.6523	1955.7001	3408.35	2509.45
927.7907	1957.3074	3386.5	2495.45
927.929	1958.9139	3381.4	2491.15
928.0673	1960.5197	3381.6	2488.05
928.2055	1962.1247	3363.7	2469.8
928.3438	1963.729	3358.2	2466.15
928.482	1965.3325	3341.2	2446
928.6202	1966.9353	3334.1	2441.95
928.7584	1968.5374	3327.55	2436.9
928.8965	1970.1387	3320.65	2427.95
929.0346	1971.7393	3312.25	2420.65
929.1727	1973.3392	3318.5	2424.95
929.3108	1974.9383	3297.2	2407.9
929.4489	1976.5366	3279.15	2389.9
929.5869	1978.1342	3272.15	2381.9
929.7249	1979.7311	3277.4	2387.45
929.8629	1981.3273	3270.05	2380.9
930.0009	1982.9227	3262	2373.25
930.1388	1984.5173	3244.65	2356.05
930.2767	1986.1112	3224.45	2335.35
930.4146	1987.7044	3231.95	2343.05
930.5525	1989.2968	3228.1	2339.15
930.6904	1990.8885	3232.15	2340.55
930.8282	1992.4795	3207.9	2318.2
930.966	1994.0697	3214.3	2326.95
931.1038	1995.6592	3193.2	2304.5
931.2415	1997.2479	3184.15	2295.15
931.3793	1998.8359	3182.95	2295.45
931.517	2000.4232	3174.1	2290.4
931.6547	2002.0097	3161.75	2279.9
931.7923	2003.5955	3163.45	2278.2
931.93	2005.1805	3151.05	2263.15
932.0676	2006.7648	3133.55	2247.95
932.2052	2008.3484	3142.9	2257
932.3427	2009.9312	3134.8	2248.1
932.4803	2011.5133	3121.05	2239.5
932.6178	2013.0946	3126.15	2243.45
932.7553	2014.6752	3117.45	2232.95
932.8928	2016.2551	3102.7	2216.2
933.0302	2017.8342	3086.95	2201.6
933.1676	2019.4126	3083.65	2199.4
933.305	2020.9902	3072.05	2189.05
933.4424	2022.5672	3071.8	2187.15
933.5798	2024.1433	3073.3	2185.85
933.7171	2025.7188	3062.25	2181.6
933.8544	2027.2935	3049.6	2166.3
933.9917	2028.8674	3054.35	2172.35
934.129	2030.4406	3040.05	2160.8
934.2662	2032.0131	3025.65	2147.05
934.4034	2033.5849	3021.55	2132.8
934.5406	2035.1559	3034	2153.55
934.6778	2036.7261	3023.55	2140.45
934.8149	2038.2957	3028.05	2139.95
934.952	2039.8645	3009.1	2120.9
935.0891	2041.4325	3013.4	2123.35
935.2262	2042.9998	2992.75	2108.2
935.3632	2044.5664	2984.05	2099.45
935.5002	2046.1323	2978.6	2096.55
935.6372	2047.6974	2972.65	2090.7
935.7742	2049.2617	2961.55	2080.15
935.9111	2050.8254	2995.2	2077.45
936.048	2052.3883	2965.95	2077.8
936.1849	2053.9504	2961.95	2074.5
936.3218	2055.5118	2951.3	2065.8
936.4586	2057.0725	2941.05	2052.65
936.5955	2058.6325	2940.75	2055.1
936.7323	2060.1917	2933.75	2049.85
936.869	2061.7502	2926.25	2041.05
937.0058	2063.3079	2919.55	2038.4
937.1425	2064.8649	2928.6	2040.75
937.2792	2066.4212	2911.15	2024.65
937.4159	2067.9767	2908.1	2021.6
937.5525	2069.5315	2906.5	2020.45
937.6891	2071.0856	2893.15	2008.3
937.8257	2072.6389	2877.55	1995.2
937.9623	2074.1915	2857	1976.9
938.0989	2075.7433	2856.9	1972.3
938.2354	2077.2945	2862.25	1977
938.3719	2078.8448	2857.3	1968.3
938.5084	2080.3945	2844.75	1958.6
938.6448	2081.9434	2844.6	1957.85
938.7812	2083.4916	2837.6	1948.15
938.9176	2085.039	2840.6	1948.05
939.054	2086.5857	2820.1	1925.4
939.1903	2088.1317	2819.6	1925.45
939.3267	2089.677	2824.4	1931.6
939.463	2091.2215	2804.2	1909.95
939.5992	2092.7652	2803.55	1910.2
939.7355	2094.3083	2816.9	1922.95
939.8717	2095.8506	2815.25	1925.55
940.0079	2097.3921	2792.2	1902.1
940.1441	2098.933	2784.7	1895.2
940.2802	2100.4731	2785.9	1895.45
940.4163	2102.0124	2784.25	1887.7
940.5524	2103.5511	2770.55	1880.75
940.6885	2105.089	2774.75	1883.8
940.8245	2106.6261	2769.3	1880.75
940.9606	2108.1626	2745	1856.95
941.0965	2109.6983	2776.85	1858.95
941.2325	2111.2332	2750.9	1861.45
941.3684	2112.7675	2750.2	1860.4
941.5044	2114.301	2747.9	1855.15
941.6403	2115.8337	2742.75	1852
941.7761	2117.3657	2731.2	1841.7
941.912	2118.897	2725.5	1832.15
942.0478	2120.4276	2718.35	1821.6
942.1835	2121.9575	2712.95	1820.25
942.3193	2123.4866	2714.1	1819.6
942.455	2125.0149	2710.2	1818.5
942.5907	2126.5426	2680.75	1792.9
942.7264	2128.0695	2688.9	1799.25
942.8621	2129.5956	2682.4	1799.7
942.9977	2131.1211	2685.1	1796.4
943.1333	2132.6458	2678.45	1789.15
943.2689	2134.1698	2668.55	1776.55
943.4044	2135.693	2679.25	1783
943.54	2137.2155	2680.75	1783.7
943.6755	2138.7373	2668.1	1777.95
943.8109	2140.2584	2657	1770.75
943.9464	2141.7787	2652.2	1760.5
944.0818	2143.2983	2641.05	1759.7
944.2172	2144.8171	2629.6	1747.7
944.3526	2146.3353	2623.6	1736.25
944.4879	2147.8527	2623	1737.35
944.6232	2149.3693	2620.15	1729.05
944.7585	2150.8853	2613.75	1723.15
944.8938	2152.4005	2607.65	1713.75
945.029	2153.9149	2606.45	1714.45
945.1642	2155.4287	2600.85	1708.2
945.2994	2156.9417	2601	1707.2
945.4346	2158.454	2598.15	1708.4
945.5697	2159.9655	2577.35	1691.25
945.7048	2161.4764	2587.6	1700.85
945.8399	2162.9865	2568.5	1679.95
945.9749	2164.4958	2578.4	1689.5
946.1099	2166.0045	2568.2	1676.95
946.2449	2167.5124	2558.3	1669.1
946.3799	2169.0195	2564.15	1674.15
946.5148	2170.526	2571.35	1680.2
946.6498	2172.0317	2546.65	1655.15
946.7846	2173.5367	2551	1661.6
946.9195	2175.0409	2538.95	1648.95
947.0543	2176.5445	2544.1	1654.4
947.1891	2178.0473	2540.25	1645.05
947.3239	2179.5494	2546.9	1649.75
947.4587	2181.0507	2532.65	1642.1
947.5934	2182.5513	2522.6	1633.4
947.7281	2184.0512	2515.15	1623.95
947.8628	2185.5504	2519	1630.75
947.9974	2187.0488	2501.65	1615.1
948.132	2188.5465	2492.35	1605.9
948.2666	2190.0435	2492.9	1602.2
948.4012	2191.5397	2483.35	1591.2
948.5357	2193.0353	2488.65	1596.25
948.6702	2194.5301	2486.35	1591.6
948.8047	2196.0241	2469.95	1575.5
948.9392	2197.5175	2478.7	1583.05
949.0736	2199.0101	2469.1	1571.95
949.208	2200.502	2457.95	1569.45
949.3424	2201.9931	2452.6	1563.75
949.4767	2203.4835	2443.1	1556.25
949.611	2204.9733	2449.3	1558.1
949.7453	2206.4622	2430.65	1545.85
949.8796	2207.9505	2431.7	1542.8
950.0138	2209.438	2416.95	1530.75
950.148	2210.9248	2422.85	1535.8
950.2822	2212.4109	2408.5	1519.5
950.4164	2213.8962	2411.9	1515.75
950.5505	2215.3809	2414.2	1518.85
950.6846	2216.8648	2401.4	1506.3
950.8186	2218.3479	2407.75	1505.05
950.9527	2219.8304	2398.55	1498.5
951.0867	2221.3121	2388.45	1490.45
951.2207	2222.7931	2380.2	1486
951.3546	2224.2733	2384.15	1489.4
951.4886	2225.7529	2375.6	1482.65
951.6225	2227.2317	2364.8	1474.1
951.7563	2228.7098	2359.6	1472.05
951.8902	2230.1872	2348.6	1463.1
952.024	2231.6638	2346.45	1460.25
952.1578	2233.1397	2347.4	1455.1
952.2916	2234.6149	2346.2	1457.25
952.4253	2236.0894	2349.3	1461.05
952.559	2237.5632	2343.6	1444.55
952.6927	2239.0362	2313.55	1425.05
952.8263	2240.5085	2312.8	1422.7
952.9599	2241.9801	2323.1	1432.9
953.0935	2243.4509	2322.15	1428.1
953.2271	2244.921	2320.75	1428.05
953.3606	2246.3904	2317.25	1422.4
953.4941	2247.8591	2305.6	1411.55
953.6276	2249.3271	2300.85	1408.35
953.7611	2250.7943	2287	1396.15
953.8945	2252.2608	2283.3	1390.55
954.0279	2253.7266	2279.85	1388.5
954.1612	2255.1917	2286.75	1394.65
954.2946	2256.656	2271.05	1380.25
954.4279	2258.1197	2262.35	1373.5
954.5612	2259.5826	2273.2	1382.65
954.6944	2261.0447	2259.55	1367.3
954.8276	2262.5062	2259.4	1364.65
954.9608	2263.9669	2252.65	1358
955.094	2265.4269	2248.95	1354.9
955.2271	2266.8862	2240.5	1349.15
955.3602	2268.3448	2238.55	1346.2
955.4933	2269.8026	2233.2	1344.35
955.6264	2271.2598	2231.95	1343.5
955.7594	2272.7162	2224.25	1332.2
955.8924	2274.1719	2230.05	1338.2
956.0253	2275.6268	2237.35	1343.05
956.1583	2277.0811	2229.25	1334.25
956.2912	2278.5346	2209.25	1319.05
956.4241	2279.9874	2216.1	1328.25
956.5569	2281.4395	2214.95	1327.15
956.6897	2282.8908	2208.6	1314.85
956.8225	2284.3414	2206	1310.9
956.9553	2285.7914	2199.55	1310.55
957.088	2287.2406	2207.85	1312.95
957.2207	2288.689	2213.05	1317.75
957.3534	2290.1368	2201.35	1303.8
957.486	2291.5838	2201.9	1303.55
957.6186	2293.0302	2193.5	1293.5
957.7512	2294.4758	2192.7	1295.95
957.8838	2295.9206	2183.45	1291.25
958.0163	2297.3648	2167.9	1275.3
958.1488	2298.8082	2169.8	1277.55
958.2813	2300.251	2169.8	1276.4
958.4137	2301.693	2162.9	1265
958.5461	2303.1343	2165.85	1271.4
958.6785	2304.5748	2163.75	1268.9
958.8108	2306.0147	2146.75	1257.3
958.9432	2307.4538	2143.05	1251.95
959.0754	2308.8922	2139	1252.2
959.2077	2310.3299	2136.5	1248.7
959.3399	2311.7669	2128.45	1239.55
959.4721	2313.2031	2132.55	1242.9
959.6043	2314.6387	2123.6	1230.5
959.7365	2316.0735	2114.8	1221.25
959.8686	2317.5076	2113.4	1221.5
960.0006	2318.941	2120.4	1227.95
960.1327	2320.3737	2118.85	1224.3
960.2647	2321.8056	2108.9	1212.85
960.3967	2323.2369	2106.45	1211.45
960.5287	2324.6674	2101.1	1207.5
960.6606	2326.0972	2103.45	1209.5
960.7925	2327.5263	2092.7	1198.85
960.9244	2328.9547	2101.35	1206.85
961.0562	2330.3823	2102.6	1205.5
961.1881	2331.8092	2099.65	1201.05
961.3198	2333.2355	2087.6	1194.45
961.4516	2334.661	2091.85	1197.9
961.5833	2336.0858	2078.7	1182.35
961.715	2337.5098	2075.4	1180.65
961.8467	2338.9332	2066.15	1174.05
961.9783	2340.3558	2069	1174.6
962.1099	2341.7778	2069.8	1180.55
962.2415	2343.199	2060.3	1166.75
962.373	2344.6195	2057.35	1168.95
962.5045	2346.0393	2057.35	1168.7
962.636	2347.4583	2060.15	1166.8
962.7675	2348.8767	2060.2	1164.85
962.8989	2350.2943	2049.75	1155.5
963.0303	2351.7113	2050	1153.05
963.1617	2353.1275	2052.75	1156.65
963.293	2354.543	2047.65	1142.9
963.4243	2355.9578	2038.75	1145.3
963.5556	2357.3718	2029.1	1138
963.6868	2358.7852	2017.5	1125.9
963.818	2360.1978	2020.5	1131.5
963.9492	2361.6098	2011.85	1120.25
964.0803	2363.021	2025.95	1129.95
964.2114	2364.4315	2016.15	1126
964.3425	2365.8413	2018.4	1125.5
964.4736	2367.2504	2014.35	1126.7
964.6046	2368.6587	1999.4	1111.4
964.7356	2370.0664	2001.55	1112
964.8666	2371.4733	1987.15	1094.9
964.9975	2372.8795	1994.5	1103.9
965.1284	2374.285	1980.2	1089.35
965.2593	2375.6899	1983.65	1095.15
965.3901	2377.0939	1975.05	1087.9
965.5209	2378.4973	1979.7	1092.55
965.6517	2379.9	1981.25	1093.75
965.7825	2381.3019	1962.1	1074.4
965.9132	2382.7032	1955	1068.9
966.0439	2384.1037	1960.15	1075.85
966.1745	2385.5035	1953.85	1067.25
966.3051	2386.9027	1950	1064.05
966.4357	2388.3011	1949.85	1057.75
966.5663	2389.6987	1953.25	1067.1
966.6968	2391.0957	1939.3	1052.7
966.8273	2392.492	1936.3	1051.4
966.9578	2393.8876	1930.75	1042.9
967.0882	2395.2824	1925	1038.05
967.2186	2396.6765	1916.8	1030.6
967.349	2398.07	1912.45	1023.9
967.4793	2399.4627	1917.05	1027.95
967.6097	2400.8547	1910.6	1023.65
967.7399	2402.246	1912.2	1014.9
967.8702	2403.6366	1914.2	1026.45
968.0004	2405.0265	1898.5	1013.2
968.1306	2406.4156	1908.1	1016.85
968.2607	2407.8041	1906.65	1014.45
968.3909	2409.1918	1897.2	1005.9
968.521	2410.5789	1897.85	1008.05
968.651	2411.9652	1890.4	998.65
968.781	2413.3508	1888.05	1000.3
968.911	2414.7358	1881.2	993.45
969.041	2416.12	1883	994.1
969.1709	2417.5035	1874.8	987.05
969.3008	2418.8863	1874.65	985.75
969.4307	2420.2684	1872.5	984.95
969.5606	2421.6497	1867.15	976.7
969.6904	2423.0304	1847.9	958.9
969.8201	2424.4104	1860.05	970.7
969.9499	2425.7896	1862	972.4
970.0796	2427.1682	1865.1	978.7
970.2093	2428.546	1853.95	965.7
970.3389	2429.9232	1849.75	959.15
970.4685	2431.2996	1843.75	955.4
970.5981	2432.6753	1845.1	954.3
970.7277	2434.0503	1839.75	951.05
970.8572	2435.4246	1833.5	945.5
970.9867	2436.7982	1843.8	951.5
971.1161	2438.1711	1841.35	953
971.2456	2439.5433	1839.75	948
971.375	2440.9148	1829.9	934.25
971.5043	2442.2856	1815.3	926.4
971.6336	2443.6557	1821.6	931.15
971.7629	2445.025	1809.5	919.6
971.8922	2446.3937	1821.75	930.9
972.0214	2447.7617	1814.75	925.55
972.1506	2449.1289	1822	933.8
972.2798	2450.4955	1812.85	920.7
972.4089	2451.8613	1805.3	918.8
972.538	2453.2265	1803.65	915.45
972.6671	2454.5909	1802.9	912.35
972.7961	2455.9546	1794.15	905.25
972.9251	2457.3177	1792.85	904.05
973.0541	2458.68	1790.1	899.3
973.1831	2460.0416	1789.2	900.85
973.312	2461.4025	1788.95	897.65
973.4408	2462.7627	1795.7	898.05
973.5697	2464.1222	1783.95	897.35
973.6985	2465.4811	1786.35	897.9
973.8273	2466.8392	1780.45	892.6
973.956	2468.1966	1789	898.35
974.0847	2469.5533	1788.4	895.7
974.2134	2470.9093	1788.35	899.6
974.3421	2472.2645	1773.7	884.55
974.4707	2473.6191	1776.75	888
974.5993	2474.973	1773.3	882.35
974.7278	2476.3262	1770.3	879.8
974.8563	2477.6787	1776.3	888.55
974.9848	2479.0305	1763.8	875.15
975.1132	2480.3816	1755.1	864.1
975.2417	2481.7319	1763.9	873.95
975.37	2483.0816	1753.35	861.6
975.4984	2484.4306	1752.75	863.65
975.6267	2485.7789	1744.3	856.05
975.755	2487.1264	1740.3	852.25
975.8833	2488.4733	1739.3	851.05
976.0115	2489.8195	1748.45	844.6
976.1397	2491.165	1739.95	848.8
976.2678	2492.5097	1732.35	843.7
976.3959	2493.8538	1724.05	836.45
976.524	2495.1972	1726.4	838.2
976.6521	2496.5398	1721.4	830.1
976.7801	2497.8818	1729.05	836.35
976.9081	2499.2231	1723.2	834.55
977.036	2500.5637	1715.8	824.9
977.164	2501.9035	1717.9	825.15
977.2918	2503.2427	1707.95	813.65
977.4197	2504.5812	1707.8	820.65
977.5475	2505.919	1711.45	819
977.6753	2507.256	1709.65	820.35
977.8031	2508.5924	1706.7	817.8
977.9308	2509.9281	1709.15	814
978.0585	2511.2631	1706.2	817.65
978.1861	2512.5974	1693.1	804.05
978.3137	2513.9309	1691.9	800.7
978.4413	2515.2638	1712.15	795.85
978.5689	2516.596	1689.65	799.9
978.6964	2517.9275	1684.45	793.65
978.8239	2519.2583	1687.3	796.25
978.9513	2520.5884	1684.9	794.8
979.0788	2521.9178	1678.85	789.7
979.2062	2523.2465	1669.5	780.85
979.3335	2524.5745	1670.35	782.1
979.4608	2525.9018	1676.9	786.25
979.5881	2527.2284	1671.55	782.25
979.7154	2528.5543	1667.5	778.8
979.8426	2529.8796	1673.2	782.55
979.9698	2531.2041	1667.15	779.05
980.0969	2532.5279	1668.3	780.65
980.224	2533.851	1669.9	781.5
980.3511	2535.1735	1656	766.75
980.4781	2536.4952	1652	760.65
980.6052	2537.8163	1664.3	773.05
980.7321	2539.1366	1655.3	766
980.8591	2540.4562	1657.4	765.05
980.986	2541.7752	1656.75	767.05
981.1129	2543.0935	1656	764.6
981.2397	2544.411	1648.15	753.75
981.3665	2545.7279	1645.65	755.85
981.4933	2547.0441	1645.3	754.9
981.62	2548.3596	1647	754.15
981.7467	2549.6744	1638.75	747.9
981.8734	2550.9885	1639.3	746
982.0001	2552.3019	1643	752.2
982.1267	2553.6146	1632.3	744.65
982.2532	2554.9266	1640.65	749.3
982.3798	2556.2379	1637.4	744.7
982.5063	2557.5485	1635.1	745.9
982.6327	2558.8585	1629.9	734.25
982.7592	2560.1677	1632.3	737.3
982.8856	2561.4762	1621.75	732
983.0119	2562.7841	1633.5	739.65
983.1383	2564.0913	1619.25	732.15
983.2646	2565.3977	1616.35	725.8
983.3908	2566.7035	1610.55	721.6
983.517	2568.0086	1617.35	723.5
983.6432	2569.313	1614.75	723.1
983.7694	2570.6167	1627.25	732.75
983.8955	2571.9197	1611.2	720.45
984.0216	2573.222	1618.8	724.85
984.1476	2574.5236	1613.95	724.5
984.2737	2575.8246	1616.15	722.75
984.3996	2577.1248	1614.95	721.3
984.5256	2578.4244	1610.55	720.15
984.6515	2579.7232	1609.35	720.1
984.7774	2581.0214	1629.95	714.55
984.9032	2582.3189	1608.2	716.85
985.029	2583.6157	1608.35	712.95
985.1548	2584.9118	1608.3	717.5
985.2806	2586.2072	1603.65	714.85
985.4063	2587.5019	1603.9	715.5
985.5319	2588.7959	1598.9	707
985.6576	2590.0893	1612.9	720.6
985.7832	2591.3819	1606.05	714.9
985.9087	2592.6739	1606.75	718.1
986.0343	2593.9652	1610.25	719.1
986.1597	2595.2557	1602.25	710.25
986.2852	2596.5456	1606.9	715.3
986.4106	2597.8348	1604.25	713.75
986.536	2599.1234	1609.3	720.1
986.6614	2600.4112	1609.15	720.2
986.7867	2601.6983	1610.15	717.8
986.912	2602.9848	1612.1	721.15
987.0372	2604.2705	1598.6	700.8
987.1624	2605.5556	1599.8	710
987.2876	2606.84	1598	708
987.4128	2608.1237	1594.4	702.9
987.5379	2609.4067	1595.95	706.45
987.6629	2610.689	1601.35	702.8
987.788	2611.9707	1591.15	697.3
987.913	2613.2516	1586	689.5
988.0379	2614.5319	1579.8	691
988.1629	2615.8115	1580.4	690.35
988.2878	2617.0903	1582.55	688.8
988.4126	2618.3685	1572.65	682.1
988.5375	2619.6461	1575.1	686.15
988.6622	2620.9229	1578.8	688.15
988.787	2622.199	1572.45	681.7
988.9117	2623.4745	1573.85	681.45
989.0364	2624.7493	1576.15	687.5
989.161	2626.0234	1565.75	677.5
989.2857	2627.2968	1567.5	677.5
989.4102	2628.5695	1569.55	678.35
989.5348	2629.8415	1562.3	673.7
989.6593	2631.1128	1568.15	677.3
989.7837	2632.3835	1564.75	677.7
989.9082	2633.6535	1556.05	665.8
990.0326	2634.9228	1553.2	664.65
990.1569	2636.1914	1553.55	665.25
990.2812	2637.4593	1554.45	665.75
990.4055	2638.7265	1564.95	674.6
990.5298	2639.9931	1557.3	668.65
990.654	2641.259	1559.6	669.25
990.7782	2642.5242	1548.05	659.1
990.9023	2643.7887	1550.2	660.15
991.0264	2645.0525	1546.8	658.5
991.1505	2646.3156	1544.35	654.35
991.2745	2647.5781	1542.35	653.65
991.3985	2648.8398	1534.45	645.5
991.5225	2650.1009	1539.15	642.9
991.6464	2651.3613	1533.65	645.9
991.7703	2652.6211	1532.1	642.55
991.8942	2653.8801	1535.35	649.6
992.018	2655.1385	1532	642.35
992.1418	2656.3961	1531.7	641.8
992.2655	2657.6531	1543.65	656.1
992.3892	2658.9094	1527.95	638.95
992.5129	2660.1651	1535.25	646.2
992.6366	2661.42	1525.45	636.7
992.7602	2662.6743	1532.4	641.6
992.8837	2663.9279	1535.05	648.2
993.0073	2665.1808	1536.8	647.5
993.1307	2666.433	1537.3	648.7
993.2542	2667.6846	1536.25	647.15
993.3776	2668.9354	1547.25	654.65
993.501	2670.1856	1541	648.35
993.6244	2671.4351	1533.15	644.25
993.7477	2672.6839	1545.65	655.05
993.8709	2673.9321	1541.35	653.45
993.9942	2675.1795	1542.75	654.1
994.1174	2676.4263	1544.1	656.45
994.2405	2677.6724	1551.7	664.55
994.3637	2678.9179	1545.85	657.25
994.4868	2680.1626	1543.8	657.15
994.6098	2681.4067	1550.95	660.35
994.7328	2682.6501	1553.85	663.3
994.8558	2683.8928	1544.8	654.7
994.9788	2685.1348	1535.5	647.45
995.1017	2686.3761	1534.4	643.9
995.2245	2687.6168	1530.7	640.7
995.3474	2688.8568	1528.1	640.2
995.4702	2690.0961	1523.85	637.05
995.5929	2691.3348	1527.35	639.45
995.7156	2692.5727	1521.7	631.6
995.8383	2693.81	1521.35	631.65
995.961	2695.0466	1515.35	627.6
996.0836	2696.2826	1513.65	622.35
996.2062	2697.5178	1519.25	625.45
996.3287	2698.7524	1517.75	627.1
996.4512	2699.9863	1520.6	628.5
996.5737	2701.2195	1515.4	628.2
996.6961	2702.452	1523.65	633.15
996.8185	2703.6839	1524.55	634.4
996.9408	2704.9151	1533.25	645.45
997.0631	2706.1456	1528.9	638.7
997.1854	2707.3755	1536.85	650.45
997.3077	2708.6046	1553.05	661.85
997.4299	2709.8331	1550.3	660.2
997.552	2711.0609	1553.1	663.5
997.6742	2712.2881	1555.6	668.25
997.7963	2713.5145	1572.2	679.2
997.9183	2714.7403	1582.1	696.4
998.0403	2715.9654	1590.65	703.05
998.1623	2717.1899	1607	705.3
998.2842	2718.4136	1614.75	726.35
998.4062	2719.6367	1626.6	738.2
998.528	2720.8591	1634.1	739.65
998.6498	2722.0809	1648.45	757.8
998.7716	2723.3019	1655.25	764.55
998.8934	2724.5223	1665.05	775.7
999.0151	2725.7421	1671.8	781.4
999.1368	2726.9611	1671.9	781.3
999.2584	2728.1795	1667.7	776.1
999.38	2729.3972	1652.2	766.45
999.5016	2730.6142	1661.7	761.75
999.6231	2731.8306	1630.45	741.55
999.7446	2733.0462	1617.7	729.45
999.8661	2734.2612	1610.15	717.2
999.9875	2735.4756	1589.9	700.55
1000.1089	2736.6892	1567.25	679.35
1000.2302	2737.9022	1550.25	664.15
1000.3515	2739.1145	1542.65	655.95
1000.4728	2740.3262	1536.9	642.65
1000.594	2741.5372	1513.4	624.8
1000.7152	2742.7475	1503.75	615.75
1000.8363	2743.9571	1490.5	600.65
1000.9575	2745.1661	1493.55	603.2
1001.0785	2746.3744	1477.95	587.85
1001.1996	2747.582	1470.65	581.15
1001.3206	2748.7889	1458.8	569.7
1001.4415	2749.9952	1445.45	559.75
1001.5625	2751.2008	1444.6	556.1
1001.6833	2752.4057	1447.05	558.45
1001.8042	2753.61	1445.35	557.15
1001.925	2754.8136	1433.7	544.05
1002.0458	2756.0165	1437.15	549.55
1002.1665	2757.2188	1431.65	548.05
1002.2872	2758.4204	1427.45	541.3
1002.4078	2759.6213	1439.7	550.25
1002.5285	2760.8215	1437.9	549.05
1002.649	2762.0211	1439.8	548.4
1002.7696	2763.22	1439.4	549.15
1002.8901	2764.4182	1435.55	546.55
1003.0106	2765.6158	1432.85	547.05
1003.131	2766.8127	1420.8	532.85
1003.2514	2768.009	1418.6	533.3
1003.3717	2769.2045	1416.15	530
1003.492	2770.3994	1414.75	525.9
1003.6123	2771.5936	1412.75	524.3
1003.7325	2772.7872	1405.65	522.35
1003.8527	2773.9801	1406.7	518.45
1003.9729	2775.1723	1422.4	517.65
1004.093	2776.3639	1395.4	508.45
1004.2131	2777.5548	1409.95	521.2
1004.3331	2778.745	1405.85	519.8
1004.4531	2779.9346	1407.45	520.95
1004.5731	2781.1235	1408.15	519.75
1004.693	2782.3117	1408.1	523.15
1004.8129	2783.4992	1407.5	521.2
1004.9328	2784.6861	1411.6	526.25
1005.0526	2785.8723	1420.8	530.85
1005.1723	2787.0579	1426.1	537.95
1005.2921	2788.2428	1434.85	548.15
1005.4118	2789.427	1434.9	548.05
1005.5314	2790.6106	1448.8	564.65
1005.651	2791.7935	1459.05	571.55
1005.7706	2792.9757	1463	577.2
1005.8902	2794.1573	1474.3	586.85
1006.0097	2795.3382	1494	608.55
1006.1291	2796.5184	1496.95	609.5
1006.2485	2797.698	1512.55	624.3
1006.3679	2798.8769	1524.65	639.4
1006.4873	2800.0551	1537.9	652.25
1006.6066	2801.2327	1558.7	669.8
1006.7258	2802.4096	1565.85	679.3
1006.8451	2803.5859	1578.95	692.2
1006.9642	2804.7615	1611.1	722.7
1007.0834	2805.9364	1628.55	744.75
1007.2025	2807.1106	1651.4	764.3
1007.3216	2808.2842	1681.55	796.25
1007.4406	2809.4572	1703.6	817.6
1007.5596	2810.6294	1742	855.35
1007.6785	2811.801	1774.4	888.95
1007.7975	2812.972	1823.55	939.3
1007.9163	2814.1423	1848.9	963.15
1008.0352	2815.3119	1905.15	1019.7
1008.154	2816.4808	1952.85	1068.95
1008.2727	2817.6491	1997.1	1110.7
1008.3914	2818.8167	2048	1163.4
1008.5101	2819.9837	2097.55	1206.85
1008.6288	2821.15	2146.55	1261.7
1008.7474	2822.3157	2207	1320.2
1008.8659	2823.4807	2240.85	1354.7
1008.9844	2824.645	2301.1	1415.25
1009.1029	2825.8086	2343.1	1456.65
1009.2214	2826.9716	2391.15	1507.9
1009.3398	2828.134	2439.15	1552.5
1009.4581	2829.2957	2479.35	1593.75
1009.5764	2830.4567	2510.6	1627.5
1009.6947	2831.617	2535.9	1648.95
1009.813	2832.7767	2541.35	1655.95
1009.9312	2833.9358	2547.55	1660.85
1010.0493	2835.0941	2549	1662.3
1010.1675	2836.2519	2532.4	1648.65
1010.2855	2837.4089	2516.05	1630.5
1010.4036	2838.5653	2505.55	1620.55
1010.5216	2839.7211	2496.1	1610.75
1010.6396	2840.8761	2508.3	1622.35
1010.7575	2842.0306	2525.4	1640
1010.8754	2843.1843	2554.8	1670.7
1010.9932	2844.3374	2604.85	1719.5
1011.111	2845.4899	2660.65	1775.25
1011.2288	2846.6417	2714.2	1828.05
1011.3465	2847.7928	2786.65	1903.3
1011.4642	2848.9433	2866.15	1981.1
1011.5818	2850.0931	2932.75	2048.2
1011.6995	2851.2422	2981.7	2094.65
1011.817	2852.3907	3043.5	2157.6
1011.9345	2853.5385	3131.15	2245.95
1012.052	2854.6857	3192.8	2296.65
1012.1695	2855.8323	3230.8	2345.25
1012.2869	2856.9781	3274.1	2388.25
1012.4042	2858.1233	3324.15	2441.15
1012.5216	2859.2679	3374.2	2489.65
1012.6389	2860.4118	3414.95	2527.5
1012.7561	2861.555	3463.3	2574.25
1012.8733	2862.6976	3512.35	2627.2
1012.9905	2863.8395	3527.75	2645.35
1013.1076	2864.9808	3554.6	2670.65
1013.2247	2866.1214	3580.4	2694.65
1013.3417	2867.2614	3597.1	2713.45
1013.4587	2868.4007	3597.55	2712.8
1013.5757	2869.5393	3609.15	2720.75
1013.6926	2870.6773	3639.3	2749.3
1013.8095	2871.8146	3655	2766.15
1013.9263	2872.9513	3649.6	2761.9
1014.0431	2874.0874	3649.4	2763.3
1014.1599	2875.2227	3627.25	2740
1014.2766	2876.3574	3613.95	2728.8
1014.3933	2877.4915	3579.3	2695.9
1014.51	2878.6249	3560.95	2677.9
1014.6266	2879.7577	3524.7	2638.4
1014.7431	2880.8898	3521.25	2626.3
1014.8596	2882.0212	3499.25	2616.05
1014.9761	2883.152	3491.4	2606.55
1015.0925	2884.2821	3486.35	2602.65
1015.2089	2885.4116	3473.05	2587.1
1015.3253	2886.5405	3473.25	2590.55
1015.4416	2887.6686	3466.35	2579.3
1015.5579	2888.7962	3492.6	2611.6
1015.6741	2889.923	3491.9	2608.05
1015.7903	2891.0493	3507.6	2625.7
1015.9065	2892.1748	3519.1	2636.7
1016.0226	2893.2997	3531.65	2647.8
1016.1387	2894.424	3542.1	2659.15
1016.2547	2895.5476	3562.25	2677.6
1016.3707	2896.6706	3581.7	2699.55
1016.4866	2897.7929	3607.3	2723.25
1016.6025	2898.9145	3646.75	2761.4
1016.7184	2900.0355	3659.4	2774.9
1016.8342	2901.1559	3695.2	2810.7
1016.95	2902.2756	3722.9	2837.9
1017.0658	2903.3946	3763.95	2883.15
1017.1815	2904.513	3788.35	2901.8
1017.2971	2905.6308	3810.7	2926.65
1017.4127	2906.7479	3835.6	2949.9
1017.5283	2907.8643	3857.4	2975.7
1017.6439	2908.9801	3872	2989.3
1017.7594	2910.0953	3895.2	3011.85
1017.8748	2911.2098	3893.7	3008.95
1017.9902	2912.3236	3889.25	2998.65
1018.1056	2913.4368	3890.5	3002.95
1018.2209	2914.5494	3853.25	2970.25
1018.3362	2915.6613	3822.55	2934.45
1018.4515	2916.7725	3783.9	2898.65
1018.5667	2917.8831	3764.95	2880.35
1018.6819	2918.9931	3744.45	2858.4
1018.797	2920.1024	3716	2831.9
1018.9121	2921.211	3698.2	2815.8
1019.0271	2922.319	3659.7	2775
1019.1421	2923.4264	3640.3	2759.4
1019.2571	2924.5331	3635.5	2754.9
1019.372	2925.6391	3632.3	2749.4
1019.4869	2926.7445	3617	2735.85
1019.6017	2927.8493	3611.2	2724.6
1019.7165	2928.9534	3616.05	2732.3
1019.8313	2930.0569	3611.95	2726.85
1019.946	2931.1597	3613.95	2729.3
1020.0606	2932.2619	3602.3	2718.8
1020.1753	2933.3634	3598.3	2716.35
1020.2899	2934.4643	3616.3	2726.75
1020.4044	2935.5645	3581.65	2691.95
1020.5189	2936.6641	3556.25	2668.9
1020.6334	2937.763	3514.35	2633.2
1020.7478	2938.8613	3470.5	2587.7
1020.8622	2939.959	3423.25	2534.4
1020.9765	2941.056	3363.5	2482.1
1021.0908	2942.1523	3275.05	2390.55
1021.2051	2943.248	3194.6	2310.95
1021.3193	2944.3431	3095.5	2211.95
1021.4334	2945.4375	2989.9	2107.9
1021.5476	2946.5313	2906.25	2027.35
1021.6617	2947.6244	2803.45	1919.05
1021.7757	2948.7169	2694.7	1810.6
1021.8897	2949.8087	2608.55	1725.9
1022.0037	2950.8999	2512.55	1630.7
1022.1176	2951.9904	2438.05	1554.65
1022.2315	2953.0803	2365.15	1481.4
1022.3453	2954.1696	2300.6	1418.25
1022.4591	2955.2582	2252.15	1368.9
1022.5728	2956.3462	2201.2	1318.85
1022.6865	2957.4335	2166.65	1283.7
1022.8002	2958.5202	2138.9	1253.9
1022.9138	2959.6062	2100.05	1217.3
1023.0274	2960.6916	2078.65	1198.1
1023.141	2961.7764	2057.45	1172.9
1023.2545	2962.8605	2046.15	1164.45
1023.3679	2963.9439	2031.3	1150.1
1023.4813	2965.0267	2011.8	1128.05
1023.5947	2966.1089	2031.65	1127.35
1023.708	2967.1905	2006.05	1123.75
1023.8213	2968.2714	2006.2	1126
1023.9346	2969.3516	2005	1123.1
1024.0478	2970.4312	2001.25	1112.15
1024.1609	2971.5102	2005.75	1124.2
1024.274	2972.5885	2008.95	1128.3
1024.3871	2973.6662	2015.5	1129.95
1024.5002	2974.7432	2006.2	1124.85
1024.6132	2975.8196	2001.05	1119.35
1024.7261	2976.8954	1991.3	1109.3
1024.839	2977.9705	1981.05	1094.45
1024.9519	2979.045	1970.5	1088.65
1025.0647	2980.1188	1955.65	1073.35
1025.1775	2981.192	1926.85	1048.1
1025.2902	2982.2645	1910.7	1027.15
1025.4029	2983.3364	1886.35	1004.35
1025.5156	2984.4077	1867.95	987.4
1025.6282	2985.4783	1836.5	946.55
1025.7407	2986.5483	1798	915.7
1025.8532	2987.6177	1777.5	897.85
1025.9657	2988.6864	1735.1	851.9
1026.0782	2989.7545	1709.6	826.6
1026.1906	2990.8219	1668.5	788.9
1026.3029	2991.8887	1648.1	762.6
1026.4152	2992.9548	1614.8	732.5
1026.5275	2994.0204	1580.45	698.2
1026.6397	2995.0852	1550.35	668.15
1026.7519	2996.1495	1523.4	639.5
1026.864	2997.2131	1500	618.55
1026.9761	2998.276	1479	596.2
1027.0882	2999.3383	1461.45	579.2
1027.2002	3000.4	1436.2	551.6
1027.3122	3001.4611	1422.6	542.1
1027.4241	3002.5215	1403.25	520.6
1027.536	3003.5812	1387.6	507.35
1027.6478	3004.6404	1375.4	491.95
1027.7596	3005.6989	1363.35	479.85
1027.8714	3006.7567	1364.85	485.05
1027.9831	3007.8139	1377.55	464.1
1028.0947	3008.8705	1341	459.6
1028.2064	3009.9264	1336.05	450.05
1028.3179	3010.9818	1330.5	449.05
1028.4295	3012.0364	1323.1	440.55
1028.541	3013.0905	1325.4	442.35
1028.6524	3014.1439	1319.9	438.85
1028.7638	3015.1966	1313.1	431.65
1028.8752	3016.2487	1309.3	428.45
1028.9865	3017.3002	1314.6	425.85
1029.0978	3018.3511	1307.4	425.95
1029.209	3019.4013	1304.5	422.55
1029.3202	3020.4509	1305.45	426.05
1029.4314	3021.4998	1305.55	424.8
1029.5425	3022.5481	1301.55	420
1029.6535	3023.5958	1303.7	424.15
1029.7645	3024.6428	1305.9	422.45
1029.8755	3025.6892	1305.1	423.65
1029.9864	3026.735	1311.2	428.8
1030.0973	3027.7802	1308.8	428.65
1030.2082	3028.8247	1308	425.8
1030.319	3029.8685	1304.45	423.55
1030.4297	3030.9118	1312.55	430.3
1030.5404	3031.9544	1313.85	432.85
1030.6511	3032.9963	1318.55	438.85
1030.7617	3034.0376	1323.6	442.15
1030.8723	3035.0783	1328.2	445.25
1030.9829	3036.1184	1328.3	447.7
1031.0934	3037.1578	1329.25	450.75
1031.2038	3038.1966	1340.25	456.65
1031.3142	3039.2348	1343.05	463.9
1031.4246	3040.2723	1346.25	458.7
1031.5349	3041.3092	1335.65	457.35
1031.6452	3042.3455	1334.15	451.5
1031.7554	3043.3811	1337.9	455.75
1031.8656	3044.4161	1338.95	455.25
1031.9758	3045.4505	1324.8	445.65
1032.0859	3046.4842	1319.85	437.45
1032.1959	3047.5173	1309.6	431.05
1032.3059	3048.5498	1310.9	430.95
1032.4159	3049.5816	1299.4	418.85
1032.5258	3050.6128	1297.5	416.15
1032.6357	3051.6434	1292.6	411.1
1032.7455	3052.6734	1295.45	412.5
1032.8553	3053.7027	1288.65	404.65
1032.9651	3054.7314	1278.75	398.45
1033.0748	3055.7594	1274.15	391.85
1033.1845	3056.7868	1279.55	397.95
1033.2941	3057.8136	1262.25	380.8
1033.4037	3058.8398	1265.65	384.3
1033.5132	3059.8653	1262.9	383.2
1033.6227	3060.8902	1256.6	375.6
1033.7321	3061.9145	1251.6	369
1033.8415	3062.9381	1249.1	367.4
1033.9509	3063.9612	1260.1	361.5
1034.0602	3064.9835	1240.9	362.9
1034.1694	3066.0053	1235.3	353.2
1034.2787	3067.0264	1233.3	352.1
1034.3878	3068.0469	1220.1	336.15
1034.497	3069.0668	1218.65	333.7
1034.6061	3070.086	1209.2	331.75
1034.7151	3071.1046	1200.35	318.65
1034.8241	3072.1226	1198.25	317.8
1034.9331	3073.1399	1187.35	306.6
1035.042	3074.1567	1177.1	296.1
1035.1508	3075.1727	1179.1	296.7
1035.2597	3076.1882	1159.25	280.65
1035.3684	3077.203	1154.7	273.4
1035.4772	3078.2173	1148.85	268.5
1035.5859	3079.2308	1147.55	260.9
1035.6945	3080.2438	1136.9	253.85
1035.8031	3081.2561	1128.15	249.6
1035.9117	3082.2678	1120.85	241.3
1036.0202	3083.2789	1114.15	231.95
1036.1286	3084.2893	1108.15	227.9
1036.2371	3085.2991	1099.05	218.15
1036.3454	3086.3083	1103.2	217.1
1036.4538	3087.3169	1097.95	216.15
1036.562	3088.3248	1094	211.7
1036.6703	3089.3321	1087	204.55
1036.7785	3090.3388	1082.45	201.8
1036.8866	3091.3449	1073.3	193.85
1036.9948	3092.3503	1077.1	195.05
1037.1028	3093.3551	1068.3	189.7
1037.2108	3094.3593	1064.85	186.7
1037.3188	3095.3629	1063.7	185.45
1037.4267	3096.3658	1065.8	182.5
1037.5346	3097.3681	1054.8	176.1
1037.6425	3098.3698	1052.95	170.5
1037.7503	3099.3708	1060.6	175.4
1037.858	3100.3713	1050.8	174.45
1037.9657	3101.3711	1048.05	165.85
1038.0734	3102.3702	1184.85	171.25
1038.181	3103.3688	1042.05	159.15
1038.2886	3104.3667	1042.35	162.4
1038.3961	3105.364	1038.8	158.85
1038.5036	3106.3607	1038.6	154.5
1038.611	3107.3568	1036.85	154.1
1038.7184	3108.3522	1035	155.95
1038.8257	3109.347	1034	155.5
1038.933	3110.3412	1034.05	149.25
1039.0403	3111.3348	1027.45	148.4
1039.1475	3112.3277	1027	147.4
1039.2547	3113.32	1025.3	146.3
1039.3618	3114.3117	1024.45	142.25
1039.4689	3115.3028	1023.05	145.15
1039.5759	3116.2932	1025.8	145.2
1039.6829	3117.2831	1030.3	143.8
1039.7898	3118.2723	1016.15	135.3
1039.8967	3119.2608	1020.3	139.65
1040.0035	3120.2488	1017.45	138.4
1040.1103	3121.2361	1020.1	140.3
1040.2171	3122.2229	1013.15	132.4
1040.3238	3123.209	1012.2	131.8
1040.4305	3124.1944	1011.7	132.7
1040.5371	3125.1793	1010	129.5
1040.6437	3126.1635	1010.45	133.1
1040.7502	3127.1471	1004.4	124.25
1040.8567	3128.1301	1006.4	127.65
1040.9631	3129.1125	1008.1	128.9
1041.0695	3130.0942	1003.65	125.1
1041.1759	3131.0753	1011.3	123.15
1041.2822	3132.0558	1001.35	118.35
1041.3884	3133.0357	1001.8	121.45
1041.4946	3134.015	1000.05	119.65
1041.6008	3134.9936	996.95	115.2
1041.7069	3135.9716	1019.65	121.25
1041.813	3136.949	1000.85	121.55
1041.919	3137.9258	1014.2	115.65
1042.025	3138.902	1000.5	114.7
1042.1309	3139.8775	994.15	115.7
1042.2368	3140.8524	991.55	111.55
1042.3427	3141.8267	995	113.5
1042.4485	3142.8004	990.75	110.8
1042.5542	3143.7735	997.9	110.45
1042.6599	3144.7459	990.45	108.45
1042.7656	3145.7178	989.15	109.4
1042.8712	3146.689	983.85	105.6
1042.9768	3147.6596	989	107.9
1043.0823	3148.6295	987.1	107.35
1043.1878	3149.5989	986	105.4
1043.2932	3150.5676	983.2	106.3
1043.3986	3151.5357	980.65	100.95
1043.5039	3152.5032	981.95	102.95
1043.6092	3153.4701	979.1	100.55
1043.7145	3154.4364	982.95	100.25
1043.8197	3155.402	980.1	102.6
1043.9248	3156.367	978.25	99.7
1044.03	3157.3315	1010.05	100.6
1044.135	3158.2952	977.1	99.05
1044.24	3159.2584	975.1	96
1044.345	3160.221	974.7	95.8
1044.4499	3161.1829	973.85	95.9
1044.5548	3162.1442	971.35	92.05
1044.6596	3163.105	973.5	94.5
1044.7644	3164.065	974.4	94.2
1044.8692	3165.0245	973.7	93
1044.9739	3165.9834	968.8	91.55
1045.0785	3166.9416	969.2	90.2
1045.1831	3167.8993	971.65	92.85
1045.2877	3168.8563	971.25	93.35
1045.3922	3169.8127	966.55	86.45
1045.4966	3170.7684	967.5	86.35
1045.6011	3171.7236	972.3	92.6
1045.7054	3172.6782	968.2	89.7
1045.8098	3173.6321	966.8	87.95
1045.914	3174.5854	972.55	89.75
1046.0183	3175.5381	964.7	86.4
1046.1224	3176.4902	966.95	87.3
1046.2266	3177.4417	963.2	85.2
1046.3307	3178.3926	961.9	80.7
1046.4347	3179.3428	960.55	82.75
1046.5387	3180.2924	964.05	83.95
1046.6427	3181.2415	959.15	80.7
1046.7466	3182.1899	959.2	80.4
1046.8504	3183.1377	957.3	80.8
1046.9542	3184.0848	964.6	81
1047.058	3185.0314	959.7	80.45
1047.1617	3185.9773	959.35	82.25
1047.2654	3186.9227	957.7	79.4
1047.369	3187.8674	957.1	77.8
1047.4726	3188.8115	961.2	77.15
1047.5761	3189.755	957.85	80.15
1047.6796	3190.6979	959.7	81.4
1047.783	3191.6402	957.55	80.05
1047.8864	3192.5818	952.55	73.75
1047.9898	3193.5229	972.7	78.2
1048.0931	3194.4633	955.25	75.4
1048.1963	3195.4031	956.5	76.8
1048.2995	3196.3423	955.8	76.1
1048.4027	3197.2809	954.15	75.75
1048.5058	3198.2189	955	75.55
1048.6089	3199.1563	960.7	73.85
1048.7119	3200.0931	951.65	73.45
1048.8148	3201.0292	948.7	70.75
1048.9178	3201.9648	952.65	71.5
1049.0206	3202.8997	951.7	71
1049.1235	3203.834	951.2	71.7
1049.2262	3204.7677	952.2	75.35
1049.329	3205.7008	950.85	69.4
1049.4317	3206.6333	947.5	69.7
1049.5343	3207.5652	951.35	70.9
1049.6369	3208.4964	949.2	68.65
1049.7394	3209.4271	945.75	68.75
1049.8419	3210.3571	947.6	69.25
1049.9444	3211.2865	948.2	68.25
1050.0468	3212.2154	948.1	71.3
1050.1491	3213.1436	949.95	69.25
1050.2514	3214.0712	953.2	69.6
1050.3537	3214.9982	944.05	65.8
1050.4559	3215.9246	946.9	68
1050.5581	3216.8503	945.3	65.7
1050.6602	3217.7755	945	64.95
1050.7623	3218.7001	946.55	68.5
1050.8643	3219.624	944.4	65.45
1050.9663	3220.5473	942.35	64.05
1051.0682	3221.4701	944.4	67.2
1051.1701	3222.3922	945.7	65.55
1051.2719	3223.3137	943.7	66.35
1051.3737	3224.2346	940.75	61.05
1051.4754	3225.1549	945.4	67.05
1051.5771	3226.0746	940.85	64.75
1051.6788	3226.9937	941.5	63.4
1051.7804	3227.9121	941.05	65.3
1051.8819	3228.83	940.3	62.85
1051.9834	3229.7473	940.4	60.9
1052.0849	3230.6639	940.95	62.5
1052.1863	3231.5799	938.95	60.1
1052.2876	3232.4954	939.9	60.7
1052.3889	3233.4102	937.5	58.65
1052.4902	3234.3244	939	60.75
1052.5914	3235.238	936.9	59
1052.6926	3236.151	962.75	62.6
1052.7937	3237.0634	935.05	59.6
1052.8948	3237.9752	935.65	56.6
1052.9958	3238.8864	940.6	61.45
1053.0968	3239.797	937.95	60.85
1053.1977	3240.7069	933.5	53.2
1053.2986	3241.6163	935.85	55.9
1053.3994	3242.5251	934.85	59.4
1053.5002	3243.4332	935.3	59.25
1053.6009	3244.3408	933.8	54.9
1053.7016	3245.2477	933.85	55.35
1053.8022	3246.154	935	56.75
1053.9028	3247.0598	932.15	54.1
1054.0034	3247.9649	932.4	54.2
1054.1039	3248.8694	932.35	54.65
1054.2043	3249.7733	929.55	54.65
1054.3047	3250.6766	928.7	49.25
1054.4051	3251.5793	929.6	52.4
1054.5054	3252.4814	928.15	51.6
1054.6056	3253.3829	930.15	52.8
1054.7058	3254.2838	929.55	52.95
1054.806	3255.1841	928.95	51.4
1054.9061	3256.0838	927.2	49.2
1055.0061	3256.9829	925.85	48.7
1055.1062	3257.8814	926.55	46.3
1055.2061	3258.7792	928.3	49.6
1055.306	3259.6765	925.1	46.75
1055.4059	3260.5731	923.6	46.8
1055.5057	3261.4692	924.05	46.75
1055.6055	3262.3647	921.15	40.85
1055.7052	3263.2595	920.6	45.5
1055.8049	3264.1538	919.9	39.9
1055.9045	3265.0474	922.15	45.75
1056.0041	3265.9404	919.35	41.7
1056.1036	3266.8329	919.9	43
1056.2031	3267.7247	929.85	42.95
1056.3025	3268.616	916.25	40.35
1056.4019	3269.5066	918.7	41.35
1056.5013	3270.3966	918.95	39.85
1056.6005	3271.286	912.25	35.75
