Software Version:	3.9.2.0
Unit SN:	10000200
Spectrometer SN:	6960
Date:	3/8/2024 12:39:14 PM
Data Line Index:	25
Spectral Points:	2048
Integration time (ms):	125
Averages:	20
Delay (ms):	30000
Sequence Number:	1
Processing:	dark subtract
Laser Power (mW):	305
Laser Current (mA):	822
Laser Diode Temp (C):	25
Laser Case Temp (C):	26
System Temp (C):	26
Spectrometer Temp (C):	23.8
CCD Temp (C):	0.007
Secondary Temp (C):	20.007
Heatsink Temp (C):	21.004
CCDPCB Temp (C):	36.229
SecondaryPCB Temp (C):	29.793

Wavelength	RamanShift	Raw Counts	Dark Subtracted
787.061	30.1047	451.3	43.6
787.2016	32.3739	452.8	46.15
787.3422	34.6426	457.1	49
787.4828	36.9109	460.6	51.2
787.6235	39.1787	469.35	53.85
787.7642	41.4461	478.85	59.95
787.9049	43.7131	488.75	66.1
788.0456	45.9796	496.1	72.9
788.1863	48.2456	505.55	77.15
788.3271	50.5112	512.85	80.7
788.4679	52.7764	522.3	87.4
788.6087	55.0411	530.9	89.9
788.7496	57.3054	540.1	92.5
788.8904	59.5692	547.1	99.6
789.0313	61.8326	563.2	114.1
789.1722	64.0955	571	119.05
789.3132	66.3579	588.6	129.45
789.4541	68.6199	610.35	147.75
789.5951	70.8815	644.75	176.15
789.7361	73.1426	722.7	248.2
789.8771	75.4032	914.6	438.9
790.0181	77.6634	1411.35	931.15
790.1592	79.9231	2574.15	2082.95
790.3003	82.1824	5067.25	4558.15
790.4414	84.4412	9495.3	8949.4
790.5825	86.6995	15537.85	14944.1
790.7237	88.9574	21295.2	20662.05
790.8648	91.2148	25174.45	24518.9
791.006	93.4717	26886.75	26213.05
791.1472	95.7282	27086.95	26404.2
791.2885	97.9842	26763.25	26076.45
791.4297	100.2398	26023.6	25333.45
791.571	102.4949	25220.9	24524.3
791.7123	104.7495	24320.3	23623.8
791.8536	107.0036	23421.7	22726.65
791.9949	109.2573	22662.55	21966.7
792.1363	111.5105	21928.55	21230.35
792.2777	113.7632	21310.85	20612.2
792.4191	116.0154	20808.2	20098.85
792.5605	118.2672	20434.9	19727.85
792.7019	120.5185	20043.55	19335.5
792.8434	122.7693	19796.1	19085.15
792.9849	125.0197	19502.3	18787.3
793.1264	127.2696	19308.05	18592.15
793.2679	129.519	19093.05	18371.9
793.4094	131.7679	18835.8	18111.4
793.551	134.0163	18588.4	17859.2
793.6926	136.2642	18230.5	17497.5
793.8342	138.5117	17866.5	17127.85
793.9758	140.7587	17472.15	16737.95
794.1175	143.0052	17171.25	16432.75
794.2591	145.2512	16832.85	16099.05
794.4008	147.4967	16515.65	15781
794.5425	149.7417	16294.4	15556.05
794.6842	151.9863	16112.3	15365.9
794.826	154.2304	15996.85	15246.5
794.9677	156.4739	15850.95	15098.65
795.1095	158.717	15716.95	14961.05
795.2513	160.9596	15576.8	14816.7
795.3931	163.2017	15354.95	14593.15
795.535	165.4433	15059.8	14293.7
795.6768	167.6844	14753.35	13991.9
795.8187	169.925	14461.25	13694
795.9606	172.1651	14151.05	13380.2
796.1025	174.4047	13890.95	13121.75
796.2445	176.6439	13682.8	12914.6
796.3864	178.8825	13481.85	12703.6
796.5284	181.1206	13385.15	12598.1
796.6704	183.3582	13270.6	12488.7
796.8124	185.5954	13173.6	12386.45
796.9544	187.832	13099.1	12309.35
797.0965	190.0681	13076.95	12282
797.2386	192.3037	13084.9	12286.95
797.3806	194.5388	13061.3	12260.8
797.5228	196.7734	13116	12314.85
797.6649	199.0075	13157.95	12351.6
797.807	201.2411	13304.55	12499.3
797.9492	203.4742	13353.2	12547.15
798.0914	205.7068	13481.8	12674.7
798.2336	207.9389	13611.8	12794
798.3758	210.1704	13770.5	12959.55
798.518	212.4015	13866.75	13065.8
798.6603	214.632	13982.8	13192.25
798.8025	216.862	14103.45	13315.25
798.9448	219.0915	14192.6	13398.7
799.0871	221.3205	14293.8	13497.1
799.2294	223.549	14340.9	13555.95
799.3718	225.777	14407.95	13619.15
799.5141	228.0044	14506.6	13712.2
799.6565	230.2314	14575.6	13778.2
799.7989	232.4578	14657.15	13859.9
799.9413	234.6837	14713.45	13910.15
800.0837	236.909	14782.4	13979.1
800.2262	239.1339	14783.3	13948.9
800.3687	241.3582	14731.3	13906
800.5111	243.582	14684.45	13830.3
800.6536	245.8053	14640.4	13801.15
800.7961	248.0281	14596.8	13768.95
800.9387	250.2503	14581.8	13745.5
801.0812	252.472	14643.8	13802.8
801.2238	254.6932	14807.15	13971.45
801.3664	256.9139	14907.5	14070.85
801.509	259.134	15122.35	14276.4
801.6516	261.3536	15355.3	14519.55
801.7942	263.5727	15664.95	14821.15
801.9369	265.7912	15933.85	15095.05
802.0795	268.0092	16234.15	15393
802.2222	270.2267	16453.75	15612.2
802.3649	272.4436	16605.15	15761.8
802.5076	274.6601	16652.95	15797.55
802.6504	276.8759	16589.85	15745.25
802.7931	279.0913	16500	15650.15
802.9359	281.3061	16368.4	15518.1
803.0787	283.5204	16317.9	15463.2
803.2215	285.7341	16293.4	15435.6
803.3643	287.9473	16319.05	15447.1
803.5071	290.16	16341.05	15484.55
803.6499	292.3721	16390.2	15534.3
803.7928	294.5837	16564.7	15707.85
803.9357	296.7947	16728.05	15868.95
804.0786	299.0052	16864.9	16009.05
804.2215	301.2152	16874.5	16013.5
804.3644	303.4246	16755.4	15903.45
804.5074	305.6334	16483.2	15627.6
804.6503	307.8418	16108.6	15251.65
804.7933	310.0495	15736.75	14875.55
804.9363	312.2568	15321.8	14461.8
805.0793	314.4635	14934.35	14072.25
805.2223	316.6696	14635	13769.8
805.3653	318.8752	14403.5	13530.15
805.5084	321.0802	14289.65	13419.7
805.6514	323.2847	14305.7	13432.6
805.7945	325.4887	14293.2	13421.6
805.9376	327.692	14332.3	13457.45
806.0807	329.8949	14303.3	13434.75
806.2238	332.0972	14168.4	13292.55
806.367	334.2989	13994.6	13117.25
806.5101	336.5001	13750.9	12874.25
806.6533	338.7007	13557.6	12683.3
806.7965	340.9008	13401.5	12522.6
806.9397	343.1003	13241.4	12360.8
807.0829	345.2992	13116.7	12232.75
807.2261	347.4976	12988.75	12109
807.3693	349.6955	12928.8	12042.5
807.5126	351.8927	12926.4	12034.5
807.6559	354.0895	12820.45	11923.35
807.7991	356.2856	12792.7	11902.95
807.9424	358.4812	12728.6	11837.65
808.0857	360.6763	12740.25	11847.35
808.2291	362.8707	12710.65	11817.5
808.3724	365.0646	12752.3	11859
808.5158	367.258	12801.15	11909.75
808.6591	369.4508	12852.3	11952.15
808.8025	371.643	13016.75	12115.55
808.9459	373.8346	13079.15	12180.2
809.0893	376.0257	13181.05	12275.65
809.2327	378.2162	13221.95	12321.05
809.3762	380.4062	13233.6	12337.05
809.5196	382.5956	13099.3	12196.25
809.6631	384.7844	13011.25	12117.45
809.8066	386.9726	12884.7	11994.3
809.9501	389.1603	12787.95	11894.55
810.0936	391.3474	12743.55	11817.55
810.2371	393.5339	12701.05	11805.25
810.3806	395.7199	12675.45	11779
810.5241	397.9052	12724.8	11829.65
810.6677	400.09	12792.45	11897.25
810.8113	402.2743	12946.5	12055.5
810.9548	404.4579	13133.45	12240.15
811.0984	406.641	13320.75	12429.35
811.2421	408.8235	13451.75	12558.15
811.3857	411.0054	13578.1	12677.5
811.5293	413.1868	13724.7	12822.2
811.673	415.3675	13733.45	12831.25
811.8166	417.5477	13737.95	12833.55
811.9603	419.7273	13658.6	12750.6
812.104	421.9064	13590.4	12675.6
812.2477	424.0848	13522.75	12616.4
812.3914	426.2627	13397.35	12489.4
812.5351	428.4399	13198.05	12288.25
812.6788	430.6166	12931.85	12019.55
812.8226	432.7928	12596.2	11687.85
812.9663	434.9683	12334	11424.85
813.1101	437.1432	12106	11196.15
813.2539	439.3176	11942.6	11037.7
813.3977	441.4914	11841	10940
813.5415	443.6645	11802.55	10896.4
813.6853	445.8371	11741.9	10836.25
813.8291	448.0091	11727.9	10817.95
813.973	450.1806	11698.3	10792.45
814.1168	452.3514	11690.75	10784.35
814.2607	454.5216	11708.7	10793.85
814.4046	456.6913	11701.3	10790.15
814.5485	458.8603	11754.4	10849.4
814.6924	461.0288	11800.4	10899.2
814.8363	463.1967	11801.8	10907.65
814.9802	465.3639	11801.7	10898.25
815.1241	467.5306	11776	10871.7
815.2681	469.6967	11758.8	10859.6
815.412	471.8622	11741.25	10844.9
815.556	474.0271	11795.8	10893.5
815.7	476.1914	11844.95	10935.05
815.844	478.3551	11835.35	10927.8
815.988	480.5182	11896.35	10995.45
816.132	482.6807	11968.55	11073.8
816.276	484.8426	12137.45	11248.3
816.4201	487.0039	12454.9	11561
816.5641	489.1647	12794.75	11886.85
816.7082	491.3248	13096.15	12188.25
816.8522	493.4843	13170	12265.15
816.9963	495.6432	13151.2	12249.95
817.1404	497.8015	13014.4	12098.5
817.2845	499.9592	12916.25	11995.3
817.4286	502.1163	12703.3	11782.6
817.5727	504.2728	12421.2	11511.65
817.7168	506.4287	12157.05	11261.35
817.861	508.5839	11873	10974.3
818.0051	510.7386	11690.75	10785.75
818.1493	512.8927	11613.8	10693.55
818.2935	515.0461	11592.25	10675.15
818.4377	517.199	11695.65	10778.05
818.5818	519.3512	11897.95	10982.75
818.726	521.5029	12145.35	11226.3
818.8703	523.6539	12403.05	11488.95
819.0145	525.8043	12543.6	11625.25
819.1587	527.9541	12451.65	11533.85
819.303	530.1033	12243.1	11323.9
819.4472	532.2519	12070.55	11155.3
819.5915	534.3999	12018.55	11098.6
819.7357	536.5472	12015	11095.5
819.88	538.694	12182.2	11270.35
820.0243	540.8401	12400.7	11483.8
820.1686	542.9856	12583.6	11654.1
820.3129	545.1305	12575.75	11641.45
820.4572	547.2748	12537.4	11602.45
820.6016	549.4185	12420.2	11481.2
820.7459	551.5615	12297.25	11361.8
820.8902	553.704	12325.15	11393.1
821.0346	555.8458	12379.35	11447.75
821.1789	557.987	12577.75	11654.05
821.3233	560.1276	12816.25	11886.65
821.4677	562.2675	13204	12272.3
821.6121	564.4069	13758.5	12828.8
821.7565	566.5456	14199.35	13272.05
821.9009	568.6837	14343.2	13419.8
822.0453	570.8212	13969.3	13041.5
822.1897	572.958	13328.6	12402.4
822.3342	575.0942	12675.85	11749.65
822.4786	577.2299	12223.8	11302.85
822.6231	579.3648	12013.9	11107.2
822.7675	581.4992	11921.8	11027.4
822.912	583.6329	12004.6	11110.95
823.0565	585.766	12111.65	11210.4
823.201	587.8985	12279.35	11370.35
823.3454	590.0304	12357.35	11410.25
823.4899	592.1616	12313.95	11385.9
823.6345	594.2922	12222.75	11290.6
823.779	596.4222	12051.45	11117.75
823.9235	598.5515	11840	10902.7
824.068	600.6802	11659	10722.95
824.2126	602.8083	11531.2	10602.4
824.3571	604.9358	11515.35	10586.25
824.5017	607.0626	11553.3	10619.9
824.6462	609.1888	11695.95	10755.85
824.7908	611.3144	11839.6	10899.3
824.9354	613.4393	11968.75	11033.05
825.08	615.5636	12093.65	11154.35
825.2246	617.6873	12137.95	11198.55
825.3692	619.8103	12069.75	11128.7
825.5138	621.9327	11891.5	10956.7
825.6584	624.0544	11638.6	10708.6
825.803	626.1756	11433.1	10499.95
825.9477	628.2961	11284.35	10349.7
826.0923	630.4159	11246.8	10308.7
826.237	632.5351	11227.95	10289.65
826.3816	634.6537	11196.2	10257.25
826.5263	636.7716	11219.45	10273.6
826.6709	638.8889	11239.25	10290.15
826.8156	641.0056	11241.75	10294.05
826.9603	643.1216	11208.65	10263
827.105	645.237	11189.95	10246.2
827.2497	647.3518	11074.3	10140.1
827.3944	649.4659	11032.1	10101.8
827.5391	651.5793	10936.15	10008.2
827.6838	653.6922	10913.6	9980.35
827.8285	655.8043	10895.7	9962.4
827.9733	657.9159	10911.3	9972.4
828.118	660.0268	10872.75	9937.55
828.2627	662.137	10899.25	9959.35
828.4075	664.2466	10896.85	9952.15
828.5522	666.3556	10888.95	9945.4
828.697	668.4639	10856.3	9916.7
828.8418	670.5716	10771	9836.55
828.9865	672.6786	10757.05	9816.55
829.1313	674.785	10709.15	9761.65
829.2761	676.8907	10644.25	9701.55
829.4209	678.9958	10638.45	9702.2
829.5657	681.1002	10617.1	9674.4
829.7105	683.204	10614.4	9663.6
829.8553	685.3072	10620.25	9671.6
830.0001	687.4097	10574	9628.35
830.1449	689.5115	10612.5	9665.45
830.2898	691.6127	10588.5	9646
830.4346	693.7132	10582.75	9644.15
830.5794	695.8131	10606.75	9647.55
830.7243	697.9123	10619.5	9672.9
830.8691	700.0109	10625.3	9672.25
831.014	702.1089	10669.1	9722.15
831.1588	704.2061	10758.25	9814.7
831.3037	706.3028	10850.6	9896.75
831.4486	708.3987	10855.05	9904.95
831.5935	710.4941	10877.4	9930
831.7383	712.5887	10925.5	9979.3
831.8832	714.6827	10975.4	10028.4
832.0281	716.7761	11042.25	10102.6
832.173	718.8688	11180.85	10240.65
832.3179	720.9608	11292.7	10341.15
832.4628	723.0522	11425.6	10469.4
832.6077	725.1429	11502.3	10552.6
832.7527	727.233	11606.25	10654.75
832.8976	729.3224	11711.65	10761.1
833.0425	731.4112	11681.65	10728.55
833.1874	733.4993	11530.75	10577.95
833.3324	735.5867	11340.2	10390.45
833.4773	737.6735	11107.95	10155.8
833.6222	739.7596	10888.9	9936.8
833.7672	741.845	10763.2	9816.15
833.9122	743.9298	10669.75	9721.35
834.0571	746.014	10644.75	9696.8
834.2021	748.0974	10611.2	9652.2
834.347	750.1802	10619.75	9662.05
834.492	752.2624	10661.2	9704.25
834.637	754.3439	10684.95	9729.7
834.782	756.4247	10757.75	9796.75
834.9269	758.5048	10918.8	9965.8
835.0719	760.5843	11204.4	10250.2
835.2169	762.6631	11607.5	10646.8
835.3619	764.7413	12120.3	11167
835.5069	766.8188	12793.6	11834.85
835.6519	768.8956	13351.35	12396.55
835.7969	770.9718	13747.45	12796.3
835.9419	773.0473	13701.95	12747.75
836.0869	775.1221	13490.55	12534.9
836.232	777.1962	13245.65	12288.5
836.377	779.2697	13187.2	12229.45
836.522	781.3426	13250.9	12282.55
836.667	783.4147	13334.8	12376.3
836.8121	785.4862	13382.15	12425.1
836.9571	787.557	13149.35	12192.4
837.1021	789.6271	12725.8	11768.35
837.2472	791.6966	12118.75	11160.95
837.3922	793.7654	11536.65	10581.35
837.5373	795.8335	11140.3	10185.95
837.6823	797.901	10856.15	9900.9
837.8274	799.9678	10690.25	9728.5
837.9724	802.0339	10558.3	9602
838.1175	804.0993	10531.25	9563.4
838.2626	806.1641	10448.75	9489.65
838.4076	808.2282	10407.7	9449.3
838.5527	810.2916	10324.05	9364.65
838.6978	812.3544	10229.6	9279.6
838.8428	814.4164	10190.2	9233.9
838.9879	816.4778	10209.6	9247.25
839.133	818.5385	10276.95	9314.75
839.2781	820.5986	10410.1	9450.65
839.4232	822.658	10652.25	9689.4
839.5682	824.7166	10993.2	10030.9
839.7133	826.7747	11489.55	10529.25
839.8584	828.832	12038.4	11076.25
840.0035	830.8886	12451.5	11486.85
840.1486	832.9446	12658.15	11695
840.2937	834.9999	12497.4	11536.3
840.4388	837.0545	12197.95	11232.95
840.5839	839.1085	11828.7	10863.25
840.729	841.1618	11468.95	10503.05
840.8741	843.2143	11193.75	10232.15
841.0192	845.2662	10996.7	10035.2
841.1643	847.3175	10881.05	9918.8
841.3095	849.368	10746.4	9783.3
841.4546	851.4179	10650.6	9691.85
841.5997	853.467	10544.85	9580.8
841.7448	855.5155	10510.5	9548.35
841.8899	857.5633	10431.25	9468.6
842.0351	859.6105	10339.5	9373
842.1802	861.6569	10288.95	9326.95
842.3253	863.7027	10204	9239.05
842.4704	865.7478	10135.3	9169.75
842.6156	867.7922	10118.75	9154.2
842.7607	869.8359	10103.5	9141.6
842.9058	871.8789	10120.8	9150.65
843.0509	873.9212	10184.25	9187.5
843.1961	875.9629	10232.6	9270
843.3412	878.0039	10348.3	9384.15
843.4863	880.0441	10406.5	9445.8
843.6315	882.0837	10451.7	9490.25
843.7766	884.1226	10488.9	9523.65
843.9218	886.1609	10580.6	9618.65
844.0669	888.1984	10702	9741.7
844.212	890.2352	10855.35	9887.1
844.3572	892.2714	10881.8	9915.85
844.5023	894.3069	10832.8	9865.95
844.6475	896.3416	10668.1	9699.05
844.7926	898.3757	10501.5	9534.8
844.9377	900.4091	10418.7	9449.1
845.0829	902.4418	10381.25	9410.75
845.228	904.4739	10407.95	9438.65
845.3732	906.5052	10491.85	9522.5
845.5183	908.5358	10457.15	9492.6
845.6635	910.5658	10328.75	9359.65
845.8086	912.595	10121.55	9155.35
845.9538	914.6236	9901.85	8934.6
846.0989	916.6515	9776.55	8808.5
846.2441	918.6786	9680.65	8711.15
846.3892	920.7051	9680.85	8711.15
846.5344	922.7309	9708.55	8738.25
846.6795	924.756	9727.2	8760.55
846.8246	926.7804	9789.8	8820.95
846.9698	928.8041	9774.25	8806.75
847.1149	930.8272	9849.75	8884.4
847.2601	932.8495	9820.05	8849.35
847.4052	934.8711	9817.15	8846.1
847.5504	936.892	9790.3	8822.8
847.6955	938.9123	9798.45	8828.35
847.8407	940.9318	9820.75	8858.05
847.9858	942.9506	9843.2	8876.85
848.131	944.9688	9764.6	8797.7
848.2761	946.9862	9705.8	8735.5
848.4213	949.003	9565.2	8600.25
848.5664	951.019	9447.75	8479.05
848.7115	953.0344	9375.8	8407.1
848.8567	955.0491	9354.1	8389.05
849.0018	957.063	9395	8431.5
849.147	959.0763	9467.35	8501.6
849.2921	961.0888	9501.35	8532
849.4373	963.1007	9539.7	8578.5
849.5824	965.1119	9518.45	8563
849.7275	967.1223	9515.6	8565.05
849.8727	969.1321	9495.7	8548.35
850.0178	971.1412	9485.6	8531.65
850.1629	973.1495	9464.9	8504.7
850.3081	975.1572	9521.35	8503.15
850.4532	977.1641	9492.1	8525.65
850.5983	979.1704	9453.85	8486.5
850.7435	981.1759	9435.8	8467.8
850.8886	983.1808	9460.3	8492.2
851.0337	985.1849	9443.4	8465.25
851.1788	987.1884	9493.35	8524.95
851.324	989.1911	9550.7	8582.85
851.4691	991.1932	9610.75	8645.15
851.6142	993.1945	9622.75	8658.5
851.7593	995.1951	9592.6	8629.05
851.9045	997.1951	9587.45	8618.15
852.0496	999.1943	9527.3	8561.2
852.1947	1001.1928	9542.55	8575
852.3398	1003.1906	9601.25	8634.6
852.4849	1005.1877	9709.25	8744.85
852.63	1007.1841	9770.6	8804.75
852.7751	1009.1798	9821.45	8860.45
852.9202	1011.1748	9748.15	8785.4
853.0653	1013.1691	9609.1	8643.6
853.2104	1015.1627	9447.1	8479.65
853.3555	1017.1556	9251.15	8288.25
853.5006	1019.1477	9140.45	8178.2
853.6457	1021.1392	9013.15	8058.55
853.7908	1023.1299	8964.95	8013.6
853.9359	1025.12	8969.7	8021.6
854.081	1027.1093	9015.1	8080.75
854.2261	1029.0979	9129.4	8199.35
854.3712	1031.0859	9218.5	8285.75
854.5163	1033.0731	9282.25	8333.75
854.6613	1035.0596	9241.75	8289.1
854.8064	1037.0454	9140.2	8184.55
854.9515	1039.0304	9025.85	8065
855.0965	1041.0148	8935.75	7973.15
855.2416	1042.9985	8853.25	7887.05
855.3867	1044.9814	8804.3	7845.6
855.5317	1046.9636	8750.7	7786.15
855.6768	1048.9452	8741.65	7780.15
855.8219	1050.926	8779.25	7819.2
855.9669	1052.9061	8793.45	7834.5
856.112	1054.8855	8838.05	7877.95
856.257	1056.8642	8853.1	7891.8
856.4021	1058.8421	8885.1	7917.3
856.5471	1060.8194	8946.95	7981.05
856.6921	1062.7959	8964.6	7999.3
856.8372	1064.7717	9045.85	8082.45
856.9822	1066.7469	9117.2	8154.75
857.1272	1068.7213	9194.45	8229.15
857.2723	1070.695	9280.05	8318.55
857.4173	1072.6679	9322.65	8359.2
857.5623	1074.6402	9355.15	8390.65
857.7073	1076.6117	9307.1	8338.1
857.8523	1078.5826	9205.4	8242.95
857.9973	1080.5527	9056.25	8089.9
858.1423	1082.5221	8947.35	7989.15
858.2873	1084.4908	8911.55	7950.6
858.4323	1086.4587	8888.05	7923.65
858.5773	1088.426	8906.85	7946.4
858.7223	1090.3925	8921.55	7952.5
858.8673	1092.3584	8961.6	7998.85
859.0123	1094.3235	8985.35	8024
859.1573	1096.2879	9088.85	8124.3
859.3022	1098.2515	9209.15	8247.55
859.4472	1100.2145	9386.5	8429.8
859.5922	1102.1767	9560.15	8599.35
859.7371	1104.1382	9774.25	8814.6
859.8821	1106.099	10038.6	9076.65
860.027	1108.0591	10248.8	9289.2
860.172	1110.0185	10376.45	9412.95
860.3169	1111.9771	10434.2	9473.8
860.4619	1113.9351	10389.55	9430.2
860.6068	1115.8923	10274.1	9313.95
860.7517	1117.8488	10185.6	9224.45
860.8967	1119.8045	10036.05	9079.05
861.0416	1121.7596	9887.05	8931.1
861.1865	1123.7139	9726.35	8768.9
861.3314	1125.6675	9655.05	8697.65
861.4763	1127.6204	9686.3	8729.7
861.6212	1129.5726	9659.7	8697.95
861.7661	1131.524	9578.85	8621.75
861.911	1133.4748	9426.05	8467.55
862.0559	1135.4248	9233.6	8272.45
862.2008	1137.3741	9086.75	8126.35
862.3457	1139.3226	8962.15	8002.3
862.4905	1141.2705	8908.2	7949.65
862.6354	1143.2176	8840.95	7876.25
862.7803	1145.164	8795	7833.55
862.9251	1147.1097	8709.7	7753.05
863.07	1149.0546	8627.4	7669
863.2148	1150.9989	8495.5	7536.5
863.3597	1152.9424	8436.15	7472.85
863.5045	1154.8852	8360.2	7401.8
863.6493	1156.8272	8323.8	7363.95
863.7942	1158.7686	8343.25	7377.2
863.939	1160.7092	8374.4	7414.75
864.0838	1162.6491	8396.3	7435.25
864.2286	1164.5883	8523.25	7563.75
864.3734	1166.5267	8624.95	7663.75
864.5182	1168.4644	8788.55	7831.4
864.663	1170.4014	8953.05	7990.6
864.8078	1172.3377	9208.45	8254.85
864.9526	1174.2732	9491.65	8536.85
865.0974	1176.2081	9897.65	8942.2
865.2421	1178.1421	10411.85	9450
865.3869	1180.0755	10959.4	10004.05
865.5317	1182.0082	11328.95	10374.9
865.6764	1183.9401	11517.5	10564.7
865.8212	1185.8713	11376.55	10430.45
865.9659	1187.8017	11018.6	10074.5
866.1106	1189.7315	10631.55	9699.6
866.2554	1191.6605	10220.9	9287
866.4001	1193.5888	9936.35	8998.1
866.5448	1195.5163	9779.4	8832.9
866.6895	1197.4432	9659.7	8706.55
866.8342	1199.3693	9619	8668.75
866.9789	1201.2947	9551.7	8591
867.1236	1203.2193	9500.45	8541.4
867.2683	1205.1432	9509.9	8557.75
867.413	1207.0664	9492.45	8541
867.5576	1208.9889	9467.15	8512.7
867.7023	1210.9106	9458.4	8503.55
867.847	1212.8316	9437.8	8485.15
867.9916	1214.7519	9452.2	8489.65
868.1363	1216.6715	9483.85	8527.15
868.2809	1218.5903	9555	8605.25
868.4255	1220.5084	9641.55	8689.3
868.5701	1222.4257	9781.8	8829.9
868.7148	1224.3424	9815.5	8870
868.8594	1226.2583	9961.1	9009.65
869.004	1228.1735	10126.9	9175.9
869.1486	1230.0879	10276.7	9327.1
869.2932	1232.0016	10449.85	9496.7
869.4377	1233.9146	10632.25	9678.5
869.5823	1235.8269	10655.4	9705.1
869.7269	1237.7384	10669.3	9714.9
869.8715	1239.6492	10544.05	9592.85
870.016	1241.5592	10554.1	9603.35
870.1606	1243.4686	10652	9700.1
870.3051	1245.3772	10815.3	9863.7
870.4496	1247.285	11057.25	10107.3
870.5941	1249.1922	11285.45	10332.9
870.7387	1251.0986	11515.55	10565.2
870.8832	1253.0042	11603	10652.9
871.0277	1254.9092	11735.8	10785.85
871.1722	1256.8134	11821.1	10872.2
871.3167	1258.7169	11993	11044.5
871.4611	1260.6196	12093.2	11143.9
871.6056	1262.5216	12299.6	11348.5
871.7501	1264.4229	12492.4	11544.75
871.8945	1266.3234	12696.8	11749.55
872.039	1268.2232	12790.65	11841.2
872.1834	1270.1223	12892.3	11941.65
872.3278	1272.0207	12955.3	12002.8
872.4723	1273.9183	12942	11986.25
872.6167	1275.8151	12868.75	11921.4
872.7611	1277.7113	12871.15	11919.6
872.9055	1279.6067	12971.25	12023.85
873.0499	1281.5014	13243.1	12291.8
873.1943	1283.3953	13691.45	12741
873.3386	1285.2885	14323.75	13377.3
873.483	1287.181	14937.75	13987.7
873.6274	1289.0727	15494.6	14549.1
873.7717	1290.9637	15905.3	14957.5
873.9161	1292.854	16131.95	15181.95
874.0604	1294.7435	16121.5	15173.95
874.2047	1296.6323	15974.6	15025.65
874.349	1298.5204	15712.9	14762.3
874.4933	1300.4077	15398.9	14445.95
874.6376	1302.2943	15087.75	14140.1
874.7819	1304.1802	14725.85	13778.6
874.9262	1306.0653	14208.1	13258
875.0705	1307.9497	13649.95	12703.1
875.2147	1309.8333	13214.85	12266.45
875.359	1311.7162	12860.35	11910.8
875.5032	1313.5984	12641.85	11688.35
875.6475	1315.4798	12462.4	11504.15
875.7917	1317.3605	12333.45	11382.6
875.9359	1319.2405	12208.15	11255.35
876.0801	1321.1197	11952.3	10999.5
876.2243	1322.9982	11615.3	10660.3
876.3685	1324.876	11292.25	10342.25
876.5127	1326.753	10986.35	10035.55
876.6569	1328.6293	10720.85	9770.45
876.801	1330.5048	10528.85	9576.85
876.9452	1332.3796	10339.8	9390.35
877.0893	1334.2537	10248.5	9279.75
877.2335	1336.127	10107.35	9157.05
877.3776	1337.9996	10050.25	9101.2
877.5217	1339.8714	10036.35	9084.95
877.6658	1341.7426	10060.1	9064.2
877.8099	1343.6129	10109.9	9160.4
877.954	1345.4826	10073.45	9121.3
878.0981	1347.3515	10072.05	9120.75
878.2422	1349.2196	10029.25	9078.6
878.3862	1351.087	10091.9	9141.05
878.5303	1352.9537	10092.6	9140.6
878.6743	1354.8197	10191.15	9239.65
878.8184	1356.6849	10368.05	9416
878.9624	1358.5493	10520.1	9571.4
879.1064	1360.4131	10707.65	9760.55
879.2504	1362.276	10838.4	9893.6
879.3944	1364.1383	10911.1	9960.6
879.5384	1365.9998	10762.15	9806.2
879.6823	1367.8606	10490.35	9541.85
879.8263	1369.7206	10148.25	9198.7
879.9702	1371.5799	9818.65	8869.95
880.1142	1373.4384	9564.95	8611.7
880.2581	1375.2962	9358.3	8410.55
880.402	1377.1533	9018.15	8069.95
880.5459	1379.0096	8676.3	7730.2
880.6898	1380.8652	8370.45	7427.5
880.8337	1382.7201	8096.95	7153.25
880.9776	1384.5742	7831.4	6887.5
881.1215	1386.4275	7676.25	6728.8
881.2653	1388.2802	7531.4	6584.65
881.4092	1390.132	7430.3	6483.65
881.553	1391.9832	7379.25	6429.55
881.6968	1393.8336	7289.75	6341.2
881.8406	1395.6832	7236.7	6289.8
881.9844	1397.5322	7179.4	6230.8
882.1282	1399.3803	7177.65	6227.2
882.272	1401.2278	7141.6	6194.7
882.4158	1403.0745	7113.75	6170.85
882.5595	1404.9204	7111.15	6169.6
882.7033	1406.7656	7111.6	6165.2
882.847	1408.6101	7121.4	6179.25
882.9908	1410.4538	7131.55	6183.35
883.1345	1412.2968	7184.25	6236.1
883.2782	1414.139	7201.6	6258.25
883.4219	1415.9805	7289.1	6341.45
883.5656	1417.8213	7337.65	6387.25
883.7092	1419.6613	7394.75	6450.4
883.8529	1421.5006	7541.35	6599.15
883.9965	1423.3391	7725.8	6782.65
884.1402	1425.1769	7980.1	7035.6
884.2838	1427.0139	8376.7	7433.6
884.4274	1428.8502	8877.95	7931.15
884.571	1430.6858	9342.95	8396.1
884.7146	1432.5206	9691.45	8749.55
884.8582	1434.3547	9895.65	8948.55
885.0018	1436.188	9915.35	8972.4
885.1453	1438.0206	9861.25	8917.1
885.2889	1439.8524	9703.85	8757.65
885.4324	1441.6835	9583.8	8642.5
885.5759	1443.5139	9477.1	8532.5
885.7194	1445.3435	9443.2	8501.05
885.8629	1447.1724	9419.35	8476.95
886.0064	1449.0005	9379.4	8440.85
886.1499	1450.8279	9319.55	8380.15
886.2933	1452.6545	9327.3	8387.8
886.4368	1454.4804	9350.1	8409.05
886.5802	1456.3056	9340.5	8394.55
886.7237	1458.13	9274.25	8333.95
886.8671	1459.9536	9141.35	8200.25
887.0105	1461.7766	8894.1	7953.65
887.1539	1463.5987	8623.7	7678.5
887.2972	1465.4202	8340.2	7396.2
887.4406	1467.2409	8037	7091.7
887.584	1469.0608	7785.35	6842.25
887.7273	1470.88	7512.25	6569.25
887.8706	1472.6984	7314.2	6375.9
888.0139	1474.5161	7120.7	6177.25
888.1572	1476.3331	6979.45	6038.75
888.3005	1478.1493	6885.75	5944.2
888.4438	1479.9648	6827	5886.7
888.5871	1481.7795	6752.85	5812.1
888.7303	1483.5935	6697.3	5756.8
888.8736	1485.4067	6652.25	5709.45
889.0168	1487.2192	6614.2	5670.65
889.16	1489.031	6586.05	5642.05
889.3032	1490.842	6552.9	5615.45
889.4464	1492.6522	6528.65	5588.7
889.5896	1494.4618	6499.25	5558.45
889.7327	1496.2705	6459.5	5521
889.8759	1498.0785	6416.55	5474.3
890.019	1499.8858	6367.55	5428
890.1622	1501.6924	6327.2	5389.25
890.3053	1503.4981	6299.25	5358.55
890.4484	1505.3032	6246.25	5308.45
890.5914	1507.1075	6195.3	5255.35
890.7345	1508.911	6183.1	5244.6
890.8776	1510.7138	6135.3	5195.05
891.0206	1512.5159	6077.2	5140.75
891.1637	1514.3172	6027.35	5091.75
891.3067	1516.1178	5991.5	5054.35
891.4497	1517.9176	5974.55	5036.1
891.5927	1519.7166	5954.95	5020.65
891.7357	1521.515	5932.15	4986.95
891.8786	1523.3126	5881.9	4942.5
892.0216	1525.1094	5864.25	4928.15
892.1645	1526.9055	5832.8	4896.8
892.3074	1528.7008	5803.75	4868.1
892.4503	1530.4954	5782.6	4845.5
892.5932	1532.2893	5795	4862.1
892.7361	1534.0824	5768.95	4833.05
892.879	1535.8747	5756.6	4824.65
893.0218	1537.6663	5755.3	4824
893.1647	1539.4572	5758.75	4826.7
893.3075	1541.2473	5767.05	4833.9
893.4503	1543.0367	5762.45	4832.8
893.5931	1544.8253	5766.25	4829.1
893.7359	1546.6132	5826.15	4890.7
893.8787	1548.4003	5850.7	4911.05
894.0214	1550.1867	5906.85	4967.95
894.1642	1551.9723	5944.5	5013.3
894.3069	1553.7572	6050.1	5116.85
894.4496	1555.5414	6153.2	5225.3
894.5923	1557.3247	6311.65	5384.3
894.735	1559.1074	6483.6	5561.2
894.8777	1560.8893	6640.05	5713.6
895.0204	1562.6705	6822.85	5898.3
895.163	1564.4509	6941.2	6016.55
895.3056	1566.2305	7031.25	6111.3
895.4482	1568.0094	7074.65	6156.1
895.5908	1569.7876	7059.85	6137.2
895.7334	1571.565	7030.1	6104.75
895.876	1573.3417	7032.2	6108.25
896.0186	1575.1176	7033.25	6110.25
896.1611	1576.8928	7054.25	6133.55
896.3036	1578.6672	7059.65	6141.7
896.4461	1580.4409	7096.85	6183.55
896.5886	1582.2138	7146.5	6226.55
896.7311	1583.986	7214.75	6290.8
896.8736	1585.7575	7357.9	6440.75
897.0161	1587.5282	7441.95	6525.6
897.1585	1589.2981	7579.75	6666.35
897.3009	1591.0673	7667.65	6753.1
897.4433	1592.8358	7823.9	6907.6
897.5857	1594.6035	7932.5	7010.35
897.7281	1596.3704	8008.65	7088.25
897.8705	1598.1366	8120.6	7203.9
898.0128	1599.9021	8206.35	7290.9
898.1551	1601.6668	8319.45	7399.95
898.2975	1603.4308	8417.4	7497.75
898.4398	1605.194	8591.4	7669
898.5821	1606.9564	8790.05	7880.5
898.7243	1608.7182	9035.65	8125.75
898.8666	1610.4791	9320.75	8419.95
899.0088	1612.2394	9629.8	8728.8
899.1511	1613.9988	9974.95	9067.6
899.2933	1615.7576	10276.15	9364.85
899.4355	1617.5156	10488.2	9567.3
899.5776	1619.2728	10531	9612.75
899.7198	1621.0293	10422.15	9505.85
899.862	1622.785	10180.9	9265.95
900.0041	1624.54	9820.65	8909.4
900.1462	1626.2942	9387	8477.45
900.2883	1628.0477	8942.5	8030
900.4304	1629.8005	8555.05	7640.35
900.5725	1631.5525	8189.1	7280.75
900.7145	1633.3037	7888.2	6981.85
900.8566	1635.0542	7629.8	6721.4
900.9986	1636.804	7434.65	6524.7
901.1406	1638.553	7375.35	6373.15
901.2826	1640.3013	7234.35	6325.5
901.4245	1642.0488	7182.4	6273.1
901.5665	1643.7955	7172.1	6264.75
901.7085	1645.5416	7213.55	6308
901.8504	1647.2868	7288.95	6381.7
901.9923	1649.0313	7378.9	6467.55
902.1342	1650.7751	7506.6	6594.2
902.2761	1652.5181	7624	6718.9
902.4179	1654.2604	7783.05	6874.9
902.5598	1656.0019	7965.3	7059.95
902.7016	1657.7427	8220.15	7311.6
902.8434	1659.4828	8465.4	7554.65
902.9852	1661.222	8605.75	7694.45
903.127	1662.9606	8588.6	7677.4
903.2687	1664.6984	8384.95	7471.25
903.4105	1666.4354	8006.25	7088.9
903.5522	1668.1717	7494.15	6581.95
903.6939	1669.9072	6992.55	6077.85
903.8356	1671.642	6554.2	5640.2
903.9773	1673.3761	6174.1	5261.1
904.119	1675.1094	5871.6	4962.35
904.2606	1676.8419	5643.15	4735.7
904.4022	1678.5737	5452.7	4543.25
904.5439	1680.3048	5309.35	4396
904.6855	1682.0351	5183.15	4270.05
904.827	1683.7646	5064.2	4148.35
904.9686	1685.4934	4987.85	4079.1
905.1101	1687.2215	4899.85	3991.1
905.2517	1688.9488	4843.85	3937.05
905.3932	1690.6754	4779.05	3872.35
905.5347	1692.4012	4757.55	3846.65
905.6761	1694.1263	4691.95	3782.1
905.8176	1695.8506	4674.6	3765.5
905.9591	1697.5742	4615.15	3709
906.1005	1699.297	4578.4	3674.85
906.2419	1701.0191	4513.65	3610.4
906.3833	1702.7404	4478.3	3574.6
906.5246	1704.461	4447.5	3539.95
906.666	1706.1808	4428.6	3519.3
906.8073	1707.8999	4388.95	3484.45
906.9487	1709.6182	4362.1	3462.65
907.09	1711.3358	4333.3	3433.45
907.2313	1713.0527	4322.15	3423
907.3725	1714.7688	4306.5	3398.1
907.5138	1716.4841	4276.3	3369.55
907.655	1718.1987	4272.15	3362.65
907.7962	1719.9126	4252.25	3350.9
907.9374	1721.6257	4223.8	3322.7
908.0786	1723.338	4197	3296.3
908.2198	1725.0496	4194.25	3292.2
908.3609	1726.7605	4188.4	3283.95
908.502	1728.4706	4188.4	3284.3
908.6431	1730.18	4161.7	3259.5
908.7842	1731.8886	4153.8	3254.45
908.9253	1733.5964	4138.2	3218.05
909.0664	1735.3036	4109.7	3205.85
909.2074	1737.0099	4107.25	3206.15
909.3484	1738.7156	4080.6	3181.65
909.4894	1740.4204	4043	3139.25
909.6304	1742.1246	4031.9	3126.65
909.7714	1743.8279	4004.8	3103.95
909.9123	1745.5306	3998.8	3099.3
910.0532	1747.2325	3971	3071.55
910.1941	1748.9336	3954.35	3052
910.335	1750.634	3931.2	3027.05
910.4759	1752.3336	3918.05	3017.85
910.6168	1754.0325	3912.15	3015.45
910.7576	1755.7307	3904.65	3006.5
910.8984	1757.4281	3909.35	3008.5
911.0392	1759.1247	3912.85	3000.75
911.18	1760.8206	3895.9	2986.25
911.3208	1762.5158	3892.6	2982.35
911.4615	1764.2102	3867.1	2964.05
911.6022	1765.9039	3859.75	2960.5
911.7429	1767.5968	3857.5	2961.85
911.8836	1769.289	3826.25	2927.35
912.0243	1770.9804	3814.9	2913.55
912.1649	1772.6711	3841.2	2933.4
912.3056	1774.361	3823.25	2915.05
912.4462	1776.0502	3815.65	2910.15
912.5868	1777.7386	3800.4	2895.1
912.7274	1779.4263	3788.2	2885.75
912.8679	1781.1132	3788.35	2890.3
913.0084	1782.7994	3776.25	2878.75
913.149	1784.4849	3756.75	2859.5
913.2895	1786.1696	3763.25	2847.5
913.4299	1787.8535	3751.95	2855.85
913.5704	1789.5367	3731.05	2836
913.7108	1791.2192	3733.6	2837.85
913.8513	1792.9009	3741.25	2817.35
913.9917	1794.5818	3719.25	2815.15
914.132	1796.2621	3720.4	2819.35
914.2724	1797.9415	3708.75	2805
914.4128	1799.6202	3689.55	2785.7
914.5531	1801.2982	3674.1	2771.35
914.6934	1802.9755	3688.4	2783.95
914.8337	1804.6519	3684.35	2779.75
914.9739	1806.3277	3666.15	2768
915.1142	1808.0027	3636.75	2741.2
915.2544	1809.6769	3637.55	2743
915.3946	1811.3504	3623.85	2729.5
915.5348	1813.0231	3629.6	2733.8
915.675	1814.6951	3620.05	2725.4
915.8151	1816.3664	3622.55	2718.85
915.9553	1818.0369	3613.1	2711.65
916.0954	1819.7067	3597.35	2697
916.2355	1821.3757	3592.05	2689.35
916.3755	1823.044	3593.15	2693.35
916.5156	1824.7115	3590.6	2689
916.6556	1826.3783	3587.7	2685.8
916.7956	1828.0443	3572.75	2674.2
916.9356	1829.7096	3560.3	2656.65
917.0756	1831.3741	3543.75	2641.35
917.2155	1833.0379	3535.75	2638.9
917.3555	1834.701	3545.75	2651.7
917.4954	1836.3633	3519.4	2623.55
917.6353	1838.0248	3538.65	2639.6
917.7751	1839.6856	3533.35	2634.3
917.915	1841.3457	3524	2626.1
918.0548	1843.005	3520.4	2620.55
918.1946	1844.6636	3500.35	2600.4
918.3344	1846.3214	3503.75	2603.25
918.4742	1847.9785	3507.25	2610.5
918.6139	1849.6349	3506.65	2603.65
918.7537	1851.2904	3504.55	2592.25
918.8934	1852.9453	3488.8	2586.6
919.0331	1854.5994	3489.1	2583.45
919.1727	1856.2528	3490.35	2585.4
919.3124	1857.9054	3472.75	2570.4
919.452	1859.5572	3466.8	2567.85
919.5916	1861.2083	3458.2	2559.25
919.7312	1862.8587	3445.4	2544
919.8708	1864.5084	3447.2	2544.6
920.0103	1866.1572	3442.4	2540.2
920.1498	1867.8054	3426.25	2522.75
920.2893	1869.4528	3431.45	2530.25
920.4288	1871.0994	3414.6	2511.1
920.5683	1872.7453	3407.25	2506.15
920.7077	1874.3905	3431.1	2523.65
920.8471	1876.0349	3396.7	2494.65
920.9865	1877.6786	3397.45	2495.5
921.1259	1879.3215	3390.65	2490.35
921.2653	1880.9637	3399.5	2501.25
921.4046	1882.6051	3387.2	2489.1
921.5439	1884.2458	3369.75	2469.8
921.6832	1885.8858	3362.25	2463.15
921.8225	1887.525	3365.65	2466.45
921.9617	1889.1634	3338.85	2439.7
922.101	1890.8011	3334.3	2432.4
922.2402	1892.4381	3342.25	2439.05
922.3794	1894.0743	3341.05	2441.65
922.5185	1895.7098	3315.15	2415.35
922.6577	1897.3446	3319.15	2418.15
922.7968	1898.9786	3299.85	2394.85
922.9359	1900.6118	3304.7	2406.65
923.075	1902.2443	3285.65	2388.15
923.214	1903.8761	3285.55	2384.65
923.3531	1905.5071	3260.8	2360.7
923.4921	1907.1374	3270.35	2373
923.6311	1908.7669	3257.4	2361.05
923.77	1910.3957	3259.55	2360.8
923.909	1912.0237	3255.45	2356.7
924.0479	1913.651	3240.25	2338.4
924.1868	1915.2776	3232.3	2334.25
924.3257	1916.9034	3215.4	2317.9
924.4646	1918.5285	3216.8	2320.75
924.6034	1920.1528	3204.5	2306.65
924.7422	1921.7764	3196.6	2297
924.881	1923.3992	3194.6	2295.7
925.0198	1925.0213	3177.55	2278.95
925.1586	1926.6427	3174.7	2276.55
925.2973	1928.2633	3256.4	2272.9
925.436	1929.8832	3170.8	2269.45
925.5747	1931.5023	3141.95	2244.1
925.7134	1933.1207	3138.55	2240.65
925.852	1934.7383	3137.85	2240.7
925.9906	1936.3552	3128.15	2232.4
926.1292	1937.9714	3122.35	2226.9
926.2678	1939.5868	3124.65	2225.25
926.4064	1941.2015	3098.7	2198.05
926.5449	1942.8154	3087.4	2188.3
926.6834	1944.4286	3095.45	2194.65
926.8219	1946.041	3099.15	2179.05
926.9604	1947.6528	3071.35	2167.15
927.0988	1949.2637	3068	2168.85
927.2372	1950.8739	3047.6	2149.65
927.3756	1952.4834	3047.65	2149.45
927.514	1954.0921	3031.15	2133.35
927.6523	1955.7001	3045.1	2145.55
927.7907	1957.3074	3023.7	2131.25
927.929	1958.9139	3010.7	2119.4
928.0673	1960.5197	3016.4	2120.35
928.2055	1962.1247	2992.2	2095.2
928.3438	1963.729	2987.8	2095.85
928.482	1965.3325	2974.7	2076.35
928.6202	1966.9353	2974.35	2082.2
928.7584	1968.5374	2981.7	2088.5
928.8965	1970.1387	2967.45	2072.3
929.0346	1971.7393	2963.55	2068.1
929.1727	1973.3392	2945.35	2049.5
929.3108	1974.9383	2934.45	2041.15
929.4489	1976.5366	2925.25	2034.35
929.5869	1978.1342	2918.7	2030.25
929.7249	1979.7311	2916.05	2025.8
929.8629	1981.3273	2914.4	2023.45
930.0009	1982.9227	2902.05	2011.1
930.1388	1984.5173	2903.35	2015.95
930.2767	1986.1112	2882.1	1993.3
930.4146	1987.7044	2885.65	1993.75
930.5525	1989.2968	2875.15	1980.8
930.6904	1990.8885	2887.8	1993.75
930.8282	1992.4795	2883.25	1993.95
930.966	1994.0697	2857.85	1969.05
931.1038	1995.6592	2849	1960.2
931.2415	1997.2479	2836.3	1945.6
931.3793	1998.8359	2855.2	1966.2
931.517	2000.4232	2832.35	1947.3
931.6547	2002.0097	2826.45	1942.55
931.7923	2003.5955	2812.05	1926.1
931.93	2005.1805	2822	1934.15
932.0676	2006.7648	2826.25	1937.9
932.2052	2008.3484	2804.45	1918.75
932.3427	2009.9312	2816.85	1930.9
932.4803	2011.5133	2797.95	1916.15
932.6178	2013.0946	2785.05	1900.1
932.7553	2014.6752	2785	1900.7
932.8928	2016.2551	2777.85	1890.45
933.0302	2017.8342	2773.6	1889.15
933.1676	2019.4126	2761.7	1877.1
933.305	2020.9902	2760.85	1880.05
933.4424	2022.5672	2754.6	1868.75
933.5798	2024.1433	2760.55	1872.4
933.7171	2025.7188	2737.1	1857.45
933.8544	2027.2935	2736.6	1851.95
933.9917	2028.8674	2740.1	1859.45
934.129	2030.4406	2730.1	1849
934.2662	2032.0131	2722.95	1843.15
934.4034	2033.5849	2726.55	1844.05
934.5406	2035.1559	2711	1828.2
934.6778	2036.7261	2706.85	1821.9
934.8149	2038.2957	2709.3	1819.5
934.952	2039.8645	2709.5	1820.9
935.0891	2041.4325	2710.9	1819.4
935.2262	2042.9998	2699.2	1813.95
935.3632	2044.5664	2688.45	1803.2
935.5002	2046.1323	2678.4	1796.45
935.6372	2047.6974	2674.6	1791.9
935.7742	2049.2617	2664.9	1783.6
935.9111	2050.8254	2668.85	1778.25
936.048	2052.3883	2677.05	1788.7
936.1849	2053.9504	2660.15	1770.85
936.3218	2055.5118	2656.45	1767.3
936.4586	2057.0725	2664.1	1773.95
936.5955	2058.6325	2646.3	1762.05
936.7323	2060.1917	2630	1745.15
936.869	2061.7502	2622.85	1737.65
937.0058	2063.3079	2622.85	1739.65
937.1425	2064.8649	2629.8	1743.7
937.2792	2066.4212	2616.9	1729
937.4159	2067.9767	2616	1731.05
937.5525	2069.5315	2610.55	1724.65
937.6891	2071.0856	2598.8	1713.45
937.8257	2072.6389	2598.95	1714.7
937.9623	2074.1915	2577.05	1694.75
938.0989	2075.7433	2580.1	1694.3
938.2354	2077.2945	2570.05	1687.15
938.3719	2078.8448	2573.85	1685
938.5084	2080.3945	2564.95	1677
938.6448	2081.9434	2577.15	1688.1
938.7812	2083.4916	2569.3	1680.1
938.9176	2085.039	2554.45	1659.6
939.054	2086.5857	2553.7	1657
939.1903	2088.1317	2546.7	1651.75
939.3267	2089.677	2548.95	1653.35
939.463	2091.2215	2541.95	1647.55
939.5992	2092.7652	2541.75	1644.25
939.7355	2094.3083	2519.95	1624.75
939.8717	2095.8506	2520.65	1627.45
940.0079	2097.3921	2525.35	1634.35
940.1441	2098.933	2516.85	1627.65
940.2802	2100.4731	2518.85	1629.75
940.4163	2102.0124	2523	1615.15
940.5524	2103.5511	2513.8	1624.25
940.6885	2105.089	2504.75	1612.6
940.8245	2106.6261	2497.4	1606.65
940.9606	2108.1626	2496.9	1607
941.0965	2109.6983	2526.1	1604.85
941.2325	2111.2332	2493.05	1602.65
941.3684	2112.7675	2492.6	1598.7
941.5044	2114.301	2489.5	1594.75
941.6403	2115.8337	2485.3	1593.9
941.7761	2117.3657	2474.25	1581.9
941.912	2118.897	2467.9	1576.2
942.0478	2120.4276	2466.25	1567.75
942.1835	2121.9575	2464.2	1571.35
942.3193	2123.4866	2457.45	1563.1
942.455	2125.0149	2456.7	1562.2
942.5907	2126.5426	2443.5	1555.6
942.7264	2128.0695	2440.6	1551.05
942.8621	2129.5956	2423.2	1540.1
942.9977	2131.1211	2429.6	1541.65
943.1333	2132.6458	2432	1544.4
943.2689	2134.1698	2427.7	1534.05
943.4044	2135.693	2420.7	1522.45
943.54	2137.2155	2427.25	1529.7
943.6755	2138.7373	2414.5	1526.2
943.8109	2140.2584	2404.95	1518.75
943.9464	2141.7787	2403.5	1514.3
944.0818	2143.2983	2392.65	1511.05
944.2172	2144.8171	2384.6	1503.75
944.3526	2146.3353	2379.5	1490.65
944.4879	2147.8527	2375	1489.35
944.6232	2149.3693	2382.7	1492.4
944.7585	2150.8853	2388.4	1496
944.8938	2152.4005	2377.4	1484.25
945.029	2153.9149	2366.75	1471.85
945.1642	2155.4287	2365.3	1471.25
945.2994	2156.9417	2363.5	1470.9
945.4346	2158.454	2348.5	1458.15
945.5697	2159.9655	2340.75	1454.35
945.7048	2161.4764	2350.55	1464.95
945.8399	2162.9865	2345.5	1457.3
945.9749	2164.4958	2341.65	1454.6
946.1099	2166.0045	2341.05	1452.1
946.2449	2167.5124	2328.2	1440.85
946.3799	2169.0195	2314.35	1426.5
946.5148	2170.526	2331.35	1438.4
946.6498	2172.0317	2323	1430.1
946.7846	2173.5367	2311.3	1421.5
946.9195	2175.0409	2315.05	1426.2
947.0543	2176.5445	2317.2	1427.5
947.1891	2178.0473	2307.5	1416.2
947.3239	2179.5494	2306.65	1410.9
947.4587	2181.0507	2306	1414.25
947.5934	2182.5513	2299	1409
947.7281	2184.0512	2298.5	1409
947.8628	2185.5504	2288.85	1400.15
947.9974	2187.0488	2272.95	1384.25
948.132	2188.5465	2272.8	1387.6
948.2666	2190.0435	2273.45	1384.75
948.4012	2191.5397	2274.6	1384.65
948.5357	2193.0353	2270.65	1377.45
948.6702	2194.5301	2263.6	1369.25
948.8047	2196.0241	2264.5	1368.65
948.9392	2197.5175	2261.45	1363.85
949.0736	2199.0101	2255.3	1357.5
949.208	2200.502	2237.8	1347.45
949.3424	2201.9931	2231.75	1346.1
949.4767	2203.4835	2238.25	1351.25
949.611	2204.9733	2236.25	1333.6
949.7453	2206.4622	2222.15	1336.45
949.8796	2207.9505	2212.5	1324.75
950.0138	2209.438	2213.35	1330.1
950.148	2210.9248	2202.95	1315.3
950.2822	2212.4109	2201.8	1312.95
950.4164	2213.8962	2206.35	1311.65
950.5505	2215.3809	2208.5	1310.6
950.6846	2216.8648	2207.95	1310.1
950.8186	2218.3479	2203.65	1302.9
950.9527	2219.8304	2203.85	1302.45
951.0867	2221.3121	2188.15	1288.2
951.2207	2222.7931	2179.7	1285.8
951.3546	2224.2733	2172.45	1280.45
951.4886	2225.7529	2171	1278.5
951.6225	2227.2317	2167.2	1274.85
951.7563	2228.7098	2157.45	1269.65
951.8902	2230.1872	2148.95	1264.3
952.024	2231.6638	2151.75	1264.5
952.1578	2233.1397	2147.35	1257.8
952.2916	2234.6149	2145.35	1257.6
952.4253	2236.0894	2142.45	1252.05
952.559	2237.5632	2149.8	1250.1
952.6927	2239.0362	2132.1	1241.15
952.8263	2240.5085	2132.6	1244.05
952.9599	2241.9801	2115.25	1223.3
953.0935	2243.4509	2124.3	1229.8
953.2271	2244.921	2128.75	1236.35
953.3606	2246.3904	2112.15	1217.55
953.4941	2247.8591	2115	1221.9
953.6276	2249.3271	2099.65	1206.7
953.7611	2250.7943	2112.7	1217.45
953.8945	2252.2608	2096.8	1203.4
954.0279	2253.7266	2087.75	1196.75
954.1612	2255.1917	2086	1195.4
954.2946	2256.656	2083.1	1190.5
954.4279	2258.1197	2077.65	1191.55
954.5612	2259.5826	2081.3	1191
954.6944	2261.0447	2070.8	1177.9
954.8276	2262.5062	2082.35	1187.95
954.9608	2263.9669	2075.65	1180.25
955.094	2265.4269	2060.5	1169.25
955.2271	2266.8862	2059.45	1169.55
955.3602	2268.3448	2050.8	1161.6
955.4933	2269.8026	2056.7	1167.75
955.6264	2271.2598	2051.05	1161.1
955.7594	2272.7162	2045.3	1154.35
955.8924	2274.1719	2045	1151.45
956.0253	2275.6268	2053.1	1159.15
956.1583	2277.0811	2049.5	1156.55
956.2912	2278.5346	2046.6	1157.65
956.4241	2279.9874	2042.9	1154.4
956.5569	2281.4395	2033.3	1145.8
956.6897	2282.8908	2040.35	1144.25
956.8225	2284.3414	2029.5	1136
956.9553	2285.7914	2023.65	1132.35
957.088	2287.2406	2027.6	1133.05
957.2207	2288.689	2030.5	1137.25
957.3534	2290.1368	2022.5	1125.85
957.486	2291.5838	2035	1132.6
957.6186	2293.0302	2019.45	1119.2
957.7512	2294.4758	2017.4	1122.35
957.8838	2295.9206	2024.7	1131.15
958.0163	2297.3648	1997.6	1108.1
958.1488	2298.8082	2006.4	1114
958.2813	2300.251	1994.55	1102.1
958.4137	2301.693	2008.3	1109.75
958.5461	2303.1343	2008.25	1114.4
958.6785	2304.5748	2001.95	1108.4
958.8108	2306.0147	1981.65	1091
958.9432	2307.4538	1980.4	1090.5
959.0754	2308.8922	1981.55	1095.75
959.2077	2310.3299	1973	1084.35
959.3399	2311.7669	1974.9	1088.45
959.4721	2313.2031	1966.3	1076.05
959.6043	2314.6387	1968.9	1078.15
959.7365	2316.0735	1962	1069.65
959.8686	2317.5076	1953.9	1059.85
960.0006	2318.941	1960.65	1068.15
960.1327	2320.3737	1957.55	1061.6
960.2647	2321.8056	1960.4	1063.7
960.3967	2323.2369	1949	1056
960.5287	2324.6674	1947.2	1054.9
960.6606	2326.0972	1940.7	1047.7
960.7925	2327.5263	1942.25	1049.85
960.9244	2328.9547	1946	1053.9
961.0562	2330.3823	1930.65	1035.2
961.1881	2331.8092	1948.4	1048.8
961.3198	2333.2355	1930.05	1034.3
961.4516	2334.661	1925.9	1030.85
961.5833	2336.0858	1925.25	1030.45
961.715	2337.5098	1920.45	1027.65
961.8467	2338.9332	1916	1024.05
961.9783	2340.3558	1919.35	1025.75
962.1099	2341.7778	1912.7	1020.9
962.2415	2343.199	1904.1	1010.85
962.373	2344.6195	1908.25	1016.5
962.5045	2346.0393	1904.1	1013.6
962.636	2347.4583	1901.05	1009.8
962.7675	2348.8767	1906.1	1011.3
962.8989	2350.2943	1908.9	1013.8
963.0303	2351.7113	1915.05	1016.75
963.1617	2353.1275	1898.6	1001.25
963.293	2354.543	1906.1	1001.75
963.4243	2355.9578	1900.65	1005.4
963.5556	2357.3718	1878.9	988.75
963.6868	2358.7852	1877.45	984.35
963.818	2360.1978	1890	1000.15
963.9492	2361.6098	1879.65	990.1
964.0803	2363.021	1881.25	985
964.2114	2364.4315	1876.7	982.6
964.3425	2365.8413	1863.5	970.9
964.4736	2367.2504	1867.5	978.3
964.6046	2368.6587	1860.1	970.35
964.7356	2370.0664	1853.45	962.25
964.8666	2371.4733	1864.65	973.8
964.9975	2372.8795	1857.95	967.75
965.1284	2374.285	1857.05	962.65
965.2593	2375.6899	1847.9	954.55
965.3901	2377.0939	1843.95	952.8
965.5209	2378.4973	1850.1	960.35
965.6517	2379.9	1842.4	949.3
965.7825	2381.3019	1844.9	952.45
965.9132	2382.7032	1832.9	942.7
966.0439	2384.1037	1830.1	941.75
966.1745	2385.5035	1829.45	941.9
966.3051	2386.9027	1817.8	932.05
966.4357	2388.3011	1823.8	933.2
966.5663	2389.6987	1821.6	932.2
966.6968	2391.0957	1820.45	930.25
966.8273	2392.492	1808.45	919.35
966.9578	2393.8876	1810.05	920.05
967.0882	2395.2824	1802.05	911.65
967.2186	2396.6765	1799.65	909.85
967.349	2398.07	1800.15	906.65
967.4793	2399.4627	1799.8	905.35
967.6097	2400.8547	1799.25	908.15
967.7399	2402.246	1798.1	899.75
967.8702	2403.6366	1789.9	898.55
968.0004	2405.0265	1779.85	888.8
968.1306	2406.4156	1782.3	887.5
968.2607	2407.8041	1792.1	896.55
968.3909	2409.1918	1782.95	889.2
968.521	2410.5789	1777.8	884.95
968.651	2411.9652	1771.35	875.95
968.781	2413.3508	1772.4	879.15
968.911	2414.7358	1762.1	868.3
969.041	2416.12	1771.2	880.05
969.1709	2417.5035	1759.9	869.8
969.3008	2418.8863	1757.9	865.5
969.4307	2420.2684	1760.1	866.9
969.5606	2421.6497	1756.9	862.1
969.6904	2423.0304	1748.45	858.7
969.8201	2424.4104	1752.35	858.6
969.9499	2425.7896	1752.6	855.35
970.0796	2427.1682	1738.2	845.3
970.2093	2428.546	1748.95	858.5
970.3389	2429.9232	1740.85	847.05
970.4685	2431.2996	1738	845.4
970.5981	2432.6753	1741.15	847.8
970.7277	2434.0503	1735	841.45
970.8572	2435.4246	1740	848.65
970.9867	2436.7982	1726.45	832.15
971.1161	2438.1711	1729.95	838.25
971.2456	2439.5433	1719	826.15
971.375	2440.9148	1722.25	824.35
971.5043	2442.2856	1715.05	823.85
971.6336	2443.6557	1713.65	818.65
971.7629	2445.025	1707.1	814.6
971.8922	2446.3937	1707.1	814.75
972.0214	2447.7617	1713.3	821.1
972.1506	2449.1289	1706.25	813.65
972.2798	2450.4955	1707.35	810.5
972.4089	2451.8613	1696.75	806.6
972.538	2453.2265	1692.95	803.6
972.6671	2454.5909	1698.5	805.3
972.7961	2455.9546	1686.75	792.75
972.9251	2457.3177	1686.1	793.4
973.0541	2458.68	1685.35	791.8
973.1831	2460.0416	1684.7	791.95
973.312	2461.4025	1688.3	796.45
973.4408	2462.7627	1686.45	785.55
973.5697	2464.1222	1680.85	793.65
973.6985	2465.4811	1677.85	789.35
973.8273	2466.8392	1675.1	786.25
973.956	2468.1966	1679.9	788.5
974.0847	2469.5533	1678.3	784
974.2134	2470.9093	1680.25	789.3
974.3421	2472.2645	1665.55	772.75
974.4707	2473.6191	1670.15	778.05
974.5993	2474.973	1675.25	784.5
974.7278	2476.3262	1669.2	776.4
974.8563	2477.6787	1665.55	775.15
974.9848	2479.0305	1662.4	772.1
975.1132	2480.3816	1660	767.8
975.2417	2481.7319	1658.85	767.6
975.37	2483.0816	1652.3	758.65
975.4984	2484.4306	1651.05	760.7
975.6267	2485.7789	1647.15	759.65
975.755	2487.1264	1642.5	750.3
975.8833	2488.4733	1644.05	753.9
976.0115	2489.8195	1642.95	745.15
976.1397	2491.165	1637.85	744.1
976.2678	2492.5097	1642.25	748.85
976.3959	2493.8538	1639.4	749.6
976.524	2495.1972	1624.9	737.5
976.6521	2496.5398	1630.7	738.8
976.7801	2497.8818	1631.25	738.1
976.9081	2499.2231	1627.1	735.4
977.036	2500.5637	1633.9	738.45
977.164	2501.9035	1624.7	730.45
977.2918	2503.2427	1626.45	729.9
977.4197	2504.5812	1621.9	732.25
977.5475	2505.919	1618.9	726.15
977.6753	2507.256	1619.1	727.1
977.8031	2508.5924	1615.5	723.9
977.9308	2509.9281	1615.35	717.6
978.0585	2511.2631	1609.95	719.25
978.1861	2512.5974	1603.55	713.15
978.3137	2513.9309	1601.05	710.75
978.4413	2515.2638	1629.45	711.2
978.5689	2516.596	1603.7	712.95
978.6964	2517.9275	1597.6	703.35
978.8239	2519.2583	1593.75	700.1
978.9513	2520.5884	1593.95	700.95
979.0788	2521.9178	1599.1	706.35
979.2062	2523.2465	1578.45	688.85
979.3335	2524.5745	1587.7	698.55
979.4608	2525.9018	1579.4	687.4
979.5881	2527.2284	1590.15	700.2
979.7154	2528.5543	1585.25	695.95
979.8426	2529.8796	1584.35	692.35
979.9698	2531.2041	1579.25	687.7
980.0969	2532.5279	1574.45	685.9
980.224	2533.851	1578.85	687.45
980.3511	2535.1735	1575.15	684.55
980.4781	2536.4952	1573.05	679.55
980.6052	2537.8163	1568.6	675.9
980.7321	2539.1366	1572.05	681.25
980.8591	2540.4562	1568.85	677.3
980.986	2541.7752	1571.85	679.5
981.1129	2543.0935	1575.4	682.7
981.2397	2544.411	1576.35	684.2
981.3665	2545.7279	1564.35	671.7
981.4933	2547.0441	1571.05	679.25
981.62	2548.3596	1563	669.55
981.7467	2549.6744	1564.65	673.25
981.8734	2550.9885	1564.2	665.6
982.0001	2552.3019	1558.55	666.95
982.1267	2553.6146	1555.85	663.4
982.2532	2554.9266	1551.8	661
982.3798	2556.2379	1551.55	656.45
982.5063	2557.5485	1556.65	669.05
982.6327	2558.8585	1559.55	663.45
982.7592	2560.1677	1548.65	654.6
982.8856	2561.4762	1547.4	655.45
983.0119	2562.7841	1544.55	650.65
983.1383	2564.0913	1554.15	663.15
983.2646	2565.3977	1545.6	655
983.3908	2566.7035	1542.5	652.05
983.517	2568.0086	1552.8	660.35
983.6432	2569.313	1546.15	654.1
983.7694	2570.6167	1551.15	654.8
983.8955	2571.9197	1541.3	650.65
984.0216	2573.222	1546.45	652.25
984.1476	2574.5236	1544.05	652.25
984.2737	2575.8246	1536.75	642.85
984.3996	2577.1248	1544.3	651.25
984.5256	2578.4244	1542.9	652.5
984.6515	2579.7232	1546.7	656.7
984.7774	2581.0214	1559.35	639.35
984.9032	2582.3189	1534.1	643.45
985.029	2583.6157	1541.3	646.15
985.1548	2584.9118	1535.9	645.4
985.2806	2586.2072	1536.1	647.55
985.4063	2587.5019	1536.1	646.95
985.5319	2588.7959	1536.5	647.1
985.6576	2590.0893	1542.6	650.2
985.7832	2591.3819	1529.55	638.95
985.9087	2592.6739	1523.3	633.05
986.0343	2593.9652	1534.4	644.25
986.1597	2595.2557	1532.55	640.45
986.2852	2596.5456	1539.65	649.5
986.4106	2597.8348	1536.35	645.35
986.536	2599.1234	1535.3	647.55
986.6614	2600.4112	1528.85	638.3
986.7867	2601.6983	1527.35	636.7
986.912	2602.9848	1528.2	638.6
987.0372	2604.2705	1530.3	632.5
987.1624	2605.5556	1531.15	641.35
987.2876	2606.84	1526.05	637.7
987.4128	2608.1237	1526.3	638.05
987.5379	2609.4067	1522.8	630.65
987.6629	2610.689	1524.1	626.05
987.788	2611.9707	1521.9	630
987.913	2613.2516	1518	626
988.0379	2614.5319	1501.8	611.9
988.1629	2615.8115	1507.6	618.4
988.2878	2617.0903	1499.45	608.6
988.4126	2618.3685	1507.15	616.9
988.5375	2619.6461	1497	607.1
988.6622	2620.9229	1495.55	608.2
988.787	2622.199	1498	609.2
988.9117	2623.4745	1499.95	610.6
989.0364	2624.7493	1492.3	603.75
989.161	2626.0234	1486.5	596.9
989.2857	2627.2968	1489.15	600
989.4102	2628.5695	1488.9	596.5
989.5348	2629.8415	1493.45	605.45
989.6593	2631.1128	1493.8	603
989.7837	2632.3835	1482.6	594.7
989.9082	2633.6535	1487.3	599.7
990.0326	2634.9228	1474.85	587.95
990.1569	2636.1914	1485.85	600.15
990.2812	2637.4593	1481	592.85
990.4055	2638.7265	1482.4	593.5
990.5298	2639.9931	1476.25	590.1
990.654	2641.259	1476.3	588.05
990.7782	2642.5242	1474.2	586.15
990.9023	2643.7887	1469.65	581.8
991.0264	2645.0525	1471.8	585.65
991.1505	2646.3156	1459.75	571.9
991.2745	2647.5781	1463.65	574.3
991.3985	2648.8398	1462.15	576.5
991.5225	2650.1009	1501.2	574.9
991.6464	2651.3613	1463.2	574.65
991.7703	2652.6211	1456.6	568.25
991.8942	2653.8801	1453.6	565.45
992.018	2655.1385	1459.2	567.65
992.1418	2656.3961	1454.8	567.75
992.2655	2657.6531	1462.3	574.8
992.3892	2658.9094	1461.45	572.25
992.5129	2660.1651	1454.75	569.05
992.6366	2661.42	1452.9	565.95
992.7602	2662.6743	1459.05	569.7
992.8837	2663.9279	1461.25	572.85
993.0073	2665.1808	1465.9	580.2
993.1307	2666.433	1462.35	573.7
993.2542	2667.6846	1464.15	575.65
993.3776	2668.9354	1462.65	573.1
993.501	2670.1856	1466.45	577.65
993.6244	2671.4351	1465.05	577.35
993.7477	2672.6839	1461.85	572.75
993.8709	2673.9321	1466.15	577.35
993.9942	2675.1795	1477.3	590.3
994.1174	2676.4263	1472.05	584.2
994.2405	2677.6724	1462.9	576.15
994.3637	2678.9179	1468.05	580.1
994.4868	2680.1626	1461.85	574.55
994.6098	2681.4067	1466.5	579.1
994.7328	2682.6501	1466.85	579.6
994.8558	2683.8928	1460.9	572.8
994.9788	2685.1348	1466.15	578.85
995.1017	2686.3761	1449.3	562.15
995.2245	2687.6168	1459.35	572.55
995.3474	2688.8568	1444.75	558
995.4702	2690.0961	1449.9	566.8
995.5929	2691.3348	1442.15	552.95
995.7156	2692.5727	1444.35	557.45
995.8383	2693.81	1445.6	558.15
995.961	2695.0466	1437.3	552.45
996.0836	2696.2826	1442.85	550.5
996.2062	2697.5178	1444.4	555.45
996.3287	2698.7524	1439.05	550.6
996.4512	2699.9863	1449.1	559.95
996.5737	2701.2195	1450.1	562.55
996.6961	2702.452	1455.85	566.35
996.8185	2703.6839	1455.1	567.65
996.9408	2704.9151	1453.75	565.15
997.0631	2706.1456	1460.75	573.75
997.1854	2707.3755	1462.8	575.25
997.3077	2708.6046	1472.65	582.25
997.4299	2709.8331	1476.75	590.05
997.552	2711.0609	1475.65	588.4
997.6742	2712.2881	1483.6	597.2
997.7963	2713.5145	1492.85	605.45
997.9183	2714.7403	1495.6	610.35
998.0403	2715.9654	1504.05	615.65
998.1623	2717.1899	1523.55	622.55
998.2842	2718.4136	1522.7	635.4
998.4062	2719.6367	1531.25	644.3
998.528	2720.8591	1546.9	653.1
998.6498	2722.0809	1555.5	668.3
998.7716	2723.3019	1570.85	681.7
998.8934	2724.5223	1571.95	683.6
999.0151	2725.7421	1579.05	690.3
999.1368	2726.9611	1573.5	685.45
999.2584	2728.1795	1573.95	680.5
999.38	2729.3972	1565.55	680.7
999.5016	2730.6142	1570.85	671.85
999.6231	2731.8306	1531.35	643.7
999.7446	2733.0462	1530.15	644.05
999.8661	2734.2612	1520.65	629
999.9875	2735.4756	1500.75	612
1000.1089	2736.6892	1488.95	602.8
1000.2302	2737.9022	1474.1	590.2
1000.3515	2739.1145	1465.45	577.5
1000.4728	2740.3262	1459	564.25
1000.594	2741.5372	1445.4	560.6
1000.7152	2742.7475	1436.3	549.25
1000.8363	2743.9571	1422.2	535.35
1000.9575	2745.1661	1421.5	529.05
1001.0785	2746.3744	1414.95	528.55
1001.1996	2747.582	1399.5	514.3
1001.3206	2748.7889	1399.1	511.35
1001.4415	2749.9952	1393.95	508.25
1001.5625	2751.2008	1386.05	498.5
1001.6833	2752.4057	1386.95	498.95
1001.8042	2753.61	1375.85	488
1001.925	2754.8136	1382.95	497.2
1002.0458	2756.0165	1376.4	491.2
1002.1665	2757.2188	1378	495
1002.2872	2758.4204	1370.25	484.1
1002.4078	2759.6213	1373.6	484.3
1002.5285	2760.8215	1368.65	478.45
1002.649	2762.0211	1376.45	489.65
1002.7696	2763.22	1367.2	478.25
1002.8901	2764.4182	1369.3	482.8
1003.0106	2765.6158	1370.7	484.8
1003.131	2766.8127	1366.45	480.65
1003.2514	2768.009	1365.65	478.2
1003.3717	2769.2045	1357.25	470.8
1003.492	2770.3994	1361.1	472.95
1003.6123	2771.5936	1349.2	462.05
1003.7325	2772.7872	1350.15	465.6
1003.8527	2773.9801	1353.45	466.5
1003.9729	2775.1723	1356.15	455.25
1004.093	2776.3639	1343	455.4
1004.2131	2777.5548	1341.65	454.7
1004.3331	2778.745	1342	454.85
1004.4531	2779.9346	1343.85	461
1004.5731	2781.1235	1344.15	458.8
1004.693	2782.3117	1342.7	459.75
1004.8129	2783.4992	1340.55	456.7
1004.9328	2784.6861	1345.5	460.25
1005.0526	2785.8723	1353.65	465.4
1005.1723	2787.0579	1358.45	474.5
1005.2921	2788.2428	1358	473.4
1005.4118	2789.427	1359.6	476.3
1005.5314	2790.6106	1361.95	476.5
1005.651	2791.7935	1365.95	481.75
1005.7706	2792.9757	1373	489.7
1005.8902	2794.1573	1378.4	491.75
1006.0097	2795.3382	1385.55	500.5
1006.1291	2796.5184	1387.3	504.4
1006.2485	2797.698	1402.7	515
1006.3679	2798.8769	1403.35	518.6
1006.4873	2800.0551	1411.3	527.25
1006.6066	2801.2327	1427.85	541.35
1006.7258	2802.4096	1436.3	552.5
1006.8451	2803.5859	1446.7	562.3
1006.9642	2804.7615	1465.6	580.65
1007.0834	2805.9364	1475.2	591.55
1007.2025	2807.1106	1499.25	613.55
1007.3216	2808.2842	1512.25	627.4
1007.4406	2809.4572	1535.2	648.9
1007.5596	2810.6294	1564.55	678.9
1007.6785	2811.801	1586.25	701.85
1007.7975	2812.972	1625.65	742.05
1007.9163	2814.1423	1658.3	775.05
1008.0352	2815.3119	1687.6	801.65
1008.154	2816.4808	1733.25	850.85
1008.2727	2817.6491	1777.2	892.25
1008.3914	2818.8167	1830.6	945.9
1008.5101	2819.9837	1875.35	986.4
1008.6288	2821.15	1928.8	1045.25
1008.7474	2822.3157	1985.4	1101.2
1008.8659	2823.4807	2037.4	1152.65
1008.9844	2824.645	2087.15	1202.1
1009.1029	2825.8086	2135.55	1252.5
1009.2214	2826.9716	2185.05	1301.75
1009.3398	2828.134	2231.8	1350.5
1009.4581	2829.2957	2276.8	1392.85
1009.5764	2830.4567	2311.45	1428.85
1009.6947	2831.617	2335.2	1451.3
1009.813	2832.7767	2339.7	1454.95
1009.9312	2833.9358	2341.55	1458.6
1010.0493	2835.0941	2333.3	1447.95
1010.1675	2836.2519	2310.3	1426.9
1010.2855	2837.4089	2296.45	1413.3
1010.4036	2838.5653	2297.25	1415.25
1010.5216	2839.7211	2285.25	1404.1
1010.6396	2840.8761	2276.4	1390.9
1010.7575	2842.0306	2278.3	1396.55
1010.8754	2843.1843	2306	1421.4
1010.9932	2844.3374	2330.45	1446.2
1011.111	2845.4899	2363.3	1479.95
1011.2288	2846.6417	2404.3	1519.35
1011.3465	2847.7928	2451.3	1567.75
1011.4642	2848.9433	2498.35	1617.3
1011.5818	2850.0931	2553.6	1670.75
1011.6995	2851.2422	2610.65	1725.4
1011.817	2852.3907	2649.8	1763.95
1011.9345	2853.5385	2714.95	1830.65
1012.052	2854.6857	2749.8	1838.8
1012.1695	2855.8323	2789.4	1909.05
1012.2869	2856.9781	2828.35	1945.95
1012.4042	2858.1233	2874.1	1991.35
1012.5216	2859.2679	2909.6	2027.25
1012.6389	2860.4118	2959.25	2075
1012.7561	2861.555	3011.95	2123.4
1012.8733	2862.6976	3047.15	2162.1
1012.9905	2863.8395	3075.15	2193
1013.1076	2864.9808	3111.2	2227.9
1013.2247	2866.1214	3132.85	2251.8
1013.3417	2867.2614	3143.25	2260.55
1013.4587	2868.4007	3169.5	2284.45
1013.5757	2869.5393	3162.25	2276.6
1013.6926	2870.6773	3191.05	2304.3
1013.8095	2871.8146	3204.25	2316.4
1013.9263	2872.9513	3202.45	2315.6
1014.0431	2874.0874	3190.05	2304.1
1014.1599	2875.2227	3179.35	2296.35
1014.2766	2876.3574	3161.45	2278.25
1014.3933	2877.4915	3141.2	2258.45
1014.51	2878.6249	3110.5	2227.7
1014.6266	2879.7577	3095.8	2211.6
1014.7431	2880.8898	3091.5	2197.3
1014.8596	2882.0212	3045.75	2164.5
1014.9761	2883.152	3056.85	2173.45
1015.0925	2884.2821	3041.6	2162.7
1015.2089	2885.4116	3032.95	2149.75
1015.3253	2886.5405	3015.6	2135.1
1015.4416	2887.6686	3040.65	2154.25
1015.5579	2888.7962	3036.15	2152.35
1015.6741	2889.923	3047.1	2167.05
1015.7903	2891.0493	3066.75	2184.3
1015.9065	2892.1748	3083.3	2201.1
1016.0226	2893.2997	3070.2	2187.3
1016.1387	2894.424	3089.2	2208.45
1016.2547	2895.5476	3101.15	2221
1016.3707	2896.6706	3112.9	2229.95
1016.4866	2897.7929	3156.9	2273.1
1016.6025	2898.9145	3158.1	2275.45
1016.7184	2900.0355	3190.45	2306.6
1016.8342	2901.1559	3215.15	2332.3
1016.95	2902.2756	3225.6	2338.65
1017.0658	2903.3946	3267.4	2385.85
1017.1815	2904.513	3284.4	2400.45
1017.2971	2905.6308	3314.9	2432.35
1017.4127	2906.7479	3335	2452.55
1017.5283	2907.8643	3355	2471.6
1017.6439	2908.9801	3372.1	2492.5
1017.7594	2910.0953	3360.75	2478.15
1017.8748	2911.2098	3366.65	2481
1017.9902	2912.3236	3356.6	2468.15
1018.1056	2913.4368	3341.55	2456.6
1018.2209	2914.5494	3326.9	2445.1
1018.3362	2915.6613	3314.3	2424.7
1018.4515	2916.7725	3288.85	2404.15
1018.5667	2917.8831	3254.85	2372.65
1018.6819	2918.9931	3232.6	2348.85
1018.797	2920.1024	3210	2326.95
1018.9121	2921.211	3186.05	2302.4
1019.0271	2922.319	3164.8	2281.65
1019.1421	2923.4264	3156.65	2273.5
1019.2571	2924.5331	3156.25	2277.65
1019.372	2925.6391	3142.3	2261.6
1019.4869	2926.7445	3142	2261.05
1019.6017	2927.8493	3156.65	2275.45
1019.7165	2928.9534	3152	2269.95
1019.8313	2930.0569	3161.3	2278.6
1019.946	2931.1597	3168.45	2285
1020.0606	2932.2619	3167.25	2285.85
1020.1753	2933.3634	3168.3	2286.75
1020.2899	2934.4643	3175.2	2286.85
1020.4044	2935.5645	3178.95	2288.3
1020.5189	2936.6641	3145.65	2259.7
1020.6334	2937.763	3115.4	2236.1
1020.7478	2938.8613	3096.85	2212.45
1020.8622	2939.959	3062.15	2178.15
1020.9765	2941.056	3017.05	2136.3
1021.0908	2942.1523	2956.15	2072.65
1021.2051	2943.248	2879.45	1999.15
1021.3193	2944.3431	2808.8	1927.7
1021.4334	2945.4375	2722.55	1840.55
1021.5476	2946.5313	2629.2	1749.85
1021.6617	2947.6244	2549.9	1665.3
1021.7757	2948.7169	2469.5	1585.5
1021.8897	2949.8087	2385.75	1503.05
1022.0037	2950.8999	2298.4	1414.85
1022.1176	2951.9904	2236.6	1354.65
1022.2315	2953.0803	2169.55	1288.95
1022.3453	2954.1696	2115.75	1235.9
1022.4591	2955.2582	2079.85	1198.05
1022.5728	2956.3462	2033.9	1153.3
1022.6865	2957.4335	2000.85	1119.3
1022.8002	2958.5202	1972.5	1089.3
1022.9138	2959.6062	1952.55	1070.8
1023.0274	2960.6916	1934.45	1051.7
1023.141	2961.7764	1906.95	1024.1
1023.2545	2962.8605	1893.6	1012.6
1023.3679	2963.9439	1880.65	1000
1023.4813	2965.0267	1878.45	996.3
1023.5947	2966.1089	1884.55	981.45
1023.708	2967.1905	1856.05	974.45
1023.8213	2968.2714	1865.15	984.25
1023.9346	2969.3516	1846.15	964.15
1024.0478	2970.4312	1862.75	976.8
1024.1609	2971.5102	1867.9	987.1
1024.274	2972.5885	1872.3	992.4
1024.3871	2973.6662	1875.05	989.9
1024.5002	2974.7432	1870.65	988.7
1024.6132	2975.8196	1860.2	978.35
1024.7261	2976.8954	1866.15	987.8
1024.839	2977.9705	1853.9	972.25
1024.9519	2979.045	1840.75	960.75
1025.0647	2980.1188	1837.5	956.7
1025.1775	2981.192	1813.85	934.55
1025.2902	2982.2645	1807.05	925.9
1025.4029	2983.3364	1786.15	904.35
1025.5156	2984.4077	1776	894.8
1025.6282	2985.4783	1746.05	858.6
1025.7407	2986.5483	1712.65	834.3
1025.8532	2987.6177	1690	810.35
1025.9657	2988.6864	1659.95	778.85
1026.0782	2989.7545	1630.8	750
1026.1906	2990.8219	1597.75	717.15
1026.3029	2991.8887	1573.25	690.8
1026.4152	2992.9548	1547.7	666.35
1026.5275	2994.0204	1512.5	632.05
1026.6397	2995.0852	1486.45	608.1
1026.7519	2996.1495	1462.7	581.3
1026.864	2997.2131	1444	565.7
1026.9761	2998.276	1425.3	546.4
1027.0882	2999.3383	1396	514.25
1027.2002	3000.4	1384.35	503.35
1027.3122	3001.4611	1367.2	487.85
1027.4241	3002.5215	1349.2	467.45
1027.536	3003.5812	1333.8	454.1
1027.6478	3004.6404	1325.2	441.4
1027.7596	3005.6989	1317.25	434.8
1027.8714	3006.7567	1302.75	421.1
1027.9831	3007.8139	1316.3	407
1028.0947	3008.8705	1275.6	394.2
1028.2064	3009.9264	1272.6	387.25
1028.3179	3010.9818	1267.6	385.8
1028.4295	3012.0364	1259.25	377.85
1028.541	3013.0905	1255.95	374.6
1028.6524	3014.1439	1242.6	362
1028.7638	3015.1966	1250.2	371.2
1028.8752	3016.2487	1241.25	359.65
1028.9865	3017.3002	1237.8	354.05
1029.0978	3018.3511	1228.95	352.45
1029.209	3019.4013	1231.3	350.25
1029.3202	3020.4509	1227.25	347.5
1029.4314	3021.4998	1226.4	346.4
1029.5425	3022.5481	1226.15	346.85
1029.6535	3023.5958	1219.9	340.1
1029.7645	3024.6428	1221.95	339.95
1029.8755	3025.6892	1215.8	337.2
1029.9864	3026.735	1219.2	339.25
1030.0973	3027.7802	1222.95	343.15
1030.2082	3028.8247	1218.2	336.75
1030.319	3029.8685	1219.85	338.5
1030.4297	3030.9118	1224	342.4
1030.5404	3031.9544	1214.25	332.8
1030.6511	3032.9963	1214.75	333.55
1030.7617	3034.0376	1225.95	345.1
1030.8723	3035.0783	1223.9	341.3
1030.9829	3036.1184	1232.1	353.25
1031.0934	3037.1578	1228.75	349.2
1031.2038	3038.1966	1231.15	350.6
1031.3142	3039.2348	1224.35	345.55
1031.4246	3040.2723	1234.85	347.8
1031.5349	3041.3092	1226.2	348.15
1031.6452	3042.3455	1230.4	350.75
1031.7554	3043.3811	1224.15	343.8
1031.8656	3044.4161	1228.95	349.55
1031.9758	3045.4505	1226.4	345.75
1032.0859	3046.4842	1233.3	351.4
1032.1959	3047.5173	1219.55	341.15
1032.3059	3048.5498	1219.35	340.9
1032.4159	3049.5816	1216.75	335.7
1032.5258	3050.6128	1220.9	338.75
1032.6357	3051.6434	1212	331.55
1032.7455	3052.6734	1212.1	333.65
1032.8553	3053.7027	1206.25	327.2
1032.9651	3054.7314	1206.5	324.95
1033.0748	3055.7594	1205.4	328.05
1033.1845	3056.7868	1202.6	321.95
1033.2941	3057.8136	1201.5	320.75
1033.4037	3058.8398	1198.75	321.65
1033.5132	3059.8653	1200.35	320.2
1033.6227	3060.8902	1192.95	315.4
1033.7321	3061.9145	1193.55	314.85
1033.8415	3062.9381	1192.2	314.7
1033.9509	3063.9612	1212.45	315.25
1034.0602	3064.9835	1190.7	311.7
1034.1694	3066.0053	1185.95	305.5
1034.2787	3067.0264	1181.25	302.7
1034.3878	3068.0469	1179	298.2
1034.497	3069.0668	1180	295.45
1034.6061	3070.086	1175.25	295.75
1034.7151	3071.1046	1167.55	287.75
1034.8241	3072.1226	1164.9	283.1
1034.9331	3073.1399	1162.25	284.1
1035.042	3074.1567	1154.45	273.4
1035.1508	3075.1727	1153.65	272.4
1035.2597	3076.1882	1142.85	262.9
1035.3684	3077.203	1138.2	258.1
1035.4772	3078.2173	1134.25	253.15
1035.5859	3079.2308	1132.55	249.55
1035.6945	3080.2438	1126.9	245.35
1035.8031	3081.2561	1115.3	235.8
1035.9117	3082.2678	1108.85	230.85
1036.0202	3083.2789	1102.65	224.2
1036.1286	3084.2893	1103.2	225.6
1036.2371	3085.2991	1098.25	219.6
1036.3454	3086.3083	1092.85	209.5
1036.4538	3087.3169	1090.1	208.95
1036.562	3088.3248	1083.45	202.9
1036.6703	3089.3321	1087.55	206.25
1036.7785	3090.3388	1076.15	196.85
1036.8866	3091.3449	1071.65	191.45
1036.9948	3092.3503	1069.35	189.4
1037.1028	3093.3551	1064.7	187.05
1037.2108	3094.3593	1064.85	188.5
1037.3188	3095.3629	1057.7	181.05
1037.4267	3096.3658	1061.55	181.5
1037.5346	3097.3681	1060.3	183.75
1037.6425	3098.3698	1052.45	171.7
1037.7503	3099.3708	1058.95	173.35
1037.858	3100.3713	1047.65	169.1
1037.9657	3101.3711	1046.9	165.5
1038.0734	3102.3702	1161.25	168.6
1038.181	3103.3688	1048.55	166
1038.2886	3104.3667	1036.4	160.95
1038.3961	3105.364	1040.35	160.8
1038.5036	3106.3607	1036.85	157.2
1038.611	3107.3568	1036.05	157.3
1038.7184	3108.3522	1030.45	152.65
1038.8257	3109.347	1034.1	152.1
1038.933	3110.3412	1037.1	155.3
1039.0403	3111.3348	1029.45	148.75
1039.1475	3112.3277	1021.85	143.4
1039.2547	3113.32	1020.05	142.15
1039.3618	3114.3117	1022.35	142.75
1039.4689	3115.3028	1019.8	140.55
1039.5759	3116.2932	1020.65	138.5
1039.6829	3117.2831	1024.35	139.85
1039.7898	3118.2723	1017.7	139.55
1039.8967	3119.2608	1014.25	135.25
1040.0035	3120.2488	1011.65	134.3
1040.1103	3121.2361	1011.1	131.2
1040.2171	3122.2229	1009.15	132.25
1040.3238	3123.209	1005.7	126.9
1040.4305	3124.1944	1009.05	130.05
1040.5371	3125.1793	1005.75	124.95
1040.6437	3126.1635	1007.7	127.3
1040.7502	3127.1471	1005.35	126.6
1040.8567	3128.1301	999.8	123.35
1040.9631	3129.1125	999.45	121.35
1041.0695	3130.0942	1000.55	124
1041.1759	3131.0753	1011.3	123
1041.2822	3132.0558	1003.3	121.35
1041.3884	3133.0357	998.2	119.85
1041.4946	3134.015	996.3	116.65
1041.6008	3134.9936	995.05	115.05
1041.7069	3135.9716	1015.15	115
1041.813	3136.949	987.8	109.6
1041.919	3137.9258	1011.65	113.45
1042.025	3138.902	998.5	117.5
1042.1309	3139.8775	990.65	113.65
1042.2368	3140.8524	987.4	110
1042.3427	3141.8267	988.8	108.15
1042.4485	3142.8004	986.15	107.25
1042.5542	3143.7735	990	103.45
1042.6599	3144.7459	989	107.8
1042.7656	3145.7178	985.15	104.4
1042.8712	3146.689	979.25	100.5
1042.9768	3147.6596	983.05	100.95
1043.0823	3148.6295	982.5	105.65
1043.1878	3149.5989	982.65	102.45
1043.2932	3150.5676	983.15	106.6
1043.3986	3151.5357	977.8	99.75
1043.5039	3152.5032	976.4	99.2
1043.6092	3153.4701	975.5	98.25
1043.7145	3154.4364	982	102.2
1043.8197	3155.402	976.3	100.05
1043.9248	3156.367	980.5	98.4
1044.03	3157.3315	1012.4	99.6
1044.135	3158.2952	976.75	96.75
1044.24	3159.2584	973.9	95.9
1044.345	3160.221	973.7	94.15
1044.4499	3161.1829	972.45	93.2
1044.5548	3162.1442	971.1	93.85
1044.6596	3163.105	969.95	91.3
1044.7644	3164.065	971.65	94.15
1044.8692	3165.0245	972.05	90.7
1044.9739	3165.9834	971.2	95.4
1045.0785	3166.9416	974.3	95.3
1045.1831	3167.8993	968.75	91.5
1045.2877	3168.8563	965.85	87.55
1045.3922	3169.8127	968.55	90.75
1045.4966	3170.7684	961.85	82.9
1045.6011	3171.7236	966.1	87.8
1045.7054	3172.6782	964.7	85.15
1045.8098	3173.6321	964.75	88.25
1045.914	3174.5854	968.4	86.95
1046.0183	3175.5381	965	86.9
1046.1224	3176.4902	963.25	86.75
1046.2266	3177.4417	961.45	83.95
1046.3307	3178.3926	961.9	85.95
1046.4347	3179.3428	960.75	83.55
1046.5387	3180.2924	960.65	84
1046.6427	3181.2415	961.95	83.4
1046.7466	3182.1899	963.1	85.7
1046.8504	3183.1377	955.95	79.6
1046.9542	3184.0848	962.5	81.9
1047.058	3185.0314	958.05	80.95
1047.1617	3185.9773	959.7	81.75
1047.2654	3186.9227	958.45	80.15
1047.369	3187.8674	957.05	79
1047.4726	3188.8115	960.5	79.85
1047.5761	3189.755	956.75	77.2
1047.6796	3190.6979	955.8	77.6
1047.783	3191.6402	952.45	74.8
1047.8864	3192.5818	956.1	77.6
1047.9898	3193.5229	960.95	78.1
1048.0931	3194.4633	952.3	75.3
1048.1963	3195.4031	955.55	78.2
1048.2995	3196.3423	953.5	75.5
1048.4027	3197.2809	952.25	71.95
1048.5058	3198.2189	949.05	71.15
1048.6089	3199.1563	965.6	71.65
1048.7119	3200.0931	952	76.45
1048.8148	3201.0292	949.05	71.65
1048.9178	3201.9648	950.25	70.9
1049.0206	3202.8997	953.35	72.95
1049.1235	3203.834	950.3	72.4
1049.2262	3204.7677	950	73.2
1049.329	3205.7008	948.15	69.55
1049.4317	3206.6333	947.2	72.45
1049.5343	3207.5652	950.35	70.5
1049.6369	3208.4964	945.85	66.7
1049.7394	3209.4271	947.05	68.45
1049.8419	3210.3571	945.15	69.45
1049.9444	3211.2865	946.5	66.15
1050.0468	3212.2154	943.7	64.9
1050.1491	3213.1436	946.3	65.7
1050.2514	3214.0712	951.95	66.8
1050.3537	3214.9982	943.5	67.55
1050.4559	3215.9246	943.4	65.95
1050.5581	3216.8503	943.7	68.05
1050.6602	3217.7755	941.5	64.55
1050.7623	3218.7001	942.05	65.15
1050.8643	3219.624	938.9	59.7
1050.9663	3220.5473	942.5	64.6
1051.0682	3221.4701	943.55	63.65
1051.1701	3222.3922	940.25	60.05
1051.2719	3223.3137	939.55	62.45
1051.3737	3224.2346	939.8	64.15
1051.4754	3225.1549	937.8	58.9
1051.5771	3226.0746	941.25	64.55
1051.6788	3226.9937	938.7	59.3
1051.7804	3227.9121	938.15	62.1
1051.8819	3228.83	935.3	58.7
1051.9834	3229.7473	934.85	55.75
1052.0849	3230.6639	936.55	59.35
1052.1863	3231.5799	934.7	58.6
1052.2876	3232.4954	938.75	59.4
1052.3889	3233.4102	937.55	61
1052.4902	3234.3244	934.05	56.2
1052.5914	3235.238	935.45	59.9
1052.6926	3236.151	959.45	56.05
1052.7937	3237.0634	934.4	58.45
1052.8948	3237.9752	936.3	58.75
1052.9958	3238.8864	934.1	56.4
1053.0968	3239.797	933.6	55.8
1053.1977	3240.7069	931.8	52.1
1053.2986	3241.6163	932.5	52.4
1053.3994	3242.5251	932.4	55.4
1053.5002	3243.4332	930.1	53.8
1053.6009	3244.3408	930.9	52.5
1053.7016	3245.2477	930.8	55.3
1053.8022	3246.154	929.2	51.65
1053.9028	3247.0598	932.4	55.45
1054.0034	3247.9649	930.6	54.4
1054.1039	3248.8694	929.25	54.3
1054.2043	3249.7733	930.05	53.85
1054.3047	3250.6766	931.8	53.5
1054.4051	3251.5793	930.2	52.25
1054.5054	3252.4814	925.1	45.8
1054.6056	3253.3829	925.9	48.4
1054.7058	3254.2838	926.05	49.9
1054.806	3255.1841	924.2	46.75
1054.9061	3256.0838	925.85	50.2
1055.0061	3256.9829	923.65	46.05
1055.1062	3257.8814	929	51.25
1055.2061	3258.7792	927.8	48.4
1055.306	3259.6765	922.85	43.65
1055.4059	3260.5731	922.65	46.3
1055.5057	3261.4692	919.25	40.95
1055.6055	3262.3647	922.15	44.4
1055.7052	3263.2595	922.9	46.8
1055.8049	3264.1538	919.8	41.7
1055.9045	3265.0474	917.55	40.15
1056.0041	3265.9404	918.3	40.85
1056.1036	3266.8329	917.95	41.9
1056.2031	3267.7247	928.05	41.35
1056.3025	3268.616	915.8	41.9
1056.4019	3269.5066	917.25	39.5
1056.5013	3270.3966	914.4	34.35
1056.6005	3271.286	912.55	38.35
