Software Version:	3.9.2.0
Unit SN:	10000200
Spectrometer SN:	6960
Date:	3/8/2024 12:30:34 PM
Data Line Index:	25
Spectral Points:	2048
Integration time (ms):	125
Averages:	20
Delay (ms):	30000
Sequence Number:	1
Processing:	dark subtract
Laser Power (mW):	300
Laser Current (mA):	823
Laser Diode Temp (C):	25
Laser Case Temp (C):	26
System Temp (C):	26
Spectrometer Temp (C):	23.8
CCD Temp (C):	0.004
Secondary Temp (C):	20.008
Heatsink Temp (C):	20.431
CCDPCB Temp (C):	36.251
SecondaryPCB Temp (C):	30.76

Wavelength	RamanShift	Raw Counts	Dark Subtracted
787.061	30.1047	448.15	39.9
787.2016	32.3739	448.2	41.2
787.3422	34.6426	451.9	45.8
787.4828	36.9109	457.7	45.6
787.6235	39.1787	465.75	51.8
787.7642	41.4461	476.5	55.25
787.9049	43.7131	484.6	61.3
788.0456	45.9796	492.35	68.7
788.1863	48.2456	501	71.3
788.3271	50.5112	510.7	77.65
788.4679	52.7764	515.4	80.4
788.6087	55.0411	529.4	88.4
788.7496	57.3054	540.4	94.85
788.8904	59.5692	546.65	98.4
789.0313	61.8326	555.45	108.3
789.1722	64.0955	567.4	115.2
789.3132	66.3579	585.3	126.55
789.4541	68.6199	601.4	139.55
789.5951	70.8815	640.9	172.4
789.7361	73.1426	717.2	245.2
789.8771	75.4032	928	455.1
790.0181	77.6634	1441.8	962.1
790.1592	79.9231	2620.85	2132.8
790.3003	82.1824	5174.35	4669
790.4414	84.4412	9663.65	9132.75
790.5825	86.6995	15822.4	15251.9
790.7237	88.9574	21629.6	21027.65
790.8648	91.2148	25559.3	24937.1
791.006	93.4717	27209.7	26570.75
791.1472	95.7282	27308	26670.3
791.2885	97.9842	26907.9	26263.2
791.4297	100.2398	26075.7	25425.55
791.571	102.4949	25137.8	24485.8
791.7123	104.7495	24137.35	23484.6
791.8536	107.0036	23164.55	22512.95
791.9949	109.2573	22275.4	21622.6
792.1363	111.5105	21472	20812.75
792.2777	113.7632	20793.65	20132.35
792.4191	116.0154	20204.6	19531.9
792.5605	118.2672	19773.8	19105.85
792.7019	120.5185	19377	18712.25
792.8434	122.7693	19066.35	18391
792.9849	125.0197	18803.15	18127.25
793.1264	127.2696	18498.2	17818.65
793.2679	129.519	18289.85	17610.55
793.4094	131.7679	17960.2	17280.6
793.551	134.0163	17657	16972
793.6926	136.2642	17258.15	16572.15
793.8342	138.5117	16858.6	16162
793.9758	140.7587	16425.65	15732.95
794.1175	143.0052	16048.15	15354.7
794.2591	145.2512	15700.25	15003.85
794.4008	147.4967	15346.2	14647.45
794.5425	149.7417	15080.3	14382.2
794.6842	151.9863	14875.7	14168.95
794.826	154.2304	14756.05	14050.2
794.9677	156.4739	14562.45	13848.15
795.1095	158.717	14446.25	13730.6
795.2513	160.9596	14276.85	13560.1
795.3931	163.2017	14001	13279.8
795.535	165.4433	13713.05	12991.9
795.6768	167.6844	13370.5	12645.95
795.8187	169.925	13050.6	12324.85
795.9606	172.1651	12695.8	11968.2
796.1025	174.4047	12386.3	11655.05
796.2445	176.6439	12151.95	11415.7
796.3864	178.8825	11963.05	11229.15
796.5284	181.1206	11823.8	11080.5
796.6704	183.3582	11667.7	10923.55
796.8124	185.5954	11597.3	10846.7
796.9544	187.832	11528.55	10774.75
797.0965	190.0681	11479.5	10721
797.2386	192.3037	11457.95	10703.1
797.3806	194.5388	11452.7	10689.85
797.5228	196.7734	11497.2	10732.35
797.6649	199.0075	11550.25	10783.4
797.807	201.2411	11669.75	10902.15
797.9492	203.4742	11761	10994.65
798.0914	205.7068	11890.8	11119.05
798.2336	207.9389	12051.45	11277.45
798.3758	210.1704	12169.05	11398.8
798.518	212.4015	12264.85	11506.55
798.6603	214.632	12419.5	11663.35
798.8025	216.862	12577.15	11826.75
798.9448	219.0915	12636.85	11882.45
799.0871	221.3205	12711.85	11959.35
799.2294	223.549	12789.05	12043.25
799.3718	225.777	12866.2	12117.15
799.5141	228.0044	12921.35	12166.4
799.6565	230.2314	12990.7	12230.75
799.7989	232.4578	13059.2	12301.45
799.9413	234.6837	13154	12387.5
800.0837	236.909	13203.45	12432.9
800.2262	239.1339	13214.8	12423.05
800.3687	241.3582	13118.45	12340.15
800.5111	243.582	13073.05	12263.15
800.6536	245.8053	13010.4	12215.1
800.7961	248.0281	12971.1	12181.6
800.9387	250.2503	12985.15	12188.65
801.0812	252.472	13110.4	12310.3
801.2238	254.6932	13266.4	12466.3
801.3664	256.9139	13379.15	12580.55
801.509	259.134	13600.55	12795.4
801.6516	261.3536	13891.85	13088.4
801.7942	263.5727	14251.8	13444.95
801.9369	265.7912	14535.85	13732.35
802.0795	268.0092	14893.3	14087.25
802.2222	270.2267	15142.05	14338.6
802.3649	272.4436	15292	14487.85
802.5076	274.6601	15327.25	14513.25
802.6504	276.8759	15277.05	14464.55
802.7931	279.0913	15170.45	14361.4
802.9359	281.3061	15006.1	14192.05
803.0787	283.5204	14950.6	14130.9
803.2215	285.7341	14909.35	14091.4
803.3643	287.9473	14921.1	14089.45
803.5071	290.16	14955.1	14129.8
803.6499	292.3721	14997.75	14182.75
803.7928	294.5837	15169.3	14349.6
803.9357	296.7947	15370.65	14550.9
804.0786	299.0052	15538.75	14720.3
804.2215	301.2152	15517.35	14696.3
804.3644	303.4246	15394.3	14576.4
804.5074	305.6334	15096.2	14281.75
804.6503	307.8418	14723.25	13905.45
804.7933	310.0495	14306.65	13480.1
804.9363	312.2568	13844.9	13021.1
805.0793	314.4635	13430.65	12604.8
805.2223	316.6696	13062.6	12233.45
805.3653	318.8752	12824.25	11985
805.5084	321.0802	12701.9	11871.9
805.6514	323.2847	12703.55	11872.85
805.7945	325.4887	12717.8	11885.15
805.9376	327.692	12735.25	11901.2
806.0807	329.8949	12665.55	11825.9
806.2238	332.0972	12514.1	11678.25
806.367	334.2989	12301.5	11460.75
806.5101	336.5001	12065.1	11222.95
806.6533	338.7007	11858.4	11019.6
806.7965	340.9008	11680.9	10836.9
806.9397	343.1003	11488.2	10646.2
807.0829	345.2992	11368.8	10525.55
807.2261	347.4976	11244.1	10399.85
807.3693	349.6955	11168.3	10316.35
807.5126	351.8927	11136.05	10279.25
807.6559	354.0895	11066.4	10204.2
807.7991	356.2856	11003.75	10153.85
807.9424	358.4812	10947.8	10093.9
808.0857	360.6763	10962.8	10107.4
808.2291	362.8707	10924.5	10067.8
808.3724	365.0646	10963.45	10103.55
808.5158	367.258	11004.9	10146.85
808.6591	369.4508	11101.6	10239.2
808.8025	371.643	11264.15	10397.9
808.9459	373.8346	11347.45	10483
809.0893	376.0257	11455.95	10589.15
809.2327	378.2162	11504.75	10639.05
809.3762	380.4062	11516.8	10651.1
809.5196	382.5956	11400.1	10532.2
809.6631	384.7844	11275.75	10419.25
809.8066	386.9726	11148.6	10292.4
809.9501	389.1603	11041.55	10188.05
810.0936	391.3474	11021.7	10124.75
810.2371	393.5339	10994.55	10136.25
810.3806	395.7199	10945.5	10086.4
810.5241	397.9052	11000.35	10144.5
810.6677	400.09	11082.35	10223.2
810.8113	402.2743	11275.1	10417.35
810.9548	404.4579	11454.55	10596.6
811.0984	406.641	11651.45	10788.75
811.2421	408.8235	11839	10978.75
811.3857	411.0054	11948.95	11084.15
811.5293	413.1868	12103.8	11235.95
811.673	415.3675	12118.55	11248
811.8166	417.5477	12085.75	11212.9
811.9603	419.7273	12040.9	11163.6
812.104	421.9064	11947.6	11068.75
812.2477	424.0848	11892.2	11019.55
812.3914	426.2627	11756.45	10878.9
812.5351	428.4399	11526.2	10650.35
812.6788	430.6166	11233.65	10357.75
812.8226	432.7928	10899.1	10018.75
812.9663	434.9683	10616.95	9739.95
813.1101	437.1432	10392.5	9516.9
813.2539	439.3176	10200	9331.05
813.3977	441.4914	10092	9224.6
813.5415	443.6645	10048.8	9176.35
813.6853	445.8371	10011.3	9134.4
813.8291	448.0091	9986.85	9107.4
813.973	450.1806	9960.65	9080.25
814.1168	452.3514	9941.5	9065.4
814.2607	454.5216	10011.65	9129.75
814.4046	456.6913	9996.35	9118.15
814.5485	458.8603	10027.55	9147.55
814.6924	461.0288	10093.9	9225
814.8363	463.1967	10060.15	9194
814.9802	465.3639	10080.95	9206.35
815.1241	467.5306	10055.05	9181.2
815.2681	469.6967	10063.25	9188.85
815.412	471.8622	10073.4	9207.05
815.556	474.0271	10115.5	9243.5
815.7	476.1914	10123.6	9243.55
815.844	478.3551	10133.2	9256.75
815.988	480.5182	10199.65	9326.05
816.132	482.6807	10271.4	9404.75
816.276	484.8426	10468.2	9603.9
816.4201	487.0039	10809.25	9937.85
816.5641	489.1647	11204.1	10324.45
816.7082	491.3248	11516.5	10634.75
816.8522	493.4843	11643.95	10771.15
816.9963	495.6432	11567.1	10693.35
817.1404	497.8015	11419.3	10535.05
817.2845	499.9592	11304.05	10413.4
817.4286	502.1163	11106.55	10217.35
817.5727	504.2728	10780.9	9897.7
817.7168	506.4287	10510.9	9633.7
817.861	508.5839	10216.05	9341.5
818.0051	510.7386	10014.15	9136.55
818.1493	512.8927	9924.15	9037.4
818.2935	515.0461	9943.75	9057.05
818.4377	517.199	10035.35	9146.35
818.5818	519.3512	10239.35	9349.3
818.726	521.5029	10575.55	9681.35
818.8703	523.6539	10847.25	9959.45
819.0145	525.8043	10959.95	10069.75
819.1587	527.9541	10888.5	9991.65
819.303	530.1033	10638.75	9747.6
819.4472	532.2519	10460.05	9568
819.5915	534.3999	10379.5	9488.55
819.7357	536.5472	10420.95	9530.9
819.88	538.694	10574.8	9687.35
820.0243	540.8401	10779.8	9885.1
820.1686	542.9856	10983.25	10082.2
820.3129	545.1305	11018.3	10115.05
820.4572	547.2748	10930.9	10022.25
820.6016	549.4185	10800.95	9895.8
820.7459	551.5615	10672.25	9765.6
820.8902	553.704	10734.4	9833.65
821.0346	555.8458	10810.75	9913.95
821.1789	557.987	11017.1	10116.1
821.3233	560.1276	11304.75	10403.7
821.4677	562.2675	11740.7	10840.4
821.6121	564.4069	12344.25	11442.3
821.7565	566.5456	12866.75	11965.15
821.9009	568.6837	13068.5	12171
822.0453	570.8212	12661.85	11762.25
822.1897	572.958	11947.55	11048.05
822.3342	575.0942	11232.45	10336.95
822.4786	577.2299	10741	9848.7
822.6231	579.3648	10463.75	9582.05
822.7675	581.4992	10399.8	9523.1
822.912	583.6329	10491.2	9617.65
823.0565	585.766	10623.5	9746.05
823.201	587.8985	10767.05	9879.55
823.3454	590.0304	10874.2	9952.7
823.4899	592.1616	10840.9	9936.8
823.6345	594.2922	10727.15	9823.4
823.779	596.4222	10530.1	9623.8
823.9235	598.5515	10325.6	9415.65
824.068	600.6802	10139.6	9231.75
824.2126	602.8083	10016.95	9110.85
824.3571	604.9358	9982.65	9078.1
824.5017	607.0626	10045.7	9137.3
824.6462	609.1888	10153.5	9241.25
824.7908	611.3144	10324.5	9410.95
824.9354	613.4393	10507.1	9594.65
825.08	615.5636	10667.2	9753.8
825.2246	617.6873	10674.9	9764.55
825.3692	619.8103	10657.4	9746.5
825.5138	621.9327	10436.25	9526.1
825.6584	624.0544	10173.5	9271.15
825.803	626.1756	9958.9	9055.05
825.9477	628.2961	9784.15	8877
826.0923	630.4159	9713.3	8801.95
826.237	632.5351	9714.65	8797.15
826.3816	634.6537	9688.9	8773.75
826.5263	636.7716	9696.2	8776.55
826.6709	638.8889	9697.85	8775.65
826.8156	641.0056	9747.35	8829.1
826.9603	643.1216	9712.25	8796.3
827.105	645.237	9695.15	8779.25
827.2497	647.3518	9572.3	8668.6
827.3944	649.4659	9500.7	8597.75
827.5391	651.5793	9429.2	8523.5
827.6838	653.6922	9394.3	8486.45
827.8285	655.8043	9371.95	8460.7
827.9733	657.9159	9370.55	8458.55
828.118	660.0268	9355.25	8443.95
828.2627	662.137	9372.6	8458.85
828.4075	664.2466	9411.65	8491.4
828.5522	666.3556	9391.9	8476.85
828.697	668.4639	9348.25	8432.9
828.8418	670.5716	9290.75	8378.55
828.9865	672.6786	9237.15	8324.95
829.1313	674.785	9195.75	8274.3
829.2761	676.8907	9137.6	8222.55
829.4209	678.9958	9136.8	8224.65
829.5657	681.1002	9106.15	8189.3
829.7105	683.204	9126.55	8200.4
829.8553	685.3072	9103.15	8180.05
830.0001	687.4097	9100.25	8179.2
830.1449	689.5115	9083.5	8164.75
830.2898	691.6127	9079.1	8161.6
830.4346	693.7132	9080.2	8164.05
830.5794	695.8131	9113.5	8174.2
830.7243	697.9123	9179.2	8257.2
830.8691	700.0109	9187.3	8263.25
831.014	702.1089	9238.65	8316.95
831.1588	704.2061	9309.85	8390.55
831.3037	706.3028	9368.7	8444.5
831.4486	708.3987	9401.9	8476.95
831.5935	710.4941	9435.75	8516.7
831.7383	712.5887	9473.9	8553.5
831.8832	714.6827	9523.25	8597.5
832.0281	716.7761	9615.75	8698.1
832.173	718.8688	9734.4	8814.25
832.3179	720.9608	9887	8960
832.4628	723.0522	10026	9093.05
832.6077	725.1429	10144.9	9218.6
832.7527	727.233	10275.55	9348.5
832.8976	729.3224	10393.65	9467.75
833.0425	731.4112	10372.65	9449
833.1874	733.4993	10230.75	9303.75
833.3324	735.5867	9989.8	9065.85
833.4773	737.6735	9752.8	8827.55
833.6222	739.7596	9536.65	8608.6
833.7672	741.845	9388	8463.65
833.9122	743.9298	9274.05	8346.8
834.0571	746.014	9264.95	8334.85
834.2021	748.0974	9235.5	8303
834.347	750.1802	9259	8329.75
834.492	752.2624	9266.35	8337
834.637	754.3439	9328.75	8393.55
834.782	756.4247	9434.6	8497.95
834.9269	758.5048	9619.15	8688.05
835.0719	760.5843	9922.15	8989.95
835.2169	762.6631	10352.05	9419.95
835.3619	764.7413	10934.15	10003.7
835.5069	766.8188	11689	10753.8
835.6519	768.8956	12326.95	11395.25
835.7969	770.9718	12757.1	11827.55
835.9419	773.0473	12722.7	11794.55
836.0869	775.1221	12492.05	11563.45
836.232	777.1962	12245.9	11317.1
836.377	779.2697	12168.85	11233.95
836.522	781.3426	12228.1	11282.55
836.667	783.4147	12342.05	11407.65
836.8121	785.4862	12346.4	11412.45
836.9571	787.557	12150.2	11216.7
837.1021	789.6271	11652.3	10717.9
837.2472	791.6966	10997.2	10068.45
837.3922	793.7654	10359.3	9428.9
837.5373	795.8335	9893.55	8965.45
837.6823	797.901	9582.15	8652.15
837.8274	799.9678	9406.35	8471
837.9724	802.0339	9327.1	8387.25
838.1175	804.0993	9250.65	8304.6
838.2626	806.1641	9157.05	8218.85
838.4076	808.2282	9069.6	8134.85
838.5527	810.2916	9015.9	8081.3
838.6978	812.3544	8944.05	8014.15
838.8428	814.4164	8898.85	7967.45
838.9879	816.4778	8940.65	8004.75
839.133	818.5385	8994.75	8057.6
839.2781	820.5986	9164.7	8227.75
839.4232	822.658	9422.75	8487.35
839.5682	824.7166	9774.25	8838.75
839.7133	826.7747	10384.5	9451.9
839.8584	828.832	10999.9	10063.1
840.0035	830.8886	11436.2	10495.8
840.1486	832.9446	11652.15	10712.35
840.2937	834.9999	11495.75	10556.4
840.4388	837.0545	11133.3	10192.6
840.5839	839.1085	10730.7	9790.15
840.729	841.1618	10369.15	9429.45
840.8741	843.2143	10059.1	9120.25
841.0192	845.2662	9812.6	8871.35
841.1643	847.3175	9663.6	8724.45
841.3095	849.368	9543.6	8602.55
841.4546	851.4179	9473.45	8535.5
841.5997	853.467	9355.6	8419.4
841.7448	855.5155	9314.6	8379.4
841.8899	857.5633	9243.75	8304.05
842.0351	859.6105	9153.85	8216.75
842.1802	861.6569	9079.35	8139.5
842.3253	863.7027	9006.35	8066
842.4704	865.7478	8962.35	8023
842.6156	867.7922	8904.45	7958.7
842.7607	869.8359	8875.85	7937.4
842.9058	871.8789	8889.3	7952.25
843.0509	873.9212	8958.25	7986.45
843.1961	875.9629	9014.2	8073.85
843.3412	878.0039	9137.5	8194.2
843.4863	880.0441	9219.45	8284.6
843.6315	882.0837	9297.75	8358.85
843.7766	884.1226	9350.7	8408.95
843.9218	886.1609	9417.75	8474.3
844.0669	888.1984	9556.3	8617.25
844.212	890.2352	9733.4	8793.35
844.3572	892.2714	9784.55	8840.2
844.5023	894.3069	9714.85	8773.45
844.6475	896.3416	9524.45	8584.5
844.7926	898.3757	9356.55	8418.35
844.9377	900.4091	9260.05	8314.95
845.0829	902.4418	9234.7	8285.4
845.228	904.4739	9265.75	8320.8
845.3732	906.5052	9338.3	8391.45
845.5183	908.5358	9309.2	8364.7
845.6635	910.5658	9188	8239.2
845.8086	912.595	8954.4	8008.2
845.9538	914.6236	8730.4	7785.55
846.0989	916.6515	8594.9	7654.9
846.2441	918.6786	8491.95	7546.05
846.3892	920.7051	8471.45	7528.25
846.5344	922.7309	8493.25	7547.75
846.6795	924.756	8521.65	7578.45
846.8246	926.7804	8588.75	7644.9
846.9698	928.8041	8610.2	7666.3
847.1149	930.8272	8670.7	7728.45
847.2601	932.8495	8646.15	7697.55
847.4052	934.8711	8661.9	7715.1
847.5504	936.892	8651.95	7706.75
847.6955	938.9123	8676.7	7735
847.8407	940.9318	8723	7778.5
847.9858	942.9506	8727.3	7778.5
848.131	944.9688	8677.45	7733.3
848.2761	946.9862	8558.85	7615.65
848.4213	949.003	8418.7	7472.9
848.5664	951.019	8306.55	7361.35
848.7115	953.0344	8232.45	7289.55
848.8567	955.0491	8205.1	7260.35
849.0018	957.063	8261.05	7317.05
849.147	959.0763	8317.3	7375.25
849.2921	961.0888	8323.2	7379.45
849.4373	963.1007	8396.25	7453.35
849.5824	965.1119	8403	7468.7
849.7275	967.1223	8384.75	7454
849.8727	969.1321	8335.7	7407.9
850.0178	971.1412	8352.25	7419.15
850.1629	973.1495	8334.7	7394.55
850.3081	975.1572	8395.1	7406.45
850.4532	977.1641	8393.1	7446.8
850.5983	979.1704	8343.2	7398.1
850.7435	981.1759	8329.3	7383.75
850.8886	983.1808	8328.55	7383.65
851.0337	985.1849	8326.4	7371.7
851.1788	987.1884	8397.4	7452.65
851.324	989.1911	8439.5	7495.75
851.4691	991.1932	8521.4	7578.95
851.6142	993.1945	8531.9	7590.35
851.7593	995.1951	8494	7548.8
851.9045	997.1951	8480.2	7529.9
852.0496	999.1943	8450.85	7505.5
852.1947	1001.1928	8471.9	7525.6
852.3398	1003.1906	8524.45	7578.15
852.4849	1005.1877	8674.65	7731.05
852.63	1007.1841	8775.95	7831.7
852.7751	1009.1798	8816.9	7875.35
852.9202	1011.1748	8734.4	7790.35
853.0653	1013.1691	8609.15	7664.55
853.2104	1015.1627	8403.65	7458.4
853.3555	1017.1556	8210.5	7272.65
853.5006	1019.1477	8102.35	7163.6
853.6457	1021.1392	7972.65	7035.65
853.7908	1023.1299	7917.95	6982.65
853.9359	1025.12	7938.55	7010.1
854.081	1027.1093	8012.75	7095.15
854.2261	1029.0979	8129.7	7214.85
854.3712	1031.0859	8219	7296.25
854.5163	1033.0731	8281.4	7350.1
854.6613	1035.0596	8239.45	7307.3
854.8064	1037.0454	8146.3	7211.65
854.9515	1039.0304	8059.25	7119.65
855.0965	1041.0148	7957.75	7019.8
855.2416	1042.9985	7869.95	6925.5
855.3867	1044.9814	7802	6861.95
855.5317	1046.9636	7752.85	6809.55
855.6768	1048.9452	7752.75	6815.65
855.8219	1050.926	7795.35	6857.45
855.9669	1052.9061	7817.9	6876.05
856.112	1054.8855	7871.7	6930.65
856.257	1056.8642	7917.6	6977.65
856.4021	1058.8421	7967.75	7018.85
856.5471	1060.8194	7998.65	7053.95
856.6921	1062.7959	8047.1	7104.15
856.8372	1064.7717	8128.9	7186.4
856.9822	1066.7469	8185	7240.1
857.1272	1068.7213	8292.6	7349.8
857.2723	1070.695	8398.7	7458.05
857.4173	1072.6679	8446.75	7503.3
857.5623	1074.6402	8490.3	7548.85
857.7073	1076.6117	8442.05	7499.75
857.8523	1078.5826	8344.35	7401.6
857.9973	1080.5527	8175.55	7227.65
858.1423	1082.5221	8052.4	7109.9
858.2873	1084.4908	7978.5	7037.3
858.4323	1086.4587	7962.9	7020.85
858.5773	1088.426	7986.15	7040.3
858.7223	1090.3925	7995.35	7049.1
858.8673	1092.3584	8042.15	7101.15
859.0123	1094.3235	8094.45	7155.6
859.1573	1096.2879	8179.55	7238.8
859.3022	1098.2515	8347.2	7403.35
859.4472	1100.2145	8539.1	7600.45
859.5922	1102.1767	8721.9	7777.1
859.7371	1104.1382	9005.8	8065.3
859.8821	1106.099	9257.05	8312.95
860.027	1108.0591	9504.85	8567.4
860.172	1110.0185	9648.45	8708
860.3169	1111.9771	9730	8788.6
860.4619	1113.9351	9677	8741.35
860.6068	1115.8923	9589.3	8645.15
860.7517	1117.8488	9478.15	8533.2
860.8967	1119.8045	9302.75	8364.6
861.0416	1121.7596	9162.3	8223.75
861.1865	1123.7139	9012.45	8072.75
861.3314	1125.6675	8953.15	8012.1
861.4763	1127.6204	8964.45	8022.55
861.6212	1129.5726	8924.45	7981
861.7661	1131.524	8856.85	7919.65
861.911	1133.4748	8690.65	7750.45
862.0559	1135.4248	8468.8	7528.95
862.2008	1137.3741	8272.9	7338.35
862.3457	1139.3226	8133.95	7193.5
862.4905	1141.2705	8078.8	7137.85
862.6354	1143.2176	8011.85	7065.65
862.7803	1145.164	7978.05	7036.65
862.9251	1147.1097	7878.4	6935.5
863.07	1149.0546	7777.2	6831.5
863.2148	1150.9989	7672.1	6733.35
863.3597	1152.9424	7580.25	6637.9
863.5045	1154.8852	7524.95	6585.8
863.6493	1156.8272	7487.6	6547.2
863.7942	1158.7686	7506.45	6560.55
863.939	1160.7092	7523.9	6584.45
864.0838	1162.6491	7578	6635.2
864.2286	1164.5883	7694.9	6757.35
864.3734	1166.5267	7838.9	6897.55
864.5182	1168.4644	7984.75	7045.3
864.663	1170.4014	8182.3	7239.85
864.8078	1172.3377	8472.3	7536.05
864.9526	1174.2732	8786.1	7851.45
865.0974	1176.2081	9245.45	8304.95
865.2421	1178.1421	9811.65	8866.95
865.3869	1180.0755	10405.8	9468.85
865.5317	1182.0082	10847.45	9910.65
865.6764	1183.9401	11025.6	10087.8
865.8212	1185.8713	10880.3	9946.35
865.9659	1187.8017	10527.65	9600.55
866.1106	1189.7315	10075.5	9155.3
866.2554	1191.6605	9638.7	8717.65
866.4001	1193.5888	9338.05	8410.45
866.5448	1195.5163	9148.5	8220
866.6895	1197.4432	9049.1	8112.4
866.8342	1199.3693	8993.15	8057.9
866.9789	1201.2947	8953.8	8015.7
867.1236	1203.2193	8915.35	7981.05
867.2683	1205.1432	8893.8	7956.6
867.413	1207.0664	8869.9	7931.9
867.5576	1208.9889	8821.2	7886.6
867.7023	1210.9106	8809.55	7875.9
867.847	1212.8316	8816.15	7880.65
867.9916	1214.7519	8852.1	7907.25
868.1363	1216.6715	8894.85	7960.1
868.2809	1218.5903	8964.55	8030.5
868.4255	1220.5084	9056.45	8120.2
868.5701	1222.4257	9187.45	8253.05
868.7148	1224.3424	9252.05	8321.45
868.8594	1226.2583	9426.4	8490.65
869.004	1228.1735	9603	8666.3
869.1486	1230.0879	9778.9	8845.7
869.2932	1232.0016	10016.9	9084
869.4377	1233.9146	10165.15	9229.15
869.5823	1235.8269	10227.85	9292.7
869.7269	1237.7384	10217.15	9282.65
869.8715	1239.6492	10147.75	9213.9
870.016	1241.5592	10121.55	9187.65
870.1606	1243.4686	10225.7	9291.3
870.3051	1245.3772	10453.85	9516.75
870.4496	1247.285	10746.95	9814.5
870.5941	1249.1922	10998.8	10066.5
870.7387	1251.0986	11219.9	10289.4
870.8832	1253.0042	11336.95	10403.2
871.0277	1254.9092	11486.85	10552.3
871.1722	1256.8134	11599	10667.35
871.3167	1258.7169	11730.4	10797.95
871.4611	1260.6196	11872	10938.4
871.6056	1262.5216	12123.55	11188.3
871.7501	1264.4229	12319.45	11389.85
871.8945	1266.3234	12506	11573.95
872.039	1268.2232	12673.45	11739.2
872.1834	1270.1223	12754.5	11819.2
872.3278	1272.0207	12803.35	11867.35
872.4723	1273.9183	12794.1	11853.35
872.6167	1275.8151	12745.05	11813.3
872.7611	1277.7113	12784.65	11856.6
872.9055	1279.6067	12891.15	11959.85
873.0499	1281.5014	13223.2	12286.9
873.1943	1283.3953	13750.55	12813.05
873.3386	1285.2885	14401.05	13470.8
873.483	1287.181	15088.65	14160.3
873.6274	1289.0727	15683.75	14753.25
873.7717	1290.9637	16133.9	15199.6
873.9161	1292.854	16359.8	15426.9
874.0604	1294.7435	16354.9	15422.9
874.2047	1296.6323	16163.05	15232.2
874.349	1298.5204	15910.3	14976.45
874.4933	1300.4077	15601.6	14667.35
874.6376	1302.2943	15243.85	14311.7
874.7819	1304.1802	14797.35	13867
874.9262	1306.0653	14262.45	13326.5
875.0705	1307.9497	13656.1	12727.75
875.2147	1309.8333	13176.75	12246.25
875.359	1311.7162	12764.9	11831.9
875.5032	1313.5984	12524.7	11590.15
875.6475	1315.4798	12335.1	11401.8
875.7917	1317.3605	12205.85	11258.4
875.9359	1319.2405	12037.7	11099.35
876.0801	1321.1197	11734.5	10797.7
876.2243	1322.9982	11362.55	10429.4
876.3685	1324.876	11016.1	10082
876.5127	1326.753	10658.45	9727.45
876.6569	1328.6293	10386.3	9451.6
876.801	1330.5048	10158.2	9222.85
876.9452	1332.3796	9961	9031.55
877.0893	1334.2537	9837.85	8875.85
877.2335	1336.127	9716.85	8785
877.3776	1337.9996	9673.35	8744.2
877.5217	1339.8714	9665	8731.1
877.6658	1341.7426	9697.3	8719.25
877.8099	1343.6129	9704.55	8767.4
877.954	1345.4826	9675.6	8741.75
878.0981	1347.3515	9671.55	8735.75
878.2422	1349.2196	9680.6	8744.65
878.3862	1351.087	9687.7	8756.4
878.5303	1352.9537	9761.15	8826.5
878.6743	1354.8197	9854.1	8920.7
878.8184	1356.6849	10009.95	9075.7
878.9624	1358.5493	10189.9	9256.5
879.1064	1360.4131	10428.65	9494.55
879.2504	1362.276	10587.25	9655.75
879.3944	1364.1383	10649.45	9716.4
879.5384	1365.9998	10521.7	9580.05
879.6823	1367.8606	10172.25	9240.65
879.8263	1369.7206	9816.4	8884.4
879.9702	1371.5799	9451	8514.15
880.1142	1373.4384	9160.8	8226.45
880.2581	1375.2962	8895.9	7964.65
880.402	1377.1533	8585.75	7655.15
880.5459	1379.0096	8213.2	7288.1
880.6898	1380.8652	7850.75	6923.1
880.8337	1382.7201	7554.65	6625.85
880.9776	1384.5742	7303.75	6373.75
881.1215	1386.4275	7117.4	6185.35
881.2653	1388.2802	6958.2	6031.45
881.4092	1390.132	6856.5	5923.7
881.553	1391.9832	6788.4	5854.05
881.6968	1393.8336	6698.35	5765.8
881.8406	1395.6832	6674.85	5739.25
881.9844	1397.5322	6621.35	5689.05
882.1282	1399.3803	6596.25	5659.6
882.272	1401.2278	6568.05	5635.7
882.4158	1403.0745	6533.85	5602.6
882.5595	1404.9204	6522.2	5594.25
882.7033	1406.7656	6537.9	5607.45
882.847	1408.6101	6534.1	5602.05
882.9908	1410.4538	6566.65	5635.75
883.1345	1412.2968	6606.2	5676.2
883.2782	1414.139	6656.1	5726.45
883.4219	1415.9805	6728.7	5800.25
883.5656	1417.8213	6813.85	5878
883.7092	1419.6613	6906.05	5974.85
883.8529	1421.5006	7041.7	6109
883.9965	1423.3391	7223.35	6293.7
884.1402	1425.1769	7517.85	6587.55
884.2838	1427.0139	7922.4	6991.5
884.4274	1428.8502	8458.15	7527.35
884.571	1430.6858	8997.6	8066.9
884.7146	1432.5206	9366.4	8440.55
884.8582	1434.3547	9600.45	8671.85
885.0018	1436.188	9667	8739.65
885.1453	1438.0206	9567.35	8637.1
885.2889	1439.8524	9404.6	8475.55
885.4324	1441.6835	9279.7	8350.65
885.5759	1443.5139	9196.25	8265.55
885.7194	1445.3435	9125.55	8198.45
885.8629	1447.1724	9095.05	8170.9
886.0064	1449.0005	9053.9	8127
886.1499	1450.8279	8998.7	8070.95
886.2933	1452.6545	8996.25	8070.7
886.4368	1454.4804	9043.4	8117.55
886.5802	1456.3056	9018.4	8084.35
886.7237	1458.13	8964.5	8040.95
886.8671	1459.9536	8825.25	7899.2
887.0105	1461.7766	8574.45	7646
887.1539	1463.5987	8294.5	7366.95
887.2972	1465.4202	7957.65	7028.4
887.4406	1467.2409	7633.85	6707.5
887.584	1469.0608	7360.15	6437.3
887.7273	1470.88	7094.55	6172.1
887.8706	1472.6984	6860.5	5935.8
888.0139	1474.5161	6662.85	5734.9
888.1572	1476.3331	6509.9	5582.15
888.3005	1478.1493	6401.1	5473.85
888.4438	1479.9648	6331	5403.55
888.5871	1481.7795	6254.8	5328.15
888.7303	1483.5935	6188.35	5263.5
888.8736	1485.4067	6151.55	5225.05
889.0168	1487.2192	6114.7	5187.55
889.16	1489.031	6074.25	5148.55
889.3032	1490.842	6037.35	5110.15
889.4464	1492.6522	6015	5089
889.5896	1494.4618	5993.55	5066.6
889.7327	1496.2705	5928.45	5005.55
889.8759	1498.0785	5906.9	4981.45
890.019	1499.8858	5890.6	4963.95
890.1622	1501.6924	5831.75	4908.8
890.3053	1503.4981	5785.4	4860.5
890.4484	1505.3032	5736.05	4812.75
890.5914	1507.1075	5699.25	4774.05
890.7345	1508.911	5640.45	4716.2
890.8776	1510.7138	5600.2	4675.6
891.0206	1512.5159	5550.95	4624.75
891.1637	1514.3172	5511.6	4590.9
891.3067	1516.1178	5468.05	4547.2
891.4497	1517.9176	5438.05	4513.05
891.5927	1519.7166	5415.3	4492.55
891.7357	1521.515	5414.35	4486.5
891.8786	1523.3126	5371.95	4450.7
892.0216	1525.1094	5338.6	4415.5
892.1645	1526.9055	5318.15	4398.5
892.3074	1528.7008	5284.45	4361.55
892.4503	1530.4954	5267.8	4344.45
892.5932	1532.2893	5259.55	4338.7
892.7361	1534.0824	5239.6	4315.8
892.879	1535.8747	5246.4	4330.3
893.0218	1537.6663	5236.8	4318.35
893.1647	1539.4572	5244	4324.05
893.3075	1541.2473	5246.25	4328.75
893.4503	1543.0367	5266.05	4347.85
893.5931	1544.8253	5263.55	4339
893.7359	1546.6132	5325.35	4403.2
893.8787	1548.4003	5353	4424.3
894.0214	1550.1867	5421.95	4496.25
894.1642	1551.9723	5491.15	4571.45
894.3069	1553.7572	5589.15	4672.2
894.4496	1555.5414	5738.15	4820.3
894.5923	1557.3247	5900.5	4985.4
894.735	1559.1074	6073.35	5158.7
894.8777	1560.8893	6283.95	5369.35
895.0204	1562.6705	6466.35	5553
895.163	1564.4509	6615.35	5702.85
895.3056	1566.2305	6698.45	5786.35
895.4482	1568.0094	6743.2	5835.4
895.5908	1569.7876	6744.4	5834.75
895.7334	1571.565	6727.05	5814.1
895.876	1573.3417	6692.85	5780.55
896.0186	1575.1176	6705.95	5795.2
896.1611	1576.8928	6729.45	5823.05
896.3036	1578.6672	6769.6	5866.05
896.4461	1580.4409	6796.15	5894.5
896.5886	1582.2138	6853.9	5946.8
896.7311	1583.986	6976.25	6068.65
896.8736	1585.7575	7085.95	6177.45
897.0161	1587.5282	7224.95	6319.4
897.1585	1589.2981	7365.9	6461.35
897.3009	1591.0673	7477.3	6573.05
897.4433	1592.8358	7638.55	6733.65
897.5857	1594.6035	7752.4	6840.45
897.7281	1596.3704	7873.65	6967.3
897.8705	1598.1366	7981.9	7074
898.0128	1599.9021	8085.25	7178.9
898.1551	1601.6668	8198.9	7287.15
898.2975	1603.4308	8336.85	7425.65
898.4398	1605.194	8524.4	7612.3
898.5821	1606.9564	8766.95	7862.75
898.7243	1608.7182	9033.25	8131.05
898.8666	1610.4791	9373.25	8477.65
899.0088	1612.2394	9728.95	8834.1
899.1511	1613.9988	10096.5	9198.7
899.2933	1615.7576	10421.6	9522.15
899.4355	1617.5156	10632.5	9721.4
899.5776	1619.2728	10691.15	9784.75
899.7198	1621.0293	10566.55	9662.35
899.862	1622.785	10266.65	9360.9
900.0041	1624.54	9843.8	8940.6
900.1462	1626.2942	9404.9	8502.6
900.2883	1628.0477	8903.4	8001.35
900.4304	1629.8005	8478.65	7573.1
900.5725	1631.5525	8085.2	7185.4
900.7145	1633.3037	7753.25	6851.7
900.8566	1635.0542	7481.55	6580.95
900.9986	1636.804	7279.55	6377.65
901.1406	1638.553	7203.45	6205.65
901.2826	1640.3013	7048.05	6146.8
901.4245	1642.0488	6956.7	6055.65
901.5665	1643.7955	6960.25	6062.75
901.7085	1645.5416	7010.2	6110.35
901.8504	1647.2868	7110.55	6211.3
901.9923	1649.0313	7194.75	6293.1
902.1342	1650.7751	7372.35	6466.5
902.2761	1652.5181	7514.85	6617.6
902.4179	1654.2604	7689.3	6788.45
902.5598	1656.0019	7885.85	6986.65
902.7016	1657.7427	8149.9	7250.1
902.8434	1659.4828	8428	7526.25
902.9852	1661.222	8574.1	7674.2
903.127	1662.9606	8584.55	7683.3
903.2687	1664.6984	8324.95	7421.75
903.4105	1666.4354	7930.65	7026.1
903.5522	1668.1717	7375	6472.2
903.6939	1669.9072	6803.65	5900.15
903.8356	1671.642	6324.45	5418.05
903.9773	1673.3761	5918.55	5017.7
904.119	1675.1094	5566.25	4666.5
904.2606	1676.8419	5330.2	4430.65
904.4022	1678.5737	5141.95	4241.95
904.5439	1680.3048	4982.6	4081.05
904.6855	1682.0351	4844.25	3943.95
904.827	1683.7646	4705.65	3803.05
904.9686	1685.4934	4623	3722.9
905.1101	1687.2215	4537.2	3635.25
905.2517	1688.9488	4453.35	3554.3
905.3932	1690.6754	4411.15	3510.35
905.5347	1692.4012	4372.45	3472.3
905.6761	1694.1263	4315.65	3417.65
905.8176	1695.8506	4259.6	3360.35
905.9591	1697.5742	4211	3314.95
906.1005	1699.297	4179.75	3285.15
906.2419	1701.0191	4119.1	3224.95
906.3833	1702.7404	4079.85	3182.15
906.5246	1704.461	4067.65	3170.15
906.666	1706.1808	4035.9	3137.1
906.8073	1707.8999	3994.75	3096.85
906.9487	1709.6182	3977.45	3082.35
907.09	1711.3358	3958.5	3066.95
907.2313	1713.0527	3916.4	3024.15
907.3725	1714.7688	3906.4	3004.9
907.5138	1716.4841	3886.5	2985.2
907.655	1718.1987	3879.65	2979.45
907.7962	1719.9126	3845.65	2952.1
907.9374	1721.6257	3835	2941.55
908.0786	1723.338	3825.1	2931.8
908.2198	1725.0496	3810.25	2916.65
908.3609	1726.7605	3815.65	2919.75
908.502	1728.4706	3784.35	2886.55
908.6431	1730.18	3787.9	2893.35
908.7842	1731.8886	3765.35	2873.25
908.9253	1733.5964	3758.45	2846.8
909.0664	1735.3036	3733.55	2833.85
909.2074	1737.0099	3707.8	2813.5
909.3484	1738.7156	3689	2796.1
909.4894	1740.4204	3663.4	2768.1
909.6304	1742.1246	3637.05	2739.05
909.7714	1743.8279	3615.85	2722.9
909.9123	1745.5306	3619.1	2724.9
910.0532	1747.2325	3589.6	2694.7
910.1941	1748.9336	3576.75	2684
910.335	1750.634	3552.95	2653.65
910.4759	1752.3336	3536.75	2642.85
910.6168	1754.0325	3536.4	2645.4
910.7576	1755.7307	3515.55	2624.6
910.8984	1757.4281	3520.15	2626.05
911.0392	1759.1247	3515.2	2610.05
911.18	1760.8206	3493.85	2591.2
911.3208	1762.5158	3492.25	2594.8
911.4615	1764.2102	3490.1	2595.6
911.6022	1765.9039	3473.65	2580.4
911.7429	1767.5968	3462.85	2571.35
911.8836	1769.289	3456.2	2564
912.0243	1770.9804	3448.25	2555.65
912.1649	1772.6711	3444.5	2545.05
912.3056	1774.361	3446.9	2547.7
912.4462	1776.0502	3433.15	2536.3
912.5868	1777.7386	3413.05	2515.85
912.7274	1779.4263	3421.15	2525.7
912.8679	1781.1132	3404.5	2511.15
913.0084	1782.7994	3383.3	2491.1
913.149	1784.4849	3381.95	2490.1
913.2895	1786.1696	3401.25	2490.75
913.4299	1787.8535	3377.75	2487.15
913.5704	1789.5367	3354.15	2464.05
913.7108	1791.2192	3354.65	2464.95
913.8513	1792.9009	3363.55	2449.95
913.9917	1794.5818	3340.55	2445
914.132	1796.2621	3330.3	2437.85
914.2724	1797.9415	3323.15	2427.5
914.4128	1799.6202	3312.9	2419.05
914.5531	1801.2982	3316.1	2421
914.6934	1802.9755	3303.35	2408.85
914.8337	1804.6519	3307.7	2414
914.9739	1806.3277	3285.85	2394.85
915.1142	1808.0027	3284.6	2395.7
915.2544	1809.6769	3282.7	2393.65
915.3946	1811.3504	3278.8	2388.15
915.5348	1813.0231	3269.2	2377.65
915.675	1814.6951	3264.05	2373.2
915.8151	1816.3664	3278.6	2383.05
915.9553	1818.0369	3252.4	2358.05
916.0954	1819.7067	3246.95	2351.35
916.2355	1821.3757	3257.55	2364.8
916.3755	1823.044	3247.8	2355.75
916.5156	1824.7115	3235.5	2341.6
916.6556	1826.3783	3227.4	2334.35
916.7956	1828.0443	3224.35	2332.35
916.9356	1829.7096	3216.75	2322.7
917.0756	1831.3741	3208.9	2314.25
917.2155	1833.0379	3211	2320.65
917.3555	1834.701	3193.5	2302.45
917.4954	1836.3633	3192.05	2301.05
917.6353	1838.0248	3186.15	2294.55
917.7751	1839.6856	3189.7	2298.8
917.915	1841.3457	3184.55	2294.2
918.0548	1843.005	3183.45	2290.6
918.1946	1844.6636	3171.85	2278.55
918.3344	1846.3214	3168.15	2278.65
918.4742	1847.9785	3169.85	2279.35
918.6139	1849.6349	3163.55	2269.05
918.7537	1851.2904	3169.35	2265.95
918.8934	1852.9453	3153.45	2258.6
919.0331	1854.5994	3149.7	2253.1
919.1727	1856.2528	3155.55	2259
919.3124	1857.9054	3138.4	2246
919.452	1859.5572	3128.35	2236.9
919.5916	1861.2083	3126.95	2236.4
919.7312	1862.8587	3133.9	2241.4
919.8708	1864.5084	3122.75	2229.45
920.0103	1866.1572	3114.15	2219.6
920.1498	1867.8054	3097.2	2203.45
920.2893	1869.4528	3103.25	2208.25
920.4288	1871.0994	3090.85	2196.15
920.5683	1872.7453	3091.9	2197.85
920.7077	1874.3905	3099.7	2198.15
920.8471	1876.0349	3077.3	2183.25
920.9865	1877.6786	3074.45	2177.8
921.1259	1879.3215	3075	2182.15
921.2653	1880.9637	3061.05	2167.45
921.4046	1882.6051	3064.8	2173
921.5439	1884.2458	3035.95	2142.9
921.6832	1885.8858	3030.5	2137.35
921.8225	1887.525	3045.65	2153.9
921.9617	1889.1634	3023.9	2130.6
922.101	1890.8011	3030.35	2136.8
922.2402	1892.4381	3017.85	2126.25
922.3794	1894.0743	3005.75	2115.75
922.5185	1895.7098	3004.1	2110.15
922.6577	1897.3446	3010.9	2119.25
922.7968	1898.9786	3012.9	2115.5
922.9359	1900.6118	3004.35	2112.45
923.075	1902.2443	2973.65	2079.2
923.214	1903.8761	2973.05	2081.05
923.3531	1905.5071	2951.15	2057.85
923.4921	1907.1374	2953.05	2062.4
923.6311	1908.7669	2954.4	2061.8
923.77	1910.3957	2945.1	2054.65
923.909	1912.0237	2938.6	2046.15
924.0479	1913.651	2937.6	2043.6
924.1868	1915.2776	2932.95	2043.1
924.3257	1916.9034	2909.3	2019.45
924.4646	1918.5285	2902.55	2014.45
924.6034	1920.1528	2900.7	2007.55
924.7422	1921.7764	2911.3	2019
924.881	1923.3992	2899.15	2008.25
925.0198	1925.0213	2881.1	1989.55
925.1586	1926.6427	2874.95	1984.15
925.2973	1928.2633	2933.1	1955.5
925.436	1929.8832	2872.95	1980.55
925.5747	1931.5023	2856.15	1964.05
925.7134	1933.1207	2845.25	1952.6
925.852	1934.7383	2847.55	1955.1
925.9906	1936.3552	2840.45	1947.55
926.1292	1937.9714	2839.65	1947.9
926.2678	1939.5868	2823.15	1930.2
926.4064	1941.2015	2823.25	1932.1
926.5449	1942.8154	2821.2	1929.7
926.6834	1944.4286	2808.9	1917.05
926.8219	1946.041	2813.6	1897.75
926.9604	1947.6528	2798.2	1901.9
927.0988	1949.2637	2782.6	1891.2
927.2372	1950.8739	2771.75	1882.7
927.3756	1952.4834	2767.05	1876.25
927.514	1954.0921	2765.95	1873.2
927.6523	1955.7001	2757.95	1863.55
927.7907	1957.3074	2755.7	1868.6
927.929	1958.9139	2750.5	1864.75
928.0673	1960.5197	2747.15	1860.75
928.2055	1962.1247	2729.15	1841.15
928.3438	1963.729	2712.85	1826.3
928.482	1965.3325	2721.35	1829.55
928.6202	1966.9353	2702.7	1815.75
928.7584	1968.5374	2708.65	1819.65
928.8965	1970.1387	2709.35	1822
929.0346	1971.7393	2689.85	1799.4
929.1727	1973.3392	2690.35	1801.35
929.3108	1974.9383	2688.7	1803.55
929.4489	1976.5366	2674.75	1785.65
929.5869	1978.1342	2669.6	1783.65
929.7249	1979.7311	2673.95	1785.5
929.8629	1981.3273	2657.75	1769.2
930.0009	1982.9227	2648.95	1760.5
930.1388	1984.5173	2648.25	1760.15
930.2767	1986.1112	2638.3	1752.95
930.4146	1987.7044	2637.45	1754.4
930.5525	1989.2968	2623.95	1736.45
930.6904	1990.8885	2630.55	1741.45
930.8282	1992.4795	2621.9	1736
930.966	1994.0697	2617.2	1732.9
931.1038	1995.6592	2608.85	1724.45
931.2415	1997.2479	2606.25	1719.65
931.3793	1998.8359	2588.9	1702.9
931.517	2000.4232	2594.3	1711.35
931.6547	2002.0097	2586.55	1706.4
931.7923	2003.5955	2575.95	1692.95
931.93	2005.1805	2583.6	1698.95
932.0676	2006.7648	2584.65	1701.55
932.2052	2008.3484	2566.45	1682.4
932.3427	2009.9312	2571.95	1687.3
932.4803	2011.5133	2563.05	1683.6
932.6178	2013.0946	2552.95	1669.65
932.7553	2014.6752	2548.8	1669.35
932.8928	2016.2551	2558.55	1674.55
933.0302	2017.8342	2545.85	1663
933.1676	2019.4126	2518.8	1637.65
933.305	2020.9902	2533.75	1654.8
933.4424	2022.5672	2527.6	1645.15
933.5798	2024.1433	2524.6	1638.9
933.7171	2025.7188	2511.5	1631.95
933.8544	2027.2935	2516.75	1634.9
933.9917	2028.8674	2514.1	1634.6
934.129	2030.4406	2498.75	1617.65
934.2662	2032.0131	2494.1	1616.25
934.4034	2033.5849	2488.95	1601.2
934.5406	2035.1559	2494.05	1613.5
934.6778	2036.7261	2485.75	1603.25
934.8149	2038.2957	2488.65	1605.05
934.952	2039.8645	2486.35	1600.85
935.0891	2041.4325	2481.35	1594.4
935.2262	2042.9998	2468.4	1586.5
935.3632	2044.5664	2472.95	1589.7
935.5002	2046.1323	2468.9	1588.5
935.6372	2047.6974	2449.9	1567.55
935.7742	2049.2617	2446.9	1565.85
935.9111	2050.8254	2457	1569.4
936.048	2052.3883	2456.5	1571.85
936.1849	2053.9504	2448.8	1563.1
936.3218	2055.5118	2439	1555.55
936.4586	2057.0725	2440	1552
936.5955	2058.6325	2424.7	1541.95
936.7323	2060.1917	2433.8	1550.7
936.869	2061.7502	2424.7	1541.55
937.0058	2063.3079	2416.45	1534.3
937.1425	2064.8649	2404.9	1520.25
937.2792	2066.4212	2416.6	1533.6
937.4159	2067.9767	2393.85	1509.4
937.5525	2069.5315	2407.05	1523.75
937.6891	2071.0856	2387.75	1506
937.8257	2072.6389	2392.4	1507.1
937.9623	2074.1915	2380.2	1501.4
938.0989	2075.7433	2383.85	1499.05
938.2354	2077.2945	2366.9	1484.2
938.3719	2078.8448	2375.25	1490.3
938.5084	2080.3945	2374.45	1488.6
938.6448	2081.9434	2362.4	1476.75
938.7812	2083.4916	2346.95	1463.35
938.9176	2085.039	2352.75	1465.15
939.054	2086.5857	2354.55	1464.1
939.1903	2088.1317	2355.1	1463.3
939.3267	2089.677	2344.85	1455.35
939.463	2091.2215	2348.55	1459
939.5992	2092.7652	2337.15	1445
939.7355	2094.3083	2329.6	1439.9
939.8717	2095.8506	2326.4	1440.25
940.0079	2097.3921	2330.45	1445.4
940.1441	2098.933	2314.9	1427.9
940.2802	2100.4731	2315.65	1428.4
940.4163	2102.0124	2329.6	1424.75
940.5524	2103.5511	2319.75	1432.3
940.6885	2105.089	2314	1425.5
940.8245	2106.6261	2307	1421.35
940.9606	2108.1626	2307.35	1419.8
941.0965	2109.6983	2324.7	1410.25
941.2325	2111.2332	2306.5	1419.6
941.3684	2112.7675	2295.15	1405.4
941.5044	2114.301	2290.25	1400.85
941.6403	2115.8337	2280.85	1392.35
941.7761	2117.3657	2282.3	1394.55
941.912	2118.897	2277.3	1388.9
942.0478	2120.4276	2291.6	1398.65
942.1835	2121.9575	2263.85	1375.65
942.3193	2123.4866	2271.25	1380.5
942.455	2125.0149	2261.65	1371.9
942.5907	2126.5426	2254.95	1370.1
942.7264	2128.0695	2256.35	1370.05
942.8621	2129.5956	2252.4	1370.65
942.9977	2131.1211	2255	1367.8
943.1333	2132.6458	2246.5	1361.2
943.2689	2134.1698	2243	1353.95
943.4044	2135.693	2241.6	1348.15
943.54	2137.2155	2244	1349.85
943.6755	2138.7373	2234.35	1346.9
943.8109	2140.2584	2223.35	1339.75
943.9464	2141.7787	2226.3	1339
944.0818	2143.2983	2213.15	1333.1
944.2172	2144.8171	2197.05	1315.65
944.3526	2146.3353	2215.6	1329.55
944.4879	2147.8527	2200.1	1315.55
944.6232	2149.3693	2216.3	1327.15
944.7585	2150.8853	2201.6	1312.65
944.8938	2152.4005	2199	1311.35
945.029	2153.9149	2207.15	1319.55
945.1642	2155.4287	2186.55	1297.1
945.2994	2156.9417	2191	1299.9
945.4346	2158.454	2180.1	1289.75
945.5697	2159.9655	2169.3	1285.05
945.7048	2161.4764	2178	1293.35
945.8399	2162.9865	2169.6	1282.45
945.9749	2164.4958	2159.45	1274.45
946.1099	2166.0045	2160.6	1272.75
946.2449	2167.5124	2158.1	1272.7
946.3799	2169.0195	2158.25	1270.25
946.5148	2170.526	2158.7	1270.45
946.6498	2172.0317	2164	1276.95
946.7846	2173.5367	2152.9	1266.75
946.9195	2175.0409	2150	1262.2
947.0543	2176.5445	2155.95	1268.45
947.1891	2178.0473	2144.95	1254.85
947.3239	2179.5494	2136.1	1243.15
947.4587	2181.0507	2126.9	1240
947.5934	2182.5513	2128.9	1241.6
947.7281	2184.0512	2125.35	1237.6
947.8628	2185.5504	2126.05	1237.55
947.9974	2187.0488	2122.05	1237.05
948.132	2188.5465	2122.45	1236.9
948.2666	2190.0435	2123.9	1237.95
948.4012	2191.5397	2110	1221.5
948.5357	2193.0353	2114.75	1227.5
948.6702	2194.5301	2108.05	1214.85
948.8047	2196.0241	2107.6	1215.9
948.9392	2197.5175	2103.85	1212.6
949.0736	2199.0101	2100.15	1205.9
949.208	2200.502	2101.7	1214.1
949.3424	2201.9931	2091.35	1204.65
949.4767	2203.4835	2072	1184.85
949.611	2204.9733	2101.25	1199.55
949.7453	2206.4622	2081.5	1198.45
949.8796	2207.9505	2073.25	1186.95
950.0138	2209.438	2051.9	1169.75
950.148	2210.9248	2057.15	1171.7
950.2822	2212.4109	2052.8	1167.65
950.4164	2213.8962	2068.25	1175.8
950.5505	2215.3809	2044.95	1154.3
950.6846	2216.8648	2054.05	1160.9
950.8186	2218.3479	2055.25	1157.15
950.9527	2219.8304	2055.45	1158.15
951.0867	2221.3121	2045.55	1149.15
951.2207	2222.7931	2038.55	1146.9
951.3546	2224.2733	2033.9	1143.15
951.4886	2225.7529	2023.75	1133.25
951.6225	2227.2317	2019.9	1131.1
951.7563	2228.7098	2018.5	1133.2
951.8902	2230.1872	2012.45	1127.95
952.024	2231.6638	2011.6	1129.1
952.1578	2233.1397	2008.15	1117.65
952.2916	2234.6149	2011.5	1126.85
952.4253	2236.0894	1999.85	1114.1
952.559	2237.5632	2006.9	1109.9
952.6927	2239.0362	1996.25	1108.85
952.8263	2240.5085	1995.95	1107
952.9599	2241.9801	1989.05	1100.3
953.0935	2243.4509	1986.25	1097.15
953.2271	2244.921	1980.65	1091.35
953.3606	2246.3904	1974	1081.2
953.4941	2247.8591	1975.95	1086.1
953.6276	2249.3271	1968.15	1079.2
953.7611	2250.7943	1975.2	1086.15
953.8945	2252.2608	1962	1071.8
954.0279	2253.7266	1950.95	1062.15
954.1612	2255.1917	1956.95	1069.25
954.2946	2256.656	1952.85	1063.75
954.4279	2258.1197	1941.85	1058.9
954.5612	2259.5826	1947.8	1058.1
954.6944	2261.0447	1940.8	1052.35
954.8276	2262.5062	1943.05	1053.15
954.9608	2263.9669	1940.5	1050.55
955.094	2265.4269	1935.6	1048.15
955.2271	2266.8862	1936.8	1048.9
955.3602	2268.3448	1931.4	1045.1
955.4933	2269.8026	1915.3	1030.7
955.6264	2271.2598	1922.55	1033.8
955.7594	2272.7162	1916.65	1028.05
955.8924	2274.1719	1923.1	1032.25
956.0253	2275.6268	1924.85	1034.25
956.1583	2277.0811	1915.8	1024.8
956.2912	2278.5346	1919.15	1033.1
956.4241	2279.9874	1916.9	1031.4
956.5569	2281.4395	1907.6	1022.25
956.6897	2282.8908	1922	1031.3
956.8225	2284.3414	1919.8	1032.9
956.9553	2285.7914	1900.45	1012.95
957.088	2287.2406	1895.7	1005
957.2207	2288.689	1904.25	1011.75
957.3534	2290.1368	1899.45	1005.8
957.486	2291.5838	1895	999.6
957.6186	2293.0302	1898.75	1002.15
957.7512	2294.4758	1899	1009.25
957.8838	2295.9206	1891.4	997.6
958.0163	2297.3648	1881.35	994.8
958.1488	2298.8082	1881.75	994.4
958.2813	2300.251	1881.05	991.7
958.4137	2301.693	1885.55	990.7
958.5461	2303.1343	1888	996.65
958.6785	2304.5748	1877.15	988.45
958.8108	2306.0147	1861.05	973.75
958.9432	2307.4538	1866.35	976.85
959.0754	2308.8922	1862.55	977.45
959.2077	2310.3299	1854.35	968.7
959.3399	2311.7669	1852.25	965.4
959.4721	2313.2031	1860.4	972.2
959.6043	2314.6387	1855.2	964.7
959.7365	2316.0735	1849	960.25
959.8686	2317.5076	1854.8	966.1
960.0006	2318.941	1841.5	951.9
960.1327	2320.3737	1850.4	959.8
960.2647	2321.8056	1836.6	942.45
960.3967	2323.2369	1843.65	953.5
960.5287	2324.6674	1839.25	948
960.6606	2326.0972	1831.25	941.15
960.7925	2327.5263	1829.9	940.1
960.9244	2328.9547	1836.45	945
961.0562	2330.3823	1832	941.35
961.1881	2331.8092	1829.75	935.15
961.3198	2333.2355	1826.75	935.2
961.4516	2334.661	1830.45	940.4
961.5833	2336.0858	1817.1	924.65
961.715	2337.5098	1814.25	924.55
961.8467	2338.9332	1812.85	920.8
961.9783	2340.3558	1804.9	913.85
962.1099	2341.7778	1798.8	908.8
962.2415	2343.199	1798.85	908.65
962.373	2344.6195	1805.35	917.5
962.5045	2346.0393	1799.4	910.85
962.636	2347.4583	1798.5	908
962.7675	2348.8767	1802.1	910.65
962.8989	2350.2943	1807.85	916.45
963.0303	2351.7113	1802.2	908.55
963.1617	2353.1275	1802.7	910.85
963.293	2354.543	1814.95	914.8
963.4243	2355.9578	1794.95	903.9
963.5556	2357.3718	1778.3	890.5
963.6868	2358.7852	1783.45	892.6
963.818	2360.1978	1785.35	897.1
963.9492	2361.6098	1771.8	882.95
964.0803	2363.021	1786.75	893.15
964.2114	2364.4315	1779.5	888.3
964.3425	2365.8413	1778.05	887.3
964.4736	2367.2504	1770.05	883.1
964.6046	2368.6587	1770.35	882.55
964.7356	2370.0664	1763.4	876.7
964.8666	2371.4733	1764.05	874.15
964.9975	2372.8795	1772.25	881.65
965.1284	2374.285	1766.15	876.65
965.2593	2375.6899	1758.8	869.9
965.3901	2377.0939	1754.6	867.25
965.5209	2378.4973	1749.65	859.65
965.6517	2379.9	1748.2	861.35
965.7825	2381.3019	1745.2	858
965.9132	2382.7032	1735.05	848.6
966.0439	2384.1037	1737.15	851.4
966.1745	2385.5035	1732.65	846.9
966.3051	2386.9027	1730.55	844.85
966.4357	2388.3011	1731.15	839.7
966.5663	2389.6987	1727.75	839.35
966.6968	2391.0957	1721.65	833.2
966.8273	2392.492	1722.85	836.45
966.9578	2393.8876	1714.35	826.7
967.0882	2395.2824	1714.65	825.75
967.2186	2396.6765	1714.95	826.95
967.349	2398.07	1712.45	821.35
967.4793	2399.4627	1712.5	821.3
967.6097	2400.8547	1697.7	808.2
967.7399	2402.246	1713.5	818.15
967.8702	2403.6366	1704.15	815.65
968.0004	2405.0265	1700.15	814
968.1306	2406.4156	1702.4	810.4
968.2607	2407.8041	1697.9	805.6
968.3909	2409.1918	1687.65	796.35
968.521	2410.5789	1691.75	800.05
968.651	2411.9652	1695.35	802.3
968.781	2413.3508	1693.95	804
968.911	2414.7358	1680.15	789.65
969.041	2416.12	1677.55	789.05
969.1709	2417.5035	1682.25	793.85
969.3008	2418.8863	1683.85	795.75
969.4307	2420.2684	1676.05	789.25
969.5606	2421.6497	1670.9	779.2
969.6904	2423.0304	1663.2	776.65
969.8201	2424.4104	1664.05	775.1
969.9499	2425.7896	1668.55	772.85
970.0796	2427.1682	1663.05	774.2
970.2093	2428.546	1661.35	772.6
970.3389	2429.9232	1659.85	769
970.4685	2431.2996	1659.1	771
970.5981	2432.6753	1658.95	769.85
970.7277	2434.0503	1655.65	765.3
970.8572	2435.4246	1652.3	763.8
970.9867	2436.7982	1646.85	754.9
971.1161	2438.1711	1650.45	762.75
971.2456	2439.5433	1644.6	753.25
971.375	2440.9148	1642.65	747.7
971.5043	2442.2856	1636.35	748.45
971.6336	2443.6557	1637.3	747.15
971.7629	2445.025	1629.95	741.75
971.8922	2446.3937	1632.9	741
972.0214	2447.7617	1627.2	736.05
972.1506	2449.1289	1632.7	741.9
972.2798	2450.4955	1635.6	742.3
972.4089	2451.8613	1620.55	731.95
972.538	2453.2265	1627.8	739.5
972.6671	2454.5909	1622.05	732.75
972.7961	2455.9546	1620.25	731.65
972.9251	2457.3177	1614.2	726.95
973.0541	2458.68	1621.35	731.15
973.1831	2460.0416	1608.35	716.1
973.312	2461.4025	1612.5	721.75
973.4408	2462.7627	1626.3	727
973.5697	2464.1222	1607.4	720.9
973.6985	2465.4811	1609.15	719.9
973.8273	2466.8392	1605.55	719.4
973.956	2468.1966	1604.25	714.3
974.0847	2469.5533	1607.45	716.2
974.2134	2470.9093	1603.9	713.05
974.3421	2472.2645	1606.05	715.15
974.4707	2473.6191	1605.3	716.9
974.5993	2474.973	1602.2	714.45
974.7278	2476.3262	1595.45	704.2
974.8563	2477.6787	1595.75	709.1
974.9848	2479.0305	1590.5	701.6
975.1132	2480.3816	1597.6	706
975.2417	2481.7319	1589.1	699.4
975.37	2483.0816	1591.1	702.2
975.4984	2484.4306	1588.9	701.55
975.6267	2485.7789	1585.4	698.75
975.755	2487.1264	1581.25	689.25
975.8833	2488.4733	1580.4	692.9
976.0115	2489.8195	1594.1	686.55
976.1397	2491.165	1570	680.25
976.2678	2492.5097	1573.45	685.6
976.3959	2493.8538	1570.5	683.9
976.524	2495.1972	1561.5	674.2
976.6521	2496.5398	1573.25	683.65
976.7801	2497.8818	1565.4	674.45
976.9081	2499.2231	1565.75	674.8
977.036	2500.5637	1567.1	675.7
977.164	2501.9035	1561.65	673.25
977.2918	2503.2427	1560.3	666.9
977.4197	2504.5812	1560.1	671.7
977.5475	2505.919	1550.75	659.6
977.6753	2507.256	1557.55	668.2
977.8031	2508.5924	1561.75	672.5
977.9308	2509.9281	1551.85	656
978.0585	2511.2631	1543.9	656.4
978.1861	2512.5974	1545.7	658.7
978.3137	2513.9309	1544	654.15
978.4413	2515.2638	1568.4	652
978.5689	2516.596	1543.9	653.15
978.6964	2517.9275	1534.3	645.85
978.8239	2519.2583	1539.1	650.6
978.9513	2520.5884	1531.2	642.4
979.0788	2521.9178	1531.45	642.65
979.2062	2523.2465	1531.75	645.3
979.3335	2524.5745	1534.85	649.25
979.4608	2525.9018	1524.7	636.75
979.5881	2527.2284	1528.6	639.6
979.7154	2528.5543	1525	637.5
979.8426	2529.8796	1526.1	636.85
979.9698	2531.2041	1533.3	646.5
980.0969	2532.5279	1519.6	633.4
980.224	2533.851	1525.95	636.15
980.3511	2535.1735	1520.6	632.5
980.4781	2536.4952	1527.25	639.05
980.6052	2537.8163	1521.8	631.5
980.7321	2539.1366	1522.7	633
980.8591	2540.4562	1515.95	625.75
980.986	2541.7752	1521.2	631.95
981.1129	2543.0935	1514.55	623.75
981.2397	2544.411	1522.95	633
981.3665	2545.7279	1512.75	623.95
981.4933	2547.0441	1515.65	627.75
981.62	2548.3596	1515.8	624.35
981.7467	2549.6744	1510	619.9
981.8734	2550.9885	1521.7	623.85
982.0001	2552.3019	1506.85	618.65
982.1267	2553.6146	1512.45	625.2
982.2532	2554.9266	1504.45	616.95
982.3798	2556.2379	1511	619.25
982.5063	2557.5485	1511.45	621.9
982.6327	2558.8585	1512.45	616.65
982.7592	2560.1677	1506.8	614.65
982.8856	2561.4762	1505.1	615.45
983.0119	2562.7841	1496.35	605.6
983.1383	2564.0913	1498.6	610.75
983.2646	2565.3977	1494.65	605.7
983.3908	2566.7035	1496.55	608.2
983.517	2568.0086	1501.75	610.45
983.6432	2569.313	1501	611.25
983.7694	2570.6167	1498.05	604.95
983.8955	2571.9197	1495.5	606.75
984.0216	2573.222	1500.05	606.25
984.1476	2574.5236	1485.7	597.65
984.2737	2575.8246	1493.2	600.8
984.3996	2577.1248	1494.25	601.8
984.5256	2578.4244	1499.2	610.55
984.6515	2579.7232	1495.75	606.05
984.7774	2581.0214	1521.8	601.55
984.9032	2582.3189	1490.35	602.7
985.029	2583.6157	1498.4	605.3
985.1548	2584.9118	1491.85	602.55
985.2806	2586.2072	1487.95	599.25
985.4063	2587.5019	1486.1	597.7
985.5319	2588.7959	1491.5	604.35
985.6576	2590.0893	1490.15	601.3
985.7832	2591.3819	1489.4	600.3
985.9087	2592.6739	1497.55	610.05
986.0343	2593.9652	1487.65	595.6
986.1597	2595.2557	1489.65	600.65
986.2852	2596.5456	1500.05	608.35
986.4106	2597.8348	1487.6	600.3
986.536	2599.1234	1490.5	604.25
986.6614	2600.4112	1484.45	598.35
986.7867	2601.6983	1497.15	608.4
986.912	2602.9848	1493.55	605.8
987.0372	2604.2705	1494.3	600.15
987.1624	2605.5556	1490.4	601.25
987.2876	2606.84	1490.65	604.55
987.4128	2608.1237	1482.05	595.95
987.5379	2609.4067	1486.65	598.2
987.6629	2610.689	1487.25	593.9
987.788	2611.9707	1483.55	592.15
987.913	2613.2516	1473.15	581.85
988.0379	2614.5319	1469.45	583.75
988.1629	2615.8115	1468	579.65
988.2878	2617.0903	1460.45	572.9
988.4126	2618.3685	1454.6	566.65
988.5375	2619.6461	1456.25	567.45
988.6622	2620.9229	1456.75	569.25
988.787	2622.199	1456.6	569.1
988.9117	2623.4745	1457.7	572.7
989.0364	2624.7493	1454.75	567.1
989.161	2626.0234	1460.05	572.9
989.2857	2627.2968	1460.3	573.45
989.4102	2628.5695	1449.8	561.4
989.5348	2629.8415	1444.9	557
989.6593	2631.1128	1449.4	560
989.7837	2632.3835	1448.1	560.45
989.9082	2633.6535	1451.05	567.5
990.0326	2634.9228	1452.85	566.65
990.1569	2636.1914	1445.65	561.3
990.2812	2637.4593	1446	558.65
990.4055	2638.7265	1440.25	551.95
990.5298	2639.9931	1438.95	554.6
990.654	2641.259	1439.5	553.25
990.7782	2642.5242	1429	541.4
990.9023	2643.7887	1437.35	554.5
991.0264	2645.0525	1435.55	549.9
991.1505	2646.3156	1430.95	544.6
991.2745	2647.5781	1427	541.7
991.3985	2648.8398	1425.1	537.9
991.5225	2650.1009	1462.25	539.15
991.6464	2651.3613	1435.35	548.8
991.7703	2652.6211	1430	543.8
991.8942	2653.8801	1422.55	538.45
992.018	2655.1385	1423.8	538.6
992.1418	2656.3961	1423.3	536.65
992.2655	2657.6531	1421.05	535.2
992.3892	2658.9094	1420.05	535.55
992.5129	2660.1651	1420.45	537.6
992.6366	2661.42	1431.3	545.15
992.7602	2662.6743	1425.8	539.65
992.8837	2663.9279	1425.7	541.3
993.0073	2665.1808	1431.35	542.75
993.1307	2666.433	1425.25	538.1
993.2542	2667.6846	1427.85	542.25
993.3776	2668.9354	1438.55	551.85
993.501	2670.1856	1439.4	552.85
993.6244	2671.4351	1432.3	548.05
993.7477	2672.6839	1437.4	551.9
993.8709	2673.9321	1439.1	554.2
993.9942	2675.1795	1446.65	560.4
994.1174	2676.4263	1440.35	552.35
994.2405	2677.6724	1444.85	558.05
994.3637	2678.9179	1440.45	553.7
994.4868	2680.1626	1447.85	563
994.6098	2681.4067	1450.3	565.65
994.7328	2682.6501	1442.5	555.85
994.8558	2683.8928	1441.8	555.8
994.9788	2685.1348	1438.95	555
995.1017	2686.3761	1434.95	548.95
995.2245	2687.6168	1430.45	543.9
995.3474	2688.8568	1427.15	541.4
995.4702	2690.0961	1424.65	540.3
995.5929	2691.3348	1420.75	534.75
995.7156	2692.5727	1413.85	527.75
995.8383	2693.81	1413.9	527.95
995.961	2695.0466	1411	528.3
996.0836	2696.2826	1416.85	530.3
996.2062	2697.5178	1415.2	524.05
996.3287	2698.7524	1418.85	533.85
996.4512	2699.9863	1420.45	532.85
996.5737	2701.2195	1422.2	536.55
996.6961	2702.452	1421.55	532.85
996.8185	2703.6839	1427.4	541.3
996.9408	2704.9151	1431.85	547.15
997.0631	2706.1456	1442.75	558
997.1854	2707.3755	1448.05	562.2
997.3077	2708.6046	1460.55	573.3
997.4299	2709.8331	1455.35	569.65
997.552	2711.0609	1458.9	572.7
997.6742	2712.2881	1463.45	577.2
997.7963	2713.5145	1477.3	588.65
997.9183	2714.7403	1475.7	592.5
998.0403	2715.9654	1480.75	594.25
998.1623	2717.1899	1504.9	605.9
998.2842	2718.4136	1514.05	629.95
998.4062	2719.6367	1521.85	637.25
998.528	2720.8591	1533.1	640.3
998.6498	2722.0809	1541.7	654.4
998.7716	2723.3019	1551.85	664.5
998.8934	2724.5223	1562.1	674.65
999.0151	2725.7421	1571.25	684.15
999.1368	2726.9611	1572.9	687.45
999.2584	2728.1795	1574.8	683.6
999.38	2729.3972	1556.25	672.7
999.5016	2730.6142	1556.2	663.55
999.6231	2731.8306	1536.35	650.1
999.7446	2733.0462	1519.9	631.4
999.8661	2734.2612	1511.2	620.7
999.9875	2735.4756	1495.5	611.9
1000.1089	2736.6892	1477.5	590.1
1000.2302	2737.9022	1464.5	582.85
1000.3515	2739.1145	1453.3	568.5
1000.4728	2740.3262	1455.1	564.25
1000.594	2741.5372	1426.7	543.65
1000.7152	2742.7475	1429.85	546.15
1000.8363	2743.9571	1420.55	533.95
1000.9575	2745.1661	1413.25	526.15
1001.0785	2746.3744	1393.7	506.15
1001.1996	2747.582	1390.8	504.45
1001.3206	2748.7889	1375.85	489.15
1001.4415	2749.9952	1377.9	495.15
1001.5625	2751.2008	1369.25	483.15
1001.6833	2752.4057	1365	477.8
1001.8042	2753.61	1362.5	477.5
1001.925	2754.8136	1363.65	475.55
1002.0458	2756.0165	1357.15	473.15
1002.1665	2757.2188	1349.95	466.7
1002.2872	2758.4204	1354.95	471.65
1002.4078	2759.6213	1352.45	466.4
1002.5285	2760.8215	1361.2	470.05
1002.649	2762.0211	1357.85	471.75
1002.7696	2763.22	1361.55	475.8
1002.8901	2764.4182	1356.85	473.85
1003.0106	2765.6158	1355	471.05
1003.131	2766.8127	1348.35	462.2
1003.2514	2768.009	1345.5	461.55
1003.3717	2769.2045	1346.8	461.8
1003.492	2770.3994	1334.75	446.8
1003.6123	2771.5936	1337.7	455.15
1003.7325	2772.7872	1335.05	450.55
1003.8527	2773.9801	1331.7	447.6
1003.9729	2775.1723	1348.05	452.35
1004.093	2776.3639	1325.6	440.95
1004.2131	2777.5548	1329.05	444.2
1004.3331	2778.745	1327.4	442.4
1004.4531	2779.9346	1327.65	444.25
1004.5731	2781.1235	1330.75	445.2
1004.693	2782.3117	1325.35	441.85
1004.8129	2783.4992	1334.15	453.2
1004.9328	2784.6861	1334.4	451.9
1005.0526	2785.8723	1338	453.5
1005.1723	2787.0579	1342.9	458.05
1005.2921	2788.2428	1340.25	455.8
1005.4118	2789.427	1347.7	464
1005.5314	2790.6106	1355.05	474.65
1005.651	2791.7935	1357.3	472.8
1005.7706	2792.9757	1363.85	483.15
1005.8902	2794.1573	1372.4	485.65
1006.0097	2795.3382	1372	488.55
1006.1291	2796.5184	1383.05	501.75
1006.2485	2797.698	1391	505.65
1006.3679	2798.8769	1400.4	518.45
1006.4873	2800.0551	1404.75	520.8
1006.6066	2801.2327	1423	536.3
1006.7258	2802.4096	1434.85	552.4
1006.8451	2803.5859	1448.5	562.6
1006.9642	2804.7615	1460.85	577.4
1007.0834	2805.9364	1480.85	599.05
1007.2025	2807.1106	1496.35	611.9
1007.3216	2808.2842	1514	630.75
1007.4406	2809.4572	1549.65	665.7
1007.5596	2810.6294	1571.35	687.65
1007.6785	2811.801	1603	722.15
1007.7975	2812.972	1634.3	750.7
1007.9163	2814.1423	1674.1	793.7
1008.0352	2815.3119	1712.35	828.45
1008.154	2816.4808	1754.7	873.5
1008.2727	2817.6491	1811.5	926.55
1008.3914	2818.8167	1860.1	979.65
1008.5101	2819.9837	1909.8	1023.8
1008.6288	2821.15	1969.05	1087
1008.7474	2822.3157	2011.1	1130.55
1008.8659	2823.4807	2087.2	1205.8
1008.9844	2824.645	2143.65	1261.05
1009.1029	2825.8086	2193.7	1311.4
1009.2214	2826.9716	2256.3	1375.1
1009.3398	2828.134	2319.7	1438.2
1009.4581	2829.2957	2359.6	1476.3
1009.5764	2830.4567	2390.75	1509.15
1009.6947	2831.617	2421.5	1537.9
1009.813	2832.7767	2442.45	1561.15
1009.9312	2833.9358	2437.3	1555.6
1010.0493	2835.0941	2426.3	1542.05
1010.1675	2836.2519	2422.4	1541.7
1010.2855	2837.4089	2395.95	1513.45
1010.4036	2838.5653	2378.65	1496.35
1010.5216	2839.7211	2349.7	1468
1010.6396	2840.8761	2359.45	1473.15
1010.7575	2842.0306	2374.8	1494.85
1010.8754	2843.1843	2375.2	1494.95
1010.9932	2844.3374	2408.1	1525.2
1011.111	2845.4899	2450.85	1568.1
1011.2288	2846.6417	2493.45	1611.3
1011.3465	2847.7928	2537.6	1655.5
1011.4642	2848.9433	2586	1706.3
1011.5818	2850.0931	2647.15	1764.95
1011.6995	2851.2422	2710.9	1827.6
1011.817	2852.3907	2765.9	1882.3
1011.9345	2853.5385	2816	1933.8
1012.052	2854.6857	2892.05	1983.65
1012.1695	2855.8323	2912.8	2031.4
1012.2869	2856.9781	2961.75	2079.9
1012.4042	2858.1233	3016.25	2131.8
1012.5216	2859.2679	3059.05	2178.75
1012.6389	2860.4118	3104.55	2222.95
1012.7561	2861.555	3152.4	2266.5
1012.8733	2862.6976	3192.3	2307.7
1012.9905	2863.8395	3231.15	2350.55
1013.1076	2864.9808	3255.2	2373.05
1013.2247	2866.1214	3283.9	2403.5
1013.3417	2867.2614	3281	2397.75
1013.4587	2868.4007	3313	2430.25
1013.5757	2869.5393	3337.05	2450.25
1013.6926	2870.6773	3347.15	2463
1013.8095	2871.8146	3372.45	2487.25
1013.9263	2872.9513	3364.65	2481.45
1014.0431	2874.0874	3344	2461.3
1014.1599	2875.2227	3330.1	2446.85
1014.2766	2876.3574	3327.85	2447.35
1014.3933	2877.4915	3296.6	2414.25
1014.51	2878.6249	3266.85	2386.95
1014.6266	2879.7577	3251.5	2370.75
1014.7431	2880.8898	3239.6	2347.8
1014.8596	2882.0212	3208	2327
1014.9761	2883.152	3202.4	2321.8
1015.0925	2884.2821	3203.95	2322.65
1015.2089	2885.4116	3186.4	2304.3
1015.3253	2886.5405	3198.9	2320.6
1015.4416	2887.6686	3207.6	2320.05
1015.5579	2888.7962	3186.85	2306.55
1015.6741	2889.923	3199.5	2317.25
1015.7903	2891.0493	3207.6	2326.5
1015.9065	2892.1748	3236.2	2357.25
1016.0226	2893.2997	3244.5	2360.35
1016.1387	2894.424	3252.85	2373.55
1016.2547	2895.5476	3263.75	2380.95
1016.3707	2896.6706	3286.75	2407.1
1016.4866	2897.7929	3302.8	2420.15
1016.6025	2898.9145	3328.5	2447.25
1016.7184	2900.0355	3366.1	2485.75
1016.8342	2901.1559	3372.85	2490.9
1016.95	2902.2756	3417.05	2530.5
1017.0658	2903.3946	3443.45	2563.25
1017.1815	2904.513	3462.55	2576.2
1017.2971	2905.6308	3487.95	2605.85
1017.4127	2906.7479	3512.4	2629.9
1017.5283	2907.8643	3540.75	2660
1017.6439	2908.9801	3554.25	2673.75
1017.7594	2910.0953	3540.75	2657.55
1017.8748	2911.2098	3549.35	2665.5
1017.9902	2912.3236	3547.35	2660
1018.1056	2913.4368	3537.4	2653.1
1018.2209	2914.5494	3522.7	2641.45
1018.3362	2915.6613	3500.75	2613.1
1018.4515	2916.7725	3460.1	2576.35
1018.5667	2917.8831	3424.5	2542.9
1018.6819	2918.9931	3387.6	2503.9
1018.797	2920.1024	3379.75	2497.45
1018.9121	2921.211	3344	2464.3
1019.0271	2922.319	3352.15	2469.1
1019.1421	2923.4264	3327.35	2445.1
1019.2571	2924.5331	3332.6	2454.65
1019.372	2925.6391	3317.9	2437.4
1019.4869	2926.7445	3330.5	2450.05
1019.6017	2927.8493	3318	2435.2
1019.7165	2928.9534	3320.65	2439.95
1019.8313	2930.0569	3332.35	2446.2
1019.946	2931.1597	3332.35	2452.3
1020.0606	2932.2619	3342.3	2461.4
1020.1753	2933.3634	3348.4	2469.05
1020.2899	2934.4643	3359.2	2471.1
1020.4044	2935.5645	3345.95	2460.75
1020.5189	2936.6641	3332.45	2447.05
1020.6334	2937.763	3286.5	2405.5
1020.7478	2938.8613	3270.45	2389.2
1020.8622	2939.959	3238.75	2353.35
1020.9765	2941.056	3177.4	2297.1
1021.0908	2942.1523	3107.3	2225.9
1021.2051	2943.248	3029.45	2149.1
1021.3193	2944.3431	2953.25	2072.7
1021.4334	2945.4375	2865.4	1984.65
1021.5476	2946.5313	2777.9	1899.05
1021.6617	2947.6244	2684.3	1802.35
1021.7757	2948.7169	2592.05	1711.45
1021.8897	2949.8087	2499.8	1618.95
1022.0037	2950.8999	2417.65	1537.5
1022.1176	2951.9904	2323.45	1441.15
1022.2315	2953.0803	2272.85	1392.3
1022.3453	2954.1696	2207.9	1326.9
1022.4591	2955.2582	2159	1277.7
1022.5728	2956.3462	2127.5	1247
1022.6865	2957.4335	2087.65	1207
1022.8002	2958.5202	2043	1160.6
1022.9138	2959.6062	2026.3	1146.35
1023.0274	2960.6916	1999.35	1118.05
1023.141	2961.7764	1970.9	1089.4
1023.2545	2962.8605	1953.85	1072.85
1023.3679	2963.9439	1952.15	1073.15
1023.4813	2965.0267	1923.25	1041.05
1023.5947	2966.1089	1938.85	1034.55
1023.708	2967.1905	1922.75	1044.95
1023.8213	2968.2714	1917.8	1036.45
1023.9346	2969.3516	1919.6	1039.95
1024.0478	2970.4312	1925.9	1039.55
1024.1609	2971.5102	1918.75	1040.15
1024.274	2972.5885	1927.75	1048.85
1024.3871	2973.6662	1932.7	1047.15
1024.5002	2974.7432	1932.9	1052.1
1024.6132	2975.8196	1931.8	1050.3
1024.7261	2976.8954	1920.8	1041.95
1024.839	2977.9705	1920.9	1041.75
1024.9519	2979.045	1904.55	1023.35
1025.0647	2980.1188	1897	1018.9
1025.1775	2981.192	1884.8	1005.35
1025.2902	2982.2645	1869.5	988.75
1025.4029	2983.3364	1848.95	969.75
1025.5156	2984.4077	1815.25	935.8
1025.6282	2985.4783	1800.6	914.35
1025.7407	2986.5483	1766.6	887.1
1025.8532	2987.6177	1741.65	862.25
1025.9657	2988.6864	1702.7	821.6
1026.0782	2989.7545	1669.2	789
1026.1906	2990.8219	1652.05	772.5
1026.3029	2991.8887	1613	730.25
1026.4152	2992.9548	1584.9	705.35
1026.5275	2994.0204	1550.35	670
1026.6397	2995.0852	1522.35	643.8
1026.7519	2996.1495	1493.35	612.3
1026.864	2997.2131	1469	592.95
1026.9761	2998.276	1447	567.85
1027.0882	2999.3383	1434	552.9
1027.2002	3000.4	1400.4	521.05
1027.3122	3001.4611	1388.6	509.15
1027.4241	3002.5215	1368.75	489.7
1027.536	3003.5812	1357.4	475.2
1027.6478	3004.6404	1345.35	466
1027.7596	3005.6989	1331.7	451
1027.8714	3006.7567	1317.6	438.05
1027.9831	3007.8139	1331.9	423.9
1028.0947	3008.8705	1295.2	414.65
1028.2064	3009.9264	1292.65	408.15
1028.3179	3010.9818	1282.2	402.65
1028.4295	3012.0364	1277.5	396.45
1028.541	3013.0905	1267.75	386.6
1028.6524	3014.1439	1257.65	378.3
1028.7638	3015.1966	1256.95	376.75
1028.8752	3016.2487	1249.3	368.35
1028.9865	3017.3002	1249.3	365.45
1029.0978	3018.3511	1236.1	357.8
1029.209	3019.4013	1238	357.8
1029.3202	3020.4509	1237.1	356.25
1029.4314	3021.4998	1235.35	356.3
1029.5425	3022.5481	1233.3	352.65
1029.6535	3023.5958	1233.55	353.8
1029.7645	3024.6428	1229.5	349.5
1029.8755	3025.6892	1230.5	351.55
1029.9864	3026.735	1232.1	353.05
1030.0973	3027.7802	1230.85	350.75
1030.2082	3028.8247	1226.05	346.95
1030.319	3029.8685	1230.15	349.2
1030.4297	3030.9118	1231.5	352.9
1030.5404	3031.9544	1228.6	349.5
1030.6511	3032.9963	1230.05	351
1030.7617	3034.0376	1231	351.75
1030.8723	3035.0783	1233.05	351.2
1030.9829	3036.1184	1238.85	356.6
1031.0934	3037.1578	1227.75	350
1031.2038	3038.1966	1237.45	356.5
1031.3142	3039.2348	1237.6	360.7
1031.4246	3040.2723	1250.9	363.55
1031.5349	3041.3092	1241	363.4
1031.6452	3042.3455	1240.7	363.25
1031.7554	3043.3811	1236.3	355.55
1031.8656	3044.4161	1238.75	359.7
1031.9758	3045.4505	1236.95	359.85
1032.0859	3046.4842	1235.2	353.3
1032.1959	3047.5173	1230.7	354.2
1032.3059	3048.5498	1232	351.05
1032.4159	3049.5816	1231.85	354.4
1032.5258	3050.6128	1231.3	351.8
1032.6357	3051.6434	1226.85	346.9
1032.7455	3052.6734	1227.6	348.2
1032.8553	3053.7027	1223.45	344.1
1032.9651	3054.7314	1216.45	337.95
1033.0748	3055.7594	1213	335.1
1033.1845	3056.7868	1217.75	337.55
1033.2941	3057.8136	1215.25	336.75
1033.4037	3058.8398	1213.2	335.55
1033.5132	3059.8653	1207.9	330.85
1033.6227	3060.8902	1209.05	327.1
1033.7321	3061.9145	1203.8	325.6
1033.8415	3062.9381	1207.1	327.35
1033.9509	3063.9612	1218.1	322.95
1034.0602	3064.9835	1199.5	320.5
1034.1694	3066.0053	1197.1	315.05
1034.2787	3067.0264	1194.95	315.4
1034.3878	3068.0469	1193.15	310.95
1034.497	3069.0668	1185.3	303.35
1034.6061	3070.086	1182.95	304.6
1034.7151	3071.1046	1177.05	299.5
1034.8241	3072.1226	1176.3	296.05
1034.9331	3073.1399	1171.45	293.05
1035.042	3074.1567	1160.95	281.7
1035.1508	3075.1727	1154.65	273.8
1035.2597	3076.1882	1151.8	272.95
1035.3684	3077.203	1142.9	265.55
1035.4772	3078.2173	1141.25	261.2
1035.5859	3079.2308	1140.45	257.5
1035.6945	3080.2438	1132	251.3
1035.8031	3081.2561	1124.5	246.1
1035.9117	3082.2678	1117.1	239.75
1036.0202	3083.2789	1110.45	230.05
1036.1286	3084.2893	1107	227.85
1036.2371	3085.2991	1102.7	223.8
1036.3454	3086.3083	1098.55	215.45
1036.4538	3087.3169	1091.3	209.95
1036.562	3088.3248	1093.5	213.05
1036.6703	3089.3321	1088.7	207.85
1036.7785	3090.3388	1073.5	194.65
1036.8866	3091.3449	1074.55	195.9
1036.9948	3092.3503	1078.25	194.85
1037.1028	3093.3551	1069.8	192.1
1037.2108	3094.3593	1064.75	187.6
1037.3188	3095.3629	1062.35	185.05
1037.4267	3096.3658	1062.55	180.55
1037.5346	3097.3681	1057.55	179.1
1037.6425	3098.3698	1055.9	174.45
1037.7503	3099.3708	1060.25	175.6
1037.858	3100.3713	1052.3	173.9
1037.9657	3101.3711	1049	168.25
1038.0734	3102.3702	1162	165.25
1038.181	3103.3688	1047	166.8
1038.2886	3104.3667	1043	166.4
1038.3961	3105.364	1035	157.6
1038.5036	3106.3607	1041.8	161.4
1038.611	3107.3568	1037.95	157.85
1038.7184	3108.3522	1029.85	153.3
1038.8257	3109.347	1031.95	151.6
1038.933	3110.3412	1034.15	149.35
1039.0403	3111.3348	1025	146.4
1039.1475	3112.3277	1025.7	146.75
1039.2547	3113.32	1020.2	140.35
1039.3618	3114.3117	1026.2	148.85
1039.4689	3115.3028	1019.15	140
1039.5759	3116.2932	1018.35	138.35
1039.6829	3117.2831	1025.1	141.5
1039.7898	3118.2723	1012.95	135.95
1039.8967	3119.2608	1014.9	137.1
1040.0035	3120.2488	1010.35	130.7
1040.1103	3121.2361	1010.1	130.55
1040.2171	3122.2229	1010.7	132.45
1040.3238	3123.209	1007.55	128.75
1040.4305	3124.1944	1004.2	125.45
1040.5371	3125.1793	1005.45	123.85
1040.6437	3126.1635	1001	124.3
1040.7502	3127.1471	1002.15	125.45
1040.8567	3128.1301	999.9	121.45
1040.9631	3129.1125	1001.7	121.95
1041.0695	3130.0942	997.75	118.9
1041.1759	3131.0753	1006.1	119.25
1041.2822	3132.0558	1000.7	119.5
1041.3884	3133.0357	995.75	118.4
1041.4946	3134.015	995.4	114.05
1041.6008	3134.9936	992.7	111.7
1041.7069	3135.9716	1018.75	117.35
1041.813	3136.949	992	114.4
1041.919	3137.9258	1012	115.5
1042.025	3138.902	994.3	107.95
1042.1309	3139.8775	987.5	107.65
1042.2368	3140.8524	987.85	110.2
1042.3427	3141.8267	986.75	107.6
1042.4485	3142.8004	986.05	107.1
1042.5542	3143.7735	989.7	107.35
1042.6599	3144.7459	984.4	103.55
1042.7656	3145.7178	988	109.6
1042.8712	3146.689	982.4	102.55
1042.9768	3147.6596	980.9	100.1
1043.0823	3148.6295	983.2	103.15
1043.1878	3149.5989	983.2	105.1
1043.2932	3150.5676	974.95	98.65
1043.3986	3151.5357	977.05	100.85
1043.5039	3152.5032	979.8	101.85
1043.6092	3153.4701	979.45	101.65
1043.7145	3154.4364	979.1	98.5
1043.8197	3155.402	977.25	100.35
1043.9248	3156.367	977.45	96.75
1044.03	3157.3315	1013.45	95.55
1044.135	3158.2952	975.6	97.25
1044.24	3159.2584	969.45	90.55
1044.345	3160.221	972.85	94.8
1044.4499	3161.1829	971.2	90.65
1044.5548	3162.1442	968.35	89.1
1044.6596	3163.105	971.65	93.05
1044.7644	3164.065	970.1	91.55
1044.8692	3165.0245	971.75	91.3
1044.9739	3165.9834	970.95	94.95
1045.0785	3166.9416	967.5	89.05
1045.1831	3167.8993	965.05	85.9
1045.2877	3168.8563	972.2	92.5
1045.3922	3169.8127	965.7	88.95
1045.4966	3170.7684	964.9	85.25
1045.6011	3171.7236	962.6	83.4
1045.7054	3172.6782	959.95	81.25
1045.8098	3173.6321	960.45	81.9
1045.914	3174.5854	964.85	83.2
1046.0183	3175.5381	963.65	86.4
1046.1224	3176.4902	959.95	83.55
1046.2266	3177.4417	961.45	81.9
1046.3307	3178.3926	959.6	82.15
1046.4347	3179.3428	957.55	81.15
1046.5387	3180.2924	960.75	82.7
1046.6427	3181.2415	960.95	81.7
1046.7466	3182.1899	959.85	79.45
1046.8504	3183.1377	958.25	82
1046.9542	3184.0848	960.85	80.65
1047.058	3185.0314	960.55	83.15
1047.1617	3185.9773	954.9	75.4
1047.2654	3186.9227	956.2	78.35
1047.369	3187.8674	951.8	73.9
1047.4726	3188.8115	958.5	76.4
1047.5761	3189.755	954.15	75.85
1047.6796	3190.6979	954.35	75.15
1047.783	3191.6402	953.25	76.9
1047.8864	3192.5818	951.45	74.65
1047.9898	3193.5229	960.45	76.75
1048.0931	3194.4633	954.05	76.35
1048.1963	3195.4031	951.15	71.45
1048.2995	3196.3423	950.55	72.35
1048.4027	3197.2809	950.95	74.15
1048.5058	3198.2189	951.95	75.4
1048.6089	3199.1563	967.3	70.5
1048.7119	3200.0931	947.5	68.85
1048.8148	3201.0292	946.8	69.7
1048.9178	3201.9648	948.2	68.55
1049.0206	3202.8997	947.95	67.7
1049.1235	3203.834	947.6	68.35
1049.2262	3204.7677	944.6	65.45
1049.329	3205.7008	948.85	70.45
1049.4317	3206.6333	945.65	69
1049.5343	3207.5652	948.45	70.2
1049.6369	3208.4964	945.75	67
1049.7394	3209.4271	941.95	64.4
1049.8419	3210.3571	945.6	68.4
1049.9444	3211.2865	945.85	65.7
1050.0468	3212.2154	945.8	67.2
1050.1491	3213.1436	943.95	62.85
1050.2514	3214.0712	948.95	63.9
1050.3537	3214.9982	940.05	62.25
1050.4559	3215.9246	942.25	65.65
1050.5581	3216.8503	939.7	62.45
1050.6602	3217.7755	941	63.6
1050.7623	3218.7001	941.05	64.6
1050.8643	3219.624	939.95	59.15
1050.9663	3220.5473	942.2	64.8
1051.0682	3221.4701	940.9	60.2
1051.1701	3222.3922	942.6	64.5
1051.2719	3223.3137	939.45	60.4
1051.3737	3224.2346	938.9	60.75
1051.4754	3225.1549	936.8	59.8
1051.5771	3226.0746	936.3	58.95
1051.6788	3226.9937	937.6	59.1
1051.7804	3227.9121	936.7	60.6
1051.8819	3228.83	934.65	57
1051.9834	3229.7473	937.2	59.75
1052.0849	3230.6639	937.3	59.9
1052.1863	3231.5799	936.8	58.4
1052.2876	3232.4954	934.35	55.35
1052.3889	3233.4102	933.75	54.95
1052.4902	3234.3244	932.35	54.35
1052.5914	3235.238	933.6	56.55
1052.6926	3236.151	956.15	54.65
1052.7937	3237.0634	932.15	56.6
1052.8948	3237.9752	931.75	53.95
1052.9958	3238.8864	935.3	57.4
1053.0968	3239.797	933.6	54.5
1053.1977	3240.7069	931.35	52.75
1053.2986	3241.6163	934.05	53.65
1053.3994	3242.5251	927.8	50.4
1053.5002	3243.4332	928.2	51.4
1053.6009	3244.3408	933.45	54.9
1053.7016	3245.2477	929.25	53
1053.8022	3246.154	930.75	51.1
1053.9028	3247.0598	930.9	54.3
1054.0034	3247.9649	929.1	52.2
1054.1039	3248.8694	928.45	52.2
1054.2043	3249.7733	924.2	45.45
1054.3047	3250.6766	925.75	46.75
1054.4051	3251.5793	926.9	48.1
1054.5054	3252.4814	925.2	48.7
1054.6056	3253.3829	924.45	47.7
1054.7058	3254.2838	927.85	50.4
1054.806	3255.1841	924.15	48.1
1054.9061	3256.0838	926.3	48.7
1055.0061	3256.9829	923.8	47.55
1055.1062	3257.8814	922.1	43.25
1055.2061	3258.7792	925.25	44.3
1055.306	3259.6765	926.45	48.7
1055.4059	3260.5731	918.2	41.3
1055.5057	3261.4692	922.3	44.05
1055.6055	3262.3647	924.9	45.5
1055.7052	3263.2595	917.9	39.65
1055.8049	3264.1538	918.95	41.45
1055.9045	3265.0474	918.4	40.4
1056.0041	3265.9404	916.6	40.25
1056.1036	3266.8329	918.4	41.6
1056.2031	3267.7247	925.8	38.3
1056.3025	3268.616	913.7	38.15
1056.4019	3269.5066	915.85	38.7
1056.5013	3270.3966	914.9	36.5
1056.6005	3271.286	911.9	35.45
