Software Version:	3.9.2.0
Unit SN:	10000200
Spectrometer SN:	6960
Date:	3/8/2024 12:15:37 PM
Data Line Index:	25
Spectral Points:	2048
Integration time (ms):	125
Averages:	20
Delay (ms):	30000
Sequence Number:	1
Processing:	dark subtract
Laser Power (mW):	305
Laser Current (mA):	822
Laser Diode Temp (C):	25.1
Laser Case Temp (C):	25.6
System Temp (C):	25.7
Spectrometer Temp (C):	23.5
CCD Temp (C):	0.009
Secondary Temp (C):	20.014
Heatsink Temp (C):	20.208
CCDPCB Temp (C):	35.751
SecondaryPCB Temp (C):	28.026

Wavelength	RamanShift	Raw Counts	Dark Subtracted
787.061	30.1047	429.65	19.2
787.2016	32.3739	428.95	21.8
787.3422	34.6426	430.95	22.75
787.4828	36.9109	437.05	26.25
787.6235	39.1787	439.4	24.75
787.7642	41.4461	448.4	29.65
787.9049	43.7131	455.3	34.2
788.0456	45.9796	459.35	35.85
788.1863	48.2456	467.45	39.9
788.3271	50.5112	474.15	40.65
788.4679	52.7764	480.9	47.25
788.6087	55.0411	489.25	48.6
788.7496	57.3054	495.75	51.8
788.8904	59.5692	499.6	52.55
789.0313	61.8326	506.7	58.1
789.1722	64.0955	515.4	63.85
789.3132	66.3579	522.4	64.45
789.4541	68.6199	540.05	77.7
789.5951	70.8815	561.95	94.65
789.7361	73.1426	609	138.7
789.8771	75.4032	731.8	258.25
790.0181	77.6634	1023.5	546.55
790.1592	79.9231	1705.45	1222.25
790.3003	82.1824	3150.4	2656.8
790.4414	84.4412	5679.2	5165.2
790.5825	86.6995	8990.55	8454
790.7237	88.9574	12152.05	11596.4
790.8648	91.2148	14280.2	13711.8
791.006	93.4717	15165.65	14587.2
791.1472	95.7282	15197.35	14612
791.2885	97.9842	14986.25	14399.15
791.4297	100.2398	14489.7	13897.25
791.571	102.4949	13971	13379.7
791.7123	104.7495	13400.95	12803.35
791.8536	107.0036	12840.35	12240.25
791.9949	109.2573	12317.1	11724.35
792.1363	111.5105	11867.75	11267
792.2777	113.7632	11458.7	10862.1
792.4191	116.0154	11127.4	10514.65
792.5605	118.2672	10877.15	10273.05
792.7019	120.5185	10634.5	10026.5
792.8434	122.7693	10464.4	9855.8
792.9849	125.0197	10278.9	9660.95
793.1264	127.2696	10129.2	9508.55
793.2679	129.519	10030.15	9405.7
793.4094	131.7679	9860.05	9235.15
793.551	134.0163	9689.35	9059.35
793.6926	136.2642	9469.65	8841.4
793.8342	138.5117	9224.05	8582.2
793.9758	140.7587	8982.8	8348.8
794.1175	143.0052	8798.1	8161.35
794.2591	145.2512	8548.45	7908.8
794.4008	147.4967	8341.25	7703.25
794.5425	149.7417	8198.9	7556.15
794.6842	151.9863	8065.15	7417.55
794.826	154.2304	7992.05	7343.55
794.9677	156.4739	7926.95	7273.55
795.1095	158.717	7842.85	7186.6
795.2513	160.9596	7760.75	7097.2
795.3931	163.2017	7629.15	6968.85
795.535	165.4433	7481.25	6816.2
795.6768	167.6844	7293.15	6622.95
795.8187	169.925	7130.7	6460.75
795.9606	172.1651	6913.1	6241.7
796.1025	174.4047	6763.3	6086.25
796.2445	176.6439	6619.8	5947.65
796.3864	178.8825	6480.75	5804.05
796.5284	181.1206	6416.2	5735.05
796.6704	183.3582	6350.85	5663.1
796.8124	185.5954	6297.8	5607.75
796.9544	187.832	6263.35	5570.05
797.0965	190.0681	6247.45	5551.4
797.2386	192.3037	6216.9	5515.3
797.3806	194.5388	6226.2	5525.6
797.5228	196.7734	6226	5522.3
797.6649	199.0075	6269.8	5566.95
797.807	201.2411	6339.3	5632.65
797.9492	203.4742	6375.2	5665.95
798.0914	205.7068	6460.4	5745.15
798.2336	207.9389	6535.55	5821.45
798.3758	210.1704	6617.9	5910.25
798.518	212.4015	6690.15	5992.35
798.6603	214.632	6746.35	6054.75
798.8025	216.862	6822.2	6132.75
798.9448	219.0915	6873.25	6179.9
799.0871	221.3205	6914.75	6223.1
799.2294	223.549	6950.7	6259.15
799.3718	225.777	6977.9	6284.4
799.5141	228.0044	6971.9	6269.35
799.6565	230.2314	6988.6	6290.6
799.7989	232.4578	7019.6	6317.95
799.9413	234.6837	7038.35	6327.1
800.0837	236.909	7067.6	6353.35
800.2262	239.1339	7070.3	6330.95
800.3687	241.3582	7025.85	6302.65
800.5111	243.582	7015.4	6261.25
800.6536	245.8053	6990.6	6248.75
800.7961	248.0281	6969.3	6233.35
800.9387	250.2503	6998.3	6257.5
801.0812	252.472	7039.75	6298.65
801.2238	254.6932	7114.95	6375.4
801.3664	256.9139	7189.55	6444.95
801.509	259.134	7297.65	6550.9
801.6516	261.3536	7454.25	6711.25
801.7942	263.5727	7659.6	6911.5
801.9369	265.7912	7859.75	7112.95
802.0795	268.0092	8060.85	7316.55
802.2222	270.2267	8234.05	7488.1
802.3649	272.4436	8365.65	7617.05
802.5076	274.6601	8416.8	7659
802.6504	276.8759	8414.7	7658.55
802.7931	279.0913	8396.25	7641.65
802.9359	281.3061	8320.65	7562.95
803.0787	283.5204	8284.2	7523.85
803.2215	285.7341	8283.9	7521.4
803.3643	287.9473	8277.3	7514.65
803.5071	290.16	8271.9	7505.7
803.6499	292.3721	8274.3	7514.4
803.7928	294.5837	8324.4	7561.5
803.9357	296.7947	8392.65	7631.1
804.0786	299.0052	8488.65	7723.15
804.2215	301.2152	8516.5	7751.75
804.3644	303.4246	8494.2	7731.1
804.5074	305.6334	8328.15	7567.7
804.6503	307.8418	8152.25	7385.75
804.7933	310.0495	7923	7154.4
804.9363	312.2568	7657.8	6890.6
805.0793	314.4635	7409.9	6639.25
805.2223	316.6696	7182	6411.6
805.3653	318.8752	7026.55	6245.65
805.5084	321.0802	6913.6	6139
805.6514	323.2847	6913.35	6133.8
805.7945	325.4887	6942.5	6167.55
805.9376	327.692	6975.95	6196.2
806.0807	329.8949	6979.3	6199.8
806.2238	332.0972	6923	6143.8
806.367	334.2989	6817.65	6031.9
806.5101	336.5001	6689.3	5906.2
806.6533	338.7007	6564.85	5780.35
806.7965	340.9008	6451.9	5664.8
806.9397	343.1003	6347.9	5559.7
807.0829	345.2992	6227.8	5440.95
807.2261	347.4976	6164.1	5373.95
807.3693	349.6955	6099.35	5304.45
807.5126	351.8927	6067.45	5271.4
807.6559	354.0895	6018.45	5211.2
807.7991	356.2856	5981	5185.95
807.9424	358.4812	5945.05	5151.95
808.0857	360.6763	5910.6	5111
808.2291	362.8707	5922.7	5119.35
808.3724	365.0646	5924.9	5122
808.5158	367.258	5949.7	5147.1
808.6591	369.4508	6008.85	5204
808.8025	371.643	6082.5	5274
808.9459	373.8346	6164.75	5356
809.0893	376.0257	6252.45	5442.5
809.2327	378.2162	6318.2	5504.2
809.3762	380.4062	6319.6	5510.65
809.5196	382.5956	6268	5456.25
809.6631	384.7844	6185.1	5378.2
809.8066	386.9726	6095.75	5290.45
809.9501	389.1603	6032.75	5231.95
810.0936	391.3474	6024.05	5185.15
810.2371	393.5339	5985.2	5179.45
810.3806	395.7199	5963.6	5160.4
810.5241	397.9052	6014.4	5215
810.6677	400.09	6083.75	5277.3
810.8113	402.2743	6210.1	5402.1
810.9548	404.4579	6315.75	5508.2
811.0984	406.641	6431.4	5622.35
811.2421	408.8235	6540.95	5733.5
811.3857	411.0054	6636.4	5824.45
811.5293	413.1868	6688.9	5874.9
811.673	415.3675	6703.2	5882.6
811.8166	417.5477	6690.6	5873
811.9603	419.7273	6596.35	5772.95
812.104	421.9064	6569.75	5745.85
812.2477	424.0848	6523.4	5702.75
812.3914	426.2627	6420.8	5599.35
812.5351	428.4399	6283.8	5457.7
812.6788	430.6166	6111.3	5282.5
812.8226	432.7928	5908.15	5078.55
812.9663	434.9683	5756.65	4929.65
813.1101	437.1432	5613.6	4787.25
813.2539	439.3176	5517.3	4695.65
813.3977	441.4914	5452.95	4631.05
813.5415	443.6645	5432.25	4605.05
813.6853	445.8371	5410.55	4581.75
813.8291	448.0091	5405.05	4580.25
813.973	450.1806	5399.1	4573.95
814.1168	452.3514	5397.75	4570.8
814.2607	454.5216	5444	4608.3
814.4046	456.6913	5422.4	4590.85
814.5485	458.8603	5439.05	4609.25
814.6924	461.0288	5472.9	4645.7
814.8363	463.1967	5450.55	4623.9
814.9802	465.3639	5469.2	4641.9
815.1241	467.5306	5430.4	4601.2
815.2681	469.6967	5438.75	4610.6
815.412	471.8622	5429.55	4601.85
815.556	474.0271	5428.25	4600.55
815.7	476.1914	5438.15	4606.05
815.844	478.3551	5467.3	4633.7
815.988	480.5182	5480.9	4651.8
816.132	482.6807	5531.4	4702.55
816.276	484.8426	5657.7	4834.4
816.4201	487.0039	5879.25	5051.7
816.5641	489.1647	6088.1	5254
816.7082	491.3248	6262.4	5428.4
816.8522	493.4843	6321.4	5489.4
816.9963	495.6432	6269.35	5436.75
817.1404	497.8015	6192.5	5352.6
817.2845	499.9592	6084.05	5242.7
817.4286	502.1163	5935.3	5092.4
817.5727	504.2728	5767.65	4928.65
817.7168	506.4287	5621.05	4789.2
817.861	508.5839	5459.25	4625.3
818.0051	510.7386	5360.8	4522.5
818.1493	512.8927	5311.65	4467.8
818.2935	515.0461	5326.5	4486.6
818.4377	517.199	5397.3	4554.3
818.5818	519.3512	5534.1	4689.05
818.726	521.5029	5721.5	4872.9
818.8703	523.6539	5888.7	5044.05
819.0145	525.8043	5972.35	5123.95
819.1587	527.9541	5928.2	5081.1
819.303	530.1033	5771.2	4924.25
819.4472	532.2519	5626.05	4779
819.5915	534.3999	5566.75	4720.8
819.7357	536.5472	5566.1	4719.95
819.88	538.694	5634.15	4787
820.0243	540.8401	5753.85	4905
820.1686	542.9856	5834.35	4981
820.3129	545.1305	5851.2	4995.9
820.4572	547.2748	5827.7	4972.6
820.6016	549.4185	5757.75	4897.9
820.7459	551.5615	5734.3	4878.1
820.8902	553.704	5748.3	4889.6
821.0346	555.8458	5830.9	4976.75
821.1789	557.987	5934.6	5082.2
821.3233	560.1276	6084	5229.45
821.4677	562.2675	6333.85	5477.65
821.6121	564.4069	6690.8	5837
821.7565	566.5456	7046.35	6192.4
821.9009	568.6837	7169.7	6318
822.0453	570.8212	6949.85	6096.8
822.1897	572.958	6508.8	5653.35
822.3342	575.0942	6077.55	5228.15
822.4786	577.2299	5784	4936.3
822.6231	579.3648	5626.9	4783.8
822.7675	581.4992	5559.75	4721
822.912	583.6329	5608.75	4768.3
823.0565	585.766	5695.15	4854.05
823.201	587.8985	5807.6	4961.1
823.3454	590.0304	5897.7	5021.2
823.4899	592.1616	5907.35	5045.5
823.6345	594.2922	5856.95	4997
823.779	596.4222	5712.75	4852.15
823.9235	598.5515	5585.5	4724.15
824.068	600.6802	5470.95	4610.6
824.2126	602.8083	5378.35	4519.35
824.3571	604.9358	5365.2	4504.35
824.5017	607.0626	5388.35	4524.7
824.6462	609.1888	5485.55	4618.95
824.7908	611.3144	5601.35	4734.55
824.9354	613.4393	5706.4	4840.35
825.08	615.5636	5812.6	4947.9
825.2246	617.6873	5868.5	5002.3
825.3692	619.8103	5840.3	4974.7
825.5138	621.9327	5710.2	4842.9
825.6584	624.0544	5560.1	4697.35
825.803	626.1756	5417.65	4556.8
825.9477	628.2961	5316.8	4450.4
826.0923	630.4159	5277.25	4413.1
826.237	632.5351	5260.5	4394.15
826.3816	634.6537	5256.95	4387.7
826.5263	636.7716	5259.4	4386.7
826.6709	638.8889	5283.4	4409.25
826.8156	641.0056	5286.7	4416.75
826.9603	643.1216	5266.75	4392.85
827.105	645.237	5260.3	4389
827.2497	647.3518	5198.6	4331.8
827.3944	649.4659	5130.15	4263.65
827.5391	651.5793	5087.9	4221.9
827.6838	653.6922	5061.9	4196.75
827.8285	655.8043	5064	4198.05
827.9733	657.9159	5072.75	4206.55
828.118	660.0268	5049.95	4180.8
828.2627	662.137	5046.55	4176.6
828.4075	664.2466	5078.1	4205.9
828.5522	666.3556	5066.8	4193.45
828.697	668.4639	5033.2	4161.1
828.8418	670.5716	5007.8	4141.55
828.9865	672.6786	4957.55	4084.75
829.1313	674.785	4922.8	4047.45
829.2761	676.8907	4902.15	4029.8
829.4209	678.9958	4882.9	4012.95
829.5657	681.1002	4865.25	3991.4
829.7105	683.204	4882.15	4001.9
829.8553	685.3072	4864.05	3988.55
830.0001	687.4097	4846.85	3968.85
830.1449	689.5115	4862.85	3986
830.2898	691.6127	4866.75	3991
830.4346	693.7132	4864.25	3989.5
830.5794	695.8131	4874.75	3982.6
830.7243	697.9123	4896.3	4016.7
830.8691	700.0109	4928.95	4050.8
831.014	702.1089	4949.8	4070.6
831.1588	704.2061	5004.7	4125.4
831.3037	706.3028	5072.2	4193.8
831.4486	708.3987	5112.1	4233.55
831.5935	710.4941	5122.8	4243.7
831.7383	712.5887	5133	4255.15
831.8832	714.6827	5142.3	4259.9
832.0281	716.7761	5172.6	4297.4
832.173	718.8688	5232.85	4353.2
832.3179	720.9608	5314.85	4430.35
832.4628	723.0522	5390.75	4505.3
832.6077	725.1429	5462.7	4581.7
832.7527	727.233	5573.35	4693.7
832.8976	729.3224	5645.55	4764.45
833.0425	731.4112	5668.15	4786.15
833.1874	733.4993	5586.15	4701.9
833.3324	735.5867	5436.8	4553.95
833.4773	737.6735	5281.65	4397.85
833.6222	739.7596	5158.35	4275.25
833.7672	741.845	5057.75	4176.2
833.9122	743.9298	5026.9	4142.4
834.0571	746.014	4993.3	4111.05
834.2021	748.0974	4985.85	4095.35
834.347	750.1802	4985.05	4097.7
834.492	752.2624	4982.95	4099
834.637	754.3439	5022.4	4132.55
834.782	756.4247	5085.05	4189.25
834.9269	758.5048	5161.95	4278
835.0719	760.5843	5309.75	4422.5
835.2169	762.6631	5538.3	4652.4
835.3619	764.7413	5851.55	4964.1
835.5069	766.8188	6263.55	5373.7
835.6519	768.8956	6691.2	5802.55
835.7969	770.9718	6962	6074.55
835.9419	773.0473	6969.65	6084.95
836.0869	775.1221	6871.3	5987.95
836.232	777.1962	6720.2	5833.05
836.377	779.2697	6719.1	5829.75
836.522	781.3426	6814.35	5906.15
836.667	783.4147	6909.8	6019.2
836.8121	785.4862	6910.25	6022.55
836.9571	787.557	6753	5863.35
837.1021	789.6271	6439.35	5549.2
837.2472	791.6966	6045.35	5153.35
837.3922	793.7654	5648.5	4756.9
837.5373	795.8335	5376.7	4485.1
837.6823	797.901	5189.1	4300.05
837.8274	799.9678	5073.75	4180.75
837.9724	802.0339	4998	4109.6
838.1175	804.0993	4984.15	4080.45
838.2626	806.1641	4947.85	4055.9
838.4076	808.2282	4896.55	4005.4
838.5527	810.2916	4852.5	3959.35
838.6978	812.3544	4813.7	3925.15
838.8428	814.4164	4765.15	3877.6
838.9879	816.4778	4787.15	3894.2
839.133	818.5385	4798.75	3903.3
839.2781	820.5986	4909.4	4016.6
839.4232	822.658	5049.9	4155.65
839.5682	824.7166	5250.4	4359.35
839.7133	826.7747	5604.8	4712.3
839.8584	828.832	5980.15	5089.2
840.0035	830.8886	6310.45	5417.9
840.1486	832.9446	6433.9	5542
840.2937	834.9999	6392.4	5501.5
840.4388	837.0545	6150.55	5252.85
840.5839	839.1085	5898.1	5001.7
840.729	841.1618	5629	4728.7
840.8741	843.2143	5438.4	4546.3
841.0192	845.2662	5305	4411.55
841.1643	847.3175	5213.85	4319.6
841.3095	849.368	5142.45	4245.7
841.4546	851.4179	5096.05	4198.05
841.5997	853.467	5049	4157.85
841.7448	855.5155	5026.1	4130.65
841.8899	857.5633	4989.6	4095.45
842.0351	859.6105	4936.25	4043.65
842.1802	861.6569	4876.95	3982.45
842.3253	863.7027	4853.05	3953.45
842.4704	865.7478	4812	3913.4
842.6156	867.7922	4764.9	3868.7
842.7607	869.8359	4756.45	3858.05
842.9058	871.8789	4769.85	3871.6
843.0509	873.9212	4815.1	3887.15
843.1961	875.9629	4832.15	3932.45
843.3412	878.0039	4890	3993.95
843.4863	880.0441	4914.75	4018.1
843.6315	882.0837	4981.6	4084.15
843.7766	884.1226	5010.5	4109.65
843.9218	886.1609	5097.5	4203
844.0669	888.1984	5187	4290.55
844.212	890.2352	5294.1	4397.55
844.3572	892.2714	5348.8	4448.95
844.5023	894.3069	5308.25	4410.6
844.6475	896.3416	5207.15	4307.05
844.7926	898.3757	5073	4174.5
844.9377	900.4091	4992.75	4093.1
845.0829	902.4418	4974.15	4066.5
845.228	904.4739	4992.35	4092.75
845.3732	906.5052	5051.25	4148.95
845.5183	908.5358	5044.35	4146.9
845.6635	910.5658	4990.5	4086.8
845.8086	912.595	4837.25	3935.75
845.9538	914.6236	4714.75	3815.8
846.0989	916.6515	4628.6	3727
846.2441	918.6786	4554.3	3653.75
846.3892	920.7051	4543.9	3642.75
846.5344	922.7309	4560.85	3660.8
846.6795	924.756	4562	3661.15
846.8246	926.7804	4614.2	3709.9
846.9698	928.8041	4619.55	3715.25
847.1149	930.8272	4650.65	3746.45
847.2601	932.8495	4638.7	3736.35
847.4052	934.8711	4648.8	3747.2
847.5504	936.892	4638.45	3738.65
847.6955	938.9123	4675.8	3771.95
847.8407	940.9318	4721.35	3820.95
847.9858	942.9506	4741.55	3838.85
848.131	944.9688	4715.55	3815.75
848.2761	946.9862	4667.65	3766.05
848.4213	949.003	4559.75	3659.55
848.5664	951.019	4484.25	3584.3
848.7115	953.0344	4431.4	3533.6
848.8567	955.0491	4410.85	3507.65
849.0018	957.063	4414.95	3512.45
849.147	959.0763	4459.9	3559.8
849.2921	961.0888	4478.85	3574.2
849.4373	963.1007	4490.2	3590.75
849.5824	965.1119	4493.9	3596.3
849.7275	967.1223	4493.65	3600.65
849.8727	969.1321	4480.65	3587.3
850.0178	971.1412	4455.45	3562.8
850.1629	973.1495	4443.5	3543.45
850.3081	975.1572	4480.2	3543.8
850.4532	977.1641	4485.9	3580.9
850.5983	979.1704	4449.25	3543.2
850.7435	981.1759	4443.2	3537.5
850.8886	983.1808	4447.7	3543.85
851.0337	985.1849	4436.85	3523.75
851.1788	987.1884	4459.4	3554.2
851.324	989.1911	4496.9	3593
851.4691	991.1932	4529.4	3625.05
851.6142	993.1945	4543.65	3641.9
851.7593	995.1951	4539	3636.5
851.9045	997.1951	4524.8	3616.3
852.0496	999.1943	4504.55	3601.25
852.1947	1001.1928	4509	3605.2
852.3398	1003.1906	4537.65	3633.7
852.4849	1005.1877	4642.05	3737.3
852.63	1007.1841	4706.45	3804.45
852.7751	1009.1798	4745.35	3845.2
852.9202	1011.1748	4722.9	3818.85
853.0653	1013.1691	4652.25	3745.5
853.2104	1015.1627	4515.35	3614.8
853.3555	1017.1556	4412.35	3511.5
853.5006	1019.1477	4350.6	3446.85
853.6457	1021.1392	4277.65	3377.3
853.7908	1023.1299	4264.7	3365.95
853.9359	1025.12	4245.65	3351.1
854.081	1027.1093	4293.9	3406.95
854.2261	1029.0979	4354	3467.55
854.3712	1031.0859	4428	3537.7
854.5163	1033.0731	4476.8	3579.4
854.6613	1035.0596	4458.25	3560.1
854.8064	1037.0454	4396.85	3495.95
854.9515	1039.0304	4348.25	3446.4
855.0965	1041.0148	4294.8	3395.5
855.2416	1042.9985	4228.35	3324.85
855.3867	1044.9814	4201.45	3302.55
855.5317	1046.9636	4171.35	3268.85
855.6768	1048.9452	4168.8	3265.65
855.8219	1050.926	4199.45	3298.6
855.9669	1052.9061	4237.3	3339.25
856.112	1054.8855	4253.85	3352.3
856.257	1056.8642	4266.25	3364
856.4021	1058.8421	4308.8	3402.1
856.5471	1060.8194	4316.65	3414.95
856.6921	1062.7959	4324.25	3419.9
856.8372	1064.7717	4364.6	3458.85
856.9822	1066.7469	4418.7	3513.2
857.1272	1068.7213	4487.75	3584.3
857.2723	1070.695	4543.35	3640.35
857.4173	1072.6679	4593.3	3689.15
857.5623	1074.6402	4610.5	3707.85
857.7073	1076.6117	4620.15	3710.2
857.8523	1078.5826	4524.1	3617.8
857.9973	1080.5527	4442.65	3535.35
858.1423	1082.5221	4341.75	3437.4
858.2873	1084.4908	4279.5	3375.8
858.4323	1086.4587	4264.3	3359.6
858.5773	1088.426	4255.2	3349.15
858.7223	1090.3925	4282.05	3373.2
858.8673	1092.3584	4306.95	3404.55
859.0123	1094.3235	4326.4	3423.9
859.1573	1096.2879	4396.85	3493.8
859.3022	1098.2515	4493.45	3591.8
859.4472	1100.2145	4626.95	3724.65
859.5922	1102.1767	4722.25	3819.8
859.7371	1104.1382	4874.75	3971.3
859.8821	1106.099	5057.75	4153.85
860.027	1108.0591	5201.5	4299.3
860.172	1110.0185	5314.55	4410.5
860.3169	1111.9771	5355.5	4452.75
860.4619	1113.9351	5349.25	4445.7
860.6068	1115.8923	5322.2	4418.2
860.7517	1117.8488	5285.45	4381.75
860.8967	1119.8045	5165.85	4262.4
861.0416	1121.7596	5051.15	4149.45
861.1865	1123.7139	4919.45	4017.45
861.3314	1125.6675	4868.75	3965.35
861.4763	1127.6204	4888.25	3983.7
861.6212	1129.5726	4881.95	3976.1
861.7661	1131.524	4856.2	3951.65
861.911	1133.4748	4752.9	3851.4
862.0559	1135.4248	4626.9	3724
862.2008	1137.3741	4494.95	3592.95
862.3457	1139.3226	4416.6	3512.6
862.4905	1141.2705	4377.3	3473.85
862.6354	1143.2176	4357.85	3449.35
862.7803	1145.164	4321.95	3417
862.9251	1147.1097	4273.4	3373.2
863.07	1149.0546	4205.3	3300.15
863.2148	1150.9989	4137.15	3234.3
863.3597	1152.9424	4083.3	3179.9
863.5045	1154.8852	4034.95	3130.35
863.6493	1156.8272	4020.5	3115.8
863.7942	1158.7686	4042.7	3132.55
863.939	1160.7092	4037.75	3133.25
864.0838	1162.6491	4068.25	3161.65
864.2286	1164.5883	4120.85	3220.3
864.3734	1166.5267	4203.3	3297.6
864.5182	1168.4644	4305.5	3401.75
864.663	1170.4014	4425.6	3520.95
864.8078	1172.3377	4553.15	3653.15
864.9526	1174.2732	4749.3	3848.5
865.0974	1176.2081	5024.55	4120.75
865.2421	1178.1421	5362.7	4457.4
865.3869	1180.0755	5752.2	4851.85
865.5317	1182.0082	6014.55	5112.6
865.6764	1183.9401	6151.6	5251.1
865.8212	1185.8713	6059.35	5160.4
865.9659	1187.8017	5794.95	4898.55
866.1106	1189.7315	5509.1	4618.7
866.2554	1191.6605	5231.35	4338.35
866.4001	1193.5888	5018.75	4126.25
866.5448	1195.5163	4904.85	4009.55
866.6895	1197.4432	4834.1	3934.3
866.8342	1199.3693	4791.7	3890.5
866.9789	1201.2947	4757.05	3855.15
867.1236	1203.2193	4729.65	3826.5
867.2683	1205.1432	4716.55	3812.2
867.413	1207.0664	4696.5	3795.9
867.5576	1208.9889	4675.1	3772.55
867.7023	1210.9106	4681.75	3780.85
867.847	1212.8316	4691.75	3794.1
867.9916	1214.7519	4724.1	3815.4
868.1363	1216.6715	4756.65	3854.5
868.2809	1218.5903	4807.3	3907.35
868.4255	1220.5084	4869.8	3967.65
868.5701	1222.4257	4945.55	4046
868.7148	1224.3424	4993.3	4093.1
868.8594	1226.2583	5092.65	4186.35
869.004	1228.1735	5207.35	4304.6
869.1486	1230.0879	5332.6	4431.75
869.2932	1232.0016	5477.6	4579
869.4377	1233.9146	5618.95	4715.5
869.5823	1235.8269	5654.2	4753.15
869.7269	1237.7384	5659.8	4758.15
869.8715	1239.6492	5606.25	4705.35
870.016	1241.5592	5604.8	4701.95
870.1606	1243.4686	5673	4774.1
870.3051	1245.3772	5836.85	4938.35
870.4496	1247.285	6044.15	5143.5
870.5941	1249.1922	6220.8	5318.8
870.7387	1251.0986	6390.15	5490.1
870.8832	1253.0042	6525.45	5624.7
871.0277	1254.9092	6642.5	5739.8
871.1722	1256.8134	6726.7	5828.85
871.3167	1258.7169	6833.65	5934.05
871.4611	1260.6196	6891.95	5992.9
871.6056	1262.5216	7040.3	6139.25
871.7501	1264.4229	7115.45	6215.9
871.8945	1266.3234	7236.65	6335.85
872.039	1268.2232	7322	6418.5
872.1834	1270.1223	7359.25	6456.95
872.3278	1272.0207	7378.2	6476
872.4723	1273.9183	7386.4	6480.05
872.6167	1275.8151	7331.15	6432
872.7611	1277.7113	7346.2	6444.7
872.9055	1279.6067	7436.2	6537.1
873.0499	1281.5014	7669.2	6764.5
873.1943	1283.3953	8039.9	7136.4
873.3386	1285.2885	8506.75	7603.9
873.483	1287.181	8993.15	8091.15
873.6274	1289.0727	9439.15	8540.4
873.7717	1290.9637	9756.35	8854.9
873.9161	1292.854	9954.1	9053.4
874.0604	1294.7435	9938.1	9038
874.2047	1296.6323	9794.75	8894.9
874.349	1298.5204	9581.05	8677.2
874.4933	1300.4077	9305.4	8403.05
874.6376	1302.2943	9028.75	8125.55
874.7819	1304.1802	8745.95	7844.95
874.9262	1306.0653	8339.1	7436.15
875.0705	1307.9497	7958.85	7057.5
875.2147	1309.8333	7634.5	6735.5
875.359	1311.7162	7382.6	6480.25
875.5032	1313.5984	7232.4	6330.05
875.6475	1315.4798	7121.9	6206.9
875.7917	1317.3605	7048.25	6128.75
875.9359	1319.2405	6967.4	6063.75
876.0801	1321.1197	6779.45	5876.85
876.2243	1322.9982	6559.2	5653.75
876.3685	1324.876	6314.3	5413.45
876.5127	1326.753	6075.05	5174.1
876.6569	1328.6293	5866.1	4965.85
876.801	1330.5048	5685.8	4779.3
876.9452	1332.3796	5529.15	4628.15
877.0893	1334.2537	5437.6	4511.75
877.2335	1336.127	5322.8	4422.25
877.3776	1337.9996	5273	4374.05
877.5217	1339.8714	5242.8	4341.2
877.6658	1341.7426	5274.4	4328.55
877.8099	1343.6129	5263.95	4363.3
877.954	1345.4826	5241.4	4339.95
878.0981	1347.3515	5234.75	4330.9
878.2422	1349.2196	5236.9	4337.55
878.3862	1351.087	5239.2	4339.85
878.5303	1352.9537	5251.3	4347.55
878.6743	1354.8197	5297.65	4394.2
878.8184	1356.6849	5406.1	4501.9
878.9624	1358.5493	5494.5	4592
879.1064	1360.4131	5648.05	4747.6
879.2504	1362.276	5767.95	4867.2
879.3944	1364.1383	5841.8	4941.8
879.5384	1365.9998	5798.5	4893.8
879.6823	1367.8606	5639.6	4735.65
879.8263	1369.7206	5440.95	4536.75
879.9702	1371.5799	5258.2	4354.3
880.1142	1373.4384	5121.25	4220.45
880.2581	1375.2962	4974.45	4072.55
880.402	1377.1533	4770.6	3869.05
880.5459	1379.0096	4561.2	3662.35
880.6898	1380.8652	4345.1	3445.95
880.8337	1382.7201	4180.35	3282.2
880.9776	1384.5742	4059.65	3157.9
881.1215	1386.4275	3944.1	3041
881.2653	1388.2802	3864.8	2964.1
881.4092	1390.132	3807.25	2907.75
881.553	1391.9832	3759.6	2855.55
881.6968	1393.8336	3713.85	2811.3
881.8406	1395.6832	3696.55	2794.5
881.9844	1397.5322	3678.95	2777.9
882.1282	1399.3803	3650.4	2744.8
882.272	1401.2278	3628.6	2724.35
882.4158	1403.0745	3619.75	2719.75
882.5595	1404.9204	3595.45	2692.6
882.7033	1406.7656	3609.95	2710.6
882.847	1408.6101	3615.75	2715.3
882.9908	1410.4538	3634.9	2730.85
883.1345	1412.2968	3637.85	2736.6
883.2782	1414.139	3662.8	2763.8
883.4219	1415.9805	3710.2	2810.7
883.5656	1417.8213	3736.35	2831.6
883.7092	1419.6613	3794.1	2892.5
883.8529	1421.5006	3876.25	2976.3
883.9965	1423.3391	4002.4	3104.15
884.1402	1425.1769	4178.55	3276.45
884.2838	1427.0139	4442.35	3539.75
884.4274	1428.8502	4745.3	3844.55
884.571	1430.6858	5041	4142.3
884.7146	1432.5206	5251.6	4350.7
884.8582	1434.3547	5400.8	4500.15
885.0018	1436.188	5392.5	4491.75
885.1453	1438.0206	5357.05	4455.85
885.2889	1439.8524	5271	4371.95
885.4324	1441.6835	5205.85	4304.45
885.5759	1443.5139	5148	4246.9
885.7194	1445.3435	5120.6	4222.05
885.8629	1447.1724	5098.4	4200.35
886.0064	1449.0005	5095.6	4198.2
886.1499	1450.8279	5069.2	4166.2
886.2933	1452.6545	5061.95	4161.1
886.4368	1454.4804	5081.65	4184.9
886.5802	1456.3056	5081.45	4176.3
886.7237	1458.13	5040	4140.5
886.8671	1459.9536	4959.2	4060.1
887.0105	1461.7766	4824.9	3924.95
887.1539	1463.5987	4654.8	3755.3
887.2972	1465.4202	4457.25	3558.9
887.4406	1467.2409	4277.5	3379.65
887.584	1469.0608	4119.35	3220.15
887.7273	1470.88	3970.5	3071.45
887.8706	1472.6984	3838.05	2939.85
888.0139	1474.5161	3721	2817.5
888.1572	1476.3331	3639.95	2740.15
888.3005	1478.1493	3577.45	2679
888.4438	1479.9648	3536.5	2637.55
888.5871	1481.7795	3504.95	2606.1
888.7303	1483.5935	3482.85	2582.25
888.8736	1485.4067	3466	2567.55
889.0168	1487.2192	3449.6	2551.55
889.16	1489.031	3425.9	2525.4
889.3032	1490.842	3411.3	2513.8
889.4464	1492.6522	3391.45	2491.6
889.5896	1494.4618	3388.75	2488.85
889.7327	1496.2705	3366.4	2467.9
889.8759	1498.0785	3341.4	2441
890.019	1499.8858	3327.95	2430.75
890.1622	1501.6924	3297.55	2399.1
890.3053	1503.4981	3269.85	2370.9
890.4484	1505.3032	3257.7	2360.1
890.5914	1507.1075	3223.45	2324.65
890.7345	1508.911	3207.25	2309.25
890.8776	1510.7138	3167.5	2271.95
891.0206	1512.5159	3142	2246.2
891.1637	1514.3172	3131	2234.25
891.3067	1516.1178	3102.8	2207.15
891.4497	1517.9176	3083.85	2183.75
891.5927	1519.7166	3061.8	2165.35
891.7357	1521.515	3062.25	2159.4
891.8786	1523.3126	3037.15	2140.15
892.0216	1525.1094	3029.55	2130.35
892.1645	1526.9055	3012.4	2117.7
892.3074	1528.7008	3007.75	2111.75
892.4503	1530.4954	2980.65	2081.75
892.5932	1532.2893	2991.65	2096.35
892.7361	1534.0824	2981	2084.3
892.879	1535.8747	2990.95	2096.7
893.0218	1537.6663	2965.5	2071.05
893.1647	1539.4572	2965.6	2072.1
893.3075	1541.2473	2973.4	2078.6
893.4503	1543.0367	2985.95	2092
893.5931	1544.8253	2998.85	2101.95
893.7359	1546.6132	3023.75	2129.2
893.8787	1548.4003	3044.3	2138.2
894.0214	1550.1867	3077.65	2176.95
894.1642	1551.9723	3120.35	2222.25
894.3069	1553.7572	3166.75	2271.3
894.4496	1555.5414	3243.65	2350.25
894.5923	1557.3247	3352.7	2461.8
894.735	1559.1074	3451.75	2560.35
894.8777	1560.8893	3593.75	2702.9
895.0204	1562.6705	3709	2816.3
895.163	1564.4509	3808.4	2918.2
895.3056	1566.2305	3869.55	2981.9
895.4482	1568.0094	3903.7	3011.95
895.5908	1569.7876	3903.5	3013.9
895.7334	1571.565	3911.3	3019.95
895.876	1573.3417	3907.5	3012.5
896.0186	1575.1176	3921	3031.4
896.1611	1576.8928	3936.45	3047.2
896.3036	1578.6672	3972.9	3085.35
896.4461	1580.4409	4014	3128.15
896.5886	1582.2138	4080.25	3190.5
896.7311	1583.986	4156.5	3264.3
896.8736	1585.7575	4250.85	3361.35
897.0161	1587.5282	4331	3445.1
897.1585	1589.2981	4426.15	3538.85
897.3009	1591.0673	4509.3	3624
897.4433	1592.8358	4597.65	3710.65
897.5857	1594.6035	4672	3783.8
897.7281	1596.3704	4727.25	3835.3
897.8705	1598.1366	4763.05	3875.45
898.0128	1599.9021	4788.15	3900.05
898.1551	1601.6668	4845.45	3955.95
898.2975	1603.4308	4895.05	4005.65
898.4398	1605.194	4983.9	4090.75
898.5821	1606.9564	5097.45	4213
898.7243	1608.7182	5256.6	4369.85
898.8666	1610.4791	5442.9	4562.4
899.0088	1612.2394	5700.25	4817.7
899.1511	1613.9988	5928.6	5047.55
899.2933	1615.7576	6165.55	5280.9
899.4355	1617.5156	6300.35	5409.25
899.5776	1619.2728	6371.45	5480.9
899.7198	1621.0293	6298.05	5411.05
899.862	1622.785	6089.3	5199.3
900.0041	1624.54	5822.3	4935.65
900.1462	1626.2942	5526.95	4640.35
900.2883	1628.0477	5208.6	4319.7
900.4304	1629.8005	4921.15	4030.25
900.5725	1631.5525	4667.25	3782.7
900.7145	1633.3037	4437.4	3552.75
900.8566	1635.0542	4255.7	3371.35
900.9986	1636.804	4126.1	3241.7
901.1406	1638.553	4065.15	3113.1
901.2826	1640.3013	3925.75	3041.9
901.4245	1642.0488	3874.1	2987.4
901.5665	1643.7955	3865.65	2984.35
901.7085	1645.5416	3873.65	2989.55
901.8504	1647.2868	3905.85	3021.75
901.9923	1649.0313	3938.5	3053.3
902.1342	1650.7751	4010.15	3122.8
902.2761	1652.5181	4063.1	3179.25
902.4179	1654.2604	4141.8	3260.65
902.5598	1656.0019	4261.3	3378.55
902.7016	1657.7427	4391.95	3509.1
902.8434	1659.4828	4532.45	3647.65
902.9852	1661.222	4652.6	3763.25
903.127	1662.9606	4684.25	3799.15
903.2687	1664.6984	4587.4	3701.8
903.4105	1666.4354	4382.55	3495.6
903.5522	1668.1717	4100.55	3215.1
903.6939	1669.9072	3785.95	2900.25
903.8356	1671.642	3536.4	2650.6
903.9773	1673.3761	3325.25	2441.9
904.119	1675.1094	3138.75	2255.3
904.2606	1676.8419	2996.25	2111.95
904.4022	1678.5737	2891.5	2007.45
904.5439	1680.3048	2817.85	1932.5
904.6855	1682.0351	2738.15	1851.1
904.827	1683.7646	2680	1793.1
904.9686	1685.4934	2623.85	1738.1
905.1101	1687.2215	2585.1	1702.7
905.2517	1688.9488	2552.2	1670.95
905.3932	1690.6754	2514.9	1631.7
905.5347	1692.4012	2494.2	1608.6
905.6761	1694.1263	2473.1	1588.35
905.8176	1695.8506	2441	1556.1
905.9591	1697.5742	2429.05	1545.7
906.1005	1699.297	2403.05	1521.85
906.2419	1701.0191	2384.25	1503.35
906.3833	1702.7404	2362.5	1480.6
906.5246	1704.461	2359.65	1476.25
906.666	1706.1808	2329	1443.7
906.8073	1707.8999	2319.85	1434.25
906.9487	1709.6182	2317.15	1434.75
907.09	1711.3358	2290.6	1407.35
907.2313	1713.0527	2277.25	1397.65
907.3725	1714.7688	2269.8	1382.05
907.5138	1716.4841	2262.7	1379.1
907.655	1718.1987	2270.25	1381
907.7962	1719.9126	2243.75	1363.2
907.9374	1721.6257	2246.05	1360.95
908.0786	1723.338	2227.5	1344.7
908.2198	1725.0496	2219	1335
908.3609	1726.7605	2226.65	1345.65
908.502	1728.4706	2212.35	1330.1
908.6431	1730.18	2201.2	1316.85
908.7842	1731.8886	2200.05	1319.2
908.9253	1733.5964	2200.7	1301.35
909.0664	1735.3036	2186.6	1302.8
909.2074	1737.0099	2175.9	1293.5
909.3484	1738.7156	2163.35	1282.05
909.4894	1740.4204	2158.15	1274.1
909.6304	1742.1246	2142.15	1259.15
909.7714	1743.8279	2137.75	1257.9
909.9123	1745.5306	2140.55	1257.45
910.0532	1747.2325	2125.05	1242.7
910.1941	1748.9336	2114.75	1232.2
910.335	1750.634	2106.65	1221.45
910.4759	1752.3336	2103.55	1223.1
910.6168	1754.0325	2100.6	1221.75
910.7576	1755.7307	2094.2	1213.55
910.8984	1757.4281	2090.7	1207.85
911.0392	1759.1247	2106.85	1215.55
911.18	1760.8206	2090.95	1204.7
911.3208	1762.5158	2090.65	1202.35
911.4615	1764.2102	2064.65	1184.45
911.6022	1765.9039	2063.15	1178.6
911.7429	1767.5968	2065.1	1185.25
911.8836	1769.289	2059.55	1179
912.0243	1770.9804	2052.65	1170.8
912.1649	1772.6711	2060.15	1176.9
912.3056	1774.361	2046.7	1165.05
912.4462	1776.0502	2052.35	1168.3
912.5868	1777.7386	2052	1166.8
912.7274	1779.4263	2036.55	1153.95
912.8679	1781.1132	2031.7	1151.8
913.0084	1782.7994	2023.25	1141.9
913.149	1784.4849	2038.6	1159.4
913.2895	1786.1696	2051.35	1154.85
913.4299	1787.8535	2018.2	1141.6
913.5704	1789.5367	2011.85	1131.25
913.7108	1791.2192	2010	1130.1
913.8513	1792.9009	2033.3	1126.05
913.9917	1794.5818	2009.7	1125.5
914.132	1796.2621	2009.85	1130.2
914.2724	1797.9415	1997.4	1115.75
914.4128	1799.6202	1996	1112.85
914.5531	1801.2982	1995.4	1112.5
914.6934	1802.9755	1998.35	1117.1
914.8337	1804.6519	1992.25	1110.25
914.9739	1806.3277	1984.4	1102.3
915.1142	1808.0027	1979.15	1100.35
915.2544	1809.6769	1985.2	1104.35
915.3946	1811.3504	1973.2	1092
915.5348	1813.0231	1966.95	1086.35
915.675	1814.6951	1969.6	1092
915.8151	1816.3664	1967.95	1085.95
915.9553	1818.0369	1961.25	1079.8
916.0954	1819.7067	1962.1	1082.95
916.2355	1821.3757	1961.45	1077.2
916.3755	1823.044	1955.85	1075.25
916.5156	1824.7115	1959.9	1077.25
916.6556	1826.3783	1951.2	1071.5
916.7956	1828.0443	1948.75	1068
916.9356	1829.7096	1953.1	1072
917.0756	1831.3741	1946.2	1061.55
917.2155	1833.0379	1932.3	1050.1
917.3555	1834.701	1940.6	1059.6
917.4954	1836.3633	1933.7	1052.25
917.6353	1838.0248	1938.5	1055.75
917.7751	1839.6856	1933.35	1052.25
917.915	1841.3457	1930.7	1051.05
918.0548	1843.005	1924.45	1040.7
918.1946	1844.6636	1925.8	1044.55
918.3344	1846.3214	1929.95	1047.5
918.4742	1847.9785	1921.55	1042.25
918.6139	1849.6349	1921.8	1037.2
918.7537	1851.2904	1937.35	1045
918.8934	1852.9453	1921.55	1039.65
919.0331	1854.5994	1908.7	1024.45
919.1727	1856.2528	1916.6	1030.95
919.3124	1857.9054	1914.55	1033.05
919.452	1859.5572	1902.15	1021.5
919.5916	1861.2083	1901.8	1019.65
919.7312	1862.8587	1897.7	1017.3
919.8708	1864.5084	1903.85	1021.35
920.0103	1866.1572	1903.1	1021.95
920.1498	1867.8054	1890.05	1010.6
920.2893	1869.4528	1880.6	998.05
920.4288	1871.0994	1884.2	1002.55
920.5683	1872.7453	1888.75	1006.2
920.7077	1874.3905	1892.5	1005.55
920.8471	1876.0349	1881.65	1000.6
920.9865	1877.6786	1885.35	1001.85
921.1259	1879.3215	1878.6	998.8
921.2653	1880.9637	1875.15	991.85
921.4046	1882.6051	1876.65	995.65
921.5439	1884.2458	1876.45	994.65
921.6832	1885.8858	1865.8	984.55
921.8225	1887.525	1857.85	976.65
921.9617	1889.1634	1863.2	982.7
922.101	1890.8011	1859.6	978.25
922.2402	1892.4381	1848.2	965.95
922.3794	1894.0743	1858.55	977.4
922.5185	1895.7098	1843.8	962.7
922.6577	1897.3446	1844.3	962.5
922.7968	1898.9786	1853.05	967.5
922.9359	1900.6118	1837.95	957.6
923.075	1902.2443	1828.3	943.7
923.214	1903.8761	1835.4	955.7
923.3531	1905.5071	1831.45	949.8
923.4921	1907.1374	1827.3	945.25
923.6311	1908.7669	1830.35	951.6
923.77	1910.3957	1825.05	946.1
923.909	1912.0237	1823.3	943.45
924.0479	1913.651	1825.2	942.8
924.1868	1915.2776	1812.55	936.05
924.3257	1916.9034	1809.1	928.15
924.4646	1918.5285	1797.1	917.6
924.6034	1920.1528	1794.2	912.6
924.7422	1921.7764	1796.55	917.9
924.881	1923.3992	1800.1	921.3
925.0198	1925.0213	1796.5	916.1
925.1586	1926.6427	1787.1	908.75
925.2973	1928.2633	1858.7	895.05
925.436	1929.8832	1790.4	906.7
925.5747	1931.5023	1775.55	892.75
925.7134	1933.1207	1785.9	906.2
925.852	1934.7383	1773.7	893.15
925.9906	1936.3552	1773.8	893.55
926.1292	1937.9714	1771.45	890
926.2678	1939.5868	1772.3	889.35
926.4064	1941.2015	1756.95	878.25
926.5449	1942.8154	1760.1	877.6
926.6834	1944.4286	1748.05	867.75
926.8219	1946.041	1776.8	873.15
926.9604	1947.6528	1745.25	859.4
927.0988	1949.2637	1746.6	864.5
927.2372	1950.8739	1749.1	867
927.3756	1952.4834	1748.45	866.35
927.514	1954.0921	1735.65	855.4
927.6523	1955.7001	1744.1	859.45
927.7907	1957.3074	1735.7	857.3
927.929	1958.9139	1726.4	847.15
928.0673	1960.5197	1733.25	853.3
928.2055	1962.1247	1723.5	842.75
928.3438	1963.729	1722.45	844.55
928.482	1965.3325	1722.7	836.55
928.6202	1966.9353	1707.15	830.65
928.7584	1968.5374	1706.75	826.5
928.8965	1970.1387	1710.4	831.55
929.0346	1971.7393	1706.55	826.75
929.1727	1973.3392	1703.25	823.6
929.3108	1974.9383	1698.1	819.8
929.4489	1976.5366	1705.25	828.25
929.5869	1978.1342	1691.45	813.75
929.7249	1979.7311	1684.65	806.2
929.8629	1981.3273	1694.35	812.9
930.0009	1982.9227	1690.95	811.25
930.1388	1984.5173	1684.65	806.7
930.2767	1986.1112	1680.75	801.65
930.4146	1987.7044	1678.15	800.45
930.5525	1989.2968	1676.8	797.85
930.6904	1990.8885	1684.1	801.7
930.8282	1992.4795	1674.85	796.05
930.966	1994.0697	1667.8	789.65
931.1038	1995.6592	1673.1	795.25
931.2415	1997.2479	1659.65	781.75
931.3793	1998.8359	1668	790.35
931.517	2000.4232	1648.6	771.25
931.6547	2002.0097	1651.75	776.35
931.7923	2003.5955	1647.35	769.65
931.93	2005.1805	1657.55	778.8
932.0676	2006.7648	1651.95	775.15
932.2052	2008.3484	1651.95	774.45
932.3427	2009.9312	1641.95	764.7
932.4803	2011.5133	1636	760.75
932.6178	2013.0946	1638.3	761.85
932.7553	2014.6752	1641.85	765.2
932.8928	2016.2551	1637.45	760.5
933.0302	2017.8342	1633.4	754.45
933.1676	2019.4126	1635.05	758.05
933.305	2020.9902	1634.3	756.55
933.4424	2022.5672	1633.25	756.65
933.5798	2024.1433	1629.75	746.35
933.7171	2025.7188	1633.45	759.7
933.8544	2027.2935	1625.45	748.5
933.9917	2028.8674	1618.2	742.8
934.129	2030.4406	1611	736.6
934.2662	2032.0131	1622.15	746.3
934.4034	2033.5849	1622.45	743
934.5406	2035.1559	1612.4	737.75
934.6778	2036.7261	1618.4	741.35
934.8149	2038.2957	1607.65	729
934.952	2039.8645	1604.8	725.8
935.0891	2041.4325	1601.7	723.25
935.2262	2042.9998	1596.95	719.85
935.3632	2044.5664	1598.25	723.45
935.5002	2046.1323	1606.85	731.95
935.6372	2047.6974	1596.2	720.65
935.7742	2049.2617	1597.3	720.3
935.9111	2050.8254	1603.75	720.55
936.048	2052.3883	1595.05	715.3
936.1849	2053.9504	1596.25	717.2
936.3218	2055.5118	1599.1	719.75
936.4586	2057.0725	1596.8	716.65
936.5955	2058.6325	1585.7	708.95
936.7323	2060.1917	1582.85	707.7
936.869	2061.7502	1582.45	705.5
937.0058	2063.3079	1573.85	697.75
937.1425	2064.8649	1582.4	705.8
937.2792	2066.4212	1580.1	701.95
937.4159	2067.9767	1573.7	695.45
937.5525	2069.5315	1566.6	690.35
937.6891	2071.0856	1570.4	693.6
937.8257	2072.6389	1568.9	691.5
937.9623	2074.1915	1566.3	690.15
938.0989	2075.7433	1560.9	683.45
938.2354	2077.2945	1570.6	692.45
938.3719	2078.8448	1564	685.4
938.5084	2080.3945	1555.4	678
938.6448	2081.9434	1559.1	680.75
938.7812	2083.4916	1550.5	671.75
938.9176	2085.039	1556.4	676
939.054	2086.5857	1551.65	668.95
939.1903	2088.1317	1552.75	673.3
939.3267	2089.677	1545.25	664.7
939.463	2091.2215	1541.85	662.5
939.5992	2092.7652	1540.3	660.4
939.7355	2094.3083	1542.25	662.3
939.8717	2095.8506	1547.35	669.9
940.0079	2097.3921	1547.6	667.15
940.1441	2098.933	1536.65	656.5
940.2802	2100.4731	1542.75	665.55
940.4163	2102.0124	1558.2	661
940.5524	2103.5511	1528.2	650
940.6885	2105.089	1533.7	655.45
940.8245	2106.6261	1535.65	656.25
940.9606	2108.1626	1527.9	647.6
941.0965	2109.6983	1560	652.15
941.2325	2111.2332	1534.8	653.3
941.3684	2112.7675	1532.6	652.1
941.5044	2114.301	1529.35	648.75
941.6403	2115.8337	1519.5	640.1
941.7761	2117.3657	1516.65	639.7
941.912	2118.897	1516.9	638.4
942.0478	2120.4276	1522.25	635.95
942.1835	2121.9575	1517.7	638.95
942.3193	2123.4866	1520.5	637.85
942.455	2125.0149	1514.3	632.1
942.5907	2126.5426	1510.9	633.1
942.7264	2128.0695	1503.1	621.6
942.8621	2129.5956	1502.65	626.85
942.9977	2131.1211	1501.35	619.9
943.1333	2132.6458	1499.8	621.5
943.2689	2134.1698	1501.25	620.65
943.4044	2135.693	1501.8	620.5
943.54	2137.2155	1512.75	630.9
943.6755	2138.7373	1495.6	616.45
943.8109	2140.2584	1491	611.95
943.9464	2141.7787	1497.1	615.3
944.0818	2143.2983	1487.6	610.2
944.2172	2144.8171	1481.75	607.65
944.3526	2146.3353	1492.4	614.15
944.4879	2147.8527	1488.15	612.1
944.6232	2149.3693	1478.65	599.05
944.7585	2150.8853	1489.2	610.25
944.8938	2152.4005	1485.5	606.05
945.029	2153.9149	1481.25	600.6
945.1642	2155.4287	1481.45	600.8
945.2994	2156.9417	1488.65	609.8
945.4346	2158.454	1477.85	595.15
945.5697	2159.9655	1475.35	598.15
945.7048	2161.4764	1477.65	598.85
945.8399	2162.9865	1473.4	597.35
945.9749	2164.4958	1466.65	587.65
946.1099	2166.0045	1465.45	584.9
946.2449	2167.5124	1471.5	594.35
946.3799	2169.0195	1464.4	585.65
946.5148	2170.526	1464.65	585.9
946.6498	2172.0317	1461.75	580.9
946.7846	2173.5367	1457	580.5
946.9195	2175.0409	1463	584.3
947.0543	2176.5445	1466.35	588.85
947.1891	2178.0473	1458.1	577.05
947.3239	2179.5494	1450.7	568.05
947.4587	2181.0507	1452	573
947.5934	2182.5513	1456.55	577.65
947.7281	2184.0512	1457.9	575.5
947.8628	2185.5504	1451.2	573.65
947.9974	2187.0488	1449.65	572.3
948.132	2188.5465	1443.1	563.25
948.2666	2190.0435	1450.5	572.4
948.4012	2191.5397	1442.7	564.25
948.5357	2193.0353	1449.1	569.55
948.6702	2194.5301	1446.05	564.9
948.8047	2196.0241	1445.1	562.15
948.9392	2197.5175	1439.8	558.6
949.0736	2199.0101	1435.45	550.45
949.208	2200.502	1429.6	549.9
949.3424	2201.9931	1431.7	553.45
949.4767	2203.4835	1427.8	551.1
949.611	2204.9733	1438	553.85
949.7453	2206.4622	1427.6	551.15
949.8796	2207.9505	1430.5	551.15
950.0138	2209.438	1421.7	546.35
950.148	2210.9248	1424.5	544.4
950.2822	2212.4109	1418.85	541.5
950.4164	2213.8962	1424.35	541.25
950.5505	2215.3809	1422.95	541.35
950.6846	2216.8648	1422.15	539.65
950.8186	2218.3479	1419.95	532.85
950.9527	2219.8304	1418.1	533.6
951.0867	2221.3121	1415.75	532.5
951.2207	2222.7931	1405.3	526.25
951.3546	2224.2733	1412.4	529.45
951.4886	2225.7529	1407	527.35
951.6225	2227.2317	1408.95	528.65
951.7563	2228.7098	1401.1	524.3
951.8902	2230.1872	1402.15	522.4
952.024	2231.6638	1404.05	525.25
952.1578	2233.1397	1403.85	517.8
952.2916	2234.6149	1398.9	521.2
952.4253	2236.0894	1393.9	513.35
952.559	2237.5632	1402.35	514.15
952.6927	2239.0362	1390.75	513.6
952.8263	2240.5085	1389.85	511.05
952.9599	2241.9801	1389.35	508.4
953.0935	2243.4509	1386.25	507.35
953.2271	2244.921	1382	502.95
953.3606	2246.3904	1386.6	505.2
953.4941	2247.8591	1383	502.85
953.6276	2249.3271	1378.85	499.6
953.7611	2250.7943	1375.8	494.75
953.8945	2252.2608	1382.7	502.75
954.0279	2253.7266	1378.85	497.95
954.1612	2255.1917	1374.5	493.25
954.2946	2256.656	1374	494
954.4279	2258.1197	1359.2	481.1
954.5612	2259.5826	1368.95	485.5
954.6944	2261.0447	1366.7	485.95
954.8276	2262.5062	1367.05	484.6
954.9608	2263.9669	1368.7	486.6
955.094	2265.4269	1368.6	488.2
955.2271	2266.8862	1363.8	486.7
955.3602	2268.3448	1368.55	487.6
955.4933	2269.8026	1369.05	489.4
955.6264	2271.2598	1368.25	488.65
955.7594	2272.7162	1358.45	481.35
955.8924	2274.1719	1361.25	479.35
956.0253	2275.6268	1359.2	479.45
956.1583	2277.0811	1361.5	482.3
956.2912	2278.5346	1352.75	473.5
956.4241	2279.9874	1355.6	477.95
956.5569	2281.4395	1353.25	474.45
956.6897	2282.8908	1357.8	474.4
956.8225	2284.3414	1354.85	472.2
956.9553	2285.7914	1355.35	476.7
957.088	2287.2406	1352.45	468.6
957.2207	2288.689	1350.6	470.5
957.3534	2290.1368	1344.9	461.75
957.486	2291.5838	1353.15	470.45
957.6186	2293.0302	1353.8	470.8
957.7512	2294.4758	1347.9	466.55
957.8838	2295.9206	1347.6	464.25
958.0163	2297.3648	1337.55	456.8
958.1488	2298.8082	1345.85	465.2
958.2813	2300.251	1339.95	459.85
958.4137	2301.693	1348.6	465.15
958.5461	2303.1343	1342.05	462.5
958.6785	2304.5748	1337.5	456.85
958.8108	2306.0147	1327.5	447.7
958.9432	2307.4538	1338	454.95
959.0754	2308.8922	1327.5	450.75
959.2077	2310.3299	1335.55	457.05
959.3399	2311.7669	1334.4	456.45
959.4721	2313.2031	1331.55	452.1
959.6043	2314.6387	1332.3	452.95
959.7365	2316.0735	1327.55	447.55
959.8686	2317.5076	1330.45	450.35
960.0006	2318.941	1327	446.85
960.1327	2320.3737	1327.05	443.2
960.2647	2321.8056	1329.15	446.25
960.3967	2323.2369	1319.5	438.5
960.5287	2324.6674	1329.4	447.9
960.6606	2326.0972	1326.2	444.45
960.7925	2327.5263	1324.6	445.15
960.9244	2328.9547	1321.8	442.8
961.0562	2330.3823	1320.65	440.55
961.1881	2331.8092	1327.05	444.5
961.3198	2333.2355	1308.35	425.8
961.4516	2334.661	1311.15	429.75
961.5833	2336.0858	1305.65	423.9
961.715	2337.5098	1305.9	425.9
961.8467	2338.9332	1309.65	427.6
961.9783	2340.3558	1303.7	418.5
962.1099	2341.7778	1304.8	425.45
962.2415	2343.199	1306.65	426.7
962.373	2344.6195	1310.25	429.4
962.5045	2346.0393	1299.7	421.6
962.636	2347.4583	1302.4	422.5
962.7675	2348.8767	1306.3	424.75
962.8989	2350.2943	1303.15	419.75
963.0303	2351.7113	1306.15	422.7
963.1617	2353.1275	1298.9	415.4
963.293	2354.543	1328.25	421.1
963.4243	2355.9578	1305.2	420.65
963.5556	2357.3718	1295.3	416.7
963.6868	2358.7852	1303.25	419.05
963.818	2360.1978	1302	421.5
963.9492	2361.6098	1300.1	421.5
964.0803	2363.021	1297.15	412.55
964.2114	2364.4315	1293.5	413.1
964.3425	2365.8413	1295.5	414.45
964.4736	2367.2504	1293.7	414.15
964.6046	2368.6587	1289.9	408.25
964.7356	2370.0664	1286.45	406.55
964.8666	2371.4733	1291.05	409.95
964.9975	2372.8795	1287.5	407.05
965.1284	2374.285	1291.8	409.7
965.2593	2375.6899	1285.7	406.1
965.3901	2377.0939	1285.55	403.3
965.5209	2378.4973	1277.3	398.75
965.6517	2379.9	1286.5	404.8
965.7825	2381.3019	1280.7	400.2
965.9132	2382.7032	1282.4	401.7
966.0439	2384.1037	1279.2	400.8
966.1745	2385.5035	1269.5	389.6
966.3051	2386.9027	1273.25	394.9
966.4357	2388.3011	1280.4	397.1
966.5663	2389.6987	1273.55	394
966.6968	2391.0957	1272.95	394.3
966.8273	2392.492	1266.5	390
966.9578	2393.8876	1262.8	383.25
967.0882	2395.2824	1270.9	389.05
967.2186	2396.6765	1259.35	378
967.349	2398.07	1263.95	382.45
967.4793	2399.4627	1265.75	381.9
967.6097	2400.8547	1258.05	377.3
967.7399	2402.246	1266.65	379.55
967.8702	2403.6366	1259.85	378.1
968.0004	2405.0265	1255.9	376.45
968.1306	2406.4156	1260.3	375.9
968.2607	2407.8041	1261.15	376.6
968.3909	2409.1918	1257.75	375.5
968.521	2410.5789	1253	371.05
968.651	2411.9652	1256.4	372.2
968.781	2413.3508	1252.65	372.55
968.911	2414.7358	1250.8	370.9
969.041	2416.12	1251.9	371.25
969.1709	2417.5035	1245.4	365.85
969.3008	2418.8863	1252.6	370.85
969.4307	2420.2684	1247.05	366.05
969.5606	2421.6497	1254.25	372.75
969.6904	2423.0304	1241.25	360.95
969.8201	2424.4104	1242.3	361.5
969.9499	2425.7896	1252.05	365.95
970.0796	2427.1682	1242.9	362.65
970.2093	2428.546	1250.65	369.4
970.3389	2429.9232	1243.55	359.5
970.4685	2431.2996	1243.9	362.15
970.5981	2432.6753	1234.25	352.3
970.7277	2434.0503	1238.85	357.65
970.8572	2435.4246	1242.45	362.8
970.9867	2436.7982	1242.55	357.25
971.1161	2438.1711	1239.35	360.7
971.2456	2439.5433	1241.1	361.1
971.375	2440.9148	1239.15	352.45
971.5043	2442.2856	1224.9	342.6
971.6336	2443.6557	1232.5	350.8
971.7629	2445.025	1226.1	345.5
971.8922	2446.3937	1219.5	339.75
972.0214	2447.7617	1233	351.95
972.1506	2449.1289	1230.6	349.55
972.2798	2450.4955	1228.3	345.5
972.4089	2451.8613	1225.65	347.2
972.538	2453.2265	1227.05	346.9
972.6671	2454.5909	1225.25	343.45
972.7961	2455.9546	1222.15	342.25
972.9251	2457.3177	1217	337.05
973.0541	2458.68	1220.9	338.95
973.1831	2460.0416	1220.3	339.85
973.312	2461.4025	1223.7	341.6
973.4408	2462.7627	1231.4	340.1
973.5697	2464.1222	1219	340.65
973.6985	2465.4811	1217.6	337.25
973.8273	2466.8392	1217.15	338.15
973.956	2468.1966	1224.8	342.45
974.0847	2469.5533	1222.25	341.2
974.2134	2470.9093	1221.15	341
974.3421	2472.2645	1220.7	338.4
974.4707	2473.6191	1217.3	340.35
974.5993	2474.973	1214.3	333.15
974.7278	2476.3262	1221.1	340.35
974.8563	2477.6787	1217.65	337.5
974.9848	2479.0305	1217.25	338.45
975.1132	2480.3816	1215.75	335.35
975.2417	2481.7319	1211.15	331.2
975.37	2483.0816	1216.2	334.85
975.4984	2484.4306	1212.25	331.55
975.6267	2485.7789	1202.85	324.2
975.755	2487.1264	1211.85	331.7
975.8833	2488.4733	1202.05	323.5
976.0115	2489.8195	1220.7	324
976.1397	2491.165	1202.4	319.25
976.2678	2492.5097	1208.85	327.85
976.3959	2493.8538	1198.35	319.55
976.524	2495.1972	1200.75	319.7
976.6521	2496.5398	1201.85	319.2
976.7801	2497.8818	1199.75	319.15
976.9081	2499.2231	1196.3	315.95
977.036	2500.5637	1202.7	319.65
977.164	2501.9035	1196.5	314.4
977.2918	2503.2427	1202.45	318.8
977.4197	2504.5812	1197.55	316.6
977.5475	2505.919	1195.95	312.4
977.6753	2507.256	1198.95	319.1
977.8031	2508.5924	1192.9	314.25
977.9308	2509.9281	1206.55	321.45
978.0585	2511.2631	1192.15	312.35
978.1861	2512.5974	1193.3	313.35
978.3137	2513.9309	1192.05	311.6
978.4413	2515.2638	1219	310.9
978.5689	2516.596	1194.15	313.85
978.6964	2517.9275	1190.2	308.75
978.8239	2519.2583	1188.1	305.75
978.9513	2520.5884	1191.9	309
979.0788	2521.9178	1183.4	303.5
979.2062	2523.2465	1185.9	308.5
979.3335	2524.5745	1181.1	302.75
979.4608	2525.9018	1188.1	309.25
979.5881	2527.2284	1181.65	303.65
979.7154	2528.5543	1182.2	302.9
979.8426	2529.8796	1185.8	305.3
979.9698	2531.2041	1184.15	302.95
980.0969	2532.5279	1181.3	303.75
980.224	2533.851	1186.2	306.95
980.3511	2535.1735	1180.9	301.9
980.4781	2536.4952	1183.1	300.7
980.6052	2537.8163	1184.4	304.05
980.7321	2539.1366	1178.1	299.95
980.8591	2540.4562	1182.95	300.15
980.986	2541.7752	1184.05	304.75
981.1129	2543.0935	1178.3	298.6
981.2397	2544.411	1169.85	289.1
981.3665	2545.7279	1178.85	298.4
981.4933	2547.0441	1175.45	296.05
981.62	2548.3596	1180.8	297.05
981.7467	2549.6744	1177.7	299.1
981.8734	2550.9885	1187	298.6
982.0001	2552.3019	1174.85	297.05
982.1267	2553.6146	1180.95	301.55
982.2532	2554.9266	1171.35	290.25
982.3798	2556.2379	1173.45	290.35
982.5063	2557.5485	1174	295.45
982.6327	2558.8585	1178.4	291.8
982.7592	2560.1677	1182.75	297.9
982.8856	2561.4762	1176.25	295.4
983.0119	2562.7841	1178.05	293.5
983.1383	2564.0913	1173.15	294.15
983.2646	2565.3977	1173.7	293.55
983.3908	2566.7035	1169.1	287.3
983.517	2568.0086	1173.1	293.55
983.6432	2569.313	1170.1	289.3
983.7694	2570.6167	1173.6	289.65
983.8955	2571.9197	1169.15	289.15
984.0216	2573.222	1169.75	288.55
984.1476	2574.5236	1169.2	289.6
984.2737	2575.8246	1169.35	286.6
984.3996	2577.1248	1167.8	283.85
984.5256	2578.4244	1172.7	293.55
984.6515	2579.7232	1170.7	290.45
984.7774	2581.0214	1196.85	288.15
984.9032	2582.3189	1168	288.4
985.029	2583.6157	1174.85	290.5
985.1548	2584.9118	1170.35	292.05
985.2806	2586.2072	1167.6	286.05
985.4063	2587.5019	1170.9	291.85
985.5319	2588.7959	1169.4	289.6
985.6576	2590.0893	1174.75	292.5
985.7832	2591.3819	1169.5	290.4
985.9087	2592.6739	1170.2	289.9
986.0343	2593.9652	1170.65	287.8
986.1597	2595.2557	1169.25	290.75
986.2852	2596.5456	1172.7	291.6
986.4106	2597.8348	1167.1	290.15
986.536	2599.1234	1165	288.2
986.6614	2600.4112	1165.25	286.9
986.7867	2601.6983	1179.5	295.25
986.912	2602.9848	1169.6	290.05
987.0372	2604.2705	1177.45	291.9
987.1624	2605.5556	1171.4	292.35
987.2876	2606.84	1171.45	293.85
987.4128	2608.1237	1172.8	292.65
987.5379	2609.4067	1164.65	286.85
987.6629	2610.689	1167.1	279.6
987.788	2611.9707	1171.6	288.7
987.913	2613.2516	1165.7	284.7
988.0379	2614.5319	1157.7	278.15
988.1629	2615.8115	1158.65	278.85
988.2878	2617.0903	1160.45	277.65
988.4126	2618.3685	1160.75	281.35
988.5375	2619.6461	1156.1	276.2
988.6622	2620.9229	1155	275.6
988.787	2622.199	1151	270.55
988.9117	2623.4745	1156	277.1
989.0364	2624.7493	1148.75	270.05
989.161	2626.0234	1155.55	276.9
989.2857	2627.2968	1156.6	278.6
989.4102	2628.5695	1156.05	276.2
989.5348	2629.8415	1152.9	273.45
989.6593	2631.1128	1154.5	272.9
989.7837	2632.3835	1154.15	275.75
989.9082	2633.6535	1151.7	272.4
990.0326	2634.9228	1154.25	276.95
990.1569	2636.1914	1152.2	275.05
990.2812	2637.4593	1149.45	270
990.4055	2638.7265	1153.1	273
990.5298	2639.9931	1153.5	274.25
990.654	2641.259	1145.55	264.2
990.7782	2642.5242	1143.15	262.95
990.9023	2643.7887	1143.2	263.7
991.0264	2645.0525	1144.05	265.35
991.1505	2646.3156	1140.35	260.95
991.2745	2647.5781	1143.45	264.25
991.3985	2648.8398	1138.6	262.8
991.5225	2650.1009	1174.45	257.5
991.6464	2651.3613	1142.6	264.85
991.7703	2652.6211	1137.45	257.5
991.8942	2653.8801	1133.45	255
992.018	2655.1385	1145.05	264.05
992.1418	2656.3961	1134.05	257.25
992.2655	2657.6531	1141	261
992.3892	2658.9094	1143.7	264.2
992.5129	2660.1651	1138.75	261.6
992.6366	2661.42	1141.75	265.2
992.7602	2662.6743	1144.65	266.85
992.8837	2663.9279	1144.15	266.4
993.0073	2665.1808	1144	265.55
993.1307	2666.433	1143.4	263.7
993.2542	2667.6846	1141.85	262.55
993.3776	2668.9354	1148.35	265.8
993.501	2670.1856	1148.6	268.65
993.6244	2671.4351	1147.45	269.85
993.7477	2672.6839	1156.75	275.75
993.8709	2673.9321	1154.2	277.5
993.9942	2675.1795	1148	269.7
994.1174	2676.4263	1154.45	276.3
994.2405	2677.6724	1148.4	274.6
994.3637	2678.9179	1151.85	273.7
994.4868	2680.1626	1151.7	274.85
994.6098	2681.4067	1154.1	274.75
994.7328	2682.6501	1153.35	274.8
994.8558	2683.8928	1148.9	271
994.9788	2685.1348	1152.9	274.6
995.1017	2686.3761	1143.15	263.8
995.2245	2687.6168	1141.8	261.75
995.3474	2688.8568	1143	264.8
995.4702	2690.0961	1137.15	260.05
995.5929	2691.3348	1135.6	257.7
995.7156	2692.5727	1136	257.7
995.8383	2693.81	1137.9	259.25
995.961	2695.0466	1138.15	263.75
996.0836	2696.2826	1140.05	260.05
996.2062	2697.5178	1161.7	264.85
996.3287	2698.7524	1137.85	259.4
996.4512	2699.9863	1143.5	264.6
996.5737	2701.2195	1144.85	265.85
996.6961	2702.452	1148.9	267.45
996.8185	2703.6839	1148.75	270
996.9408	2704.9151	1147.9	271.55
997.0631	2706.1456	1148.45	270.85
997.1854	2707.3755	1157.35	281.15
997.3077	2708.6046	1157.8	278.8
997.4299	2709.8331	1162.85	283
997.552	2711.0609	1165.1	286.7
997.6742	2712.2881	1166.7	288.75
997.7963	2713.5145	1178.05	298
997.9183	2714.7403	1175.05	297.3
998.0403	2715.9654	1182.5	305
998.1623	2717.1899	1202.7	308.65
998.2842	2718.4136	1191.3	314.4
998.4062	2719.6367	1198.2	321.1
998.528	2720.8591	1209.15	323.65
998.6498	2722.0809	1212.65	334
998.7716	2723.3019	1220.6	340.55
998.8934	2724.5223	1225	345.45
999.0151	2725.7421	1224.1	342.55
999.1368	2726.9611	1223.35	345.45
999.2584	2728.1795	1225.15	342.55
999.38	2729.3972	1218.05	340.55
999.5016	2730.6142	1219.65	335.2
999.6231	2731.8306	1205.65	326.15
999.7446	2733.0462	1191.55	312.4
999.8661	2734.2612	1193.6	310.05
999.9875	2735.4756	1187.95	307.25
1000.1089	2736.6892	1168.9	291.1
1000.2302	2737.9022	1168.95	290.8
1000.3515	2739.1145	1161.6	283.2
1000.4728	2740.3262	1163.7	279.2
1000.594	2741.5372	1150.05	272.5
1000.7152	2742.7475	1143.1	267.25
1000.8363	2743.9571	1141.9	260.3
1000.9575	2745.1661	1136.75	256.85
1001.0785	2746.3744	1130.85	253.3
1001.1996	2747.582	1126.75	250.4
1001.3206	2748.7889	1121.15	242.4
1001.4415	2749.9952	1115	237.7
1001.5625	2751.2008	1121.3	243.05
1001.6833	2752.4057	1112.8	232.75
1001.8042	2753.61	1115.25	235.45
1001.925	2754.8136	1114.9	237.9
1002.0458	2756.0165	1108.95	233
1002.1665	2757.2188	1109.5	233.5
1002.2872	2758.4204	1108.5	230.65
1002.4078	2759.6213	1114.6	234.9
1002.5285	2760.8215	1111.45	230.95
1002.649	2762.0211	1113.95	235.5
1002.7696	2763.22	1109.05	230.15
1002.8901	2764.4182	1108.7	229.85
1003.0106	2765.6158	1108.25	229.95
1003.131	2766.8127	1106.45	228.6
1003.2514	2768.009	1105.85	229.3
1003.3717	2769.2045	1100.55	221.6
1003.492	2770.3994	1105.8	228.9
1003.6123	2771.5936	1100.1	221.15
1003.7325	2772.7872	1097.8	222.75
1003.8527	2773.9801	1096.15	216.3
1003.9729	2775.1723	1114.4	219.55
1004.093	2776.3639	1097.8	221.85
1004.2131	2777.5548	1094.9	214.35
1004.3331	2778.745	1095.6	219.9
1004.4531	2779.9346	1094.15	217.95
1004.5731	2781.1235	1096.1	217.15
1004.693	2782.3117	1094.9	219.65
1004.8129	2783.4992	1099.25	223.65
1004.9328	2784.6861	1102.85	226.65
1005.0526	2785.8723	1099	220.05
1005.1723	2787.0579	1099.35	220.8
1005.2921	2788.2428	1094.35	217.5
1005.4118	2789.427	1102.4	226.85
1005.5314	2790.6106	1105.5	227.5
1005.651	2791.7935	1108.75	232
1005.7706	2792.9757	1107.3	231.4
1005.8902	2794.1573	1113.9	234.5
1006.0097	2795.3382	1119.35	244.15
1006.1291	2796.5184	1124.85	248.1
1006.2485	2797.698	1128.9	251.8
1006.3679	2798.8769	1133.4	254.45
1006.4873	2800.0551	1137.5	259.6
1006.6066	2801.2327	1143.05	264.05
1006.7258	2802.4096	1145.65	269.35
1006.8451	2803.5859	1159.8	281.4
1006.9642	2804.7615	1164.85	285.8
1007.0834	2805.9364	1169.75	292.65
1007.2025	2807.1106	1176.25	299.75
1007.3216	2808.2842	1196.9	318.4
1007.4406	2809.4572	1211.25	334.15
1007.5596	2810.6294	1219.45	340.85
1007.6785	2811.801	1238.5	362.8
1007.7975	2812.972	1256.1	379.1
1007.9163	2814.1423	1274.15	396.6
1008.0352	2815.3119	1296.5	418.75
1008.154	2816.4808	1325.65	449.4
1008.2727	2817.6491	1350.1	471.85
1008.3914	2818.8167	1376.65	501.55
1008.5101	2819.9837	1408.85	526.35
1008.6288	2821.15	1432.85	556.4
1008.7474	2822.3157	1466.55	591.15
1008.8659	2823.4807	1494.25	617.25
1008.9844	2824.645	1531.35	652.8
1009.1029	2825.8086	1557.05	683.4
1009.2214	2826.9716	1596.9	721
1009.3398	2828.134	1628.95	752.1
1009.4581	2829.2957	1652.8	774.5
1009.5764	2830.4567	1670.9	796.7
1009.6947	2831.617	1682.9	805.3
1009.813	2832.7767	1684.75	810.1
1009.9312	2833.9358	1690.25	813.4
1010.0493	2835.0941	1687.65	808.95
1010.1675	2836.2519	1672.35	795.55
1010.2855	2837.4089	1667	789.1
1010.4036	2838.5653	1655.65	780.05
1010.5216	2839.7211	1644.45	768.8
1010.6396	2840.8761	1648.7	770.65
1010.7575	2842.0306	1642.9	768.05
1010.8754	2843.1843	1661.55	786
1010.9932	2844.3374	1670	794.4
1011.111	2845.4899	1699.3	822.8
1011.2288	2846.6417	1715	839
1011.3465	2847.7928	1752.45	876.6
1011.4642	2848.9433	1778.05	899.45
1011.5818	2850.0931	1803.4	928.4
1011.6995	2851.2422	1834	957.5
1011.817	2852.3907	1861	984.75
1011.9345	2853.5385	1885.4	1007
1012.052	2854.6857	1926.15	1024.7
1012.1695	2855.8323	1934.65	1058.8
1012.2869	2856.9781	1955.7	1079.3
1012.4042	2858.1233	1997.25	1120.8
1012.5216	2859.2679	2011.15	1134.95
1012.6389	2860.4118	2040.8	1163.1
1012.7561	2861.555	2064.1	1184.1
1012.8733	2862.6976	2084.15	1205.45
1012.9905	2863.8395	2106.2	1230.55
1013.1076	2864.9808	2123.8	1247.95
1013.2247	2866.1214	2133.9	1258.75
1013.3417	2867.2614	2146.8	1270.1
1013.4587	2868.4007	2160.9	1283.25
1013.5757	2869.5393	2161	1281.75
1013.6926	2870.6773	2173.7	1294.2
1013.8095	2871.8146	2178.05	1297.65
1013.9263	2872.9513	2183.1	1305.4
1014.0431	2874.0874	2172.95	1298.3
1014.1599	2875.2227	2168.6	1290.9
1014.2766	2876.3574	2160.1	1283.8
1014.3933	2877.4915	2147.2	1268.85
1014.51	2878.6249	2129.3	1255.5
1014.6266	2879.7577	2127.4	1250.3
1014.7431	2880.8898	2111.45	1225.8
1014.8596	2882.0212	2103.65	1227.55
1014.9761	2883.152	2104.35	1227.5
1015.0925	2884.2821	2094.65	1219.3
1015.2089	2885.4116	2096.5	1220.1
1015.3253	2886.5405	2096.3	1222.75
1015.4416	2887.6686	2099.1	1219.75
1015.5579	2888.7962	2100.6	1226.75
1015.6741	2889.923	2109.35	1235.45
1015.7903	2891.0493	2104.35	1229.9
1015.9065	2892.1748	2118.95	1242.35
1016.0226	2893.2997	2126.1	1249.45
1016.1387	2894.424	2136.5	1261.1
1016.2547	2895.5476	2139.25	1263.5
1016.3707	2896.6706	2153.5	1278.15
1016.4866	2897.7929	2146.7	1268.95
1016.6025	2898.9145	2164.4	1288.55
1016.7184	2900.0355	2188.85	1311.95
1016.8342	2901.1559	2203	1327.15
1016.95	2902.2756	2216.15	1342.05
1017.0658	2903.3946	2226.45	1348.55
1017.1815	2904.513	2241.7	1361.95
1017.2971	2905.6308	2256	1379.55
1017.4127	2906.7479	2259.6	1385.55
1017.5283	2907.8643	2280.05	1402.8
1017.6439	2908.9801	2286.45	1411.75
1017.7594	2910.0953	2289.5	1413.55
1017.8748	2911.2098	2278.55	1398.5
1017.9902	2912.3236	2280.1	1397.4
1018.1056	2913.4368	2273.5	1395.15
1018.2209	2914.5494	2264.4	1387.3
1018.3362	2915.6613	2253.55	1371.25
1018.4515	2916.7725	2231.65	1352.55
1018.5667	2917.8831	2206.5	1329.3
1018.6819	2918.9931	2202.65	1324.95
1018.797	2920.1024	2176.6	1299.55
1018.9121	2921.211	2169.75	1292.3
1019.0271	2922.319	2161.95	1286
1019.1421	2923.4264	2155.4	1279.85
1019.2571	2924.5331	2137.1	1262.45
1019.372	2925.6391	2140.3	1265.15
1019.4869	2926.7445	2157.3	1283
1019.6017	2927.8493	2151.1	1273.85
1019.7165	2928.9534	2150.85	1274.45
1019.8313	2930.0569	2156.85	1278.05
1019.946	2931.1597	2154.1	1275.3
1020.0606	2932.2619	2161.3	1285.2
1020.1753	2933.3634	2163.6	1287.2
1020.2899	2934.4643	2173.35	1290.6
1020.4044	2935.5645	2176.1	1296.05
1020.5189	2936.6641	2162.7	1282.7
1020.6334	2937.763	2147.85	1273.65
1020.7478	2938.8613	2131.45	1254.25
1020.8622	2939.959	2119.25	1237.9
1020.9765	2941.056	2080	1204.4
1021.0908	2942.1523	2046.65	1169.65
1021.2051	2943.248	2005.95	1129.6
1021.3193	2944.3431	1966.45	1092.1
1021.4334	2945.4375	1912.65	1036.05
1021.5476	2946.5313	1876.85	1004.3
1021.6617	2947.6244	1818.6	942.9
1021.7757	2948.7169	1769.55	893.7
1021.8897	2949.8087	1718.35	842.05
1022.0037	2950.8999	1671.65	795
1022.1176	2951.9904	1632.3	756.85
1022.2315	2953.0803	1600.9	725.35
1022.3453	2954.1696	1572.4	698.6
1022.4591	2955.2582	1554.85	680.8
1022.5728	2956.3462	1522.75	647.2
1022.6865	2957.4335	1511.1	635.9
1022.8002	2958.5202	1486.3	608.2
1022.9138	2959.6062	1474.2	599.7
1023.0274	2960.6916	1466.15	588.25
1023.141	2961.7764	1452.35	573.9
1023.2545	2962.8605	1447.1	570.9
1023.3679	2963.9439	1445.4	570.6
1023.4813	2965.0267	1441.1	564.2
1023.5947	2966.1089	1451.55	555.1
1023.708	2967.1905	1429.75	556.75
1023.8213	2968.2714	1421.4	548.55
1023.9346	2969.3516	1425.65	549.55
1024.0478	2970.4312	1440	555.9
1024.1609	2971.5102	1431.6	556.3
1024.274	2972.5885	1431.25	555
1024.3871	2973.6662	1432.8	553.3
1024.5002	2974.7432	1434.9	558.1
1024.6132	2975.8196	1431.6	556.35
1024.7261	2976.8954	1436.45	562.45
1024.839	2977.9705	1426.8	551.85
1024.9519	2979.045	1422.5	546.5
1025.0647	2980.1188	1415.65	540.35
1025.1775	2981.192	1410.4	536.05
1025.2902	2982.2645	1403.9	529.35
1025.4029	2983.3364	1395.15	519.15
1025.5156	2984.4077	1371.65	495.8
1025.6282	2985.4783	1372.8	493.25
1025.7407	2986.5483	1348.25	474.15
1025.8532	2987.6177	1335.55	460.9
1025.9657	2988.6864	1307.8	432.7
1026.0782	2989.7545	1297.7	422.15
1026.1906	2990.8219	1275.1	400.5
1026.3029	2991.8887	1264.2	386.15
1026.4152	2992.9548	1244.25	367.5
1026.5275	2994.0204	1226.85	351.8
1026.6397	2995.0852	1208.05	334.2
1026.7519	2996.1495	1201	325.6
1026.864	2997.2131	1184.6	307.35
1026.9761	2998.276	1173.55	298.4
1027.0882	2999.3383	1160.85	284.1
1027.2002	3000.4	1151.55	275.7
1027.3122	3001.4611	1139	263.75
1027.4241	3002.5215	1131.7	256.7
1027.536	3003.5812	1118.5	243.15
1027.6478	3004.6404	1116.7	240.4
1027.7596	3005.6989	1114.35	237.95
1027.8714	3006.7567	1104.5	228.9
1027.9831	3007.8139	1126	221.95
1028.0947	3008.8705	1090.3	214.55
1028.2064	3009.9264	1089.25	209.4
1028.3179	3010.9818	1081.4	205.2
1028.4295	3012.0364	1076.3	201.6
1028.541	3013.0905	1071.65	196.45
1028.6524	3014.1439	1073.7	196.9
1028.7638	3015.1966	1068.9	195
1028.8752	3016.2487	1067.95	192.6
1028.9865	3017.3002	1065.8	186.55
1029.0978	3018.3511	1056	181.05
1029.209	3019.4013	1059.25	182.35
1029.3202	3020.4509	1055.6	180.95
1029.4314	3021.4998	1058.25	181.35
1029.5425	3022.5481	1056.35	182.45
1029.6535	3023.5958	1053.75	179.5
1029.7645	3024.6428	1056.9	180.9
1029.8755	3025.6892	1053.4	179
1029.9864	3026.735	1056.1	180.95
1030.0973	3027.7802	1051.95	175.6
1030.2082	3028.8247	1049.7	174.7
1030.319	3029.8685	1050.1	175.4
1030.4297	3030.9118	1045.6	167.05
1030.5404	3031.9544	1052.2	178.55
1030.6511	3032.9963	1049.4	173.85
1030.7617	3034.0376	1055.25	180.4
1030.8723	3035.0783	1057	178.55
1030.9829	3036.1184	1057.85	181.55
1031.0934	3037.1578	1056.2	181.8
1031.2038	3038.1966	1055.9	180.5
1031.3142	3039.2348	1053	179
1031.4246	3040.2723	1068.8	184.35
1031.5349	3041.3092	1059.9	185.35
1031.6452	3042.3455	1059.15	182.35
1031.7554	3043.3811	1057.15	181.05
1031.8656	3044.4161	1058.65	183.35
1031.9758	3045.4505	1059.9	185.95
1032.0859	3046.4842	1057.35	180.75
1032.1959	3047.5173	1052.55	179.7
1032.3059	3048.5498	1053.4	178.5
1032.4159	3049.5816	1057.5	181.9
1032.5258	3050.6128	1053.25	177.5
1032.6357	3051.6434	1055.55	179.6
1032.7455	3052.6734	1056.6	180.1
1032.8553	3053.7027	1052.45	177.5
1032.9651	3054.7314	1048.3	171.95
1033.0748	3055.7594	1048.35	174.65
1033.1845	3056.7868	1053.55	177.3
1033.2941	3057.8136	1041.55	168.4
1033.4037	3058.8398	1047.3	172.35
1033.5132	3059.8653	1045.1	171.2
1033.6227	3060.8902	1043.1	169.85
1033.7321	3061.9145	1043.8	168.9
1033.8415	3062.9381	1044.1	167.3
1033.9509	3063.9612	1060.35	170.3
1034.0602	3064.9835	1041.6	168.3
1034.1694	3066.0053	1044.85	166.35
1034.2787	3067.0264	1038.15	162.7
1034.3878	3068.0469	1038.1	161.15
1034.497	3069.0668	1038.25	160.6
1034.6061	3070.086	1031.9	157.35
1034.7151	3071.1046	1029.85	153.65
1034.8241	3072.1226	1031.9	155.95
1034.9331	3073.1399	1026	150.5
1035.042	3074.1567	1022.55	147.5
1035.1508	3075.1727	1019.95	144.05
1035.2597	3076.1882	1021.2	147.15
1035.3684	3077.203	1014.45	140.05
1035.4772	3078.2173	1014.95	136.5
1035.5859	3079.2308	1010.6	132.8
1035.6945	3080.2438	1008.3	128.85
1035.8031	3081.2561	999.95	124.4
1035.9117	3082.2678	1001.55	128.15
1036.0202	3083.2789	991.3	115.8
1036.1286	3084.2893	993.9	118.45
1036.2371	3085.2991	991.05	116.6
1036.3454	3086.3083	988.15	107
1036.4538	3087.3169	987.65	111.6
1036.562	3088.3248	984.5	106.9
1036.6703	3089.3321	983.5	106.35
1036.7785	3090.3388	978.7	106.3
1036.8866	3091.3449	975.7	100.55
1036.9948	3092.3503	976.9	99.4
1037.1028	3093.3551	974.65	101.65
1037.2108	3094.3593	973.05	99.1
1037.3188	3095.3629	972.15	97.25
1037.4267	3096.3658	971.75	96.5
1037.5346	3097.3681	970.15	96.65
1037.6425	3098.3698	968.25	90.7
1037.7503	3099.3708	970.95	89.8
1037.858	3100.3713	965.1	91.5
1037.9657	3101.3711	963.5	89.4
1038.0734	3102.3702	1094.95	82.15
1038.181	3103.3688	960.15	85.85
1038.2886	3104.3667	957.4	84.3
1038.3961	3105.364	959.7	87.75
1038.5036	3106.3607	958.35	82.25
1038.611	3107.3568	955.35	80.1
1038.7184	3108.3522	954.65	81.8
1038.8257	3109.347	957.9	81.55
1038.933	3110.3412	957.95	80.8
1039.0403	3111.3348	951.3	75.95
1039.1475	3112.3277	949.8	75.75
1039.2547	3113.32	946.3	73.5
1039.3618	3114.3117	948.2	74.1
1039.4689	3115.3028	947.2	70.55
1039.5759	3116.2932	947.05	71.2
1039.6829	3117.2831	951.9	72.25
1039.7898	3118.2723	946.8	71
1039.8967	3119.2608	941.55	67.3
1040.0035	3120.2488	944.45	70.1
1040.1103	3121.2361	943.25	67.6
1040.2171	3122.2229	938.35	62.65
1040.3238	3123.209	939.65	65
1040.4305	3124.1944	943.1	70.45
1040.5371	3125.1793	943.2	66.85
1040.6437	3126.1635	939	64.15
1040.7502	3127.1471	938.4	63.85
1040.8567	3128.1301	937.6	62.45
1040.9631	3129.1125	937.75	63.6
1041.0695	3130.0942	937.8	63.3
1041.1759	3131.0753	945.55	62.25
1041.2822	3132.0558	936.3	60.45
1041.3884	3133.0357	935.75	59.75
1041.4946	3134.015	933.15	57.65
1041.6008	3134.9936	935.85	59.8
1041.7069	3135.9716	956.1	61.7
1041.813	3136.949	933.05	59.8
1041.919	3137.9258	949.25	56.35
1042.025	3138.902	940.35	61.5
1042.1309	3139.8775	931.9	58.95
1042.2368	3140.8524	928	53.2
1042.3427	3141.8267	932	54.85
1042.4485	3142.8004	930.15	53.1
1042.5542	3143.7735	935.65	55.7
1042.6599	3144.7459	930.15	53.75
1042.7656	3145.7178	928.95	52.8
1042.8712	3146.689	929.25	54.2
1042.9768	3147.6596	928.45	52.35
1043.0823	3148.6295	927.65	52.45
1043.1878	3149.5989	927.7	52.4
1043.2932	3150.5676	924.4	50.45
1043.3986	3151.5357	923.75	51.55
1043.5039	3152.5032	923.6	48.7
1043.6092	3153.4701	927.65	53.8
1043.7145	3154.4364	926.45	48.3
1043.8197	3155.402	923.8	49.65
1043.9248	3156.367	924.5	47.1
1044.03	3157.3315	958.65	48.75
1044.135	3158.2952	925.85	53.8
1044.24	3159.2584	920.65	45.85
1044.345	3160.221	920.9	46.25
1044.4499	3161.1829	921.1	45.8
1044.5548	3162.1442	921.2	47.85
1044.6596	3163.105	921.75	46.8
1044.7644	3164.065	921.7	48.6
1044.8692	3165.0245	923.45	46.55
1044.9739	3165.9834	920.8	47.05
1045.0785	3166.9416	919.45	46.65
1045.1831	3167.8993	918.4	43.65
1045.2877	3168.8563	917.55	41.75
1045.3922	3169.8127	919.55	45.95
1045.4966	3170.7684	917.2	43.75
1045.6011	3171.7236	918.55	43.7
1045.7054	3172.6782	918.45	45.55
1045.8098	3173.6321	919.75	44.35
1045.914	3174.5854	921.9	42.85
1046.0183	3175.5381	918.7	45.3
1046.1224	3176.4902	916.65	42.45
1046.2266	3177.4417	913.35	39.5
1046.3307	3178.3926	918	44.3
1046.4347	3179.3428	915.5	43.4
1046.5387	3180.2924	914	40.2
1046.6427	3181.2415	916.3	41.7
1046.7466	3182.1899	914.9	37.65
1046.8504	3183.1377	915.35	41.45
1046.9542	3184.0848	917.85	41.15
1047.058	3185.0314	913.4	37.2
1047.1617	3185.9773	915.6	41.6
1047.2654	3186.9227	915.4	39.6
1047.369	3187.8674	912.35	37.7
1047.4726	3188.8115	918.1	38.95
1047.5761	3189.755	912.7	39.4
1047.6796	3190.6979	912.9	37.65
1047.783	3191.6402	911.45	38.4
1047.8864	3192.5818	912.5	36.65
1047.9898	3193.5229	924.35	36.95
1048.0931	3194.4633	910.65	36.4
1048.1963	3195.4031	914.8	39.15
1048.2995	3196.3423	910.6	36.05
1048.4027	3197.2809	910.9	34.8
1048.5058	3198.2189	913.7	39.55
1048.6089	3199.1563	927.85	35.95
1048.7119	3200.0931	908.3	35.1
1048.8148	3201.0292	908.2	34.95
1048.9178	3201.9648	911.45	37.5
1049.0206	3202.8997	913.15	35.4
1049.1235	3203.834	910.4	36.4
1049.2262	3204.7677	909	36.1
1049.329	3205.7008	910.35	34.35
1049.4317	3206.6333	908.65	35.25
1049.5343	3207.5652	910.6	35.45
1049.6369	3208.4964	910.1	33.4
1049.7394	3209.4271	908.4	34.6
1049.8419	3210.3571	908.85	35.05
1049.9444	3211.2865	908.75	33.75
1050.0468	3212.2154	906.9	33.6
1050.1491	3213.1436	909.9	33.15
1050.2514	3214.0712	913.35	32.75
1050.3537	3214.9982	906.55	33.75
1050.4559	3215.9246	904.7	29.75
1050.5581	3216.8503	907.05	32.45
1050.6602	3217.7755	903.5	28.55
1050.7623	3218.7001	906.45	32.35
1050.8643	3219.624	906.85	35.4
1050.9663	3220.5473	906.25	31.4
1051.0682	3221.4701	908.6	33.3
1051.1701	3222.3922	906.3	27.8
1051.2719	3223.3137	906.5	33.55
1051.3737	3224.2346	904.6	30.95
1051.4754	3225.1549	903.2	30
1051.5771	3226.0746	902.6	28.9
1051.6788	3226.9937	905.1	31.35
1051.7804	3227.9121	903.35	31.1
1051.8819	3228.83	904.55	32.65
1051.9834	3229.7473	902.8	28.4
1052.0849	3230.6639	905.25	29.75
1052.1863	3231.5799	902.75	29
1052.2876	3232.4954	904.55	30.4
1052.3889	3233.4102	901.2	26.9
1052.4902	3234.3244	903.35	29.95
1052.5914	3235.238	903.05	28.65
1052.6926	3236.151	925.3	29.7
1052.7937	3237.0634	901.15	29.45
1052.8948	3237.9752	903.6	29.7
1052.9958	3238.8864	901.95	25.1
1053.0968	3239.797	901.55	26.65
1053.1977	3240.7069	903	27.65
1053.2986	3241.6163	903.15	27
1053.3994	3242.5251	900.75	28.2
1053.5002	3243.4332	897.95	23.1
1053.6009	3244.3408	901.25	26.95
1053.7016	3245.2477	899.35	25
1053.8022	3246.154	899.3	24.4
1053.9028	3247.0598	902.4	28.05
1054.0034	3247.9649	899.5	24.15
1054.1039	3248.8694	901.85	26.1
1054.2043	3249.7733	898.75	24.75
1054.3047	3250.6766	900.35	26.35
1054.4051	3251.5793	900.5	26.4
1054.5054	3252.4814	897.5	24.9
1054.6056	3253.3829	896	23.75
1054.7058	3254.2838	900.45	27.55
1054.806	3255.1841	898.85	25
1054.9061	3256.0838	896.95	23.4
1055.0061	3256.9829	897.4	24.4
1055.1062	3257.8814	900.1	22.9
1055.2061	3258.7792	899.7	23.3
1055.306	3259.6765	898.15	21.55
1055.4059	3260.5731	897.75	23.05
1055.5057	3261.4692	895.9	21.35
1055.6055	3262.3647	896.1	20.1
1055.7052	3263.2595	897.5	22.95
1055.8049	3264.1538	895.15	20.4
1055.9045	3265.0474	894.6	18.1
1056.0041	3265.9404	893.95	19.8
1056.1036	3266.8329	894.75	19.35
1056.2031	3267.7247	905	21.2
1056.3025	3268.616	894.4	22.6
1056.4019	3269.5066	893.45	17.3
1056.5013	3270.3966	894.3	16.7
1056.6005	3271.286	892.75	18.05
