Software Version:	3.9.2.0
Unit SN:	10000200
Spectrometer SN:	6960
Date:	3/8/2024 11:34:07 AM
Data Line Index:	25
Spectral Points:	2048
Integration time (ms):	125
Averages:	20
Delay (ms):	30000
Sequence Number:	1
Processing:	dark subtract
Laser Power (mW):	305
Laser Current (mA):	822
Laser Diode Temp (C):	25
Laser Case Temp (C):	25.1
System Temp (C):	25
Spectrometer Temp (C):	23
CCD Temp (C):	0.008
Secondary Temp (C):	20.008
Heatsink Temp (C):	19.937
CCDPCB Temp (C):	33.172
SecondaryPCB Temp (C):	26.725

Wavelength	RamanShift	Raw Counts	Dark Subtracted
787.061	30.1047	415.75	5.1
787.2016	32.3739	414.3	7.95
787.3422	34.6426	415	6.7
787.4828	36.9109	417.55	7.95
787.6235	39.1787	420.7	6.5
787.7642	41.4461	427.55	8.85
787.9049	43.7131	432	9.35
788.0456	45.9796	433.95	10.15
788.1863	48.2456	437.85	8.45
788.3271	50.5112	444.2	10.9
788.4679	52.7764	447.35	12.85
788.6087	55.0411	450.1	10.05
788.7496	57.3054	457.05	13.2
788.8904	59.5692	460.4	13.85
789.0313	61.8326	464.3	15.35
789.1722	64.0955	469	17.45
789.3132	66.3579	475.2	18.9
789.4541	68.6199	481.75	20.9
789.5951	70.8815	493.4	29.5
789.7361	73.1426	512.2	43.15
789.8771	75.4032	546.1	74.4
790.0181	77.6634	623.4	147.75
790.1592	79.9231	806.8	328.45
790.3003	82.1824	1186.05	700.55
790.4414	84.4412	1798.75	1301.75
790.5825	86.6995	2573.85	2064.7
790.7237	88.9574	3317.8	2797.75
790.8648	91.2148	3805.45	3278.75
791.006	93.4717	4036.1	3505.9
791.1472	95.7282	4053.55	3519.65
791.2885	97.9842	4036	3498.8
791.4297	100.2398	3965.8	3424.8
791.571	102.4949	3923.05	3381.25
791.7123	104.7495	3888.5	3341.8
791.8536	107.0036	3838.2	3291.6
791.9949	109.2573	3747.2	3202.05
792.1363	111.5105	3664.4	3112.5
792.2777	113.7632	3541.95	2991.9
792.4191	116.0154	3447.75	2883.95
792.5605	118.2672	3334.45	2779.75
792.7019	120.5185	3223.6	2664.3
792.8434	122.7693	3122.7	2562.25
792.9849	125.0197	3032.65	2467.8
793.1264	127.2696	2953.95	2389
793.2679	129.519	2915.9	2346.25
793.4094	131.7679	2871.05	2297.75
793.551	134.0163	2850.5	2275.05
793.6926	136.2642	2839.55	2257.9
793.8342	138.5117	2815.6	2233.45
793.9758	140.7587	2793.45	2208.95
794.1175	143.0052	2747.1	2160.65
794.2591	145.2512	2703.2	2115.95
794.4008	147.4967	2638.15	2047.7
794.5425	149.7417	2596.85	2004.15
794.6842	151.9863	2577.65	1983.25
794.826	154.2304	2548.25	1949.3
794.9677	156.4739	2545.9	1939.65
795.1095	158.717	2555.45	1950.4
795.2513	160.9596	2582.35	1972.15
795.3931	163.2017	2615.55	2003.1
795.535	165.4433	2615.95	1999.9
795.6768	167.6844	2626.5	2010.9
795.8187	169.925	2589.15	1966.8
795.9606	172.1651	2538.7	1917.5
796.1025	174.4047	2487.85	1862.3
796.2445	176.6439	2439.35	1809.65
796.3864	178.8825	2412.8	1782.05
796.5284	181.1206	2395.3	1759.25
796.6704	183.3582	2380.1	1744.95
796.8124	185.5954	2381.55	1741.1
796.9544	187.832	2377.65	1731.9
797.0965	190.0681	2374.55	1726.35
797.2386	192.3037	2390.65	1739.6
797.3806	194.5388	2399.75	1746.3
797.5228	196.7734	2404.05	1750.1
797.6649	199.0075	2425.6	1770.65
797.807	201.2411	2453.4	1795.15
797.9492	203.4742	2465.75	1808.6
798.0914	205.7068	2500.3	1839.2
798.2336	207.9389	2514.85	1854.1
798.3758	210.1704	2536.3	1876
798.518	212.4015	2527	1875.25
798.6603	214.632	2525.35	1879.65
798.8025	216.862	2519.85	1876.25
798.9448	219.0915	2526.2	1884.4
799.0871	221.3205	2567.35	1921.55
799.2294	223.549	2558.55	1918
799.3718	225.777	2562.65	1920.7
799.5141	228.0044	2560.65	1910.15
799.6565	230.2314	2543.05	1892.2
799.7989	232.4578	2541.9	1885.65
799.9413	234.6837	2528.45	1864.6
800.0837	236.909	2520	1853.6
800.2262	239.1339	2522.95	1834.75
800.3687	241.3582	2493	1816.75
800.5111	243.582	2534.65	1831.3
800.6536	245.8053	2534.25	1841.25
800.7961	248.0281	2538.45	1849.65
800.9387	250.2503	2529.45	1836.8
801.0812	252.472	2555.45	1864
801.2238	254.6932	2550.25	1858.3
801.3664	256.9139	2562.65	1868.2
801.509	259.134	2572.6	1874.6
801.6516	261.3536	2601.8	1904.15
801.7942	263.5727	2645.15	1946.45
801.9369	265.7912	2690.65	1993.25
802.0795	268.0092	2753.35	2055.4
802.2222	270.2267	2822.8	2120.5
802.3649	272.4436	2878.35	2175.95
802.5076	274.6601	2918.9	2208.75
802.6504	276.8759	2938.3	2230.5
802.7931	279.0913	2957.3	2251.1
802.9359	281.3061	2977.1	2266.8
803.0787	283.5204	3001.8	2288.75
803.2215	285.7341	3023.55	2308.8
803.3643	287.9473	3054	2338.15
803.5071	290.16	3054.5	2335.7
803.6499	292.3721	3010.95	2300.15
803.7928	294.5837	2968.1	2254.05
803.9357	296.7947	2944.1	2231
804.0786	299.0052	2926.4	2210.8
804.2215	301.2152	2919.3	2200.85
804.3644	303.4246	2894.35	2178.7
804.5074	305.6334	2876.1	2158.45
804.6503	307.8418	2852.95	2131.6
804.7933	310.0495	2827.1	2105.75
804.9363	312.2568	2786.95	2065.9
805.0793	314.4635	2735.6	2010.5
805.2223	316.6696	2682.75	1958.4
805.3653	318.8752	2636.3	1900.95
805.5084	321.0802	2600.3	1872.6
805.6514	323.2847	2597.7	1870.45
805.7945	325.4887	2610.35	1880.9
805.9376	327.692	2621.5	1886.75
806.0807	329.8949	2668.45	1934.7
806.2238	332.0972	2725.45	1991.4
806.367	334.2989	2747.95	2007.7
806.5101	336.5001	2738.4	1999.2
806.6533	338.7007	2711.2	1972.7
806.7965	340.9008	2673.95	1933.85
806.9397	343.1003	2612.7	1869.2
807.0829	345.2992	2545.15	1801.1
807.2261	347.4976	2496.6	1751.2
807.3693	349.6955	2476.7	1728.45
807.5126	351.8927	2450.2	1699.4
807.6559	354.0895	2426.65	1665.15
807.7991	356.2856	2432.75	1679.05
807.9424	358.4812	2416.15	1664.7
808.0857	360.6763	2405.3	1650.35
808.2291	362.8707	2415.3	1659.8
808.3724	365.0646	2413.7	1653.6
808.5158	367.258	2424.75	1662.95
808.6591	369.4508	2437.6	1671.65
808.8025	371.643	2467.9	1703.7
808.9459	373.8346	2496.9	1733.65
809.0893	376.0257	2533.95	1766.4
809.2327	378.2162	2558.3	1792.95
809.3762	380.4062	2567.35	1799.35
809.5196	382.5956	2548.6	1784.35
809.6631	384.7844	2511.85	1749.8
809.8066	386.9726	2454.45	1693.3
809.9501	389.1603	2424.3	1665.4
810.0936	391.3474	2433.05	1640.65
810.2371	393.5339	2414.45	1651.3
810.3806	395.7199	2405.9	1647.35
810.5241	397.9052	2449.55	1687.75
810.6677	400.09	2486	1723.95
810.8113	402.2743	2537.3	1775.65
810.9548	404.4579	2576.6	1813.35
811.0984	406.641	2634.2	1868.7
811.2421	408.8235	2687.05	1921.45
811.3857	411.0054	2733	1961.85
811.5293	413.1868	2786.65	2013.2
811.673	415.3675	2847.05	2070.85
811.8166	417.5477	2840.65	2062.65
811.9603	419.7273	2784.05	2004
812.104	421.9064	2702.7	1917
812.2477	424.0848	2635.3	1853.65
812.3914	426.2627	2569.35	1785.9
812.5351	428.4399	2489.2	1708.55
812.6788	430.6166	2432.3	1647.55
812.8226	432.7928	2384.1	1597.8
812.9663	434.9683	2358.3	1567.85
813.1101	437.1432	2326.6	1535.25
813.2539	439.3176	2301.2	1513.3
813.3977	441.4914	2293.3	1506.55
813.5415	443.6645	2290.5	1502.05
813.6853	445.8371	2279.85	1489.2
813.8291	448.0091	2277.8	1490.35
813.973	450.1806	2273.75	1485.15
814.1168	452.3514	2268.4	1476.5
814.2607	454.5216	2281.45	1479.3
814.4046	456.6913	2280.1	1485.05
814.5485	458.8603	2289.4	1497.3
814.6924	461.0288	2282.15	1490
814.8363	463.1967	2282.45	1491.95
814.9802	465.3639	2287.85	1496.65
815.1241	467.5306	2275.35	1479.6
815.2681	469.6967	2258.1	1464.95
815.412	471.8622	2257.45	1467.15
815.556	474.0271	2249.9	1456.4
815.7	476.1914	2251.45	1455.1
815.844	478.3551	2236.45	1439.05
815.988	480.5182	2246.15	1450.05
816.132	482.6807	2243.4	1445.45
816.276	484.8426	2262.2	1467.65
816.4201	487.0039	2310.95	1514.55
816.5641	489.1647	2373.05	1573
816.7082	491.3248	2418.15	1618.45
816.8522	493.4843	2431.55	1631.4
816.9963	495.6432	2430.65	1627.9
817.1404	497.8015	2392.05	1586.8
817.2845	499.9592	2349.35	1545.45
817.4286	502.1163	2287.55	1483.05
817.5727	504.2728	2257.25	1451
817.7168	506.4287	2217.1	1414.45
817.861	508.5839	2209	1405.1
818.0051	510.7386	2190.95	1387.2
818.1493	512.8927	2197.85	1382.7
818.2935	515.0461	2212.9	1405.05
818.4377	517.199	2226.4	1419.3
818.5818	519.3512	2281.85	1469.8
818.726	521.5029	2351.8	1538.45
818.8703	523.6539	2414.4	1602.65
819.0145	525.8043	2431.55	1620.5
819.1587	527.9541	2371.15	1557.85
819.303	530.1033	2276.55	1462.05
819.4472	532.2519	2248.15	1434.75
819.5915	534.3999	2207.15	1391.7
819.7357	536.5472	2202	1389.5
819.88	538.694	2196.1	1381.9
820.0243	540.8401	2219.55	1404.4
820.1686	542.9856	2232.75	1414.6
820.3129	545.1305	2255.3	1433.35
820.4572	547.2748	2269.95	1450.05
820.6016	549.4185	2281.3	1462.35
820.7459	551.5615	2286.95	1468.35
820.8902	553.704	2300.45	1483.4
821.0346	555.8458	2320.15	1501.7
821.1789	557.987	2359.65	1542.95
821.3233	560.1276	2381	1561.3
821.4677	562.2675	2437.4	1619.15
821.6121	564.4069	2503	1683.8
821.7565	566.5456	2550.2	1734.1
821.9009	568.6837	2540.55	1721.65
822.0453	570.8212	2452.1	1632.8
822.1897	572.958	2352.75	1530.65
822.3342	575.0942	2298.75	1481.2
822.4786	577.2299	2266.85	1445.65
822.6231	579.3648	2229.4	1409.2
822.7675	581.4992	2209.5	1391
822.912	583.6329	2236	1418.7
823.0565	585.766	2260	1440.65
823.201	587.8985	2308.65	1486.9
823.3454	590.0304	2366.25	1530
823.4899	592.1616	2406.8	1578.25
823.6345	594.2922	2396	1567.9
823.779	596.4222	2347.45	1518.75
823.9235	598.5515	2282.45	1455.75
824.068	600.6802	2236	1406.5
824.2126	602.8083	2170.05	1343.55
824.3571	604.9358	2174.95	1345.3
824.5017	607.0626	2164.6	1337.7
824.6462	609.1888	2180.85	1350
824.7908	611.3144	2200.8	1368.75
824.9354	613.4393	2244.75	1413.85
825.08	615.5636	2307	1476.05
825.2246	617.6873	2352.25	1520.95
825.3692	619.8103	2390.45	1558.15
825.5138	621.9327	2389.1	1554.2
825.6584	624.0544	2348.4	1519.2
825.803	626.1756	2278.95	1447.75
825.9477	628.2961	2227.05	1395.2
826.0923	630.4159	2209.2	1375.25
826.237	632.5351	2200.3	1365.15
826.3816	634.6537	2181.9	1347.35
826.5263	636.7716	2179.5	1340.8
826.6709	638.8889	2166.35	1329.5
826.8156	641.0056	2171.5	1334.75
826.9603	643.1216	2187.75	1350.2
827.105	645.237	2192.05	1352.5
827.2497	647.3518	2159.2	1322.75
827.3944	649.4659	2145.25	1311.05
827.5391	651.5793	2125.45	1289.35
827.6838	653.6922	2105.8	1270.1
827.8285	655.8043	2096	1260.7
827.9733	657.9159	2082.2	1243.85
828.118	660.0268	2062.1	1219.6
828.2627	662.137	2075.25	1235.65
828.4075	664.2466	2067.2	1224.25
828.5522	666.3556	2070.4	1230.65
828.697	668.4639	2048.35	1206.7
828.8418	670.5716	2052.7	1214
828.9865	672.6786	2051.75	1210.05
829.1313	674.785	2033.15	1188.05
829.2761	676.8907	2031.15	1188
829.4209	678.9958	2034.55	1193.75
829.5657	681.1002	2030.4	1187.85
829.7105	683.204	2040.15	1189.9
829.8553	685.3072	2045.95	1200.65
830.0001	687.4097	2034.25	1188.65
830.1449	689.5115	2034.4	1188.55
830.2898	691.6127	2027.7	1182.2
830.4346	693.7132	2024.75	1181.1
830.5794	695.8131	2034.15	1177
830.7243	697.9123	2038.1	1187.95
830.8691	700.0109	2039.75	1193.05
831.014	702.1089	2042.4	1196.45
831.1588	704.2061	2063.2	1215.55
831.3037	706.3028	2084.25	1236.3
831.4486	708.3987	2111.3	1261.6
831.5935	710.4941	2127.8	1280.2
831.7383	712.5887	2134	1286.7
831.8832	714.6827	2133.4	1284.2
832.0281	716.7761	2112.5	1265.65
832.173	718.8688	2109.85	1258.5
832.3179	720.9608	2117.75	1261.75
832.4628	723.0522	2136.75	1279.75
832.6077	725.1429	2160.5	1309.15
832.7527	727.233	2200.15	1349.1
832.8976	729.3224	2277.3	1427.9
833.0425	731.4112	2326.2	1475.15
833.1874	733.4993	2339.3	1485.1
833.3324	735.5867	2280.55	1425.2
833.4773	737.6735	2199	1341.8
833.6222	739.7596	2132.65	1278.7
833.7672	741.845	2103.4	1249.3
833.9122	743.9298	2096.3	1239.4
834.0571	746.014	2103.05	1249.6
834.2021	748.0974	2104.85	1247.6
834.347	750.1802	2114.4	1257.65
834.492	752.2624	2105.8	1251.2
834.637	754.3439	2095.85	1238.95
834.782	756.4247	2106.1	1243.25
834.9269	758.5048	2097.9	1243.15
835.0719	760.5843	2118.65	1260.05
835.2169	762.6631	2157.6	1299.9
835.3619	764.7413	2210.75	1355.45
835.5069	766.8188	2307.25	1448.85
835.6519	768.8956	2402.5	1545.35
835.7969	770.9718	2455.5	1599.9
835.9419	773.0473	2454.55	1597.95
836.0869	775.1221	2413.95	1556.7
836.232	777.1962	2393.95	1533.95
836.377	779.2697	2467.45	1607.75
836.522	781.3426	2575.05	1699.05
836.667	783.4147	2645.3	1786.15
836.8121	785.4862	2618.35	1761.2
836.9571	787.557	2540.3	1681.85
837.1021	789.6271	2394.55	1537.45
837.2472	791.6966	2246.65	1388.15
837.3922	793.7654	2145	1285.3
837.5373	795.8335	2089.15	1230.1
837.6823	797.901	2052.1	1193
837.8274	799.9678	2036.65	1171.8
837.9724	802.0339	2033.45	1173.4
838.1175	804.0993	2051.35	1178.95
838.2626	806.1641	2018.7	1157.65
838.4076	808.2282	2011.25	1148.7
838.5527	810.2916	2001.75	1137.2
838.6978	812.3544	1975.95	1115.85
838.8428	814.4164	1970.25	1109.6
838.9879	816.4778	1983.4	1121.75
839.133	818.5385	1990.4	1127.2
839.2781	820.5986	2025.5	1162.35
839.4232	822.658	2078.8	1214.35
839.5682	824.7166	2152.45	1291.25
839.7133	826.7747	2248.35	1387.3
839.8584	828.832	2344.2	1480.05
840.0035	830.8886	2400.15	1534.7
840.1486	832.9446	2433.55	1567.1
840.2937	834.9999	2401.8	1537.95
840.4388	837.0545	2317.65	1448
840.5839	839.1085	2233.75	1370
840.729	841.1618	2138.4	1268.85
840.8741	843.2143	2085.1	1220.35
841.0192	845.2662	2038.95	1172.6
841.1643	847.3175	2022.4	1156.05
841.3095	849.368	2010.05	1143.85
841.4546	851.4179	2006.35	1142.45
841.5997	853.467	2008.7	1144.35
841.7448	855.5155	2011.55	1146.95
841.8899	857.5633	2022.35	1156.65
842.0351	859.6105	2012.75	1145.5
842.1802	861.6569	1992.55	1125.55
842.3253	863.7027	1981.2	1114.6
842.4704	865.7478	1973.15	1103.9
842.6156	867.7922	1966.25	1100.25
842.7607	869.8359	1950.4	1080.95
842.9058	871.8789	1944.75	1078.1
843.0509	873.9212	1978.8	1078.6
843.1961	875.9629	1958.55	1091.35
843.3412	878.0039	1970.8	1102.55
843.4863	880.0441	1977.25	1111.9
843.6315	882.0837	1996.4	1127.05
843.7766	884.1226	2034.7	1164.05
843.9218	886.1609	2077.6	1207.45
844.0669	888.1984	2131.05	1261.95
844.212	890.2352	2182.65	1314.3
844.3572	892.2714	2185.55	1312.9
844.5023	894.3069	2163.8	1293.7
844.6475	896.3416	2107.85	1237.4
844.7926	898.3757	2065.25	1196.8
844.9377	900.4091	2022.45	1149.75
845.0829	902.4418	2037.95	1160.3
845.228	904.4739	2054.55	1182.35
845.3732	906.5052	2075.3	1202.95
845.5183	908.5358	2064.5	1194.05
845.6635	910.5658	2050.4	1176.1
845.8086	912.595	1998.7	1127.3
845.9538	914.6236	1961.2	1089.55
846.0989	916.6515	1934.6	1063.1
846.2441	918.6786	1915.8	1043.6
846.3892	920.7051	1897.1	1023
846.5344	922.7309	1903.65	1030.95
846.6795	924.756	1891.1	1019
846.8246	926.7804	1921.4	1046.55
846.9698	928.8041	1917.1	1041.95
847.1149	930.8272	1934.55	1060.4
847.2601	932.8495	1955.5	1082.3
847.4052	934.8711	1957.7	1083.5
847.5504	936.892	1970.2	1096.45
847.6955	938.9123	1989	1116.15
847.8407	940.9318	2023.85	1149.4
847.9858	942.9506	2031.25	1157.3
848.131	944.9688	2024.15	1150.75
848.2761	946.9862	2000.25	1124.3
848.4213	949.003	1954.2	1078.4
848.5664	951.019	1928.4	1054.5
848.7115	953.0344	1904.75	1030.1
848.8567	955.0491	1888.85	1012.3
849.0018	957.063	1900	1026.95
849.147	959.0763	1894.2	1019.3
849.2921	961.0888	1881.45	1005.1
849.4373	963.1007	1876.1	1002.95
849.5824	965.1119	1866.9	990.55
849.7275	967.1223	1862.7	992.1
849.8727	969.1321	1857.05	986.05
850.0178	971.1412	1859.5	985.15
850.1629	973.1495	1852.4	976.55
850.3081	975.1572	1887	979.6
850.4532	977.1641	1857.6	981.25
850.5983	979.1704	1861	987.2
850.7435	981.1759	1853.5	973.45
850.8886	983.1808	1839.15	964.1
851.0337	985.1849	1845.15	960.75
851.1788	987.1884	1838.6	960.25
851.324	989.1911	1843.6	965.65
851.4691	991.1932	1850.75	974.85
851.6142	993.1945	1856.25	980.5
851.7593	995.1951	1845.45	968.55
851.9045	997.1951	1852.45	973.3
852.0496	999.1943	1835.6	959.8
852.1947	1001.1928	1849.3	969.35
852.3398	1003.1906	1848.45	972.2
852.4849	1005.1877	1881.5	1003.6
852.63	1007.1841	1904.35	1027.2
852.7751	1009.1798	1922.75	1047.55
852.9202	1011.1748	1910.6	1033.6
853.0653	1013.1691	1878.05	999.3
853.2104	1015.1627	1850.1	972.85
853.3555	1017.1556	1819.7	942.25
853.5006	1019.1477	1800.15	922.95
853.6457	1021.1392	1766.55	889.55
853.7908	1023.1299	1764.25	887.15
853.9359	1025.12	1765.4	891.15
854.081	1027.1093	1766.3	896.25
854.2261	1029.0979	1792.55	921.75
854.3712	1031.0859	1817.5	946.15
854.5163	1033.0731	1828.25	951.75
854.6613	1035.0596	1835.1	960.95
854.8064	1037.0454	1822.35	944.05
854.9515	1039.0304	1808.6	932.25
855.0965	1041.0148	1778.95	899.7
855.2416	1042.9985	1764.8	884.8
855.3867	1044.9814	1751.65	873.2
855.5317	1046.9636	1755.15	875.4
855.6768	1048.9452	1766.05	887.9
855.8219	1050.926	1772.6	896.8
855.9669	1052.9061	1794.75	918.25
856.112	1054.8855	1802.65	924.05
856.257	1056.8642	1805.75	925.55
856.4021	1058.8421	1805.85	922.4
856.5471	1060.8194	1791.05	912.05
856.6921	1062.7959	1793.3	913.2
856.8372	1064.7717	1789.9	910
856.9822	1066.7469	1788.15	907.4
857.1272	1068.7213	1786.7	906.15
857.2723	1070.695	1821.75	941
857.4173	1072.6679	1841.6	960.5
857.5623	1074.6402	1858.95	977.85
857.7073	1076.6117	1873.8	988.55
857.8523	1078.5826	1852	971.75
857.9973	1080.5527	1812.4	929.8
858.1423	1082.5221	1774.3	893.7
858.2873	1084.4908	1734.5	854.45
858.4323	1086.4587	1720.05	836.45
858.5773	1088.426	1706.15	825.6
858.7223	1090.3925	1709.05	824.8
858.8673	1092.3584	1722.1	841.8
859.0123	1094.3235	1730.35	851.15
859.1573	1096.2879	1746.5	864.6
859.3022	1098.2515	1776.8	894.6
859.4472	1100.2145	1808.15	929.6
859.5922	1102.1767	1843.15	958.2
859.7371	1104.1382	1889.95	1010.05
859.8821	1106.099	1938.6	1054.6
860.027	1108.0591	1994.2	1114.75
860.172	1110.0185	2036.45	1153.25
860.3169	1111.9771	2075.25	1194.05
860.4619	1113.9351	2128.25	1244.75
860.6068	1115.8923	2194.9	1313.4
860.7517	1117.8488	2225.35	1341.95
860.8967	1119.8045	2173.3	1292.05
861.0416	1121.7596	2070.9	1186.85
861.1865	1123.7139	1955.95	1074.45
861.3314	1125.6675	1895.3	1014.5
861.4763	1127.6204	1893.2	1011.25
861.6212	1129.5726	1925.4	1045.2
861.7661	1131.524	1923.85	1043.5
861.911	1133.4748	1870.5	989.85
862.0559	1135.4248	1805.2	921.25
862.2008	1137.3741	1761.8	878.7
862.3457	1139.3226	1734.2	853.4
862.4905	1141.2705	1726.7	843.05
862.6354	1143.2176	1739.85	852.7
862.7803	1145.164	1759.75	876.35
862.9251	1147.1097	1752	868.35
863.07	1149.0546	1733.25	851.1
863.2148	1150.9989	1700.1	817.95
863.3597	1152.9424	1674.45	792.45
863.5045	1154.8852	1665.3	786.15
863.6493	1156.8272	1660.05	778.3
863.7942	1158.7686	1656.3	766.15
863.939	1160.7092	1660.75	778.45
864.0838	1162.6491	1655.6	772.1
864.2286	1164.5883	1665	780.1
864.3734	1166.5267	1687.15	805.05
864.5182	1168.4644	1711.9	827.95
864.663	1170.4014	1746.45	861.45
864.8078	1172.3377	1797.95	915.8
864.9526	1174.2732	1847.85	967.2
865.0974	1176.2081	1949.3	1067.35
865.2421	1178.1421	2086.3	1200.1
865.3869	1180.0755	2206.05	1324.75
865.5317	1182.0082	2273.2	1390.8
865.6764	1183.9401	2250.1	1368.25
865.8212	1185.8713	2146.85	1265.05
865.9659	1187.8017	2009	1127.45
866.1106	1189.7315	1890.7	1014.45
866.2554	1191.6605	1838.45	933.35
866.4001	1193.5888	1759.9	879.05
866.5448	1195.5163	1731.9	849.55
866.6895	1197.4432	1708.2	823
866.8342	1199.3693	1687.85	806
866.9789	1201.2947	1675.2	790.2
867.1236	1203.2193	1661.9	777.7
867.2683	1205.1432	1663.05	778.85
867.413	1207.0664	1655.35	772.25
867.5576	1208.9889	1655.8	770.4
867.7023	1210.9106	1660.8	776.35
867.847	1212.8316	1667.75	787.95
867.9916	1214.7519	1681.15	788.1
868.1363	1216.6715	1696.95	814.35
868.2809	1218.5903	1712.6	831.65
868.4255	1220.5084	1719.35	834.75
868.5701	1222.4257	1733.7	850.75
868.7148	1224.3424	1748.45	866.2
868.8594	1226.2583	1768.3	878.65
869.004	1228.1735	1795.95	912.15
869.1486	1230.0879	1845.15	959.05
869.2932	1232.0016	1875.15	990.9
869.4377	1233.9146	1923.2	1040.2
869.5823	1235.8269	1942.85	1060
869.7269	1237.7384	1942.3	1058.45
869.8715	1239.6492	1935.3	1053
870.016	1241.5592	1970	1084.55
870.1606	1243.4686	2003.55	1121.3
870.3051	1245.3772	2080.85	1198.2
870.4496	1247.285	2186.65	1300.85
870.5941	1249.1922	2273.55	1389.5
870.7387	1251.0986	2343.6	1463.55
870.8832	1253.0042	2427.5	1542.7
871.0277	1254.9092	2512.6	1627.35
871.1722	1256.8134	2613.7	1730.3
871.3167	1258.7169	2701.65	1816.25
871.4611	1260.6196	2730.4	1847.55
871.6056	1262.5216	2752.9	1868.95
871.7501	1264.4229	2736.45	1853
871.8945	1266.3234	2702.7	1817.6
872.039	1268.2232	2646.95	1760.8
872.1834	1270.1223	2590.4	1705
872.3278	1272.0207	2560.1	1676.95
872.4723	1273.9183	2527.05	1635.65
872.6167	1275.8151	2525.5	1639.9
872.7611	1277.7113	2574	1689.05
872.9055	1279.6067	2664.8	1779.2
873.0499	1281.5014	2822.7	1934.45
873.1943	1283.3953	3010.85	2122.75
873.3386	1285.2885	3215.5	2332.7
873.483	1287.181	3351.35	2464.3
873.6274	1289.0727	3419.4	2537.75
873.7717	1290.9637	3355.85	2471.5
873.9161	1292.854	3255.9	2370.5
874.0604	1294.7435	3133.5	2248
874.2047	1296.6323	3023.75	2140.15
874.349	1298.5204	2925.75	2036.15
874.4933	1300.4077	2836.6	1950.7
874.6376	1302.2943	2768.2	1883.2
874.7819	1304.1802	2734.95	1851.55
874.9262	1306.0653	2684.75	1798.15
875.0705	1307.9497	2669.75	1785.8
875.2147	1309.8333	2630.85	1745.6
875.359	1311.7162	2580.95	1694.2
875.5032	1313.5984	2554.65	1667.05
875.6475	1315.4798	2545.25	1649.05
875.7917	1317.3605	2515.05	1625.05
875.9359	1319.2405	2518.9	1631.35
876.0801	1321.1197	2493.4	1606.2
876.2243	1322.9982	2463.1	1575.25
876.3685	1324.876	2363.25	1478.7
876.5127	1326.753	2259.3	1373.1
876.6569	1328.6293	2175.05	1289.3
876.801	1330.5048	2081	1191.7
876.9452	1332.3796	2006.75	1123
877.0893	1334.2537	1969.85	1061.8
877.2335	1336.127	1895.25	1009.95
877.3776	1337.9996	1873.05	990.35
877.5217	1339.8714	1847.35	959.55
877.6658	1341.7426	1870.05	942.7
877.8099	1343.6129	1821.8	935.8
877.954	1345.4826	1801.55	916.1
878.0981	1347.3515	1782.75	892.9
878.2422	1349.2196	1768.25	879.8
878.3862	1351.087	1760.9	875.55
878.5303	1352.9537	1757.65	871.7
878.6743	1354.8197	1751.3	864.8
878.8184	1356.6849	1767.15	883.4
878.9624	1358.5493	1786.8	900.7
879.1064	1360.4131	1814.05	928.75
879.2504	1362.276	1849.05	961.55
879.3944	1364.1383	1884.3	998.65
879.5384	1365.9998	1914.95	1022.6
879.6823	1367.8606	1895.15	1008.9
879.8263	1369.7206	1881.55	993.8
879.9702	1371.5799	1876	987
880.1142	1373.4384	1879.5	992.8
880.2581	1375.2962	1840.5	952.4
880.402	1377.1533	1792.55	907.35
880.5459	1379.0096	1734.3	848.6
880.6898	1380.8652	1700.35	815.1
880.8337	1382.7201	1674.25	788.65
880.9776	1384.5742	1649.95	764.15
881.1215	1386.4275	1628.05	740.85
881.2653	1388.2802	1594.75	709.8
881.4092	1390.132	1589.75	703
881.553	1391.9832	1587.2	697.05
881.6968	1393.8336	1576.55	689.8
881.8406	1395.6832	1562.75	676.05
881.9844	1397.5322	1565.1	678.45
882.1282	1399.3803	1548.25	656.85
882.272	1401.2278	1529.95	642.5
882.4158	1403.0745	1529.2	643.6
882.5595	1404.9204	1521.55	636.75
882.7033	1406.7656	1513.6	627.2
882.847	1408.6101	1513.75	626.5
882.9908	1410.4538	1506.35	618.6
883.1345	1412.2968	1509.05	623.95
883.2782	1414.139	1514.55	627.05
883.4219	1415.9805	1515.95	629.65
883.5656	1417.8213	1534.4	643.35
883.7092	1419.6613	1550.2	664.9
883.8529	1421.5006	1579.25	693.15
883.9965	1423.3391	1619	731.1
884.1402	1425.1769	1681.25	794.45
884.2838	1427.0139	1755.3	867.95
884.4274	1428.8502	1848.4	961.75
884.571	1430.6858	1915.9	1029.45
884.7146	1432.5206	1935.9	1049.85
884.8582	1434.3547	1938.55	1050.45
885.0018	1436.188	1912.35	1026
885.1453	1438.0206	1901.85	1014.4
885.2889	1439.8524	1883.85	995.05
885.4324	1441.6835	1885.2	999.35
885.5759	1443.5139	1892.3	1004.15
885.7194	1445.3435	1886.1	999.55
885.8629	1447.1724	1894.8	1008.55
886.0064	1449.0005	1885.7	999.4
886.1499	1450.8279	1889.7	1005.6
886.2933	1452.6545	1881.05	995.65
886.4368	1454.4804	1877.5	994.45
886.5802	1456.3056	1863.35	970.25
886.7237	1458.13	1843.8	958.2
886.8671	1459.9536	1810.25	922.55
887.0105	1461.7766	1773.65	887.9
887.1539	1463.5987	1749.15	859.95
887.2972	1465.4202	1698.65	812.05
887.4406	1467.2409	1661.6	773.5
887.584	1469.0608	1619.7	733.3
887.7273	1470.88	1592.8	705.45
887.8706	1472.6984	1563.85	678.5
888.0139	1474.5161	1538.85	648.75
888.1572	1476.3331	1530.5	644.65
888.3005	1478.1493	1515.6	629.8
888.4438	1479.9648	1517.45	631.1
888.5871	1481.7795	1505.3	620.5
888.7303	1483.5935	1502.3	616.8
888.8736	1485.4067	1510.15	621.35
889.0168	1487.2192	1512.8	626.35
889.16	1489.031	1516.85	627.05
889.3032	1490.842	1503.9	618.55
889.4464	1492.6522	1511.3	624.65
889.5896	1494.4618	1501.95	613.5
889.7327	1496.2705	1502.9	619.85
889.8759	1498.0785	1497.25	610.25
890.019	1499.8858	1490.2	603
890.1622	1501.6924	1478.85	593.1
890.3053	1503.4981	1472.25	586.5
890.4484	1505.3032	1468.2	583.35
890.5914	1507.1075	1459.75	571.8
890.7345	1508.911	1457.65	571.9
890.8776	1510.7138	1443.35	557.3
891.0206	1512.5159	1435.55	548.8
891.1637	1514.3172	1430.1	544.85
891.3067	1516.1178	1430.95	546.2
891.4497	1517.9176	1422.45	534.25
891.5927	1519.7166	1415.85	531.45
891.7357	1521.515	1419.25	526.1
891.8786	1523.3126	1407.55	519.9
892.0216	1525.1094	1401.8	512.95
892.1645	1526.9055	1395.05	511.15
892.3074	1528.7008	1396.3	511.45
892.4503	1530.4954	1390.35	498
892.5932	1532.2893	1384.15	498.45
892.7361	1534.0824	1388.5	498.6
892.879	1535.8747	1381.55	497.05
893.0218	1537.6663	1383.05	498.2
893.1647	1539.4572	1385.4	499.65
893.3075	1541.2473	1381.45	494.65
893.4503	1543.0367	1385.3	500.8
893.5931	1544.8253	1392.1	503.1
893.7359	1546.6132	1388.55	500.75
893.8787	1548.4003	1401	504.95
894.0214	1550.1867	1409.25	514.1
894.1642	1551.9723	1415.85	527.6
894.3069	1553.7572	1421.45	533.4
894.4496	1555.5414	1442.65	556.6
894.5923	1557.3247	1472.9	585.4
894.735	1559.1074	1508.25	623.65
894.8777	1560.8893	1545.45	662.65
895.0204	1562.6705	1582.7	697.4
895.163	1564.4509	1610.25	727.7
895.3056	1566.2305	1615.6	733.55
895.4482	1568.0094	1624.9	741.35
895.5908	1569.7876	1620.1	736.05
895.7334	1571.565	1621.8	737.15
895.876	1573.3417	1617.25	732.15
896.0186	1575.1176	1625.05	742.9
896.1611	1576.8928	1642.25	756
896.3036	1578.6672	1654.25	772.35
896.4461	1580.4409	1685.45	802.1
896.5886	1582.2138	1722.15	838.05
896.7311	1583.986	1755.65	872.25
896.8736	1585.7575	1800.1	916.05
897.0161	1587.5282	1844.65	962.65
897.1585	1589.2981	1864.8	982.25
897.3009	1591.0673	1875.45	991.2
897.4433	1592.8358	1890.1	1004.9
897.5857	1594.6035	1893.85	1007.05
897.7281	1596.3704	1879	993.1
897.8705	1598.1366	1853.85	970.55
898.0128	1599.9021	1835.65	952
898.1551	1601.6668	1803.95	918.6
898.2975	1603.4308	1782.35	898.9
898.4398	1605.194	1803.1	915.45
898.5821	1606.9564	1819	938.1
898.7243	1608.7182	1882.85	995.3
898.8666	1610.4791	1965.4	1085.1
899.0088	1612.2394	2066.15	1186.5
899.1511	1613.9988	2167.8	1286.6
899.2933	1615.7576	2246	1362.75
899.4355	1617.5156	2290.8	1401.75
899.5776	1619.2728	2245.2	1363.2
899.7198	1621.0293	2152.15	1268.9
899.862	1622.785	2041.5	1155.2
900.0041	1624.54	1909	1023.3
900.1462	1626.2942	1785.05	901
900.2883	1628.0477	1697.5	812.55
900.4304	1629.8005	1607.3	721.05
900.5725	1631.5525	1548.75	666.45
900.7145	1633.3037	1486.85	604.6
900.8566	1635.0542	1450.45	566.7
900.9986	1636.804	1417	533.55
901.1406	1638.553	1451.65	505.25
901.2826	1640.3013	1368.55	486.6
901.4245	1642.0488	1351.05	467.45
901.5665	1643.7955	1333.45	451.45
901.7085	1645.5416	1325.2	442.25
901.8504	1647.2868	1310.85	429.15
901.9923	1649.0313	1304.25	423.25
902.1342	1650.7751	1301.55	416.35
902.2761	1652.5181	1300.7	418.2
902.4179	1654.2604	1298.85	414.15
902.5598	1656.0019	1300.7	418.75
902.7016	1657.7427	1311.8	427.3
902.8434	1659.4828	1328.2	443.75
902.9852	1661.222	1359.85	475.4
903.127	1662.9606	1397.35	515
903.2687	1664.6984	1423.65	539.4
903.4105	1666.4354	1434.05	550.55
903.5522	1668.1717	1414	530.9
903.6939	1669.9072	1368	484.65
903.8356	1671.642	1327.55	442.1
903.9773	1673.3761	1290.35	405.65
904.119	1675.1094	1262.2	378.55
904.2606	1676.8419	1238.05	356.55
904.4022	1678.5737	1225.55	339.2
904.5439	1680.3048	1223.6	340.85
904.6855	1682.0351	1205.45	321.15
904.827	1683.7646	1204.5	317.75
904.9686	1685.4934	1194.7	311.4
905.1101	1687.2215	1198.05	311.8
905.2517	1688.9488	1185.85	302.6
905.3932	1690.6754	1180.6	297.65
905.5347	1692.4012	1177.2	294.9
905.6761	1694.1263	1172.15	288.9
905.8176	1695.8506	1181.75	298.15
905.9591	1697.5742	1172.95	289.65
906.1005	1699.297	1167.2	284.7
906.2419	1701.0191	1169.5	287.65
906.3833	1702.7404	1155.6	273.6
906.5246	1704.461	1164.1	278.55
906.666	1706.1808	1159.3	274.65
906.8073	1707.8999	1155.05	272.65
906.9487	1709.6182	1151.9	269.4
907.09	1711.3358	1149.3	267.65
907.2313	1713.0527	1150.9	268.25
907.3725	1714.7688	1159.3	271.35
907.5138	1716.4841	1152	269.55
907.655	1718.1987	1155.1	267.25
907.7962	1719.9126	1144.6	265
907.9374	1721.6257	1145.25	260.05
908.0786	1723.338	1145	263.25
908.2198	1725.0496	1139.2	256.4
908.3609	1726.7605	1142.85	260.3
908.502	1728.4706	1143.6	259.7
908.6431	1730.18	1140.4	257.85
908.7842	1731.8886	1135.45	251.95
908.9253	1733.5964	1157.65	254.1
909.0664	1735.3036	1140.95	256.45
909.2074	1737.0099	1135.5	251.55
909.3484	1738.7156	1136.85	255.8
909.4894	1740.4204	1129.85	245.3
909.6304	1742.1246	1134.8	252.35
909.7714	1743.8279	1131.25	248.4
909.9123	1745.5306	1136.6	254.55
910.0532	1747.2325	1129.6	247.95
910.1941	1748.9336	1124.65	243.5
910.335	1750.634	1131.05	247.95
910.4759	1752.3336	1128	246.5
910.6168	1754.0325	1125.6	244.05
910.7576	1755.7307	1128.15	245.6
910.8984	1757.4281	1127.7	244.3
911.0392	1759.1247	1138.55	245.65
911.18	1760.8206	1135.15	245.1
911.3208	1762.5158	1133.8	247.6
911.4615	1764.2102	1127.2	243.8
911.6022	1765.9039	1125.65	245.9
911.7429	1767.5968	1120.4	236.75
911.8836	1769.289	1123.8	240.6
912.0243	1770.9804	1119.95	236.25
912.1649	1772.6711	1123.5	240.8
912.3056	1774.361	1119.55	236.2
912.4462	1776.0502	1119.3	236.85
912.5868	1777.7386	1123.8	238.25
912.7274	1779.4263	1117.3	234.85
912.8679	1781.1132	1116.45	233.9
913.0084	1782.7994	1122.45	238.6
913.149	1784.4849	1116.7	235.3
913.2895	1786.1696	1132.3	229.75
913.4299	1787.8535	1118.4	238.2
913.5704	1789.5367	1114.1	230.2
913.7108	1791.2192	1114.95	233.25
913.8513	1792.9009	1131.35	224
913.9917	1794.5818	1116.55	231.05
914.132	1796.2621	1115.05	231.8
914.2724	1797.9415	1108.55	223.5
914.4128	1799.6202	1103.1	219.6
914.5531	1801.2982	1105.2	222.25
914.6934	1802.9755	1111.2	226.55
914.8337	1804.6519	1107.55	225.15
914.9739	1806.3277	1102.85	220.55
915.1142	1808.0027	1105.7	225.35
915.2544	1809.6769	1102.85	221.5
915.3946	1811.3504	1110.25	228.95
915.5348	1813.0231	1103.25	221.9
915.675	1814.6951	1102.75	221.7
915.8151	1816.3664	1102.85	217.1
915.9553	1818.0369	1103.85	221.95
916.0954	1819.7067	1102.45	223.3
916.2355	1821.3757	1104.5	220.75
916.3755	1823.044	1105.3	220.95
916.5156	1824.7115	1099.8	217.2
916.6556	1826.3783	1093.85	211.5
916.7956	1828.0443	1098.35	215.45
916.9356	1829.7096	1095	211.55
917.0756	1831.3741	1102.55	216
917.2155	1833.0379	1100.25	218.3
917.3555	1834.701	1094.8	212
917.4954	1836.3633	1098.9	216.8
917.6353	1838.0248	1096.4	213.5
917.7751	1839.6856	1095.55	213.25
917.915	1841.3457	1094.2	212.7
918.0548	1843.005	1094.8	214.1
918.1946	1844.6636	1094.55	214.05
918.3344	1846.3214	1086.5	203.9
918.4742	1847.9785	1094.9	213.1
918.6139	1849.6349	1091.6	207.9
918.7537	1851.2904	1103.3	213.6
918.8934	1852.9453	1090.85	206.55
919.0331	1854.5994	1094.15	207.55
919.1727	1856.2528	1093.7	205.75
919.3124	1857.9054	1086.65	203.1
919.452	1859.5572	1088.2	205.85
919.5916	1861.2083	1085.05	201.4
919.7312	1862.8587	1088.3	207.35
919.8708	1864.5084	1084.3	200.7
920.0103	1866.1572	1088.55	205.8
920.1498	1867.8054	1087.85	205.3
920.2893	1869.4528	1082.55	200.3
920.4288	1871.0994	1087.2	202.85
920.5683	1872.7453	1085.7	201.05
920.7077	1874.3905	1087	198
920.8471	1876.0349	1090.85	206.3
920.9865	1877.6786	1081.9	198.55
921.1259	1879.3215	1081.85	197.55
921.2653	1880.9637	1083.45	200.95
921.4046	1882.6051	1080.7	198.75
921.5439	1884.2458	1083.95	200
921.6832	1885.8858	1081.3	198.45
921.8225	1887.525	1081.9	200
921.9617	1889.1634	1078.65	193.85
922.101	1890.8011	1075.7	189.6
922.2402	1892.4381	1073.95	192.55
922.3794	1894.0743	1076.45	192.25
922.5185	1895.7098	1076.6	194.35
922.6577	1897.3446	1075.7	192.7
922.7968	1898.9786	1078.25	190.85
922.9359	1900.6118	1073.4	191.35
923.075	1902.2443	1074.7	190.6
923.214	1903.8761	1075.55	193.4
923.3531	1905.5071	1075.55	192.5
923.4921	1907.1374	1069.8	186.9
923.6311	1908.7669	1073.25	189.7
923.77	1910.3957	1067.8	185.1
923.909	1912.0237	1067.85	185.65
924.0479	1913.651	1075.2	192.75
924.1868	1915.2776	1066	184.75
924.3257	1916.9034	1066.25	184.2
924.4646	1918.5285	1066.05	185.6
924.6034	1920.1528	1068.6	186.35
924.7422	1921.7764	1069.2	186.5
924.881	1923.3992	1063.95	182.55
925.0198	1925.0213	1062.4	178.4
925.1586	1926.6427	1063.45	183.45
925.2973	1928.2633	1282.6	181.1
925.436	1929.8832	1071.15	184.9
925.5747	1931.5023	1062.05	180.05
925.7134	1933.1207	1066.25	183
925.852	1934.7383	1065.65	181.25
925.9906	1936.3552	1060.65	178.95
926.1292	1937.9714	1063.2	181.5
926.2678	1939.5868	1061.75	178.1
926.4064	1941.2015	1060.7	177.3
926.5449	1942.8154	1060.95	178.15
926.6834	1944.4286	1058.35	175.8
926.8219	1946.041	1083.2	176.65
926.9604	1947.6528	1060.3	171.5
927.0988	1949.2637	1058.05	175.9
927.2372	1950.8739	1058.05	174.5
927.3756	1952.4834	1054.25	172
927.514	1954.0921	1050.7	168.95
927.6523	1955.7001	1061	174.55
927.7907	1957.3074	1057.45	174.95
927.929	1958.9139	1049.65	170.5
928.0673	1960.5197	1054.1	170.75
928.2055	1962.1247	1049.2	167.1
928.3438	1963.729	1050.9	171.6
928.482	1965.3325	1055.8	169.8
928.6202	1966.9353	1048.65	168.95
928.7584	1968.5374	1051.55	167.95
928.8965	1970.1387	1048.85	167.2
929.0346	1971.7393	1049	166.95
929.1727	1973.3392	1047.45	165.55
929.3108	1974.9383	1049.15	169.65
929.4489	1976.5366	1047	165.55
929.5869	1978.1342	1046.85	168.15
929.7249	1979.7311	1049.35	167.35
929.8629	1981.3273	1045.4	161.95
930.0009	1982.9227	1048.4	166.55
930.1388	1984.5173	1046.25	166.3
930.2767	1986.1112	1045.05	164.25
930.4146	1987.7044	1045.95	167.35
930.5525	1989.2968	1044	160.85
930.6904	1990.8885	1046.3	161.6
930.8282	1992.4795	1040.75	159.5
930.966	1994.0697	1040.4	160.35
931.1038	1995.6592	1038.5	158.35
931.2415	1997.2479	1038.3	157.55
931.3793	1998.8359	1042.7	161.85
931.517	2000.4232	1043.05	163.65
931.6547	2002.0097	1039.5	161
931.7923	2003.5955	1040.45	160.25
931.93	2005.1805	1039.3	157.35
932.0676	2006.7648	1037.8	159
932.2052	2008.3484	1040.85	162.35
932.3427	2009.9312	1037.75	156.55
932.4803	2011.5133	1037.15	160.4
932.6178	2013.0946	1036.1	157
932.7553	2014.6752	1036.75	158.35
932.8928	2016.2551	1038.2	157.5
933.0302	2017.8342	1036	157.8
933.1676	2019.4126	1034.75	156
933.305	2020.9902	1036.2	157.3
933.4424	2022.5672	1037.15	156.35
933.5798	2024.1433	1040.95	156.3
933.7171	2025.7188	1034.05	157.35
933.8544	2027.2935	1032.65	153.05
933.9917	2028.8674	1033.45	152.55
934.129	2030.4406	1030.55	150.85
934.2662	2032.0131	1034.15	156.85
934.4034	2033.5849	1037.35	152
934.5406	2035.1559	1028.05	149.4
934.6778	2036.7261	1029.5	151.1
934.8149	2038.2957	1033.6	155.4
934.952	2039.8645	1032.75	153.1
935.0891	2041.4325	1038.3	157.2
935.2262	2042.9998	1035.9	159.9
935.3632	2044.5664	1030	149.4
935.5002	2046.1323	1029.1	150.75
935.6372	2047.6974	1030.2	151.45
935.7742	2049.2617	1028.85	147.8
935.9111	2050.8254	1056.05	154.05
936.048	2052.3883	1031.75	150.2
936.1849	2053.9504	1033.35	152.9
936.3218	2055.5118	1033.25	152.6
936.4586	2057.0725	1030.5	147.95
936.5955	2058.6325	1026.7	146.4
936.7323	2060.1917	1030.05	152.4
936.869	2061.7502	1033.35	150.7
937.0058	2063.3079	1029.2	152.05
937.1425	2064.8649	1030.4	146.2
937.2792	2066.4212	1028.4	149.65
937.4159	2067.9767	1030.7	150.2
937.5525	2069.5315	1024	144.5
937.6891	2071.0856	1029.85	148.95
937.8257	2072.6389	1026.9	148.65
937.9623	2074.1915	1022.95	145.5
938.0989	2075.7433	1028.4	149.5
938.2354	2077.2945	1024.35	147
938.3719	2078.8448	1029.25	150.2
938.5084	2080.3945	1023.95	143.15
938.6448	2081.9434	1025.55	145.25
938.7812	2083.4916	1024.05	142.55
938.9176	2085.039	1028	144.65
939.054	2086.5857	1030.5	147.5
939.1903	2088.1317	1026.6	145.35
939.3267	2089.677	1027.05	146.1
939.463	2091.2215	1026.8	145.05
939.5992	2092.7652	1028.25	146
939.7355	2094.3083	1025.6	143.8
939.8717	2095.8506	1026.65	147.6
940.0079	2097.3921	1021.1	140.7
940.1441	2098.933	1026.6	146.35
940.2802	2100.4731	1026.35	146.9
940.4163	2102.0124	1040.2	141.3
940.5524	2103.5511	1025.25	145.65
940.6885	2105.089	1026.85	147.05
940.8245	2106.6261	1027.25	146.35
940.9606	2108.1626	1026.7	147.5
941.0965	2109.6983	1053.65	145.45
941.2325	2111.2332	1027.05	144.3
941.3684	2112.7675	1020.7	138.6
941.5044	2114.301	1023.3	139.1
941.6403	2115.8337	1026.3	146.2
941.7761	2117.3657	1021.95	142.1
941.912	2118.897	1026.45	143.85
942.0478	2120.4276	1028.65	141.15
942.1835	2121.9575	1022.9	142.65
942.3193	2123.4866	1035.1	139.9
942.455	2125.0149	1024.15	141.1
942.5907	2126.5426	1021.25	142.8
942.7264	2128.0695	1025.2	138.85
942.8621	2129.5956	1017	139.5
942.9977	2131.1211	1022.85	138.65
943.1333	2132.6458	1020.4	141.7
943.2689	2134.1698	1023.6	143
943.4044	2135.693	1024.2	141.4
943.54	2137.2155	1024.45	139.2
943.6755	2138.7373	1018.65	137.3
943.8109	2140.2584	1021.65	144.5
943.9464	2141.7787	1018.95	133.45
944.0818	2143.2983	1021.4	144
944.2172	2144.8171	1015	137.3
944.3526	2146.3353	1018.9	138.05
944.4879	2147.8527	1019.7	142.65
944.6232	2149.3693	1017.15	136.8
944.7585	2150.8853	1017.85	136.85
944.8938	2152.4005	1021.3	142.25
945.029	2153.9149	1022.35	142.95
945.1642	2155.4287	1016.75	135.75
945.2994	2156.9417	1018.85	138.65
945.4346	2158.454	1020.65	137
945.5697	2159.9655	1012.8	131.7
945.7048	2161.4764	1015.3	135.85
945.8399	2162.9865	1018.7	138.65
945.9749	2164.4958	1016.65	133.5
946.1099	2166.0045	1017.75	135.5
946.2449	2167.5124	1015.85	135.65
946.3799	2169.0195	1014.95	136.75
946.5148	2170.526	1017.5	137.1
946.6498	2172.0317	1014	135.35
946.7846	2173.5367	1017.25	135.85
946.9195	2175.0409	1010	131.6
947.0543	2176.5445	1012.8	133.9
947.1891	2178.0473	1014.85	133.9
947.3239	2179.5494	1019.35	135.55
947.4587	2181.0507	1011.3	131.7
947.5934	2182.5513	1012.05	132.2
947.7281	2184.0512	1013.7	132.75
947.8628	2185.5504	1010.8	133
947.9974	2187.0488	1013	133.7
948.132	2188.5465	1011.2	133.65
948.2666	2190.0435	1013.05	133.1
948.4012	2191.5397	1011.45	132.85
948.5357	2193.0353	1009.75	132.35
948.6702	2194.5301	1013.3	134.35
948.8047	2196.0241	1011.95	131.15
948.9392	2197.5175	1013.25	133.7
949.0736	2199.0101	1014.35	132.75
949.208	2200.502	1010.4	130.85
949.3424	2201.9931	1011.5	131.9
949.4767	2203.4835	1010.1	130.75
949.611	2204.9733	1024.05	125.15
949.7453	2206.4622	1007.35	128.25
949.8796	2207.9505	1010.4	128.95
950.0138	2209.438	1008.8	132.35
950.148	2210.9248	1009.2	129.65
950.2822	2212.4109	1003.65	125.85
950.4164	2213.8962	1009.65	126.1
950.5505	2215.3809	1012.5	131.25
950.6846	2216.8648	1008.05	127.45
950.8186	2218.3479	1009.9	123.7
950.9527	2219.8304	1007.25	124.1
951.0867	2221.3121	1007.25	123
951.2207	2222.7931	1005.75	124.5
951.3546	2224.2733	1001.1	119.7
951.4886	2225.7529	1005.1	122.6
951.6225	2227.2317	1006.8	122.9
951.7563	2228.7098	1005.45	127
951.8902	2230.1872	1002.35	123.15
952.024	2231.6638	999.25	119.85
952.1578	2233.1397	1008.45	121.5
952.2916	2234.6149	1000.65	122.7
952.4253	2236.0894	1001.15	119.05
952.559	2237.5632	1008.1	118.6
952.6927	2239.0362	1001.25	122.35
952.8263	2240.5085	1000.8	119.75
952.9599	2241.9801	1000.25	121.45
953.0935	2243.4509	1000.35	120.75
953.2271	2244.921	1001.1	121.2
953.3606	2246.3904	998	115.45
953.4941	2247.8591	997.85	119.8
953.6276	2249.3271	997.1	117.05
953.7611	2250.7943	999.3	117.9
953.8945	2252.2608	998.3	116.6
954.0279	2253.7266	1000.1	119.4
954.1612	2255.1917	996.1	116.45
954.2946	2256.656	995.2	112.6
954.4279	2258.1197	998.9	117.55
954.5612	2259.5826	996.5	115.1
954.6944	2261.0447	999.25	117.4
954.8276	2262.5062	996.9	114.25
954.9608	2263.9669	996.35	112.8
955.094	2265.4269	997.45	116.8
955.2271	2266.8862	996.9	117.5
955.3602	2268.3448	998.4	118.95
955.4933	2269.8026	991.75	112.05
955.6264	2271.2598	988.7	110.3
955.7594	2272.7162	986.9	109.15
955.8924	2274.1719	997.95	117.35
956.0253	2275.6268	994.3	113.6
956.1583	2277.0811	991.5	112.45
956.2912	2278.5346	991.75	112.05
956.4241	2279.9874	994.25	111.7
956.5569	2281.4395	993.9	115.05
956.6897	2282.8908	996	111.2
956.8225	2284.3414	993.75	114.3
956.9553	2285.7914	993.15	113.35
957.088	2287.2406	991.25	110.95
957.2207	2288.689	993.95	113.1
957.3534	2290.1368	992.25	110.85
957.486	2291.5838	993.75	113.05
957.6186	2293.0302	992.7	110.3
957.7512	2294.4758	990.9	109.7
957.8838	2295.9206	993.95	110.45
958.0163	2297.3648	990	110.2
958.1488	2298.8082	993.1	110.1
958.2813	2300.251	993.4	113.55
958.4137	2301.693	993.6	110.2
958.5461	2303.1343	989.7	108.1
958.6785	2304.5748	988.8	107.3
958.8108	2306.0147	991	112
958.9432	2307.4538	990.65	110.05
959.0754	2308.8922	986.95	109.8
959.2077	2310.3299	986.55	106.2
959.3399	2311.7669	985.85	106.3
959.4721	2313.2031	986.05	105.9
959.6043	2314.6387	988.35	107.75
959.7365	2316.0735	988.55	107.9
959.8686	2317.5076	990.8	109.2
960.0006	2318.941	988.9	109.75
960.1327	2320.3737	987.65	105.9
960.2647	2321.8056	989.15	105.6
960.3967	2323.2369	986.35	105.65
960.5287	2324.6674	990.05	106
960.6606	2326.0972	993.9	113.35
960.7925	2327.5263	995.3	115.1
960.9244	2328.9547	998.6	117.15
961.0562	2330.3823	999.8	118.5
961.1881	2331.8092	992.2	108
961.3198	2333.2355	988.2	107.65
961.4516	2334.661	987.2	107.8
961.5833	2336.0858	985.6	103.5
961.715	2337.5098	987.7	108.35
961.8467	2338.9332	984.55	102.95
961.9783	2340.3558	984.7	101.6
962.1099	2341.7778	984.5	104.75
962.2415	2343.199	986.8	104.3
962.373	2344.6195	980.75	101.95
962.5045	2346.0393	981.25	101.8
962.636	2347.4583	982.45	100.85
962.7675	2348.8767	985.4	105.9
962.8989	2350.2943	981.75	101.75
963.0303	2351.7113	986.95	105.1
963.1617	2353.1275	983.25	102.25
963.293	2354.543	1007.4	101.65
963.4243	2355.9578	982.3	101.3
963.5556	2357.3718	977.9	98.7
963.6868	2358.7852	984.05	100.65
963.818	2360.1978	982.3	100.3
963.9492	2361.6098	980.45	102.25
964.0803	2363.021	983.65	99.3
964.2114	2364.4315	981.05	100.15
964.3425	2365.8413	988.95	102.05
964.4736	2367.2504	980	99.25
964.6046	2368.6587	980.1	98.75
964.7356	2370.0664	976.5	94.7
964.8666	2371.4733	979.4	99.6
964.9975	2372.8795	978.8	99.8
965.1284	2374.285	979.1	97.8
965.2593	2375.6899	978.8	99.9
965.3901	2377.0939	979.95	97.45
965.5209	2378.4973	974.3	93.6
965.6517	2379.9	975.6	93.85
965.7825	2381.3019	977.3	96
965.9132	2382.7032	973.95	93.5
966.0439	2384.1037	975.75	95.95
966.1745	2385.5035	976	98
966.3051	2386.9027	973.25	91.95
966.4357	2388.3011	977.8	94.25
966.5663	2389.6987	976.25	95
966.6968	2391.0957	974.7	93.7
966.8273	2392.492	975.7	95.85
966.9578	2393.8876	971.65	89.45
967.0882	2395.2824	974.05	92.3
967.2186	2396.6765	972.65	92
967.349	2398.07	973.25	93.95
967.4793	2399.4627	976.3	92.65
967.6097	2400.8547	973.2	91.35
967.7399	2402.246	980.55	93.6
967.8702	2403.6366	970.25	86.5
968.0004	2405.0265	971.05	88.6
968.1306	2406.4156	971.75	84.55
968.2607	2407.8041	975.9	89.6
968.3909	2409.1918	975.3	91.8
968.521	2410.5789	968.55	86.95
968.651	2411.9652	975.3	91.1
968.781	2413.3508	967.85	87
968.911	2414.7358	969.6	87.7
969.041	2416.12	966.25	86.35
969.1709	2417.5035	971.45	91.3
969.3008	2418.8863	970.15	85.85
969.4307	2420.2684	972.1	90.15
969.5606	2421.6497	969.9	86.5
969.6904	2423.0304	965.45	84.95
969.8201	2424.4104	968.85	86.2
969.9499	2425.7896	972.95	86.3
970.0796	2427.1682	968.4	88.25
970.2093	2428.546	967.95	84.25
970.3389	2429.9232	970.1	88.25
970.4685	2431.2996	968.15	87.15
970.5981	2432.6753	966.75	84.85
970.7277	2434.0503	972.8	90.4
970.8572	2435.4246	965	84.35
970.9867	2436.7982	968.55	83.45
971.1161	2438.1711	965.1	83.6
971.2456	2439.5433	967.6	84.2
971.375	2440.9148	967.9	87.85
971.5043	2442.2856	965.75	84.75
971.6336	2443.6557	967.35	84.35
971.7629	2445.025	968.1	86.45
971.8922	2446.3937	965.55	82.5
972.0214	2447.7617	963.8	83.4
972.1506	2449.1289	963.65	84.6
972.2798	2450.4955	968.6	83.2
972.4089	2451.8613	961.95	81.95
972.538	2453.2265	963.2	79.2
972.6671	2454.5909	966.95	86.05
972.7961	2455.9546	960.55	80.2
972.9251	2457.3177	964.3	82.8
973.0541	2458.68	967.05	83.85
973.1831	2460.0416	959.9	78.65
973.312	2461.4025	963.5	79
973.4408	2462.7627	973.4	80.2
973.5697	2464.1222	962.2	83.1
973.6985	2465.4811	962.3	80.75
973.8273	2466.8392	964.9	85.85
973.956	2468.1966	964.3	82.45
974.0847	2469.5533	965.35	80.75
974.2134	2470.9093	962.95	81.9
974.3421	2472.2645	960.4	77.15
974.4707	2473.6191	958.45	75.5
974.5993	2474.973	961.55	80.35
974.7278	2476.3262	960.65	76.7
974.8563	2477.6787	957.65	79.05
974.9848	2479.0305	959.25	76.75
975.1132	2480.3816	962.3	80.75
975.2417	2481.7319	958.85	77.8
975.37	2483.0816	960.95	79.05
975.4984	2484.4306	964.8	81.9
975.6267	2485.7789	960.7	79.3
975.755	2487.1264	961.4	80.55
975.8833	2488.4733	956.65	76.6
976.0115	2489.8195	965	77.2
976.1397	2491.165	962.3	79.8
976.2678	2492.5097	958.15	76.35
976.3959	2493.8538	958.75	77.4
976.524	2495.1972	957.9	74.5
976.6521	2496.5398	959.85	77.8
976.7801	2497.8818	962.75	80.1
976.9081	2499.2231	957.3	75.8
977.036	2500.5637	958.95	76.45
977.164	2501.9035	956.7	74.65
977.2918	2503.2427	959.9	77.35
977.4197	2504.5812	959.35	80
977.5475	2505.919	959	76.75
977.6753	2507.256	957.75	75.95
977.8031	2508.5924	955.35	73.65
977.9308	2509.9281	957.9	70.5
978.0585	2511.2631	954.65	75.25
978.1861	2512.5974	957.5	74.9
978.3137	2513.9309	957.05	77.65
978.4413	2515.2638	979.85	71.05
978.5689	2516.596	954	74.55
978.6964	2517.9275	957.6	74.9
978.8239	2519.2583	955.1	73.2
978.9513	2520.5884	956.7	75.3
979.0788	2521.9178	954.5	72.65
979.2062	2523.2465	952.2	71.4
979.3335	2524.5745	952.35	72.25
979.4608	2525.9018	954.05	73.05
979.5881	2527.2284	952.4	72.4
979.7154	2528.5543	953	70.85
979.8426	2529.8796	951.6	70.8
979.9698	2531.2041	952.25	71.55
980.0969	2532.5279	946.75	67.8
980.224	2533.851	951.6	69.35
980.3511	2535.1735	951.3	69.4
980.4781	2536.4952	953.8	73.9
980.6052	2537.8163	954.55	73.6
980.7321	2539.1366	951.05	69.85
980.8591	2540.4562	950.95	68.65
980.986	2541.7752	951.2	71.8
981.1129	2543.0935	950.25	70.25
981.2397	2544.411	950.95	67.45
981.3665	2545.7279	947.9	66.85
981.4933	2547.0441	949.3	67.45
981.62	2548.3596	952.85	71.55
981.7467	2549.6744	951.25	69.8
981.8734	2550.9885	958.85	69.05
982.0001	2552.3019	950.2	71
982.1267	2553.6146	950.3	69.15
982.2532	2554.9266	949	66.8
982.3798	2556.2379	951.9	70.7
982.5063	2557.5485	948.75	69.7
982.6327	2558.8585	955.7	68.4
982.7592	2560.1677	953.75	71.15
982.8856	2561.4762	948.45	66.2
983.0119	2562.7841	952.2	66.15
983.1383	2564.0913	947.35	65.3
983.2646	2565.3977	947.6	66.75
983.3908	2566.7035	947.95	66.55
983.517	2568.0086	949.55	68.6
983.6432	2569.313	951.45	71.2
983.7694	2570.6167	952.8	68.9
983.8955	2571.9197	947.55	67.2
984.0216	2573.222	950.1	66.35
984.1476	2574.5236	948.75	68.15
984.2737	2575.8246	947.7	64.55
984.3996	2577.1248	951.15	67.1
984.5256	2578.4244	948.1	66.5
984.6515	2579.7232	949.65	68.4
984.7774	2581.0214	976.25	69.4
984.9032	2582.3189	945.4	65.7
985.029	2583.6157	950.3	64.95
985.1548	2584.9118	945.5	65.4
985.2806	2586.2072	944.55	64.7
985.4063	2587.5019	948.65	68.55
985.5319	2588.7959	944.7	64.65
985.6576	2590.0893	951.6	68.55
985.7832	2591.3819	944.3	65.6
985.9087	2592.6739	945.95	64.75
986.0343	2593.9652	947.9	63.75
986.1597	2595.2557	946.3	66.25
986.2852	2596.5456	945.65	62.05
986.4106	2597.8348	947.3	66.75
986.536	2599.1234	948.35	68.75
986.6614	2600.4112	950.25	68.4
986.7867	2601.6983	952.55	69.3
986.912	2602.9848	949.4	67.6
987.0372	2604.2705	954	66.25
987.1624	2605.5556	946.85	66.35
987.2876	2606.84	946.6	65.35
987.4128	2608.1237	947.35	66.05
987.5379	2609.4067	947.4	65.65
987.6629	2610.689	952.45	64.6
987.788	2611.9707	948.7	66.2
987.913	2613.2516	948.2	62.75
988.0379	2614.5319	947.25	67.85
988.1629	2615.8115	945.3	63.8
988.2878	2617.0903	946.6	63.35
988.4126	2618.3685	945.65	63.25
988.5375	2619.6461	944.8	63.35
988.6622	2620.9229	940.2	59.6
988.787	2622.199	946.55	64.1
988.9117	2623.4745	946.5	65.25
989.0364	2624.7493	943.65	61.65
989.161	2626.0234	938.75	59.65
989.2857	2627.2968	942.55	60.5
989.4102	2628.5695	941.65	59.35
989.5348	2629.8415	942.5	62.75
989.6593	2631.1128	942.6	59.85
989.7837	2632.3835	943.85	65.65
989.9082	2633.6535	939.5	59.15
990.0326	2634.9228	942.25	62.55
990.1569	2636.1914	940.95	59.8
990.2812	2637.4593	940.65	57.7
990.4055	2638.7265	941.5	61.15
990.5298	2639.9931	938.85	59.8
990.654	2641.259	944.95	64.6
990.7782	2642.5242	939.1	58.5
990.9023	2643.7887	940.95	59.5
991.0264	2645.0525	938.85	59.65
991.1505	2646.3156	938.7	57.65
991.2745	2647.5781	936.4	56.65
991.3985	2648.8398	939	57.75
991.5225	2650.1009	974.5	56.35
991.6464	2651.3613	940.15	58.7
991.7703	2652.6211	939.85	59.4
991.8942	2653.8801	937.45	57.5
992.018	2655.1385	940.65	56.2
992.1418	2656.3961	933.1	51.85
992.2655	2657.6531	935.8	54.85
992.3892	2658.9094	937.75	56.85
992.5129	2660.1651	934.6	53.7
992.6366	2661.42	936.65	55.9
992.7602	2662.6743	937.3	57.65
992.8837	2663.9279	936.6	55.25
993.0073	2665.1808	938.9	57.65
993.1307	2666.433	936.1	54.7
993.2542	2667.6846	940.8	62.1
993.3776	2668.9354	938.85	56.3
993.501	2670.1856	940.05	59
993.6244	2671.4351	937.25	58.3
993.7477	2672.6839	938.65	55.85
993.8709	2673.9321	936.9	57.75
993.9942	2675.1795	938.65	57.7
994.1174	2676.4263	939	59.2
994.2405	2677.6724	936.5	55.35
994.3637	2678.9179	938.1	56.25
994.4868	2680.1626	938.8	57.8
994.6098	2681.4067	938.7	58.6
994.7328	2682.6501	937.65	56.85
994.8558	2683.8928	938.1	59.1
994.9788	2685.1348	937.5	56.45
995.1017	2686.3761	934.85	56.9
995.2245	2687.6168	936.2	55.5
995.3474	2688.8568	932.4	52.3
995.4702	2690.0961	933.5	53.7
995.5929	2691.3348	934.45	55.5
995.7156	2692.5727	931.65	50.05
995.8383	2693.81	934.85	55.1
995.961	2695.0466	934.85	56
996.0836	2696.2826	933.15	52.9
996.2062	2697.5178	936.1	52.25
996.3287	2698.7524	936.45	56.2
996.4512	2699.9863	935.5	51.3
996.5737	2701.2195	929	50.8
996.6961	2702.452	937.55	56.55
996.8185	2703.6839	935.55	55.2
996.9408	2704.9151	935.7	55.4
997.0631	2706.1456	935	55.2
997.1854	2707.3755	938.05	55.25
997.3077	2708.6046	937.2	55.7
997.4299	2709.8331	937.7	56.2
997.552	2711.0609	936.2	57.2
997.6742	2712.2881	938.35	59.2
997.7963	2713.5145	938.2	56.6
997.9183	2714.7403	939.45	60.7
998.0403	2715.9654	944.05	63.95
998.1623	2717.1899	953.35	57.25
998.2842	2718.4136	940.6	60.3
998.4062	2719.6367	941.7	62.25
998.528	2720.8591	950.95	64.1
998.6498	2722.0809	944.25	64.5
998.7716	2723.3019	944.85	59.5
998.8934	2724.5223	946.25	65.35
999.0151	2725.7421	944.75	62.15
999.1368	2726.9611	947.45	65.2
999.2584	2728.1795	948.2	65.45
999.38	2729.3972	938.85	58.95
999.5016	2730.6142	948.95	62.4
999.6231	2731.8306	939.75	58.9
999.7446	2733.0462	940.2	55.85
999.8661	2734.2612	942.05	55.05
999.9875	2735.4756	940.3	60.7
1000.1089	2736.6892	934.15	52.35
1000.2302	2737.9022	934.6	54.1
1000.3515	2739.1145	935.1	54.75
1000.4728	2740.3262	939.3	52.65
1000.594	2741.5372	933.2	52.95
1000.7152	2742.7475	932.8	51.15
1000.8363	2743.9571	933.75	51.9
1000.9575	2745.1661	933.4	46.8
1001.0785	2746.3744	930.15	50.5
1001.1996	2747.582	927.2	46.25
1001.3206	2748.7889	929.3	48.3
1001.4415	2749.9952	925.7	45.95
1001.5625	2751.2008	927.6	47
1001.6833	2752.4057	929.95	46.65
1001.8042	2753.61	924.55	44.3
1001.925	2754.8136	930.45	49.3
1002.0458	2756.0165	925.65	47.45
1002.1665	2757.2188	922.8	43
1002.2872	2758.4204	924	44.05
1002.4078	2759.6213	928.3	46.35
1002.5285	2760.8215	932	49.05
1002.649	2762.0211	931.35	49.1
1002.7696	2763.22	929.35	46.2
1002.8901	2764.4182	929.65	47.4
1003.0106	2765.6158	924.5	44.35
1003.131	2766.8127	925.5	44.05
1003.2514	2768.009	921.55	44.45
1003.3717	2769.2045	924.35	42.8
1003.492	2770.3994	925.6	44.7
1003.6123	2771.5936	924.55	43.65
1003.7325	2772.7872	921.15	43.7
1003.8527	2773.9801	923.4	40.75
1003.9729	2775.1723	939.95	43.8
1004.093	2776.3639	920.85	42.25
1004.2131	2777.5548	924.2	44.25
1004.3331	2778.745	923.75	42.95
1004.4531	2779.9346	922.8	43.8
1004.5731	2781.1235	923.65	42.95
1004.693	2782.3117	922.75	44.8
1004.8129	2783.4992	918.5	40.45
1004.9328	2784.6861	922.45	43.9
1005.0526	2785.8723	922.85	43.3
1005.1723	2787.0579	921.75	41.7
1005.2921	2788.2428	923.75	43.65
1005.4118	2789.427	920.2	41
1005.5314	2790.6106	924.9	45.75
1005.651	2791.7935	921.6	37.8
1005.7706	2792.9757	921.25	43.85
1005.8902	2794.1573	925.6	44.4
1006.0097	2795.3382	926	47.5
1006.1291	2796.5184	923.7	47.65
1006.2485	2797.698	923.95	43.35
1006.3679	2798.8769	924.2	43.45
1006.4873	2800.0551	923.45	41.6
1006.6066	2801.2327	923.7	42.4
1006.7258	2802.4096	923.55	45.55
1006.8451	2803.5859	926.6	44.3
1006.9642	2804.7615	926.85	47.75
1007.0834	2805.9364	923.35	44.35
1007.2025	2807.1106	925.65	48.3
1007.3216	2808.2842	927.15	48
1007.4406	2809.4572	927.25	48.35
1007.5596	2810.6294	930.9	52.05
1007.6785	2811.801	928.55	50.65
1007.7975	2812.972	933.85	56.55
1007.9163	2814.1423	936.25	55.85
1008.0352	2815.3119	939.3	58.5
1008.154	2816.4808	939.45	61.55
1008.2727	2817.6491	945.15	65.75
1008.3914	2818.8167	943.95	66.45
1008.5101	2819.9837	954.85	70.65
1008.6288	2821.15	955.55	74
1008.7474	2822.3157	959.2	82.55
1008.8659	2823.4807	965.2	85.5
1008.9844	2824.645	977.4	96.35
1009.1029	2825.8086	983.1	105
1009.2214	2826.9716	989.6	110.8
1009.3398	2828.134	1000.05	120.15
1009.4581	2829.2957	1004.75	123.6
1009.5764	2830.4567	1008.15	131.7
1009.6947	2831.617	1020.6	141.4
1009.813	2832.7767	1016.25	137.5
1009.9312	2833.9358	1016.4	137.6
1010.0493	2835.0941	1019.4	137.05
1010.1675	2836.2519	1012.15	135.85
1010.2855	2837.4089	1013.4	133.45
1010.4036	2838.5653	1005.25	126.4
1010.5216	2839.7211	1000.55	123.4
1010.6396	2840.8761	999.85	120.1
1010.7575	2842.0306	997.15	118.85
1010.8754	2843.1843	997.5	119.05
1010.9932	2844.3374	999.65	120.15
1011.111	2845.4899	1002.95	122.8
1011.2288	2846.6417	1007.05	126.5
1011.3465	2847.7928	1007.1	128.15
1011.4642	2848.9433	1007.65	128.5
1011.5818	2850.0931	1010.15	132.1
1011.6995	2851.2422	1012.1	131.9
1011.817	2852.3907	1011.65	131.15
1011.9345	2853.5385	1014.85	134.15
1012.052	2854.6857	1039.45	132.75
1012.1695	2855.8323	1016.35	138.5
1012.2869	2856.9781	1019.1	140.95
1012.4042	2858.1233	1022.95	144.9
1012.5216	2859.2679	1026.75	148.15
1012.6389	2860.4118	1024.6	145.6
1012.7561	2861.555	1036.4	151.45
1012.8733	2862.6976	1036.2	156
1012.9905	2863.8395	1035.55	154.05
1013.1076	2864.9808	1036.45	156.3
1013.2247	2866.1214	1034.5	157.55
1013.3417	2867.2614	1041.65	162.8
1013.4587	2868.4007	1043.55	163.85
1013.5757	2869.5393	1042.3	162.3
1013.6926	2870.6773	1050.65	166.3
1013.8095	2871.8146	1051.75	169.35
1013.9263	2872.9513	1048.75	166.4
1014.0431	2874.0874	1051.55	172.55
1014.1599	2875.2227	1056.3	176.35
1014.2766	2876.3574	1053.45	175.1
1014.3933	2877.4915	1056.5	179.8
1014.51	2878.6249	1058.75	182.1
1014.6266	2879.7577	1064.9	185.85
1014.7431	2880.8898	1079.65	191.55
1014.8596	2882.0212	1069.35	191.75
1014.9761	2883.152	1069.35	190.4
1015.0925	2884.2821	1067.25	189.1
1015.2089	2885.4116	1070.65	191.8
1015.3253	2886.5405	1071.4	193
1015.4416	2887.6686	1079	197
1015.5579	2888.7962	1075.75	198.6
1015.6741	2889.923	1077.55	199.7
1015.7903	2891.0493	1077.4	198.3
1015.9065	2892.1748	1072.1	194.65
1016.0226	2893.2997	1076.85	197.35
1016.1387	2894.424	1071.25	193.75
1016.2547	2895.5476	1069.25	193.8
1016.3707	2896.6706	1073.7	196.3
1016.4866	2897.7929	1077.8	197.45
1016.6025	2898.9145	1080.6	200.35
1016.7184	2900.0355	1074	192.55
1016.8342	2901.1559	1078	199
1016.95	2902.2756	1074.3	191.35
1017.0658	2903.3946	1075	196.6
1017.1815	2904.513	1072.45	190.1
1017.2971	2905.6308	1067.9	190.2
1017.4127	2906.7479	1074.75	195.5
1017.5283	2907.8643	1073.9	194.7
1017.6439	2908.9801	1072.15	193.15
1017.7594	2910.0953	1072.5	193.2
1017.8748	2911.2098	1078.75	196.15
1017.9902	2912.3236	1079	193.6
1018.1056	2913.4368	1074	193.3
1018.2209	2914.5494	1072.75	191.1
1018.3362	2915.6613	1072.3	186.8
1018.4515	2916.7725	1069.6	187.85
1018.5667	2917.8831	1065.45	184.75
1018.6819	2918.9931	1061.6	179.9
1018.797	2920.1024	1058	179.05
1018.9121	2921.211	1055.25	175.1
1019.0271	2922.319	1050.2	170.1
1019.1421	2923.4264	1048.9	170.85
1019.2571	2924.5331	1051.7	176
1019.372	2925.6391	1045.15	167.5
1019.4869	2926.7445	1050.95	173.7
1019.6017	2927.8493	1052.35	173.8
1019.7165	2928.9534	1053.1	174.9
1019.8313	2930.0569	1056.15	172
1019.946	2931.1597	1057	177.85
1020.0606	2932.2619	1054.4	176.7
1020.1753	2933.3634	1052.45	174.15
1020.2899	2934.4643	1062.9	180.1
1020.4044	2935.5645	1072.4	187.55
1020.5189	2936.6641	1063.55	181.15
1020.6334	2937.763	1059.85	181.6
1020.7478	2938.8613	1060.15	180.4
1020.8622	2939.959	1064	179.15
1020.9765	2941.056	1054.45	175.45
1021.0908	2942.1523	1047.65	167.75
1021.2051	2943.248	1042.35	164.9
1021.3193	2944.3431	1033.95	156.05
1021.4334	2945.4375	1024.45	148.2
1021.5476	2946.5313	1017.65	142.05
1021.6617	2947.6244	1008.15	131.1
1021.7757	2948.7169	1003.8	121.8
1021.8897	2949.8087	996	115.7
1022.0037	2950.8999	991.75	112.35
1022.1176	2951.9904	982.6	104.05
1022.2315	2953.0803	980.75	99.55
1022.3453	2954.1696	977.3	98
1022.4591	2955.2582	972.1	95.1
1022.5728	2956.3462	968.45	91
1022.6865	2957.4335	970.9	90.75
1022.8002	2958.5202	971.9	92
1022.9138	2959.6062	970.4	91.8
1023.0274	2960.6916	969.45	90.2
1023.141	2961.7764	969.5	91.4
1023.2545	2962.8605	971.05	90.75
1023.3679	2963.9439	966.95	87.3
1023.4813	2965.0267	968.65	88.1
1023.5947	2966.1089	988.05	88.35
1023.708	2967.1905	966.55	88.05
1023.8213	2968.2714	964.7	87.9
1023.9346	2969.3516	958.2	79.4
1024.0478	2970.4312	968.5	83.2
1024.1609	2971.5102	963.55	84.45
1024.274	2972.5885	963.85	87.2
1024.3871	2973.6662	967.05	83.65
1024.5002	2974.7432	960.95	83.8
1024.6132	2975.8196	966.4	87.4
1024.7261	2976.8954	962	84.15
1024.839	2977.9705	964.55	85.4
1024.9519	2979.045	962.6	86.45
1025.0647	2980.1188	964.45	87.2
1025.1775	2981.192	959.95	82.3
1025.2902	2982.2645	963.1	84.4
1025.4029	2983.3364	959.25	79.1
1025.5156	2984.4077	957.3	79.7
1025.6282	2985.4783	962.1	76.15
1025.7407	2986.5483	954.4	75.75
1025.8532	2987.6177	952.6	75.15
1025.9657	2988.6864	949	71.9
1026.0782	2989.7545	946	66.3
1026.1906	2990.8219	945.65	69.05
1026.3029	2991.8887	944.95	64.35
1026.4152	2992.9548	936.9	57.65
1026.5275	2994.0204	934.15	56.15
1026.6397	2995.0852	931.45	55.4
1026.7519	2996.1495	929.65	50.65
1026.864	2997.2131	927	47.9
1026.9761	2998.276	925.4	46.95
1027.0882	2999.3383	922.1	43.3
1027.2002	3000.4	921.75	42.65
1027.3122	3001.4611	916.7	37.75
1027.4241	3002.5215	919.75	40.4
1027.536	3003.5812	917.4	37.95
1027.6478	3004.6404	914.3	36.4
1027.7596	3005.6989	915.05	34.6
1027.8714	3006.7567	910.4	31.7
1027.9831	3007.8139	944.65	33.85
1028.0947	3008.8705	912.95	35.2
1028.2064	3009.9264	916.4	31.8
1028.3179	3010.9818	908.8	28.6
1028.4295	3012.0364	910.2	30.65
1028.541	3013.0905	910.15	34
1028.6524	3014.1439	907.8	29.05
1028.7638	3015.1966	908.1	30.35
1028.8752	3016.2487	905.2	26.2
1028.9865	3017.3002	911.5	28.5
1029.0978	3018.3511	905.4	28.3
1029.209	3019.4013	905.1	27.6
1029.3202	3020.4509	907.2	30.1
1029.4314	3021.4998	905.35	27.6
1029.5425	3022.5481	906	28.35
1029.6535	3023.5958	906.2	28.5
1029.7645	3024.6428	910.1	30.35
1029.8755	3025.6892	903.3	25.95
1029.9864	3026.735	904.25	24.05
1030.0973	3027.7802	906.4	29.55
1030.2082	3028.8247	904.45	26.6
1030.319	3029.8685	905.55	27.45
1030.4297	3030.9118	905.65	28.05
1030.5404	3031.9544	903.95	24.85
1030.6511	3032.9963	903.75	26
1030.7617	3034.0376	902.95	24.45
1030.8723	3035.0783	908.3	26.9
1030.9829	3036.1184	909.35	29.05
1031.0934	3037.1578	901.15	22.8
1031.2038	3038.1966	906.75	27.55
1031.3142	3039.2348	906	27.95
1031.4246	3040.2723	913.25	28.05
1031.5349	3041.3092	904	26.35
1031.6452	3042.3455	906.05	25.7
1031.7554	3043.3811	905.4	25.7
1031.8656	3044.4161	906.8	30.95
1031.9758	3045.4505	905.55	28.1
1032.0859	3046.4842	907.05	28.1
1032.1959	3047.5173	904.85	29.55
1032.3059	3048.5498	907.35	28.45
1032.4159	3049.5816	905.35	27.85
1032.5258	3050.6128	906.7	27.4
1032.6357	3051.6434	907.05	25.9
1032.7455	3052.6734	905.2	27.4
1032.8553	3053.7027	905.35	27.45
1032.9651	3054.7314	905.25	25.7
1033.0748	3055.7594	904.8	25.35
1033.1845	3056.7868	907.4	27.2
1033.2941	3057.8136	906.7	29.75
1033.4037	3058.8398	905.45	27.3
1033.5132	3059.8653	904.75	26.65
1033.6227	3060.8902	907.45	30.3
1033.7321	3061.9145	905.35	26.55
1033.8415	3062.9381	907.9	28.8
1033.9509	3063.9612	924.65	31
1034.0602	3064.9835	908.4	30
1034.1694	3066.0053	908.95	28.15
1034.2787	3067.0264	907.25	29.65
1034.3878	3068.0469	907.75	30.8
1034.497	3069.0668	908.9	26.7
1034.6061	3070.086	906.25	29.2
1034.7151	3071.1046	906.5	29.25
1034.8241	3072.1226	907.95	27.05
1034.9331	3073.1399	906.6	28.15
1035.042	3074.1567	905.8	27.45
1035.1508	3075.1727	905.7	25.65
1035.2597	3076.1882	905.6	28.25
1035.3684	3077.203	905.7	27.4
1035.4772	3078.2173	903	22.85
1035.5859	3079.2308	904.3	24.3
1035.6945	3080.2438	904.1	23.35
1035.8031	3081.2561	902.25	24.05
1035.9117	3082.2678	900.85	22.95
1036.0202	3083.2789	899.05	21.35
1036.1286	3084.2893	900.15	21.7
1036.2371	3085.2991	901	22.3
1036.3454	3086.3083	903.65	21.55
1036.4538	3087.3169	901.9	22
1036.562	3088.3248	898.35	20.95
1036.6703	3089.3321	900	20.4
1036.7785	3090.3388	896.8	19.8
1036.8866	3091.3449	897.75	20.5
1036.9948	3092.3503	900.55	19.8
1037.1028	3093.3551	896.85	19.85
1037.2108	3094.3593	897.55	21.6
1037.3188	3095.3629	898.2	21.7
1037.4267	3096.3658	896.75	16.85
1037.5346	3097.3681	895.4	16.05
1037.6425	3098.3698	898.4	19.85
1037.7503	3099.3708	896.55	17.8
1037.858	3100.3713	897.6	19.5
1037.9657	3101.3711	896.25	17.85
1038.0734	3102.3702	1030.85	22.65
1038.181	3103.3688	899.2	18.45
1038.2886	3104.3667	892.7	16.2
1038.3961	3105.364	895.15	16
1038.5036	3106.3607	897.75	21.45
1038.611	3107.3568	894.6	17.55
1038.7184	3108.3522	893.5	15.4
1038.8257	3109.347	895.6	16.15
1038.933	3110.3412	898.9	15.8
1039.0403	3111.3348	890.5	13.95
1039.1475	3112.3277	895	17.5
1039.2547	3113.32	892.75	16
1039.3618	3114.3117	894.4	16.7
1039.4689	3115.3028	893.15	15.3
1039.5759	3116.2932	894.4	15.05
1039.6829	3117.2831	899.4	16.05
1039.7898	3118.2723	894.4	16.05
1039.8967	3119.2608	890.1	11.1
1040.0035	3120.2488	890.9	12.5
1040.1103	3121.2361	890.4	12.2
1040.2171	3122.2229	893.85	16.4
1040.3238	3123.209	892.6	12.45
1040.4305	3124.1944	889.75	12.6
1040.5371	3125.1793	893	13
1040.6437	3126.1635	890.2	14.7
1040.7502	3127.1471	888.65	10.8
1040.8567	3128.1301	890.55	11.25
1040.9631	3129.1125	891.35	13.35
1041.0695	3130.0942	891.4	13.35
1041.1759	3131.0753	899.5	13.2
1041.2822	3132.0558	894.9	14.6
1041.3884	3133.0357	889.85	11.75
1041.4946	3134.015	890.15	13.75
1041.6008	3134.9936	891.15	11.75
1041.7069	3135.9716	911.7	10.2
1041.813	3136.949	891.9	14.4
1041.919	3137.9258	906.35	11.25
1042.025	3138.902	896.05	13.85
1042.1309	3139.8775	889.65	12.45
1042.2368	3140.8524	889.45	11.45
1042.3427	3141.8267	889.7	11.6
1042.4485	3142.8004	891.55	14.1
1042.5542	3143.7735	895.15	11.15
1042.6599	3144.7459	891.5	11.5
1042.7656	3145.7178	890.65	13
1042.8712	3146.689	885.8	10.05
1042.9768	3147.6596	891.35	11.95
1043.0823	3148.6295	888.8	10.2
1043.1878	3149.5989	888.85	8.7
1043.2932	3150.5676	887.15	10.95
1043.3986	3151.5357	887.8	11.65
1043.5039	3152.5032	888.7	11.1
1043.6092	3153.4701	887.25	9.2
1043.7145	3154.4364	891.75	10.35
1043.8197	3155.402	888.4	11.65
1043.9248	3156.367	891.8	12.4
1044.03	3157.3315	932.2	11.45
1044.135	3158.2952	888.85	11.1
1044.24	3159.2584	888.05	12.05
1044.345	3160.221	888.45	9.5
1044.4499	3161.1829	888.2	10.65
1044.5548	3162.1442	887.35	8.25
1044.6596	3163.105	887	10.1
1044.7644	3164.065	887.95	11
1044.8692	3165.0245	889.95	8.65
1044.9739	3165.9834	887.5	10.65
1045.0785	3166.9416	887.95	10.5
1045.1831	3167.8993	888.85	9.15
1045.2877	3168.8563	889.95	11.15
1045.3922	3169.8127	887.85	9.55
1045.4966	3170.7684	885.8	6.65
1045.6011	3171.7236	887.6	9.15
1045.7054	3172.6782	886.7	9.4
1045.8098	3173.6321	888.9	10.15
1045.914	3174.5854	892.3	10.65
1046.0183	3175.5381	885.55	9.1
1046.1224	3176.4902	885.9	7.2
1046.2266	3177.4417	884.25	5.85
1046.3307	3178.3926	886.6	9.3
1046.4347	3179.3428	886.75	8.35
1046.5387	3180.2924	886.4	9.7
1046.6427	3181.2415	887.55	7.35
1046.7466	3182.1899	885.9	6.95
1046.8504	3183.1377	887.05	12.25
1046.9542	3184.0848	888.95	8.1
1047.058	3185.0314	887.45	9.9
1047.1617	3185.9773	888.7	9.75
1047.2654	3186.9227	883.85	6.3
1047.369	3187.8674	886.85	6.75
1047.4726	3188.8115	892	10.65
1047.5761	3189.755	885.85	7.05
1047.6796	3190.6979	884.95	8.05
1047.783	3191.6402	884.45	6.85
1047.8864	3192.5818	884.25	6.85
1047.9898	3193.5229	911.25	8.05
1048.0931	3194.4633	885.6	9.1
1048.1963	3195.4031	884.55	5
1048.2995	3196.3423	884.75	6.6
1048.4027	3197.2809	887.1	8.15
1048.5058	3198.2189	886.3	8.7
1048.6089	3199.1563	892.85	8.65
1048.7119	3200.0931	886.4	10.3
1048.8148	3201.0292	885.8	8.25
1048.9178	3201.9648	885.6	8.95
1049.0206	3202.8997	886.6	5
1049.1235	3203.834	885.25	7.35
1049.2262	3204.7677	883.55	5.75
1049.329	3205.7008	886.15	5.55
1049.4317	3206.6333	885.4	9.2
1049.5343	3207.5652	885.4	5.8
1049.6369	3208.4964	884.85	7.5
1049.7394	3209.4271	881.75	7.55
1049.8419	3210.3571	885.65	8.3
1049.9444	3211.2865	885.65	6.9
1050.0468	3212.2154	884.55	7.3
1050.1491	3213.1436	888.15	7.6
1050.2514	3214.0712	892	8.2
1050.3537	3214.9982	884.65	7.75
1050.4559	3215.9246	885.1	5.65
1050.5581	3216.8503	884	8.2
1050.6602	3217.7755	883.6	5.3
1050.7623	3218.7001	884.15	6.7
1050.8643	3219.624	885.25	9.9
1050.9663	3220.5473	884.05	3.45
1051.0682	3221.4701	884.3	5.3
1051.1701	3222.3922	885.3	7.35
1051.2719	3223.3137	884.3	8.6
1051.3737	3224.2346	884.5	4.85
1051.4754	3225.1549	884.75	9.1
1051.5771	3226.0746	882.9	6.65
1051.6788	3226.9937	884.3	8.9
1051.7804	3227.9121	883.35	5.6
1051.8819	3228.83	884.95	7.2
1051.9834	3229.7473	884.75	8.55
1052.0849	3230.6639	883.75	6.2
1052.1863	3231.5799	885.5	7.65
1052.2876	3232.4954	887.35	11.85
1052.3889	3233.4102	885.15	10.15
1052.4902	3234.3244	884.95	6.95
1052.5914	3235.238	883.7	5.5
1052.6926	3236.151	906.15	5.55
1052.7937	3237.0634	881.9	5.5
1052.8948	3237.9752	881.6	2.8
1052.9958	3238.8864	885.5	6.35
1053.0968	3239.797	884.25	7.35
1053.1977	3240.7069	884.65	5.65
1053.2986	3241.6163	883.6	4.15
1053.3994	3242.5251	882.1	4.75
1053.5002	3243.4332	883.4	7.6
1053.6009	3244.3408	884.55	8.6
1053.7016	3245.2477	882.4	5.5
1053.8022	3246.154	884.25	4.25
1053.9028	3247.0598	884.3	7.45
1054.0034	3247.9649	883.25	5.7
1054.1039	3248.8694	884.2	7.65
1054.2043	3249.7733	884.55	8.25
1054.3047	3250.6766	882.55	5.05
1054.4051	3251.5793	882.15	3.35
1054.5054	3252.4814	883.25	8.4
1054.6056	3253.3829	883.85	6.95
1054.7058	3254.2838	880.55	2.55
1054.806	3255.1841	882.05	4.7
1054.9061	3256.0838	884.55	7.6
1055.0061	3256.9829	881.6	4.35
1055.1062	3257.8814	885.45	7.4
1055.2061	3258.7792	882.25	2
1055.306	3259.6765	881.3	3.85
1055.4059	3260.5731	882.15	6.1
1055.5057	3261.4692	883	2.9
1055.6055	3262.3647	884.7	5.9
1055.7052	3263.2595	881.2	2.75
1055.8049	3264.1538	882	4.85
1055.9045	3265.0474	882.55	3.6
1056.0041	3265.9404	882	5.05
1056.1036	3266.8329	881.2	5.1
1056.2031	3267.7247	892.95	7.25
1056.3025	3268.616	882.35	4.9
1056.4019	3269.5066	881.2	3.8
1056.5013	3270.3966	882.8	1.05
1056.6005	3271.286	882.6	6.25
