Software Version:	3.9.2.0
Unit SN:	10000200
Spectrometer SN:	6960
Date:	3/8/2024 12:37:39 PM
Data Line Index:	25
Spectral Points:	2048
Integration time (ms):	125
Averages:	20
Delay (ms):	30000
Sequence Number:	1
Processing:	dark subtract
Laser Power (mW):	305
Laser Current (mA):	822
Laser Diode Temp (C):	25
Laser Case Temp (C):	26
System Temp (C):	26
Spectrometer Temp (C):	23.9
CCD Temp (C):	0.008
Secondary Temp (C):	20.011
Heatsink Temp (C):	20.733
CCDPCB Temp (C):	36.151
SecondaryPCB Temp (C):	29.037

Wavelength	RamanShift	Raw Counts	Dark Subtracted
787.061	30.1047	450.1	41.3
787.2016	32.3739	450.2	44.3
787.3422	34.6426	455	46.4
787.4828	36.9109	460.45	50.45
787.6235	39.1787	468.35	55.7
787.7642	41.4461	477.45	58.75
787.9049	43.7131	484.45	62.5
788.0456	45.9796	494.6	71.55
788.1863	48.2456	501.35	72.8
788.3271	50.5112	511.15	78.9
788.4679	52.7764	519.3	83.75
788.6087	55.0411	532.2	90.85
788.7496	57.3054	534.8	87.5
788.8904	59.5692	547.95	100.75
789.0313	61.8326	554.75	106.45
789.1722	64.0955	566.35	113.2
789.3132	66.3579	582.7	123.5
789.4541	68.6199	605.45	141.3
789.5951	70.8815	632.75	165.4
789.7361	73.1426	712.1	241.35
789.8771	75.4032	917.35	442
790.0181	77.6634	1399.05	920.45
790.1592	79.9231	2534.6	2046.9
790.3003	82.1824	4972	4464.55
790.4414	84.4412	9338.65	8803.75
790.5825	86.6995	15219.3	14641.95
790.7237	88.9574	20866.25	20255.65
790.8648	91.2148	24689.35	24054.65
791.006	93.4717	26322.45	25675.85
791.1472	95.7282	26542.55	25890.8
791.2885	97.9842	26219.55	25562.5
791.4297	100.2398	25450.1	24790.05
791.571	102.4949	24626.65	23966.1
791.7123	104.7495	23685.4	23020.5
791.8536	107.0036	22801.65	22136.25
791.9949	109.2573	21995.65	21334.7
792.1363	111.5105	21300.45	20631.35
792.2777	113.7632	20644.05	19974.75
792.4191	116.0154	20132.7	19444.9
792.5605	118.2672	19765.15	19084.95
792.7019	120.5185	19381.15	18703.9
792.8434	122.7693	19098.65	18419.85
792.9849	125.0197	18833.35	18147.8
793.1264	127.2696	18588.35	17896.9
793.2679	129.519	18387.7	17695.35
793.4094	131.7679	18105.75	17408.75
793.551	134.0163	17857.1	17157.25
793.6926	136.2642	17506.8	16802.95
793.8342	138.5117	17153.8	16442.4
793.9758	140.7587	16801.25	16098.95
794.1175	143.0052	16458.4	15753
794.2591	145.2512	16119.9	15412
794.4008	147.4967	15822	15111.55
794.5425	149.7417	15593.45	14885.65
794.6842	151.9863	15408.15	14691.85
794.826	154.2304	15313.4	14595.45
794.9677	156.4739	15155.55	14431.1
795.1095	158.717	15058.95	14333.75
795.2513	160.9596	14837.3	14105.55
795.3931	163.2017	14618.05	13882.85
795.535	165.4433	14357.2	13619.3
795.6768	167.6844	14037.65	13301.15
795.8187	169.925	13750.7	13012.15
795.9606	172.1651	13413.8	12672
796.1025	174.4047	13169.4	12427.05
796.2445	176.6439	12971.5	12230.15
796.3864	178.8825	12756.3	12006.85
796.5284	181.1206	12619.15	11866.45
796.6704	183.3582	12495.1	11736.1
796.8124	185.5954	12446.4	11687.1
796.9544	187.832	12368.15	11608.65
797.0965	190.0681	12327.05	11560.2
797.2386	192.3037	12342.8	11573.2
797.3806	194.5388	12329.5	11555.35
797.5228	196.7734	12375.1	11599.15
797.6649	199.0075	12408.55	11631.15
797.807	201.2411	12554	11777.6
797.9492	203.4742	12592.8	11816.55
798.0914	205.7068	12755.6	11972.9
798.2336	207.9389	12863.35	12079.7
798.3758	210.1704	12984.3	12206.2
798.518	212.4015	13097.3	12331.2
798.6603	214.632	13194.1	12433.8
798.8025	216.862	13330.35	12568.65
798.9448	219.0915	13429	12663.8
799.0871	221.3205	13528.9	12762.6
799.2294	223.549	13610.75	12847.45
799.3718	225.777	13696.35	12936.1
799.5141	228.0044	13753.6	12985.9
799.6565	230.2314	13863.5	13093.4
799.7989	232.4578	13939.2	13166.45
799.9413	234.6837	14044.4	13265.75
800.0837	236.909	14102.65	13321.85
800.2262	239.1339	14096.95	13291.7
800.3687	241.3582	14033.65	13241.9
800.5111	243.582	13972.2	13150.25
800.6536	245.8053	13912.75	13106.95
800.7961	248.0281	13860.8	13054.2
800.9387	250.2503	13868.55	13060
801.0812	252.472	13942.1	13133.5
801.2238	254.6932	14060.5	13254.75
801.3664	256.9139	14171	13362.3
801.509	259.134	14379.6	13564.9
801.6516	261.3536	14608.8	13796.05
801.7942	263.5727	14905.25	14090.8
801.9369	265.7912	15158.15	14344.5
802.0795	268.0092	15461.7	14649
802.2222	270.2267	15654.65	14841.1
802.3649	272.4436	15797.55	14981.15
802.5076	274.6601	15823.35	14994.75
802.6504	276.8759	15774.5	14954.45
802.7931	279.0913	15664.9	14846.25
802.9359	281.3061	15538.5	14714.35
803.0787	283.5204	15468.35	14641.1
803.2215	285.7341	15467.35	14638.65
803.3643	287.9473	15472.45	14634.75
803.5071	290.16	15504.4	14679.7
803.6499	292.3721	15571.55	14742.75
803.7928	294.5837	15750	14921.1
803.9357	296.7947	15939.8	15108.7
804.0786	299.0052	16073.9	15246.95
804.2215	301.2152	16094.35	15259.85
804.3644	303.4246	15941.55	15112.95
804.5074	305.6334	15639.15	14813.3
804.6503	307.8418	15261	14431.2
804.7933	310.0495	14879.45	14044.95
804.9363	312.2568	14522.2	13689.25
805.0793	314.4635	14107.95	13271.8
805.2223	316.6696	13823.75	12979.55
805.3653	318.8752	13590.9	12743.1
805.5084	321.0802	13487.45	12648.2
805.6514	323.2847	13497.45	12653.65
805.7945	325.4887	13515.65	12669.05
805.9376	327.692	13530.3	12683.35
806.0807	329.8949	13461.4	12612.95
806.2238	332.0972	13344.75	12496.95
806.367	334.2989	13151.7	12297.65
806.5101	336.5001	12923.25	12071.8
806.6533	338.7007	12725.7	11876.05
806.7965	340.9008	12576.95	11726.5
806.9397	343.1003	12410.9	11561.15
807.0829	345.2992	12318.8	11463.45
807.2261	347.4976	12206.3	11347.65
807.3693	349.6955	12131.9	11271.25
807.5126	351.8927	12121.8	11261.25
807.6559	354.0895	12044.75	11168.2
807.7991	356.2856	12027.65	11164.5
807.9424	358.4812	11971.65	11113.25
808.0857	360.6763	11943.2	11081.05
808.2291	362.8707	11919.2	11047.2
808.3724	365.0646	11983.55	11117.9
808.5158	367.258	12002.3	11134.8
808.6591	369.4508	12079.65	11205.95
808.8025	371.643	12215.75	11339.3
808.9459	373.8346	12297.8	11425.1
809.0893	376.0257	12373.2	11498.85
809.2327	378.2162	12409.55	11532.8
809.3762	380.4062	12394.5	11521.1
809.5196	382.5956	12294.7	11424.85
809.6631	384.7844	12205.85	11340.15
809.8066	386.9726	12071.5	11206.1
809.9501	389.1603	12006.5	11143.95
810.0936	391.3474	11972.45	11071.2
810.2371	393.5339	11922.7	11050.65
810.3806	395.7199	11867.1	10998.65
810.5241	397.9052	11941.1	11071.05
810.6677	400.09	12021.95	11153.95
810.8113	402.2743	12130.45	11262.65
810.9548	404.4579	12283.95	11413.45
811.0984	406.641	12474.3	11599.85
811.2421	408.8235	12661.5	11791.8
811.3857	411.0054	12773.45	11897.25
811.5293	413.1868	12946.9	12064.6
811.673	415.3675	12991.65	12108.2
811.8166	417.5477	12968.75	12085.35
811.9603	419.7273	12894.65	12014.15
812.104	421.9064	12831.3	11945.55
812.2477	424.0848	12791.9	11910.55
812.3914	426.2627	12651.55	11765
812.5351	428.4399	12415	11534
812.6788	430.6166	12134.2	11243.4
812.8226	432.7928	11839.05	10951.55
812.9663	434.9683	11580.75	10695.8
813.1101	437.1432	11344	10457.35
813.2539	439.3176	11191.2	10315.75
813.3977	441.4914	11095.2	10216
813.5415	443.6645	11055.05	10177.25
813.6853	445.8371	11019.35	10134.95
813.8291	448.0091	10950.25	10066.95
813.973	450.1806	10972.75	10091.1
814.1168	452.3514	10927.35	10046.15
814.2607	454.5216	10979.05	10081.65
814.4046	456.6913	10937.4	10049.2
814.5485	458.8603	11008.25	10127.9
814.6924	461.0288	11049.35	10169.55
814.8363	463.1967	11010.55	10135.2
814.9802	465.3639	11043.3	10162.5
815.1241	467.5306	11034.75	10148.55
815.2681	469.6967	11017.05	10136
815.412	471.8622	11051.15	10171.85
815.556	474.0271	11072.95	10187.2
815.7	476.1914	11097.55	10206.7
815.844	478.3551	11112.75	10227.05
815.988	480.5182	11179.85	10297.6
816.132	482.6807	11267	10389.85
816.276	484.8426	11433.35	10562.85
816.4201	487.0039	11732.7	10857.95
816.5641	489.1647	12099.25	11211.9
816.7082	491.3248	12398.55	11511.7
816.8522	493.4843	12520.75	11639.2
816.9963	495.6432	12441.6	11557.15
817.1404	497.8015	12328.45	11436.7
817.2845	499.9592	12221.45	11324.5
817.4286	502.1163	12017.7	11119.4
817.5727	504.2728	11743.2	10853.45
817.7168	506.4287	11480.85	10598.25
817.861	508.5839	11189.1	10309.05
818.0051	510.7386	11022.05	10133.75
818.1493	512.8927	10957.2	10059.85
818.2935	515.0461	10923.65	10031.6
818.4377	517.199	11010.65	10113.4
818.5818	519.3512	11167.75	10271.55
818.726	521.5029	11437.4	10538.4
818.8703	523.6539	11672.7	10776.8
819.0145	525.8043	11764.4	10867.5
819.1587	527.9541	11694.65	10792.25
819.303	530.1033	11542.75	10641.85
819.4472	532.2519	11375.9	10480.25
819.5915	534.3999	11317.45	10419.35
819.7357	536.5472	11364.3	10467.65
819.88	538.694	11515.05	10621.7
820.0243	540.8401	11751.85	10851.55
820.1686	542.9856	11914.05	11007.25
820.3129	545.1305	11968.15	11051.65
820.4572	547.2748	11895.35	10981.95
820.6016	549.4185	11740	10824.6
820.7459	551.5615	11650.55	10737.2
820.8902	553.704	11691.8	10781.4
821.0346	555.8458	11734.95	10827.1
821.1789	557.987	11914.7	11009.3
821.3233	560.1276	12146.7	11238.4
821.4677	562.2675	12516.85	11606.45
821.6121	564.4069	13032.2	12122.9
821.7565	566.5456	13481.75	12577.45
821.9009	568.6837	13645.55	12741.15
822.0453	570.8212	13241	12338.95
822.1897	572.958	12594.95	11687.15
822.3342	575.0942	12009.65	11107.45
822.4786	577.2299	11562.45	10664.15
822.6231	579.3648	11328.9	10438.05
822.7675	581.4992	11272.3	10393.05
822.912	583.6329	11355.55	10477.35
823.0565	585.766	11481.1	10599.4
823.201	587.8985	11640.55	10750.3
823.3454	590.0304	11717.85	10790.7
823.4899	592.1616	11657.8	10747.6
823.6345	594.2922	11595.2	10680.95
823.779	596.4222	11395.6	10477.1
823.9235	598.5515	11201.15	10286.75
824.068	600.6802	11001.75	10087.6
824.2126	602.8083	10866.1	9958.05
824.3571	604.9358	10860.85	9951.6
824.5017	607.0626	10876.55	9959.9
824.6462	609.1888	11015.9	10095.95
824.7908	611.3144	11163.5	10240.2
824.9354	613.4393	11272.95	10353.15
825.08	615.5636	11402.8	10479.7
825.2246	617.6873	11439.7	10520.75
825.3692	619.8103	11379.2	10462.5
825.5138	621.9327	11166.85	10251.1
825.6584	624.0544	10969.3	10056.15
825.803	626.1756	10754.7	9841.05
825.9477	628.2961	10655.3	9740.7
826.0923	630.4159	10564.65	9646.7
826.237	632.5351	10555.05	9634.45
826.3816	634.6537	10525.4	9607.5
826.5263	636.7716	10509.1	9587.2
826.6709	638.8889	10552.3	9621.95
826.8156	641.0056	10569.8	9640.95
826.9603	643.1216	10581.55	9658.25
827.105	645.237	10534.05	9611.3
827.2497	647.3518	10423.85	9506.4
827.3944	649.4659	10371.4	9460
827.5391	651.5793	10309.15	9399.95
827.6838	653.6922	10257.85	9342.6
827.8285	655.8043	10228.9	9310.45
827.9733	657.9159	10248.7	9329
828.118	660.0268	10248.15	9328.15
828.2627	662.137	10239.85	9319.5
828.4075	664.2466	10254	9325.45
828.5522	666.3556	10238.55	9316.3
828.697	668.4639	10189.2	9269.95
828.8418	670.5716	10186.25	9272.6
828.9865	672.6786	10109.6	9189.7
829.1313	674.785	10092.55	9162.45
829.2761	676.8907	10041.35	9117.4
829.4209	678.9958	10038.8	9120.1
829.5657	681.1002	9996.15	9073.5
829.7105	683.204	10019.5	9081.7
829.8553	685.3072	9991.3	9063.65
830.0001	687.4097	9962.1	9037.05
830.1449	689.5115	9993.5	9062.95
830.2898	691.6127	9977.4	9055.45
830.4346	693.7132	9978.3	9055.3
830.5794	695.8131	9985	9042.6
830.7243	697.9123	10036.55	9107.45
830.8691	700.0109	10023.3	9091.8
831.014	702.1089	10087.5	9159.3
831.1588	704.2061	10131.3	9198.25
831.3037	706.3028	10205.65	9274.15
831.4486	708.3987	10230.85	9301.6
831.5935	710.4941	10246	9318.05
831.7383	712.5887	10301.75	9372.35
831.8832	714.6827	10340.5	9410.9
832.0281	716.7761	10443.6	9523.4
832.173	718.8688	10586.55	9658.35
832.3179	720.9608	10736.1	9798.6
832.4628	723.0522	10841.5	9900.55
832.6077	725.1429	10899.45	9961.65
832.7527	727.233	10991	10061.25
832.8976	729.3224	11082.85	10150.9
833.0425	731.4112	11039.25	10107.2
833.1874	733.4993	10923.25	9989.1
833.3324	735.5867	10691.3	9759.9
833.4773	737.6735	10468.45	9534.9
833.6222	739.7596	10303.4	9372.7
833.7672	741.845	10165.2	9234.25
833.9122	743.9298	10072.05	9138.2
834.0571	746.014	10047.75	9117.25
834.2021	748.0974	10024.25	9087.05
834.347	750.1802	10023.6	9088.35
834.492	752.2624	10073.95	9138.4
834.637	754.3439	10137	9200.55
834.782	756.4247	10209.35	9262.25
834.9269	758.5048	10363.5	9426.2
835.0719	760.5843	10626.55	9685.95
835.2169	762.6631	11013.1	10072.8
835.3619	764.7413	11568.55	10635.5
835.5069	766.8188	12231.05	11293.65
835.6519	768.8956	12766.8	11826.1
835.7969	770.9718	13153.1	12216.2
835.9419	773.0473	13099.4	12162.35
836.0869	775.1221	12885.55	11952.9
836.232	777.1962	12637.45	11699.55
836.377	779.2697	12590.45	11653.9
836.522	781.3426	12639.05	11687.45
836.667	783.4147	12740.9	11800.65
836.8121	785.4862	12749.15	11808.15
836.9571	787.557	12566.15	11627.8
837.1021	789.6271	12116.75	11175.85
837.2472	791.6966	11545.35	10604.2
837.3922	793.7654	10962.85	10024.15
837.5373	795.8335	10536.95	9598.5
837.6823	797.901	10262	9324.3
837.8274	799.9678	10120.25	9175
837.9724	802.0339	10035.7	9092.55
838.1175	804.0993	9998.15	9043.3
838.2626	806.1641	9913.4	8967.1
838.4076	808.2282	9846.95	8908.7
838.5527	810.2916	9777.15	8836.3
838.6978	812.3544	9716.75	8782.2
838.8428	814.4164	9659.2	8721.45
838.9879	816.4778	9720.55	8779.45
839.133	818.5385	9732.05	8788
839.2781	820.5986	9887.45	8945.15
839.4232	822.658	10112.75	9163.45
839.5682	824.7166	10429.55	9490
839.7133	826.7747	10947.8	10005.55
839.8584	828.832	11486.4	10543.8
840.0035	830.8886	11869.75	10920.45
840.1486	832.9446	12033.3	11087.65
840.2937	834.9999	11894	10951.05
840.4388	837.0545	11605.3	10657.75
840.5839	839.1085	11249.95	10303.4
840.729	841.1618	10932.7	9984.6
840.8741	843.2143	10662.35	9717.85
841.0192	845.2662	10464.95	9525.85
841.1643	847.3175	10336.35	9392.4
841.3095	849.368	10225.95	9282.3
841.4546	851.4179	10140.1	9193.55
841.5997	853.467	10052.05	9108.35
841.7448	855.5155	10024.2	9076.75
841.8899	857.5633	9933.9	8987.75
842.0351	859.6105	9839.4	8896.6
842.1802	861.6569	9798.7	8854.1
842.3253	863.7027	9688.8	8740.45
842.4704	865.7478	9657.05	8711.85
842.6156	867.7922	9594	8648.05
842.7607	869.8359	9582.1	8631.75
842.9058	871.8789	9625.75	8677.9
843.0509	873.9212	9693.25	8716.6
843.1961	875.9629	9739.6	8788.45
843.3412	878.0039	9847.45	8898.2
843.4863	880.0441	9926.65	8980.65
843.6315	882.0837	9985.3	9038.65
843.7766	884.1226	10024.15	9077.85
843.9218	886.1609	10106.95	9158.75
844.0669	888.1984	10189.8	9244.5
844.212	890.2352	10358.95	9414.3
844.3572	892.2714	10367.65	9419.3
844.5023	894.3069	10308.05	9359.55
844.6475	896.3416	10158.05	9209.5
844.7926	898.3757	10002.4	9056.5
844.9377	900.4091	9920.6	8967.7
845.0829	902.4418	9902.2	8947.8
845.228	904.4739	9916.25	8966.5
845.3732	906.5052	9979.95	9028.25
845.5183	908.5358	9955.2	9006.3
845.6635	910.5658	9807.45	8855
845.8086	912.595	9643.6	8694.1
845.9538	914.6236	9443.45	8494.35
846.0989	916.6515	9288.65	8340.35
846.2441	918.6786	9206.4	8254.45
846.3892	920.7051	9213.6	8257.35
846.5344	922.7309	9238.25	8286.95
846.6795	924.756	9239.85	8293.3
846.8246	926.7804	9310.65	8360.9
846.9698	928.8041	9327.35	8374.65
847.1149	930.8272	9389.55	8434.75
847.2601	932.8495	9350.05	8400.5
847.4052	934.8711	9331.5	8383.1
847.5504	936.892	9302.95	8349.8
847.6955	938.9123	9302.95	8348.5
847.8407	940.9318	9326.15	8376.3
847.9858	942.9506	9367.05	8417.9
848.131	944.9688	9303.8	8351.9
848.2761	946.9862	9242.6	8292.85
848.4213	949.003	9078.4	8129.7
848.5664	951.019	8973.9	8026.8
848.7115	953.0344	8916.8	7965.15
848.8567	955.0491	8911.35	7963.2
849.0018	957.063	8930.35	7983.4
849.147	959.0763	8992.55	8042.2
849.2921	961.0888	9008.7	8059.35
849.4373	963.1007	9079.2	8134.85
849.5824	965.1119	9071.95	8132.65
849.7275	967.1223	9068.75	8129.3
849.8727	969.1321	9052.65	8120.95
850.0178	971.1412	9030.75	8092.65
850.1629	973.1495	9029.8	8085.55
850.3081	975.1572	9062.55	8064.2
850.4532	977.1641	9051.05	8102.05
850.5983	979.1704	9056	8104.95
850.7435	981.1759	9014.4	8063.25
850.8886	983.1808	9044.25	8094.4
851.0337	985.1849	9034.1	8071.55
851.1788	987.1884	9086.85	8132.85
851.324	989.1911	9166.75	8213.15
851.4691	991.1932	9203.2	8255.2
851.6142	993.1945	9211.9	8262
851.7593	995.1951	9173.95	8224.95
851.9045	997.1951	9169.7	8213.25
852.0496	999.1943	9128.75	8177.2
852.1947	1001.1928	9129.5	8176.6
852.3398	1003.1906	9175.7	8226.3
852.4849	1005.1877	9272.55	8323.5
852.63	1007.1841	9376.3	8429.95
852.7751	1009.1798	9421.8	8471.3
852.9202	1011.1748	9337.7	8390
853.0653	1013.1691	9222.3	8271.9
853.2104	1015.1627	9053.2	8105.35
853.3555	1017.1556	8855.65	7911.55
853.5006	1019.1477	8695.35	7747.3
853.6457	1021.1392	8602.3	7661.9
853.7908	1023.1299	8569.3	7633.05
853.9359	1025.12	8584.95	7650.65
854.081	1027.1093	8619	7700.5
854.2261	1029.0979	8729.95	7812.1
854.3712	1031.0859	8812.75	7886.9
854.5163	1033.0731	8865.25	7931.45
854.6613	1035.0596	8820.9	7883.25
854.8064	1037.0454	8737.6	7796.95
854.9515	1039.0304	8667.9	7725.3
855.0965	1041.0148	8540.1	7593.8
855.2416	1042.9985	8447.8	7498.5
855.3867	1044.9814	8415.4	7469.95
855.5317	1046.9636	8372.65	7422.65
855.6768	1048.9452	8363.55	7416.15
855.8219	1050.926	8391.35	7444.95
855.9669	1052.9061	8442.85	7497.55
856.112	1054.8855	8435.55	7486.5
856.257	1056.8642	8469.3	7523.85
856.4021	1058.8421	8525.3	7572.15
856.5471	1060.8194	8558.35	7611.05
856.6921	1062.7959	8605.4	7658.5
856.8372	1064.7717	8659.6	7710.4
856.9822	1066.7469	8746.85	7800.9
857.1272	1068.7213	8816	7867.85
857.2723	1070.695	8894.65	7948.2
857.4173	1072.6679	8935.85	7988.65
857.5623	1074.6402	8971.05	8022.55
857.7073	1076.6117	8936.05	7987.3
857.8523	1078.5826	8834.9	7884.3
857.9973	1080.5527	8681.85	7734.45
858.1423	1082.5221	8580.2	7635.4
858.2873	1084.4908	8533.75	7587.5
858.4323	1086.4587	8561.15	7613.35
858.5773	1088.426	8585.55	7639.45
858.7223	1090.3925	8585.2	7633.45
858.8673	1092.3584	8603.1	7660.75
859.0123	1094.3235	8626.3	7679.9
859.1573	1096.2879	8727.3	7782.05
859.3022	1098.2515	8872.05	7925.8
859.4472	1100.2145	9021.5	8075.45
859.5922	1102.1767	9199.4	8254.5
859.7371	1104.1382	9405.9	8460.65
859.8821	1106.099	9666.85	8716.4
860.027	1108.0591	9867.85	8920.55
860.172	1110.0185	10013.95	9065.3
860.3169	1111.9771	10064.4	9119.05
860.4619	1113.9351	9990.15	9041.1
860.6068	1115.8923	9902.4	8957.7
860.7517	1117.8488	9807.6	8859.35
860.8967	1119.8045	9652.9	8705.1
861.0416	1121.7596	9496.55	8554.75
861.1865	1123.7139	9373.3	8431.5
861.3314	1125.6675	9323.75	8383.25
861.4763	1127.6204	9342.4	8398.65
861.6212	1129.5726	9279.45	8334.3
861.7661	1131.524	9187.85	8243.95
861.911	1133.4748	9039.65	8095.45
862.0559	1135.4248	8868.3	7920.7
862.2008	1137.3741	8731.8	7786.2
862.3457	1139.3226	8612.1	7665.6
862.4905	1141.2705	8555.55	7610.55
862.6354	1143.2176	8505.45	7553.45
862.7803	1145.164	8478.5	7530.35
862.9251	1147.1097	8378.3	7433.3
863.07	1149.0546	8302.6	7354.5
863.2148	1150.9989	8197.95	7251.45
863.3597	1152.9424	8112.8	7167
863.5045	1154.8852	8040	7091
863.6493	1156.8272	7996.6	7051.05
863.7942	1158.7686	8041	7085.55
863.939	1160.7092	8027.1	7081.65
864.0838	1162.6491	8071.75	7124.75
864.2286	1164.5883	8189.05	7245.3
864.3734	1166.5267	8289.25	7344.75
864.5182	1168.4644	8452.5	7508.55
864.663	1170.4014	8637.3	7690
864.8078	1172.3377	8868.05	7926.55
864.9526	1174.2732	9170	8230.8
865.0974	1176.2081	9596.65	8655.9
865.2421	1178.1421	10060.15	9115.8
865.3869	1180.0755	10574.8	9634.4
865.5317	1182.0082	10949.35	10012.7
865.6764	1183.9401	11135.15	10195.55
865.8212	1185.8713	10982.9	10048.05
865.9659	1187.8017	10648.6	9718.55
866.1106	1189.7315	10272.75	9348.75
866.2554	1191.6605	9860.9	8940.75
866.4001	1193.5888	9595.65	8668.65
866.5448	1195.5163	9457.65	8525.45
866.6895	1197.4432	9351.6	8414.1
866.8342	1199.3693	9291.6	8352.15
866.9789	1201.2947	9276.75	8333.6
867.1236	1203.2193	9224.5	8281.85
867.2683	1205.1432	9218.8	8274.8
867.413	1207.0664	9196.95	8255.05
867.5576	1208.9889	9151.45	8208.1
867.7023	1210.9106	9127.3	8188.3
867.847	1212.8316	9128.65	8189.6
867.9916	1214.7519	9158.5	8207.85
868.1363	1216.6715	9197.5	8258.8
868.2809	1218.5903	9288.9	8349.9
868.4255	1220.5084	9354.1	8416.95
868.5701	1222.4257	9470.55	8531
868.7148	1224.3424	9522.4	8590.1
868.8594	1226.2583	9640.75	8698.45
869.004	1228.1735	9794.85	8851.1
869.1486	1230.0879	9961.75	9022.8
869.2932	1232.0016	10132.9	9194.1
869.4377	1233.9146	10306.3	9365.75
869.5823	1235.8269	10332.45	9393.9
869.7269	1237.7384	10302.75	9361.3
869.8715	1239.6492	10213.2	9273.75
870.016	1241.5592	10211.15	9270.75
870.1606	1243.4686	10259.3	9321.1
870.3051	1245.3772	10454	9516.45
870.4496	1247.285	10683.45	9744.05
870.5941	1249.1922	10895.3	9954.75
870.7387	1251.0986	11094.4	10155
870.8832	1253.0042	11177.95	10238.45
871.0277	1254.9092	11274.4	10338.2
871.1722	1256.8134	11377.65	10440.15
871.3167	1258.7169	11513.85	10573.75
871.4611	1260.6196	11665.9	10728.9
871.6056	1262.5216	11853.75	10914.2
871.7501	1264.4229	12058.65	11120.75
871.8945	1266.3234	12224.8	11286.95
872.039	1268.2232	12379.45	11443.2
872.1834	1270.1223	12445.65	11509.95
872.3278	1272.0207	12487.3	11548.45
872.4723	1273.9183	12489.5	11543.8
872.6167	1275.8151	12428.35	11490.15
872.7611	1277.7113	12427.5	11486.55
872.9055	1279.6067	12522.3	11587.15
873.0499	1281.5014	12786.45	11846.7
873.1943	1283.3953	13228.45	12291.4
873.3386	1285.2885	13779.8	12842.5
873.483	1287.181	14337.75	13403.3
873.6274	1289.0727	14856.95	13922.4
873.7717	1290.9637	15214.1	14278.4
873.9161	1292.854	15392.1	14455.05
874.0604	1294.7435	15405.5	14467.55
874.2047	1296.6323	15236.8	14299.55
874.349	1298.5204	15054.55	14115.95
874.4933	1300.4077	14817.7	13882.05
874.6376	1302.2943	14499.35	13562.55
874.7819	1304.1802	14160.3	13226
874.9262	1306.0653	13673.1	12731.85
875.0705	1307.9497	13184.35	12248.55
875.2147	1309.8333	12744.3	11810.7
875.359	1311.7162	12412.7	11476.9
875.5032	1313.5984	12198.95	11257.05
875.6475	1315.4798	12059.95	11126
875.7917	1317.3605	11951.3	11012.65
875.9359	1319.2405	11797.2	10858.6
876.0801	1321.1197	11539.5	10599.4
876.2243	1322.9982	11224.3	10279.9
876.3685	1324.876	10931.35	9994.85
876.5127	1326.753	10621.45	9683.55
876.6569	1328.6293	10412.9	9472.6
876.801	1330.5048	10205.8	9266.5
876.9452	1332.3796	10036.2	9098.05
877.0893	1334.2537	9938.25	8979.6
877.2335	1336.127	9829.45	8892.1
877.3776	1337.9996	9781.15	8843.5
877.5217	1339.8714	9779.3	8840.25
877.6658	1341.7426	9817.35	8834.05
877.8099	1343.6129	9835.95	8896.3
877.954	1345.4826	9823.55	8886.45
878.0981	1347.3515	9800.05	8859.75
878.2422	1349.2196	9795.1	8857.8
878.3862	1351.087	9825.45	8887.6
878.5303	1352.9537	9849.65	8909.9
878.6743	1354.8197	9953.45	9018.35
878.8184	1356.6849	10085.65	9145.6
878.9624	1358.5493	10260.15	9322.5
879.1064	1360.4131	10450.3	9512.8
879.2504	1362.276	10595.3	9661.8
879.3944	1364.1383	10628.65	9690.4
879.5384	1365.9998	10484.8	9544.4
879.6823	1367.8606	10178.7	9240.6
879.8263	1369.7206	9849.05	8912
879.9702	1371.5799	9531.15	8593.05
880.1142	1373.4384	9276.65	8343.6
880.2581	1375.2962	9047.2	8108
880.402	1377.1533	8748	7813.9
880.5459	1379.0096	8376.45	7447.6
880.6898	1380.8652	8073.95	7141.75
880.8337	1382.7201	7794.75	6864.3
880.9776	1384.5742	7562.1	6625.35
881.1215	1386.4275	7373.55	6438.7
881.2653	1388.2802	7256.45	6322.45
881.4092	1390.132	7136.8	6202.65
881.553	1391.9832	7082.15	6142.8
881.6968	1393.8336	7005.8	6068.65
881.8406	1395.6832	6979.75	6043.5
881.9844	1397.5322	6927.55	5990.55
882.1282	1399.3803	6910.35	5968.45
882.272	1401.2278	6863.1	5931.4
882.4158	1403.0745	6866.45	5931.85
882.5595	1404.9204	6839.45	5908.7
882.7033	1406.7656	6864.15	5928.85
882.847	1408.6101	6864.75	5931.2
882.9908	1410.4538	6880.4	5945.15
883.1345	1412.2968	6930.35	5995.85
883.2782	1414.139	6961.55	6026.1
883.4219	1415.9805	7019.45	6085.4
883.5656	1417.8213	7105.2	6165.25
883.7092	1419.6613	7151.95	6221.1
883.8529	1421.5006	7317.5	6384.55
883.9965	1423.3391	7514.9	6582.6
884.1402	1425.1769	7744.3	6809.55
884.2838	1427.0139	8126.55	7189.45
884.4274	1428.8502	8619.4	7684.45
884.571	1430.6858	9104.85	8171.85
884.7146	1432.5206	9497.65	8564.05
884.8582	1434.3547	9693.55	8760.25
885.0018	1436.188	9677.65	8747.45
885.1453	1438.0206	9608.45	8675
885.2889	1439.8524	9458.9	8524.05
885.4324	1441.6835	9346.2	8409.7
885.5759	1443.5139	9255.05	8318.1
885.7194	1445.3435	9197.4	8265.4
885.8629	1447.1724	9168.75	8239.95
886.0064	1449.0005	9126.65	8195.75
886.1499	1450.8279	9077.95	8147.15
886.2933	1452.6545	9080.95	8151.8
886.4368	1454.4804	9094.4	8164.8
886.5802	1456.3056	9105.2	8169.25
886.7237	1458.13	9030.65	8104.4
886.8671	1459.9536	8886	7956.8
887.0105	1461.7766	8656	7725.05
887.1539	1463.5987	8357.3	7423.35
887.2972	1465.4202	8099.3	7169
887.4406	1467.2409	7768.7	6836.4
887.584	1469.0608	7530.35	6600.1
887.7273	1470.88	7288.8	6357.1
887.8706	1472.6984	7073.75	6145.4
888.0139	1474.5161	6901.2	5968.55
888.1572	1476.3331	6749.7	5819.15
888.3005	1478.1493	6662.95	5732.95
888.4438	1479.9648	6571.85	5643.9
888.5871	1481.7795	6502.65	5570.7
888.7303	1483.5935	6456.1	5527.45
888.8736	1485.4067	6414	5484.6
889.0168	1487.2192	6377.5	5447
889.16	1489.031	6334.4	5402.5
889.3032	1490.842	6301.55	5372.2
889.4464	1492.6522	6278.85	5350.7
889.5896	1494.4618	6248.35	5315.8
889.7327	1496.2705	6216.55	5284.75
889.8759	1498.0785	6178.75	5252.05
890.019	1499.8858	6126.4	5198.5
890.1622	1501.6924	6108.4	5179.6
890.3053	1503.4981	6052.75	5123.6
890.4484	1505.3032	6004.95	5074.9
890.5914	1507.1075	5974.1	5046.05
890.7345	1508.911	5923.55	4993.35
890.8776	1510.7138	5878.1	4950.05
891.0206	1512.5159	5840.45	4914.2
891.1637	1514.3172	5801.65	4873.8
891.3067	1516.1178	5774.9	4848.6
891.4497	1517.9176	5750.2	4817.3
891.5927	1519.7166	5720.9	4795.25
891.7357	1521.515	5681.6	4751.55
891.8786	1523.3126	5666.9	4740.9
892.0216	1525.1094	5641.35	4712.25
892.1645	1526.9055	5610.5	4684.5
892.3074	1528.7008	5598.05	4672.15
892.4503	1530.4954	5558.15	4630.4
892.5932	1532.2893	5556.85	4635.2
892.7361	1534.0824	5538.4	4611.05
892.879	1535.8747	5539.1	4618.2
893.0218	1537.6663	5517.75	4596.1
893.1647	1539.4572	5526.05	4602.75
893.3075	1541.2473	5536.25	4613.9
893.4503	1543.0367	5528.25	4607.1
893.5931	1544.8253	5554.4	4628.15
893.7359	1546.6132	5600.25	4672.3
893.8787	1548.4003	5632.95	4699.45
894.0214	1550.1867	5683.4	4755.1
894.1642	1551.9723	5739.15	4816.6
894.3069	1553.7572	5822.2	4901.6
894.4496	1555.5414	5963.05	5042.8
894.5923	1557.3247	6090.1	5174.3
894.735	1559.1074	6263.15	5349.7
894.8777	1560.8893	6420.25	5506.05
895.0204	1562.6705	6589.55	5673.15
895.163	1564.4509	6722.25	5807.95
895.3056	1566.2305	6775.15	5863.15
895.4482	1568.0094	6811.05	5898.1
895.5908	1569.7876	6822.55	5908.75
895.7334	1571.565	6794.75	5879.7
895.876	1573.3417	6776.6	5858.9
896.0186	1575.1176	6773.5	5858.55
896.1611	1576.8928	6775.55	5867.3
896.3036	1578.6672	6794.8	5887.2
896.4461	1580.4409	6817.4	5911.5
896.5886	1582.2138	6880.1	5970.85
896.7311	1583.986	6952.2	6040.75
896.8736	1585.7575	7057.85	6146.15
897.0161	1587.5282	7153.8	6247.2
897.1585	1589.2981	7265.95	6359.9
897.3009	1591.0673	7356.65	6450.8
897.4433	1592.8358	7488.7	6582.3
897.5857	1594.6035	7590.55	6676.95
897.7281	1596.3704	7704.85	6793
897.8705	1598.1366	7792.7	6882.15
898.0128	1599.9021	7881.35	6973.25
898.1551	1601.6668	7975.35	7066
898.2975	1603.4308	8121.55	7208.1
898.4398	1605.194	8273.35	7360.45
898.5821	1606.9564	8483.25	7579.3
898.7243	1608.7182	8721.6	7818.5
898.8666	1610.4791	9014.65	8116.45
899.0088	1612.2394	9343.75	8448.25
899.1511	1613.9988	9651.2	8751.75
899.2933	1615.7576	9930.95	9026.7
899.4355	1617.5156	10131.55	9218.9
899.5776	1619.2728	10203.05	9291.45
899.7198	1621.0293	10081.3	9173.9
899.862	1622.785	9838.2	8927.85
900.0041	1624.54	9467.35	8562.2
900.1462	1626.2942	9077.85	8175.9
900.2883	1628.0477	8637.85	7734.95
900.4304	1629.8005	8287.6	7380.95
900.5725	1631.5525	7941.45	7039.6
900.7145	1633.3037	7652.75	6752.55
900.8566	1635.0542	7417	6513.95
900.9986	1636.804	7232.35	6328.75
901.1406	1638.553	7182.4	6189.95
901.2826	1640.3013	7040.95	6137.8
901.4245	1642.0488	6988.15	6085.25
901.5665	1643.7955	6978.5	6081.15
901.7085	1645.5416	7014.7	6114.7
901.8504	1647.2868	7131.2	6228.3
901.9923	1649.0313	7223.15	6318.95
902.1342	1650.7751	7341.35	6437.05
902.2761	1652.5181	7495.3	6592.8
902.4179	1654.2604	7632.1	6731.25
902.5598	1656.0019	7851.55	6951.3
902.7016	1657.7427	8082.75	7183.2
902.8434	1659.4828	8326.25	7422.05
902.9852	1661.222	8451.35	7546
903.127	1662.9606	8459.15	7556.1
903.2687	1664.6984	8256.8	7354.9
903.4105	1666.4354	7858.6	6951.1
903.5522	1668.1717	7345.3	6439.6
903.6939	1669.9072	6813.25	5908.2
903.8356	1671.642	6370.9	5463.9
903.9773	1673.3761	6026.55	5122.15
904.119	1675.1094	5718.1	4815
904.2606	1676.8419	5489.55	4586.55
904.4022	1678.5737	5274.45	4370.65
904.5439	1680.3048	5152.4	4247.45
904.6855	1682.0351	5012.35	4107.55
904.827	1683.7646	4912.25	4007.2
904.9686	1685.4934	4839.8	3938.65
905.1101	1687.2215	4756.65	3856.25
905.2517	1688.9488	4677.5	3776.7
905.3932	1690.6754	4615.8	3715.7
905.5347	1692.4012	4575.25	3673.1
905.6761	1694.1263	4542.4	3640.7
905.8176	1695.8506	4502.7	3601.45
905.9591	1697.5742	4458.95	3557.75
906.1005	1699.297	4421.45	3522.85
906.2419	1701.0191	4374.65	3477.3
906.3833	1702.7404	4340.1	3444.45
906.5246	1704.461	4298.65	3398.05
906.666	1706.1808	4280.6	3381.4
906.8073	1707.8999	4253.05	3354.55
906.9487	1709.6182	4212.95	3319.2
907.09	1711.3358	4199.55	3305
907.2313	1713.0527	4168.85	3274.65
907.3725	1714.7688	4147.9	3246.25
907.5138	1716.4841	4118.3	3217.3
907.655	1718.1987	4121.55	3220.9
907.7962	1719.9126	4112.15	3216.3
907.9374	1721.6257	4059.75	3164.4
908.0786	1723.338	4070.4	3177.6
908.2198	1725.0496	4045	3150.2
908.3609	1726.7605	4047.3	3151.65
908.502	1728.4706	4027.95	3130.1
908.6431	1730.18	4012.25	3114.2
908.7842	1731.8886	4002.5	3107.85
908.9253	1733.5964	4000.4	3084.95
909.0664	1735.3036	3957.45	3061
909.2074	1737.0099	3943.65	3051
909.3484	1738.7156	3927.5	3033.95
909.4894	1740.4204	3908.45	3011.55
909.6304	1742.1246	3894.95	2997.3
909.7714	1743.8279	3864.9	2970.2
909.9123	1745.5306	3865.75	2972.25
910.0532	1747.2325	3832.5	2940.95
910.1941	1748.9336	3812.1	2916.9
910.335	1750.634	3813.9	2916.45
910.4759	1752.3336	3791.1	2898.6
910.6168	1754.0325	3781.7	2891.95
910.7576	1755.7307	3765.95	2874
910.8984	1757.4281	3769.2	2873.3
911.0392	1759.1247	3773.4	2867.3
911.18	1760.8206	3753.6	2852.35
911.3208	1762.5158	3737.35	2836.45
911.4615	1764.2102	3727.05	2830.55
911.6022	1765.9039	3723.75	2828.9
911.7429	1767.5968	3705.3	2813.4
911.8836	1769.289	3683.55	2789.4
912.0243	1770.9804	3683.5	2787.35
912.1649	1772.6711	3673.45	2773.75
912.3056	1774.361	3667.5	2769.45
912.4462	1776.0502	3670.7	2772.35
912.5868	1777.7386	3660.65	2762.45
912.7274	1779.4263	3639	2743.2
912.8679	1781.1132	3638.05	2745.45
913.0084	1782.7994	3630.85	2737.5
913.149	1784.4849	3617.6	2726.95
913.2895	1786.1696	3629.9	2720.6
913.4299	1787.8535	3609.55	2720
913.5704	1789.5367	3591.3	2700.55
913.7108	1791.2192	3588.05	2697.8
913.8513	1792.9009	3602.6	2686.55
913.9917	1794.5818	3580.55	2684.2
914.132	1796.2621	3580.9	2686.6
914.2724	1797.9415	3571.85	2675.7
914.4128	1799.6202	3556.7	2664.25
914.5531	1801.2982	3552.55	2657.35
914.6934	1802.9755	3537.2	2641.05
914.8337	1804.6519	3539.8	2645.05
914.9739	1806.3277	3516.05	2623.85
915.1142	1808.0027	3514.2	2626.15
915.2544	1809.6769	3506.55	2617.25
915.3946	1811.3504	3510.05	2618.6
915.5348	1813.0231	3497.95	2606.5
915.675	1814.6951	3489.3	2597.95
915.8151	1816.3664	3496.5	2601.8
915.9553	1818.0369	3487.45	2594.85
916.0954	1819.7067	3481.15	2589.8
916.2355	1821.3757	3483.15	2587.05
916.3755	1823.044	3471.85	2576.75
916.5156	1824.7115	3460.6	2566.4
916.6556	1826.3783	3451.9	2560.6
916.7956	1828.0443	3455.05	2561.75
916.9356	1829.7096	3435.85	2540.05
917.0756	1831.3741	3436.55	2539.55
917.2155	1833.0379	3426.6	2533.1
917.3555	1834.701	3427.6	2536.5
917.4954	1836.3633	3403.25	2513.2
917.6353	1838.0248	3387.2	2494.55
917.7751	1839.6856	3388.85	2497
917.915	1841.3457	3380.5	2486.45
918.0548	1843.005	3395.35	2501.1
918.1946	1844.6636	3392.2	2498.45
918.3344	1846.3214	3382	2487.65
918.4742	1847.9785	3373.25	2482.25
918.6139	1849.6349	3380.25	2485.35
918.7537	1851.2904	3371.55	2468.45
918.8934	1852.9453	3358.85	2463.7
919.0331	1854.5994	3354.45	2456.95
919.1727	1856.2528	3350.5	2450.2
919.3124	1857.9054	3350.55	2456.65
919.452	1859.5572	3326	2433.45
919.5916	1861.2083	3331.6	2436.2
919.7312	1862.8587	3338.25	2441.65
919.8708	1864.5084	3332.25	2436.6
920.0103	1866.1572	3331.9	2436.95
920.1498	1867.8054	3303.85	2407
920.2893	1869.4528	3305.4	2409.9
920.4288	1871.0994	3295.9	2400.5
920.5683	1872.7453	3300.65	2405
920.7077	1874.3905	3296.95	2396.95
920.8471	1876.0349	3281.8	2386.25
920.9865	1877.6786	3268.6	2373.2
921.1259	1879.3215	3269.6	2377.2
921.2653	1880.9637	3264.25	2369.5
921.4046	1882.6051	3273.3	2379.8
921.5439	1884.2458	3249.45	2355.95
921.6832	1885.8858	3247.7	2354.2
921.8225	1887.525	3249.15	2355.3
921.9617	1889.1634	3238.05	2343.2
922.101	1890.8011	3222.45	2329.25
922.2402	1892.4381	3227.65	2335.2
922.3794	1894.0743	3220.6	2327.2
922.5185	1895.7098	3209.45	2316.65
922.6577	1897.3446	3204.25	2311
922.7968	1898.9786	3203.4	2305.2
922.9359	1900.6118	3187.6	2296.05
923.075	1902.2443	3167.6	2275.2
923.214	1903.8761	3148.45	2256.6
923.3531	1905.5071	3158.5	2265.3
923.4921	1907.1374	3153.4	2261
923.6311	1908.7669	3141.8	2249.4
923.77	1910.3957	3145.6	2254.65
923.909	1912.0237	3121.85	2230.8
924.0479	1913.651	3128.3	2234.7
924.1868	1915.2776	3135.95	2243.45
924.3257	1916.9034	3110.1	2221.65
924.4646	1918.5285	3091.85	2202.05
924.6034	1920.1528	3085.15	2195.45
924.7422	1921.7764	3074.85	2184.6
924.881	1923.3992	3075.45	2183.4
925.0198	1925.0213	3068.1	2175.9
925.1586	1926.6427	3061.6	2170.4
925.2973	1928.2633	3122	2145.8
925.436	1929.8832	3069.4	2175.1
925.5747	1931.5023	3048.4	2158.75
925.7134	1933.1207	3047.05	2155.9
925.852	1934.7383	3032.6	2139.9
925.9906	1936.3552	3024.1	2134.75
926.1292	1937.9714	3012.5	2122.1
926.2678	1939.5868	3006.1	2109.3
926.4064	1941.2015	2992.1	2097.6
926.5449	1942.8154	2994.95	2101.75
926.6834	1944.4286	2975.3	2083.9
926.8219	1946.041	3002.5	2089.4
926.9604	1947.6528	2977	2077.05
927.0988	1949.2637	2963.35	2071.45
927.2372	1950.8739	2957.25	2068.45
927.3756	1952.4834	2960.6	2067.25
927.514	1954.0921	2930.7	2038.9
927.6523	1955.7001	2941	2044.55
927.7907	1957.3074	2919.6	2032.2
927.929	1958.9139	2913.55	2028.05
928.0673	1960.5197	2922	2032.7
928.2055	1962.1247	2899.95	2012.55
928.3438	1963.729	2888.55	1999.7
928.482	1965.3325	2887.5	1993.75
928.6202	1966.9353	2864.5	1975.1
928.7584	1968.5374	2872.8	1984
928.8965	1970.1387	2867.3	1980.05
929.0346	1971.7393	2847.4	1958.05
929.1727	1973.3392	2852.5	1962.95
929.3108	1974.9383	2849.2	1963.3
929.4489	1976.5366	2825.75	1937.2
929.5869	1978.1342	2827.7	1939.5
929.7249	1979.7311	2825.8	1939.3
929.8629	1981.3273	2817.75	1929.9
930.0009	1982.9227	2813.6	1924.35
930.1388	1984.5173	2805	1919.25
930.2767	1986.1112	2788.6	1902.8
930.4146	1987.7044	2791.45	1907.55
930.5525	1989.2968	2784.7	1895.3
930.6904	1990.8885	2781.75	1893.65
930.8282	1992.4795	2782.85	1896
930.966	1994.0697	2769.95	1886.85
931.1038	1995.6592	2760.75	1875.4
931.2415	1997.2479	2762.8	1875.85
931.3793	1998.8359	2762.05	1878.2
931.517	2000.4232	2745.6	1863.95
931.6547	2002.0097	2735.85	1856
931.7923	2003.5955	2728.85	1846.7
931.93	2005.1805	2740.95	1856.2
932.0676	2006.7648	2725.8	1842.9
932.2052	2008.3484	2713.95	1829.65
932.3427	2009.9312	2706.3	1822.35
932.4803	2011.5133	2706.25	1827.85
932.6178	2013.0946	2712.45	1829.75
932.7553	2014.6752	2709.8	1828.75
932.8928	2016.2551	2700.75	1816.3
933.0302	2017.8342	2682.05	1799.45
933.1676	2019.4126	2688.9	1807
933.305	2020.9902	2673.35	1792.45
933.4424	2022.5672	2680.6	1800.3
933.5798	2024.1433	2673.95	1788.55
933.7171	2025.7188	2654.5	1774.7
933.8544	2027.2935	2652.45	1769.5
933.9917	2028.8674	2643.5	1763.15
934.129	2030.4406	2648.65	1769.25
934.2662	2032.0131	2628.3	1749.4
934.4034	2033.5849	2632.55	1751.75
934.5406	2035.1559	2629.65	1752.85
934.6778	2036.7261	2625.65	1742.9
934.8149	2038.2957	2606.2	1723.7
934.952	2039.8645	2621.6	1735.25
935.0891	2041.4325	2634.45	1747.7
935.2262	2042.9998	2606.7	1724.3
935.3632	2044.5664	2606.1	1723.85
935.5002	2046.1323	2598.65	1717.2
935.6372	2047.6974	2586.35	1706.9
935.7742	2049.2617	2583.8	1702.9
935.9111	2050.8254	2590.65	1702.75
936.048	2052.3883	2595.35	1710.4
936.1849	2053.9504	2595.8	1712.2
936.3218	2055.5118	2567.85	1679.6
936.4586	2057.0725	2567.45	1678.5
936.5955	2058.6325	2558.25	1675.85
936.7323	2060.1917	2559.25	1678.45
936.869	2061.7502	2554.9	1673.35
937.0058	2063.3079	2546.4	1668.75
937.1425	2064.8649	2538.55	1653.35
937.2792	2066.4212	2537.35	1655.05
937.4159	2067.9767	2543.05	1659.8
937.5525	2069.5315	2524.25	1640.4
937.6891	2071.0856	2508.4	1625.95
937.8257	2072.6389	2511.5	1628.95
937.9623	2074.1915	2514.1	1636.2
938.0989	2075.7433	2511.5	1627.6
938.2354	2077.2945	2503.7	1621.85
938.3719	2078.8448	2495.8	1611.25
938.5084	2080.3945	2493.55	1610.45
938.6448	2081.9434	2498.4	1614.55
938.7812	2083.4916	2483.1	1598.3
938.9176	2085.039	2477	1587.1
939.054	2086.5857	2476.6	1584
939.1903	2088.1317	2469.6	1579
939.3267	2089.677	2470.45	1579.95
939.463	2091.2215	2467.25	1578
939.5992	2092.7652	2460.1	1567.55
939.7355	2094.3083	2461.35	1571.25
939.8717	2095.8506	2449.25	1562.15
940.0079	2097.3921	2450	1565.05
940.1441	2098.933	2440.95	1553.55
940.2802	2100.4731	2443.3	1556.35
940.4163	2102.0124	2450.3	1544.85
940.5524	2103.5511	2444.55	1557.2
940.6885	2105.089	2445.2	1558.7
940.8245	2106.6261	2423	1534.3
940.9606	2108.1626	2422.35	1537.55
941.0965	2109.6983	2433.45	1520.15
941.2325	2111.2332	2417.85	1529
941.3684	2112.7675	2419.3	1529.6
941.5044	2114.301	2403	1512.55
941.6403	2115.8337	2411.95	1523.6
941.7761	2117.3657	2412	1525.3
941.912	2118.897	2408.65	1520.05
942.0478	2120.4276	2396.5	1503.1
942.1835	2121.9575	2397.7	1508.75
942.3193	2123.4866	2386.75	1494.15
942.455	2125.0149	2389.75	1499.5
942.5907	2126.5426	2364.8	1479.5
942.7264	2128.0695	2370	1482.35
942.8621	2129.5956	2363.35	1483.9
942.9977	2131.1211	2365.85	1479.2
943.1333	2132.6458	2360.95	1476.85
943.2689	2134.1698	2347.9	1458.5
943.4044	2135.693	2359.8	1467.8
943.54	2137.2155	2351.2	1460.5
943.6755	2138.7373	2337.25	1452.95
943.8109	2140.2584	2338.95	1456
943.9464	2141.7787	2333.1	1445.9
944.0818	2143.2983	2312.35	1429.9
944.2172	2144.8171	2312.1	1430.95
944.3526	2146.3353	2323.45	1438.2
944.4879	2147.8527	2308.8	1426.3
944.6232	2149.3693	2313.35	1423.45
944.7585	2150.8853	2301.95	1413
944.8938	2152.4005	2295.1	1405.15
945.029	2153.9149	2309.95	1420.55
945.1642	2155.4287	2295.5	1405.6
945.2994	2156.9417	2288.4	1399.55
945.4346	2158.454	2289.95	1401.35
945.5697	2159.9655	2282.45	1400.95
945.7048	2161.4764	2289.8	1404.05
945.8399	2162.9865	2284.85	1403.75
945.9749	2164.4958	2268.95	1384.35
946.1099	2166.0045	2272.95	1387.8
946.2449	2167.5124	2265.85	1381.2
946.3799	2169.0195	2269.65	1382.4
946.5148	2170.526	2268.15	1378.4
946.6498	2172.0317	2257.55	1369.7
946.7846	2173.5367	2253	1363.8
946.9195	2175.0409	2243.2	1356.95
947.0543	2176.5445	2244.45	1358.4
947.1891	2178.0473	2247.25	1358.15
947.3239	2179.5494	2253.35	1361.85
947.4587	2181.0507	2231.85	1342.95
947.5934	2182.5513	2219.15	1332.35
947.7281	2184.0512	2234.8	1346.55
947.8628	2185.5504	2234.45	1346.95
947.9974	2187.0488	2203.55	1319.1
948.132	2188.5465	2213.5	1330.1
948.2666	2190.0435	2215.35	1329.4
948.4012	2191.5397	2210.3	1322.15
948.5357	2193.0353	2211.1	1322.4
948.6702	2194.5301	2203.65	1311.9
948.8047	2196.0241	2205.35	1311.25
948.9392	2197.5175	2191.05	1300.15
949.0736	2199.0101	2206.15	1311.45
949.208	2200.502	2183.9	1295.8
949.3424	2201.9931	2176.3	1292
949.4767	2203.4835	2178.65	1290.35
949.611	2204.9733	2178.7	1277.55
949.7453	2206.4622	2177.6	1293.6
949.8796	2207.9505	2165.8	1281.6
950.0138	2209.438	2147.7	1267
950.148	2210.9248	2156.4	1271.1
950.2822	2212.4109	2148.55	1261.55
950.4164	2213.8962	2142.3	1249.15
950.5505	2215.3809	2151.25	1260.35
950.6846	2216.8648	2153.5	1260.6
950.8186	2218.3479	2159.25	1262.15
950.9527	2219.8304	2142.4	1247.9
951.0867	2221.3121	2133.6	1237.75
951.2207	2222.7931	2123.65	1233.25
951.3546	2224.2733	2118.2	1227.55
951.4886	2225.7529	2106.15	1216.85
951.6225	2227.2317	2114.05	1224.9
951.7563	2228.7098	2108.25	1224.45
951.8902	2230.1872	2093.75	1208.6
952.024	2231.6638	2101.75	1217.2
952.1578	2233.1397	2085.85	1198
952.2916	2234.6149	2096.85	1213.15
952.4253	2236.0894	2081.2	1194.65
952.559	2237.5632	2099.05	1202.3
952.6927	2239.0362	2084.9	1200.05
952.8263	2240.5085	2076.5	1189.65
952.9599	2241.9801	2064.2	1177.65
953.0935	2243.4509	2073.45	1185.3
953.2271	2244.921	2065.85	1175.05
953.3606	2246.3904	2066.25	1174.25
953.4941	2247.8591	2056.95	1166.3
953.6276	2249.3271	2055.3	1165.75
953.7611	2250.7943	2038.1	1148.1
953.8945	2252.2608	2040.2	1150.35
954.0279	2253.7266	2036.25	1147.3
954.1612	2255.1917	2046.75	1157.8
954.2946	2256.656	2033.25	1145.05
954.4279	2258.1197	2035.9	1152.1
954.5612	2259.5826	2025.85	1137.75
954.6944	2261.0447	2025.45	1137.75
954.8276	2262.5062	2022.35	1130.95
954.9608	2263.9669	2019.65	1127.3
955.094	2265.4269	2014	1125.9
955.2271	2266.8862	2011.95	1123.7
955.3602	2268.3448	2008.3	1121.15
955.4933	2269.8026	2007.9	1123.35
955.6264	2271.2598	1997.5	1110.7
955.7594	2272.7162	1999.1	1112.35
955.8924	2274.1719	1999.4	1108.6
956.0253	2275.6268	1998.55	1106.95
956.1583	2277.0811	1996.95	1105.7
956.2912	2278.5346	2002.1	1114
956.4241	2279.9874	1991.05	1105.25
956.5569	2281.4395	1984.9	1102.1
956.6897	2282.8908	1987.85	1097.3
956.8225	2284.3414	1985.95	1096.45
956.9553	2285.7914	1978.2	1091
957.088	2287.2406	1980.05	1088.4
957.2207	2288.689	1968.3	1076.4
957.3534	2290.1368	1980.95	1086.7
957.486	2291.5838	1975.7	1081.5
957.6186	2293.0302	1964.05	1068.25
957.7512	2294.4758	1970.3	1079
957.8838	2295.9206	1961.5	1070.65
958.0163	2297.3648	1956.25	1066.5
958.1488	2298.8082	1953	1063.35
958.2813	2300.251	1948.65	1058.95
958.4137	2301.693	1956.95	1063.95
958.5461	2303.1343	1955.9	1063.75
958.6785	2304.5748	1945.6	1055.3
958.8108	2306.0147	1933.05	1045.8
958.9432	2307.4538	1934	1046.7
959.0754	2308.8922	1925.1	1041.55
959.2077	2310.3299	1933.25	1046.3
959.3399	2311.7669	1926.15	1042.55
959.4721	2313.2031	1928.35	1042
959.6043	2314.6387	1919.6	1032
959.7365	2316.0735	1920.7	1029.4
959.8686	2317.5076	1915.55	1025.45
960.0006	2318.941	1910	1019.05
960.1327	2320.3737	1913.25	1021.45
960.2647	2321.8056	1919.05	1027.25
960.3967	2323.2369	1908.7	1017.9
960.5287	2324.6674	1909.8	1020.25
960.6606	2326.0972	1898.75	1007.1
960.7925	2327.5263	1905	1015.95
960.9244	2328.9547	1889.8	999.45
961.0562	2330.3823	1891.05	997.7
961.1881	2331.8092	1900.9	1006
961.3198	2333.2355	1885.85	992.45
961.4516	2334.661	1885.55	993.6
961.5833	2336.0858	1892.1	1000.3
961.715	2337.5098	1883.5	992.45
961.8467	2338.9332	1877.5	986.9
961.9783	2340.3558	1873.5	982.45
962.1099	2341.7778	1862.05	974.65
962.2415	2343.199	1867.6	976.15
962.373	2344.6195	1856.95	970.55
962.5045	2346.0393	1861.1	975.5
962.636	2347.4583	1859.7	969.55
962.7675	2348.8767	1861.75	971.7
962.8989	2350.2943	1862.65	969.75
963.0303	2351.7113	1862.85	968.95
963.1617	2353.1275	1860.2	968.2
963.293	2354.543	1866.45	967.65
963.4243	2355.9578	1864.25	972.7
963.5556	2357.3718	1850.85	964.3
963.6868	2358.7852	1845.7	955.9
963.818	2360.1978	1845.05	958.9
963.9492	2361.6098	1830.05	941.95
964.0803	2363.021	1841.7	947
964.2114	2364.4315	1832.85	943.2
964.3425	2365.8413	1834.95	946
964.4736	2367.2504	1830.65	944.25
964.6046	2368.6587	1824.8	936.3
964.7356	2370.0664	1824.5	937.1
964.8666	2371.4733	1822.4	932.7
964.9975	2372.8795	1825.4	935.25
965.1284	2374.285	1819.4	928.9
965.2593	2375.6899	1817.4	929.8
965.3901	2377.0939	1800.75	912.75
965.5209	2378.4973	1806.2	916.8
965.6517	2379.9	1799.5	911.6
965.7825	2381.3019	1798.55	911.35
965.9132	2382.7032	1793.25	905.65
966.0439	2384.1037	1787.65	902.55
966.1745	2385.5035	1787.7	902.2
966.3051	2386.9027	1775.6	890.4
966.4357	2388.3011	1793.7	903.2
966.5663	2389.6987	1781.65	894.7
966.6968	2391.0957	1770.3	883.95
966.8273	2392.492	1766.2	880.7
966.9578	2393.8876	1765.35	879.35
967.0882	2395.2824	1757.2	870.4
967.2186	2396.6765	1756.05	868.95
967.349	2398.07	1752.1	862.35
967.4793	2399.4627	1764	874.15
967.6097	2400.8547	1756.8	864.5
967.7399	2402.246	1750.5	856
967.8702	2403.6366	1744	853.7
968.0004	2405.0265	1741.2	855.25
968.1306	2406.4156	1752.7	861.7
968.2607	2407.8041	1755	862.6
968.3909	2409.1918	1737.1	846
968.521	2410.5789	1732.05	843.95
968.651	2411.9652	1731.2	839.1
968.781	2413.3508	1740.9	853.2
968.911	2414.7358	1737.15	846.85
969.041	2416.12	1737.6	848.8
969.1709	2417.5035	1725.4	834.95
969.3008	2418.8863	1721.2	832.75
969.4307	2420.2684	1723.15	834
969.5606	2421.6497	1718.1	829.5
969.6904	2423.0304	1716.45	827.55
969.8201	2424.4104	1710.4	820.4
969.9499	2425.7896	1708.8	812.9
970.0796	2427.1682	1709.95	820.85
970.2093	2428.546	1703.3	812.1
970.3389	2429.9232	1707.7	815.9
970.4685	2431.2996	1698.95	810.15
970.5981	2432.6753	1703.35	813.7
970.7277	2434.0503	1705	814.9
970.8572	2435.4246	1691.5	803.85
970.9867	2436.7982	1685.95	795.5
971.1161	2438.1711	1694.1	804.55
971.2456	2439.5433	1685.95	796.1
971.375	2440.9148	1685.3	790.2
971.5043	2442.2856	1678.4	790.85
971.6336	2443.6557	1669.6	779.9
971.7629	2445.025	1674.85	789.55
971.8922	2446.3937	1679.5	790.15
972.0214	2447.7617	1667.05	778.2
972.1506	2449.1289	1670.55	780.5
972.2798	2450.4955	1662.3	772.65
972.4089	2451.8613	1662.05	773.95
972.538	2453.2265	1665.45	778.1
972.6671	2454.5909	1670.2	780.1
972.7961	2455.9546	1661.15	772.7
972.9251	2457.3177	1656.05	766.8
973.0541	2458.68	1664.25	774.75
973.1831	2460.0416	1661.2	770.3
973.312	2461.4025	1655.6	765.5
973.4408	2462.7627	1659.6	759.35
973.5697	2464.1222	1650.35	762.45
973.6985	2465.4811	1654.6	767.5
973.8273	2466.8392	1645.15	757.9
973.956	2468.1966	1653.15	763.4
974.0847	2469.5533	1645.75	752.95
974.2134	2470.9093	1637.45	748.55
974.3421	2472.2645	1643.15	754.2
974.4707	2473.6191	1639	752.4
974.5993	2474.973	1646.2	757
974.7278	2476.3262	1640	751.1
974.8563	2477.6787	1626.85	738.35
974.9848	2479.0305	1629.25	742.05
975.1132	2480.3816	1628.75	737.65
975.2417	2481.7319	1626.65	738.5
975.37	2483.0816	1628.45	741.85
975.4984	2484.4306	1625	735.05
975.6267	2485.7789	1616.25	728.8
975.755	2487.1264	1614	725.15
975.8833	2488.4733	1617.65	730.6
976.0115	2489.8195	1615.5	721.2
976.1397	2491.165	1612.35	719.8
976.2678	2492.5097	1609.65	721.75
976.3959	2493.8538	1607.2	720.65
976.524	2495.1972	1599.25	713.2
976.6521	2496.5398	1595.9	705.05
976.7801	2497.8818	1606.55	713.75
976.9081	2499.2231	1599.7	709.2
977.036	2500.5637	1600.25	711.2
977.164	2501.9035	1595.35	704.8
977.2918	2503.2427	1593.95	703.3
977.4197	2504.5812	1590.55	700.8
977.5475	2505.919	1587.95	698.3
977.6753	2507.256	1592.85	705.7
977.8031	2508.5924	1587.7	698.7
977.9308	2509.9281	1578.85	683.9
978.0585	2511.2631	1582.15	692.1
978.1861	2512.5974	1576	689
978.3137	2513.9309	1576.6	687.8
978.4413	2515.2638	1592.6	676.05
978.5689	2516.596	1578.35	690.8
978.6964	2517.9275	1565.45	675
978.8239	2519.2583	1564.55	673.9
978.9513	2520.5884	1565.2	676.45
979.0788	2521.9178	1560.25	672.45
979.2062	2523.2465	1560.25	674.8
979.3335	2524.5745	1552.25	664.6
979.4608	2525.9018	1558.55	669.6
979.5881	2527.2284	1558.7	670.05
979.7154	2528.5543	1557.7	672.55
979.8426	2529.8796	1555.7	667.75
979.9698	2531.2041	1559.1	671.7
980.0969	2532.5279	1548.1	662.65
980.224	2533.851	1547.1	657.1
980.3511	2535.1735	1555.7	668.55
980.4781	2536.4952	1546.15	658.75
980.6052	2537.8163	1544.65	655.45
980.7321	2539.1366	1538.55	649.35
980.8591	2540.4562	1549	659.4
980.986	2541.7752	1550.6	663.4
981.1129	2543.0935	1536.7	645.95
981.2397	2544.411	1552.85	663.25
981.3665	2545.7279	1539.55	651.05
981.4933	2547.0441	1535.6	648.1
981.62	2548.3596	1542.95	650.45
981.7467	2549.6744	1534.4	644.6
981.8734	2550.9885	1543	643.85
982.0001	2552.3019	1537.45	647.3
982.1267	2553.6146	1532.7	645.1
982.2532	2554.9266	1525.6	637
982.3798	2556.2379	1534.65	645.5
982.5063	2557.5485	1531	644.5
982.6327	2558.8585	1528.85	634.5
982.7592	2560.1677	1531.45	639.1
982.8856	2561.4762	1523.2	635.25
983.0119	2562.7841	1525.45	635.1
983.1383	2564.0913	1518.25	630.5
983.2646	2565.3977	1520.7	633.05
983.3908	2566.7035	1513.85	626.05
983.517	2568.0086	1515.1	626
983.6432	2569.313	1518.4	627
983.7694	2570.6167	1526	634.1
983.8955	2571.9197	1511.7	622.85
984.0216	2573.222	1526.5	635.7
984.1476	2574.5236	1514.95	625.5
984.2737	2575.8246	1511.7	620.7
984.3996	2577.1248	1516.4	623.75
984.5256	2578.4244	1509.75	621.7
984.6515	2579.7232	1514.6	627.95
984.7774	2581.0214	1541.8	625.65
984.9032	2582.3189	1515.05	628.15
985.029	2583.6157	1513.55	621.45
985.1548	2584.9118	1510.55	620.65
985.2806	2586.2072	1510.9	625.25
985.4063	2587.5019	1502.7	614.25
985.5319	2588.7959	1511.85	624.15
985.6576	2590.0893	1512.4	622.05
985.7832	2591.3819	1509.05	620.75
985.9087	2592.6739	1509.25	621.9
986.0343	2593.9652	1508.8	617.75
986.1597	2595.2557	1503.4	616.45
986.2852	2596.5456	1514.2	625.35
986.4106	2597.8348	1512.35	625.6
986.536	2599.1234	1507.65	621.55
986.6614	2600.4112	1507.7	618.95
986.7867	2601.6983	1507.3	615.95
986.912	2602.9848	1506.8	619.15
987.0372	2604.2705	1511.75	618.3
987.1624	2605.5556	1502.6	615.75
987.2876	2606.84	1493.95	608.65
987.4128	2608.1237	1494.6	605.2
987.5379	2609.4067	1499.4	613.2
987.6629	2610.689	1501.1	604.5
987.788	2611.9707	1489.45	599.2
987.913	2613.2516	1492.4	602.2
988.0379	2614.5319	1486.55	599.75
988.1629	2615.8115	1482.25	595.65
988.2878	2617.0903	1487.65	598.85
988.4126	2618.3685	1482.4	596.55
988.5375	2619.6461	1479.95	593.05
988.6622	2620.9229	1474.9	587.8
988.787	2622.199	1473.75	586.55
988.9117	2623.4745	1473.8	587.8
989.0364	2624.7493	1468.8	584.1
989.161	2626.0234	1468.65	583
989.2857	2627.2968	1465.65	578.45
989.4102	2628.5695	1469.25	582.3
989.5348	2629.8415	1468.5	582.55
989.6593	2631.1128	1468.35	580.85
989.7837	2632.3835	1467.15	581.3
989.9082	2633.6535	1461	573.15
990.0326	2634.9228	1467.3	581.2
990.1569	2636.1914	1462.75	579.15
990.2812	2637.4593	1466.25	580.75
990.4055	2638.7265	1453.15	566.05
990.5298	2639.9931	1453.6	568.7
990.654	2641.259	1462.3	576.3
990.7782	2642.5242	1455.2	567.3
990.9023	2643.7887	1451.15	564.45
991.0264	2645.0525	1459.45	573.55
991.1505	2646.3156	1442.45	555.3
991.2745	2647.5781	1446.25	561.7
991.3985	2648.8398	1441.95	556.7
991.5225	2650.1009	1469.15	546.6
991.6464	2651.3613	1439.5	553.95
991.7703	2652.6211	1434.2	548.8
991.8942	2653.8801	1439.7	555.2
992.018	2655.1385	1439.8	552.4
992.1418	2656.3961	1435.65	550.6
992.2655	2657.6531	1430.7	545.45
992.3892	2658.9094	1431.05	543.85
992.5129	2660.1651	1434.15	550.65
992.6366	2661.42	1440.85	554.25
992.7602	2662.6743	1435.6	548.25
992.8837	2663.9279	1436.4	550.75
993.0073	2665.1808	1442.55	556.9
993.1307	2666.433	1444.9	559.55
993.2542	2667.6846	1444.1	559.5
993.3776	2668.9354	1441.5	550.75
993.501	2670.1856	1447.55	562.05
993.6244	2671.4351	1450.1	564.7
993.7477	2672.6839	1451.55	563.75
993.8709	2673.9321	1454.5	568
993.9942	2675.1795	1448.7	563.55
994.1174	2676.4263	1445.65	561.5
994.2405	2677.6724	1457.7	573.6
994.3637	2678.9179	1453.65	571
994.4868	2680.1626	1450.45	564.55
994.6098	2681.4067	1446.1	558.25
994.7328	2682.6501	1453.35	568.35
994.8558	2683.8928	1447.9	562.45
994.9788	2685.1348	1442.85	559.25
995.1017	2686.3761	1436.8	553.05
995.2245	2687.6168	1430.6	545.85
995.3474	2688.8568	1432.55	545.9
995.4702	2690.0961	1428.35	545.45
995.5929	2691.3348	1420.9	536.3
995.7156	2692.5727	1430.25	545.35
995.8383	2693.81	1425.05	538.9
995.961	2695.0466	1417.35	534.1
996.0836	2696.2826	1422.55	535.15
996.2062	2697.5178	1442.1	538.05
996.3287	2698.7524	1427.3	542.75
996.4512	2699.9863	1426.25	540.25
996.5737	2701.2195	1426.15	542.65
996.6961	2702.452	1429.4	544
996.8185	2703.6839	1433.75	546.4
996.9408	2704.9151	1429.25	545.95
997.0631	2706.1456	1445.05	559.9
997.1854	2707.3755	1444.6	559.85
997.3077	2708.6046	1462.85	575.9
997.4299	2709.8331	1459.4	574.75
997.552	2711.0609	1456.5	572.45
997.6742	2712.2881	1466.75	581.5
997.7963	2713.5145	1483	595
997.9183	2714.7403	1482.7	599.3
998.0403	2715.9654	1492	607.75
998.1623	2717.1899	1514.2	614.55
998.2842	2718.4136	1509.9	624.9
998.4062	2719.6367	1525.9	640.9
998.528	2720.8591	1533.35	640.7
998.6498	2722.0809	1535.85	651.2
998.7716	2723.3019	1546.15	658.6
998.8934	2724.5223	1553.65	669.8
999.0151	2725.7421	1567.25	681.7
999.1368	2726.9611	1556.95	672.95
999.2584	2728.1795	1564.1	674.5
999.38	2729.3972	1549.85	664.5
999.5016	2730.6142	1548.7	650.15
999.6231	2731.8306	1524.55	639.1
999.7446	2733.0462	1511.4	624.5
999.8661	2734.2612	1503.7	614.3
999.9875	2735.4756	1488.3	605.95
1000.1089	2736.6892	1473.45	589.1
1000.2302	2737.9022	1457.55	573.45
1000.3515	2739.1145	1450	565.85
1000.4728	2740.3262	1454.45	562.4
1000.594	2741.5372	1427.85	542.8
1000.7152	2742.7475	1414.7	531.6
1000.8363	2743.9571	1420.2	534.4
1000.9575	2745.1661	1416.75	528.6
1001.0785	2746.3744	1395.95	511.5
1001.1996	2747.582	1387.1	503.3
1001.3206	2748.7889	1379.75	494.6
1001.4415	2749.9952	1378.1	492.65
1001.5625	2751.2008	1376.7	494.15
1001.6833	2752.4057	1367.95	480.2
1001.8042	2753.61	1366.5	483.3
1001.925	2754.8136	1358.6	473.75
1002.0458	2756.0165	1361.6	478.95
1002.1665	2757.2188	1357.9	475.55
1002.2872	2758.4204	1358.55	474.85
1002.4078	2759.6213	1362.95	475.7
1002.5285	2760.8215	1362.9	474.65
1002.649	2762.0211	1357.05	472.15
1002.7696	2763.22	1359.8	472.15
1002.8901	2764.4182	1353.85	469.9
1003.0106	2765.6158	1350.35	465.4
1003.131	2766.8127	1347.1	464.65
1003.2514	2768.009	1348.9	466.35
1003.3717	2769.2045	1342.2	459.75
1003.492	2770.3994	1338.3	452.45
1003.6123	2771.5936	1336.3	453.7
1003.7325	2772.7872	1334.6	452.05
1003.8527	2773.9801	1335.75	448.65
1003.9729	2775.1723	1343.75	445.35
1004.093	2776.3639	1324.45	442.75
1004.2131	2777.5548	1334.45	449.35
1004.3331	2778.745	1330.6	446.05
1004.4531	2779.9346	1327.85	442.35
1004.5731	2781.1235	1330.4	449.6
1004.693	2782.3117	1332.35	450.1
1004.8129	2783.4992	1330.4	447.7
1004.9328	2784.6861	1334.95	451.45
1005.0526	2785.8723	1344.65	461.1
1005.1723	2787.0579	1341.1	459
1005.2921	2788.2428	1345.2	461.3
1005.4118	2789.427	1341.9	458.85
1005.5314	2790.6106	1353.8	470.5
1005.651	2791.7935	1357.3	475.5
1005.7706	2792.9757	1360.85	481.15
1005.8902	2794.1573	1370.1	484
1006.0097	2795.3382	1373.15	491.9
1006.1291	2796.5184	1383.95	501.85
1006.2485	2797.698	1392.3	509.2
1006.3679	2798.8769	1393.35	511.3
1006.4873	2800.0551	1410.15	526.15
1006.6066	2801.2327	1422.1	538.85
1006.7258	2802.4096	1425.25	544
1006.8451	2803.5859	1441.6	555.65
1006.9642	2804.7615	1460.6	577.55
1007.0834	2805.9364	1473.35	592
1007.2025	2807.1106	1494.9	614.3
1007.3216	2808.2842	1512.35	628.65
1007.4406	2809.4572	1532.75	649.85
1007.5596	2810.6294	1554.45	670.2
1007.6785	2811.801	1575.8	692.55
1007.7975	2812.972	1615.35	734.45
1007.9163	2814.1423	1649.55	768.1
1008.0352	2815.3119	1687.8	805.6
1008.154	2816.4808	1732.85	852.6
1008.2727	2817.6491	1773.05	888.3
1008.3914	2818.8167	1832.1	950.25
1008.5101	2819.9837	1874.7	988.2
1008.6288	2821.15	1915	1031.3
1008.7474	2822.3157	1967.5	1085.2
1008.8659	2823.4807	2027.5	1144.7
1008.9844	2824.645	2079.1	1196.1
1009.1029	2825.8086	2130.05	1249.8
1009.2214	2826.9716	2188.05	1306.05
1009.3398	2828.134	2230.5	1351.05
1009.4581	2829.2957	2272.25	1390.5
1009.5764	2830.4567	2307.35	1428.05
1009.6947	2831.617	2326.65	1444.75
1009.813	2832.7767	2341.4	1459.3
1009.9312	2833.9358	2340.2	1459.8
1010.0493	2835.0941	2334.55	1452.7
1010.1675	2836.2519	2319.45	1438.9
1010.2855	2837.4089	2294.9	1412.45
1010.4036	2838.5653	2282.4	1400.45
1010.5216	2839.7211	2279.45	1398.6
1010.6396	2840.8761	2274.55	1390.9
1010.7575	2842.0306	2277.95	1396.8
1010.8754	2843.1843	2293.2	1412.45
1010.9932	2844.3374	2322.1	1441.7
1011.111	2845.4899	2346.8	1464.1
1011.2288	2846.6417	2395.05	1513.85
1011.3465	2847.7928	2444.55	1562.9
1011.4642	2848.9433	2504.3	1623.1
1011.5818	2850.0931	2542.7	1661.4
1011.6995	2851.2422	2595.15	1713.45
1011.817	2852.3907	2654.45	1771.2
1011.9345	2853.5385	2703.05	1818.5
1012.052	2854.6857	2758.15	1850.25
1012.1695	2855.8323	2798.25	1916.4
1012.2869	2856.9781	2833.65	1953.95
1012.4042	2858.1233	2881.45	2000.75
1012.5216	2859.2679	2924.15	2042.5
1012.6389	2860.4118	2967.25	2088.15
1012.7561	2861.555	3012.15	2127.1
1012.8733	2862.6976	3056.05	2172.9
1012.9905	2863.8395	3073.6	2193.8
1013.1076	2864.9808	3111.75	2230.65
1013.2247	2866.1214	3128	2245.7
1013.3417	2867.2614	3145	2264.2
1013.4587	2868.4007	3158.05	2272.45
1013.5757	2869.5393	3174.4	2290.6
1013.6926	2870.6773	3182.85	2298.05
1013.8095	2871.8146	3195.65	2311.6
1013.9263	2872.9513	3213.05	2329.65
1014.0431	2874.0874	3178.45	2297.5
1014.1599	2875.2227	3179.9	2299.2
1014.2766	2876.3574	3172.25	2290.55
1014.3933	2877.4915	3131.75	2250.45
1014.51	2878.6249	3116.75	2233.75
1014.6266	2879.7577	3091.9	2210.35
1014.7431	2880.8898	3087.4	2197.15
1014.8596	2882.0212	3070.15	2189.95
1014.9761	2883.152	3056.7	2173.65
1015.0925	2884.2821	3039.15	2159.95
1015.2089	2885.4116	3036.3	2153.6
1015.3253	2886.5405	3036.85	2156.2
1015.4416	2887.6686	3034.45	2149
1015.5579	2888.7962	3051.6	2174.1
1015.6741	2889.923	3063.15	2182.9
1015.7903	2891.0493	3070.3	2190.3
1015.9065	2892.1748	3073.75	2190.95
1016.0226	2893.2997	3079.65	2200.5
1016.1387	2894.424	3095.9	2214.4
1016.2547	2895.5476	3107.6	2228.1
1016.3707	2896.6706	3123.4	2241.4
1016.4866	2897.7929	3142.25	2262.85
1016.6025	2898.9145	3170.7	2287.9
1016.7184	2900.0355	3197.3	2315.05
1016.8342	2901.1559	3227.5	2344.8
1016.95	2902.2756	3237.55	2351.5
1017.0658	2903.3946	3279	2399.9
1017.1815	2904.513	3290	2405.75
1017.2971	2905.6308	3320.15	2441.4
1017.4127	2906.7479	3338.35	2457.25
1017.5283	2907.8643	3372.55	2490.85
1017.6439	2908.9801	3378.2	2499.35
1017.7594	2910.0953	3384.5	2504.2
1017.8748	2911.2098	3386.5	2500.35
1017.9902	2912.3236	3384.8	2494.95
1018.1056	2913.4368	3365.7	2483.6
1018.2209	2914.5494	3343.5	2463.15
1018.3362	2915.6613	3329.2	2444.65
1018.4515	2916.7725	3294.6	2410.9
1018.5667	2917.8831	3266.95	2383.3
1018.6819	2918.9931	3241.45	2357.95
1018.797	2920.1024	3206.8	2325.6
1018.9121	2921.211	3187.5	2308.1
1019.0271	2922.319	3174.8	2294.3
1019.1421	2923.4264	3165.1	2286.75
1019.2571	2924.5331	3159.65	2280.7
1019.372	2925.6391	3150.75	2268.5
1019.4869	2926.7445	3144.95	2266.9
1019.6017	2927.8493	3150.95	2269.95
1019.7165	2928.9534	3150.75	2270.7
1019.8313	2930.0569	3170.8	2287.25
1019.946	2931.1597	3174.15	2291.8
1020.0606	2932.2619	3168.7	2288.6
1020.1753	2933.3634	3185.05	2305.6
1020.2899	2934.4643	3184.5	2298.65
1020.4044	2935.5645	3175.55	2288.95
1020.5189	2936.6641	3160.05	2276.1
1020.6334	2937.763	3129.55	2249.9
1020.7478	2938.8613	3097.5	2217.6
1020.8622	2939.959	3068.05	2182.4
1020.9765	2941.056	3002.2	2123.6
1021.0908	2942.1523	2938.45	2057
1021.2051	2943.248	2887.4	2008.55
1021.3193	2944.3431	2805.3	1925.7
1021.4334	2945.4375	2715.4	1834.25
1021.5476	2946.5313	2627.15	1748.85
1021.6617	2947.6244	2543.95	1663.1
1021.7757	2948.7169	2469.85	1589.9
1021.8897	2949.8087	2372.1	1491.3
1022.0037	2950.8999	2306.6	1425.05
1022.1176	2951.9904	2224.65	1348.05
1022.2315	2953.0803	2178.55	1296.25
1022.3453	2954.1696	2127.55	1248.9
1022.4591	2955.2582	2069.2	1186.8
1022.5728	2956.3462	2024.55	1144.4
1022.6865	2957.4335	1995.95	1114.25
1022.8002	2958.5202	1971.2	1086.6
1022.9138	2959.6062	1946.55	1065.95
1023.0274	2960.6916	1923.7	1045.75
1023.141	2961.7764	1898.55	1018.5
1023.2545	2962.8605	1893.85	1013.3
1023.3679	2963.9439	1871.85	991.9
1023.4813	2965.0267	1872.2	991.15
1023.5947	2966.1089	1873.8	971.45
1023.708	2967.1905	1851.15	970.85
1023.8213	2968.2714	1847.8	970.7
1023.9346	2969.3516	1855.55	972.85
1024.0478	2970.4312	1865.6	978.4
1024.1609	2971.5102	1848.3	968.55
1024.274	2972.5885	1861.05	981
1024.3871	2973.6662	1880.15	995.05
1024.5002	2974.7432	1867	990.05
1024.6132	2975.8196	1862.3	983.35
1024.7261	2976.8954	1855.2	976.35
1024.839	2977.9705	1855.25	975.45
1024.9519	2979.045	1839	959.7
1025.0647	2980.1188	1831.1	952.6
1025.1775	2981.192	1808.15	929.4
1025.2902	2982.2645	1792.2	911.55
1025.4029	2983.3364	1777.1	898.05
1025.5156	2984.4077	1753.55	875.65
1025.6282	2985.4783	1751.05	868.2
1025.7407	2986.5483	1703.45	825.65
1025.8532	2987.6177	1681	801.9
1025.9657	2988.6864	1643.6	765.2
1026.0782	2989.7545	1623.25	741.8
1026.1906	2990.8219	1591.15	713.1
1026.3029	2991.8887	1564.6	682.95
1026.4152	2992.9548	1536.3	656.3
1026.5275	2994.0204	1504.9	626.85
1026.6397	2995.0852	1481.05	600.4
1026.7519	2996.1495	1457.75	577.35
1026.864	2997.2131	1442.25	562.2
1026.9761	2998.276	1415.15	538.9
1027.0882	2999.3383	1398.6	518.55
1027.2002	3000.4	1376	494.5
1027.3122	3001.4611	1359.6	481.7
1027.4241	3002.5215	1342.95	462.85
1027.536	3003.5812	1333.4	455.8
1027.6478	3004.6404	1319.1	438.35
1027.7596	3005.6989	1298.1	416.8
1027.8714	3006.7567	1287.85	408.15
1027.9831	3007.8139	1316.95	407.7
1028.0947	3008.8705	1281.5	403.9
1028.2064	3009.9264	1275.2	392.95
1028.3179	3010.9818	1262.25	383.4
1028.4295	3012.0364	1256.3	375.8
1028.541	3013.0905	1257.3	376.75
1028.6524	3014.1439	1243.5	365.95
1028.7638	3015.1966	1240.75	361.75
1028.8752	3016.2487	1229.6	351.4
1028.9865	3017.3002	1240.05	356.45
1029.0978	3018.3511	1227.9	351.6
1029.209	3019.4013	1225.8	348.2
1029.3202	3020.4509	1227.3	349
1029.4314	3021.4998	1223.4	342.8
1029.5425	3022.5481	1214.3	335.6
1029.6535	3023.5958	1217.35	337.9
1029.7645	3024.6428	1214.05	334.2
1029.8755	3025.6892	1211.65	332.55
1029.9864	3026.735	1214.75	334
1030.0973	3027.7802	1217.1	339
1030.2082	3028.8247	1214.95	336.6
1030.319	3029.8685	1214.2	335.6
1030.4297	3030.9118	1220.3	339.25
1030.5404	3031.9544	1215.4	337.05
1030.6511	3032.9963	1220.7	340.8
1030.7617	3034.0376	1213.85	335.35
1030.8723	3035.0783	1224.8	344
1030.9829	3036.1184	1225.85	347.1
1031.0934	3037.1578	1223.95	347.3
1031.2038	3038.1966	1226.1	346.5
1031.3142	3039.2348	1224.05	345.6
1031.4246	3040.2723	1239.45	353.05
1031.5349	3041.3092	1223.2	347.15
1031.6452	3042.3455	1230.45	352.45
1031.7554	3043.3811	1230.8	351.35
1031.8656	3044.4161	1221.55	343.35
1031.9758	3045.4505	1226.8	348.5
1032.0859	3046.4842	1224.3	344.75
1032.1959	3047.5173	1217.6	340.85
1032.3059	3048.5498	1217.85	339.4
1032.4159	3049.5816	1218.85	339.65
1032.5258	3050.6128	1219.4	338.1
1032.6357	3051.6434	1215.35	335.8
1032.7455	3052.6734	1206.7	327.15
1032.8553	3053.7027	1208.1	330.5
1032.9651	3054.7314	1197.75	320.25
1033.0748	3055.7594	1204.6	328
1033.1845	3056.7868	1201.05	320.7
1033.2941	3057.8136	1197.7	319.95
1033.4037	3058.8398	1194.25	316.8
1033.5132	3059.8653	1192.15	313.65
1033.6227	3060.8902	1198.6	320.8
1033.7321	3061.9145	1195.3	316.85
1033.8415	3062.9381	1187.15	307.6
1033.9509	3063.9612	1198.3	304.8
1034.0602	3064.9835	1185.1	306.55
1034.1694	3066.0053	1187.05	306.95
1034.2787	3067.0264	1178.85	299.55
1034.3878	3068.0469	1180.45	301.5
1034.497	3069.0668	1178.05	296.05
1034.6061	3070.086	1166.8	290.15
1034.7151	3071.1046	1165.6	285.85
1034.8241	3072.1226	1159.15	279
1034.9331	3073.1399	1154.25	276.5
1035.042	3074.1567	1151.55	273.4
1035.1508	3075.1727	1139.25	259.05
1035.2597	3076.1882	1135.3	258.15
1035.3684	3077.203	1130.8	253.5
1035.4772	3078.2173	1133.8	254
1035.5859	3079.2308	1121	240.75
1035.6945	3080.2438	1119.7	238.35
1035.8031	3081.2561	1109.25	230.25
1035.9117	3082.2678	1102	223.65
1036.0202	3083.2789	1099	222.8
1036.1286	3084.2893	1092.95	218.1
1036.2371	3085.2991	1088.55	210.85
1036.3454	3086.3083	1087.7	205.6
1036.4538	3087.3169	1084.05	203.15
1036.562	3088.3248	1079.15	199.25
1036.6703	3089.3321	1070.95	190.95
1036.7785	3090.3388	1067.4	190.3
1036.8866	3091.3449	1067.1	189.9
1036.9948	3092.3503	1068	186.15
1037.1028	3093.3551	1059.3	180.55
1037.2108	3094.3593	1063	184.85
1037.3188	3095.3629	1055.45	178.55
1037.4267	3096.3658	1055.25	175.65
1037.5346	3097.3681	1054.5	176.15
1037.6425	3098.3698	1054.35	173.8
1037.7503	3099.3708	1049.1	167.2
1037.858	3100.3713	1043.85	166.85
1037.9657	3101.3711	1039.7	161.4
1038.0734	3102.3702	1155.1	160.15
1038.181	3103.3688	1041.5	162.25
1038.2886	3104.3667	1035.9	159.5
1038.3961	3105.364	1033.6	156.3
1038.5036	3106.3607	1034.15	154.8
1038.611	3107.3568	1028.55	150.55
1038.7184	3108.3522	1029.65	152.95
1038.8257	3109.347	1026.6	148.6
1038.933	3110.3412	1029.2	147.35
1039.0403	3111.3348	1019.05	141.25
1039.1475	3112.3277	1020.5	144.75
1039.2547	3113.32	1017.8	141.6
1039.3618	3114.3117	1015.85	138.2
1039.4689	3115.3028	1015.9	137.8
1039.5759	3116.2932	1015.55	135.3
1039.6829	3117.2831	1023.65	141.2
1039.7898	3118.2723	1010.3	132.15
1039.8967	3119.2608	1010.7	132.7
1040.0035	3120.2488	1008.2	129.2
1040.1103	3121.2361	1009.05	132.1
1040.2171	3122.2229	1005.5	128.2
1040.3238	3123.209	1007.55	130.45
1040.4305	3124.1944	1000.3	124.45
1040.5371	3125.1793	1002	122.35
1040.6437	3126.1635	1002.25	124
1040.7502	3127.1471	1000	124.1
1040.8567	3128.1301	995.1	117.35
1040.9631	3129.1125	994.65	117.1
1041.0695	3130.0942	994.75	116.65
1041.1759	3131.0753	1005.25	118.65
1041.2822	3132.0558	999.35	120.2
1041.3884	3133.0357	995.15	115.5
1041.4946	3134.015	990.3	113.05
1041.6008	3134.9936	990.95	113.05
1041.7069	3135.9716	1006.5	108.75
1041.813	3136.949	989.15	113.95
1041.919	3137.9258	1009.15	113.1
1042.025	3138.902	990.85	108.65
1042.1309	3139.8775	985.55	107.95
1042.2368	3140.8524	985.8	107.1
1042.3427	3141.8267	982.05	104
1042.4485	3142.8004	983.25	105.35
1042.5542	3143.7735	986.35	101.55
1042.6599	3144.7459	986.65	105.7
1042.7656	3145.7178	981.65	104.9
1042.8712	3146.689	982.05	108
1042.9768	3147.6596	984.95	104.65
1043.0823	3148.6295	981.95	105.75
1043.1878	3149.5989	975.7	98.75
1043.2932	3150.5676	974	97.9
1043.3986	3151.5357	970.5	94.3
1043.5039	3152.5032	975.1	98.6
1043.6092	3153.4701	973.75	96
1043.7145	3154.4364	975.7	97.8
1043.8197	3155.402	970.35	94.55
1043.9248	3156.367	975.3	96
1044.03	3157.3315	1008.2	94.75
1044.135	3158.2952	975	96
1044.24	3159.2584	970.3	94.75
1044.345	3160.221	970.65	90.6
1044.4499	3161.1829	970.1	93.7
1044.5548	3162.1442	966.7	91.25
1044.6596	3163.105	969.1	92.6
1044.7644	3164.065	967.1	90.5
1044.8692	3165.0245	969.35	90
1044.9739	3165.9834	964.7	87.4
1045.0785	3166.9416	964.8	87.95
1045.1831	3167.8993	965.45	86.6
1045.2877	3168.8563	964.9	88.6
1045.3922	3169.8127	962.1	83.95
1045.4966	3170.7684	963	85.4
1045.6011	3171.7236	962.95	86.15
1045.7054	3172.6782	960.3	82.1
1045.8098	3173.6321	963.15	88.25
1045.914	3174.5854	966.45	86.1
1046.0183	3175.5381	961.65	84.7
1046.1224	3176.4902	960.3	84.45
1046.2266	3177.4417	959.5	82.65
1046.3307	3178.3926	958.5	82.3
1046.4347	3179.3428	956.2	79.65
1046.5387	3180.2924	958.25	80
1046.6427	3181.2415	958.55	80.65
1046.7466	3182.1899	958.15	78.05
1046.8504	3183.1377	955.65	79.25
1046.9542	3184.0848	959.9	79.65
1047.058	3185.0314	954.85	78.05
1047.1617	3185.9773	957.3	78.55
1047.2654	3186.9227	953.2	76.7
1047.369	3187.8674	950.95	74.1
1047.4726	3188.8115	958.3	77.1
1047.5761	3189.755	949.7	71.15
1047.6796	3190.6979	951.95	73.45
1047.783	3191.6402	952.9	76.95
1047.8864	3192.5818	952.1	74.05
1047.9898	3193.5229	957.6	75.45
1048.0931	3194.4633	950.65	71.95
1048.1963	3195.4031	949.65	72.45
1048.2995	3196.3423	950.7	73.9
1048.4027	3197.2809	947.8	73.15
1048.5058	3198.2189	949	70.5
1048.6089	3199.1563	967	72.8
1048.7119	3200.0931	948.55	73.75
1048.8148	3201.0292	945.2	67.65
1048.9178	3201.9648	943.2	65.65
1049.0206	3202.8997	951.15	73.3
1049.1235	3203.834	946.35	69.65
1049.2262	3204.7677	941.9	65.75
1049.329	3205.7008	947.45	68.65
1049.4317	3206.6333	942.25	66.8
1049.5343	3207.5652	945.1	66.65
1049.6369	3208.4964	941.6	61.2
1049.7394	3209.4271	945.45	68.8
1049.8419	3210.3571	940.15	65.45
1049.9444	3211.2865	943.85	66.6
1050.0468	3212.2154	941.5	64.7
1050.1491	3213.1436	944.1	62.9
1050.2514	3214.0712	947.45	65.45
1050.3537	3214.9982	937.2	60.5
1050.4559	3215.9246	944.95	66.25
1050.5581	3216.8503	939.95	63.95
1050.6602	3217.7755	939.4	62.2
1050.7623	3218.7001	935.7	60.65
1050.8643	3219.624	941.25	64.2
1050.9663	3220.5473	940.1	62.7
1051.0682	3221.4701	940.6	64.4
1051.1701	3222.3922	939.3	61.75
1051.2719	3223.3137	938.35	63.2
1051.3737	3224.2346	935.1	55.7
1051.4754	3225.1549	935.75	57.75
1051.5771	3226.0746	934.8	60.45
1051.6788	3226.9937	934.1	56.5
1051.7804	3227.9121	935	58.65
1051.8819	3228.83	937.35	61.05
1051.9834	3229.7473	939.55	62.35
1052.0849	3230.6639	933.65	55.7
1052.1863	3231.5799	934.4	57.7
1052.2876	3232.4954	936.05	58.8
1052.3889	3233.4102	931.8	56.6
1052.4902	3234.3244	933.9	56.1
1052.5914	3235.238	932.15	54.4
1052.6926	3236.151	954.65	53.55
1052.7937	3237.0634	930.7	55.15
1052.8948	3237.9752	930.6	54.5
1052.9958	3238.8864	932.2	55.5
1053.0968	3239.797	930.65	56.05
1053.1977	3240.7069	931.5	53.45
1053.2986	3241.6163	933.65	53.45
1053.3994	3242.5251	927.4	53.3
1053.5002	3243.4332	926.65	50.85
1053.6009	3244.3408	930.8	53.8
1053.7016	3245.2477	929.25	52.75
1053.8022	3246.154	928.75	48.95
1053.9028	3247.0598	929.65	51.75
1054.0034	3247.9649	926.8	50.45
1054.1039	3248.8694	927.15	52.65
1054.2043	3249.7733	925.25	49.15
1054.3047	3250.6766	926.85	48.65
1054.4051	3251.5793	926	47.6
1054.5054	3252.4814	924.9	49.85
1054.6056	3253.3829	925.75	51
1054.7058	3254.2838	924.4	49.35
1054.806	3255.1841	921.75	44.15
1054.9061	3256.0838	921.45	45.65
1055.0061	3256.9829	924.4	48.2
1055.1062	3257.8814	924.4	47.05
1055.2061	3258.7792	925.15	47.1
1055.306	3259.6765	921.35	42.25
1055.4059	3260.5731	920.2	44.8
1055.5057	3261.4692	917.45	40.45
1055.6055	3262.3647	919.65	42.25
1055.7052	3263.2595	918.3	43.15
1055.8049	3264.1538	919.25	43.7
1055.9045	3265.0474	916.85	38.45
1056.0041	3265.9404	916.5	43.2
1056.1036	3266.8329	916.9	41.05
1056.2031	3267.7247	925.35	41.45
1056.3025	3268.616	915	40.6
1056.4019	3269.5066	912.45	36.5
1056.5013	3270.3966	912.75	35.7
1056.6005	3271.286	909.45	32.3
