Software Version:	3.9.2.0
Unit SN:	10000200
Spectrometer SN:	6960
Date:	3/8/2024 12:09:18 PM
Data Line Index:	25
Spectral Points:	2048
Integration time (ms):	125
Averages:	20
Delay (ms):	30000
Sequence Number:	1
Processing:	dark subtract
Laser Power (mW):	305
Laser Current (mA):	823
Laser Diode Temp (C):	25.1
Laser Case Temp (C):	25.7
System Temp (C):	25.7
Spectrometer Temp (C):	23.5
CCD Temp (C):	0.005
Secondary Temp (C):	20.007
Heatsink Temp (C):	20.19
CCDPCB Temp (C):	35.518
SecondaryPCB Temp (C):	28.426

Wavelength	RamanShift	Raw Counts	Dark Subtracted
787.061	30.1047	449.4	38.3
787.2016	32.3739	449.75	41.15
787.3422	34.6426	455.45	47.1
787.4828	36.9109	459.7	48.55
787.6235	39.1787	470.05	56.6
787.7642	41.4461	478.7	58.35
787.9049	43.7131	486.65	65.25
788.0456	45.9796	495.7	72.9
788.1863	48.2456	502.5	73
788.3271	50.5112	513.25	80.25
788.4679	52.7764	523.95	87.25
788.6087	55.0411	528.7	89.7
788.7496	57.3054	542.5	96.35
788.8904	59.5692	551.25	104.5
789.0313	61.8326	561.1	111.85
789.1722	64.0955	572.1	119.65
789.3132	66.3579	587.85	127.95
789.4541	68.6199	608.35	146.85
789.5951	70.8815	648.95	182.8
789.7361	73.1426	735.25	264.7
789.8771	75.4032	955.95	480.55
790.0181	77.6634	1511.5	1032.1
790.1592	79.9231	2798.7	2316
790.3003	82.1824	5607.1	5116.65
790.4414	84.4412	10463.2	9954.6
790.5825	86.6995	16986.15	16456.9
790.7237	88.9574	23151.6	22606.55
790.8648	91.2148	27205.2	26645.95
791.006	93.4717	28846.45	28279
791.1472	95.7282	28886.35	28313.8
791.2885	97.9842	28424.95	27852.4
791.4297	100.2398	27466.65	26891.3
791.571	102.4949	26460.9	25882.65
791.7123	104.7495	25324.5	24743.05
791.8536	107.0036	24208.05	23625.95
791.9949	109.2573	23185.1	22605.25
792.1363	111.5105	22256.05	21670.5
792.2777	113.7632	21408.9	20823.35
792.4191	116.0154	20715.45	20115.2
792.5605	118.2672	20212.35	19621.15
792.7019	120.5185	19718.1	19125.4
792.8434	122.7693	19356.2	18761.6
792.9849	125.0197	19065.9	18464.35
793.1264	127.2696	18777.65	18171.2
793.2679	129.519	18505.65	17898.35
793.4094	131.7679	18186.35	17577.2
793.551	134.0163	17872.75	17260
793.6926	136.2642	17464.95	16850.7
793.8342	138.5117	17028.8	16402.9
793.9758	140.7587	16498.65	15877.3
794.1175	143.0052	16040.9	15419.75
794.2591	145.2512	15555.85	14934
794.4008	147.4967	15117.5	14493.45
794.5425	149.7417	14769.6	14144
794.6842	151.9863	14515.15	13883.5
794.826	154.2304	14325.95	13691.9
794.9677	156.4739	14151.1	13506
795.1095	158.717	14062.7	13422.2
795.2513	160.9596	13930.45	13284.7
795.3931	163.2017	13683.25	13034.6
795.535	165.4433	13393.6	12744.2
795.6768	167.6844	13068.55	12417.35
795.8187	169.925	12664.45	12011.45
795.9606	172.1651	12259.85	11602.5
796.1025	174.4047	11907.25	11245.4
796.2445	176.6439	11575.7	10914.8
796.3864	178.8825	11326.05	10660.2
796.5284	181.1206	11131.2	10460.5
796.6704	183.3582	10975.9	10299.55
796.8124	185.5954	10876.3	10203.15
796.9544	187.832	10764.85	10086.4
797.0965	190.0681	10712.05	10027.6
797.2386	192.3037	10703.1	10016.85
797.3806	194.5388	10687.1	9997.9
797.5228	196.7734	10737.65	10045.6
797.6649	199.0075	10781.3	10091.35
797.807	201.2411	10929.65	10240.4
797.9492	203.4742	11007.1	10311.9
798.0914	205.7068	11174.85	10475
798.2336	207.9389	11315.55	10615.2
798.3758	210.1704	11486.25	10794.35
798.518	212.4015	11631.2	10950.25
798.6603	214.632	11807.1	11132.05
798.8025	216.862	11974.95	11297.35
798.9448	219.0915	12079.25	11400.35
799.0871	221.3205	12172.85	11491.7
799.2294	223.549	12231.55	11555.1
799.3718	225.777	12281.2	11605.2
799.5141	228.0044	12317.6	11630.35
799.6565	230.2314	12364.15	11678.95
799.7989	232.4578	12375.2	11682.9
799.9413	234.6837	12401.45	11706.4
800.0837	236.909	12424.5	11724.35
800.2262	239.1339	12369.9	11642.75
800.3687	241.3582	12308.55	11601.55
800.5111	243.582	12271.35	11536.35
800.6536	245.8053	12218.2	11492.05
800.7961	248.0281	12157.3	11437.05
800.9387	250.2503	12176.25	11448.45
801.0812	252.472	12228.55	11501.5
801.2238	254.6932	12375.3	11647.95
801.3664	256.9139	12498.25	11771.85
801.509	259.134	12713.2	11982.4
801.6516	261.3536	13016.8	12289.4
801.7942	263.5727	13413.75	12681.65
801.9369	265.7912	13803.7	13069.5
802.0795	268.0092	14247.7	13515.5
802.2222	270.2267	14645.55	13912.95
802.3649	272.4436	14994.25	14262.25
802.5076	274.6601	15165.55	14420.2
802.6504	276.8759	15226.3	14485.05
802.7931	279.0913	15166.45	14425.15
802.9359	281.3061	15040.55	14294.8
803.0787	283.5204	14986.1	14240.7
803.2215	285.7341	14979.4	14228.85
803.3643	287.9473	15023.35	14274.8
803.5071	290.16	15011.05	14256.85
803.6499	292.3721	14945.1	14199.4
803.7928	294.5837	15009.8	14264.9
803.9357	296.7947	15156.9	14407
804.0786	299.0052	15381.9	14634.8
804.2215	301.2152	15493.95	14742.4
804.3644	303.4246	15476.4	14727.3
804.5074	305.6334	15188.75	14440.85
804.6503	307.8418	14838.9	14083.95
804.7933	310.0495	14361.45	13604.55
804.9363	312.2568	13798.85	13045.25
805.0793	314.4635	13249.05	12493.25
805.2223	316.6696	12718.8	11958.9
805.3653	318.8752	12280.6	11513.2
805.5084	321.0802	12096.15	11335.95
805.6514	323.2847	12079.6	11315.3
805.7945	325.4887	12145.75	11380.65
805.9376	327.692	12252.25	11489.15
806.0807	329.8949	12291.3	11526.5
806.2238	332.0972	12166.25	11397.75
806.367	334.2989	11990.3	11218.9
806.5101	336.5001	11686.4	10916.4
806.6533	338.7007	11416.6	10647.8
806.7965	340.9008	11138.5	10367.1
806.9397	343.1003	10864.45	10091.15
807.0829	345.2992	10661.25	9884.95
807.2261	347.4976	10442.2	9660.45
807.3693	349.6955	10310.4	9529.1
807.5126	351.8927	10245.15	9462.45
807.6559	354.0895	10107.75	9315.15
807.7991	356.2856	10042.3	9259.6
807.9424	358.4812	9928.9	9145.4
808.0857	360.6763	9923.05	9136.55
808.2291	362.8707	9869.2	9080.85
808.3724	365.0646	9867.55	9076.45
808.5158	367.258	9953.05	9160.1
808.6591	369.4508	10085.15	9290.05
808.8025	371.643	10219.1	9425.55
808.9459	373.8346	10398.75	9599.35
809.0893	376.0257	10601.4	9802
809.2327	378.2162	10736	9937.35
809.3762	380.4062	10814.35	10016.85
809.5196	382.5956	10717.35	9921.35
809.6631	384.7844	10543.2	9754.45
809.8066	386.9726	10316.1	9526.5
809.9501	389.1603	10164.65	9377.8
810.0936	391.3474	10098.05	9277.95
810.2371	393.5339	10057.9	9265.4
810.3806	395.7199	10046.9	9256.6
810.5241	397.9052	10144.65	9355.65
810.6677	400.09	10307.4	9516.5
810.8113	402.2743	10558.9	9765.65
810.9548	404.4579	10814.25	10023.8
811.0984	406.641	11126.35	10329.75
811.2421	408.8235	11335.9	10536
811.3857	411.0054	11440.2	10642.4
811.5293	413.1868	11523.85	10714.75
811.673	415.3675	11517.85	10711.05
811.8166	417.5477	11426.75	10617.05
811.9603	419.7273	11337.35	10526.5
812.104	421.9064	11236.7	10418.25
812.2477	424.0848	11201	10391.3
812.3914	426.2627	11013.1	10204.75
812.5351	428.4399	10734.05	9922.55
812.6788	430.6166	10363.5	9550.25
812.8226	432.7928	9923.05	9107.55
812.9663	434.9683	9537.75	8722.75
813.1101	437.1432	9270.45	8453.05
813.2539	439.3176	9039.55	8226.7
813.3977	441.4914	8891.65	8078.15
813.5415	443.6645	8852.85	8036.3
813.6853	445.8371	8817.7	7999.85
813.8291	448.0091	8789.55	7970.65
813.973	450.1806	8800.2	7983.7
814.1168	452.3514	8806.7	7987.8
814.2607	454.5216	8853.45	8028.3
814.4046	456.6913	8859.25	8038.55
814.5485	458.8603	8931.3	8112.1
814.6924	461.0288	8980.75	8165.2
814.8363	463.1967	8962.45	8143.7
814.9802	465.3639	8939.8	8119.85
815.1241	467.5306	8929.8	8108.55
815.2681	469.6967	8908.6	8089.9
815.412	471.8622	8885.7	8067.95
815.556	474.0271	8925.6	8106.1
815.7	476.1914	8932.7	8109.85
815.844	478.3551	8935	8110.9
815.988	480.5182	8998.75	8177.2
816.132	482.6807	9096.15	8277.35
816.276	484.8426	9362.75	8544.95
816.4201	487.0039	9766	8946.75
816.5641	489.1647	10269.4	9446.05
816.7082	491.3248	10659.8	9833.25
816.8522	493.4843	10790.4	9968.35
816.9963	495.6432	10714.25	9889.15
817.1404	497.8015	10492.15	9661.2
817.2845	499.9592	10297.15	9463.95
817.4286	502.1163	10007.3	9174.05
817.5727	504.2728	9615.9	8786.2
817.7168	506.4287	9221.35	8395.75
817.861	508.5839	8882.05	8055.1
818.0051	510.7386	8667.95	7841.85
818.1493	512.8927	8577.1	7743.75
818.2935	515.0461	8581.65	7748.85
818.4377	517.199	8697.2	7863.35
818.5818	519.3512	8969.05	8134.85
818.726	521.5029	9402	8560.5
818.8703	523.6539	9879.9	9045.1
819.0145	525.8043	10066.95	9232.8
819.1587	527.9541	9963.05	9123.2
819.303	530.1033	9632.25	8795.9
819.4472	532.2519	9308.6	8471.3
819.5915	534.3999	9124.15	8285.9
819.7357	536.5472	9092.65	8255.5
819.88	538.694	9257.65	8422.5
820.0243	540.8401	9538.7	8699.45
820.1686	542.9856	9736.8	8893.5
820.3129	545.1305	9768	8922.15
820.4572	547.2748	9718.8	8872.45
820.6016	549.4185	9557.75	8713.6
820.7459	551.5615	9455.8	8607.75
820.8902	553.704	9489.2	8644.6
821.0346	555.8458	9627	8788.15
821.1789	557.987	9892	9051.55
821.3233	560.1276	10241.25	9399.2
821.4677	562.2675	10764.6	9922.5
821.6121	564.4069	11553.25	10708.7
821.7565	566.5456	12335.35	11494.65
821.9009	568.6837	12703.3	11857.2
822.0453	570.8212	12201.6	11359.65
822.1897	572.958	11209.35	10363.35
822.3342	575.0942	10212.75	9369.45
822.4786	577.2299	9522.95	8680.4
822.6231	579.3648	9178.45	8336.45
822.7675	581.4992	9071.5	8234.3
822.912	583.6329	9176.7	8342.1
823.0565	585.766	9388.25	8550.75
823.201	587.8985	9646.8	8806.4
823.3454	590.0304	9854.1	8984.95
823.4899	592.1616	9890.4	9040.75
823.6345	594.2922	9804.4	8952.4
823.779	596.4222	9562.6	8712.4
823.9235	598.5515	9280.2	8428.75
824.068	600.6802	8989.35	8137.05
824.2126	602.8083	8798.4	7948.95
824.3571	604.9358	8749.1	7897.9
824.5017	607.0626	8788.85	7934.55
824.6462	609.1888	8967.4	8109.3
824.7908	611.3144	9206.9	8350.25
824.9354	613.4393	9534.5	8681.15
825.08	615.5636	9793.1	8936.95
825.2246	617.6873	9912.15	9057.85
825.3692	619.8103	9874.45	9016.1
825.5138	621.9327	9589.6	8729.95
825.6584	624.0544	9224.6	8373.45
825.803	626.1756	8881.05	8025.75
825.9477	628.2961	8651.8	7795.65
826.0923	630.4159	8528.7	7668.55
826.237	632.5351	8498.1	7639
826.3816	634.6537	8478.45	7619.45
826.5263	636.7716	8487.8	7625.25
826.6709	638.8889	8510.05	7648.85
826.8156	641.0056	8564.35	7701.55
826.9603	643.1216	8583.65	7720.3
827.105	645.237	8567.1	7705.65
827.2497	647.3518	8431.65	7576.95
827.3944	649.4659	8280.9	7427.25
827.5391	651.5793	8178.85	7320.1
827.6838	653.6922	8119.45	7260.65
827.8285	655.8043	8130.05	7273.3
827.9733	657.9159	8119.95	7260.3
828.118	660.0268	8086.4	7225.25
828.2627	662.137	8137.3	7274
828.4075	664.2466	8156.6	7291.05
828.5522	666.3556	8133.9	7269.8
828.697	668.4639	8092.15	7228.85
828.8418	670.5716	8017.95	7153.4
828.9865	672.6786	7913.35	7048.2
829.1313	674.785	7804.25	6935.3
829.2761	676.8907	7742.1	6876.55
829.4209	678.9958	7711.65	6849.25
829.5657	681.1002	7681.95	6816.8
829.7105	683.204	7675.2	6805.4
829.8553	685.3072	7645.8	6776.8
830.0001	687.4097	7621.55	6754.2
830.1449	689.5115	7666.65	6798.35
830.2898	691.6127	7621.9	6758.35
830.4346	693.7132	7595.15	6729.2
830.5794	695.8131	7680.45	6792.65
830.7243	697.9123	7673.35	6803.15
830.8691	700.0109	7758.6	6888.6
831.014	702.1089	7834.9	6962.75
831.1588	704.2061	7948.05	7079.25
831.3037	706.3028	8105	7232.95
831.4486	708.3987	8219.2	7348.75
831.5935	710.4941	8253.45	7385.05
831.7383	712.5887	8264.4	7392.7
831.8832	714.6827	8310.95	7437.3
832.0281	716.7761	8348.75	7478.25
832.173	718.8688	8457.9	7588.4
832.3179	720.9608	8612.15	7735.55
832.4628	723.0522	8816.7	7936.5
832.6077	725.1429	8998.15	8123.2
832.7527	727.233	9250.55	8377
832.8976	729.3224	9429.5	8556.6
833.0425	731.4112	9473.45	8596.75
833.1874	733.4993	9282.7	8409.85
833.3324	735.5867	8954.05	8081.2
833.4773	737.6735	8594.1	7717.4
833.6222	739.7596	8281.4	7406.95
833.7672	741.845	8069.3	7195.45
833.9122	743.9298	7946.45	7068.25
834.0571	746.014	7864.9	6989.75
834.2021	748.0974	7842.75	6963.9
834.347	750.1802	7844.4	6967.25
834.492	752.2624	7865.95	6989.15
834.637	754.3439	7937.4	7058.45
834.782	756.4247	8051.9	7163.35
834.9269	758.5048	8242.05	7364.65
835.0719	760.5843	8547.95	7668.9
835.2169	762.6631	9024.95	8143.35
835.3619	764.7413	9719.8	8842.2
835.5069	766.8188	10637.35	9758.95
835.6519	768.8956	11578.7	10697.95
835.7969	770.9718	12286.15	11408.8
835.9419	773.0473	12340.7	11460.35
836.0869	775.1221	12098.9	11222.85
836.232	777.1962	11768.5	10890.7
836.377	779.2697	11786.8	10904.2
836.522	781.3426	12107	11209.05
836.667	783.4147	12434.3	11553.15
836.8121	785.4862	12467.85	11587.45
836.9571	787.557	12161.15	11280.55
837.1021	789.6271	11439.9	10556.7
837.2472	791.6966	10482.75	9600.8
837.3922	793.7654	9578.25	8697.25
837.5373	795.8335	8901.65	8022.15
837.6823	797.901	8443.5	7560.8
837.8274	799.9678	8198.1	7313.05
837.9724	802.0339	8048.35	7164.3
838.1175	804.0993	7972.65	7079.15
838.2626	806.1641	7913.1	7030.7
838.4076	808.2282	7832.3	6950.8
838.5527	810.2916	7732.7	6847.65
838.6978	812.3544	7632.7	6751.25
838.8428	814.4164	7557.6	6676.6
838.9879	816.4778	7569.1	6684.3
839.133	818.5385	7626.15	6740.75
839.2781	820.5986	7761.7	6877.1
839.4232	822.658	8070.1	7184.5
839.5682	824.7166	8566.25	7682.95
839.7133	826.7747	9344.65	8459.6
839.8584	828.832	10164.8	9281.45
840.0035	830.8886	10917.85	10030.65
840.1486	832.9446	11344.1	10456.8
840.2937	834.9999	11243.95	10360.55
840.4388	837.0545	10789	9897.75
840.5839	839.1085	10197.15	9313.05
840.729	841.1618	9612.15	8723.1
840.8741	843.2143	9142.8	8258.1
841.0192	845.2662	8797.3	7910.05
841.1643	847.3175	8606.6	7718.65
841.3095	849.368	8445.5	7559.1
841.4546	851.4179	8350.1	7464.7
841.5997	853.467	8246.15	7361.2
841.7448	855.5155	8189.4	7302.45
841.8899	857.5633	8090.95	7205
842.0351	859.6105	7991.3	7106
842.1802	861.6569	7901	7013.95
842.3253	863.7027	7787.35	6894.7
842.4704	865.7478	7703.3	6813
842.6156	867.7922	7627.1	6738.85
842.7607	869.8359	7575.75	6687.1
842.9058	871.8789	7584.35	6695.3
843.0509	873.9212	7628.65	6707.35
843.1961	875.9629	7697.4	6809.1
843.3412	878.0039	7832.85	6940.25
843.4863	880.0441	7966.7	7079.75
843.6315	882.0837	8061.7	7173.95
843.7766	884.1226	8144.55	7253.55
843.9218	886.1609	8272.2	7383.55
844.0669	888.1984	8528.15	7639.15
844.212	890.2352	8798.5	7908.5
844.3572	892.2714	8940.3	8047.65
844.5023	894.3069	8906.7	8013.6
844.6475	896.3416	8629.4	7738.6
844.7926	898.3757	8347.2	7456
844.9377	900.4091	8119.75	7227.05
845.0829	902.4418	8028.2	7132.35
845.228	904.4739	8095.55	7199.8
845.3732	906.5052	8207.55	7315.75
845.5183	908.5358	8253.7	7361.2
845.6635	910.5658	8147.45	7253.45
845.8086	912.595	7862.15	6968.15
845.9538	914.6236	7519.25	6625.7
846.0989	916.6515	7291.2	6400.2
846.2441	918.6786	7134.7	6242.9
846.3892	920.7051	7082.5	6185.65
846.5344	922.7309	7112.1	6220
846.6795	924.756	7146.3	6253.5
846.8246	926.7804	7256.9	6362.25
846.9698	928.8041	7287.85	6392.6
847.1149	930.8272	7370.3	6477.9
847.2601	932.8495	7400.1	6504.45
847.4052	934.8711	7391.4	6496.1
847.5504	936.892	7369.5	6476.6
847.6955	938.9123	7428	6533.8
847.8407	940.9318	7563.75	6670.4
847.9858	942.9506	7671.7	6778.15
848.131	944.9688	7672.65	6778.5
848.2761	946.9862	7509.6	6617.85
848.4213	949.003	7289.7	6394.95
848.5664	951.019	7084.6	6190.9
848.7115	953.0344	6939.2	6044.5
848.8567	955.0491	6891.2	5996.3
849.0018	957.063	6912.7	6019.95
849.147	959.0763	6982.85	6087.3
849.2921	961.0888	7052.55	6157.8
849.4373	963.1007	7095.35	6202.4
849.5824	965.1119	7106.4	6215.4
849.7275	967.1223	7105.25	6216.6
849.8727	969.1321	7035.85	6145.9
850.0178	971.1412	7013.95	6122.4
850.1629	973.1495	6998.55	6105.1
850.3081	975.1572	7025.8	6097.15
850.4532	977.1641	7032.45	6135
850.5983	979.1704	7006.75	6109.75
850.7435	981.1759	6954.1	6054.3
850.8886	983.1808	6926	6028.5
851.0337	985.1849	6935.95	6027.65
851.1788	987.1884	6997.55	6101.35
851.324	989.1911	7079.3	6181.5
851.4691	991.1932	7173.5	6275.85
851.6142	993.1945	7240.05	6344.8
851.7593	995.1951	7206.1	6310.7
851.9045	997.1951	7175.75	6273.5
852.0496	999.1943	7145.85	6250.55
852.1947	1001.1928	7143.2	6245.8
852.3398	1003.1906	7255.8	6359.95
852.4849	1005.1877	7440.3	6544.65
852.63	1007.1841	7628.45	6732.25
852.7751	1009.1798	7744.5	6850.25
852.9202	1011.1748	7701.35	6805.05
853.0653	1013.1691	7532.65	6638.1
853.2104	1015.1627	7263.9	6368.05
853.3555	1017.1556	6998.85	6103.95
853.5006	1019.1477	6826.25	5931.15
853.6457	1021.1392	6649.1	5756.35
853.7908	1023.1299	6608.9	5720.05
853.9359	1025.12	6624.8	5734.6
854.081	1027.1093	6701.9	5818.9
854.2261	1029.0979	6875.1	5990.75
854.3712	1031.0859	7065.3	6181.6
854.5163	1033.0731	7152.7	6259.75
854.6613	1035.0596	7159.2	6267.1
854.8064	1037.0454	7029.15	6133.9
854.9515	1039.0304	6895.15	5999.35
855.0965	1041.0148	6778.1	5882.8
855.2416	1042.9985	6645.6	5749.3
855.3867	1044.9814	6569.6	5677.7
855.5317	1046.9636	6479.3	5580.65
855.6768	1048.9452	6519.65	5625.25
855.8219	1050.926	6584.95	5692.2
855.9669	1052.9061	6650.4	5756.1
856.112	1054.8855	6701.8	5806.45
856.257	1056.8642	6778.2	5881.85
856.4021	1058.8421	6810.1	5915.1
856.5471	1060.8194	6835.65	5937.65
856.6921	1062.7959	6892.8	5996.6
856.8372	1064.7717	6976.65	6078.95
856.9822	1066.7469	7041.15	6144.1
857.1272	1068.7213	7171.4	6274.7
857.2723	1070.695	7337.2	6441.75
857.4173	1072.6679	7448.65	6551.75
857.5623	1074.6402	7571.95	6676.1
857.7073	1076.6117	7570.3	6670.9
857.8523	1078.5826	7432.25	6536.85
857.9973	1080.5527	7180.75	6281.4
858.1423	1082.5221	6928.6	6032.8
858.2873	1084.4908	6765.25	5870.6
858.4323	1086.4587	6710.6	5813.35
858.5773	1088.426	6699.85	5802.95
858.7223	1090.3925	6744.05	5844
858.8673	1092.3584	6791	5893
859.0123	1094.3235	6867.5	5972.4
859.1573	1096.2879	7000.8	6104.25
859.3022	1098.2515	7222.4	6326.55
859.4472	1100.2145	7465.85	6571.75
859.5922	1102.1767	7754.75	6855.3
859.7371	1104.1382	8099.75	7204.85
859.8821	1106.099	8501.25	7602.2
860.027	1108.0591	8828.6	7932.3
860.172	1110.0185	9110.3	8213.25
860.3169	1111.9771	9239.6	8344.8
860.4619	1113.9351	9220.3	8325.85
860.6068	1115.8923	9139.35	8245.15
860.7517	1117.8488	9040.3	8144.15
860.8967	1119.8045	8829.75	7938.8
861.0416	1121.7596	8576.4	7679.05
861.1865	1123.7139	8282.3	7384.85
861.3314	1125.6675	8112.05	7215.7
861.4763	1127.6204	8118.55	7223.2
861.6212	1129.5726	8112.25	7214.95
861.7661	1131.524	8076.65	7178.6
861.911	1133.4748	7888.35	6990
862.0559	1135.4248	7576.55	6680.35
862.2008	1137.3741	7324.4	6428.85
862.3457	1139.3226	7116.4	6219.45
862.4905	1141.2705	7050.45	6153.55
862.6354	1143.2176	7016.5	6112.55
862.7803	1145.164	7000	6103.6
862.9251	1147.1097	6906.15	6007.65
863.07	1149.0546	6725.2	5828.55
863.2148	1150.9989	6541.5	5644.75
863.3597	1152.9424	6375.1	5478.15
863.5045	1154.8852	6267.7	5369.5
863.6493	1156.8272	6223.75	5328.45
863.7942	1158.7686	6216.9	5311.65
863.939	1160.7092	6235.1	5337.6
864.0838	1162.6491	6290.15	5390.25
864.2286	1164.5883	6435.3	5537.55
864.3734	1166.5267	6616.25	5716.65
864.5182	1168.4644	6830.25	5934.4
864.663	1170.4014	7063.55	6162.55
864.8078	1172.3377	7350.55	6456
864.9526	1174.2732	7751.55	6855.4
865.0974	1176.2081	8315.65	7419.45
865.2421	1178.1421	9094.15	8190.65
865.3869	1180.0755	10004.05	9110.15
865.5317	1182.0082	10706.85	9810.85
865.6764	1183.9401	11023.9	10126.6
865.8212	1185.8713	10861.25	9964.7
865.9659	1187.8017	10301.55	9410.15
866.1106	1189.7315	9596.95	8709.85
866.2554	1191.6605	8916.4	8027.9
866.4001	1193.5888	8421.75	7529.6
866.5448	1195.5163	8086.7	7192.45
866.6895	1197.4432	7895.55	7000.45
866.8342	1199.3693	7772.15	6875.45
866.9789	1201.2947	7650.2	6751.2
867.1236	1203.2193	7610.95	6713.45
867.2683	1205.1432	7584.25	6690.8
867.413	1207.0664	7549.75	6652.65
867.5576	1208.9889	7538	6640.45
867.7023	1210.9106	7561.95	6666.6
867.847	1212.8316	7603.4	6709.55
867.9916	1214.7519	7674.95	6768.75
868.1363	1216.6715	7756.55	6862.95
868.2809	1218.5903	7849.6	6953.6
868.4255	1220.5084	7990.85	7095.05
868.5701	1222.4257	8152.5	7255.45
868.7148	1224.3424	8270.85	7377.55
868.8594	1226.2583	8493.25	7596.55
869.004	1228.1735	8756.8	7860.9
869.1486	1230.0879	9114.85	8217.5
869.2932	1232.0016	9457.95	8564.7
869.4377	1233.9146	9773.4	8876.5
869.5823	1235.8269	9938.2	9042.1
869.7269	1237.7384	9934.3	9039.4
869.8715	1239.6492	9813.9	8920.5
870.016	1241.5592	9747.7	8850.45
870.1606	1243.4686	9841.05	8946.9
870.3051	1245.3772	10193.95	9298.65
870.4496	1247.285	10611.35	9713.85
870.5941	1249.1922	11091.6	10195.65
870.7387	1251.0986	11532.8	10639.8
870.8832	1253.0042	11860.9	10965.15
871.0277	1254.9092	12195.95	11302.15
871.1722	1256.8134	12439	11545.95
871.3167	1258.7169	12689.95	11793.15
871.4611	1260.6196	12839.75	11945.5
871.6056	1262.5216	13129.5	12233.65
871.7501	1264.4229	13385.85	12492.6
871.8945	1266.3234	13667.5	12771.45
872.039	1268.2232	13882.4	12985.15
872.1834	1270.1223	14010.65	13112.65
872.3278	1272.0207	14070.15	13170.65
872.4723	1273.9183	14036.8	13134.5
872.6167	1275.8151	13891.7	12997
872.7611	1277.7113	13851.1	12953.6
872.9055	1279.6067	13962.45	13069.3
873.0499	1281.5014	14474.7	13576
873.1943	1283.3953	15320	14420.95
873.3386	1285.2885	16472.1	15576.4
873.483	1287.181	17774.25	16878.35
873.6274	1289.0727	19062.8	18170
873.7717	1290.9637	20073.95	19178.4
873.9161	1292.854	20711.5	19815.4
874.0604	1294.7435	20806.5	19911.15
874.2047	1296.6323	20523.05	19629.35
874.349	1298.5204	19907.7	19008.45
874.4933	1300.4077	19164.15	18266.9
874.6376	1302.2943	18383.8	17488.45
874.7819	1304.1802	17521.7	16624.05
874.9262	1306.0653	16541.9	15643.55
875.0705	1307.9497	15612.65	14718.5
875.2147	1309.8333	14767.1	13873.25
875.359	1311.7162	14144	13248.25
875.5032	1313.5984	13758.5	12859.15
875.6475	1315.4798	13506.1	12600.3
875.7917	1317.3605	13436.65	12526.65
875.9359	1319.2405	13305.35	12405.8
876.0801	1321.1197	13004.5	12106.65
876.2243	1322.9982	12494.9	11594.4
876.3685	1324.876	11966.8	11068.15
876.5127	1326.753	11370.95	10474.4
876.6569	1328.6293	10876.7	9981.55
876.801	1330.5048	10386.2	9488.25
876.9452	1332.3796	9968.8	9073.55
877.0893	1334.2537	9651.75	8731.2
877.2335	1336.127	9359.75	8462.75
877.3776	1337.9996	9188.65	8292.65
877.5217	1339.8714	9114.5	8216.05
877.6658	1341.7426	9084.45	8141.55
877.8099	1343.6129	9080.65	8183.7
877.954	1345.4826	9021.35	8125
878.0981	1347.3515	8998.3	8101.75
878.2422	1349.2196	8950.5	8054.35
878.3862	1351.087	8960.15	8064.9
878.5303	1352.9537	8999.3	8101.15
878.6743	1354.8197	9104.2	8206.9
878.8184	1356.6849	9290.65	8394
878.9624	1358.5493	9538.2	8643.8
879.1064	1360.4131	9842.4	8943.65
879.2504	1362.276	10166	9271.45
879.3944	1364.1383	10403.25	9506.8
879.5384	1365.9998	10383.3	9482.7
879.6823	1367.8606	10066.35	9172.65
879.8263	1369.7206	9684.15	8786.85
879.9702	1371.5799	9347.4	8449.4
880.1142	1373.4384	9033.85	8135.7
880.2581	1375.2962	8734.65	7838.15
880.402	1377.1533	8293.3	7398.75
880.5459	1379.0096	7835.45	6939.7
880.6898	1380.8652	7393.85	6500.2
880.8337	1382.7201	6991.3	6096.95
880.9776	1384.5742	6676.5	5781
881.1215	1386.4275	6446.4	5545.35
881.2653	1388.2802	6266.8	5369.35
881.4092	1390.132	6128	5234
881.553	1391.9832	6040.1	5142.3
881.6968	1393.8336	5943.75	5045.65
881.8406	1395.6832	5895.8	4997.1
881.9844	1397.5322	5845.25	4949.35
882.1282	1399.3803	5815.05	4912.65
882.272	1401.2278	5747.85	4850.7
882.4158	1403.0745	5722.75	4826.75
882.5595	1404.9204	5682.85	4788.45
882.7033	1406.7656	5691.5	4796.6
882.847	1408.6101	5672.6	4776.8
882.9908	1410.4538	5684.9	4787.7
883.1345	1412.2968	5746.8	4850.65
883.2782	1414.139	5793.65	4896.7
883.4219	1415.9805	5869.7	4975.45
883.5656	1417.8213	5992.5	5075.75
883.7092	1419.6613	6117.35	5224.15
883.8529	1421.5006	6309.4	5413.8
883.9965	1423.3391	6592	5696.15
884.1402	1425.1769	7005.6	6107.8
884.2838	1427.0139	7564.95	6669.2
884.4274	1428.8502	8266.7	7370.65
884.571	1430.6858	8939.55	8043.9
884.7146	1432.5206	9432.7	8536.15
884.8582	1434.3547	9739.15	8843.1
885.0018	1436.188	9818.55	8925.3
885.1453	1438.0206	9738	8840.8
885.2889	1439.8524	9542.8	8645.8
885.4324	1441.6835	9375.4	8479.5
885.5759	1443.5139	9239.3	8339.55
885.7194	1445.3435	9192.95	8297.6
885.8629	1447.1724	9176.75	8282.15
886.0064	1449.0005	9151.55	8254.8
886.1499	1450.8279	9055.65	8160.8
886.2933	1452.6545	9046.4	8150.55
886.4368	1454.4804	9088.2	8193
886.5802	1456.3056	9089.1	8187.3
886.7237	1458.13	9032.65	8137
886.8671	1459.9536	8851	7956.1
887.0105	1461.7766	8568.7	7673.5
887.1539	1463.5987	8171.85	7276.75
887.2972	1465.4202	7757.8	6864.1
887.4406	1467.2409	7355.65	6461.5
887.584	1469.0608	6999.45	6106.2
887.7273	1470.88	6660.45	5764.6
887.8706	1472.6984	6334.65	5437.65
888.0139	1474.5161	6092.75	5196.4
888.1572	1476.3331	5916.55	5021.1
888.3005	1478.1493	5758.7	4863.25
888.4438	1479.9648	5657.75	4762.4
888.5871	1481.7795	5595	4701.2
888.7303	1483.5935	5543.75	4649.9
888.8736	1485.4067	5504	4609.1
889.0168	1487.2192	5461.35	4567.45
889.16	1489.031	5447.15	4549.9
889.3032	1490.842	5424.55	4529.75
889.4464	1492.6522	5397.4	4503.65
889.5896	1494.4618	5382.1	4487.2
889.7327	1496.2705	5330.5	4435.25
889.8759	1498.0785	5304.1	4409.4
890.019	1499.8858	5271.65	4375.55
890.1622	1501.6924	5218.3	4327.65
890.3053	1503.4981	5176.4	4283.05
890.4484	1505.3032	5138.15	4245.2
890.5914	1507.1075	5087.6	4192.4
890.7345	1508.911	5008.35	4114.1
890.8776	1510.7138	4964.2	4070.05
891.0206	1512.5159	4902.15	4008.1
891.1637	1514.3172	4844.35	3952.2
891.3067	1516.1178	4786.95	3894.4
891.4497	1517.9176	4757.1	3861.15
891.5927	1519.7166	4710.5	3818.7
891.7357	1521.515	4691.3	3792.3
891.8786	1523.3126	4658.45	3765.2
892.0216	1525.1094	4637.55	3745.5
892.1645	1526.9055	4605.8	3711.9
892.3074	1528.7008	4599.1	3707.2
892.4503	1530.4954	4570.2	3676.2
892.5932	1532.2893	4549.35	3657.2
892.7361	1534.0824	4538.45	3643
892.879	1535.8747	4547.05	3653.1
893.0218	1537.6663	4534.2	3642.4
893.1647	1539.4572	4532.05	3640.05
893.3075	1541.2473	4547.75	3651.95
893.4503	1543.0367	4554.2	3664.4
893.5931	1544.8253	4585.35	3690
893.7359	1546.6132	4629.9	3736.2
893.8787	1548.4003	4687.85	3786.9
894.0214	1550.1867	4744.1	3844.55
894.1642	1551.9723	4825.9	3930.95
894.3069	1553.7572	4943.4	4051.95
894.4496	1555.5414	5120.3	4234.5
894.5923	1557.3247	5329.3	4438.95
894.735	1559.1074	5563.85	4675.55
894.8777	1560.8893	5838.85	4948.85
895.0204	1562.6705	6100.9	5212.05
895.163	1564.4509	6351.4	5465.15
895.3056	1566.2305	6540.95	5653.1
895.4482	1568.0094	6636.85	5749.85
895.5908	1569.7876	6679	5791.6
895.7334	1571.565	6683.65	5791.6
895.876	1573.3417	6710.7	5824.1
896.0186	1575.1176	6745.5	5857.2
896.1611	1576.8928	6835.85	5947.2
896.3036	1578.6672	6924.9	6040.7
896.4461	1580.4409	7072.95	6187.65
896.5886	1582.2138	7231.9	6343
896.7311	1583.986	7401.15	6512.4
896.8736	1585.7575	7605.1	6717.75
897.0161	1587.5282	7822.7	6937.95
897.1585	1589.2981	8038.25	7152.75
897.3009	1591.0673	8220.7	7335.3
897.4433	1592.8358	8389.15	7504.05
897.5857	1594.6035	8537.8	7649.65
897.7281	1596.3704	8582.75	7694.95
897.8705	1598.1366	8649.85	7763.55
898.0128	1599.9021	8691.65	7806.6
898.1551	1601.6668	8731.85	7844.95
898.2975	1603.4308	8778.95	7891.15
898.4398	1605.194	8895.2	8003.7
898.5821	1606.9564	9108.05	8224.5
898.7243	1608.7182	9422.5	8537.2
898.8666	1610.4791	9854.25	8974.8
899.0088	1612.2394	10366.2	9483.35
899.1511	1613.9988	10932.7	10049.6
899.2933	1615.7576	11510.75	10625.95
899.4355	1617.5156	11936.15	11044.65
899.5776	1619.2728	12171.2	11282.7
899.7198	1621.0293	12096.2	11209.05
899.862	1622.785	11747.95	10861.05
900.0041	1624.54	11179.8	10293.2
900.1462	1626.2942	10501.45	9618.2
900.2883	1628.0477	9778.35	8892.4
900.4304	1629.8005	9088.05	8198.85
900.5725	1631.5525	8477.35	7592.9
900.7145	1633.3037	7915.1	7029.8
900.8566	1635.0542	7486.95	6604.25
900.9986	1636.804	7126.35	6243.2
901.1406	1638.553	6918.6	5962.6
901.2826	1640.3013	6653.5	5769.8
901.4245	1642.0488	6519	5634.95
901.5665	1643.7955	6462.1	5579.5
901.7085	1645.5416	6447.55	5561.6
901.8504	1647.2868	6457.25	5575.35
901.9923	1649.0313	6514.2	5629.25
902.1342	1650.7751	6606.8	5719.1
902.2761	1652.5181	6706.1	5821.65
902.4179	1654.2604	6819	5934.8
902.5598	1656.0019	7030.9	6149
902.7016	1657.7427	7303.95	6418.55
902.8434	1659.4828	7668.7	6786.65
902.9852	1661.222	7989.6	7103.65
903.127	1662.9606	8106.4	7223.55
903.2687	1664.6984	8043.3	7158.15
903.4105	1666.4354	7675.75	6790.65
903.5522	1668.1717	7119.6	6234.2
903.6939	1669.9072	6478.55	5593.2
903.8356	1671.642	5864	4978.05
903.9773	1673.3761	5350.25	4464.3
904.119	1675.1094	4950.3	4064.85
904.2606	1676.8419	4655.75	3771.5
904.4022	1678.5737	4414.55	3528.7
904.5439	1680.3048	4240.2	3354.35
904.6855	1682.0351	4091.5	3209.15
904.827	1683.7646	3971.3	3084.9
904.9686	1685.4934	3889.6	3006.3
905.1101	1687.2215	3806.8	2921.9
905.2517	1688.9488	3733.5	2851
905.3932	1690.6754	3663.35	2779.95
905.5347	1692.4012	3632.35	2749.1
905.6761	1694.1263	3601.15	2717.75
905.8176	1695.8506	3539.4	2655.95
905.9591	1697.5742	3510.3	2627.2
906.1005	1699.297	3480.5	2598.75
906.2419	1701.0191	3442.15	2556.2
906.3833	1702.7404	3392.7	2511.45
906.5246	1704.461	3370.9	2485.4
906.666	1706.1808	3328.75	2443.4
906.8073	1707.8999	3306.05	2423.75
906.9487	1709.6182	3280.2	2397.75
907.09	1711.3358	3248.3	2367.25
907.2313	1713.0527	3231.5	2352.4
907.3725	1714.7688	3205.45	2317.05
907.5138	1716.4841	3189.95	2305.8
907.655	1718.1987	3177.9	2288.35
907.7962	1719.9126	3165.05	2285.85
907.9374	1721.6257	3149.55	2265.8
908.0786	1723.338	3144.2	2261.95
908.2198	1725.0496	3116.85	2234.8
908.3609	1726.7605	3105.65	2220.85
908.502	1728.4706	3097.35	2213.85
908.6431	1730.18	3057.4	2172.45
908.7842	1731.8886	3069	2185.55
908.9253	1733.5964	3076.4	2171.45
909.0664	1735.3036	3038.1	2153.5
909.2074	1737.0099	3029.25	2148.05
909.3484	1738.7156	3010.35	2130.25
909.4894	1740.4204	3004.3	2119.55
909.6304	1742.1246	2980.9	2098.35
909.7714	1743.8279	2977.35	2096.6
909.9123	1745.5306	2957.65	2074.8
910.0532	1747.2325	2947.15	2067
910.1941	1748.9336	2922.2	2039.2
910.335	1750.634	2919.05	2034.55
910.4759	1752.3336	2908.1	2026.35
910.6168	1754.0325	2907.45	2027.85
910.7576	1755.7307	2907.45	2026.65
910.8984	1757.4281	2902.55	2019.25
911.0392	1759.1247	2887.35	1995
911.18	1760.8206	2876.45	1987.4
911.3208	1762.5158	2883.75	1997.15
911.4615	1764.2102	2864.35	1982.6
911.6022	1765.9039	2845.95	1965.45
911.7429	1767.5968	2846.8	1966.85
911.8836	1769.289	2828.1	1945.35
912.0243	1770.9804	2843.55	1962.25
912.1649	1772.6711	2837.9	1953.15
912.3056	1774.361	2830.9	1947.1
912.4462	1776.0502	2824.45	1941.95
912.5868	1777.7386	2811.4	1924.65
912.7274	1779.4263	2800.55	1919.6
912.8679	1781.1132	2809.15	1927.6
913.0084	1782.7994	2794.7	1912.2
913.149	1784.4849	2789.45	1907.8
913.2895	1786.1696	2803.4	1901.7
913.4299	1787.8535	2773.75	1893.2
913.5704	1789.5367	2778.35	1896.65
913.7108	1791.2192	2768.8	1886.75
913.8513	1792.9009	2783.2	1876.65
913.9917	1794.5818	2749.05	1866.1
914.132	1796.2621	2742.15	1861.3
914.2724	1797.9415	2749.35	1867.45
914.4128	1799.6202	2724.75	1840.45
914.5531	1801.2982	2713.2	1832.8
914.6934	1802.9755	2726.45	1842.9
914.8337	1804.6519	2719.3	1835.65
914.9739	1806.3277	2705.95	1823.6
915.1142	1808.0027	2694.4	1814.3
915.2544	1809.6769	2695.5	1816.25
915.3946	1811.3504	2693.75	1811
915.5348	1813.0231	2691	1809.85
915.675	1814.6951	2687.3	1807.4
915.8151	1816.3664	2698	1814.6
915.9553	1818.0369	2683.3	1799.35
916.0954	1819.7067	2670.6	1789.4
916.2355	1821.3757	2680.75	1795.55
916.3755	1823.044	2672.05	1790
916.5156	1824.7115	2659.8	1778.3
916.6556	1826.3783	2656.2	1774.65
916.7956	1828.0443	2652.45	1770.55
916.9356	1829.7096	2655.4	1771.4
917.0756	1831.3741	2656.75	1770.75
917.2155	1833.0379	2640.55	1759.25
917.3555	1834.701	2635.55	1752.8
917.4954	1836.3633	2632.75	1750.35
917.6353	1838.0248	2630.95	1748.1
917.7751	1839.6856	2625.7	1744.8
917.915	1841.3457	2621.9	1741.55
918.0548	1843.005	2622.75	1740.75
918.1946	1844.6636	2616.2	1734.05
918.3344	1846.3214	2615.85	1733.95
918.4742	1847.9785	2616.8	1735.2
918.6139	1849.6349	2611.05	1729.15
918.7537	1851.2904	2615.45	1724.05
918.8934	1852.9453	2599.9	1719.35
919.0331	1854.5994	2603.6	1717.95
919.1727	1856.2528	2611.8	1723.65
919.3124	1857.9054	2597.15	1715.25
919.452	1859.5572	2591.1	1709.85
919.5916	1861.2083	2589.1	1705.05
919.7312	1862.8587	2582.8	1700.9
919.8708	1864.5084	2579.8	1697.15
920.0103	1866.1572	2573.35	1692.35
920.1498	1867.8054	2564.65	1680.35
920.2893	1869.4528	2555.05	1670.9
920.4288	1871.0994	2552.95	1670.2
920.5683	1872.7453	2551.75	1667.95
920.7077	1874.3905	2545	1654.7
920.8471	1876.0349	2543.6	1660.6
920.9865	1877.6786	2535.45	1652.5
921.1259	1879.3215	2530.15	1646.7
921.2653	1880.9637	2530.9	1646.65
921.4046	1882.6051	2523	1640.5
921.5439	1884.2458	2514.3	1632.2
921.6832	1885.8858	2521.25	1637.45
921.8225	1887.525	2507.7	1626.25
921.9617	1889.1634	2507.5	1625.15
922.101	1890.8011	2500.75	1618.1
922.2402	1892.4381	2488.15	1606.3
922.3794	1894.0743	2480.4	1600.05
922.5185	1895.7098	2490.25	1607.95
922.6577	1897.3446	2486.25	1604.35
922.7968	1898.9786	2474.75	1590.2
922.9359	1900.6118	2473.2	1593.1
923.075	1902.2443	2466.15	1581.9
923.214	1903.8761	2465.5	1582.95
923.3531	1905.5071	2461.45	1580.55
923.4921	1907.1374	2445.35	1560.2
923.6311	1908.7669	2434.55	1553.35
923.77	1910.3957	2426.25	1544.35
923.909	1912.0237	2432.3	1549.85
924.0479	1913.651	2424.8	1542.4
924.1868	1915.2776	2420.4	1538.05
924.3257	1916.9034	2419.2	1536.2
924.4646	1918.5285	2407.85	1526.5
924.6034	1920.1528	2399.1	1518.4
924.7422	1921.7764	2406	1525
924.881	1923.3992	2401.7	1520.8
925.0198	1925.0213	2392.45	1510.45
925.1586	1926.6427	2370.35	1488.95
925.2973	1928.2633	2451.6	1481.05
925.436	1929.8832	2390.25	1507.1
925.5747	1931.5023	2367.25	1484.95
925.7134	1933.1207	2369.9	1487.9
925.852	1934.7383	2355.65	1472.45
925.9906	1936.3552	2364.65	1482.4
926.1292	1937.9714	2343.2	1459.95
926.2678	1939.5868	2352	1468.35
926.4064	1941.2015	2345.4	1464.4
926.5449	1942.8154	2344.2	1460.35
926.6834	1944.4286	2334.6	1452.05
926.8219	1946.041	2340.45	1433.65
926.9604	1947.6528	2331.2	1444.7
927.0988	1949.2637	2319.25	1436.7
927.2372	1950.8739	2305.5	1422.5
927.3756	1952.4834	2318.55	1436.35
927.514	1954.0921	2305.4	1420.85
927.6523	1955.7001	2313.4	1429.45
927.7907	1957.3074	2298.4	1414.55
927.929	1958.9139	2290.2	1410.5
928.0673	1960.5197	2301.9	1419.2
928.2055	1962.1247	2281.6	1399.5
928.3438	1963.729	2260.7	1379.8
928.482	1965.3325	2265.6	1377.1
928.6202	1966.9353	2264.45	1384.4
928.7584	1968.5374	2262.25	1379.9
928.8965	1970.1387	2253.75	1371
929.0346	1971.7393	2253.75	1374.4
929.1727	1973.3392	2248.5	1366.5
929.3108	1974.9383	2248.35	1369.8
929.4489	1976.5366	2236.1	1356.1
929.5869	1978.1342	2233.45	1353.9
929.7249	1979.7311	2238.45	1357.15
929.8629	1981.3273	2237.9	1358
930.0009	1982.9227	2231.15	1349.5
930.1388	1984.5173	2229.7	1350.2
930.2767	1986.1112	2207.35	1326.6
930.4146	1987.7044	2202.9	1322.3
930.5525	1989.2968	2200.8	1320.35
930.6904	1990.8885	2216.95	1335.1
930.8282	1992.4795	2210.15	1329.85
930.966	1994.0697	2206.7	1328.1
931.1038	1995.6592	2200.85	1321.6
931.2415	1997.2479	2183.75	1301.35
931.3793	1998.8359	2189.8	1310.65
931.517	2000.4232	2181.15	1301.3
931.6547	2002.0097	2172.95	1296.25
931.7923	2003.5955	2173.85	1295.35
931.93	2005.1805	2178.3	1296.7
932.0676	2006.7648	2169.9	1291.4
932.2052	2008.3484	2162	1282.5
932.3427	2009.9312	2170.35	1289.35
932.4803	2011.5133	2158.3	1281.2
932.6178	2013.0946	2157.75	1279
932.7553	2014.6752	2143.65	1265.75
932.8928	2016.2551	2150.2	1273
933.0302	2017.8342	2144.9	1264.6
933.1676	2019.4126	2143.1	1265.3
933.305	2020.9902	2130.75	1251.25
933.4424	2022.5672	2128.35	1250.1
933.5798	2024.1433	2135.3	1250.5
933.7171	2025.7188	2126.7	1250.6
933.8544	2027.2935	2134.6	1253.55
933.9917	2028.8674	2113.55	1235.85
934.129	2030.4406	2109.8	1230.85
934.2662	2032.0131	2113.9	1236
934.4034	2033.5849	2116	1227.8
934.5406	2035.1559	2104.6	1229
934.6778	2036.7261	2110.95	1232.35
934.8149	2038.2957	2102.2	1222.3
934.952	2039.8645	2102.5	1224.1
935.0891	2041.4325	2099.7	1215.95
935.2262	2042.9998	2090.85	1213.5
935.3632	2044.5664	2088.75	1208.05
935.5002	2046.1323	2090	1211.1
935.6372	2047.6974	2082.1	1206.7
935.7742	2049.2617	2069.65	1191.05
935.9111	2050.8254	2080.6	1196.9
936.048	2052.3883	2078.7	1198
936.1849	2053.9504	2072.9	1193.1
936.3218	2055.5118	2073.3	1192.1
936.4586	2057.0725	2063	1181.65
936.5955	2058.6325	2064.2	1185.05
936.7323	2060.1917	2060.5	1182.9
936.869	2061.7502	2059.3	1177.85
937.0058	2063.3079	2058.7	1180.8
937.1425	2064.8649	2052.3	1171.2
937.2792	2066.4212	2042.2	1160.65
937.4159	2067.9767	2053.75	1176.4
937.5525	2069.5315	2033.05	1152.4
937.6891	2071.0856	2034.45	1155.4
937.8257	2072.6389	2034	1152.6
937.9623	2074.1915	2016.85	1140.55
938.0989	2075.7433	2029.85	1150.2
938.2354	2077.2945	2013.2	1136.6
938.3719	2078.8448	2017	1137.5
938.5084	2080.3945	2029.6	1149.9
938.6448	2081.9434	2024	1146.35
938.7812	2083.4916	2008	1128.6
938.9176	2085.039	1998.4	1115.75
939.054	2086.5857	1999.3	1115.65
939.1903	2088.1317	2010.1	1128.95
939.3267	2089.677	2004.45	1121.7
939.463	2091.2215	1993.6	1113.6
939.5992	2092.7652	1995.25	1113.2
939.7355	2094.3083	1991.75	1108.9
939.8717	2095.8506	1992.25	1115
940.0079	2097.3921	1984.5	1105.2
940.1441	2098.933	1981.05	1103.5
940.2802	2100.4731	1990.25	1109.45
940.4163	2102.0124	2000.4	1099.75
940.5524	2103.5511	1987.35	1106
940.6885	2105.089	1986.6	1106.45
940.8245	2106.6261	1978.7	1099.05
940.9606	2108.1626	1971.35	1090.7
941.0965	2109.6983	2000.95	1089.25
941.2325	2111.2332	1967.05	1086.7
941.3684	2112.7675	1965	1082.85
941.5044	2114.301	1960.2	1078.2
941.6403	2115.8337	1960.85	1080.15
941.7761	2117.3657	1956.75	1077.3
941.912	2118.897	1955.75	1075.15
942.0478	2120.4276	1965.15	1077.35
942.1835	2121.9575	1953.25	1071.75
942.3193	2123.4866	1950.15	1065.05
942.455	2125.0149	1946.65	1062.05
942.5907	2126.5426	1938.9	1060.85
942.7264	2128.0695	1946.4	1060.95
942.8621	2129.5956	1928.55	1050.7
942.9977	2131.1211	1928.95	1044.75
943.1333	2132.6458	1929.25	1049.1
943.2689	2134.1698	1931.25	1051.65
943.4044	2135.693	1932.4	1050.15
943.54	2137.2155	1920.55	1037.7
943.6755	2138.7373	1925.8	1045.4
943.8109	2140.2584	1918.65	1039.15
943.9464	2141.7787	1922.7	1037.15
944.0818	2143.2983	1909.2	1031.8
944.2172	2144.8171	1910.45	1034.65
944.3526	2146.3353	1908.15	1026.45
944.4879	2147.8527	1904.95	1026.7
944.6232	2149.3693	1911.35	1030.9
944.7585	2150.8853	1895.7	1016
944.8938	2152.4005	1895.25	1014.55
945.029	2153.9149	1890.6	1011.2
945.1642	2155.4287	1892.9	1010.8
945.2994	2156.9417	1895.35	1013.35
945.4346	2158.454	1890.85	1008.7
945.5697	2159.9655	1880.15	1000.05
945.7048	2161.4764	1886.15	1005.6
945.8399	2162.9865	1882.2	1000.4
945.9749	2164.4958	1876.8	996.95
946.1099	2166.0045	1877.25	995.5
946.2449	2167.5124	1872.25	993.85
946.3799	2169.0195	1873.2	993.1
946.5148	2170.526	1859.95	977.5
946.6498	2172.0317	1859.75	979.6
946.7846	2173.5367	1859.75	978.1
946.9195	2175.0409	1851.3	971.35
947.0543	2176.5445	1859.2	978.8
947.1891	2178.0473	1864.7	984.1
947.3239	2179.5494	1858.65	973.35
947.4587	2181.0507	1852.2	972.6
947.5934	2182.5513	1849.55	968.3
947.7281	2184.0512	1854.35	975.2
947.8628	2185.5504	1849.5	969.15
947.9974	2187.0488	1840.3	960.25
948.132	2188.5465	1840.2	959.2
948.2666	2190.0435	1843.45	963.05
948.4012	2191.5397	1837.4	957.7
948.5357	2193.0353	1839.4	958.9
948.6702	2194.5301	1835.75	953.9
948.8047	2196.0241	1843.3	960.05
948.9392	2197.5175	1837.35	955.75
949.0736	2199.0101	1837.45	949.8
949.208	2200.502	1826.6	947.35
949.3424	2201.9931	1822.75	942.75
949.4767	2203.4835	1818.7	937.25
949.611	2204.9733	1825.7	938.75
949.7453	2206.4622	1815.9	935.65
949.8796	2207.9505	1814.25	932.5
950.0138	2209.438	1808.05	929.2
950.148	2210.9248	1803.85	921.65
950.2822	2212.4109	1805.7	926.35
950.4164	2213.8962	1804.8	920.2
950.5505	2215.3809	1804.3	920.8
950.6846	2216.8648	1791.45	908.6
950.8186	2218.3479	1799.45	911.15
950.9527	2219.8304	1800.45	916.2
951.0867	2221.3121	1794.8	910
951.2207	2222.7931	1776.85	895.85
951.3546	2224.2733	1784.15	902.8
951.4886	2225.7529	1777.6	895.3
951.6225	2227.2317	1773.3	889.35
951.7563	2228.7098	1774.2	894.75
951.8902	2230.1872	1767.35	887.45
952.024	2231.6638	1767.85	888.25
952.1578	2233.1397	1765	879.7
952.2916	2234.6149	1761.2	882
952.4253	2236.0894	1759.1	877.65
952.559	2237.5632	1770.85	881.05
952.6927	2239.0362	1762.55	883.2
952.8263	2240.5085	1747.85	868.5
952.9599	2241.9801	1745.1	862.6
953.0935	2243.4509	1742.35	860
953.2271	2244.921	1740.15	858.45
953.3606	2246.3904	1740	855.1
953.4941	2247.8591	1730.4	851.8
953.6276	2249.3271	1731.45	850.75
953.7611	2250.7943	1732.4	850.15
953.8945	2252.2608	1735.15	853.55
954.0279	2253.7266	1721.85	840.05
954.1612	2255.1917	1726.1	846.45
954.2946	2256.656	1714.75	835.65
954.4279	2258.1197	1714.45	834.95
954.5612	2259.5826	1720.15	837.85
954.6944	2261.0447	1717.65	835.55
954.8276	2262.5062	1709.9	827.8
954.9608	2263.9669	1705.85	822.65
955.094	2265.4269	1712.55	832.15
955.2271	2266.8862	1705.9	824.65
955.3602	2268.3448	1703.55	822.5
955.4933	2269.8026	1703.2	823.5
955.6264	2271.2598	1697.25	815.35
955.7594	2272.7162	1698.25	818.55
955.8924	2274.1719	1697.25	816.9
956.0253	2275.6268	1702.5	821.2
956.1583	2277.0811	1691.05	810.7
956.2912	2278.5346	1693.9	814.1
956.4241	2279.9874	1689.2	808.85
956.5569	2281.4395	1689.75	809.9
956.6897	2282.8908	1690.55	805.55
956.8225	2284.3414	1689.9	810.25
956.9553	2285.7914	1693.75	812.45
957.088	2287.2406	1681.25	800.4
957.2207	2288.689	1682.9	800.65
957.3534	2290.1368	1680.3	797.6
957.486	2291.5838	1688.4	801.8
957.6186	2293.0302	1683.85	800.45
957.7512	2294.4758	1679.2	798.05
957.8838	2295.9206	1671.1	786.7
958.0163	2297.3648	1675	795.25
958.1488	2298.8082	1680.8	797.15
958.2813	2300.251	1681.7	799.45
958.4137	2301.693	1686.9	804.25
958.5461	2303.1343	1664.9	782.75
958.6785	2304.5748	1658.65	779.1
958.8108	2306.0147	1671.05	790.3
958.9432	2307.4538	1669.2	786.25
959.0754	2308.8922	1657.5	777.95
959.2077	2310.3299	1657.6	776
959.3399	2311.7669	1655.9	776.45
959.4721	2313.2031	1655.3	773.25
959.6043	2314.6387	1648.2	767.35
959.7365	2316.0735	1648.85	766.85
959.8686	2317.5076	1649.7	765.7
960.0006	2318.941	1642.25	759.75
960.1327	2320.3737	1647.3	764.65
960.2647	2321.8056	1643.95	759.45
960.3967	2323.2369	1641.9	760.3
960.5287	2324.6674	1642.75	759.2
960.6606	2326.0972	1642.65	759.7
960.7925	2327.5263	1637.7	756.55
960.9244	2328.9547	1637.25	755
961.0562	2330.3823	1627.3	745.55
961.1881	2331.8092	1638.5	752.1
961.3198	2333.2355	1630.25	748.55
961.4516	2334.661	1628.45	747.15
961.5833	2336.0858	1626.2	742
961.715	2337.5098	1628.15	748.15
961.8467	2338.9332	1620.6	737.7
961.9783	2340.3558	1616.1	731.55
962.1099	2341.7778	1618.9	737.25
962.2415	2343.199	1613.1	729.5
962.373	2344.6195	1614.05	733.5
962.5045	2346.0393	1617.55	738.7
962.636	2347.4583	1619.35	737.15
962.7675	2348.8767	1618.75	734.6
962.8989	2350.2943	1617.6	734.05
963.0303	2351.7113	1610.6	726.85
963.1617	2353.1275	1615.85	733.5
963.293	2354.543	1632.9	725.5
963.4243	2355.9578	1609.5	727.05
963.5556	2357.3718	1609.7	730
963.6868	2358.7852	1604.25	720.4
963.818	2360.1978	1606.35	724.85
963.9492	2361.6098	1608.55	727.95
964.0803	2363.021	1605.5	720.5
964.2114	2364.4315	1594.85	713.55
964.3425	2365.8413	1604.85	721.15
964.4736	2367.2504	1593.75	716.35
964.6046	2368.6587	1590.6	709.2
964.7356	2370.0664	1596.7	715.05
964.8666	2371.4733	1581.55	699.65
964.9975	2372.8795	1586.1	703.85
965.1284	2374.285	1581	698.7
965.2593	2375.6899	1584.9	703.3
965.3901	2377.0939	1579.75	701.3
965.5209	2378.4973	1583.4	701.55
965.6517	2379.9	1583.25	700.1
965.7825	2381.3019	1575.7	695.05
965.9132	2382.7032	1575.65	694.8
966.0439	2384.1037	1569.75	690.95
966.1745	2385.5035	1566.1	684.35
966.3051	2386.9027	1565.95	687.4
966.4357	2388.3011	1564.3	679.7
966.5663	2389.6987	1564.2	683.15
966.6968	2391.0957	1549.9	669
966.8273	2392.492	1550.5	671.85
966.9578	2393.8876	1559.55	678.15
967.0882	2395.2824	1549.4	669.4
967.2186	2396.6765	1548.4	666.7
967.349	2398.07	1540.55	659.05
967.4793	2399.4627	1549.5	666.25
967.6097	2400.8547	1548.35	665.3
967.7399	2402.246	1541.8	654.4
967.8702	2403.6366	1540.9	659.85
968.0004	2405.0265	1533.5	652.1
968.1306	2406.4156	1540.65	655.6
968.2607	2407.8041	1542.7	656.4
968.3909	2409.1918	1535.9	653.15
968.521	2410.5789	1530.45	649.4
968.651	2411.9652	1529.45	643.95
968.781	2413.3508	1525.6	643.3
968.911	2414.7358	1529.4	645.9
969.041	2416.12	1529.75	649.5
969.1709	2417.5035	1534.05	653.1
969.3008	2418.8863	1526.15	644.7
969.4307	2420.2684	1531.4	649.05
969.5606	2421.6497	1521.1	637.75
969.6904	2423.0304	1524.5	642.8
969.8201	2424.4104	1521.3	640.55
969.9499	2425.7896	1523.5	635.35
970.0796	2427.1682	1519.05	636.75
970.2093	2428.546	1514.55	631.85
970.3389	2429.9232	1520.5	637.75
970.4685	2431.2996	1513.5	630.75
970.5981	2432.6753	1513.15	630.75
970.7277	2434.0503	1512.35	630.2
970.8572	2435.4246	1505.1	623.25
970.9867	2436.7982	1505.95	620.2
971.1161	2438.1711	1506.65	624.65
971.2456	2439.5433	1503	621.4
971.375	2440.9148	1504.2	615.85
971.5043	2442.2856	1501.8	619.9
971.6336	2443.6557	1502.3	619.3
971.7629	2445.025	1493.55	612.7
971.8922	2446.3937	1498.05	615.85
972.0214	2447.7617	1494.5	610.85
972.1506	2449.1289	1489.55	609.7
972.2798	2450.4955	1491.8	605.85
972.4089	2451.8613	1485.55	606.1
972.538	2453.2265	1487.2	605.75
972.6671	2454.5909	1483.65	602.9
972.7961	2455.9546	1480.55	599.95
972.9251	2457.3177	1476.55	596.4
973.0541	2458.68	1482.85	600.1
973.1831	2460.0416	1479.4	600.15
973.312	2461.4025	1486.2	602.5
973.4408	2462.7627	1481.1	587.85
973.5697	2464.1222	1476.5	595.4
973.6985	2465.4811	1475.65	594
973.8273	2466.8392	1473.7	594.5
973.956	2468.1966	1480.6	596.1
974.0847	2469.5533	1480.6	594.95
974.2134	2470.9093	1480.6	599.2
974.3421	2472.2645	1480	597.9
974.4707	2473.6191	1477.5	596
974.5993	2474.973	1474.6	591.6
974.7278	2476.3262	1476.05	591.65
974.8563	2477.6787	1472.05	589.6
974.9848	2479.0305	1468.35	586.6
975.1132	2480.3816	1474.2	591
975.2417	2481.7319	1476.25	595.25
975.37	2483.0816	1468.65	585.9
975.4984	2484.4306	1473	589.65
975.6267	2485.7789	1468.95	589.9
975.755	2487.1264	1468.75	584.8
975.8833	2488.4733	1464.65	583.7
976.0115	2489.8195	1479.95	583.95
976.1397	2491.165	1458.75	577.05
976.2678	2492.5097	1465.8	582.4
976.3959	2493.8538	1454.25	572.85
976.524	2495.1972	1449.55	567.1
976.6521	2496.5398	1457.65	573.15
976.7801	2497.8818	1454.45	567.7
976.9081	2499.2231	1456.85	575.7
977.036	2500.5637	1455.1	571.3
977.164	2501.9035	1447.2	564.45
977.2918	2503.2427	1456.85	569.5
977.4197	2504.5812	1447.1	565.4
977.5475	2505.919	1449.15	566.4
977.6753	2507.256	1443.85	561
977.8031	2508.5924	1440.85	560.15
977.9308	2509.9281	1444.7	555.5
978.0585	2511.2631	1443.45	562.95
978.1861	2512.5974	1438.95	559.35
978.3137	2513.9309	1442.35	558.6
978.4413	2515.2638	1465.55	559.3
978.5689	2516.596	1438.55	559.05
978.6964	2517.9275	1437.65	553.85
978.8239	2519.2583	1435.25	552.25
978.9513	2520.5884	1428.05	545.55
979.0788	2521.9178	1428.9	546.45
979.2062	2523.2465	1429.8	551.8
979.3335	2524.5745	1424.45	541.9
979.4608	2525.9018	1426.65	546.55
979.5881	2527.2284	1427.5	546.6
979.7154	2528.5543	1424.9	544.7
979.8426	2529.8796	1425.05	544.6
979.9698	2531.2041	1426.75	544.25
980.0969	2532.5279	1430.45	551.05
980.224	2533.851	1432.7	553.05
980.3511	2535.1735	1428.85	548.9
980.4781	2536.4952	1428.05	547.05
980.6052	2537.8163	1426.5	543.45
980.7321	2539.1366	1424.85	544.95
980.8591	2540.4562	1420.5	536.9
980.986	2541.7752	1424.45	542.4
981.1129	2543.0935	1426	543.1
981.2397	2544.411	1424.45	540.7
981.3665	2545.7279	1428.05	547.95
981.4933	2547.0441	1420.55	539.55
981.62	2548.3596	1421.9	538.35
981.7467	2549.6744	1421.4	540.55
981.8734	2550.9885	1424.15	530.35
982.0001	2552.3019	1414.4	533.3
982.1267	2553.6146	1419.2	536.35
982.2532	2554.9266	1415.25	535
982.3798	2556.2379	1414.7	530.3
982.5063	2557.5485	1420.05	539.65
982.6327	2558.8585	1423.55	533.9
982.7592	2560.1677	1413.6	529.9
982.8856	2561.4762	1408.5	525.4
983.0119	2562.7841	1414.65	530.25
983.1383	2564.0913	1412.05	532.75
983.2646	2565.3977	1407.4	527.1
983.3908	2566.7035	1403.95	521.85
983.517	2568.0086	1410.15	527.4
983.6432	2569.313	1410.45	529.35
983.7694	2570.6167	1410.85	526.75
983.8955	2571.9197	1412.55	534.7
984.0216	2573.222	1412.9	527.7
984.1476	2574.5236	1406.35	524.75
984.2737	2575.8246	1410.85	525.65
984.3996	2577.1248	1408.8	523.95
984.5256	2578.4244	1403.55	523.55
984.6515	2579.7232	1409.4	528.7
984.7774	2581.0214	1431.6	522.95
984.9032	2582.3189	1408.55	529.9
985.029	2583.6157	1408.95	523.7
985.1548	2584.9118	1410.8	528.4
985.2806	2586.2072	1409	529.15
985.4063	2587.5019	1411.1	529.5
985.5319	2588.7959	1407.15	525.5
985.6576	2590.0893	1418.15	534.9
985.7832	2591.3819	1417.9	537.8
985.9087	2592.6739	1416.1	537.85
986.0343	2593.9652	1415.5	532.1
986.1597	2595.2557	1418.85	538.65
986.2852	2596.5456	1421.2	539.55
986.4106	2597.8348	1418	538.75
986.536	2599.1234	1417.45	538.3
986.6614	2600.4112	1426.85	543.4
986.7867	2601.6983	1426.85	544.25
986.912	2602.9848	1423.7	542.4
987.0372	2604.2705	1434.05	549.4
987.1624	2605.5556	1423.1	543.05
987.2876	2606.84	1421.4	541.8
987.4128	2608.1237	1419.45	537.95
987.5379	2609.4067	1414	532.2
987.6629	2610.689	1423.7	536.35
987.788	2611.9707	1410.25	525.95
987.913	2613.2516	1412	524.55
988.0379	2614.5319	1408.9	528.45
988.1629	2615.8115	1400	517.85
988.2878	2617.0903	1402.5	521.05
988.4126	2618.3685	1399.75	517.2
988.5375	2619.6461	1397.2	517.2
988.6622	2620.9229	1398.75	518.55
988.787	2622.199	1402.45	523.1
988.9117	2623.4745	1398.65	518.5
989.0364	2624.7493	1394.1	513.75
989.161	2626.0234	1384.3	505.05
989.2857	2627.2968	1383.2	501.85
989.4102	2628.5695	1388.55	506.85
989.5348	2629.8415	1386.6	505.8
989.6593	2631.1128	1388.7	505.95
989.7837	2632.3835	1384.5	502.85
989.9082	2633.6535	1385.4	506
990.0326	2634.9228	1388.85	509.45
990.1569	2636.1914	1391.55	510.6
990.2812	2637.4593	1383.2	502.75
990.4055	2638.7265	1389.15	506.9
990.5298	2639.9931	1384.3	505.7
990.654	2641.259	1381.65	500.55
990.7782	2642.5242	1384.75	504.35
990.9023	2643.7887	1378.95	498.2
991.0264	2645.0525	1380.7	500.95
991.1505	2646.3156	1382.5	500.55
991.2745	2647.5781	1376.7	497.1
991.3985	2648.8398	1369.75	490.45
991.5225	2650.1009	1377.5	488
991.6464	2651.3613	1367.3	488.7
991.7703	2652.6211	1365.95	486.6
991.8942	2653.8801	1364.9	484.3
992.018	2655.1385	1372.75	490.15
992.1418	2656.3961	1364.2	485.85
992.2655	2657.6531	1373.7	494.15
992.3892	2658.9094	1371.75	489.45
992.5129	2660.1651	1365.1	483.95
992.6366	2661.42	1367.8	485.9
992.7602	2662.6743	1370	491.3
992.8837	2663.9279	1378.75	498.4
993.0073	2665.1808	1374	494.25
993.1307	2666.433	1383.85	502.6
993.2542	2667.6846	1381.5	501.75
993.3776	2668.9354	1390.35	507.55
993.501	2670.1856	1389.4	508.6
993.6244	2671.4351	1387.65	508.25
993.7477	2672.6839	1403.6	521.65
993.8709	2673.9321	1395.85	519.2
993.9942	2675.1795	1404.7	525.15
994.1174	2676.4263	1399.55	520.15
994.2405	2677.6724	1398.75	517.4
994.3637	2678.9179	1406.95	524.3
994.4868	2680.1626	1401.1	522
994.6098	2681.4067	1408.2	529.85
994.7328	2682.6501	1403.4	521.8
994.8558	2683.8928	1404.75	525.95
994.9788	2685.1348	1400.65	520.85
995.1017	2686.3761	1389.25	507.5
995.2245	2687.6168	1385.55	504.95
995.3474	2688.8568	1383	503.35
995.4702	2690.0961	1374.95	494.35
995.5929	2691.3348	1374.3	493.65
995.7156	2692.5727	1378.15	497.95
995.8383	2693.81	1371.5	490.65
995.961	2695.0466	1366	488.05
996.0836	2696.2826	1368	487.25
996.2062	2697.5178	1391.1	492.8
996.3287	2698.7524	1373.3	492.9
996.4512	2699.9863	1374.45	493.35
996.5737	2701.2195	1381.25	503.15
996.6961	2702.452	1390.4	508.45
996.8185	2703.6839	1393.15	513.3
996.9408	2704.9151	1397.9	519
997.0631	2706.1456	1404.05	526.95
997.1854	2707.3755	1419.2	537.4
997.3077	2708.6046	1428.9	547.3
997.4299	2709.8331	1431.25	551.65
997.552	2711.0609	1439.2	558.85
997.6742	2712.2881	1445.4	566.95
997.7963	2713.5145	1455.65	573.25
997.9183	2714.7403	1466.85	589.05
998.0403	2715.9654	1482.75	603.2
998.1623	2717.1899	1506.2	611.35
998.2842	2718.4136	1501.4	623.2
998.4062	2719.6367	1520.15	639.35
998.528	2720.8591	1544.85	657.65
998.6498	2722.0809	1552.3	674.6
998.7716	2723.3019	1571.95	689.7
998.8934	2724.5223	1574.8	695.15
999.0151	2725.7421	1583.4	701.95
999.1368	2726.9611	1581.55	698.45
999.2584	2728.1795	1577.5	692.95
999.38	2729.3972	1564	686.2
999.5016	2730.6142	1554.6	667.4
999.6231	2731.8306	1529.45	649.6
999.7446	2733.0462	1518.05	636.25
999.8661	2734.2612	1492.6	609.9
999.9875	2735.4756	1480.8	600.55
1000.1089	2736.6892	1459.75	580.05
1000.2302	2737.9022	1444.15	566.6
1000.3515	2739.1145	1436.5	558.2
1000.4728	2740.3262	1427.9	540.8
1000.594	2741.5372	1404.65	525.85
1000.7152	2742.7475	1393.35	512.65
1000.8363	2743.9571	1389.9	509.15
1000.9575	2745.1661	1391.15	509.1
1001.0785	2746.3744	1365.9	486.1
1001.1996	2747.582	1358	479.55
1001.3206	2748.7889	1354.1	473.15
1001.4415	2749.9952	1346.3	466.3
1001.5625	2751.2008	1341.9	460.15
1001.6833	2752.4057	1340.9	458.7
1001.8042	2753.61	1331.55	452.3
1001.925	2754.8136	1334.2	454.15
1002.0458	2756.0165	1331.1	453.05
1002.1665	2757.2188	1329.35	450.3
1002.2872	2758.4204	1324.75	445.4
1002.4078	2759.6213	1327.4	446.5
1002.5285	2760.8215	1333.5	448.7
1002.649	2762.0211	1329.3	450
1002.7696	2763.22	1331.45	449.3
1002.8901	2764.4182	1323.1	440.55
1003.0106	2765.6158	1319.15	440.15
1003.131	2766.8127	1317.15	438.15
1003.2514	2768.009	1313.4	436.85
1003.3717	2769.2045	1312.85	432.3
1003.492	2770.3994	1309.35	427.15
1003.6123	2771.5936	1305.1	425.95
1003.7325	2772.7872	1294.1	415.05
1003.8527	2773.9801	1296.75	414.05
1003.9729	2775.1723	1313.55	417.7
1004.093	2776.3639	1290.8	413.7
1004.2131	2777.5548	1292.15	410.8
1004.3331	2778.745	1300.5	420.1
1004.4531	2779.9346	1292.1	412.8
1004.5731	2781.1235	1296.2	415.65
1004.693	2782.3117	1306.25	427.6
1004.8129	2783.4992	1293.45	414.8
1004.9328	2784.6861	1300.35	422.5
1005.0526	2785.8723	1310.05	431.2
1005.1723	2787.0579	1305.75	425.3
1005.2921	2788.2428	1318	438.6
1005.4118	2789.427	1316.85	439
1005.5314	2790.6106	1316.45	437.25
1005.651	2791.7935	1324.75	443.85
1005.7706	2792.9757	1330	450.45
1005.8902	2794.1573	1340	459.1
1006.0097	2795.3382	1352.15	473.5
1006.1291	2796.5184	1362.35	486.15
1006.2485	2797.698	1376.45	496.85
1006.3679	2798.8769	1374.3	496.8
1006.4873	2800.0551	1390.8	510.85
1006.6066	2801.2327	1413.8	533.05
1006.7258	2802.4096	1416.15	537.35
1006.8451	2803.5859	1433.85	555.3
1006.9642	2804.7615	1455.95	575.85
1007.0834	2805.9364	1474.8	597.6
1007.2025	2807.1106	1502.2	623.45
1007.3216	2808.2842	1522.8	643
1007.4406	2809.4572	1555.05	678.05
1007.5596	2810.6294	1594.2	713.5
1007.6785	2811.801	1625.4	746.35
1007.7975	2812.972	1658.4	782.05
1007.9163	2814.1423	1721.7	842.9
1008.0352	2815.3119	1765.75	887.15
1008.154	2816.4808	1819.1	941.8
1008.2727	2817.6491	1880.4	1000.4
1008.3914	2818.8167	1931.4	1053.35
1008.5101	2819.9837	2004.8	1122.05
1008.6288	2821.15	2075.6	1197.55
1008.7474	2822.3157	2147.7	1269.95
1008.8659	2823.4807	2205.25	1325.7
1008.9844	2824.645	2289.1	1409.05
1009.1029	2825.8086	2341.25	1465.25
1009.2214	2826.9716	2415.2	1536.5
1009.3398	2828.134	2476.85	1598.9
1009.4581	2829.2957	2532.35	1652
1009.5764	2830.4567	2586.1	1710.75
1009.6947	2831.617	2610.6	1732.05
1009.813	2832.7767	2624.35	1748.35
1009.9312	2833.9358	2623.15	1745.05
1010.0493	2835.0941	2595.8	1713.7
1010.1675	2836.2519	2597.55	1718.3
1010.2855	2837.4089	2570.05	1690.65
1010.4036	2838.5653	2547.15	1669.5
1010.5216	2839.7211	2533.9	1657.1
1010.6396	2840.8761	2541.6	1660.25
1010.7575	2842.0306	2532.35	1655.4
1010.8754	2843.1843	2565.55	1688
1010.9932	2844.3374	2599.65	1722.15
1011.111	2845.4899	2657.65	1778.15
1011.2288	2846.6417	2710.8	1832.65
1011.3465	2847.7928	2760.65	1884.1
1011.4642	2848.9433	2840.25	1962.55
1011.5818	2850.0931	2908.45	2031
1011.6995	2851.2422	2954.9	2074.1
1011.817	2852.3907	3034.05	2156.3
1011.9345	2853.5385	3090.4	2211.05
1012.052	2854.6857	3158.25	2254.45
1012.1695	2855.8323	3193.8	2316
1012.2869	2856.9781	3231.15	2351.7
1012.4042	2858.1233	3308.2	2430.85
1012.5216	2859.2679	3354.95	2475.15
1012.6389	2860.4118	3424.55	2547.7
1012.7561	2861.555	3477.5	2596.15
1012.8733	2862.6976	3533.5	2654.15
1012.9905	2863.8395	3564.25	2688.1
1013.1076	2864.9808	3604.15	2726.95
1013.2247	2866.1214	3622.7	2745.15
1013.3417	2867.2614	3650.95	2774.5
1013.4587	2868.4007	3686.9	2807.1
1013.5757	2869.5393	3690.7	2810.15
1013.6926	2870.6773	3706.15	2824.3
1013.8095	2871.8146	3723.4	2840.1
1013.9263	2872.9513	3729.65	2848.25
1014.0431	2874.0874	3708.4	2829.45
1014.1599	2875.2227	3699.1	2819.2
1014.2766	2876.3574	3664	2785.45
1014.3933	2877.4915	3647.5	2769.95
1014.51	2878.6249	3599.55	2723.9
1014.6266	2879.7577	3595.1	2712.7
1014.7431	2880.8898	3569.45	2682.45
1014.8596	2882.0212	3554.25	2676.6
1014.9761	2883.152	3545.5	2667.55
1015.0925	2884.2821	3538.5	2662.4
1015.2089	2885.4116	3537.35	2660.65
1015.3253	2886.5405	3537	2657.9
1015.4416	2887.6686	3547.75	2669
1015.5579	2888.7962	3569.35	2694.9
1015.6741	2889.923	3570.05	2693.1
1015.7903	2891.0493	3592.1	2715.2
1015.9065	2892.1748	3602.95	2724.6
1016.0226	2893.2997	3602.3	2721.4
1016.1387	2894.424	3635.15	2759.85
1016.2547	2895.5476	3639.15	2762.05
1016.3707	2896.6706	3652.2	2773.85
1016.4866	2897.7929	3687.8	2809.3
1016.6025	2898.9145	3709.65	2832.75
1016.7184	2900.0355	3730.25	2851.1
1016.8342	2901.1559	3761.65	2882.95
1016.95	2902.2756	3802	2918.1
1017.0658	2903.3946	3817.1	2939.9
1017.1815	2904.513	3859.3	2978.1
1017.2971	2905.6308	3883.55	3006.95
1017.4127	2906.7479	3918.05	3039.05
1017.5283	2907.8643	3943.45	3065.05
1017.6439	2908.9801	3942.25	3066.9
1017.7594	2910.0953	3955.3	3078
1017.8748	2911.2098	3944.1	3061.6
1017.9902	2912.3236	3931.1	3046.05
1018.1056	2913.4368	3901.6	3021.05
1018.2209	2914.5494	3889.2	3010.05
1018.3362	2915.6613	3854.4	2971.6
1018.4515	2916.7725	3798.1	2918
1018.5667	2917.8831	3774.2	2895.05
1018.6819	2918.9931	3743.8	2861.45
1018.797	2920.1024	3687.55	2808.9
1018.9121	2921.211	3674.45	2795.65
1019.0271	2922.319	3660.3	2781.9
1019.1421	2923.4264	3638.55	2761.35
1019.2571	2924.5331	3624.45	2748.1
1019.372	2925.6391	3614.35	2738.55
1019.4869	2926.7445	3624.2	2747.85
1019.6017	2927.8493	3640.35	2763.4
1019.7165	2928.9534	3644.25	2767.15
1019.8313	2930.0569	3651.35	2769.3
1019.946	2931.1597	3657.45	2778.35
1020.0606	2932.2619	3663.5	2782.9
1020.1753	2933.3634	3663.35	2786.5
1020.2899	2934.4643	3664	2780.25
1020.4044	2935.5645	3671.85	2790.3
1020.5189	2936.6641	3652.4	2772.75
1020.6334	2937.763	3637	2760
1020.7478	2938.8613	3604.6	2726.95
1020.8622	2939.959	3549.55	2666.9
1020.9765	2941.056	3511.55	2634.7
1021.0908	2942.1523	3423.9	2546.75
1021.2051	2943.248	3349.85	2471.95
1021.3193	2944.3431	3259.95	2383.45
1021.4334	2945.4375	3147.8	2269.45
1021.5476	2946.5313	3046.95	2170.1
1021.6617	2947.6244	2923.2	2047
1021.7757	2948.7169	2801.35	1922.9
1021.8897	2949.8087	2714.2	1836.05
1022.0037	2950.8999	2604.7	1726.75
1022.1176	2951.9904	2517.9	1640.5
1022.2315	2953.0803	2447.95	1571.05
1022.3453	2954.1696	2369.85	1492.25
1022.4591	2955.2582	2319.9	1441.95
1022.5728	2956.3462	2260	1381
1022.6865	2957.4335	2226.95	1349.25
1022.8002	2958.5202	2186.9	1307
1022.9138	2959.6062	2164.95	1285.85
1023.0274	2960.6916	2136.7	1257.9
1023.141	2961.7764	2113.1	1235.45
1023.2545	2962.8605	2097.45	1220.9
1023.3679	2963.9439	2087.25	1211.65
1023.4813	2965.0267	2079.35	1201
1023.5947	2966.1089	2094.55	1192.85
1023.708	2967.1905	2058.7	1183
1023.8213	2968.2714	2059.3	1183.3
1023.9346	2969.3516	2062.2	1183.4
1024.0478	2970.4312	2067.45	1181.55
1024.1609	2971.5102	2076.8	1200.55
1024.274	2972.5885	2075.95	1198.65
1024.3871	2973.6662	2087.15	1204.25
1024.5002	2974.7432	2092.55	1216.55
1024.6132	2975.8196	2077.3	1198.15
1024.7261	2976.8954	2072.1	1195.8
1024.839	2977.9705	2065.85	1188.75
1024.9519	2979.045	2066.65	1189.95
1025.0647	2980.1188	2045.5	1167.8
1025.1775	2981.192	2035.8	1158.3
1025.2902	2982.2645	2014.95	1137.55
1025.4029	2983.3364	1987.2	1108.55
1025.5156	2984.4077	1958.2	1081.05
1025.6282	2985.4783	1942.45	1058.55
1025.7407	2986.5483	1895.75	1019.05
1025.8532	2987.6177	1866.75	990.4
1025.9657	2988.6864	1821.3	942.5
1026.0782	2989.7545	1795	916.95
1026.1906	2990.8219	1733.25	857.9
1026.3029	2991.8887	1714.5	836.25
1026.4152	2992.9548	1675.05	796.65
1026.5275	2994.0204	1633.1	755.75
1026.6397	2995.0852	1602.9	727.3
1026.7519	2996.1495	1578.45	700.6
1026.864	2997.2131	1545.3	668.35
1026.9761	2998.276	1508.1	630.35
1027.0882	2999.3383	1491.35	612
1027.2002	3000.4	1459.3	581.05
1027.3122	3001.4611	1442.8	566.1
1027.4241	3002.5215	1415.95	539.85
1027.536	3003.5812	1398	520.55
1027.6478	3004.6404	1384.7	506.85
1027.7596	3005.6989	1366.05	486.6
1027.8714	3006.7567	1352.8	475.65
1027.9831	3007.8139	1365.65	460
1028.0947	3008.8705	1317.8	437.45
1028.2064	3009.9264	1319.55	439.35
1028.3179	3010.9818	1306.3	428.9
1028.4295	3012.0364	1300.4	422.05
1028.541	3013.0905	1288.95	412.1
1028.6524	3014.1439	1282.9	407.05
1028.7638	3015.1966	1274.35	398.25
1028.8752	3016.2487	1269.1	390.5
1028.9865	3017.3002	1266.3	385.6
1029.0978	3018.3511	1254.7	379.65
1029.209	3019.4013	1256.25	379.6
1029.3202	3020.4509	1253.15	377.85
1029.4314	3021.4998	1249.85	372.3
1029.5425	3022.5481	1245.9	370.1
1029.6535	3023.5958	1249.25	371.4
1029.7645	3024.6428	1249.05	371.6
1029.8755	3025.6892	1244.5	368
1029.9864	3026.735	1244.8	365.55
1030.0973	3027.7802	1240.2	362.1
1030.2082	3028.8247	1241.15	365.1
1030.319	3029.8685	1241.6	364.5
1030.4297	3030.9118	1247.8	369.25
1030.5404	3031.9544	1244.4	369.55
1030.6511	3032.9963	1244.35	365.8
1030.7617	3034.0376	1246.25	369.45
1030.8723	3035.0783	1249.65	369.05
1030.9829	3036.1184	1252.45	373.5
1031.0934	3037.1578	1258.65	381.9
1031.2038	3038.1966	1255.85	377.7
1031.3142	3039.2348	1257.2	380.65
1031.4246	3040.2723	1271.95	387.45
1031.5349	3041.3092	1263.25	388.15
1031.6452	3042.3455	1260.05	385.6
1031.7554	3043.3811	1264.65	384.65
1031.8656	3044.4161	1256.35	379
1031.9758	3045.4505	1254.1	378.7
1032.0859	3046.4842	1256.15	377.45
1032.1959	3047.5173	1247.6	370.2
1032.3059	3048.5498	1251.15	372.85
1032.4159	3049.5816	1251.65	375.65
1032.5258	3050.6128	1248.2	369.05
1032.6357	3051.6434	1249.45	368.65
1032.7455	3052.6734	1244.15	366.9
1032.8553	3053.7027	1245.75	369.15
1032.9651	3054.7314	1243.2	365.25
1033.0748	3055.7594	1245.25	368.4
1033.1845	3056.7868	1241.3	362.45
1033.2941	3057.8136	1235.55	359.35
1033.4037	3058.8398	1237.45	361.45
1033.5132	3059.8653	1238.05	363.75
1033.6227	3060.8902	1231.95	355.35
1033.7321	3061.9145	1236.8	357.95
1033.8415	3062.9381	1228.9	351.45
1033.9509	3063.9612	1244.35	350.2
1034.0602	3064.9835	1228.85	352.25
1034.1694	3066.0053	1230.35	350.45
1034.2787	3067.0264	1221.15	342.4
1034.3878	3068.0469	1224.3	346.65
1034.497	3069.0668	1220.85	341
1034.6061	3070.086	1207.25	331.65
1034.7151	3071.1046	1208.15	328.75
1034.8241	3072.1226	1203.6	324.05
1034.9331	3073.1399	1192.3	314.55
1035.042	3074.1567	1186.4	307.9
1035.1508	3075.1727	1186.75	309.45
1035.2597	3076.1882	1172.45	295.45
1035.3684	3077.203	1166.2	287.7
1035.4772	3078.2173	1158.55	279.4
1035.5859	3079.2308	1156.1	276.25
1035.6945	3080.2438	1153.2	271.55
1035.8031	3081.2561	1138.55	259.2
1035.9117	3082.2678	1137.2	258.9
1036.0202	3083.2789	1127.35	249.25
1036.1286	3084.2893	1122.55	245.5
1036.2371	3085.2991	1117.95	240.15
1036.3454	3086.3083	1110.45	227.3
1036.4538	3087.3169	1108.8	229.55
1036.562	3088.3248	1101.45	222.15
1036.6703	3089.3321	1096.6	217.85
1036.7785	3090.3388	1091.4	214.75
1036.8866	3091.3449	1090.7	213
1036.9948	3092.3503	1083.8	205.2
1037.1028	3093.3551	1077.65	202.65
1037.2108	3094.3593	1074.7	198.45
1037.3188	3095.3629	1073.85	197.8
1037.4267	3096.3658	1071.4	193.1
1037.5346	3097.3681	1069.45	192.6
1037.6425	3098.3698	1068.65	189.3
1037.7503	3099.3708	1069.75	186.2
1037.858	3100.3713	1057.5	180.05
1037.9657	3101.3711	1053.5	176.7
1038.0734	3102.3702	1190.35	177.5
1038.181	3103.3688	1053.15	174.6
1038.2886	3104.3667	1046.15	170
1038.3961	3105.364	1043	166.35
1038.5036	3106.3607	1043	162.5
1038.611	3107.3568	1040.6	160.25
1038.7184	3108.3522	1036.35	159.8
1038.8257	3109.347	1035.5	157.45
1038.933	3110.3412	1039.5	158.95
1039.0403	3111.3348	1033.65	158
1039.1475	3112.3277	1031.2	155.05
1039.2547	3113.32	1029.55	154
1039.3618	3114.3117	1025.5	149.1
1039.4689	3115.3028	1023.45	145.85
1039.5759	3116.2932	1022.1	140.75
1039.6829	3117.2831	1027.5	146.6
1039.7898	3118.2723	1016.4	140.45
1039.8967	3119.2608	1014.2	138.1
1040.0035	3120.2488	1015	137.1
1040.1103	3121.2361	1015.05	136.35
1040.2171	3122.2229	1007.1	129.9
1040.3238	3123.209	1009.75	132.5
1040.4305	3124.1944	1003.9	127.2
1040.5371	3125.1793	1010.65	131.8
1040.6437	3126.1635	1002.25	126.65
1040.7502	3127.1471	1003.35	125.6
1040.8567	3128.1301	999.75	123.6
1040.9631	3129.1125	999.65	122.45
1041.0695	3130.0942	995.1	117.1
1041.1759	3131.0753	1006.3	120.65
1041.2822	3132.0558	1000.15	121.6
1041.3884	3133.0357	997.1	118.55
1041.4946	3134.015	994.1	118
1041.6008	3134.9936	992.5	113.95
1041.7069	3135.9716	1013.4	117.05
1041.813	3136.949	988.85	111
1041.919	3137.9258	1007.75	112.05
1042.025	3138.902	994.5	111.85
1042.1309	3139.8775	988.95	113.85
1042.2368	3140.8524	986.2	108.15
1042.3427	3141.8267	986.8	108.35
1042.4485	3142.8004	984.65	109.6
1042.5542	3143.7735	993.1	109.4
1042.6599	3144.7459	989.7	112.65
1042.7656	3145.7178	982.8	105
1042.8712	3146.689	978.05	103.4
1042.9768	3147.6596	979.75	101.95
1043.0823	3148.6295	979.6	100.3
1043.1878	3149.5989	977.8	99.4
1043.2932	3150.5676	979.8	104.5
1043.3986	3151.5357	973.2	96.85
1043.5039	3152.5032	972.5	94.6
1043.6092	3153.4701	974.45	98.75
1043.7145	3154.4364	978.25	98.05
1043.8197	3155.402	975.4	100.45
1043.9248	3156.367	971.05	92.75
1044.03	3157.3315	1008	95.95
1044.135	3158.2952	971.45	94.8
1044.24	3159.2584	967.1	88.95
1044.345	3160.221	970.2	93.35
1044.4499	3161.1829	969.25	91.35
1044.5548	3162.1442	967.15	90.1
1044.6596	3163.105	969	93.65
1044.7644	3164.065	966.3	87.75
1044.8692	3165.0245	969.65	90.4
1044.9739	3165.9834	966.7	91.2
1045.0785	3166.9416	966.05	89.35
1045.1831	3167.8993	967.45	89.15
1045.2877	3168.8563	967.8	89.85
1045.3922	3169.8127	967.9	89.7
1045.4966	3170.7684	958.85	83.4
1045.6011	3171.7236	960.55	82.35
1045.7054	3172.6782	961.6	83.35
1045.8098	3173.6321	964.9	86.7
1045.914	3174.5854	965.4	84.15
1046.0183	3175.5381	961.65	84.2
1046.1224	3176.4902	960.2	83.9
1046.2266	3177.4417	955.7	79.3
1046.3307	3178.3926	957.8	80.8
1046.4347	3179.3428	958.85	83.5
1046.5387	3180.2924	957.5	81.55
1046.6427	3181.2415	954.1	78.65
1046.7466	3182.1899	959.95	80.4
1046.8504	3183.1377	955.9	79.2
1046.9542	3184.0848	958.4	78
1047.058	3185.0314	956.2	78.3
1047.1617	3185.9773	955.8	79.45
1047.2654	3186.9227	953.25	75.5
1047.369	3187.8674	950.55	71.5
1047.4726	3188.8115	952.95	72.3
1047.5761	3189.755	949.9	74.45
1047.6796	3190.6979	950.6	74.5
1047.783	3191.6402	946.95	73.15
1047.8864	3192.5818	945.35	71.05
1047.9898	3193.5229	954.3	69.9
1048.0931	3194.4633	951.05	76.6
1048.1963	3195.4031	947.65	70.55
1048.2995	3196.3423	946.95	69.55
1048.4027	3197.2809	946.25	67.95
1048.5058	3198.2189	946.3	68.45
1048.6089	3199.1563	964.55	72.85
1048.7119	3200.0931	942.1	66.65
1048.8148	3201.0292	944.85	71.05
1048.9178	3201.9648	944.5	67.8
1049.0206	3202.8997	947.85	67.55
1049.1235	3203.834	945.4	68.1
1049.2262	3204.7677	944.95	67.45
1049.329	3205.7008	944	65.85
1049.4317	3206.6333	942.25	68.6
1049.5343	3207.5652	943.05	64.5
1049.6369	3208.4964	941.4	65.25
1049.7394	3209.4271	941.45	64.65
1049.8419	3210.3571	941.95	64.45
1049.9444	3211.2865	942.9	66.95
1050.0468	3212.2154	938.9	60.3
1050.1491	3213.1436	943.15	61.95
1050.2514	3214.0712	943.3	59.7
1050.3537	3214.9982	940.95	64.45
1050.4559	3215.9246	940.1	63.4
1050.5581	3216.8503	935.45	58.85
1050.6602	3217.7755	939.65	61.5
1050.7623	3218.7001	938.7	63.3
1050.8643	3219.624	935.2	59
1050.9663	3220.5473	936.85	58.95
1051.0682	3221.4701	937	58.1
1051.1701	3222.3922	940.25	61.55
1051.2719	3223.3137	932.4	56.15
1051.3737	3224.2346	935.1	58.95
1051.4754	3225.1549	934.05	56.6
1051.5771	3226.0746	932.35	55.55
1051.6788	3226.9937	936.2	60.1
1051.7804	3227.9121	935.25	58.65
1051.8819	3228.83	933.95	55.2
1051.9834	3229.7473	933.95	58.9
1052.0849	3230.6639	934.15	55.15
1052.1863	3231.5799	932.05	56.85
1052.2876	3232.4954	932.4	53.65
1052.3889	3233.4102	930.05	53.55
1052.4902	3234.3244	931.9	54.15
1052.5914	3235.238	929.95	51.45
1052.6926	3236.151	954.25	53.3
1052.7937	3237.0634	930.75	56.1
1052.8948	3237.9752	929.6	52.35
1052.9958	3238.8864	930	53.95
1053.0968	3239.797	927.8	50.55
1053.1977	3240.7069	930.35	53.25
1053.2986	3241.6163	930.5	52.95
1053.3994	3242.5251	928.55	51.95
1053.5002	3243.4332	926.25	51.15
1053.6009	3244.3408	928.15	49.9
1053.7016	3245.2477	923.35	46.9
1053.8022	3246.154	923.8	46.7
1053.9028	3247.0598	925.95	46.3
1054.0034	3247.9649	926.65	50.85
1054.1039	3248.8694	926.35	48.7
1054.2043	3249.7733	923.55	47.1
1054.3047	3250.6766	925	48.3
1054.4051	3251.5793	924.85	48.7
1054.5054	3252.4814	925	49.9
1054.6056	3253.3829	922.15	46.4
1054.7058	3254.2838	921.85	46.8
1054.806	3255.1841	919.7	44.3
1054.9061	3256.0838	919.95	45.45
1055.0061	3256.9829	919.8	44.25
1055.1062	3257.8814	924.35	47.05
1055.2061	3258.7792	923.85	45.15
1055.306	3259.6765	920.7	43.15
1055.4059	3260.5731	916.35	39.45
1055.5057	3261.4692	921	43.8
1055.6055	3262.3647	918.05	42.35
1055.7052	3263.2595	915.15	40.3
1055.8049	3264.1538	914.45	38.6
1055.9045	3265.0474	915.85	37.6
1056.0041	3265.9404	915.4	39.5
1056.1036	3266.8329	913.35	37.6
1056.2031	3267.7247	924.2	38.55
1056.3025	3268.616	910.95	36
1056.4019	3269.5066	911.15	34.3
1056.5013	3270.3966	911.6	33.05
1056.6005	3271.286	907.6	32.7
