Software Version:	3.9.2.0
Unit SN:	10000200
Spectrometer SN:	6960
Date:	3/8/2024 1:38:20 PM
Data Line Index:	25
Spectral Points:	2048
Integration time (ms):	125
Averages:	20
Delay (ms):	30000
Sequence Number:	1
Processing:	dark subtract
Laser Power (mW):	300
Laser Current (mA):	822
Laser Diode Temp (C):	25
Laser Case Temp (C):	26.3
System Temp (C):	26.2
Spectrometer Temp (C):	24.1
CCD Temp (C):	0.007
Secondary Temp (C):	20.011
Heatsink Temp (C):	20.474
CCDPCB Temp (C):	36.296
SecondaryPCB Temp (C):	30.149

Wavelength	RamanShift	Raw Counts	Dark Subtracted
787.061	30.1047	460.6	53.6
787.2016	32.3739	463	55.9
787.3422	34.6426	467.2	59.9
787.4828	36.9109	473.3	64.55
787.6235	39.1787	481.6	69.45
787.7642	41.4461	491.15	74.8
787.9049	43.7131	497.7	77.95
788.0456	45.9796	511.15	88.65
788.1863	48.2456	515.6	87.65
788.3271	50.5112	531.25	99.5
788.4679	52.7764	537.45	102.35
788.6087	55.0411	547.75	108.45
788.7496	57.3054	564.3	119.45
788.8904	59.5692	571.65	126.5
789.0313	61.8326	580.4	132.4
789.1722	64.0955	596.3	143.95
789.3132	66.3579	611.1	154.45
789.4541	68.6199	629.3	168.1
789.5951	70.8815	665.8	201.2
789.7361	73.1426	751.1	279.9
789.8771	75.4032	960.4	486.5
790.0181	77.6634	1481.45	1003.2
790.1592	79.9231	2701.8	2214.4
790.3003	82.1824	5340.8	4835.35
790.4414	84.4412	10120.85	9582.9
790.5825	86.6995	16719.95	16141.5
790.7237	88.9574	23141.35	22528.45
790.8648	91.2148	27582.2	26947.05
791.006	93.4717	29657.2	29006.7
791.1472	95.7282	30092.7	29433
791.2885	97.9842	30010.2	29350.25
791.4297	100.2398	29499.65	28838.25
791.571	102.4949	28823.2	28156.15
791.7123	104.7495	28067.85	27401.1
791.8536	107.0036	27266.8	26596.7
791.9949	109.2573	26524.65	25856.4
792.1363	111.5105	25850.4	25181.9
792.2777	113.7632	25084.9	24413.05
792.4191	116.0154	24515.5	23830.85
792.5605	118.2672	24089.95	23409.95
792.7019	120.5185	23627	22945.7
792.8434	122.7693	23278	22594.7
792.9849	125.0197	22998.2	22312.1
793.1264	127.2696	22694.25	22007.05
793.2679	129.519	22563.65	21869.75
793.4094	131.7679	22381.6	21682.45
793.551	134.0163	22171.9	21471.9
793.6926	136.2642	22007.85	21305
793.8342	138.5117	21766.65	21061.5
793.9758	140.7587	21502.2	20794.7
794.1175	143.0052	21298.7	20589.5
794.2591	145.2512	21051.85	20342.9
794.4008	147.4967	20819.6	20108.25
794.5425	149.7417	20697.05	19983.6
794.6842	151.9863	20533.75	19811.2
794.826	154.2304	20476.9	19752.25
794.9677	156.4739	20350.4	19620.75
795.1095	158.717	20269.65	19540.45
795.2513	160.9596	20117.85	19383
795.3931	163.2017	19880	19141.6
795.535	165.4433	19595.05	18857.55
795.6768	167.6844	19274.6	18533.45
795.8187	169.925	18965.25	18223.6
795.9606	172.1651	18598.6	17856.2
796.1025	174.4047	18333.45	17590.2
796.2445	176.6439	18111	17367.2
796.3864	178.8825	17848	17098.55
796.5284	181.1206	17702.1	16944.5
796.6704	183.3582	17546.2	16783.75
796.8124	185.5954	17469.85	16705.1
796.9544	187.832	17389.35	16623.25
797.0965	190.0681	17382.65	16613.2
797.2386	192.3037	17385.2	16614.85
797.3806	194.5388	17364.15	16588.5
797.5228	196.7734	17407.35	16630.25
797.6649	199.0075	17488.75	16709
797.807	201.2411	17640.35	16863.8
797.9492	203.4742	17715.5	16936.05
798.0914	205.7068	17906.1	17117.75
798.2336	207.9389	17998.4	17209.25
798.3758	210.1704	18163.2	17383.25
798.518	212.4015	18273.4	17506.35
798.6603	214.632	18458.65	17696.6
798.8025	216.862	18635.85	17870.75
798.9448	219.0915	18794.85	18031.7
799.0871	221.3205	19036.75	18265.1
799.2294	223.549	19253.25	18490.3
799.3718	225.777	19559.45	18797.05
799.5141	228.0044	19885.55	19114.3
799.6565	230.2314	20295.5	19521.8
799.7989	232.4578	20690	19918.2
799.9413	234.6837	21024.15	20245.25
800.0837	236.909	21279.45	20495.7
800.2262	239.1339	21226.25	20412.25
800.3687	241.3582	21071.2	20272.35
800.5111	243.582	20787.9	19961.1
800.6536	245.8053	20477.35	19666.1
800.7961	248.0281	20184.45	19377.8
800.9387	250.2503	19999.9	19185.3
801.0812	252.472	19862.7	19048.1
801.2238	254.6932	19861.05	19049.75
801.3664	256.9139	19803.05	18992.65
801.509	259.134	19844.5	19025.15
801.6516	261.3536	19921.35	19103.35
801.7942	263.5727	19977.65	19159
801.9369	265.7912	19968.95	19151.25
802.0795	268.0092	20069.25	19257.15
802.2222	270.2267	20044.05	19229.4
802.3649	272.4436	20068.4	19253.2
802.5076	274.6601	20003.35	19170.65
802.6504	276.8759	19938.1	19111.6
802.7931	279.0913	19911.35	19086.6
802.9359	281.3061	19858.75	19034.4
803.0787	283.5204	19888.25	19058.85
803.2215	285.7341	19970.65	19139.95
803.3643	287.9473	20120.6	19277.2
803.5071	290.16	20340.95	19503.4
803.6499	292.3721	20628.7	19793.75
803.7928	294.5837	21021.35	20190.1
803.9357	296.7947	21336.45	20504.8
804.0786	299.0052	21566.35	20734.2
804.2215	301.2152	21449.65	20614.35
804.3644	303.4246	21164.65	20333.4
804.5074	305.6334	20607.15	19777.1
804.6503	307.8418	20127.25	19296
804.7933	310.0495	19721.7	18886.85
804.9363	312.2568	19385.3	18547.6
805.0793	314.4635	19142.45	18301.9
805.2223	316.6696	19048.95	18205.25
805.3653	318.8752	18939.25	18085.1
805.5084	321.0802	19030.05	18182.95
805.6514	323.2847	19120.1	18276.05
805.7945	325.4887	19137.1	18291.1
805.9376	327.692	19097.7	18248.35
806.0807	329.8949	19015.3	18164
806.2238	332.0972	18776.7	17926.9
806.367	334.2989	18546.4	17694.65
806.5101	336.5001	18251.85	17398.2
806.6533	338.7007	18035.2	17183.05
806.7965	340.9008	17952.1	17095.35
806.9397	343.1003	17834.75	16978.45
807.0829	345.2992	17783.5	16928.4
807.2261	347.4976	17733.15	16879.25
807.3693	349.6955	17742.65	16879.85
807.5126	351.8927	17815	16952.55
807.6559	354.0895	17809.3	16935.9
807.7991	356.2856	17852.35	16984.8
807.9424	358.4812	17820.45	16956.1
808.0857	360.6763	17896.1	17028.55
808.2291	362.8707	17868.3	16997.55
808.3724	365.0646	17880.65	17007.7
808.5158	367.258	17900.25	17029.1
808.6591	369.4508	17949.25	17077.1
808.8025	371.643	18062.4	17186.2
808.9459	373.8346	18037.35	17160.8
809.0893	376.0257	18029.95	17153.55
809.2327	378.2162	17980.6	17101.25
809.3762	380.4062	17914.3	17037
809.5196	382.5956	17804.05	16931.25
809.6631	384.7844	17683.15	16816
809.8066	386.9726	17574.15	16705.75
809.9501	389.1603	17507.75	16640.6
810.0936	391.3474	17491.4	16589.75
810.2371	393.5339	17506.55	16633.75
810.3806	395.7199	17454.3	16586.7
810.5241	397.9052	17456	16587.25
810.6677	400.09	17483.6	16613.4
810.8113	402.2743	17577.65	16705.75
810.9548	404.4579	17672.1	16802.3
811.0984	406.641	17872.65	17003.1
811.2421	408.8235	18058.7	17187.9
811.3857	411.0054	18373.1	17498.25
811.5293	413.1868	18774.75	17895.45
811.673	415.3675	19046.25	18161.15
811.8166	417.5477	19272.8	18385.55
811.9603	419.7273	19306.9	18423.7
812.104	421.9064	19193.05	18303.6
812.2477	424.0848	19058.6	18174.15
812.3914	426.2627	18867.65	17984.85
812.5351	428.4399	18590.75	17706.2
812.6788	430.6166	18226.4	17339.3
812.8226	432.7928	17847	16956.1
812.9663	434.9683	17551.6	16662.9
813.1101	437.1432	17325.95	16440.1
813.2539	439.3176	17178.9	16300.1
813.3977	441.4914	17054.95	16174.1
813.5415	443.6645	17044.5	16164.9
813.6853	445.8371	16998.05	16111.15
813.8291	448.0091	16939.1	16051.9
813.973	450.1806	16911.95	16026.4
814.1168	452.3514	16851.15	15967.8
814.2607	454.5216	16887.9	15992.2
814.4046	456.6913	16807	15919.05
814.5485	458.8603	16845.95	15965.35
814.6924	461.0288	16897.6	16013.25
814.8363	463.1967	16919.85	16042.95
814.9802	465.3639	17017.5	16135.6
815.1241	467.5306	17119.35	16233.05
815.2681	469.6967	17245.95	16360
815.412	471.8622	17401.05	16522.65
815.556	474.0271	17542.45	16658.05
815.7	476.1914	17580	16689.25
815.844	478.3551	17584.9	16697.5
815.988	480.5182	17623.4	16736.75
816.132	482.6807	17629.45	16748.9
816.276	484.8426	17762.05	16893.25
816.4201	487.0039	18034.9	17158.6
816.5641	489.1647	18462.05	17577.45
816.7082	491.3248	18864.05	17975.75
816.8522	493.4843	19037.25	18153.75
816.9963	495.6432	19027.95	18141.9
817.1404	497.8015	18939	18043.45
817.2845	499.9592	18974.2	18070.55
817.4286	502.1163	18885.3	17987.65
817.5727	504.2728	18635.1	17739.5
817.7168	506.4287	18318.3	17438.15
817.861	508.5839	17915.75	17036.15
818.0051	510.7386	17599.15	16712.95
818.1493	512.8927	17485.05	16589.5
818.2935	515.0461	17360.05	16463.35
818.4377	517.199	17367	16472.95
818.5818	519.3512	17403.4	16506.85
818.726	521.5029	17513.85	16613.2
818.8703	523.6539	17620.7	16724.45
819.0145	525.8043	17626.05	16728.85
819.1587	527.9541	17655.8	16754.85
819.303	530.1033	17642.65	16746.35
819.4472	532.2519	17617.9	16723.2
819.5915	534.3999	17736.45	16836.4
819.7357	536.5472	17999.95	17101.75
819.88	538.694	18442.05	17547.1
820.0243	540.8401	18969.5	18069.8
820.1686	542.9856	19420.25	18510.85
820.3129	545.1305	19599.65	18686.1
820.4572	547.2748	19471.9	18556.6
820.6016	549.4185	19105.9	18186.85
820.7459	551.5615	18822.65	17907.05
820.8902	553.704	18694.5	17780.25
821.0346	555.8458	18662.35	17752.45
821.1789	557.987	18698.4	17790.1
821.3233	560.1276	18738	17828.15
821.4677	562.2675	18869.55	17959
821.6121	564.4069	18947.75	18038.6
821.7565	566.5456	19001.9	18098.8
821.9009	568.6837	18964.8	18060.95
822.0453	570.8212	18671.7	17766.45
822.1897	572.958	18289.15	17381.85
822.3342	575.0942	17947.6	17042.45
822.4786	577.2299	17735	16836.65
822.6231	579.3648	17673.2	16787.6
822.7675	581.4992	17667.35	16788.55
822.912	583.6329	17904.6	17026.6
823.0565	585.766	18132.95	17249
823.201	587.8985	18267	17379.2
823.3454	590.0304	18272.9	17348.35
823.4899	592.1616	18184.75	17272.35
823.6345	594.2922	18096.4	17180.55
823.779	596.4222	17948.95	17031
823.9235	598.5515	17790.45	16875.85
824.068	600.6802	17627.55	16713.15
824.2126	602.8083	17411.45	16498.6
824.3571	604.9358	17415	16505.25
824.5017	607.0626	17343.65	16426.5
824.6462	609.1888	17338	16416.6
824.7908	611.3144	17326.25	16404.05
824.9354	613.4393	17279.3	16353.85
825.08	615.5636	17194.25	16270.85
825.2246	617.6873	17133	16215.35
825.3692	619.8103	17096.25	16175.35
825.5138	621.9327	16971.95	16055
825.6584	624.0544	16917.1	16005.2
825.803	626.1756	16876.95	15963.2
825.9477	628.2961	16804.45	15884.9
826.0923	630.4159	16789.35	15870.1
826.237	632.5351	16738.15	15819.95
826.3816	634.6537	16704.95	15777.4
826.5263	636.7716	16698.4	15774.3
826.6709	638.8889	16710.25	15781.75
826.8156	641.0056	16749.1	15821.8
826.9603	643.1216	16734.1	15806.1
827.105	645.237	16730.15	15805.1
827.2497	647.3518	16723.25	15810.3
827.3944	649.4659	16785.8	15877.7
827.5391	651.5793	16732.45	15821.65
827.6838	653.6922	16722	15808.75
827.8285	655.8043	16705.65	15786.85
827.9733	657.9159	16714	15794.15
828.118	660.0268	16680.5	15761.4
828.2627	662.137	16635.55	15716.45
828.4075	664.2466	16620.25	15694.35
828.5522	666.3556	16597.2	15673
828.697	668.4639	16551.5	15631.2
828.8418	670.5716	16619.9	15705.25
828.9865	672.6786	16689.2	15768.7
829.1313	674.785	16710.8	15782.75
829.2761	676.8907	16795.95	15876.25
829.4209	678.9958	16858.4	15938
829.5657	681.1002	16817.6	15893.45
829.7105	683.204	16841.9	15908.35
829.8553	685.3072	16810.4	15881.75
830.0001	687.4097	16745.2	15820.45
830.1449	689.5115	16724.25	15792.35
830.2898	691.6127	16667.6	15746.2
830.4346	693.7132	16589.8	15669.95
830.5794	695.8131	16568.1	15631.7
830.7243	697.9123	16604.8	15672.2
830.8691	700.0109	16566.55	15634.4
831.014	702.1089	16578.2	15648.8
831.1588	704.2061	16561.35	15635.25
831.3037	706.3028	16596	15664.8
831.4486	708.3987	16656.2	15725
831.5935	710.4941	16737.4	15807.6
831.7383	712.5887	16896.4	15966.65
831.8832	714.6827	17184.95	16253.35
832.0281	716.7761	17481.35	16556.25
832.173	718.8688	17801.65	16875.35
832.3179	720.9608	17990.05	17054.2
832.4628	723.0522	18070.15	17129.85
832.6077	725.1429	17942.25	17006.55
832.7527	727.233	17746.25	16815.6
832.8976	729.3224	17555.35	16622.2
833.0425	731.4112	17312	16380.35
833.1874	733.4993	17085.2	16150.05
833.3324	735.5867	16963.7	16032.55
833.4773	737.6735	16838.9	15905.5
833.6222	739.7596	16750.5	15817.35
833.7672	741.845	16676.2	15745.3
833.9122	743.9298	16650.5	15718.95
834.0571	746.014	16662.45	15729.2
834.2021	748.0974	16704.05	15763.25
834.347	750.1802	16663.55	15725.55
834.492	752.2624	16702.35	15766
834.637	754.3439	16739.4	15799.65
834.782	756.4247	16819.65	15870.15
834.9269	758.5048	16919.85	15981.3
835.0719	760.5843	17167.35	16225.5
835.2169	762.6631	17508.95	16567.9
835.3619	764.7413	17987.6	17046.6
835.5069	766.8188	18522.15	17583.6
835.6519	768.8956	19033.1	18096.9
835.7969	770.9718	19351.8	18415.85
835.9419	773.0473	19211.9	18273.55
836.0869	775.1221	18919.6	17980.75
836.232	777.1962	18551.85	17614.35
836.377	779.2697	18388.95	17446.7
836.522	781.3426	18436.6	17478.75
836.667	783.4147	18645.1	17707.1
836.8121	785.4862	18914.65	17976
836.9571	787.557	18920.35	17980.3
837.1021	789.6271	18566	17622.45
837.2472	791.6966	18009.8	17068.5
837.3922	793.7654	17479.5	16537.45
837.5373	795.8335	17153.25	16217.9
837.6823	797.901	16942.6	16002.75
837.8274	799.9678	16868.2	15924.2
837.9724	802.0339	16874	15931.25
838.1175	804.0993	16927.75	15975.3
838.2626	806.1641	16902.7	15959.1
838.4076	808.2282	16822.85	15881.25
838.5527	810.2916	16758.5	15816.25
838.6978	812.3544	16651	15713.15
838.8428	814.4164	16561.35	15620.8
838.9879	816.4778	16620.35	15676.15
839.133	818.5385	16618.8	15674.5
839.2781	820.5986	16714.35	15768.65
839.4232	822.658	16879.3	15933.4
839.5682	824.7166	16984.85	16044.75
839.7133	826.7747	17279.2	16334.2
839.8584	828.832	17551.75	16603.2
840.0035	830.8886	17685.8	16740
840.1486	832.9446	17845.05	16899.55
840.2937	834.9999	17838.85	16897
840.4388	837.0545	17839.2	16893.3
840.5839	839.1085	17756.95	16812.6
840.729	841.1618	17692.2	16743.45
840.8741	843.2143	17644.2	16700
841.0192	845.2662	17485.25	16540.25
841.1643	847.3175	17435.4	16492.15
841.3095	849.368	17319.95	16378.7
841.4546	851.4179	17238.05	16291.65
841.5997	853.467	17082.45	16140.55
841.7448	855.5155	16961.05	16017.3
841.8899	857.5633	16871.95	15920.6
842.0351	859.6105	16817	15869.45
842.1802	861.6569	16750.6	15803.65
842.3253	863.7027	16689.75	15741.05
842.4704	865.7478	16662.2	15714.45
842.6156	867.7922	16708.7	15760.4
842.7607	869.8359	16724.1	15777.3
842.9058	871.8789	16822.55	15874.85
843.0509	873.9212	16977.75	15998.9
843.1961	875.9629	17148.75	16203.05
843.3412	878.0039	17315.1	16367.55
843.4863	880.0441	17417.3	16473.8
843.6315	882.0837	17432.05	16486.65
843.7766	884.1226	17360.3	16410.85
843.9218	886.1609	17292.55	16346.25
844.0669	888.1984	17230.2	16283.85
844.212	890.2352	17312.55	16364.7
844.3572	892.2714	17248.85	16295.1
844.5023	894.3069	17240.1	16289.65
844.6475	896.3416	17133.1	16185.65
844.7926	898.3757	17130.4	16181.5
844.9377	900.4091	17082.15	16131.35
845.0829	902.4418	17096.65	16142.75
845.228	904.4739	17108.2	16154.15
845.3732	906.5052	17130.75	16179.3
845.5183	908.5358	17045.9	16094.05
845.6635	910.5658	16908.15	15956.85
845.8086	912.595	16710.35	15757.85
845.9538	914.6236	16551.15	15597.85
846.0989	916.6515	16512.15	15561.65
846.2441	918.6786	16489.1	15537.55
846.3892	920.7051	16577.45	15623.05
846.5344	922.7309	16675	15722.7
846.6795	924.756	16710.35	15760.2
846.8246	926.7804	16826.95	15876.25
846.9698	928.8041	16734.6	15779.8
847.1149	930.8272	16830.15	15880.7
847.2601	932.8495	16739.1	15789
847.4052	934.8711	16706.15	15755.6
847.5504	936.892	16569.45	15616.15
847.6955	938.9123	16441.8	15489.95
847.8407	940.9318	16315.55	15366.25
847.9858	942.9506	16253.35	15299
848.131	944.9688	16150.8	15202.8
848.2761	946.9862	16101.25	15147.5
848.4213	949.003	16031.8	15081.1
848.5664	951.019	16013.85	15062.4
848.7115	953.0344	16020.1	15072.05
848.8567	955.0491	16031.7	15081.3
849.0018	957.063	16152.45	15203.15
849.147	959.0763	16247.25	15296
849.2921	961.0888	16311.85	15358.6
849.4373	963.1007	16402.65	15456.1
849.5824	965.1119	16404.85	15461.95
849.7275	967.1223	16473.2	15542.6
849.8727	969.1321	16450	15513.2
850.0178	971.1412	16491.4	15546.65
850.1629	973.1495	16519.2	15572.7
850.3081	975.1572	16571.6	15569.65
850.4532	977.1641	16590.95	15638.9
850.5983	979.1704	16541.25	15586.85
850.7435	981.1759	16578.85	15624.15
850.8886	983.1808	16617.7	15664.1
851.0337	985.1849	16700.25	15738.75
851.1788	987.1884	16823.2	15872.55
851.324	989.1911	16957.95	16002.7
851.4691	991.1932	17091.05	16140.2
851.6142	993.1945	17114.15	16165.9
851.7593	995.1951	17072.15	16120.1
851.9045	997.1951	17037.3	16079.05
852.0496	999.1943	16975	16022.65
852.1947	1001.1928	16930.55	15979.6
852.3398	1003.1906	16939.4	15988.15
852.4849	1005.1877	16991.5	16042.25
852.63	1007.1841	16998.65	16050.2
852.7751	1009.1798	16946.1	15996.95
852.9202	1011.1748	16768.75	15817.7
853.0653	1013.1691	16562.8	15612.2
853.2104	1015.1627	16338.55	15391.75
853.3555	1017.1556	16138.2	15193.55
853.5006	1019.1477	16057.2	15113.8
853.6457	1021.1392	15937.45	14995.1
853.7908	1023.1299	15916.95	14977.5
853.9359	1025.12	15937.35	15003
854.081	1027.1093	15950.15	15030.4
854.2261	1029.0979	16025.85	15106.2
854.3712	1031.0859	16108.95	15184.9
854.5163	1033.0731	16092.9	15159.5
854.6613	1035.0596	16072.9	15134.6
854.8064	1037.0454	15921.9	14981.7
854.9515	1039.0304	15806.8	14860.3
855.0965	1041.0148	15696.85	14751.3
855.2416	1042.9985	15622.45	14671.75
855.3867	1044.9814	15579.7	14633.5
855.5317	1046.9636	15506.35	14558.5
855.6768	1048.9452	15480.4	14533.4
855.8219	1050.926	15533.05	14584.95
855.9669	1052.9061	15497.35	14551.2
856.112	1054.8855	15473.25	14528
856.257	1056.8642	15545.65	14597.35
856.4021	1058.8421	15629.35	14674.85
856.5471	1060.8194	15635.45	14686.25
856.6921	1062.7959	15645.6	14698.55
856.8372	1064.7717	15708.5	14755.55
856.9822	1066.7469	15713.95	14761.5
857.1272	1068.7213	15761.8	14810.4
857.2723	1070.695	15750.7	14804.05
857.4173	1072.6679	15686.45	14739.5
857.5623	1074.6402	15678.25	14732.6
857.7073	1076.6117	15662.4	14709.5
857.8523	1078.5826	15608.9	14656.4
857.9973	1080.5527	15583.25	14633.15
858.1423	1082.5221	15643.9	14696.5
858.2873	1084.4908	15785.65	14838.85
858.4323	1086.4587	15960.4	15011.55
858.5773	1088.426	16073.35	15121.7
858.7223	1090.3925	16091.8	15139.4
858.8673	1092.3584	16047.7	15100.2
859.0123	1094.3235	15928.65	14981.8
859.1573	1096.2879	15864.9	14918.15
859.3022	1098.2515	15905.25	14958.25
859.4472	1100.2145	16005.9	15056.15
859.5922	1102.1767	16059.6	15108.05
859.7371	1104.1382	16272.75	15324.85
859.8821	1106.099	16480.1	15530.9
860.027	1108.0591	16665.85	15719.8
860.172	1110.0185	16816	15865.85
860.3169	1111.9771	16839.9	15895.75
860.4619	1113.9351	16662.75	15713.5
860.6068	1115.8923	16410.15	15460.9
860.7517	1117.8488	16113.5	15165.35
860.8967	1119.8045	15854.1	14908.7
861.0416	1121.7596	15767.9	14822.8
861.1865	1123.7139	15652.15	14710.3
861.3314	1125.6675	15664.95	14718.6
861.4763	1127.6204	15723.35	14779.4
861.6212	1129.5726	15727.8	14779.05
861.7661	1131.524	15684	14739.1
861.911	1133.4748	15665.2	14720.05
862.0559	1135.4248	15591.9	14644.95
862.2008	1137.3741	15571.8	14623.25
862.3457	1139.3226	15490.05	14540.05
862.4905	1141.2705	15463.25	14516.05
862.6354	1143.2176	15371.05	14417.55
862.7803	1145.164	15385.15	14437.6
862.9251	1147.1097	15377.25	14434.95
863.07	1149.0546	15344.3	14395
863.2148	1150.9989	15287.05	14340.55
863.3597	1152.9424	15110.9	14165.6
863.5045	1154.8852	14965.9	14018.65
863.6493	1156.8272	14893.05	13946.2
863.7942	1158.7686	14864.15	13908.05
863.939	1160.7092	14845.95	13900.25
864.0838	1162.6491	14818.95	13868.4
864.2286	1164.5883	14883.1	13938.1
864.3734	1166.5267	14975.3	14025.9
864.5182	1168.4644	15127	14177.95
864.663	1170.4014	15308.25	14362.7
864.8078	1172.3377	15545.15	14601.35
864.9526	1174.2732	15784.4	14841.3
865.0974	1176.2081	16110.4	15166.2
865.2421	1178.1421	16364.75	15414.55
865.3869	1180.0755	16627.6	15682.25
865.5317	1182.0082	16746.1	15800.15
865.6764	1183.9401	16779.8	15837.9
865.8212	1185.8713	16630.35	15692.7
865.9659	1187.8017	16388.8	15457.4
866.1106	1189.7315	16127.25	15206.15
866.2554	1191.6605	15799.8	14878.65
866.4001	1193.5888	15576.5	14645.55
866.5448	1195.5163	15467.25	14533.4
866.6895	1197.4432	15385	14444.65
866.8342	1199.3693	15353.05	14409.9
866.9789	1201.2947	15279.6	14335.3
867.1236	1203.2193	15247.85	14304.05
867.2683	1205.1432	15277.5	14336
867.413	1207.0664	15309.85	14372.45
867.5576	1208.9889	15331.35	14382.35
867.7023	1210.9106	15326.45	14389.3
867.847	1212.8316	15373.4	14431.4
867.9916	1214.7519	15440.9	14489.1
868.1363	1216.6715	15424.9	14486.85
868.2809	1218.5903	15432.2	14491.85
868.4255	1220.5084	15422.45	14479.45
868.5701	1222.4257	15424.35	14480.55
868.7148	1224.3424	15388.5	14454.35
868.8594	1226.2583	15463	14520.05
869.004	1228.1735	15579.15	14639.95
869.1486	1230.0879	15622.85	14679.35
869.2932	1232.0016	15741.65	14799.95
869.4377	1233.9146	15783.25	14840.5
869.5823	1235.8269	15712.5	14771.15
869.7269	1237.7384	15618.35	14675.15
869.8715	1239.6492	15424.9	14485.3
870.016	1241.5592	15329.8	14386.6
870.1606	1243.4686	15228.25	14285.25
870.3051	1245.3772	15287.6	14350.6
870.4496	1247.285	15273.5	14332.75
870.5941	1249.1922	15252.8	14313.7
870.7387	1251.0986	15272.6	14334.55
870.8832	1253.0042	15281.1	14342.05
871.0277	1254.9092	15327.9	14390.05
871.1722	1256.8134	15370.95	14431.85
871.3167	1258.7169	15558.45	14618.8
871.4611	1260.6196	15708.75	14771.95
871.6056	1262.5216	15908.55	14967.5
871.7501	1264.4229	16046.25	15110.8
871.8945	1266.3234	16223.65	15283.45
872.039	1268.2232	16338.4	15396.8
872.1834	1270.1223	16338.15	15395
872.3278	1272.0207	16313.8	15374.3
872.4723	1273.9183	16264.25	15315.6
872.6167	1275.8151	16222.2	15283.1
872.7611	1277.7113	16161.1	15225.85
872.9055	1279.6067	16052	15113.25
873.0499	1281.5014	16022.45	15081.65
873.1943	1283.3953	16040.4	15097.6
873.3386	1285.2885	16109.4	15171.2
873.483	1287.181	16218.55	15278.3
873.6274	1289.0727	16370.65	15436.15
873.7717	1290.9637	16449.75	15511.05
873.9161	1292.854	16616.65	15678.35
874.0604	1294.7435	16698.9	15760.55
874.2047	1296.6323	16815.6	15880.35
874.349	1298.5204	17009.1	16069.25
874.4933	1300.4077	17146.35	16208.85
874.6376	1302.2943	17233.2	16294.95
874.7819	1304.1802	17222.9	16283.8
874.9262	1306.0653	17040.7	16100.45
875.0705	1307.9497	16807.25	15869.5
875.2147	1309.8333	16599.55	15664
875.359	1311.7162	16443	15505.4
875.5032	1313.5984	16445.95	15506.65
875.6475	1315.4798	16438.7	15501.25
875.7917	1317.3605	16485.05	15544.05
875.9359	1319.2405	16545.35	15602.45
876.0801	1321.1197	16439.4	15499
876.2243	1322.9982	16310.2	15369.75
876.3685	1324.876	16224.35	15286.1
876.5127	1326.753	16088.95	15147.7
876.6569	1328.6293	16025.25	15084.9
876.801	1330.5048	16005.75	15063.85
876.9452	1332.3796	15922.4	14983.5
877.0893	1334.2537	15892.6	14924.7
877.2335	1336.127	15801.4	14863.75
877.3776	1337.9996	15815.6	14879.95
877.5217	1339.8714	15786.9	14848.65
877.6658	1341.7426	15756.2	14773.05
877.8099	1343.6129	15738.25	14799.7
877.954	1345.4826	15683.35	14747.35
878.0981	1347.3515	15657.4	14713.2
878.2422	1349.2196	15627.45	14687.15
878.3862	1351.087	15651.6	14712
878.5303	1352.9537	15674.9	14732.9
878.6743	1354.8197	15795.3	14850.1
878.8184	1356.6849	15956.85	15018.6
878.9624	1358.5493	16030.55	15090.8
879.1064	1360.4131	16112.85	15173.85
879.2504	1362.276	16053.2	15116.2
879.3944	1364.1383	15961.8	15025.45
879.5384	1365.9998	15732.5	14791.5
879.6823	1367.8606	15382.7	14443.6
879.8263	1369.7206	15077.3	14140.05
879.9702	1371.5799	14841.55	13898.2
880.1142	1373.4384	14643.75	13702.3
880.2581	1375.2962	14425.2	13487.3
880.402	1377.1533	14198.75	13261.9
880.5459	1379.0096	13861.65	12927.55
880.6898	1380.8652	13563.5	12631.8
880.8337	1382.7201	13290.3	12358.3
880.9776	1384.5742	13051.05	12114.85
881.1215	1386.4275	12877.75	11937.45
881.2653	1388.2802	12721.25	11780.95
881.4092	1390.132	12625.95	11688.2
881.553	1391.9832	12578.95	11641.05
881.6968	1393.8336	12480.35	11544.65
881.8406	1395.6832	12408.65	11466.65
881.9844	1397.5322	12336.8	11398.05
882.1282	1399.3803	12316.15	11377.6
882.272	1401.2278	12259.45	11321.3
882.4158	1403.0745	12266.65	11333.7
882.5595	1404.9204	12241.2	11305.95
882.7033	1406.7656	12231.95	11295.25
882.847	1408.6101	12250.55	11314.3
882.9908	1410.4538	12269	11330.45
883.1345	1412.2968	12293.6	11356.6
883.2782	1414.139	12311.15	11375.2
883.4219	1415.9805	12422.45	11486.9
883.5656	1417.8213	12488.1	11547.9
883.7092	1419.6613	12596.9	11660.9
883.8529	1421.5006	12747.85	11811.6
883.9965	1423.3391	12986.5	12050.4
884.1402	1425.1769	13248.15	12311.35
884.2838	1427.0139	13727.1	12791.75
884.4274	1428.8502	14282.8	13348.95
884.571	1430.6858	14852.2	13919.2
884.7146	1432.5206	15199.75	14266.7
884.8582	1434.3547	15450.35	14513.95
885.0018	1436.188	15503.7	14568.35
885.1453	1438.0206	15400.75	14464.35
885.2889	1439.8524	15235.25	14298.95
885.4324	1441.6835	15099.5	14164
885.5759	1443.5139	14989.75	14053.6
885.7194	1445.3435	14929.15	13996.75
885.8629	1447.1724	14917.5	13987.35
886.0064	1449.0005	14822.15	13890.15
886.1499	1450.8279	14731.8	13799.55
886.2933	1452.6545	14675.95	13744.8
886.4368	1454.4804	14711.35	13782.15
886.5802	1456.3056	14732.95	13795.2
886.7237	1458.13	14608.4	13679.55
886.8671	1459.9536	14403.4	13471.7
887.0105	1461.7766	14084.05	13150.6
887.1539	1463.5987	13667.55	12733.75
887.2972	1465.4202	13268.35	12337.9
887.4406	1467.2409	12938	12002.75
887.584	1469.0608	12650.5	11717.15
887.7273	1470.88	12399.1	11463.6
887.8706	1472.6984	12158.4	11224.7
888.0139	1474.5161	11944.55	11010.4
888.1572	1476.3331	11812.45	10883.3
888.3005	1478.1493	11666.4	10734.5
888.4438	1479.9648	11566.15	10635.6
888.5871	1481.7795	11449.35	10518.75
888.7303	1483.5935	11356.45	10424.3
888.8736	1485.4067	11310.9	10378.95
889.0168	1487.2192	11284.3	10353.4
889.16	1489.031	11232.25	10299.6
889.3032	1490.842	11145.95	10212.2
889.4464	1492.6522	11127.95	10199
889.5896	1494.4618	11081.2	10147.75
889.7327	1496.2705	11020.85	10091.7
889.8759	1498.0785	11014.3	10083.35
890.019	1499.8858	10954.4	10023.75
890.1622	1501.6924	10931.1	9999.3
890.3053	1503.4981	10920.15	9987.15
890.4484	1505.3032	10889.75	9959.2
890.5914	1507.1075	10821.65	9888.1
890.7345	1508.911	10783.05	9850.45
890.8776	1510.7138	10718.9	9788.05
891.0206	1512.5159	10677	9745.65
891.1637	1514.3172	10637.75	9710.35
891.3067	1516.1178	10587	9658.05
891.4497	1517.9176	10551.55	9620.3
891.5927	1519.7166	10498.9	9570.15
891.7357	1521.515	10461.2	9527.9
891.8786	1523.3126	10463.3	9533.55
892.0216	1525.1094	10408.6	9476.8
892.1645	1526.9055	10372.4	9443.5
892.3074	1528.7008	10311.9	9386.15
892.4503	1530.4954	10245.6	9316.85
892.5932	1532.2893	10240.05	9314.25
892.7361	1534.0824	10204.3	9276.75
892.879	1535.8747	10214.45	9290.6
893.0218	1537.6663	10162.9	9237.55
893.1647	1539.4572	10160.4	9235.55
893.3075	1541.2473	10145.65	9216.85
893.4503	1543.0367	10120.45	9196.4
893.5931	1544.8253	10082.1	9153.2
893.7359	1546.6132	10120.05	9189.95
893.8787	1548.4003	10093.1	9157.5
894.0214	1550.1867	10125.05	9194.9
894.1642	1551.9723	10149.65	9224.95
894.3069	1553.7572	10203	9281.7
894.4496	1555.5414	10210.35	9289.2
894.5923	1557.3247	10271.9	9352.5
894.735	1559.1074	10335.6	9419.45
894.8777	1560.8893	10442.8	9527.8
895.0204	1562.6705	10504.8	9588.3
895.163	1564.4509	10598.1	9680.45
895.3056	1566.2305	10643.25	9729.8
895.4482	1568.0094	10684.45	9771.55
895.5908	1569.7876	10727.7	9812.15
895.7334	1571.565	10712.75	9793.65
895.876	1573.3417	10710.2	9794.55
896.0186	1575.1176	10702.25	9786.2
896.1611	1576.8928	10656.95	9743.5
896.3036	1578.6672	10581.6	9672.55
896.4461	1580.4409	10496.2	9588.95
896.5886	1582.2138	10390	9479.25
896.7311	1583.986	10326.8	9413.15
896.8736	1585.7575	10278.75	9366.5
897.0161	1587.5282	10204.9	9297.5
897.1585	1589.2981	10208.35	9301.15
897.3009	1591.0673	10168.8	9261.8
897.4433	1592.8358	10187.8	9277.8
897.5857	1594.6035	10212.5	9299.55
897.7281	1596.3704	10229	9315.25
897.8705	1598.1366	10265.5	9354.2
898.0128	1599.9021	10304.6	9394.6
898.1551	1601.6668	10361.4	9449.3
898.2975	1603.4308	10450.65	9538.35
898.4398	1605.194	10553.7	9640.3
898.5821	1606.9564	10689.55	9784.95
898.7243	1608.7182	10849.45	9946.2
898.8666	1610.4791	11007.55	10111.85
899.0088	1612.2394	11176.1	10283.85
899.1511	1613.9988	11368.2	10468.5
899.2933	1615.7576	11585.25	10679.1
899.4355	1617.5156	11805.6	10886.45
899.5776	1619.2728	11945.35	11031.25
899.7198	1621.0293	12018.05	11108.05
899.862	1622.785	12021.15	11113.15
900.0041	1624.54	11863.55	10957.3
900.1462	1626.2942	11714.9	10811.2
900.2883	1628.0477	11441.15	10536.85
900.4304	1629.8005	11209.9	10301.15
900.5725	1631.5525	10958.35	10054.5
900.7145	1633.3037	10745.1	9842.8
900.8566	1635.0542	10594.15	9690.05
900.9986	1636.804	10496.7	9592.3
901.1406	1638.553	10481.05	9514.55
901.2826	1640.3013	10376.45	9471.05
901.4245	1642.0488	10371.55	9466.95
901.5665	1643.7955	10383.35	9482.85
901.7085	1645.5416	10442.2	9539.65
901.8504	1647.2868	10540.45	9637.6
901.9923	1649.0313	10621.9	9719.45
902.1342	1650.7751	10746.7	9841.25
902.2761	1652.5181	10913.25	10011.35
902.4179	1654.2604	11086.4	10185.25
902.5598	1656.0019	11329.2	10426.75
902.7016	1657.7427	11631.5	10728.45
902.8434	1659.4828	11916.35	11010
902.9852	1661.222	12066.95	11160.95
903.127	1662.9606	12040.65	11135.75
903.2687	1664.6984	11836.55	10930.45
903.4105	1666.4354	11443.9	10537.65
903.5522	1668.1717	10908.95	10001.35
903.6939	1669.9072	10368.85	9461.25
903.8356	1671.642	9966.15	9057.7
903.9773	1673.3761	9565.05	8659.8
904.119	1675.1094	9303.45	8401.05
904.2606	1676.8419	9055.9	8152.05
904.4022	1678.5737	8874.65	7968.7
904.5439	1680.3048	8711	7802
904.6855	1682.0351	8588	7684.85
904.827	1683.7646	8479.75	7570.8
904.9686	1685.4934	8414.5	7509.15
905.1101	1687.2215	8327.2	7421.55
905.2517	1688.9488	8265.65	7363
905.3932	1690.6754	8185.25	7282.2
905.5347	1692.4012	8183.6	7280.5
905.6761	1694.1263	8144	7239.1
905.8176	1695.8506	8087.85	7182.8
905.9591	1697.5742	8031.65	7133.65
906.1005	1699.297	7988.55	7091.5
906.2419	1701.0191	7946.8	7050.4
906.3833	1702.7404	7920.35	7022
906.5246	1704.461	7846.15	6945.25
906.666	1706.1808	7820.45	6919.8
906.8073	1707.8999	7794	6894.3
906.9487	1709.6182	7745.6	6851
907.09	1711.3358	7733.6	6839.4
907.2313	1713.0527	7681.2	6787.95
907.3725	1714.7688	7673.1	6773.5
907.5138	1716.4841	7613.95	6712.35
907.655	1718.1987	7606.4	6702.15
907.7962	1719.9126	7567.65	6672.3
907.9374	1721.6257	7563.3	6667.05
908.0786	1723.338	7534.85	6641.5
908.2198	1725.0496	7489.3	6591.55
908.3609	1726.7605	7476.5	6577.55
908.502	1728.4706	7466.2	6568.45
908.6431	1730.18	7412.1	6516.8
908.7842	1731.8886	7380.4	6486.55
908.9253	1733.5964	7410.7	6496.4
909.0664	1735.3036	7363	6464.45
909.2074	1737.0099	7353.55	6460.05
909.3484	1738.7156	7313	6419.4
909.4894	1740.4204	7269.8	6372.55
909.6304	1742.1246	7259.05	6361.9
909.7714	1743.8279	7242.25	6349.55
909.9123	1745.5306	7221.4	6328.8
910.0532	1747.2325	7201.45	6308.25
910.1941	1748.9336	7160	6264.15
910.335	1750.634	7117.15	6221.6
910.4759	1752.3336	7097.6	6202.85
910.6168	1754.0325	7103.95	6212.75
910.7576	1755.7307	7079.25	6186.3
910.8984	1757.4281	7055.95	6161.35
911.0392	1759.1247	7062.85	6157.4
911.18	1760.8206	7057.3	6153.8
911.3208	1762.5158	7034.8	6134.5
911.4615	1764.2102	6966.85	6070.2
911.6022	1765.9039	6965.6	6074.55
911.7429	1767.5968	6956.75	6066.55
911.8836	1769.289	6937.05	6043.15
912.0243	1770.9804	6919.6	6025.25
912.1649	1772.6711	6910.8	6013.2
912.3056	1774.361	6880.65	5981.95
912.4462	1776.0502	6873.8	5977.6
912.5868	1777.7386	6871.3	5974.2
912.7274	1779.4263	6827.85	5932.45
912.8679	1781.1132	6823.8	5933.65
913.0084	1782.7994	6813.15	5924.2
913.149	1784.4849	6798.2	5910.6
913.2895	1786.1696	6778.5	5880.15
913.4299	1787.8535	6761.65	5870.95
913.5704	1789.5367	6729.2	5840.9
913.7108	1791.2192	6733.65	5841.8
913.8513	1792.9009	6730.75	5812.75
913.9917	1794.5818	6695.15	5798.25
914.132	1796.2621	6678.25	5784.9
914.2724	1797.9415	6683	5786.65
914.4128	1799.6202	6651.65	5755.55
914.5531	1801.2982	6625.2	5731
914.6934	1802.9755	6621.55	5726.85
914.8337	1804.6519	6602.45	5707.55
914.9739	1806.3277	6566.8	5675.15
915.1142	1808.0027	6543.6	5653.25
915.2544	1809.6769	6548.7	5659.7
915.3946	1811.3504	6518.6	5630.8
915.5348	1813.0231	6507.35	5617.05
915.675	1814.6951	6476.5	5586.75
915.8151	1816.3664	6517.85	5623.6
915.9553	1818.0369	6478.45	5586.3
916.0954	1819.7067	6454.35	5559.4
916.2355	1821.3757	6458	5559.7
916.3755	1823.044	6444.35	5548.65
916.5156	1824.7115	6424.8	5532
916.6556	1826.3783	6404.15	5512.75
916.7956	1828.0443	6376.65	5482.35
916.9356	1829.7096	6375.55	5483.05
917.0756	1831.3741	6376.5	5481.15
917.2155	1833.0379	6343.75	5453.45
917.3555	1834.701	6315.5	5425.05
917.4954	1836.3633	6326.05	5437.3
917.6353	1838.0248	6310.3	5421.2
917.7751	1839.6856	6286.75	5396.25
917.915	1841.3457	6279.4	5386.85
918.0548	1843.005	6281.85	5391.45
918.1946	1844.6636	6269.6	5377
918.3344	1846.3214	6256.7	5365
918.4742	1847.9785	6240.75	5347.65
918.6139	1849.6349	6218.2	5323.15
918.7537	1851.2904	6225.3	5320.9
918.8934	1852.9453	6204.15	5309.35
919.0331	1854.5994	6192.5	5295.95
919.1727	1856.2528	6174.55	5277.45
919.3124	1857.9054	6157.45	5266.1
919.452	1859.5572	6161.3	5270.9
919.5916	1861.2083	6164.8	5270.9
919.7312	1862.8587	6166.35	5272.5
919.8708	1864.5084	6124.1	5228.3
920.0103	1866.1572	6109.9	5216.15
920.1498	1867.8054	6095.4	5200.2
920.2893	1869.4528	6075.4	5179.95
920.4288	1871.0994	6057.45	5162.4
920.5683	1872.7453	6058.15	5166.6
920.7077	1874.3905	6038.15	5128.55
920.8471	1876.0349	6012.75	5119.05
920.9865	1877.6786	6034.6	5138.35
921.1259	1879.3215	6013.55	5119.35
921.2653	1880.9637	5983.6	5091.1
921.4046	1882.6051	5982.5	5090.15
921.5439	1884.2458	5959.25	5065.1
921.6832	1885.8858	5939.9	5047.05
921.8225	1887.525	5924.65	5031.75
921.9617	1889.1634	5916.75	5021.7
922.101	1890.8011	5901.75	5009.2
922.2402	1892.4381	5875.75	4982.25
922.3794	1894.0743	5871.4	4977.8
922.5185	1895.7098	5838.75	4947.05
922.6577	1897.3446	5839	4946.15
922.7968	1898.9786	5832.95	4935.15
922.9359	1900.6118	5839.25	4948.35
923.075	1902.2443	5810.25	4917
923.214	1903.8761	5792.7	4899.75
923.3531	1905.5071	5751.45	4859.75
923.4921	1907.1374	5735.3	4842.55
923.6311	1908.7669	5745.3	4853.3
923.77	1910.3957	5718	4828.75
923.909	1912.0237	5694.05	4802.45
924.0479	1913.651	5667.5	4776.3
924.1868	1915.2776	5672.5	4780.7
924.3257	1916.9034	5654.85	4763.35
924.4646	1918.5285	5628.45	4739.6
924.6034	1920.1528	5598.2	4705.45
924.7422	1921.7764	5603.95	4715.35
924.881	1923.3992	5572.9	4680.45
925.0198	1925.0213	5549.2	4655.2
925.1586	1926.6427	5525.6	4636.65
925.2973	1928.2633	5685.2	4585.75
925.436	1929.8832	5563.05	4667.9
925.5747	1931.5023	5511.1	4621.45
925.7134	1933.1207	5487.6	4596.05
925.852	1934.7383	5469.35	4578.1
925.9906	1936.3552	5448	4559.3
926.1292	1937.9714	5431.95	4539.8
926.2678	1939.5868	5416.85	4524.4
926.4064	1941.2015	5370.8	4478.35
926.5449	1942.8154	5364.55	4473.75
926.6834	1944.4286	5354.55	4461.65
926.8219	1946.041	5356.15	4443.45
926.9604	1947.6528	5323.05	4425.15
927.0988	1949.2637	5310.1	4420.65
927.2372	1950.8739	5292.7	4398.95
927.3756	1952.4834	5275.5	4383.6
927.514	1954.0921	5278.85	4388.2
927.6523	1955.7001	5257.95	4363.25
927.7907	1957.3074	5245.6	4359.5
927.929	1958.9139	5220.15	4333.2
928.0673	1960.5197	5203.65	4314.15
928.2055	1962.1247	5174.2	4287.85
928.3438	1963.729	5159.4	4273.65
928.482	1965.3325	5151.35	4261.5
928.6202	1966.9353	5139.2	4254.8
928.7584	1968.5374	5112.1	4225.05
928.8965	1970.1387	5098.85	4211.8
929.0346	1971.7393	5061.2	4172.95
929.1727	1973.3392	5062.6	4176.55
929.3108	1974.9383	5031.65	4147.1
929.4489	1976.5366	5025.55	4140.5
929.5869	1978.1342	5020.9	4138.25
929.7249	1979.7311	5009.05	4123.1
929.8629	1981.3273	5006.45	4120.9
930.0009	1982.9227	4979.45	4092.95
930.1388	1984.5173	4984.3	4101.5
930.2767	1986.1112	4939.65	4054.8
930.4146	1987.7044	4953.85	4069.75
930.5525	1989.2968	4928.8	4041.95
930.6904	1990.8885	4942.4	4054.3
930.8282	1992.4795	4901.35	4017.15
930.966	1994.0697	4888.1	4005.65
931.1038	1995.6592	4882.1	3997.85
931.2415	1997.2479	4871.85	3986.4
931.3793	1998.8359	4858.3	3976.2
931.517	2000.4232	4819.4	3937.2
931.6547	2002.0097	4828.55	3951.3
931.7923	2003.5955	4820.2	3940.25
931.93	2005.1805	4815.75	3933.05
932.0676	2006.7648	4778.85	3896.95
932.2052	2008.3484	4777.15	3895.45
932.3427	2009.9312	4766.7	3885.5
932.4803	2011.5133	4730.2	3851.05
932.6178	2013.0946	4732.3	3850.5
932.7553	2014.6752	4741.3	3863.15
932.8928	2016.2551	4720.25	3838.25
933.0302	2017.8342	4697.5	3816.6
933.1676	2019.4126	4692.65	3814.4
933.305	2020.9902	4682.85	3804.65
933.4424	2022.5672	4663.3	3784.4
933.5798	2024.1433	4663.9	3781.15
933.7171	2025.7188	4628.85	3751.1
933.8544	2027.2935	4637.8	3759
933.9917	2028.8674	4636.85	3757.55
934.129	2030.4406	4604.65	3728.45
934.2662	2032.0131	4589.25	3714
934.4034	2033.5849	4578.2	3693.4
934.5406	2035.1559	4585.5	3708.75
934.6778	2036.7261	4577.25	3696.95
934.8149	2038.2957	4540.3	3658.35
934.952	2039.8645	4539.45	3658.55
935.0891	2041.4325	4547.45	3661.65
935.2262	2042.9998	4519.4	3638.35
935.3632	2044.5664	4522.1	3640.05
935.5002	2046.1323	4503.95	3626.1
935.6372	2047.6974	4475.1	3599.3
935.7742	2049.2617	4489.1	3611.9
935.9111	2050.8254	4504.6	3592.25
936.048	2052.3883	4482.6	3601
936.1849	2053.9504	4469.35	3586.9
936.3218	2055.5118	4455.15	3572
936.4586	2057.0725	4433.25	3547.4
936.5955	2058.6325	4425.95	3545.7
936.7323	2060.1917	4406.05	3527.3
936.869	2061.7502	4402.2	3520.05
937.0058	2063.3079	4385.25	3510.2
937.1425	2064.8649	4370.15	3489.25
937.2792	2066.4212	4359.75	3480.3
937.4159	2067.9767	4341.15	3461.8
937.5525	2069.5315	4339.05	3458.4
937.6891	2071.0856	4336.05	3455.6
937.8257	2072.6389	4316.75	3437.65
937.9623	2074.1915	4287.8	3413.1
938.0989	2075.7433	4280.65	3402.55
938.2354	2077.2945	4257.6	3380.4
938.3719	2078.8448	4256.25	3373.05
938.5084	2080.3945	4248.15	3366.75
938.6448	2081.9434	4241.4	3357.05
938.7812	2083.4916	4235.4	3350.25
938.9176	2085.039	4231.75	3345.55
939.054	2086.5857	4240.85	3352.2
939.1903	2088.1317	4212.85	3322.8
939.3267	2089.677	4189	3299.35
939.463	2091.2215	4185.7	3295.55
939.5992	2092.7652	4173.1	3283.8
939.7355	2094.3083	4170.35	3282.4
939.8717	2095.8506	4157.7	3273.9
940.0079	2097.3921	4147.8	3262.9
940.1441	2098.933	4137.8	3254.05
940.2802	2100.4731	4136.65	3251.55
940.4163	2102.0124	4133.95	3240.6
940.5524	2103.5511	4117.7	3231.85
940.6885	2105.089	4113.35	3225.05
940.8245	2106.6261	4108.05	3225.55
940.9606	2108.1626	4101.8	3217.5
941.0965	2109.6983	4110.9	3201.55
941.2325	2111.2332	4080.3	3196.45
941.3684	2112.7675	4068.1	3183.4
941.5044	2114.301	4069.7	3181.15
941.6403	2115.8337	4053.2	3168.7
941.7761	2117.3657	4034.55	3147.6
941.912	2118.897	4027.05	3138.9
942.0478	2120.4276	4037.4	3145.05
942.1835	2121.9575	4004.85	3116.75
942.3193	2123.4866	4017.4	3128.65
942.455	2125.0149	4004.4	3116.5
942.5907	2126.5426	3993.8	3111.65
942.7264	2128.0695	3964.75	3082
942.8621	2129.5956	3949.7	3073.1
942.9977	2131.1211	3959.05	3074.5
943.1333	2132.6458	3958.25	3075.3
943.2689	2134.1698	3945.6	3058.4
943.4044	2135.693	3944	3051.2
943.54	2137.2155	3932.15	3042.55
943.6755	2138.7373	3918.6	3033.65
943.8109	2140.2584	3908.95	3028.15
943.9464	2141.7787	3902.3	3017.4
944.0818	2143.2983	3894.1	3016.5
944.2172	2144.8171	3865.65	2987.85
944.3526	2146.3353	3864.1	2981.2
944.4879	2147.8527	3837.35	2956.5
944.6232	2149.3693	3866.15	2981.5
944.7585	2150.8853	3842.65	2954.05
944.8938	2152.4005	3824.45	2938
945.029	2153.9149	3840.85	2953.1
945.1642	2155.4287	3824.95	2938.35
945.2994	2156.9417	3791.35	2905.55
945.4346	2158.454	3792.9	2907.7
945.5697	2159.9655	3785.65	2903.15
945.7048	2161.4764	3772.95	2889.9
945.8399	2162.9865	3755.3	2874.1
945.9749	2164.4958	3757.75	2875.85
946.1099	2166.0045	3752.2	2868.75
946.2449	2167.5124	3750.7	2869
946.3799	2169.0195	3735.15	2847.7
946.5148	2170.526	3731.3	2843.85
946.6498	2172.0317	3728.55	2839.15
946.7846	2173.5367	3719.45	2834.15
946.9195	2175.0409	3718.2	2833.9
947.0543	2176.5445	3704.85	2820.55
947.1891	2178.0473	3685.45	2796.9
947.3239	2179.5494	3678.25	2787.55
947.4587	2181.0507	3669.45	2783.7
947.5934	2182.5513	3656.9	2770.25
947.7281	2184.0512	3680.15	2795.3
947.8628	2185.5504	3658.8	2775.5
947.9974	2187.0488	3631.9	2746.55
948.132	2188.5465	3622.45	2741.15
948.2666	2190.0435	3615	2730.55
948.4012	2191.5397	3610.1	2723.9
948.5357	2193.0353	3605.35	2718.25
948.6702	2194.5301	3593.45	2702.85
948.8047	2196.0241	3586.7	2697.85
948.9392	2197.5175	3580.6	2688.55
949.0736	2199.0101	3564.7	2672.85
949.208	2200.502	3543.35	2658.15
949.3424	2201.9931	3528.75	2644.55
949.4767	2203.4835	3521	2638.25
949.611	2204.9733	3516.5	2627.3
949.7453	2206.4622	3524.85	2642.85
949.8796	2207.9505	3496.2	2613.5
950.0138	2209.438	3485.2	2608.45
950.148	2210.9248	3492.7	2609.1
950.2822	2212.4109	3480.3	2595.1
950.4164	2213.8962	3467.9	2573.85
950.5505	2215.3809	3463.15	2573.9
950.6846	2216.8648	3455.55	2562.15
950.8186	2218.3479	3446.3	2549.85
950.9527	2219.8304	3430	2533.25
951.0867	2221.3121	3429.95	2535.2
951.2207	2222.7931	3426.4	2536.8
951.3546	2224.2733	3404.2	2516
951.4886	2225.7529	3396.5	2507.8
951.6225	2227.2317	3409.8	2521.1
951.7563	2228.7098	3388.25	2505.6
951.8902	2230.1872	3355.8	2474.65
952.024	2231.6638	3369.8	2485.55
952.1578	2233.1397	3355.5	2470.15
952.2916	2234.6149	3359.95	2477.05
952.4253	2236.0894	3346.15	2462.25
952.559	2237.5632	3344.9	2453.25
952.6927	2239.0362	3325.15	2442.95
952.8263	2240.5085	3323.2	2435.7
952.9599	2241.9801	3298.05	2410.5
953.0935	2243.4509	3312.15	2424.85
953.2271	2244.921	3291.2	2400.8
953.3606	2246.3904	3287.1	2395.45
953.4941	2247.8591	3273.6	2386.15
953.6276	2249.3271	3261.3	2374.8
953.7611	2250.7943	3248.55	2360.25
953.8945	2252.2608	3242.8	2354.9
954.0279	2253.7266	3233.85	2346.3
954.1612	2255.1917	3236.2	2350.7
954.2946	2256.656	3218.9	2334.55
954.4279	2258.1197	3225.4	2344.7
954.5612	2259.5826	3220.8	2333.5
954.6944	2261.0447	3208.25	2322.45
954.8276	2262.5062	3208.85	2319.55
954.9608	2263.9669	3210.7	2321.75
955.094	2265.4269	3192.25	2303.8
955.2271	2266.8862	3184.9	2298.45
955.3602	2268.3448	3177.25	2293.2
955.4933	2269.8026	3164.35	2282.6
955.6264	2271.2598	3158	2275.1
955.7594	2272.7162	3147.45	2264.4
955.8924	2274.1719	3145.1	2258.15
956.0253	2275.6268	3138.5	2252.25
956.1583	2277.0811	3143.45	2255.6
956.2912	2278.5346	3134.85	2249.25
956.4241	2279.9874	3130.05	2243.85
956.5569	2281.4395	3129.95	2247.6
956.6897	2282.8908	3126.65	2235.9
956.8225	2284.3414	3100.15	2212.7
956.9553	2285.7914	3093.5	2207.2
957.088	2287.2406	3091.65	2205.85
957.2207	2288.689	3098.55	2209.4
957.3534	2290.1368	3073.2	2179.3
957.486	2291.5838	3086.55	2191.45
957.6186	2293.0302	3078.45	2185.8
957.7512	2294.4758	3053.25	2162.45
957.8838	2295.9206	3056.2	2162.6
958.0163	2297.3648	3043.25	2156.6
958.1488	2298.8082	3033.95	2147.25
958.2813	2300.251	3038	2149.55
958.4137	2301.693	3032.45	2143.4
958.5461	2303.1343	3029.45	2141.5
958.6785	2304.5748	3024.25	2136.8
958.8108	2306.0147	3007.45	2122.5
958.9432	2307.4538	2996.85	2112.15
959.0754	2308.8922	2998.7	2118.55
959.2077	2310.3299	2978.35	2093.15
959.3399	2311.7669	2990.15	2105.15
959.4721	2313.2031	2972.1	2085.3
959.6043	2314.6387	2972.65	2085.9
959.7365	2316.0735	2955.65	2068
959.8686	2317.5076	2944.95	2056.5
960.0006	2318.941	2959.1	2071.4
960.1327	2320.3737	2938.25	2046.4
960.2647	2321.8056	2933.65	2043.95
960.3967	2323.2369	2925.8	2039.95
960.5287	2324.6674	2930.85	2042.6
960.6606	2326.0972	2914.35	2026.45
960.7925	2327.5263	2904.8	2016.7
960.9244	2328.9547	2908.65	2019.05
961.0562	2330.3823	2905.15	2017
961.1881	2331.8092	2906.35	2012.2
961.3198	2333.2355	2885.8	1997
961.4516	2334.661	2884	1994.05
961.5833	2336.0858	2881	1988.75
961.715	2337.5098	2879	1990.65
961.8467	2338.9332	2869.75	1981.1
961.9783	2340.3558	2846	1957.75
962.1099	2341.7778	2852.25	1968.2
962.2415	2343.199	2836.85	1950.45
962.373	2344.6195	2837.05	1953.1
962.5045	2346.0393	2822.35	1938.55
962.636	2347.4583	2832.1	1944.1
962.7675	2348.8767	2826.65	1937.55
962.8989	2350.2943	2832.7	1943.5
963.0303	2351.7113	2807.55	1915.05
963.1617	2353.1275	2811.45	1918.5
963.293	2354.543	2821.1	1922.1
963.4243	2355.9578	2805.8	1916.1
963.5556	2357.3718	2797.8	1913.4
963.6868	2358.7852	2783.35	1895.5
963.818	2360.1978	2773.85	1889.05
963.9492	2361.6098	2767.85	1882.9
964.0803	2363.021	2771.6	1880.65
964.2114	2364.4315	2763.65	1875.1
964.3425	2365.8413	2755.05	1869.65
964.4736	2367.2504	2759.65	1877.2
964.6046	2368.6587	2736.8	1853.5
964.7356	2370.0664	2718.3	1836.1
964.8666	2371.4733	2736.75	1851.6
964.9975	2372.8795	2724.5	1840.75
965.1284	2374.285	2722.5	1839.95
965.2593	2375.6899	2703.3	1818.9
965.3901	2377.0939	2712.15	1828.25
965.5209	2378.4973	2691.25	1808.65
965.6517	2379.9	2680.5	1796.5
965.7825	2381.3019	2693.25	1809.5
965.9132	2382.7032	2670.3	1788.65
966.0439	2384.1037	2671.15	1791.25
966.1745	2385.5035	2653.3	1772.9
966.3051	2386.9027	2647.15	1764.7
966.4357	2388.3011	2653.05	1767.9
966.5663	2389.6987	2643.35	1762.3
966.6968	2391.0957	2642	1758.4
966.8273	2392.492	2617	1735.25
966.9578	2393.8876	2604.8	1722.4
967.0882	2395.2824	2600.5	1719.2
967.2186	2396.6765	2590.25	1709
967.349	2398.07	2606.5	1720.7
967.4793	2399.4627	2589.35	1705.45
967.6097	2400.8547	2582.4	1698.7
967.7399	2402.246	2569.3	1678.35
967.8702	2403.6366	2572.5	1688.1
968.0004	2405.0265	2572.5	1690.25
968.1306	2406.4156	2558.75	1673.3
968.2607	2407.8041	2556.7	1671.5
968.3909	2409.1918	2565.95	1679.85
968.521	2410.5789	2539.25	1654.2
968.651	2411.9652	2533.75	1646.5
968.781	2413.3508	2542.05	1657.6
968.911	2414.7358	2525.15	1643.15
969.041	2416.12	2520.6	1638
969.1709	2417.5035	2515.05	1630.7
969.3008	2418.8863	2523	1637.65
969.4307	2420.2684	2505.1	1618.9
969.5606	2421.6497	2493.2	1607.6
969.6904	2423.0304	2487.15	1603.7
969.8201	2424.4104	2490	1605.85
969.9499	2425.7896	2482.65	1597.95
970.0796	2427.1682	2484.4	1601.2
970.2093	2428.546	2478.3	1593.2
970.3389	2429.9232	2470.15	1583.9
970.4685	2431.2996	2469.6	1583.25
970.5981	2432.6753	2467.65	1585.45
970.7277	2434.0503	2460.25	1577.25
970.8572	2435.4246	2449.2	1565.5
970.9867	2436.7982	2445.85	1559.3
971.1161	2438.1711	2441.5	1558.7
971.2456	2439.5433	2440.4	1553.45
971.375	2440.9148	2416.2	1525.75
971.5043	2442.2856	2414.65	1532.25
971.6336	2443.6557	2412.55	1528.2
971.7629	2445.025	2408.35	1523.55
971.8922	2446.3937	2406.7	1520.6
972.0214	2447.7617	2391.9	1506.55
972.1506	2449.1289	2393.5	1510.65
972.2798	2450.4955	2398.3	1509.9
972.4089	2451.8613	2378.7	1496.35
972.538	2453.2265	2391.95	1509.4
972.6671	2454.5909	2378.75	1495.9
972.7961	2455.9546	2379.55	1495.2
972.9251	2457.3177	2372.6	1486
973.0541	2458.68	2372.55	1489.55
973.1831	2460.0416	2365.2	1480.1
973.312	2461.4025	2362.55	1477.5
973.4408	2462.7627	2372.05	1477.8
973.5697	2464.1222	2350.25	1468.45
973.6985	2465.4811	2346.6	1464.1
973.8273	2466.8392	2338.5	1455.3
973.956	2468.1966	2334.2	1448.1
974.0847	2469.5533	2344.8	1457.75
974.2134	2470.9093	2331.75	1446.15
974.3421	2472.2645	2337.6	1453.2
974.4707	2473.6191	2325.5	1442.55
974.5993	2474.973	2325	1439.6
974.7278	2476.3262	2324.55	1438.45
974.8563	2477.6787	2308.05	1424.25
974.9848	2479.0305	2297.35	1414.1
975.1132	2480.3816	2289.85	1404.9
975.2417	2481.7319	2296.9	1413.6
975.37	2483.0816	2296.55	1411.55
975.4984	2484.4306	2292.3	1406.75
975.6267	2485.7789	2269.35	1386.55
975.755	2487.1264	2267.05	1381
975.8833	2488.4733	2271.6	1390.85
976.0115	2489.8195	2277.2	1385.55
976.1397	2491.165	2258.05	1369.65
976.2678	2492.5097	2256.6	1371.45
976.3959	2493.8538	2240.4	1359.5
976.524	2495.1972	2241.2	1357.05
976.6521	2496.5398	2229	1341.85
976.7801	2497.8818	2237.45	1349.7
976.9081	2499.2231	2223.1	1337.8
977.036	2500.5637	2227.55	1340.75
977.164	2501.9035	2219.2	1332.45
977.2918	2503.2427	2228.7	1340.8
977.4197	2504.5812	2208.55	1324.25
977.5475	2505.919	2211.9	1324.6
977.6753	2507.256	2215.55	1332.35
977.8031	2508.5924	2195.6	1310.65
977.9308	2509.9281	2205.85	1313.85
978.0585	2511.2631	2192.45	1308.4
978.1861	2512.5974	2190.5	1307.15
978.3137	2513.9309	2189.05	1305.05
978.4413	2515.2638	2211.4	1297.4
978.5689	2516.596	2180	1294.9
978.6964	2517.9275	2173.85	1288.45
978.8239	2519.2583	2158.1	1272.85
978.9513	2520.5884	2151.05	1264.05
979.0788	2521.9178	2162.65	1278.25
979.2062	2523.2465	2164.05	1281.65
979.3335	2524.5745	2152.75	1269.35
979.4608	2525.9018	2130.5	1246.75
979.5881	2527.2284	2129.55	1245.9
979.7154	2528.5543	2149.35	1265.4
979.8426	2529.8796	2134.8	1249.2
979.9698	2531.2041	2132.7	1247.6
980.0969	2532.5279	2127.35	1243.05
980.224	2533.851	2140.05	1255.9
980.3511	2535.1735	2120.9	1233.85
980.4781	2536.4952	2111.9	1227.2
980.6052	2537.8163	2117.7	1231.2
980.7321	2539.1366	2112.55	1228.45
980.8591	2540.4562	2099.9	1214.85
980.986	2541.7752	2104.5	1220.1
981.1129	2543.0935	2106.4	1221.7
981.2397	2544.411	2105.7	1217.85
981.3665	2545.7279	2094.3	1210.1
981.4933	2547.0441	2098.4	1211.25
981.62	2548.3596	2098.4	1209.4
981.7467	2549.6744	2097.95	1213.3
981.8734	2550.9885	2071.55	1183.05
982.0001	2552.3019	2076.45	1192.9
982.1267	2553.6146	2084.95	1200.6
982.2532	2554.9266	2070.8	1187.7
982.3798	2556.2379	2073.35	1188
982.5063	2557.5485	2076.2	1191.75
982.6327	2558.8585	2070.65	1178.05
982.7592	2560.1677	2072.8	1182.8
982.8856	2561.4762	2064.75	1180.5
983.0119	2562.7841	2052.7	1161.65
983.1383	2564.0913	2048.5	1165.15
983.2646	2565.3977	2052.3	1167.85
983.3908	2566.7035	2051.5	1165.5
983.517	2568.0086	2051.15	1164.35
983.6432	2569.313	2043.3	1157
983.7694	2570.6167	2045.85	1155.75
983.8955	2571.9197	2039.35	1152.3
984.0216	2573.222	2042.25	1152.85
984.1476	2574.5236	2037.6	1149.7
984.2737	2575.8246	2036.2	1149.75
984.3996	2577.1248	2023.4	1136.5
984.5256	2578.4244	2036.3	1153.4
984.6515	2579.7232	2033.8	1148.65
984.7774	2581.0214	2057.8	1141.55
984.9032	2582.3189	2030.5	1147.7
985.029	2583.6157	2028.9	1138.7
985.1548	2584.9118	2021.9	1137.65
985.2806	2586.2072	2025.45	1138.65
985.4063	2587.5019	2023.1	1139.9
985.5319	2588.7959	2025.8	1141.75
985.6576	2590.0893	2023.25	1137.35
985.7832	2591.3819	2010.65	1127.6
985.9087	2592.6739	2012.85	1128.9
986.0343	2593.9652	2021.05	1132.5
986.1597	2595.2557	2010.8	1125.65
986.2852	2596.5456	2010.65	1122.7
986.4106	2597.8348	2007.4	1123.25
986.536	2599.1234	2003.4	1117.15
986.6614	2600.4112	2011.35	1125.75
986.7867	2601.6983	2010.1	1120.55
986.912	2602.9848	1988.9	1102
987.0372	2604.2705	1996.3	1106.6
987.1624	2605.5556	1992.25	1105.5
987.2876	2606.84	1987.5	1104.6
987.4128	2608.1237	1991.45	1106.7
987.5379	2609.4067	1972.1	1087.1
987.6629	2610.689	1976.75	1084.5
987.788	2611.9707	1972.15	1083.3
987.913	2613.2516	1973.7	1082.35
988.0379	2614.5319	1951.25	1066.95
988.1629	2615.8115	1957.8	1073.3
988.2878	2617.0903	1959.25	1073.35
988.4126	2618.3685	1956	1070.55
988.5375	2619.6461	1947.1	1059.95
988.6622	2620.9229	1944	1060.9
988.787	2622.199	1942.65	1058.35
988.9117	2623.4745	1936.65	1050.45
989.0364	2624.7493	1937.5	1052.7
989.161	2626.0234	1932.9	1048.5
989.2857	2627.2968	1934.6	1050.5
989.4102	2628.5695	1927.95	1043.4
989.5348	2629.8415	1926.2	1042.2
989.6593	2631.1128	1926.1	1039.9
989.7837	2632.3835	1912.75	1028.2
989.9082	2633.6535	1912.3	1031.75
990.0326	2634.9228	1914.5	1033.5
990.1569	2636.1914	1916.15	1034.1
990.2812	2637.4593	1903.05	1015
990.4055	2638.7265	1909.15	1024.5
990.5298	2639.9931	1902	1017.35
990.654	2641.259	1899.35	1012.2
990.7782	2642.5242	1904.05	1019.95
990.9023	2643.7887	1890.75	1006.35
991.0264	2645.0525	1891.8	1009.25
991.1505	2646.3156	1887.35	1002.9
991.2745	2647.5781	1886.6	1001.75
991.3985	2648.8398	1879.65	996.75
991.5225	2650.1009	1890.05	997.9
991.6464	2651.3613	1880.2	995.2
991.7703	2652.6211	1866.8	983.65
991.8942	2653.8801	1869.3	985.15
992.018	2655.1385	1866.6	980.7
992.1418	2656.3961	1860.7	977.4
992.2655	2657.6531	1862.8	978.15
992.3892	2658.9094	1860	976.5
992.5129	2660.1651	1866.35	983
992.6366	2661.42	1854.55	971.9
992.7602	2662.6743	1864.8	981.05
992.8837	2663.9279	1854.4	975.2
993.0073	2665.1808	1865.45	981.8
993.1307	2666.433	1861	976.25
993.2542	2667.6846	1858.35	975.9
993.3776	2668.9354	1863.55	975.55
993.501	2670.1856	1864.3	980
993.6244	2671.4351	1861.35	978.55
993.7477	2672.6839	1856.2	972.45
993.8709	2673.9321	1850.7	966.9
993.9942	2675.1795	1846.05	964.3
994.1174	2676.4263	1861.6	977.95
994.2405	2677.6724	1858.6	975.8
994.3637	2678.9179	1870	985.85
994.4868	2680.1626	1846.65	964.7
994.6098	2681.4067	1853	968.9
994.7328	2682.6501	1853.45	971.6
994.8558	2683.8928	1846.85	962.95
994.9788	2685.1348	1834.15	952.95
995.1017	2686.3761	1837.6	951.2
995.2245	2687.6168	1837.9	954.75
995.3474	2688.8568	1828.5	943.85
995.4702	2690.0961	1817.75	935.05
995.5929	2691.3348	1823.7	940.2
995.7156	2692.5727	1818.35	935.7
995.8383	2693.81	1809.95	925.7
995.961	2695.0466	1810.7	930.55
996.0836	2696.2826	1810.6	925.5
996.2062	2697.5178	1805.85	918.4
996.3287	2698.7524	1806.85	921.55
996.4512	2699.9863	1815.55	930.55
996.5737	2701.2195	1805.2	922.5
996.6961	2702.452	1808.6	920.9
996.8185	2703.6839	1821.05	937.1
996.9408	2704.9151	1813.1	931.25
997.0631	2706.1456	1812	927.4
997.1854	2707.3755	1817.95	935.15
997.3077	2708.6046	1834.1	951.6
997.4299	2709.8331	1835.65	952.8
997.552	2711.0609	1833.75	950.75
997.6742	2712.2881	1849.95	966
997.7963	2713.5145	1849.85	964.3
997.9183	2714.7403	1854.95	971.15
998.0403	2715.9654	1866.05	980.9
998.1623	2717.1899	1896.4	1000.35
998.2842	2718.4136	1881.05	997.85
998.4062	2719.6367	1894.35	1013.55
998.528	2720.8591	1902.2	1012.75
998.6498	2722.0809	1913.55	1031.3
998.7716	2723.3019	1915.65	1029.85
998.8934	2724.5223	1928.5	1045.35
999.0151	2725.7421	1930.9	1045.35
999.1368	2726.9611	1928.45	1043.7
999.2584	2728.1795	1936.15	1048.8
999.38	2729.3972	1921.6	1037.15
999.5016	2730.6142	1917.5	1021.75
999.6231	2731.8306	1892.75	1010.1
999.7446	2733.0462	1874.75	988.9
999.8661	2734.2612	1866.1	979.8
999.9875	2735.4756	1837.35	951.85
1000.1089	2736.6892	1818.65	935.9
1000.2302	2737.9022	1798.2	918.45
1000.3515	2739.1145	1789.3	908.4
1000.4728	2740.3262	1779.85	888.7
1000.594	2741.5372	1764.4	882.7
1000.7152	2742.7475	1749.7	866.6
1000.8363	2743.9571	1749.15	865.1
1000.9575	2745.1661	1728.3	840.35
1001.0785	2746.3744	1721.65	838.35
1001.1996	2747.582	1717.65	835.7
1001.3206	2748.7889	1696.35	813.6
1001.4415	2749.9952	1697.05	816
1001.5625	2751.2008	1692.95	810
1001.6833	2752.4057	1682.9	798.5
1001.8042	2753.61	1686.35	804.85
1001.925	2754.8136	1678.85	797
1002.0458	2756.0165	1668.55	788.8
1002.1665	2757.2188	1668.95	785.95
1002.2872	2758.4204	1669.5	789.15
1002.4078	2759.6213	1669	786.25
1002.5285	2760.8215	1673.7	788.5
1002.649	2762.0211	1660.2	776.5
1002.7696	2763.22	1659.4	774.9
1002.8901	2764.4182	1661.6	779.1
1003.0106	2765.6158	1644.85	763.9
1003.131	2766.8127	1647.25	762.95
1003.2514	2768.009	1650.2	767.7
1003.3717	2769.2045	1651.45	768.25
1003.492	2770.3994	1642	758.6
1003.6123	2771.5936	1633.5	750.3
1003.7325	2772.7872	1633.55	752.8
1003.8527	2773.9801	1619.65	738.9
1003.9729	2775.1723	1645.9	747.4
1004.093	2776.3639	1636	756.05
1004.2131	2777.5548	1615.2	730.65
1004.3331	2778.745	1626.6	744.85
1004.4531	2779.9346	1630.95	749.4
1004.5731	2781.1235	1629.3	746.85
1004.693	2782.3117	1616.15	735.8
1004.8129	2783.4992	1631.8	751.9
1004.9328	2784.6861	1640.45	760.9
1005.0526	2785.8723	1637.55	754.4
1005.1723	2787.0579	1642.65	759.65
1005.2921	2788.2428	1644.3	761.05
1005.4118	2789.427	1658.05	775.8
1005.5314	2790.6106	1658.2	779.25
1005.651	2791.7935	1663.65	781.7
1005.7706	2792.9757	1675	793.45
1005.8902	2794.1573	1682.5	800.6
1006.0097	2795.3382	1692.65	811.45
1006.1291	2796.5184	1700.15	820.85
1006.2485	2797.698	1718.1	835.35
1006.3679	2798.8769	1737.75	856.7
1006.4873	2800.0551	1742.6	862.3
1006.6066	2801.2327	1759.95	873.8
1006.7258	2802.4096	1775.7	896.75
1006.8451	2803.5859	1791.55	909.9
1006.9642	2804.7615	1812.35	932.15
1007.0834	2805.9364	1825.2	946.45
1007.2025	2807.1106	1854.5	972.6
1007.3216	2808.2842	1891.25	1009.35
1007.4406	2809.4572	1914.5	1034.3
1007.5596	2810.6294	1947.95	1066.3
1007.6785	2811.801	1978.95	1098.3
1007.7975	2812.972	2018.1	1139.95
1007.9163	2814.1423	2061.75	1179.5
1008.0352	2815.3119	2108.6	1228.25
1008.154	2816.4808	2149.05	1270.65
1008.2727	2817.6491	2209.85	1327.75
1008.3914	2818.8167	2241.7	1364.15
1008.5101	2819.9837	2307.55	1421.35
1008.6288	2821.15	2349.2	1469.65
1008.7474	2822.3157	2399.8	1520.25
1008.8659	2823.4807	2445.1	1563.95
1008.9844	2824.645	2499.5	1618.7
1009.1029	2825.8086	2540.15	1660
1009.2214	2826.9716	2591.75	1712
1009.3398	2828.134	2619.55	1741.1
1009.4581	2829.2957	2663.95	1785.45
1009.5764	2830.4567	2692.25	1812.4
1009.6947	2831.617	2708.9	1828
1009.813	2832.7767	2725.3	1845.3
1009.9312	2833.9358	2719.95	1841.25
1010.0493	2835.0941	2717.65	1836.35
1010.1675	2836.2519	2712.05	1831.85
1010.2855	2837.4089	2696.3	1816.6
1010.4036	2838.5653	2691.3	1812.45
1010.5216	2839.7211	2688.6	1809.4
1010.6396	2840.8761	2684.25	1801.05
1010.7575	2842.0306	2719.55	1841.4
1010.8754	2843.1843	2738.95	1862.75
1010.9932	2844.3374	2772.55	1894.4
1011.111	2845.4899	2829.4	1948.05
1011.2288	2846.6417	2894.9	2014.4
1011.3465	2847.7928	2969.85	2090.95
1011.4642	2848.9433	3040.5	2159.35
1011.5818	2850.0931	3124.75	2245.55
1011.6995	2851.2422	3197.75	2317.65
1011.817	2852.3907	3251.3	2369.8
1011.9345	2853.5385	3311.25	2430.6
1012.052	2854.6857	3388.2	2481.5
1012.1695	2855.8323	3431.65	2553.1
1012.2869	2856.9781	3470.45	2591.05
1012.4042	2858.1233	3509.65	2629.45
1012.5216	2859.2679	3572.45	2695
1012.6389	2860.4118	3611.05	2732.45
1012.7561	2861.555	3643.45	2759.75
1012.8733	2862.6976	3691.7	2812.45
1012.9905	2863.8395	3720.95	2841
1013.1076	2864.9808	3750.3	2873.2
1013.2247	2866.1214	3748.45	2869.5
1013.3417	2867.2614	3763.35	2884.4
1013.4587	2868.4007	3784.15	2904.25
1013.5757	2869.5393	3792.95	2910.55
1013.6926	2870.6773	3818.75	2936.2
1013.8095	2871.8146	3820.8	2936.15
1013.9263	2872.9513	3816	2934.25
1014.0431	2874.0874	3821.25	2939.3
1014.1599	2875.2227	3816.95	2936.2
1014.2766	2876.3574	3788.3	2907.95
1014.3933	2877.4915	3763.55	2884.25
1014.51	2878.6249	3736.9	2857.05
1014.6266	2879.7577	3720.3	2840.15
1014.7431	2880.8898	3683.35	2791.8
1014.8596	2882.0212	3681.8	2803.3
1014.9761	2883.152	3673.1	2792.9
1015.0925	2884.2821	3638.4	2760.65
1015.2089	2885.4116	3634.65	2758.2
1015.3253	2886.5405	3648.05	2769
1015.4416	2887.6686	3655.35	2772.55
1015.5579	2888.7962	3652.7	2776.25
1015.6741	2889.923	3654.95	2777.35
1015.7903	2891.0493	3678.25	2801.7
1015.9065	2892.1748	3679.35	2799.55
1016.0226	2893.2997	3693.55	2814.15
1016.1387	2894.424	3698.8	2821.8
1016.2547	2895.5476	3709.45	2830.15
1016.3707	2896.6706	3744.6	2867.65
1016.4866	2897.7929	3786.65	2907.15
1016.6025	2898.9145	3812.55	2932.95
1016.7184	2900.0355	3816.25	2937.65
1016.8342	2901.1559	3852.85	2974.65
1016.95	2902.2756	3903.65	3024.8
1017.0658	2903.3946	3923.1	3045.75
1017.1815	2904.513	3947.5	3066
1017.2971	2905.6308	3979.85	3101.95
1017.4127	2906.7479	4008.3	3129.25
1017.5283	2907.8643	4032.8	3153.6
1017.6439	2908.9801	4042.9	3165.15
1017.7594	2910.0953	4050.65	3172.65
1017.8748	2911.2098	4042.85	3160.65
1017.9902	2912.3236	4040.45	3152.9
1018.1056	2913.4368	4019.1	3135.85
1018.2209	2914.5494	3994.65	3115.95
1018.3362	2915.6613	3966	3081.2
1018.4515	2916.7725	3951.95	3072.2
1018.5667	2917.8831	3935.35	3057.7
1018.6819	2918.9931	3891.45	3009.65
1018.797	2920.1024	3865.8	2989.4
1018.9121	2921.211	3817.6	2938.35
1019.0271	2922.319	3811.85	2934.7
1019.1421	2923.4264	3809.15	2930.55
1019.2571	2924.5331	3783.9	2906.3
1019.372	2925.6391	3775.1	2896.35
1019.4869	2926.7445	3766.95	2889.95
1019.6017	2927.8493	3764.55	2886.65
1019.7165	2928.9534	3755.05	2877.3
1019.8313	2930.0569	3746.35	2863.55
1019.946	2931.1597	3748.75	2871.1
1020.0606	2932.2619	3747.8	2868.25
1020.1753	2933.3634	3737.9	2861.7
1020.2899	2934.4643	3713	2828.35
1020.4044	2935.5645	3716.4	2832
1020.5189	2936.6641	3676.85	2795.95
1020.6334	2937.763	3639.45	2760.1
1020.7478	2938.8613	3593	2713.2
1020.8622	2939.959	3548.45	2663.6
1020.9765	2941.056	3468.4	2591.55
1021.0908	2942.1523	3396.2	2517.95
1021.2051	2943.248	3300.4	2420.55
1021.3193	2944.3431	3220.15	2342.3
1021.4334	2945.4375	3113.45	2236.55
1021.5476	2946.5313	3014.8	2137.25
1021.6617	2947.6244	2912.65	2033.7
1021.7757	2948.7169	2811.05	1932.35
1021.8897	2949.8087	2731.75	1853.4
1022.0037	2950.8999	2618.25	1741.35
1022.1176	2951.9904	2547.85	1669.75
1022.2315	2953.0803	2476.65	1601.1
1022.3453	2954.1696	2412.15	1535.6
1022.4591	2955.2582	2365.8	1490.45
1022.5728	2956.3462	2312.8	1433.75
1022.6865	2957.4335	2277.9	1400
1022.8002	2958.5202	2231.65	1351.4
1022.9138	2959.6062	2203.7	1326.75
1023.0274	2960.6916	2181.75	1303.25
1023.141	2961.7764	2166.15	1285.55
1023.2545	2962.8605	2159.9	1280.9
1023.3679	2963.9439	2130.9	1253.8
1023.4813	2965.0267	2122	1243.45
1023.5947	2966.1089	2129.2	1231.05
1023.708	2967.1905	2105.3	1228.65
1023.8213	2968.2714	2095.6	1217.4
1023.9346	2969.3516	2102.5	1225.1
1024.0478	2970.4312	2115.65	1229.4
1024.1609	2971.5102	2106	1228.45
1024.274	2972.5885	2103.7	1226.9
1024.3871	2973.6662	2110.65	1227.05
1024.5002	2974.7432	2098.5	1222.8
1024.6132	2975.8196	2110.15	1230.6
1024.7261	2976.8954	2085.15	1208.5
1024.839	2977.9705	2075.95	1198.7
1024.9519	2979.045	2068.85	1192.85
1025.0647	2980.1188	2048.5	1169.85
1025.1775	2981.192	2025.8	1149.4
1025.2902	2982.2645	2010.3	1131.35
1025.4029	2983.3364	1986.6	1110.6
1025.5156	2984.4077	1955.85	1080.45
1025.6282	2985.4783	1929.5	1045.85
1025.7407	2986.5483	1895.95	1018.4
1025.8532	2987.6177	1860.15	982.75
1025.9657	2988.6864	1833.3	956.4
1026.0782	2989.7545	1794.3	914.45
1026.1906	2990.8219	1759.4	884.8
1026.3029	2991.8887	1724.5	844.55
1026.4152	2992.9548	1696.15	816.9
1026.5275	2994.0204	1661.3	785.9
1026.6397	2995.0852	1638.7	762.25
1026.7519	2996.1495	1612	734.05
1026.864	2997.2131	1589.25	712.5
1026.9761	2998.276	1563.4	686.9
1027.0882	2999.3383	1546.1	669.1
1027.2002	3000.4	1520.55	643.55
1027.3122	3001.4611	1505.05	626.2
1027.4241	3002.5215	1491.05	613.3
1027.536	3003.5812	1473	596.5
1027.6478	3004.6404	1459.7	583.6
1027.7596	3005.6989	1454.45	575.55
1027.8714	3006.7567	1437.5	559.75
1027.9831	3007.8139	1466.1	555.1
1028.0947	3008.8705	1427.5	549.25
1028.2064	3009.9264	1417.6	537.7
1028.3179	3010.9818	1412.3	534.8
1028.4295	3012.0364	1408.7	530.95
1028.541	3013.0905	1399.95	522.25
1028.6524	3014.1439	1393.7	518.4
1028.7638	3015.1966	1397.4	522.25
1028.8752	3016.2487	1393.6	517.7
1028.9865	3017.3002	1392.35	509.8
1029.0978	3018.3511	1392.8	518.75
1029.209	3019.4013	1390.75	513.65
1029.3202	3020.4509	1386.05	510.9
1029.4314	3021.4998	1390.5	513.55
1029.5425	3022.5481	1387.5	511.35
1029.6535	3023.5958	1382.35	503.25
1029.7645	3024.6428	1393.85	515.2
1029.8755	3025.6892	1386.25	508.95
1029.9864	3026.735	1387.85	511.05
1030.0973	3027.7802	1388.4	513.3
1030.2082	3028.8247	1384.75	509.25
1030.319	3029.8685	1396.75	517.85
1030.4297	3030.9118	1390	513.8
1030.5404	3031.9544	1387.4	511.65
1030.6511	3032.9963	1400.1	524.3
1030.7617	3034.0376	1406.1	530.2
1030.8723	3035.0783	1406	526.95
1030.9829	3036.1184	1413.8	536.7
1031.0934	3037.1578	1409.2	535.7
1031.2038	3038.1966	1421.9	545.65
1031.3142	3039.2348	1409.55	535.15
1031.4246	3040.2723	1424.8	539.95
1031.5349	3041.3092	1415.75	541.4
1031.6452	3042.3455	1405.7	528.75
1031.7554	3043.3811	1401.75	524.9
1031.8656	3044.4161	1409	531.55
1031.9758	3045.4505	1398.5	523.45
1032.0859	3046.4842	1394.5	519
1032.1959	3047.5173	1381.85	505.35
1032.3059	3048.5498	1383.6	508.55
1032.4159	3049.5816	1378.6	502.8
1032.5258	3050.6128	1375	497.45
1032.6357	3051.6434	1371.6	494.35
1032.7455	3052.6734	1358.55	481.65
1032.8553	3053.7027	1357.75	479.9
1032.9651	3054.7314	1349.3	473.55
1033.0748	3055.7594	1344.8	469.7
1033.1845	3056.7868	1340.2	462.5
1033.2941	3057.8136	1330.95	456.5
1033.4037	3058.8398	1332.4	458.3
1033.5132	3059.8653	1329.15	454.2
1033.6227	3060.8902	1320.25	444.65
1033.7321	3061.9145	1322.25	446.55
1033.8415	3062.9381	1311.65	435.2
1033.9509	3063.9612	1324.65	434.4
1034.0602	3064.9835	1306.65	431.15
1034.1694	3066.0053	1297.85	417.2
1034.2787	3067.0264	1284.75	407.9
1034.3878	3068.0469	1286.75	411.15
1034.497	3069.0668	1280.65	402.7
1034.6061	3070.086	1268.25	394.65
1034.7151	3071.1046	1263.8	389.1
1034.8241	3072.1226	1261.65	383.05
1034.9331	3073.1399	1251	377.3
1035.042	3074.1567	1243.55	368.9
1035.1508	3075.1727	1232	353.4
1035.2597	3076.1882	1221.9	347.05
1035.3684	3077.203	1216.2	338.7
1035.4772	3078.2173	1212.45	335.75
1035.5859	3079.2308	1194.55	314.55
1035.6945	3080.2438	1198.5	320.05
1035.8031	3081.2561	1184.8	309.95
1035.9117	3082.2678	1173.85	298.25
1036.0202	3083.2789	1176.5	300.85
1036.1286	3084.2893	1164.85	288.8
1036.2371	3085.2991	1162.2	287.75
1036.3454	3086.3083	1162.8	283.45
1036.4538	3087.3169	1152.75	273.6
1036.562	3088.3248	1146.8	270.05
1036.6703	3089.3321	1144.2	264.65
1036.7785	3090.3388	1131.65	258.05
1036.8866	3091.3449	1127.65	253.1
1036.9948	3092.3503	1125.65	247
1037.1028	3093.3551	1126.85	253.75
1037.2108	3094.3593	1119.8	247.35
1037.3188	3095.3629	1117.8	243.15
1037.4267	3096.3658	1114.5	239.7
1037.5346	3097.3681	1111.5	235.35
1037.6425	3098.3698	1109	231.35
1037.7503	3099.3708	1112.3	229.05
1037.858	3100.3713	1103.6	227.55
1037.9657	3101.3711	1100.95	224.55
1038.0734	3102.3702	1236.95	226.25
1038.181	3103.3688	1095.4	219
1038.2886	3104.3667	1092.8	218.55
1038.3961	3105.364	1090.35	216.2
1038.5036	3106.3607	1090.75	214.4
1038.611	3107.3568	1085.95	208.35
1038.7184	3108.3522	1079.7	205.6
1038.8257	3109.347	1083	207.55
1038.933	3110.3412	1081.4	203.1
1039.0403	3111.3348	1076.4	202.45
1039.1475	3112.3277	1077.5	202.65
1039.2547	3113.32	1073.15	200.6
1039.3618	3114.3117	1077.25	201.55
1039.4689	3115.3028	1071.7	197.35
1039.5759	3116.2932	1069.4	192.65
1039.6829	3117.2831	1072.3	190.55
1039.7898	3118.2723	1061.9	188
1039.8967	3119.2608	1064.45	187.85
1040.0035	3120.2488	1062.75	187.45
1040.1103	3121.2361	1059.25	185.7
1040.2171	3122.2229	1055.3	178.45
1040.3238	3123.209	1058.55	182.55
1040.4305	3124.1944	1052.4	177.7
1040.5371	3125.1793	1059.75	182.2
1040.6437	3126.1635	1056.5	182.5
1040.7502	3127.1471	1054.65	179.8
1040.8567	3128.1301	1050.95	177.2
1040.9631	3129.1125	1047.7	171.35
1041.0695	3130.0942	1052.05	177.55
1041.1759	3131.0753	1053.3	168.45
1041.2822	3132.0558	1044.6	166.25
1041.3884	3133.0357	1043.9	167.65
1041.4946	3134.015	1044	168.25
1041.6008	3134.9936	1046.75	168.35
1041.7069	3135.9716	1056.7	164.1
1041.813	3136.949	1041.35	166
1041.919	3137.9258	1057.5	163.2
1042.025	3138.902	1046.15	164.65
1042.1309	3139.8775	1037.2	161.8
1042.2368	3140.8524	1035.7	156.75
1042.3427	3141.8267	1032.05	153.4
1042.4485	3142.8004	1032.1	156.95
1042.5542	3143.7735	1037.7	156.1
1042.6599	3144.7459	1033.5	158.55
1042.7656	3145.7178	1030.2	153.3
1042.8712	3146.689	1025.2	151.45
1042.9768	3147.6596	1027.55	150.1
1043.0823	3148.6295	1028.3	152.95
1043.1878	3149.5989	1026.9	151.45
1043.2932	3150.5676	1022.7	147.75
1043.3986	3151.5357	1019.1	146.9
1043.5039	3152.5032	1020.5	147.2
1043.6092	3153.4701	1018.4	145.55
1043.7145	3154.4364	1021.9	143.65
1043.8197	3155.402	1014.6	138.8
1043.9248	3156.367	1016.45	138.2
1044.03	3157.3315	1046.8	139.6
1044.135	3158.2952	1014.9	139.3
1044.24	3159.2584	1009.4	134.9
1044.345	3160.221	1011.5	134.5
1044.4499	3161.1829	1014.75	141.75
1044.5548	3162.1442	1011.25	136.75
1044.6596	3163.105	1010.7	136.8
1044.7644	3164.065	1008.55	133.85
1044.8692	3165.0245	1010.9	134.1
1044.9739	3165.9834	1009.15	135.65
1045.0785	3166.9416	1005.5	129.85
1045.1831	3167.8993	1003.45	128.6
1045.2877	3168.8563	1003.25	126.75
1045.3922	3169.8127	999	124.3
1045.4966	3170.7684	1001.35	126.75
1045.6011	3171.7236	1001.85	126.15
1045.7054	3172.6782	1000.5	124.8
1045.8098	3173.6321	1001.05	126.15
1045.914	3174.5854	1004.35	125.45
1046.0183	3175.5381	996.75	122.9
1046.1224	3176.4902	996.6	122.1
1046.2266	3177.4417	995.55	122.85
1046.3307	3178.3926	993.85	121.25
1046.4347	3179.3428	991.55	118.85
1046.5387	3180.2924	993.6	121.65
1046.6427	3181.2415	994.7	120.2
1046.7466	3182.1899	992.85	117.95
1046.8504	3183.1377	994.85	120.45
1046.9542	3184.0848	996.7	120
1047.058	3185.0314	992.65	116.65
1047.1617	3185.9773	990.65	115.4
1047.2654	3186.9227	988.85	113.6
1047.369	3187.8674	990.55	116.35
1047.4726	3188.8115	989.2	109.75
1047.5761	3189.755	983.8	109.75
1047.6796	3190.6979	987.75	112.5
1047.783	3191.6402	984.4	112.15
1047.8864	3192.5818	985.95	110.7
1047.9898	3193.5229	1002.85	107.8
1048.0931	3194.4633	986.65	112.6
1048.1963	3195.4031	981.65	106.5
1048.2995	3196.3423	978.6	103.1
1048.4027	3197.2809	981.75	106.25
1048.5058	3198.2189	980.8	104.95
1048.6089	3199.1563	990.9	112.4
1048.7119	3200.0931	981.05	107.2
1048.8148	3201.0292	979	105.05
1048.9178	3201.9648	974.7	100.05
1049.0206	3202.8997	980.2	104.2
1049.1235	3203.834	976.75	99.8
1049.2262	3204.7677	977.45	102.6
1049.329	3205.7008	976.45	101.85
1049.4317	3206.6333	975.4	102.7
1049.5343	3207.5652	974.35	95.55
1049.6369	3208.4964	974.15	100.55
1049.7394	3209.4271	976.8	103.2
1049.8419	3210.3571	973.75	101.5
1049.9444	3211.2865	978.85	105.4
1050.0468	3212.2154	972.45	98.7
1050.1491	3213.1436	978.6	102.85
1050.2514	3214.0712	979.15	98.9
1050.3537	3214.9982	971.8	98.9
1050.4559	3215.9246	968.05	92.45
1050.5581	3216.8503	963.4	89.75
1050.6602	3217.7755	969.7	93.45
1050.7623	3218.7001	966.25	92.15
1050.8643	3219.624	966.2	91.55
1050.9663	3220.5473	968.6	95.45
1051.0682	3221.4701	972.65	96.45
1051.1701	3222.3922	970.45	96.3
1051.2719	3223.3137	965.25	93.15
1051.3737	3224.2346	964.15	89.65
1051.4754	3225.1549	966.2	95.05
1051.5771	3226.0746	967.9	95.25
1051.6788	3226.9937	968.35	94.05
1051.7804	3227.9121	963.65	90.85
1051.8819	3228.83	962.1	87.1
1051.9834	3229.7473	961.75	87.15
1052.0849	3230.6639	962.9	87.55
1052.1863	3231.5799	959.85	85.4
1052.2876	3232.4954	963.35	90.55
1052.3889	3233.4102	958.85	85.7
1052.4902	3234.3244	957.1	81.9
1052.5914	3235.238	957.45	85.7
1052.6926	3236.151	982.3	85.8
1052.7937	3237.0634	959.2	88
1052.8948	3237.9752	956.6	81.65
1052.9958	3238.8864	958.05	84.55
1053.0968	3239.797	959.25	84.2
1053.1977	3240.7069	956	81.6
1053.2986	3241.6163	958.4	82.35
1053.3994	3242.5251	955.45	81.65
1053.5002	3243.4332	954.25	82.4
1053.6009	3244.3408	955.95	82.6
1053.7016	3245.2477	951.7	79.9
1053.8022	3246.154	955	82.5
1053.9028	3247.0598	954.5	79.2
1054.0034	3247.9649	954.7	80.8
1054.1039	3248.8694	949.45	74.05
1054.2043	3249.7733	951.95	78.65
1054.3047	3250.6766	949.65	74.9
1054.4051	3251.5793	949.55	75.85
1054.5054	3252.4814	946.65	74.35
1054.6056	3253.3829	947.45	75.95
1054.7058	3254.2838	944.5	69.85
1054.806	3255.1841	945.6	73.95
1054.9061	3256.0838	944.35	68.8
1055.0061	3256.9829	942.65	68.95
1055.1062	3257.8814	947.25	72.65
1055.2061	3258.7792	943.55	66.55
1055.306	3259.6765	944.25	71.7
1055.4059	3260.5731	942.15	68.15
1055.5057	3261.4692	943.75	69.8
1055.6055	3262.3647	941.55	67.35
1055.7052	3263.2595	937.65	65.6
1055.8049	3264.1538	937.85	67.3
1055.9045	3265.0474	939.25	63.6
1056.0041	3265.9404	933.1	60
1056.1036	3266.8329	935.7	63.2
1056.2031	3267.7247	941	57.35
1056.3025	3268.616	931.55	60.9
1056.4019	3269.5066	932.1	59.25
1056.5013	3270.3966	930.1	54.55
1056.6005	3271.286	923.1	51.9
