Software Version:	3.9.2.0
Unit SN:	10000200
Spectrometer SN:	6960
Date:	3/8/2024 12:05:17 PM
Data Line Index:	25
Spectral Points:	2048
Integration time (ms):	125
Averages:	20
Delay (ms):	30000
Sequence Number:	1
Processing:	dark subtract
Laser Power (mW):	300
Laser Current (mA):	823
Laser Diode Temp (C):	25.1
Laser Case Temp (C):	25.6
System Temp (C):	25.6
Spectrometer Temp (C):	23.5
CCD Temp (C):	0.008
Secondary Temp (C):	20.014
Heatsink Temp (C):	20.38
CCDPCB Temp (C):	35.595
SecondaryPCB Temp (C):	28.381

Wavelength	RamanShift	Raw Counts	Dark Subtracted
787.061	30.1047	413.85	2.55
787.2016	32.3739	411.6	2.35
787.3422	34.6426	411.7	1.7
787.4828	36.9109	413.9	2.25
787.6235	39.1787	419.55	5.75
787.7642	41.4461	424.55	4.75
787.9049	43.7131	430.8	7.95
788.0456	45.9796	434.9	9.55
788.1863	48.2456	439.25	9.55
788.3271	50.5112	440.8	9.5
788.4679	52.7764	445.7	10.35
788.6087	55.0411	452.65	12
788.7496	57.3054	457.05	10.25
788.8904	59.5692	460.4	11.4
789.0313	61.8326	461.3	12.25
789.1722	64.0955	468.65	15.1
789.3132	66.3579	474.75	16.1
789.4541	68.6199	483.2	19.9
789.5951	70.8815	493.1	25.3
789.7361	73.1426	509.2	39
789.8771	75.4032	545.05	72.4
790.0181	77.6634	616.55	140.3
790.1592	79.9231	787.25	305.3
790.3003	82.1824	1147.75	655.45
790.4414	84.4412	1733.15	1221.85
790.5825	86.6995	2482.85	1949.2
790.7237	88.9574	3194.3	2646.55
790.8648	91.2148	3654	3090.55
791.006	93.4717	3870.05	3297.1
791.1472	95.7282	3881.2	3306.05
791.2885	97.9842	3884.5	3304.6
791.4297	100.2398	3824.7	3244.3
791.571	102.4949	3769.35	3185.55
791.7123	104.7495	3728.05	3139.2
791.8536	107.0036	3673.1	3085.5
791.9949	109.2573	3578.25	2990.45
792.1363	111.5105	3496.35	2904.85
792.2777	113.7632	3395.65	2805.3
792.4191	116.0154	3290.65	2688.5
792.5605	118.2672	3176.5	2583.7
792.7019	120.5185	3080.25	2481.55
792.8434	122.7693	2990.1	2386.25
792.9849	125.0197	2902.7	2296
793.1264	127.2696	2845.55	2236.25
793.2679	129.519	2795.55	2183.7
793.4094	131.7679	2764.3	2150.55
793.551	134.0163	2760.3	2143.95
793.6926	136.2642	2741.95	2122.95
793.8342	138.5117	2727.35	2099.75
793.9758	140.7587	2690.85	2065.6
794.1175	143.0052	2654.4	2025.6
794.2591	145.2512	2581.7	1952.6
794.4008	147.4967	2547.9	1915.7
794.5425	149.7417	2509.1	1876
794.6842	151.9863	2475.55	1835.7
794.826	154.2304	2477.6	1835.95
794.9677	156.4739	2465.8	1817.7
795.1095	158.717	2479.2	1833.6
795.2513	160.9596	2497.15	1844.7
795.3931	163.2017	2505.85	1854.75
795.535	165.4433	2529.25	1873.05
795.6768	167.6844	2513.4	1860.55
795.8187	169.925	2460.8	1800.2
795.9606	172.1651	2418.4	1758.15
796.1025	174.4047	2379.1	1714
796.2445	176.6439	2342.9	1677.75
796.3864	178.8825	2317.75	1646.4
796.5284	181.1206	2307.1	1630.45
796.6704	183.3582	2301.75	1624.85
796.8124	185.5954	2292.2	1613.3
796.9544	187.832	2289.7	1601.75
797.0965	190.0681	2296.6	1611.95
797.2386	192.3037	2303.2	1611.3
797.3806	194.5388	2310.15	1616.25
797.5228	196.7734	2311.4	1616.6
797.6649	199.0075	2324.3	1631.85
797.807	201.2411	2349.35	1651.5
797.9492	203.4742	2370	1671.55
798.0914	205.7068	2396.15	1688.95
798.2336	207.9389	2414.15	1709.95
798.3758	210.1704	2435.85	1738.15
798.518	212.4015	2440.7	1755
798.6603	214.632	2427.8	1747.8
798.8025	216.862	2426.2	1747.5
798.9448	219.0915	2434.55	1751.75
799.0871	221.3205	2452.35	1764.1
799.2294	223.549	2450.8	1769.6
799.3718	225.777	2445	1761.4
799.5141	228.0044	2446	1754.95
799.6565	230.2314	2431	1739.05
799.7989	232.4578	2417.5	1719.7
799.9413	234.6837	2412	1707.05
800.0837	236.909	2394.5	1688.15
800.2262	239.1339	2406.5	1675.7
800.3687	241.3582	2395.9	1678.15
800.5111	243.582	2421.75	1674.25
800.6536	245.8053	2424.6	1691.7
800.7961	248.0281	2416.6	1689
800.9387	250.2503	2430.85	1699.65
801.0812	252.472	2439.9	1708.25
801.2238	254.6932	2444.1	1713.45
801.3664	256.9139	2444.05	1709.8
801.509	259.134	2464.1	1725.35
801.6516	261.3536	2494.1	1759.45
801.7942	263.5727	2544.25	1810.2
801.9369	265.7912	2577.95	1842.25
802.0795	268.0092	2638.65	1901.5
802.2222	270.2267	2694.45	1955.55
802.3649	272.4436	2740.3	1999.55
802.5076	274.6601	2780.25	2029.5
802.6504	276.8759	2794.5	2049.85
802.7931	279.0913	2822.6	2076.75
802.9359	281.3061	2828.35	2083.3
803.0787	283.5204	2849.65	2100.45
803.2215	285.7341	2863.05	2106.75
803.3643	287.9473	2887.25	2132.85
803.5071	290.16	2884.15	2129.35
803.6499	292.3721	2847.05	2097.4
803.7928	294.5837	2832.85	2079.4
803.9357	296.7947	2805.1	2051.15
804.0786	299.0052	2791.2	2036.55
804.2215	301.2152	2780	2021.1
804.3644	303.4246	2752.6	1998.05
804.5074	305.6334	2733.2	1981
804.6503	307.8418	2715.8	1956.6
804.7933	310.0495	2683.35	1924.2
804.9363	312.2568	2655.35	1899.65
805.0793	314.4635	2597.55	1838
805.2223	316.6696	2546.4	1783.95
805.3653	318.8752	2520.15	1745.65
805.5084	321.0802	2497.65	1731.2
805.6514	323.2847	2490.35	1723.35
805.7945	325.4887	2497.35	1730.2
805.9376	327.692	2511.4	1742
806.0807	329.8949	2550	1778.65
806.2238	332.0972	2564.25	1789.65
806.367	334.2989	2590.9	1814.3
806.5101	336.5001	2584.1	1807.15
806.6533	338.7007	2553.6	1775.8
806.7965	340.9008	2507.8	1728.55
806.9397	343.1003	2457.2	1679.35
807.0829	345.2992	2427.75	1647.1
807.2261	347.4976	2391.55	1607.65
807.3693	349.6955	2359.25	1571.55
807.5126	351.8927	2335.9	1548.6
807.6559	354.0895	2329.3	1530.15
807.7991	356.2856	2315.1	1526.4
807.9424	358.4812	2303.5	1514.8
808.0857	360.6763	2293.85	1506
808.2291	362.8707	2297.75	1505.5
808.3724	365.0646	2306.2	1509.9
808.5158	367.258	2314.75	1517.9
808.6591	369.4508	2330.65	1526.75
808.8025	371.643	2358.1	1559.35
808.9459	373.8346	2385.55	1583.3
809.0893	376.0257	2417.85	1614.1
809.2327	378.2162	2430.6	1629.95
809.3762	380.4062	2428.15	1626.35
809.5196	382.5956	2406.75	1609.65
809.6631	384.7844	2374.8	1579.4
809.8066	386.9726	2336.3	1539.6
809.9501	389.1603	2316.5	1523.45
810.0936	391.3474	2338.8	1511.25
810.2371	393.5339	2314.95	1513.55
810.3806	395.7199	2318.15	1524.05
810.5241	397.9052	2338.25	1541.9
810.6677	400.09	2374.15	1579.2
810.8113	402.2743	2425.7	1626.6
810.9548	404.4579	2454.8	1656.8
811.0984	406.641	2489.95	1690.25
811.2421	408.8235	2541.3	1739.35
811.3857	411.0054	2581.5	1774.1
811.5293	413.1868	2651.1	1843.05
811.673	415.3675	2691.65	1877.8
811.8166	417.5477	2679.95	1866.7
811.9603	419.7273	2625.5	1813.25
812.104	421.9064	2544	1723.15
812.2477	424.0848	2483.3	1669.2
812.3914	426.2627	2431.85	1618.35
812.5351	428.4399	2374.5	1561.35
812.6788	430.6166	2330.4	1506.85
812.8226	432.7928	2281.25	1459.65
812.9663	434.9683	2240	1418.95
813.1101	437.1432	2218.5	1396.85
813.2539	439.3176	2207.6	1384.7
813.3977	441.4914	2178.55	1361.25
813.5415	443.6645	2180.1	1360.8
813.6853	445.8371	2185.3	1362.9
813.8291	448.0091	2184.05	1364.3
813.973	450.1806	2179.7	1356.1
814.1168	452.3514	2167.9	1345.05
814.2607	454.5216	2169.9	1342.65
814.4046	456.6913	2175.5	1351.25
814.5485	458.8603	2178.3	1355.35
814.6924	461.0288	2181.15	1358.55
814.8363	463.1967	2172.85	1353.6
814.9802	465.3639	2176.3	1350.9
815.1241	467.5306	2171.8	1344.6
815.2681	469.6967	2161.4	1339.55
815.412	471.8622	2161.1	1338.4
815.556	474.0271	2152.9	1329.4
815.7	476.1914	2159.75	1332.9
815.844	478.3551	2153.3	1327.9
815.988	480.5182	2147.35	1319.55
816.132	482.6807	2157.4	1337.2
816.276	484.8426	2167.7	1346.4
816.4201	487.0039	2222.8	1398.35
816.5641	489.1647	2258.15	1427.85
816.7082	491.3248	2309.4	1478.9
816.8522	493.4843	2317.15	1489.25
816.9963	495.6432	2309.55	1481.4
817.1404	497.8015	2294.85	1457.85
817.2845	499.9592	2247.2	1412.1
817.4286	502.1163	2202.2	1365.25
817.5727	504.2728	2157.6	1325.4
817.7168	506.4287	2131.3	1299.85
817.861	508.5839	2110.7	1280.15
818.0051	510.7386	2110.65	1281.55
818.1493	512.8927	2115.1	1277.1
818.2935	515.0461	2113.4	1276.25
818.4377	517.199	2137.85	1301.1
818.5818	519.3512	2172.85	1332.4
818.726	521.5029	2245.5	1400.65
818.8703	523.6539	2296.9	1460.4
819.0145	525.8043	2297.1	1458.8
819.1587	527.9541	2250.65	1406.55
819.303	530.1033	2189.75	1349.55
819.4472	532.2519	2142.25	1302.2
819.5915	534.3999	2116.15	1273.3
819.7357	536.5472	2119.75	1277.4
819.88	538.694	2118.7	1281.2
820.0243	540.8401	2131.6	1289.05
820.1686	542.9856	2147.95	1300.3
820.3129	545.1305	2157.15	1304.4
820.4572	547.2748	2169.65	1317.95
820.6016	549.4185	2191.1	1340.4
820.7459	551.5615	2181.9	1330.9
820.8902	553.704	2211.35	1363.4
821.0346	555.8458	2228.8	1382.05
821.1789	557.987	2248.95	1402.85
821.3233	560.1276	2272.55	1423.5
821.4677	562.2675	2324.45	1477.55
821.6121	564.4069	2379.15	1527.7
821.7565	566.5456	2419.55	1572.65
821.9009	568.6837	2391.65	1544
822.0453	570.8212	2342.75	1495.55
822.1897	572.958	2266.35	1416.2
822.3342	575.0942	2222.3	1376.85
822.4786	577.2299	2177.95	1332.05
822.6231	579.3648	2147.8	1304.4
822.7675	581.4992	2130.05	1288.35
822.912	583.6329	2136.4	1297.05
823.0565	585.766	2169.7	1325.25
823.201	587.8985	2209.75	1365.3
823.3454	590.0304	2246.15	1385.1
823.4899	592.1616	2273.7	1418.1
823.6345	594.2922	2283.05	1427.8
823.779	596.4222	2229.5	1375.2
823.9235	598.5515	2177.55	1323.05
824.068	600.6802	2126	1269.1
824.2126	602.8083	2094.15	1240.65
824.3571	604.9358	2088.6	1231.05
824.5017	607.0626	2085.95	1226.3
824.6462	609.1888	2098	1234.55
824.7908	611.3144	2115.05	1253.5
824.9354	613.4393	2156.75	1296.55
825.08	615.5636	2213.4	1351.3
825.2246	617.6873	2249.95	1390.05
825.3692	619.8103	2270.45	1408.7
825.5138	621.9327	2261.45	1397.25
825.6584	624.0544	2221.75	1364.4
825.803	626.1756	2181.5	1323.75
825.9477	628.2961	2129.9	1268.8
826.0923	630.4159	2109.75	1246.75
826.237	632.5351	2123.55	1259.15
826.3816	634.6537	2098.45	1236.05
826.5263	636.7716	2091.2	1225.65
826.6709	638.8889	2086.35	1222.65
826.8156	641.0056	2095.8	1227.25
826.9603	643.1216	2097.85	1232.4
827.105	645.237	2093.3	1227.4
827.2497	647.3518	2083.05	1222.65
827.3944	649.4659	2056.9	1195.45
827.5391	651.5793	2044.2	1182.15
827.6838	653.6922	2025.55	1161.5
827.8285	655.8043	2012.9	1151.7
827.9733	657.9159	2002.4	1137.2
828.118	660.0268	2009.6	1143.35
828.2627	662.137	2006.55	1139.9
828.4075	664.2466	2002.55	1130.2
828.5522	666.3556	1999.8	1133.75
828.697	668.4639	1990.1	1119.35
828.8418	670.5716	1980.5	1112.4
828.9865	672.6786	1980.2	1113.25
829.1313	674.785	1973.85	1104
829.2761	676.8907	1973.2	1104.25
829.4209	678.9958	1966.05	1100
829.5657	681.1002	1956.6	1085.85
829.7105	683.204	1973.25	1099.8
829.8553	685.3072	1971.35	1098.4
830.0001	687.4097	1963.75	1092
830.1449	689.5115	1968.3	1095.35
830.2898	691.6127	1961.85	1087.95
830.4346	693.7132	1957.2	1085.65
830.5794	695.8131	1974.45	1084.3
830.7243	697.9123	1976.15	1101.8
830.8691	700.0109	1977.2	1103.5
831.014	702.1089	1991.65	1118.75
831.1588	704.2061	1995.5	1119.6
831.3037	706.3028	2016.15	1141.2
831.4486	708.3987	2049.3	1175.8
831.5935	710.4941	2052.3	1180.55
831.7383	712.5887	2050.3	1177.65
831.8832	714.6827	2040.65	1164.1
832.0281	716.7761	2046.85	1175.2
832.173	718.8688	2050.15	1175.8
832.3179	720.9608	2057.6	1175.8
832.4628	723.0522	2068.1	1186.1
832.6077	725.1429	2097.4	1220.4
832.7527	727.233	2130.5	1249.8
832.8976	729.3224	2199.55	1320.8
833.0425	731.4112	2233.5	1354.85
833.1874	733.4993	2238.35	1355.55
833.3324	735.5867	2179.45	1301
833.4773	737.6735	2117.85	1237.95
833.6222	739.7596	2062.75	1181.75
833.7672	741.845	2048.9	1169.7
833.9122	743.9298	2030.1	1147.05
834.0571	746.014	2040.75	1165
834.2021	748.0974	2050.15	1166.65
834.347	750.1802	2046.2	1164.05
834.492	752.2624	2044.75	1164.75
834.637	754.3439	2023.85	1142.15
834.782	756.4247	2035.4	1145.5
834.9269	758.5048	2033.1	1152.1
835.0719	760.5843	2058.25	1174.7
835.2169	762.6631	2074	1189.45
835.3619	764.7413	2137.9	1258.25
835.5069	766.8188	2220.5	1334.2
835.6519	768.8956	2295.15	1406.4
835.7969	770.9718	2350.65	1467.9
835.9419	773.0473	2343.6	1459.75
836.0869	775.1221	2319.8	1436.1
836.232	777.1962	2303.9	1421.3
836.377	779.2697	2359.65	1474.3
836.522	781.3426	2450.95	1551.45
836.667	783.4147	2485.7	1598.65
836.8121	785.4862	2468.15	1582.75
836.9571	787.557	2395.2	1510.3
837.1021	789.6271	2269.65	1383.05
837.2472	791.6966	2165.65	1280.15
837.3922	793.7654	2069.5	1182.55
837.5373	795.8335	2022.45	1136.1
837.6823	797.901	1989	1102.3
837.8274	799.9678	1975.4	1089
837.9724	802.0339	1983.05	1097.05
838.1175	804.0993	1987.95	1089.7
838.2626	806.1641	1969.5	1079.3
838.4076	808.2282	1959.8	1072.95
838.5527	810.2916	1933.05	1043.8
838.6978	812.3544	1926.45	1041.2
838.8428	814.4164	1926.5	1039.6
838.9879	816.4778	1924.1	1033.25
839.133	818.5385	1938.45	1049.75
839.2781	820.5986	1957.35	1071.25
839.4232	822.658	2022.7	1136.15
839.5682	824.7166	2084.9	1196.25
839.7133	826.7747	2166.9	1276.75
839.8584	828.832	2235.85	1346.55
840.0035	830.8886	2305.05	1413.3
840.1486	832.9446	2316.15	1422.75
840.2937	834.9999	2271.75	1383.4
840.4388	837.0545	2204.2	1310.55
840.5839	839.1085	2132.95	1240.25
840.729	841.1618	2067.25	1174.25
840.8741	843.2143	2015.1	1125.55
841.0192	845.2662	1986.4	1094.5
841.1643	847.3175	1966.5	1076.3
841.3095	849.368	1952.9	1064.25
841.4546	851.4179	1953.85	1061.55
841.5997	853.467	1952.5	1062.3
841.7448	855.5155	1955.65	1065.65
841.8899	857.5633	1957.2	1065.95
842.0351	859.6105	1952.65	1062.35
842.1802	861.6569	1932.65	1039.9
842.3253	863.7027	1934.65	1040.45
842.4704	865.7478	1914	1022.2
842.6156	867.7922	1912.05	1019.5
842.7607	869.8359	1901.95	1008.2
842.9058	871.8789	1897.3	1005.5
843.0509	873.9212	1935.75	1009.55
843.1961	875.9629	1909.7	1016.95
843.3412	878.0039	1918.35	1023.1
843.4863	880.0441	1933.3	1041.5
843.6315	882.0837	1949.2	1055.85
843.7766	884.1226	1978.75	1082.25
843.9218	886.1609	2007.55	1116.55
844.0669	888.1984	2049.3	1155.95
844.212	890.2352	2089.15	1197.85
844.3572	892.2714	2111.65	1214.35
844.5023	894.3069	2081.15	1186.65
844.6475	896.3416	2020.35	1126.25
844.7926	898.3757	1985.75	1086.8
844.9377	900.4091	1974.05	1075.45
845.0829	902.4418	1972.35	1072.3
845.228	904.4739	1982.15	1083.15
845.3732	906.5052	1995	1100.65
845.5183	908.5358	1989.35	1092.65
845.6635	910.5658	1961.9	1060.05
845.8086	912.595	1927.1	1028.45
845.9538	914.6236	1898.35	1001
846.0989	916.6515	1872.3	975.95
846.2441	918.6786	1860.5	962.45
846.3892	920.7051	1852.7	955.2
846.5344	922.7309	1845.15	947.45
846.6795	924.756	1843	948.35
846.8246	926.7804	1868.05	969.05
846.9698	928.8041	1859.9	961.4
847.1149	930.8272	1881.55	983.1
847.2601	932.8495	1888.55	992.95
847.4052	934.8711	1898.85	1002.4
847.5504	936.892	1907.9	1010.9
847.6955	938.9123	1924.95	1026.5
847.8407	940.9318	1938.05	1041.35
847.9858	942.9506	1966.9	1067.65
848.131	944.9688	1940.4	1042.5
848.2761	946.9862	1925	1027.85
848.4213	949.003	1884.5	987.8
848.5664	951.019	1867.5	968.4
848.7115	953.0344	1845.4	944.65
848.8567	955.0491	1840.45	938.3
849.0018	957.063	1837.5	937.65
849.147	959.0763	1836.25	937.85
849.2921	961.0888	1829.75	930.1
849.4373	963.1007	1827.9	931
849.5824	965.1119	1824.45	932.15
849.7275	967.1223	1808.55	918
849.8727	969.1321	1818.05	922.95
850.0178	971.1412	1809.95	914
850.1629	973.1495	1804.55	906.3
850.3081	975.1572	1830.9	899.9
850.4532	977.1641	1804.1	905.8
850.5983	979.1704	1810.7	911.8
850.7435	981.1759	1806.1	904.65
850.8886	983.1808	1789.1	886.6
851.0337	985.1849	1794.75	884.8
851.1788	987.1884	1797.6	897.15
851.324	989.1911	1813.05	910
851.4691	991.1932	1806.75	907.9
851.6142	993.1945	1797.5	899.65
851.7593	995.1951	1804.55	906.45
851.9045	997.1951	1801.35	897.15
852.0496	999.1943	1804.9	903.25
852.1947	1001.1928	1799.35	899.65
852.3398	1003.1906	1803.75	905.2
852.4849	1005.1877	1825.15	922.3
852.63	1007.1841	1845.8	947.05
852.7751	1009.1798	1860	960.9
852.9202	1011.1748	1849	951.5
853.0653	1013.1691	1827.5	927.75
853.2104	1015.1627	1797.4	897.05
853.3555	1017.1556	1772.2	872.1
853.5006	1019.1477	1748.7	847.5
853.6457	1021.1392	1732.85	835.05
853.7908	1023.1299	1723.2	827.05
853.9359	1025.12	1725.35	831.3
854.081	1027.1093	1732.5	844.25
854.2261	1029.0979	1750.5	863
854.3712	1031.0859	1764.15	874.6
854.5163	1033.0731	1780.25	883.7
854.6613	1035.0596	1783.25	886.95
854.8064	1037.0454	1771.95	874.55
854.9515	1039.0304	1763	862
855.0965	1041.0148	1736.3	836.4
855.2416	1042.9985	1722.9	820.5
855.3867	1044.9814	1713.15	815.75
855.5317	1046.9636	1715.85	815.4
855.6768	1048.9452	1724.05	824.85
855.8219	1050.926	1736.05	839.9
855.9669	1052.9061	1739.6	840.15
856.112	1054.8855	1745.1	842.7
856.257	1056.8642	1747.9	845.7
856.4021	1058.8421	1742.25	838
856.5471	1060.8194	1741.15	839.85
856.6921	1062.7959	1741.7	841.8
856.8372	1064.7717	1749.25	850.75
856.9822	1066.7469	1744.75	843.45
857.1272	1068.7213	1758.1	856.8
857.2723	1070.695	1766.65	865.7
857.4173	1072.6679	1783.35	883.85
857.5623	1074.6402	1793.35	892.7
857.7073	1076.6117	1801.85	895.3
857.8523	1078.5826	1778.3	875.95
857.9973	1080.5527	1755.3	852.25
858.1423	1082.5221	1716.7	815.3
858.2873	1084.4908	1693.6	793.05
858.4323	1086.4587	1675.35	772.5
858.5773	1088.426	1677.5	776.75
858.7223	1090.3925	1678.1	771.65
858.8673	1092.3584	1691.75	790.6
859.0123	1094.3235	1692.05	791.55
859.1573	1096.2879	1709.85	808.1
859.3022	1098.2515	1728.25	827.95
859.4472	1100.2145	1760.2	860.65
859.5922	1102.1767	1794.75	890.95
859.7371	1104.1382	1832	931.55
859.8821	1106.099	1882.05	979.4
860.027	1108.0591	1912.45	1011.9
860.172	1110.0185	1951.3	1046.2
860.3169	1111.9771	2004.55	1105.4
860.4619	1113.9351	2042.85	1139.8
860.6068	1115.8923	2083	1183.4
860.7517	1117.8488	2098.75	1197.1
860.8967	1119.8045	2049.45	1150.35
861.0416	1121.7596	1965.4	1062.4
861.1865	1123.7139	1878.7	978.8
861.3314	1125.6675	1833.6	933.3
861.4763	1127.6204	1831.85	930.95
861.6212	1129.5726	1846.1	942.05
861.7661	1131.524	1839.75	941.55
861.911	1133.4748	1810.75	908.5
862.0559	1135.4248	1759.3	855.15
862.2008	1137.3741	1707.7	805.65
862.3457	1139.3226	1688.3	785.9
862.4905	1141.2705	1693.2	790.85
862.6354	1143.2176	1699.35	790.25
862.7803	1145.164	1705.7	802
862.9251	1147.1097	1696.05	795.35
863.07	1149.0546	1679.05	775.55
863.2148	1150.9989	1659.45	758.55
863.3597	1152.9424	1643.6	741.8
863.5045	1154.8852	1619.75	718.4
863.6493	1156.8272	1623.95	723.2
863.7942	1158.7686	1631.55	722.65
863.939	1160.7092	1629.15	725.05
864.0838	1162.6491	1631.95	728.25
864.2286	1164.5883	1636.8	734.4
864.3734	1166.5267	1662.35	758.2
864.5182	1168.4644	1684.1	782
864.663	1170.4014	1710.6	805.35
864.8078	1172.3377	1751.55	850.65
864.9526	1174.2732	1808.9	909.05
865.0974	1176.2081	1886.8	985.8
865.2421	1178.1421	2003	1094.1
865.3869	1180.0755	2090.85	1188.35
865.5317	1182.0082	2140.6	1239.5
865.6764	1183.9401	2111.15	1208.2
865.8212	1185.8713	2009.55	1110.5
865.9659	1187.8017	1894.5	998.8
866.1106	1189.7315	1803	911.05
866.2554	1191.6605	1740.45	843.5
866.4001	1193.5888	1705.7	808
866.5448	1195.5163	1672.45	775.2
866.6895	1197.4432	1659	759.4
866.8342	1199.3693	1652.3	752.85
866.9789	1201.2947	1644	739.5
867.1236	1203.2193	1630.75	727.95
867.2683	1205.1432	1627.4	726.6
867.413	1207.0664	1625.7	725.75
867.5576	1208.9889	1627.75	722.6
867.7023	1210.9106	1630.6	728.4
867.847	1212.8316	1636.6	738
867.9916	1214.7519	1653.35	742.9
868.1363	1216.6715	1657.15	755.25
868.2809	1218.5903	1669.9	771.15
868.4255	1220.5084	1676.55	775.65
868.5701	1222.4257	1692.85	791.75
868.7148	1224.3424	1699.7	801.8
868.8594	1226.2583	1736.35	831.8
869.004	1228.1735	1756	851.85
869.1486	1230.0879	1791.3	888.75
869.2932	1232.0016	1827.4	928.65
869.4377	1233.9146	1861.7	956.8
869.5823	1235.8269	1864.35	962.1
869.7269	1237.7384	1891.85	991.85
869.8715	1239.6492	1889.35	990.85
870.016	1241.5592	1916.3	1015.45
870.1606	1243.4686	1954.2	1053.05
870.3051	1245.3772	2031.7	1129.6
870.4496	1247.285	2106.3	1203.25
870.5941	1249.1922	2173.2	1271.2
870.7387	1251.0986	2244.35	1343.65
870.8832	1253.0042	2299.55	1399.75
871.0277	1254.9092	2381.55	1480.2
871.1722	1256.8134	2445.85	1545.75
871.3167	1258.7169	2504.65	1603.1
871.4611	1260.6196	2507.6	1608.95
871.6056	1262.5216	2507.95	1604.65
871.7501	1264.4229	2484.15	1583.5
871.8945	1266.3234	2466.9	1563.6
872.039	1268.2232	2428.8	1528
872.1834	1270.1223	2381.15	1478.45
872.3278	1272.0207	2354.8	1452.1
872.4723	1273.9183	2354.8	1446.05
872.6167	1275.8151	2349.55	1449.4
872.7611	1277.7113	2398.65	1497.7
872.9055	1279.6067	2476.4	1576.05
873.0499	1281.5014	2602.75	1699.6
873.1943	1283.3953	2764.5	1860.55
873.3386	1285.2885	2900.4	1999.3
873.483	1287.181	2995.9	2094.3
873.6274	1289.0727	3037.35	2137
873.7717	1290.9637	3009.6	2107
873.9161	1292.854	2936.8	2032.95
874.0604	1294.7435	2842.3	1937.5
874.2047	1296.6323	2761.55	1861.9
874.349	1298.5204	2688.65	1784.4
874.4933	1300.4077	2633.7	1731.2
874.6376	1302.2943	2583.2	1682.65
874.7819	1304.1802	2564.75	1666.15
874.9262	1306.0653	2526.5	1624
875.0705	1307.9497	2480.5	1577.9
875.2147	1309.8333	2439.1	1539.6
875.359	1311.7162	2401.9	1499.7
875.5032	1313.5984	2377.45	1470.6
875.6475	1315.4798	2357.6	1443.2
875.7917	1317.3605	2347.15	1429.5
875.9359	1319.2405	2336.1	1429.9
876.0801	1321.1197	2286.55	1384.75
876.2243	1322.9982	2229.35	1321.5
876.3685	1324.876	2168.4	1263.55
876.5127	1326.753	2074.95	1172.25
876.6569	1328.6293	1997.4	1092.95
876.801	1330.5048	1945.95	1041.4
876.9452	1332.3796	1874.7	971.7
877.0893	1334.2537	1855.9	927.95
877.2335	1336.127	1798.9	898.65
877.3776	1337.9996	1774.55	874.05
877.5217	1339.8714	1759.8	858.85
877.6658	1341.7426	1793.15	848
877.8099	1343.6129	1735.95	832.45
877.954	1345.4826	1728.35	825.65
878.0981	1347.3515	1714.3	807.75
878.2422	1349.2196	1697.45	793.6
878.3862	1351.087	1693.65	793.1
878.5303	1352.9537	1693.75	792.6
878.6743	1354.8197	1692.4	791.95
878.8184	1356.6849	1710.45	807.5
878.9624	1358.5493	1722.5	820.85
879.1064	1360.4131	1742.6	840.45
879.2504	1362.276	1778.65	876.8
879.3944	1364.1383	1808.5	905.95
879.5384	1365.9998	1823.9	913.35
879.6823	1367.8606	1800.95	899.05
879.8263	1369.7206	1784.9	881.4
879.9702	1371.5799	1792.45	886.15
880.1142	1373.4384	1777.85	876.1
880.2581	1375.2962	1757.2	855.4
880.402	1377.1533	1707.5	805.1
880.5459	1379.0096	1666	765.4
880.6898	1380.8652	1627.85	727.2
880.8337	1382.7201	1606.05	705.75
880.9776	1384.5742	1575.3	671.6
881.1215	1386.4275	1569.75	667.45
881.2653	1388.2802	1552.15	651.2
881.4092	1390.132	1538.7	638.05
881.553	1391.9832	1524.95	622.4
881.6968	1393.8336	1522.1	620.7
881.8406	1395.6832	1516.2	611.4
881.9844	1397.5322	1506.2	603.7
882.1282	1399.3803	1504.8	596.6
882.272	1401.2278	1490.8	587.7
882.4158	1403.0745	1478.05	577.2
882.5595	1404.9204	1477.2	578.7
882.7033	1406.7656	1460.9	559.5
882.847	1408.6101	1463.85	560
882.9908	1410.4538	1465.8	563.85
883.1345	1412.2968	1465.4	562.55
883.2782	1414.139	1467.55	566.9
883.4219	1415.9805	1478.95	576.35
883.5656	1417.8213	1507.2	585.95
883.7092	1419.6613	1504.1	605.1
883.8529	1421.5006	1534.8	629.95
883.9965	1423.3391	1560.8	658.3
884.1402	1425.1769	1603.05	701.85
884.2838	1427.0139	1673.75	773.1
884.4274	1428.8502	1739.85	835.05
884.571	1430.6858	1796	893.4
884.7146	1432.5206	1820.5	918.7
884.8582	1434.3547	1818.7	916.25
885.0018	1436.188	1800.5	900.5
885.1453	1438.0206	1784.95	883.6
885.2889	1439.8524	1773.4	872.9
885.4324	1441.6835	1771.35	869.75
885.5759	1443.5139	1776.6	870.25
885.7194	1445.3435	1778.6	876.7
885.8629	1447.1724	1780.35	879.75
886.0064	1449.0005	1774.05	875.35
886.1499	1450.8279	1767.85	866
886.2933	1452.6545	1760.55	860.6
886.4368	1454.4804	1759.9	861.35
886.5802	1456.3056	1757.15	853.6
886.7237	1458.13	1738.7	839.95
886.8671	1459.9536	1726.7	825.55
887.0105	1461.7766	1682.7	781.45
887.1539	1463.5987	1646.2	742.15
887.2972	1465.4202	1615.25	713.6
887.4406	1467.2409	1586.95	683.45
887.584	1469.0608	1552.9	653.65
887.7273	1470.88	1524.9	623.1
887.8706	1472.6984	1497.5	598.8
888.0139	1474.5161	1486.2	582.7
888.1572	1476.3331	1471.85	570.75
888.3005	1478.1493	1469.4	567.9
888.4438	1479.9648	1465.2	565.1
888.5871	1481.7795	1460.8	558.7
888.7303	1483.5935	1462.85	562.4
888.8736	1485.4067	1455.6	555.05
889.0168	1487.2192	1455.55	554.8
889.16	1489.031	1451.95	549.5
889.3032	1490.842	1451.15	550.3
889.4464	1492.6522	1447.65	550.4
889.5896	1494.4618	1452.2	550
889.7327	1496.2705	1450.3	548.45
889.8759	1498.0785	1443.35	539.75
890.019	1499.8858	1439.2	537.05
890.1622	1501.6924	1427.2	528.65
890.3053	1503.4981	1425.75	526.15
890.4484	1505.3032	1408.4	508.95
890.5914	1507.1075	1410.7	508.55
890.7345	1508.911	1411.45	509.9
890.8776	1510.7138	1394.3	493.95
891.0206	1512.5159	1389.2	487.35
891.1637	1514.3172	1385.45	483.9
891.3067	1516.1178	1373	474.9
891.4497	1517.9176	1373.45	470.85
891.5927	1519.7166	1368.6	469.5
891.7357	1521.515	1376.75	469.35
891.8786	1523.3126	1365.9	464.2
892.0216	1525.1094	1359.2	456.65
892.1645	1526.9055	1351.3	452.85
892.3074	1528.7008	1348.55	446.25
892.4503	1530.4954	1352.05	450.1
892.5932	1532.2893	1344.9	446.25
892.7361	1534.0824	1349.25	446.35
892.879	1535.8747	1334.8	436.65
893.0218	1537.6663	1336.8	436.15
893.1647	1539.4572	1339.85	439.25
893.3075	1541.2473	1337.2	438.65
893.4503	1543.0367	1338.4	441.65
893.5931	1544.8253	1343.2	439.6
893.7359	1546.6132	1346.5	447.6
893.8787	1548.4003	1355.25	448.85
894.0214	1550.1867	1365.5	460
894.1642	1551.9723	1364.95	463.15
894.3069	1553.7572	1379.25	480.1
894.4496	1555.5414	1397.2	497.9
894.5923	1557.3247	1425.05	529.35
894.735	1559.1074	1445.8	551.55
894.8777	1560.8893	1479.7	583.35
895.0204	1562.6705	1516.45	620.4
895.163	1564.4509	1532.7	638.65
895.3056	1566.2305	1538	644.4
895.4482	1568.0094	1534.65	640.3
895.5908	1569.7876	1536.7	643.15
895.7334	1571.565	1522.15	625.3
895.876	1573.3417	1520.95	626.1
896.0186	1575.1176	1532.45	638.35
896.1611	1576.8928	1544.95	651.75
896.3036	1578.6672	1560.8	670.35
896.4461	1580.4409	1575.95	686
896.5886	1582.2138	1611.1	716.95
896.7311	1583.986	1630.45	735
896.8736	1585.7575	1669.05	774.8
897.0161	1587.5282	1690.9	798
897.1585	1589.2981	1709.5	818.15
897.3009	1591.0673	1725	833.9
897.4433	1592.8358	1740.7	849
897.5857	1594.6035	1739.2	844.65
897.7281	1596.3704	1731.8	837.05
897.8705	1598.1366	1726.15	832.8
898.0128	1599.9021	1698.1	803.9
898.1551	1601.6668	1691.55	795.9
898.2975	1603.4308	1685.6	790
898.4398	1605.194	1697.4	798.05
898.5821	1606.9564	1721.15	830.85
898.7243	1608.7182	1768.8	876.6
898.8666	1610.4791	1836.85	950.85
899.0088	1612.2394	1907.5	1020.1
899.1511	1613.9988	1996.95	1109.4
899.2933	1615.7576	2045.95	1154.05
899.4355	1617.5156	2057.55	1158.3
899.5776	1619.2728	2014.05	1121.05
899.7198	1621.0293	1942.05	1048.75
899.862	1622.785	1836.25	939.25
900.0041	1624.54	1740.3	848.55
900.1462	1626.2942	1644.75	752.9
900.2883	1628.0477	1566.9	672.8
900.4304	1629.8005	1507	613.9
900.5725	1631.5525	1445.85	555.15
900.7145	1633.3037	1408.55	519.05
900.8566	1635.0542	1382.3	492
900.9986	1636.804	1349.1	456.25
901.1406	1638.553	1398.55	439.1
901.2826	1640.3013	1310.1	420.15
901.4245	1642.0488	1287.5	395.45
901.5665	1643.7955	1281.95	393.55
901.7085	1645.5416	1270.4	379.95
901.8504	1647.2868	1261.9	371.7
901.9923	1649.0313	1262.1	371.1
902.1342	1650.7751	1256	360.7
902.2761	1652.5181	1254.5	364.95
902.4179	1654.2604	1248	358.3
902.5598	1656.0019	1253.25	365.8
902.7016	1657.7427	1270	379.1
902.8434	1659.4828	1294.1	403.6
902.9852	1661.222	1312.55	419.95
903.127	1662.9606	1334.5	444
903.2687	1664.6984	1352.35	462.55
903.4105	1666.4354	1354.35	459.75
903.5522	1668.1717	1323.85	429.55
903.6939	1669.9072	1284.25	392.35
903.8356	1671.642	1259	363.75
903.9773	1673.3761	1233.75	344.25
904.119	1675.1094	1211.6	318
904.2606	1676.8419	1189.95	298.1
904.4022	1678.5737	1181.8	288.5
904.5439	1680.3048	1178.3	286.25
904.6855	1682.0351	1169.25	279.9
904.827	1683.7646	1169.65	276.35
904.9686	1685.4934	1161.25	269.5
905.1101	1687.2215	1155	261.8
905.2517	1688.9488	1146.95	255.1
905.3932	1690.6754	1148.15	257.25
905.5347	1692.4012	1140.95	248.9
905.6761	1694.1263	1143.7	249.75
905.8176	1695.8506	1138.7	247
905.9591	1697.5742	1133.75	243.45
906.1005	1699.297	1137.6	250.25
906.2419	1701.0191	1132.6	242.35
906.3833	1702.7404	1128	240.2
906.5246	1704.461	1123.95	230.85
906.666	1706.1808	1124.25	233.4
906.8073	1707.8999	1121.85	233.7
906.9487	1709.6182	1120.95	231.6
907.09	1711.3358	1114.2	226.25
907.2313	1713.0527	1116.6	228.75
907.3725	1714.7688	1121.8	226.8
907.5138	1716.4841	1116.6	225.05
907.655	1718.1987	1119.15	226.3
907.7962	1719.9126	1108	218.75
907.9374	1721.6257	1113.05	223.65
908.0786	1723.338	1111.8	224.65
908.2198	1725.0496	1113.75	225.3
908.3609	1726.7605	1108.55	216.95
908.502	1728.4706	1103.4	212.7
908.6431	1730.18	1106.4	215.75
908.7842	1731.8886	1102.9	214
908.9253	1733.5964	1125.5	216.85
909.0664	1735.3036	1105.55	214.1
909.2074	1737.0099	1101.8	215.05
909.3484	1738.7156	1101.6	214.85
909.4894	1740.4204	1102.4	211.25
909.6304	1742.1246	1102.8	212.25
909.7714	1743.8279	1102.2	216.15
909.9123	1745.5306	1099.65	211.35
910.0532	1747.2325	1102.8	215.45
910.1941	1748.9336	1094.5	206.25
910.335	1750.634	1096.6	204.1
910.4759	1752.3336	1096.55	206.65
910.6168	1754.0325	1092.65	206.3
910.7576	1755.7307	1090.65	204.9
910.8984	1757.4281	1091.95	203.5
911.0392	1759.1247	1106.35	209.15
911.18	1760.8206	1102.45	206.45
911.3208	1762.5158	1098.65	203.65
911.4615	1764.2102	1089.2	199.85
911.6022	1765.9039	1095.15	205.7
911.7429	1767.5968	1093.3	205.4
911.8836	1769.289	1090.4	203.65
912.0243	1770.9804	1094.15	203.75
912.1649	1772.6711	1094.45	203.75
912.3056	1774.361	1090.1	197.1
912.4462	1776.0502	1089.75	200.6
912.5868	1777.7386	1095.05	202.6
912.7274	1779.4263	1088.25	196.15
912.8679	1781.1132	1086.1	196.1
913.0084	1782.7994	1090.85	202.2
913.149	1784.4849	1083.25	195.25
913.2895	1786.1696	1106.15	203.15
913.4299	1787.8535	1081.25	196.05
913.5704	1789.5367	1079.75	195.6
913.7108	1791.2192	1079.3	191.65
913.8513	1792.9009	1108.1	191.5
913.9917	1794.5818	1087.05	197.1
914.132	1796.2621	1079.65	190.6
914.2724	1797.9415	1082.85	192.75
914.4128	1799.6202	1079.1	189.7
914.5531	1801.2982	1080	190.65
914.6934	1802.9755	1080.1	192.35
914.8337	1804.6519	1077.55	186.9
914.9739	1806.3277	1076.25	189.2
915.1142	1808.0027	1075.25	187.5
915.2544	1809.6769	1073.4	185.5
915.3946	1811.3504	1076.5	189.7
915.5348	1813.0231	1073.75	188.8
915.675	1814.6951	1071	184.15
915.8151	1816.3664	1075.6	187
915.9553	1818.0369	1079	188.7
916.0954	1819.7067	1072.75	184
916.2355	1821.3757	1074.6	184.45
916.3755	1823.044	1072.8	181.8
916.5156	1824.7115	1075.2	184.6
916.6556	1826.3783	1070.25	183.2
916.7956	1828.0443	1069.3	182.1
916.9356	1829.7096	1070.45	179.95
917.0756	1831.3741	1073.55	181.3
917.2155	1833.0379	1069.25	181.3
917.3555	1834.701	1064.45	174.65
917.4954	1836.3633	1064.45	178.15
917.6353	1838.0248	1067	176.9
917.7751	1839.6856	1064.2	176.3
917.915	1841.3457	1064.25	176.05
918.0548	1843.005	1066.35	177.7
918.1946	1844.6636	1065.55	177.1
918.3344	1846.3214	1064.6	175.5
918.4742	1847.9785	1067.95	179.85
918.6139	1849.6349	1066.25	175.05
918.7537	1851.2904	1074.25	175.8
918.8934	1852.9453	1060.6	171.15
919.0331	1854.5994	1065.45	174.9
919.1727	1856.2528	1069.7	173.7
919.3124	1857.9054	1066.05	175.85
919.452	1859.5572	1063.05	175.95
919.5916	1861.2083	1060.75	171.6
919.7312	1862.8587	1060.2	171.3
919.8708	1864.5084	1065.8	177.1
920.0103	1866.1572	1062.3	173.7
920.1498	1867.8054	1063.8	173.8
920.2893	1869.4528	1058.1	168
920.4288	1871.0994	1061.6	169.95
920.5683	1872.7453	1058.3	167.65
920.7077	1874.3905	1067	172.2
920.8471	1876.0349	1061.15	171.55
920.9865	1877.6786	1057.05	165.7
921.1259	1879.3215	1057.9	170.8
921.2653	1880.9637	1059.8	169.05
921.4046	1882.6051	1052.2	164.85
921.5439	1884.2458	1058.55	166.85
921.6832	1885.8858	1054.6	166.35
921.8225	1887.525	1057.5	167.4
921.9617	1889.1634	1055.1	166.9
922.101	1890.8011	1053.85	164.15
922.2402	1892.4381	1057.25	169
922.3794	1894.0743	1052	163.4
922.5185	1895.7098	1049.65	160.1
922.6577	1897.3446	1057.5	166.1
922.7968	1898.9786	1058.7	164.85
922.9359	1900.6118	1051.15	162.4
923.075	1902.2443	1050	160.55
923.214	1903.8761	1046.95	158.9
923.3531	1905.5071	1051.1	159.55
923.4921	1907.1374	1047.6	159.95
923.6311	1908.7669	1047.2	158.55
923.77	1910.3957	1042.95	154.2
923.909	1912.0237	1049.5	161.55
924.0479	1913.651	1048.65	159.35
924.1868	1915.2776	1046.25	158.8
924.3257	1916.9034	1041.7	155.9
924.4646	1918.5285	1043.05	156.85
924.6034	1920.1528	1046.15	156.45
924.7422	1921.7764	1043.5	155.2
924.881	1923.3992	1045.4	158.2
925.0198	1925.0213	1042.55	153.9
925.1586	1926.6427	1043.35	156.1
925.2973	1928.2633	1255.65	160.2
925.436	1929.8832	1046.65	153.7
925.5747	1931.5023	1038.45	149.55
925.7134	1933.1207	1041.8	153.8
925.852	1934.7383	1046.8	158.35
925.9906	1936.3552	1036.75	150.1
926.1292	1937.9714	1039.85	150.35
926.2678	1939.5868	1038.5	149
926.4064	1941.2015	1042.25	151.6
926.5449	1942.8154	1039.65	148.95
926.6834	1944.4286	1033.9	146.15
926.8219	1946.041	1061.45	150.45
926.9604	1947.6528	1041.5	148
927.0988	1949.2637	1032.5	145.15
927.2372	1950.8739	1035.1	146.7
927.3756	1952.4834	1035.15	148
927.514	1954.0921	1037	146.7
927.6523	1955.7001	1039.55	146.6
927.7907	1957.3074	1030.2	142.8
927.929	1958.9139	1030.65	146.2
928.0673	1960.5197	1033.55	146.6
928.2055	1962.1247	1029.45	141.85
928.3438	1963.729	1028.2	140.95
928.482	1965.3325	1035.6	142.3
928.6202	1966.9353	1026.4	140.25
928.7584	1968.5374	1028.95	144.25
928.8965	1970.1387	1026.8	140.6
929.0346	1971.7393	1032.6	144.55
929.1727	1973.3392	1026.95	139.3
929.3108	1974.9383	1030	144.15
929.4489	1976.5366	1024.8	140
929.5869	1978.1342	1024.2	138.2
929.7249	1979.7311	1022.65	134.4
929.8629	1981.3273	1023.7	139.35
930.0009	1982.9227	1028.1	142.5
930.1388	1984.5173	1023.05	140.25
930.2767	1986.1112	1021.3	137.25
930.4146	1987.7044	1022.95	139.2
930.5525	1989.2968	1024	138.25
930.6904	1990.8885	1028.25	138.65
930.8282	1992.4795	1021.6	136.45
930.966	1994.0697	1018.75	133.8
931.1038	1995.6592	1023	139
931.2415	1997.2479	1021.7	137.4
931.3793	1998.8359	1019.15	135.05
931.517	2000.4232	1018	135.35
931.6547	2002.0097	1012.5	131.95
931.7923	2003.5955	1017.9	134.55
931.93	2005.1805	1018.65	135.8
932.0676	2006.7648	1017.75	136.2
932.2052	2008.3484	1023.7	140.2
932.3427	2009.9312	1021.7	139.75
932.4803	2011.5133	1014.9	136.25
932.6178	2013.0946	1014.9	134.5
932.7553	2014.6752	1014.35	132.65
932.8928	2016.2551	1019.35	136.75
933.0302	2017.8342	1014.95	134.05
933.1676	2019.4126	1014.95	132.7
933.305	2020.9902	1010.5	129.95
933.4424	2022.5672	1016.55	133.15
933.5798	2024.1433	1022.75	139.75
933.7171	2025.7188	1011.3	131.8
933.8544	2027.2935	1016.2	134
933.9917	2028.8674	1010.2	131
934.129	2030.4406	1016.05	136.85
934.2662	2032.0131	1009.9	130.6
934.4034	2033.5849	1013.35	129.8
934.5406	2035.1559	1011.75	132.1
934.6778	2036.7261	1015.7	135.85
934.8149	2038.2957	1012.6	129.8
934.952	2039.8645	1014.9	132.25
935.0891	2041.4325	1016.45	129.25
935.2262	2042.9998	1010.25	129.5
935.3632	2044.5664	1015.5	132.7
935.5002	2046.1323	1014.7	134.1
935.6372	2047.6974	1010.5	130.5
935.7742	2049.2617	1012.05	130.6
935.9111	2050.8254	1014.15	129.45
936.048	2052.3883	1014.15	133.55
936.1849	2053.9504	1012.3	129.15
936.3218	2055.5118	1013.55	130.5
936.4586	2057.0725	1016.35	130.9
936.5955	2058.6325	1010.4	128.4
936.7323	2060.1917	1012.5	134.3
936.869	2061.7502	1009.95	123.2
937.0058	2063.3079	1009.75	129.7
937.1425	2064.8649	1010.55	126.65
937.2792	2066.4212	1015.8	134.2
937.4159	2067.9767	1014.35	133.3
937.5525	2069.5315	1009.3	129.65
937.6891	2071.0856	1010.9	128.45
937.8257	2072.6389	1008.3	127.5
937.9623	2074.1915	999.8	120.95
938.0989	2075.7433	1011.9	128.4
938.2354	2077.2945	1006.9	126.05
938.3719	2078.8448	1014.1	129.4
938.5084	2080.3945	1006.5	123.95
938.6448	2081.9434	1005.65	121.85
938.7812	2083.4916	1013.85	130.85
938.9176	2085.039	1010.05	126.45
939.054	2086.5857	1014.1	127.55
939.1903	2088.1317	1015.2	131.1
939.3267	2089.677	1011.85	126.6
939.463	2091.2215	1012.4	128.05
939.5992	2092.7652	1014	124.35
939.7355	2094.3083	1006.8	121.45
939.8717	2095.8506	1007.15	121.25
940.0079	2097.3921	1012.65	128.45
940.1441	2098.933	1010.45	126.5
940.2802	2100.4731	1010.3	128.7
940.4163	2102.0124	1030.2	128.55
940.5524	2103.5511	1008.95	124.75
940.6885	2105.089	1013.4	129.2
940.8245	2106.6261	1011.9	127.75
940.9606	2108.1626	1006.3	121.75
941.0965	2109.6983	1036.55	124.3
941.2325	2111.2332	1010.7	125.1
941.3684	2112.7675	1010	125.45
941.5044	2114.301	1011.8	126.45
941.6403	2115.8337	1011.1	126.05
941.7761	2117.3657	1007.15	124.25
941.912	2118.897	1016.6	133.35
942.0478	2120.4276	1015.85	123.3
942.1835	2121.9575	1010.35	125.75
942.3193	2123.4866	1014.5	128.2
942.455	2125.0149	1008.55	122.75
942.5907	2126.5426	1005.95	123.7
942.7264	2128.0695	1010.2	124.7
942.8621	2129.5956	1000.95	123.15
942.9977	2131.1211	1009.6	123
943.1333	2132.6458	1002.05	119.2
943.2689	2134.1698	1003.9	120.65
943.4044	2135.693	1009.9	124.35
943.54	2137.2155	1011.15	124.2
943.6755	2138.7373	1006.35	121.55
943.8109	2140.2584	1005.25	125.95
943.9464	2141.7787	1008.4	119.7
944.0818	2143.2983	1001.6	122.25
944.2172	2144.8171	1003.3	123.1
944.3526	2146.3353	1004.3	121.35
944.4879	2147.8527	1003.55	119.85
944.6232	2149.3693	1002.8	120.05
944.7585	2150.8853	1003.15	119.45
944.8938	2152.4005	1006.1	120.5
945.029	2153.9149	1007.75	123.2
945.1642	2155.4287	1007.25	123.5
945.2994	2156.9417	1004.75	122.15
945.4346	2158.454	1004.75	121.75
945.5697	2159.9655	1000.85	118.85
945.7048	2161.4764	1006.15	124.7
945.8399	2162.9865	1001.2	120.9
945.9749	2164.4958	1003.2	121.5
946.1099	2166.0045	1003.65	120.65
946.2449	2167.5124	1002.4	119.3
946.3799	2169.0195	1004.1	121.4
946.5148	2170.526	998.6	116.65
946.6498	2172.0317	1002.1	118.55
946.7846	2173.5367	998.65	114.3
946.9195	2175.0409	1000.8	119.15
947.0543	2176.5445	1004.35	120.95
947.1891	2178.0473	1002.95	117.5
947.3239	2179.5494	1002.95	116.45
947.4587	2181.0507	998.55	115.55
947.5934	2182.5513	1000.8	117.1
947.7281	2184.0512	1000.8	116.05
947.8628	2185.5504	997.85	113.85
947.9974	2187.0488	997.1	114.25
948.132	2188.5465	998.2	118.6
948.2666	2190.0435	1002.9	119.75
948.4012	2191.5397	1000.25	119
948.5357	2193.0353	996.45	114.3
948.6702	2194.5301	1001.15	114.55
948.8047	2196.0241	1000.6	115.65
948.9392	2197.5175	1001.85	116.65
949.0736	2199.0101	1002.45	113.85
949.208	2200.502	997.9	114.7
949.3424	2201.9931	996.1	112.75
949.4767	2203.4835	999.9	117.3
949.611	2204.9733	1001.2	112.2
949.7453	2206.4622	996.1	115.65
949.8796	2207.9505	995.15	110.4
950.0138	2209.438	991.15	112.7
950.148	2210.9248	995.45	112.45
950.2822	2212.4109	994.1	111
950.4164	2213.8962	1001.15	116.95
950.5505	2215.3809	999.35	112.15
950.6846	2216.8648	996.6	111.5
950.8186	2218.3479	998.95	109.7
950.9527	2219.8304	1001.5	113.4
951.0867	2221.3121	1000.8	113.1
951.2207	2222.7931	994.45	109.7
951.3546	2224.2733	997	112.25
951.4886	2225.7529	992.85	109.5
951.6225	2227.2317	996.3	111.45
951.7563	2228.7098	991.35	109.55
951.8902	2230.1872	991.1	109.75
952.024	2231.6638	987.7	105.7
952.1578	2233.1397	991.7	105.05
952.2916	2234.6149	989.9	108.5
952.4253	2236.0894	990.1	106.7
952.559	2237.5632	1000.75	108.15
952.6927	2239.0362	984.95	103.85
952.8263	2240.5085	987.45	103.55
952.9599	2241.9801	989	103.25
953.0935	2243.4509	989.85	107.5
953.2271	2244.921	990.6	104.85
953.3606	2246.3904	992.65	105.8
953.4941	2247.8591	986.6	103.15
953.6276	2249.3271	987.8	103.9
953.7611	2250.7943	986.3	103.7
953.8945	2252.2608	984.75	100.1
954.0279	2253.7266	987.65	105.4
954.1612	2255.1917	990.2	107.2
954.2946	2256.656	984.9	101.3
954.4279	2258.1197	985.05	104.05
954.5612	2259.5826	986.55	102.8
954.6944	2261.0447	989.35	105.25
954.8276	2262.5062	987.85	103.05
954.9608	2263.9669	988.85	103.6
955.094	2265.4269	986.95	103.9
955.2271	2266.8862	980.45	97.05
955.3602	2268.3448	983.95	101.4
955.4933	2269.8026	984.95	102.85
955.6264	2271.2598	980.55	99.4
955.7594	2272.7162	984.3	102.15
955.8924	2274.1719	984.3	101.4
956.0253	2275.6268	982.1	95.45
956.1583	2277.0811	984.95	101.5
956.2912	2278.5346	984.2	102.1
956.4241	2279.9874	979.9	97
956.5569	2281.4395	981.35	100.95
956.6897	2282.8908	983.2	94.35
956.8225	2284.3414	980.95	97.2
956.9553	2285.7914	983.3	98.1
957.088	2287.2406	984	97.85
957.2207	2288.689	981.45	95.95
957.3534	2290.1368	985.55	97.25
957.486	2291.5838	986.45	99.95
957.6186	2293.0302	982.25	94.45
957.7512	2294.4758	984.75	100.35
957.8838	2295.9206	984.1	96.85
958.0163	2297.3648	978.8	96.65
958.1488	2298.8082	981.4	96.7
958.2813	2300.251	981.9	98.2
958.4137	2301.693	984.75	96.7
958.5461	2303.1343	983.4	99.15
958.6785	2304.5748	979.5	96.6
958.8108	2306.0147	979.45	97.55
958.9432	2307.4538	977.1	91.35
959.0754	2308.8922	976.55	97.1
959.2077	2310.3299	977.75	96.4
959.3399	2311.7669	978.25	94.1
959.4721	2313.2031	977.2	91.7
959.6043	2314.6387	980.6	96.9
959.7365	2316.0735	979.35	94.85
959.8686	2317.5076	981.45	98.5
960.0006	2318.941	980.55	94.5
960.1327	2320.3737	981.15	97.35
960.2647	2321.8056	982.25	96.45
960.3967	2323.2369	980.3	93.8
960.5287	2324.6674	983.45	98.85
960.6606	2326.0972	979.7	95.05
960.7925	2327.5263	985.3	100.85
960.9244	2328.9547	986.85	101.8
961.0562	2330.3823	988.15	103.1
961.1881	2331.8092	984.3	97.4
961.3198	2333.2355	980.4	94.5
961.4516	2334.661	981.15	95.65
961.5833	2336.0858	979.5	93.95
961.715	2337.5098	974.95	88.35
961.8467	2338.9332	974.15	90.2
961.9783	2340.3558	981.1	93.9
962.1099	2341.7778	973.25	89.6
962.2415	2343.199	975.8	90.6
962.373	2344.6195	972.45	88.7
962.5045	2346.0393	968.85	85.85
962.636	2347.4583	977.7	92.5
962.7675	2348.8767	978.15	93
962.8989	2350.2943	974.6	88.8
963.0303	2351.7113	977.5	89.9
963.1617	2353.1275	976.15	90.45
963.293	2354.543	999.85	89.45
963.4243	2355.9578	977.4	92.45
963.5556	2357.3718	971.7	88.65
963.6868	2358.7852	973.2	86.95
963.818	2360.1978	973.6	89.4
963.9492	2361.6098	973.75	89.95
964.0803	2363.021	972.75	84.85
964.2114	2364.4315	973.4	89.8
964.3425	2365.8413	974.1	87.9
964.4736	2367.2504	970.15	86.85
964.6046	2368.6587	969.4	85.8
964.7356	2370.0664	970.85	86.8
964.8666	2371.4733	974.1	89
964.9975	2372.8795	969.35	82.35
965.1284	2374.285	969.2	84.8
965.2593	2375.6899	970.35	85.5
965.3901	2377.0939	968.3	85.2
965.5209	2378.4973	971.05	87.1
965.6517	2379.9	970.85	84.15
965.7825	2381.3019	969.15	84.55
965.9132	2382.7032	969.3	86.6
966.0439	2384.1037	967.3	83.45
966.1745	2385.5035	968.5	87.7
966.3051	2386.9027	963.8	80.45
966.4357	2388.3011	969.25	81.9
966.5663	2389.6987	965.45	80.5
966.6968	2391.0957	966.8	80.35
966.8273	2392.492	965	81.55
966.9578	2393.8876	962.05	79.6
967.0882	2395.2824	964.15	77.4
967.2186	2396.6765	966.1	83.1
967.349	2398.07	970.2	84.8
967.4793	2399.4627	968.6	81
967.6097	2400.8547	969.65	80.75
967.7399	2402.246	969.95	77.55
967.8702	2403.6366	963.25	79.1
968.0004	2405.0265	960.9	74.7
968.1306	2406.4156	969.65	79.55
968.2607	2407.8041	967.5	79.55
968.3909	2409.1918	968.4	79.5
968.521	2410.5789	965.45	77.75
968.651	2411.9652	964.5	73.4
968.781	2413.3508	963.85	78.3
968.911	2414.7358	966.6	79.2
969.041	2416.12	963.15	76.25
969.1709	2417.5035	962.05	76.1
969.3008	2418.8863	964.9	79.25
969.4307	2420.2684	965.3	80.5
969.5606	2421.6497	966.45	80.05
969.6904	2423.0304	961.7	76.15
969.8201	2424.4104	966.55	79.1
969.9499	2425.7896	968.75	76.4
970.0796	2427.1682	960.35	74.4
970.2093	2428.546	964.15	77.25
970.3389	2429.9232	961.9	73.9
970.4685	2431.2996	962.2	75.15
970.5981	2432.6753	959.5	73.15
970.7277	2434.0503	961.55	74.55
970.8572	2435.4246	964.05	79.75
970.9867	2436.7982	961.15	72.45
971.1161	2438.1711	958.9	73.5
971.2456	2439.5433	961.1	74.15
971.375	2440.9148	966.6	77.25
971.5043	2442.2856	959	74.05
971.6336	2443.6557	958	72.15
971.7629	2445.025	957.9	72
971.8922	2446.3937	960.05	73.7
972.0214	2447.7617	958.65	72.2
972.1506	2449.1289	959.9	74.15
972.2798	2450.4955	961.6	71.5
972.4089	2451.8613	956.3	74.15
972.538	2453.2265	956.4	70.85
972.6671	2454.5909	957.9	72.9
972.7961	2455.9546	956.45	72.4
972.9251	2457.3177	956.7	71.4
973.0541	2458.68	960.15	74
973.1831	2460.0416	955.3	70.7
973.312	2461.4025	959.45	73
973.4408	2462.7627	966.35	69.65
973.5697	2464.1222	953.8	72.65
973.6985	2465.4811	954.5	68.85
973.8273	2466.8392	955.75	70.9
973.956	2468.1966	953.55	68.45
974.0847	2469.5533	959.45	70.4
974.2134	2470.9093	957.15	71.4
974.3421	2472.2645	957.85	70.7
974.4707	2473.6191	954.95	70.65
974.5993	2474.973	956.6	71.25
974.7278	2476.3262	957.5	69.75
974.8563	2477.6787	953.4	68.6
974.9848	2479.0305	955.1	70.6
975.1132	2480.3816	956.45	71.25
975.2417	2481.7319	955.45	69.75
975.37	2483.0816	954.35	68.7
975.4984	2484.4306	954.85	68.25
975.6267	2485.7789	953.85	71.05
975.755	2487.1264	953.25	67.15
975.8833	2488.4733	953.25	69
976.0115	2489.8195	971.9	70.5
976.1397	2491.165	952.95	63.55
976.2678	2492.5097	956.15	69.9
976.3959	2493.8538	952.4	66.95
976.524	2495.1972	950.5	65.4
976.6521	2496.5398	955.5	67.6
976.7801	2497.8818	955.1	70
976.9081	2499.2231	951.4	66.05
977.036	2500.5637	952.05	66.05
977.164	2501.9035	951.7	65.05
977.2918	2503.2427	956.65	66.3
977.4197	2504.5812	952.65	68.35
977.5475	2505.919	953.55	65.9
977.6753	2507.256	950.45	65.7
977.8031	2508.5924	950	64.45
977.9308	2509.9281	955.1	64.8
978.0585	2511.2631	952.25	67.45
978.1861	2512.5974	950.1	66.25
978.3137	2513.9309	950.8	65.2
978.4413	2515.2638	976.55	64.55
978.5689	2516.596	949.85	65.95
978.6964	2517.9275	950.45	64.7
978.8239	2519.2583	949.55	65.4
978.9513	2520.5884	951.55	66.1
979.0788	2521.9178	946.45	60.2
979.2062	2523.2465	945.05	60.65
979.3335	2524.5745	948.05	64.55
979.4608	2525.9018	948.05	62.6
979.5881	2527.2284	943.7	60.65
979.7154	2528.5543	950.85	67.6
979.8426	2529.8796	951.85	67.25
979.9698	2531.2041	947.95	63.05
980.0969	2532.5279	944.15	59.75
980.224	2533.851	943.75	59.45
980.3511	2535.1735	946.2	60.25
980.4781	2536.4952	944.65	59.8
980.6052	2537.8163	947.05	61.75
980.7321	2539.1366	946.35	62.05
980.8591	2540.4562	949.45	63.35
980.986	2541.7752	947.2	60.5
981.1129	2543.0935	948.45	62.85
981.2397	2544.411	950.75	63.9
981.3665	2545.7279	946.4	61.85
981.4933	2547.0441	943	58.3
981.62	2548.3596	949.65	60
981.7467	2549.6744	945.05	59.75
981.8734	2550.9885	952.1	59.45
982.0001	2552.3019	945.05	59.6
982.1267	2553.6146	948.85	63.85
982.2532	2554.9266	947.25	63.4
982.3798	2556.2379	945.9	59.3
982.5063	2557.5485	941.3	58.25
982.6327	2558.8585	952.3	60.7
982.7592	2560.1677	948.2	58.85
982.8856	2561.4762	944.95	59.05
983.0119	2562.7841	946.25	58
983.1383	2564.0913	942.55	57.05
983.2646	2565.3977	942.25	56
983.3908	2566.7035	943.7	58.3
983.517	2568.0086	946.25	59.8
983.6432	2569.313	943.7	59.2
983.7694	2570.6167	946.1	59.2
983.8955	2571.9197	941.4	55.75
984.0216	2573.222	947.35	57.95
984.1476	2574.5236	940.05	55.1
984.2737	2575.8246	945.45	56.5
984.3996	2577.1248	947.6	60.9
984.5256	2578.4244	940.95	55.65
984.6515	2579.7232	943.75	59.35
984.7774	2581.0214	967.5	55.4
984.9032	2582.3189	943.35	58.95
985.029	2583.6157	946.25	58.9
985.1548	2584.9118	948.15	64.15
985.2806	2586.2072	945.45	60.95
985.4063	2587.5019	943.95	60.25
985.5319	2588.7959	943.5	60.75
985.6576	2590.0893	943.3	56.75
985.7832	2591.3819	937.95	53.85
985.9087	2592.6739	943.3	59.45
986.0343	2593.9652	945.8	60.35
986.1597	2595.2557	940.5	56.05
986.2852	2596.5456	945.5	61.7
986.4106	2597.8348	939.8	54.65
986.536	2599.1234	941.4	58.85
986.6614	2600.4112	939.75	54.7
986.7867	2601.6983	944.9	56.15
986.912	2602.9848	945.85	62.85
987.0372	2604.2705	946.95	53.9
987.1624	2605.5556	943.55	59.95
987.2876	2606.84	941.65	57.25
987.4128	2608.1237	943.2	56.55
987.5379	2609.4067	942.15	59.5
987.6629	2610.689	948.55	54.6
987.788	2611.9707	944	55.5
987.913	2613.2516	943.65	56.6
988.0379	2614.5319	938.7	54.25
988.1629	2615.8115	942.8	58.25
988.2878	2617.0903	941.35	56.25
988.4126	2618.3685	939.2	54.25
988.5375	2619.6461	935.85	51
988.6622	2620.9229	936.45	52
988.787	2622.199	937.95	55.55
988.9117	2623.4745	938.1	52.4
989.0364	2624.7493	937.3	53.3
989.161	2626.0234	937.25	54.4
989.2857	2627.2968	935.8	51.8
989.4102	2628.5695	937.75	52.75
989.5348	2629.8415	936.4	54.9
989.6593	2631.1128	938.8	53.3
989.7837	2632.3835	936.7	54.8
989.9082	2633.6535	935.1	52.2
990.0326	2634.9228	934.9	52.05
990.1569	2636.1914	934.95	51.65
990.2812	2637.4593	937.2	51.8
990.4055	2638.7265	936.5	52.3
990.5298	2639.9931	933.25	47.25
990.654	2641.259	936.55	50.15
990.7782	2642.5242	932.6	49.9
990.9023	2643.7887	934.5	50.4
991.0264	2645.0525	934.3	50.8
991.1505	2646.3156	931.65	46.55
991.2745	2647.5781	934.1	50.6
991.3985	2648.8398	931	46.7
991.5225	2650.1009	942.15	50.5
991.6464	2651.3613	933.15	50.4
991.7703	2652.6211	932.4	47.05
991.8942	2653.8801	932.6	50.25
992.018	2655.1385	934.05	48.3
992.1418	2656.3961	931.1	45.95
992.2655	2657.6531	931.5	48.65
992.3892	2658.9094	932.5	49.5
992.5129	2660.1651	932.4	48.25
992.6366	2661.42	930.85	49
992.7602	2662.6743	932.55	47.2
992.8837	2663.9279	933.6	52.75
993.0073	2665.1808	932.6	48.35
993.1307	2666.433	932.9	48.7
993.2542	2667.6846	931.6	49.35
993.3776	2668.9354	936.65	49.3
993.501	2670.1856	933.9	49.65
993.6244	2671.4351	932.55	48.9
993.7477	2672.6839	935.9	51.75
993.8709	2673.9321	933.4	50.95
993.9942	2675.1795	932.6	49.3
994.1174	2676.4263	933.75	53.2
994.2405	2677.6724	934.65	51.5
994.3637	2678.9179	934.65	49.7
994.4868	2680.1626	931.9	50.05
994.6098	2681.4067	931.75	46.7
994.7328	2682.6501	929.25	44.8
994.8558	2683.8928	931.4	48.55
994.9788	2685.1348	928.55	46.65
995.1017	2686.3761	931	48.5
995.2245	2687.6168	928.35	43.65
995.3474	2688.8568	930.65	47
995.4702	2690.0961	928.45	45.95
995.5929	2691.3348	928.8	46.45
995.7156	2692.5727	929	46.4
995.8383	2693.81	927.2	43.45
995.961	2695.0466	926.75	44.8
996.0836	2696.2826	929.55	46.15
996.2062	2697.5178	948.95	46
996.3287	2698.7524	930.1	49
996.4512	2699.9863	928.5	41.35
996.5737	2701.2195	930.15	48.7
996.6961	2702.452	929.3	45.1
996.8185	2703.6839	927.65	42.4
996.9408	2704.9151	929.05	48.1
997.0631	2706.1456	929.45	44.05
997.1854	2707.3755	929.2	46.4
997.3077	2708.6046	932.5	48.95
997.4299	2709.8331	930.85	48.55
997.552	2711.0609	929.75	46.9
997.6742	2712.2881	930.9	48.2
997.7963	2713.5145	935.25	48.75
997.9183	2714.7403	932.65	52.35
998.0403	2715.9654	931.8	48
998.1623	2717.1899	946.85	49.9
998.2842	2718.4136	933.3	50.25
998.4062	2719.6367	932.9	49.05
998.528	2720.8591	943.2	54.8
998.6498	2722.0809	937.5	52.65
998.7716	2723.3019	940.3	56.7
998.8934	2724.5223	939.85	57.25
999.0151	2725.7421	939.05	55.35
999.1368	2726.9611	939.4	55.3
999.2584	2728.1795	937.75	49.15
999.38	2729.3972	933.8	52.45
999.5016	2730.6142	942.15	51.3
999.6231	2731.8306	933.45	50.6
999.7446	2733.0462	929.95	47.05
999.8661	2734.2612	937.55	49
999.9875	2735.4756	932.5	48.2
1000.1089	2736.6892	930.6	46.65
1000.2302	2737.9022	926.35	44.9
1000.3515	2739.1145	927.15	46.55
1000.4728	2740.3262	934.85	44.8
1000.594	2741.5372	926.7	47.15
1000.7152	2742.7475	927.1	43.7
1000.8363	2743.9571	927.9	43.4
1000.9575	2745.1661	929.95	44.25
1001.0785	2746.3744	925.85	42.7
1001.1996	2747.582	922.5	41.45
1001.3206	2748.7889	924.95	39.85
1001.4415	2749.9952	920.1	36.25
1001.5625	2751.2008	923.1	41.25
1001.6833	2752.4057	925.7	41.6
1001.8042	2753.61	924.75	41.6
1001.925	2754.8136	925.45	39.75
1002.0458	2756.0165	920.9	37.3
1002.1665	2757.2188	920.85	42.3
1002.2872	2758.4204	922.15	38.95
1002.4078	2759.6213	922.4	38.6
1002.5285	2760.8215	925.85	40.6
1002.649	2762.0211	923.05	38.05
1002.7696	2763.22	923.6	36.2
1002.8901	2764.4182	924.85	40.65
1003.0106	2765.6158	920.9	40.2
1003.131	2766.8127	917.5	35.9
1003.2514	2768.009	921.1	37.5
1003.3717	2769.2045	922.3	40.2
1003.492	2770.3994	921.3	36.1
1003.6123	2771.5936	919.15	38.3
1003.7325	2772.7872	918.15	36.4
1003.8527	2773.9801	916.8	31.8
1003.9729	2775.1723	931.95	34.5
1004.093	2776.3639	919.9	37.55
1004.2131	2777.5548	920.4	37.6
1004.3331	2778.745	920.8	38.35
1004.4531	2779.9346	917.75	36.25
1004.5731	2781.1235	916	33.7
1004.693	2782.3117	916.05	35.75
1004.8129	2783.4992	915.85	35.75
1004.9328	2784.6861	917	36.4
1005.0526	2785.8723	918.7	36.65
1005.1723	2787.0579	918.1	35.95
1005.2921	2788.2428	918.8	35.65
1005.4118	2789.427	916.95	35.8
1005.5314	2790.6106	917.85	35.8
1005.651	2791.7935	919.9	39.05
1005.7706	2792.9757	916.45	34.95
1005.8902	2794.1573	919.2	36.9
1006.0097	2795.3382	919.45	39.65
1006.1291	2796.5184	917.3	38.05
1006.2485	2797.698	919.65	35.45
1006.3679	2798.8769	919.9	39.4
1006.4873	2800.0551	923.15	40.5
1006.6066	2801.2327	921.05	34.4
1006.7258	2802.4096	921.1	40.4
1006.8451	2803.5859	920.85	38
1006.9642	2804.7615	920.65	38.4
1007.0834	2805.9364	919.3	38.1
1007.2025	2807.1106	919.9	37.7
1007.3216	2808.2842	922.65	40.2
1007.4406	2809.4572	923.25	42.45
1007.5596	2810.6294	925.45	44.85
1007.6785	2811.801	926.15	44.6
1007.7975	2812.972	929.5	48.15
1007.9163	2814.1423	928.4	48.15
1008.0352	2815.3119	931.9	48.85
1008.154	2816.4808	930.3	50.4
1008.2727	2817.6491	935.65	52.85
1008.3914	2818.8167	932.6	52.65
1008.5101	2819.9837	944.05	59.3
1008.6288	2821.15	945.35	65.9
1008.7474	2822.3157	951.15	69.1
1008.8659	2823.4807	953.6	72.35
1008.9844	2824.645	962.45	77.45
1009.1029	2825.8086	968.4	88.65
1009.2214	2826.9716	972.25	90.3
1009.3398	2828.134	977.5	97.95
1009.4581	2829.2957	982.55	100.5
1009.5764	2830.4567	989.95	108.6
1009.6947	2831.617	992	111.65
1009.813	2832.7767	998	118.45
1009.9312	2833.9358	994.1	112.75
1010.0493	2835.0941	996.95	113.4
1010.1675	2836.2519	993	111.9
1010.2855	2837.4089	991.05	109.1
1010.4036	2838.5653	986.05	104.75
1010.5216	2839.7211	980.3	100.5
1010.6396	2840.8761	983.85	100.25
1010.7575	2842.0306	978.85	99.45
1010.8754	2843.1843	977.55	97.55
1010.9932	2844.3374	978.5	96.85
1011.111	2845.4899	981.45	99.1
1011.2288	2846.6417	984.05	104
1011.3465	2847.7928	985	103.95
1011.4642	2848.9433	984.45	104.05
1011.5818	2850.0931	984.95	102.05
1011.6995	2851.2422	986.2	104.3
1011.817	2852.3907	988.35	106.85
1011.9345	2853.5385	992.4	108.8
1012.052	2854.6857	1017.95	111.65
1012.1695	2855.8323	996.2	115.7
1012.2869	2856.9781	996.05	114.05
1012.4042	2858.1233	997.9	119.45
1012.5216	2859.2679	1004.85	123.15
1012.6389	2860.4118	1000.35	121.2
1012.7561	2861.555	1010.1	123.45
1012.8733	2862.6976	1011.5	128.7
1012.9905	2863.8395	1009.75	129.05
1013.1076	2864.9808	1009	127
1013.2247	2866.1214	1013.5	133.6
1013.3417	2867.2614	1013.85	132.25
1013.4587	2868.4007	1012.65	131.9
1013.5757	2869.5393	1016.15	133.5
1013.6926	2870.6773	1017.45	133.75
1013.8095	2871.8146	1024.1	138.6
1013.9263	2872.9513	1020.95	140.1
1014.0431	2874.0874	1025.7	145.05
1014.1599	2875.2227	1026.15	145.15
1014.2766	2876.3574	1023.85	144.7
1014.3933	2877.4915	1025.4	145.85
1014.51	2878.6249	1030	148.85
1014.6266	2879.7577	1032.8	151.45
1014.7431	2880.8898	1042.45	152.25
1014.8596	2882.0212	1030.45	151.6
1014.9761	2883.152	1033.9	150.2
1015.0925	2884.2821	1035.4	154.65
1015.2089	2885.4116	1037.15	156.5
1015.3253	2886.5405	1039.25	159.6
1015.4416	2887.6686	1043.4	160.05
1015.5579	2888.7962	1042.05	164.75
1015.6741	2889.923	1043.2	164.65
1015.7903	2891.0493	1039.05	159.15
1015.9065	2892.1748	1040.9	159.85
1016.0226	2893.2997	1034.5	153.75
1016.1387	2894.424	1036.25	155.6
1016.2547	2895.5476	1039.4	161.75
1016.3707	2896.6706	1039	158.95
1016.4866	2897.7929	1043.05	159.75
1016.6025	2898.9145	1039.8	158.7
1016.7184	2900.0355	1038.05	154.95
1016.8342	2901.1559	1045.25	165.05
1016.95	2902.2756	1043.3	158.9
1017.0658	2903.3946	1035.55	157.15
1017.1815	2904.513	1046.35	163.05
1017.2971	2905.6308	1040.8	160.5
1017.4127	2906.7479	1043.15	163.15
1017.5283	2907.8643	1035.6	153.2
1017.6439	2908.9801	1036.05	157.1
1017.7594	2910.0953	1042.55	162.05
1017.8748	2911.2098	1041.9	157.5
1017.9902	2912.3236	1045.6	156
1018.1056	2913.4368	1044.25	159.9
1018.2209	2914.5494	1034.6	153.55
1018.3362	2915.6613	1044.25	159.55
1018.4515	2916.7725	1034.3	150.6
1018.5667	2917.8831	1030.65	149.85
1018.6819	2918.9931	1029.85	148.1
1018.797	2920.1024	1028.75	146.4
1018.9121	2921.211	1025.45	145.85
1019.0271	2922.319	1024.75	143.65
1019.1421	2923.4264	1022.55	144.5
1019.2571	2924.5331	1019.1	141.4
1019.372	2925.6391	1019.1	137.55
1019.4869	2926.7445	1021.2	144.55
1019.6017	2927.8493	1024	144.05
1019.7165	2928.9534	1024.95	145.55
1019.8313	2930.0569	1025	141.45
1019.946	2931.1597	1023.2	139.7
1020.0606	2932.2619	1026.7	147.3
1020.1753	2933.3634	1022.35	141.9
1020.2899	2934.4643	1037.8	152.6
1020.4044	2935.5645	1034.4	148.15
1020.5189	2936.6641	1033.6	148.85
1020.6334	2937.763	1026.95	148.25
1020.7478	2938.8613	1029.35	145.85
1020.8622	2939.959	1034.9	148.75
1020.9765	2941.056	1022.85	144.8
1021.0908	2942.1523	1020.25	137.25
1021.2051	2943.248	1010.55	130.55
1021.3193	2944.3431	1010.2	128.3
1021.4334	2945.4375	999.1	119.35
1021.5476	2946.5313	990.65	111.5
1021.6617	2947.6244	988.05	107.4
1021.7757	2948.7169	981.45	100.15
1021.8897	2949.8087	973.15	92.75
1022.0037	2950.8999	970.25	88.75
1022.1176	2951.9904	964.75	84.95
1022.2315	2953.0803	964.7	83.1
1022.3453	2954.1696	959.15	80.75
1022.4591	2955.2582	956.3	78.35
1022.5728	2956.3462	956.45	75.75
1022.6865	2957.4335	956.85	73.8
1022.8002	2958.5202	957.4	75.75
1022.9138	2959.6062	954.55	75.85
1023.0274	2960.6916	947.4	69.1
1023.141	2961.7764	952.15	70.55
1023.2545	2962.8605	952.8	74.7
1023.3679	2963.9439	952.15	71.75
1023.4813	2965.0267	952.95	70.25
1023.5947	2966.1089	977.2	76.45
1023.708	2967.1905	951.05	71.15
1023.8213	2968.2714	949	68.05
1023.9346	2969.3516	949.8	68.9
1024.0478	2970.4312	955.55	67.8
1024.1609	2971.5102	947.85	68.5
1024.274	2972.5885	949.55	71.2
1024.3871	2973.6662	953.2	69.1
1024.5002	2974.7432	949.85	70.6
1024.6132	2975.8196	949.3	67.8
1024.7261	2976.8954	949.35	69.6
1024.839	2977.9705	948.95	69.1
1024.9519	2979.045	945.8	67.7
1025.0647	2980.1188	949.6	69.1
1025.1775	2981.192	947.2	68.45
1025.2902	2982.2645	946.85	64.5
1025.4029	2983.3364	946.4	67.25
1025.5156	2984.4077	945.2	67.25
1025.6282	2985.4783	948.85	63.55
1025.7407	2986.5483	942.35	64.05
1025.8532	2987.6177	937.45	57.45
1025.9657	2988.6864	936.15	56.4
1026.0782	2989.7545	937.65	53.95
1026.1906	2990.8219	931.65	53.55
1026.3029	2991.8887	932.3	51.65
1026.4152	2992.9548	927.5	49.35
1026.5275	2994.0204	926.2	47.85
1026.6397	2995.0852	921.1	42.2
1026.7519	2996.1495	921.15	39.45
1026.864	2997.2131	921.2	42.7
1026.9761	2998.276	918.15	38.3
1027.0882	2999.3383	917.2	35.8
1027.2002	3000.4	915.75	34
1027.3122	3001.4611	913	34.9
1027.4241	3002.5215	911.35	29.7
1027.536	3003.5812	911.2	33.45
1027.6478	3004.6404	908.75	29.8
1027.7596	3005.6989	911.55	29.35
1027.8714	3006.7567	907.15	29.7
1027.9831	3007.8139	935.5	29.1
1028.0947	3008.8705	906.35	26.85
1028.2064	3009.9264	909.6	26.1
1028.3179	3010.9818	904.45	25.25
1028.4295	3012.0364	905.15	24.2
1028.541	3013.0905	903.65	22.55
1028.6524	3014.1439	903.55	23.85
1028.7638	3015.1966	902.45	23.35
1028.8752	3016.2487	903.95	25.65
1028.9865	3017.3002	909.5	25.6
1029.0978	3018.3511	903.2	25.35
1029.209	3019.4013	902.5	23.15
1029.3202	3020.4509	901.85	22.5
1029.4314	3021.4998	904.4	24.3
1029.5425	3022.5481	901.3	23.05
1029.6535	3023.5958	902.7	21.8
1029.7645	3024.6428	903.35	25
1029.8755	3025.6892	903.3	25.7
1029.9864	3026.735	902.2	24.85
1030.0973	3027.7802	903.6	25.3
1030.2082	3028.8247	900.4	20.75
1030.319	3029.8685	900.5	21.2
1030.4297	3030.9118	904	21.95
1030.5404	3031.9544	902.2	23
1030.6511	3032.9963	903.65	24.2
1030.7617	3034.0376	900.7	20
1030.8723	3035.0783	905.35	25.8
1030.9829	3036.1184	901.7	21.75
1031.0934	3037.1578	899.6	19.1
1031.2038	3038.1966	900.3	20.75
1031.3142	3039.2348	898	18.5
1031.4246	3040.2723	910.7	22.55
1031.5349	3041.3092	902.25	24.4
1031.6452	3042.3455	901.05	20.6
1031.7554	3043.3811	901.65	23.4
1031.8656	3044.4161	901.55	22.3
1031.9758	3045.4505	898.8	20.35
1032.0859	3046.4842	903.75	24.05
1032.1959	3047.5173	900.1	20.4
1032.3059	3048.5498	900.6	21.4
1032.4159	3049.5816	905.1	25.55
1032.5258	3050.6128	903.05	22.05
1032.6357	3051.6434	902.25	21.95
1032.7455	3052.6734	904.55	24.1
1032.8553	3053.7027	903.8	26.4
1032.9651	3054.7314	901.35	20.9
1033.0748	3055.7594	900.65	23
1033.1845	3056.7868	902.5	22.7
1033.2941	3057.8136	902.6	25.55
1033.4037	3058.8398	902.45	24.65
1033.5132	3059.8653	901.3	21.1
1033.6227	3060.8902	902.75	25.1
1033.7321	3061.9145	903.1	24.95
1033.8415	3062.9381	901.25	22.05
1033.9509	3063.9612	917.8	23.55
1034.0602	3064.9835	903.05	24.25
1034.1694	3066.0053	904.6	21.4
1034.2787	3067.0264	901.25	24.2
1034.3878	3068.0469	905.4	23.85
1034.497	3069.0668	903.5	20.1
1034.6061	3070.086	901.35	21.95
1034.7151	3071.1046	903.55	24.95
1034.8241	3072.1226	900.8	20.1
1034.9331	3073.1399	902.65	22.45
1035.042	3074.1567	900.95	22.3
1035.1508	3075.1727	901.75	20.6
1035.2597	3076.1882	900.85	22.55
1035.3684	3077.203	897.2	19.5
1035.4772	3078.2173	900.5	20.85
1035.5859	3079.2308	901.25	20.3
1035.6945	3080.2438	901.55	19.05
1035.8031	3081.2561	898.55	18.7
1035.9117	3082.2678	897.35	19.3
1036.0202	3083.2789	898	19.15
1036.1286	3084.2893	896.1	15.65
1036.2371	3085.2991	898.05	21
1036.3454	3086.3083	902.05	21.95
1036.4538	3087.3169	898.1	18.5
1036.562	3088.3248	899.75	20.15
1036.6703	3089.3321	897.4	18.4
1036.7785	3090.3388	894.15	16.7
1036.8866	3091.3449	894.25	13.8
1036.9948	3092.3503	896.75	16.75
1037.1028	3093.3551	893.2	13.3
1037.2108	3094.3593	894.8	17.35
1037.3188	3095.3629	893.15	16.15
1037.4267	3096.3658	894.65	13.7
1037.5346	3097.3681	894.65	16.75
1037.6425	3098.3698	896.3	15.1
1037.7503	3099.3708	892.9	12.2
1037.858	3100.3713	893.25	15.45
1037.9657	3101.3711	893.8	14.65
1038.0734	3102.3702	1033.1	13.3
1038.181	3103.3688	895.25	14.75
1038.2886	3104.3667	892.95	17.45
1038.3961	3105.364	891.45	11.95
1038.5036	3106.3607	892.9	12.3
1038.611	3107.3568	894.65	16.05
1038.7184	3108.3522	891.9	11.3
1038.8257	3109.347	892.65	14.4
1038.933	3110.3412	897.5	12.8
1039.0403	3111.3348	892.8	13.6
1039.1475	3112.3277	890.3	12.55
1039.2547	3113.32	890.2	12.6
1039.3618	3114.3117	891.15	11.15
1039.4689	3115.3028	892.4	14.45
1039.5759	3116.2932	892	11.1
1039.6829	3117.2831	898.4	14.05
1039.7898	3118.2723	891.75	12.65
1039.8967	3119.2608	891.45	10.55
1040.0035	3120.2488	890.9	11.3
1040.1103	3121.2361	889.5	10.85
1040.2171	3122.2229	890.4	12.95
1040.3238	3123.209	890.7	9.15
1040.4305	3124.1944	890.75	11.45
1040.5371	3125.1793	890.95	10.65
1040.6437	3126.1635	890.75	12.65
1040.7502	3127.1471	887.25	10.45
1040.8567	3128.1301	887.8	10.4
1040.9631	3129.1125	887.4	9.35
1041.0695	3130.0942	892.85	15.05
1041.1759	3131.0753	898	8.45
1041.2822	3132.0558	892.5	9.85
1041.3884	3133.0357	889.1	9
1041.4946	3134.015	889.25	10.55
1041.6008	3134.9936	890.75	12.6
1041.7069	3135.9716	910.6	9.45
1041.813	3136.949	890.95	14.65
1041.919	3137.9258	905	8.3
1042.025	3138.902	895.95	13.3
1042.1309	3139.8775	887.75	10.05
1042.2368	3140.8524	885.55	6.15
1042.3427	3141.8267	890.15	8
1042.4485	3142.8004	886.4	8.35
1042.5542	3143.7735	894.4	11.1
1042.6599	3144.7459	890.95	10.4
1042.7656	3145.7178	888	9.7
1042.8712	3146.689	887.65	10.4
1042.9768	3147.6596	888.75	8.15
1043.0823	3148.6295	888.3	10.85
1043.1878	3149.5989	888.85	11.35
1043.2932	3150.5676	885	5.6
1043.3986	3151.5357	887	11.6
1043.5039	3152.5032	888	9.1
1043.6092	3153.4701	884.6	5.55
1043.7145	3154.4364	890.8	9.6
1043.8197	3155.402	884.75	7.55
1043.9248	3156.367	889.55	9.15
1044.03	3157.3315	922.35	10.05
1044.135	3158.2952	885.7	6.55
1044.24	3159.2584	885.55	8.8
1044.345	3160.221	888.2	8.95
1044.4499	3161.1829	886.4	7.9
1044.5548	3162.1442	885.9	6.3
1044.6596	3163.105	886.8	9
1044.7644	3164.065	887.55	8.9
1044.8692	3165.0245	890.05	7.95
1044.9739	3165.9834	885.45	8.85
1045.0785	3166.9416	886.8	9.65
1045.1831	3167.8993	884.95	6.4
1045.2877	3168.8563	884.55	4.4
1045.3922	3169.8127	885.75	7.5
1045.4966	3170.7684	885.4	8.75
1045.6011	3171.7236	885.9	6.4
1045.7054	3172.6782	886.3	8.9
1045.8098	3173.6321	887.15	8.25
1045.914	3174.5854	890.85	9.05
1046.0183	3175.5381	886.75	8.25
1046.1224	3176.4902	885.35	7.65
1046.2266	3177.4417	886.9	8.75
1046.3307	3178.3926	886.3	8.05
1046.4347	3179.3428	882.95	6.1
1046.5387	3180.2924	885.45	8.05
1046.6427	3181.2415	885.25	6.7
1046.7466	3182.1899	889.3	10.95
1046.8504	3183.1377	886.05	9.3
1046.9542	3184.0848	889.1	7.5
1047.058	3185.0314	886.65	7.45
1047.1617	3185.9773	887.5	8.6
1047.2654	3186.9227	887.55	8.4
1047.369	3187.8674	884.65	6.7
1047.4726	3188.8115	889.65	8.65
1047.5761	3189.755	885.15	5.95
1047.6796	3190.6979	885.8	9.1
1047.783	3191.6402	884.75	6.45
1047.8864	3192.5818	885.25	8.8
1047.9898	3193.5229	903.95	8.55
1048.0931	3194.4633	885.6	6.65
1048.1963	3195.4031	885.3	8.2
1048.2995	3196.3423	885.35	4.7
1048.4027	3197.2809	886.25	5.65
1048.5058	3198.2189	885.95	7.25
1048.6089	3199.1563	900.95	4.1
1048.7119	3200.0931	884.5	8.7
1048.8148	3201.0292	882.45	4.6
1048.9178	3201.9648	885.65	7.8
1049.0206	3202.8997	886.8	8.15
1049.1235	3203.834	884	5.95
1049.2262	3204.7677	884.65	4.55
1049.329	3205.7008	887.25	7.65
1049.4317	3206.6333	883.7	6.4
1049.5343	3207.5652	886.8	7.55
1049.6369	3208.4964	884.75	5.6
1049.7394	3209.4271	884.6	8.55
1049.8419	3210.3571	882.9	5.4
1049.9444	3211.2865	887.35	8.25
1050.0468	3212.2154	883.3	5.7
1050.1491	3213.1436	887.85	7.05
1050.2514	3214.0712	892.4	10.4
1050.3537	3214.9982	884.3	6.2
1050.4559	3215.9246	884.85	4.95
1050.5581	3216.8503	883.3	5.85
1050.6602	3217.7755	883.15	2.2
1050.7623	3218.7001	883.55	4.3
1050.8643	3219.624	884.2	4.65
1050.9663	3220.5473	884.15	5.2
1051.0682	3221.4701	884	4.55
1051.1701	3222.3922	884.9	4.75
1051.2719	3223.3137	883.5	3.65
1051.3737	3224.2346	883.3	5.65
1051.4754	3225.1549	883.9	7.1
1051.5771	3226.0746	882.75	4.3
1051.6788	3226.9937	883.6	4.65
1051.7804	3227.9121	883.25	5.85
1051.8819	3228.83	881.7	5.75
1051.9834	3229.7473	884.2	6.2
1052.0849	3230.6639	884.45	7.1
1052.1863	3231.5799	883.75	5.25
1052.2876	3232.4954	885.6	8.75
1052.3889	3233.4102	880.45	3.4
1052.4902	3234.3244	884.5	6.65
1052.5914	3235.238	883.95	7
1052.6926	3236.151	906.15	3.65
1052.7937	3237.0634	881.65	6.15
1052.8948	3237.9752	881.35	3.6
1052.9958	3238.8864	883.15	4.6
1053.0968	3239.797	882.65	4.5
1053.1977	3240.7069	883.4	5.65
1053.2986	3241.6163	883.05	4.05
1053.3994	3242.5251	882.95	8.15
1053.5002	3243.4332	883.35	5.75
1053.6009	3244.3408	884.5	6.55
1053.7016	3245.2477	878.55	1.8
1053.8022	3246.154	883	2.9
1053.9028	3247.0598	881.75	3
1054.0034	3247.9649	882.75	3.7
1054.1039	3248.8694	882.55	5.45
1054.2043	3249.7733	882.1	3.45
1054.3047	3250.6766	882.4	3.75
1054.4051	3251.5793	883	3.4
1054.5054	3252.4814	879.4	2.75
1054.6056	3253.3829	881.8	5.4
1054.7058	3254.2838	879.55	1.65
1054.806	3255.1841	883.2	4.35
1054.9061	3256.0838	882.05	3.8
1055.0061	3256.9829	880.15	1.55
1055.1062	3257.8814	886.85	7.45
1055.2061	3258.7792	885.8	4.55
1055.306	3259.6765	884.4	3.5
1055.4059	3260.5731	882.1	3.4
1055.5057	3261.4692	881.65	4.1
1055.6055	3262.3647	883.9	4.95
1055.7052	3263.2595	882.35	4.75
1055.8049	3264.1538	881.3	4.9
1055.9045	3265.0474	883.85	8.3
1056.0041	3265.9404	879.95	2.4
1056.1036	3266.8329	880.65	4.15
1056.2031	3267.7247	889.5	2.2
1056.3025	3268.616	880.15	4.25
1056.4019	3269.5066	881.55	4.25
1056.5013	3270.3966	883.25	4.15
1056.6005	3271.286	879.65	2.9
