Software Version:	3.9.2.0
Unit SN:	10000200
Spectrometer SN:	6960
Date:	3/8/2024 2:25:10 PM
Data Line Index:	25
Spectral Points:	2048
Integration time (ms):	125
Averages:	20
Delay (ms):	30000
Sequence Number:	1
Processing:	dark subtract
Laser Power (mW):	300
Laser Current (mA):	823
Laser Diode Temp (C):	25
Laser Case Temp (C):	26.1
System Temp (C):	26.1
Spectrometer Temp (C):	24
CCD Temp (C):	0.004
Secondary Temp (C):	20.014
Heatsink Temp (C):	20.871
CCDPCB Temp (C):	36.051
SecondaryPCB Temp (C):	31.338

Wavelength	RamanShift	Raw Counts	Dark Subtracted
787.061	30.1047	460.1	53.9
787.2016	32.3739	462.25	57.75
787.3422	34.6426	466.5	61.3
787.4828	36.9109	474.7	68.2
787.6235	39.1787	483.3	71.25
787.7642	41.4461	490.7	74
787.9049	43.7131	502.45	83.5
788.0456	45.9796	507	84.6
788.1863	48.2456	518.95	94.4
788.3271	50.5112	529.4	99.4
788.4679	52.7764	540.8	107.25
788.6087	55.0411	548.55	108.8
788.7496	57.3054	563.8	118.55
788.8904	59.5692	571.55	126.55
789.0313	61.8326	583.4	135.4
789.1722	64.0955	592.65	141.95
789.3132	66.3579	612.05	155.2
789.4541	68.6199	633.7	172.45
789.5951	70.8815	670.7	206
789.7361	73.1426	755.15	285.15
789.8771	75.4032	963.85	492.95
790.0181	77.6634	1476.35	998.8
790.1592	79.9231	2704.45	2220.95
790.3003	82.1824	5357.7	4862.6
790.4414	84.4412	10120.8	9603.5
790.5825	86.6995	16660.25	16110.7
790.7237	88.9574	23020.85	22448
790.8648	91.2148	27424.2	26832.95
791.006	93.4717	29438.25	28835.15
791.1472	95.7282	29921.1	29312.05
791.2885	97.9842	29897.7	29285.85
791.4297	100.2398	29407.45	28797.8
791.571	102.4949	28819.75	28203.7
791.7123	104.7495	28116.05	27496.3
791.8536	107.0036	27331.7	26713.3
791.9949	109.2573	26622.4	26004.75
792.1363	111.5105	25883.05	25262.2
792.2777	113.7632	25159.7	24533.6
792.4191	116.0154	24566.75	23930.3
792.5605	118.2672	24123.65	23492.5
792.7019	120.5185	23630.65	22998.75
792.8434	122.7693	23273.75	22640.15
792.9849	125.0197	22972.2	22334.6
793.1264	127.2696	22707.9	22068.45
793.2679	129.519	22607.8	21964.65
793.4094	131.7679	22438.35	21790.4
793.551	134.0163	22273.25	21621.65
793.6926	136.2642	22093.05	21438.75
793.8342	138.5117	21946.65	21286.1
793.9758	140.7587	21736.7	21080.7
794.1175	143.0052	21599.15	20939
794.2591	145.2512	21369.65	20707.9
794.4008	147.4967	21168.45	20507.2
794.5425	149.7417	21021.45	20355.6
794.6842	151.9863	20920.3	20251.5
794.826	154.2304	20836.1	20160.95
794.9677	156.4739	20734.15	20053.5
795.1095	158.717	20686.6	20007.25
795.2513	160.9596	20525.35	19841.5
795.3931	163.2017	20321.9	19635.5
795.535	165.4433	20035.65	19344.55
795.6768	167.6844	19697.65	19010
795.8187	169.925	19408	18716.2
795.9606	172.1651	19019.05	18322.55
796.1025	174.4047	18751.75	18054.8
796.2445	176.6439	18520.1	17818.4
796.3864	178.8825	18299.8	17598.6
796.5284	181.1206	18116.05	17408.45
796.6704	183.3582	17975.95	17266.65
796.8124	185.5954	17857.5	17144.65
796.9544	187.832	17787.15	17069
797.0965	190.0681	17770.1	17049
797.2386	192.3037	17777.5	17053.3
797.3806	194.5388	17788.5	17063.65
797.5228	196.7734	17862.15	17134.6
797.6649	199.0075	17918.7	17190.9
797.807	201.2411	18068	17338.85
797.9492	203.4742	18161.5	17426.7
798.0914	205.7068	18332.2	17593.75
798.2336	207.9389	18460.75	17722.65
798.3758	210.1704	18630.15	17902.3
798.518	212.4015	18732.15	18014.5
798.6603	214.632	18924.55	18212.25
798.8025	216.862	19117.4	18404.15
798.9448	219.0915	19284.35	18565.95
799.0871	221.3205	19520.15	18806.4
799.2294	223.549	19794.7	19084.15
799.3718	225.777	20140.55	19426.25
799.5141	228.0044	20550.25	19828.7
799.6565	230.2314	21062.25	20337.1
799.7989	232.4578	21476.8	20750.3
799.9413	234.6837	21902.35	21169.1
800.0837	236.909	22126.95	21388.3
800.2262	239.1339	22100.65	21336.65
800.3687	241.3582	21905.6	21156.05
800.5111	243.582	21528.75	20754.85
800.6536	245.8053	21166.05	20402.1
800.7961	248.0281	20838	20079.25
800.9387	250.2503	20593.3	19830.55
801.0812	252.472	20424	19657.8
801.2238	254.6932	20373.5	19610
801.3664	256.9139	20251.85	19484.2
801.509	259.134	20244.55	19476.95
801.6516	261.3536	20220.9	19455.5
801.7942	263.5727	20229.75	19461.55
801.9369	265.7912	20175.85	19409.6
802.0795	268.0092	20166.5	19399.3
802.2222	270.2267	20103.95	19334.8
802.3649	272.4436	20120	19350.05
802.5076	274.6601	20042.05	19264.2
802.6504	276.8759	19979.55	19202.05
802.7931	279.0913	19966.1	19189.4
802.9359	281.3061	19958.35	19179.3
803.0787	283.5204	20043.3	19261.45
803.2215	285.7341	20145.6	19360.55
803.3643	287.9473	20348.8	19554.15
803.5071	290.16	20584.55	19797.2
803.6499	292.3721	20944.45	20165.7
803.7928	294.5837	21365.95	20583.25
803.9357	296.7947	21737.5	20955.45
804.0786	299.0052	21983.8	21198.6
804.2215	301.2152	21841.2	21051.85
804.3644	303.4246	21463.6	20681.25
804.5074	305.6334	20921.55	20138.5
804.6503	307.8418	20401.85	19614.05
804.7933	310.0495	19996.55	19207.3
804.9363	312.2568	19722.4	18934.4
805.0793	314.4635	19487.85	18696.75
805.2223	316.6696	19434.25	18641
805.3653	318.8752	19414.35	18611.45
805.5084	321.0802	19470.8	18671.95
805.6514	323.2847	19591.55	18792.75
805.7945	325.4887	19689.75	18890.25
805.9376	327.692	19632.95	18833.7
806.0807	329.8949	19540.25	18739.85
806.2238	332.0972	19239.4	18434.85
806.367	334.2989	18969.15	18163.95
806.5101	336.5001	18703.9	17899.85
806.6533	338.7007	18527.15	17718.05
806.7965	340.9008	18416.9	17609.7
806.9397	343.1003	18293	17483.8
807.0829	345.2992	18263.1	17454.85
807.2261	347.4976	18207.6	17395.95
807.3693	349.6955	18229.5	17414.15
807.5126	351.8927	18344.65	17526.05
807.6559	354.0895	18337.95	17510.55
807.7991	356.2856	18440.5	17621.5
807.9424	358.4812	18418.1	17600.45
808.0857	360.6763	18421.6	17601.3
808.2291	362.8707	18397.55	17572.8
808.3724	365.0646	18451.15	17628.3
808.5158	367.258	18497.95	17672.5
808.6591	369.4508	18511.65	17679.8
808.8025	371.643	18608.85	17779
808.9459	373.8346	18562.5	17731.95
809.0893	376.0257	18560.7	17727.65
809.2327	378.2162	18490.25	17660.9
809.3762	380.4062	18410.45	17578.6
809.5196	382.5956	18229.15	17401.6
809.6631	384.7844	18130.55	17310.5
809.8066	386.9726	18044.5	17225.3
809.9501	389.1603	18003.75	17184
810.0936	391.3474	18004.95	17139.3
810.2371	393.5339	17986.5	17158.55
810.3806	395.7199	17933.3	17108.85
810.5241	397.9052	17965.1	17139.55
810.6677	400.09	17970.2	17146.05
810.8113	402.2743	18067.25	17242.45
810.9548	404.4579	18145.05	17319.45
811.0984	406.641	18284.3	17457.25
811.2421	408.8235	18522.6	17691.65
811.3857	411.0054	18879.2	18046
811.5293	413.1868	19331.35	18494.45
811.673	415.3675	19714.6	18873.55
811.8166	417.5477	19956.55	19119.3
811.9603	419.7273	19945.3	19103.2
812.104	421.9064	19851.35	19004.7
812.2477	424.0848	19710.75	18870.8
812.3914	426.2627	19496.6	18658.35
812.5351	428.4399	19221.5	18377.7
812.6788	430.6166	18823.05	17976.55
812.8226	432.7928	18486	17640.5
812.9663	434.9683	18168.75	17320.15
813.1101	437.1432	17939.75	17092.5
813.2539	439.3176	17789.45	16949.7
813.3977	441.4914	17652.55	16817.05
813.5415	443.6645	17683.25	16842.75
813.6853	445.8371	17620.6	16778.25
813.8291	448.0091	17532.7	16687.85
813.973	450.1806	17497.9	16654.25
814.1168	452.3514	17452.45	16608.95
814.2607	454.5216	17478.9	16625.55
814.4046	456.6913	17383.75	16535.9
814.5485	458.8603	17435.3	16591.7
814.6924	461.0288	17509.65	16669.1
814.8363	463.1967	17539.9	16703.6
814.9802	465.3639	17686.8	16842.55
815.1241	467.5306	17809.95	16963.85
815.2681	469.6967	17932.35	17091.75
815.412	471.8622	18139.8	17297.9
815.556	474.0271	18268.4	17426.3
815.7	476.1914	18374.65	17527.7
815.844	478.3551	18373.85	17527.75
815.988	480.5182	18350.1	17504.3
816.132	482.6807	18331.35	17490.95
816.276	484.8426	18433.35	17598.9
816.4201	487.0039	18706.75	17868.2
816.5641	489.1647	19127.85	18280.6
816.7082	491.3248	19569.25	18720.25
816.8522	493.4843	19749.65	18904.35
816.9963	495.6432	19734.05	18885.6
817.1404	497.8015	19715.95	18861.95
817.2845	499.9592	19739.25	18881.15
817.4286	502.1163	19702.15	18843.85
817.5727	504.2728	19461.8	18608.4
817.7168	506.4287	19201.15	18353.85
817.861	508.5839	18764.7	17918
818.0051	510.7386	18415.4	17563.3
818.1493	512.8927	18236.05	17380.75
818.2935	515.0461	18145.15	17288.45
818.4377	517.199	18085.4	17226.9
818.5818	519.3512	18064.15	17206.75
818.726	521.5029	18133.4	17269.9
818.8703	523.6539	18204	17344.45
819.0145	525.8043	18272.3	17411.85
819.1587	527.9541	18277	17417.5
819.303	530.1033	18284.7	17424.2
819.4472	532.2519	18334.3	17473.95
819.5915	534.3999	18497	17633.35
819.7357	536.5472	18800.35	17941.5
819.88	538.694	19296	18441.2
820.0243	540.8401	19903.2	19040.55
820.1686	542.9856	20432.7	19563.4
820.3129	545.1305	20653.2	19779.35
820.4572	547.2748	20490.6	19619.45
820.6016	549.4185	20108	19233.9
820.7459	551.5615	19713.2	18839.2
820.8902	553.704	19613.9	18741
821.0346	555.8458	19540.1	18672.85
821.1789	557.987	19522.1	18654
821.3233	560.1276	19521.45	18652.7
821.4677	562.2675	19494	18626.55
821.6121	564.4069	19531.2	18661.15
821.7565	566.5456	19446.8	18579.25
821.9009	568.6837	19365.75	18495.6
822.0453	570.8212	19088	18222.05
822.1897	572.958	18798.15	17929.6
822.3342	575.0942	18561.25	17695.05
822.4786	577.2299	18405.25	17542.7
822.6231	579.3648	18401.35	17541.9
822.7675	581.4992	18493.55	17642.8
822.912	583.6329	18705.3	17856
823.0565	585.766	18953.15	18095.9
823.201	587.8985	19086.5	18226.55
823.3454	590.0304	19107.55	18230.1
823.4899	592.1616	19033.5	18158
823.6345	594.2922	18937.9	18063.6
823.779	596.4222	18791.25	17919.35
823.9235	598.5515	18622.45	17743.2
824.068	600.6802	18485.9	17609.35
824.2126	602.8083	18281.55	17405.3
824.3571	604.9358	18221.7	17347.3
824.5017	607.0626	18162.7	17288.95
824.6462	609.1888	18153.15	17271.3
824.7908	611.3144	18092.05	17214.6
824.9354	613.4393	17959.1	17082.1
825.08	615.5636	17863.9	16986.65
825.2246	617.6873	17784.9	16909.5
825.3692	619.8103	17716.6	16836.3
825.5138	621.9327	17644.1	16765.45
825.6584	624.0544	17617.8	16740.85
825.803	626.1756	17639.5	16761.7
825.9477	628.2961	17576.8	16698.4
826.0923	630.4159	17531	16653.9
826.237	632.5351	17534.4	16653.4
826.3816	634.6537	17462.35	16580.8
826.5263	636.7716	17415.15	16528.65
826.6709	638.8889	17470.1	16584.4
826.8156	641.0056	17485.75	16600.9
826.9603	643.1216	17481.2	16598.3
827.105	645.237	17565.55	16681.7
827.2497	647.3518	17554.4	16677.5
827.3944	649.4659	17579.25	16702.35
827.5391	651.5793	17617.25	16740.6
827.6838	653.6922	17602.9	16723.15
827.8285	655.8043	17593.6	16713.1
827.9733	657.9159	17571.1	16691.5
828.118	660.0268	17494.3	16609.3
828.2627	662.137	17458.5	16573.05
828.4075	664.2466	17439.5	16551.9
828.5522	666.3556	17439.2	16555.2
828.697	668.4639	17390.2	16504.55
828.8418	670.5716	17498.3	16617.95
828.9865	672.6786	17576.8	16693.55
829.1313	674.785	17640.6	16750.75
829.2761	676.8907	17707.75	16823.65
829.4209	678.9958	17804.85	16922.45
829.5657	681.1002	17769.45	16883.85
829.7105	683.204	17787.15	16893
829.8553	685.3072	17710.65	16821
830.0001	687.4097	17669.7	16782.55
830.1449	689.5115	17605.5	16715.7
830.2898	691.6127	17564.45	16676.2
830.4346	693.7132	17528.45	16643.75
830.5794	695.8131	17513.55	16603.15
830.7243	697.9123	17491.5	16600.6
830.8691	700.0109	17474.85	16584.35
831.014	702.1089	17458.8	16565.4
831.1588	704.2061	17456.95	16564.95
831.3037	706.3028	17509.05	16612.65
831.4486	708.3987	17589.65	16698.7
831.5935	710.4941	17664.75	16775.2
831.7383	712.5887	17890.7	16998.5
831.8832	714.6827	18185	17289.8
832.0281	716.7761	18552.8	17665.1
832.173	718.8688	18928.05	18039.35
832.3179	720.9608	19143.6	18248.2
832.4628	723.0522	19235.6	18337.25
832.6077	725.1429	19023.75	18125.4
832.7527	727.233	18706.15	17811.9
832.8976	729.3224	18434.65	17540.85
833.0425	731.4112	18150.5	17253.6
833.1874	733.4993	17915.6	17020.15
833.3324	735.5867	17791.8	16898.4
833.4773	737.6735	17741.25	16846.35
833.6222	739.7596	17650.85	16753.85
833.7672	741.845	17626.1	16729.45
833.9122	743.9298	17606.4	16708.2
834.0571	746.014	17633.35	16739.2
834.2021	748.0974	17637.75	16734.9
834.347	750.1802	17635.7	16735.5
834.492	752.2624	17662.1	16760.3
834.637	754.3439	17707.45	16807.45
834.782	756.4247	17764.35	16855.85
834.9269	758.5048	17841.9	16943.65
835.0719	760.5843	18073.6	17171.7
835.2169	762.6631	18359.25	17459.7
835.3619	764.7413	18824.35	17924.8
835.5069	766.8188	19400.2	18499.5
835.6519	768.8956	19820.4	18920.65
835.7969	770.9718	20150.65	19251.4
835.9419	773.0473	20001.5	19101.25
836.0869	775.1221	19707.7	18811.95
836.232	777.1962	19318.45	18420.05
836.377	779.2697	19103.6	18204.8
836.522	781.3426	19196.05	18274.55
836.667	783.4147	19475.4	18574.45
836.8121	785.4862	19813.7	18915.2
836.9571	787.557	19843.55	18941.95
837.1021	789.6271	19501.6	18597.5
837.2472	791.6966	18963	18059.8
837.3922	793.7654	18437.5	17534.05
837.5373	795.8335	18160.85	17262.35
837.6823	797.901	17961.5	17060.9
837.8274	799.9678	17924.6	17019.2
837.9724	802.0339	17956.65	17055.7
838.1175	804.0993	18007.35	17097.45
838.2626	806.1641	18003.65	17100.1
838.4076	808.2282	17966.05	17065.15
838.5527	810.2916	17906.25	17002.7
838.6978	812.3544	17806.85	16905.95
838.8428	814.4164	17706.5	16804.8
838.9879	816.4778	17745	16838.35
839.133	818.5385	17769	16863.05
839.2781	820.5986	17805.45	16901.45
839.4232	822.658	17898	16993.55
839.5682	824.7166	17985.4	17078.6
839.7133	826.7747	18223.05	17314.95
839.8584	828.832	18382.25	17476.45
840.0035	830.8886	18516.15	17607.15
840.1486	832.9446	18690.95	17783.1
840.2937	834.9999	18688.8	17782.55
840.4388	837.0545	18775.65	17864.1
840.5839	839.1085	18800.2	17895.35
840.729	841.1618	18760.1	17850.95
840.8741	843.2143	18738.95	17833.15
841.0192	845.2662	18643.85	17738.7
841.1643	847.3175	18623.55	17717.45
841.3095	849.368	18511.5	17601.85
841.4546	851.4179	18413.5	17506.75
841.5997	853.467	18276.15	17368.85
841.7448	855.5155	18183.35	17272.75
841.8899	857.5633	18070.75	17163.25
842.0351	859.6105	17947.55	17037.55
842.1802	861.6569	17910.5	16999.95
842.3253	863.7027	17853.4	16944.55
842.4704	865.7478	17873.2	16962.1
842.6156	867.7922	17910.55	16999.35
842.7607	869.8359	17929.6	17018.2
842.9058	871.8789	18091.05	17178.6
843.0509	873.9212	18288.75	17348.3
843.1961	875.9629	18423.75	17515.8
843.3412	878.0039	18628.2	17717.95
843.4863	880.0441	18737.15	17831.15
843.6315	882.0837	18728.85	17819.05
843.7766	884.1226	18653.5	17741.9
843.9218	886.1609	18520.65	17611.3
844.0669	888.1984	18463.45	17555.1
844.212	890.2352	18487.85	17577.4
844.3572	892.2714	18425.95	17511.4
844.5023	894.3069	18435.65	17525.4
844.6475	896.3416	18386.8	17474.8
844.7926	898.3757	18344.15	17435.55
844.9377	900.4091	18365.45	17453.5
845.0829	902.4418	18391.65	17472.25
845.228	904.4739	18379.1	17463.25
845.3732	906.5052	18376.8	17460.6
845.5183	908.5358	18315.95	17400.85
845.6635	910.5658	18139.15	17221.25
845.8086	912.595	18009.2	17095.65
845.9538	914.6236	17859.75	16946.9
846.0989	916.6515	17786.05	16875.05
846.2441	918.6786	17812.7	16900.15
846.3892	920.7051	17875.65	16961.6
846.5344	922.7309	18029.95	17117.8
846.6795	924.756	18068.2	17154.7
846.8246	926.7804	18214.95	17300.6
846.9698	928.8041	18118.45	17205.85
847.1149	930.8272	18185.25	17269.65
847.2601	932.8495	18104.05	17188.4
847.4052	934.8711	18068.85	17152.2
847.5504	936.892	17888.7	16975.9
847.6955	938.9123	17728.1	16815.05
847.8407	940.9318	17605.05	16690.45
847.9858	942.9506	17518.7	16601.85
848.131	944.9688	17386.2	16472.45
848.2761	946.9862	17348.35	16435.05
848.4213	949.003	17271.45	16357.8
848.5664	951.019	17309.95	16394.8
848.7115	953.0344	17315.45	16402.65
848.8567	955.0491	17376.2	16460.5
849.0018	957.063	17505.85	16592.5
849.147	959.0763	17583.5	16670.35
849.2921	961.0888	17667.35	16754.05
849.4373	963.1007	17741.55	16827.05
849.5824	965.1119	17818.45	16909.65
849.7275	967.1223	17825.55	16918.6
849.8727	969.1321	17876.4	16975.95
850.0178	971.1412	17905.75	16994.35
850.1629	973.1495	17915.5	17004.5
850.3081	975.1572	17986.1	17031.05
850.4532	977.1641	18016.4	17102.15
850.5983	979.1704	17961.75	17047.3
850.7435	981.1759	17976.1	17058.4
850.8886	983.1808	18062.05	17149.4
851.0337	985.1849	18158.7	17241.95
851.1788	987.1884	18299.7	17382.55
851.324	989.1911	18454.45	17536.55
851.4691	991.1932	18601.55	17688.55
851.6142	993.1945	18678.3	17763.3
851.7593	995.1951	18593.5	17679
851.9045	997.1951	18564.9	17642.75
852.0496	999.1943	18495.4	17579.1
852.1947	1001.1928	18437.05	17520.2
852.3398	1003.1906	18406.45	17488.35
852.4849	1005.1877	18472.3	17556.5
852.63	1007.1841	18442.35	17526.2
852.7751	1009.1798	18340.05	17425.95
852.9202	1011.1748	18157.6	17244.9
853.0653	1013.1691	17953.55	17037.95
853.2104	1015.1627	17735.3	16820.55
853.3555	1017.1556	17526.35	16613.7
853.5006	1019.1477	17431.75	16520.9
853.6457	1021.1392	17323.05	16413.4
853.7908	1023.1299	17341.4	16433.3
853.9359	1025.12	17355.75	16451.5
854.081	1027.1093	17403.35	16504.65
854.2261	1029.0979	17515.45	16622.6
854.3712	1031.0859	17515.45	16618.05
854.5163	1033.0731	17533	16627.6
854.6613	1035.0596	17468.5	16559.8
854.8064	1037.0454	17281.85	16368.45
854.9515	1039.0304	17197.55	16284.45
855.0965	1041.0148	17028.4	16115.75
855.2416	1042.9985	16976.25	16061.95
855.3867	1044.9814	16984.3	16070.4
855.5317	1046.9636	16872.1	15956.65
855.6768	1048.9452	16855.7	15942.85
855.8219	1050.926	16886.8	15976.35
855.9669	1052.9061	16856.05	15942.6
856.112	1054.8855	16846.55	15935.9
856.257	1056.8642	16922.55	16006.9
856.4021	1058.8421	16968.75	16052.3
856.5471	1060.8194	16962.95	16044.8
856.6921	1062.7959	17015.2	16101.2
856.8372	1064.7717	17032.9	16118.15
856.9822	1066.7469	17080.5	16162.05
857.1272	1068.7213	17066.95	16151.6
857.2723	1070.695	17044.4	16132.05
857.4173	1072.6679	16966.6	16052.05
857.5623	1074.6402	16924.2	16006.3
857.7073	1076.6117	16916.8	15994.7
857.8523	1078.5826	16908.2	15990.85
857.9973	1080.5527	16938.7	16022.5
858.1423	1082.5221	17060.25	16145.65
858.2873	1084.4908	17225.9	16311
858.4323	1086.4587	17428.15	16511.95
858.5773	1088.426	17571.6	16657.4
858.7223	1090.3925	17551.15	16634.55
858.8673	1092.3584	17503.5	16587.75
859.0123	1094.3235	17346.2	16431.55
859.1573	1096.2879	17314.45	16400.95
859.3022	1098.2515	17277.65	16364.05
859.4472	1100.2145	17310.2	16395.9
859.5922	1102.1767	17450	16531.55
859.7371	1104.1382	17521.45	16609.2
859.8821	1106.099	17737.5	16822.75
860.027	1108.0591	17954.9	17041.75
860.172	1110.0185	18115.55	17203.3
860.3169	1111.9771	18114.25	17200.9
860.4619	1113.9351	17877.95	16962.7
860.6068	1115.8923	17541.4	16629.4
860.7517	1117.8488	17287.1	16369.35
860.8967	1119.8045	16976.4	16062.75
861.0416	1121.7596	16866.1	15951.8
861.1865	1123.7139	16794.35	15882.1
861.3314	1125.6675	16795.5	15881.8
861.4763	1127.6204	16864.1	15951.25
861.6212	1129.5726	16868.6	15952.05
861.7661	1131.524	16870.35	15954.1
861.911	1133.4748	16886.95	15975.45
862.0559	1135.4248	16884.45	15969.25
862.2008	1137.3741	16892.85	15980.55
862.3457	1139.3226	16849.75	15935.35
862.4905	1141.2705	16809.25	15894.5
862.6354	1143.2176	16727.55	15811.6
862.7803	1145.164	16723.65	15806.7
862.9251	1147.1097	16733.6	15817.85
863.07	1149.0546	16727.15	15811.4
863.2148	1150.9989	16638.25	15723.05
863.3597	1152.9424	16523.45	15604.85
863.5045	1154.8852	16360.7	15444.6
863.6493	1156.8272	16228.6	15314.2
863.7942	1158.7686	16180.1	15263.6
863.939	1160.7092	16091.6	15176.75
864.0838	1162.6491	16100.95	15182.05
864.2286	1164.5883	16193.9	15279.95
864.3734	1166.5267	16234.25	15319.1
864.5182	1168.4644	16412.45	15499.5
864.663	1170.4014	16582.5	15664.45
864.8078	1172.3377	16816.5	15906.55
864.9526	1174.2732	17041.75	16129.65
865.0974	1176.2081	17304.45	16388.25
865.2421	1178.1421	17483.3	16565.6
865.3869	1180.0755	17670.25	16756.55
865.5317	1182.0082	17690.8	16777.9
865.6764	1183.9401	17697.4	16783.8
865.8212	1185.8713	17554	16644.25
865.9659	1187.8017	17313.35	16407.1
866.1106	1189.7315	17046.6	16148.65
866.2554	1191.6605	16753.15	15854.35
866.4001	1193.5888	16592.2	15688.3
866.5448	1195.5163	16469.45	15563.55
866.6895	1197.4432	16394.3	15483.4
866.8342	1199.3693	16344.45	15433.95
866.9789	1201.2947	16261.75	15342.95
867.1236	1203.2193	16212.1	15300.65
867.2683	1205.1432	16287.85	15375
867.413	1207.0664	16283.9	15368.95
867.5576	1208.9889	16316.6	15401.5
867.7023	1210.9106	16360.85	15446.6
867.847	1212.8316	16378.45	15467.35
867.9916	1214.7519	16479.6	15557.7
868.1363	1216.6715	16441.65	15528.05
868.2809	1218.5903	16481.8	15572.3
868.4255	1220.5084	16396.75	15484.7
868.5701	1222.4257	16425.65	15511.55
868.7148	1224.3424	16342.2	15432.7
868.8594	1226.2583	16393.4	15476.6
869.004	1228.1735	16472.2	15559.4
869.1486	1230.0879	16566.9	15654.45
869.2932	1232.0016	16681.7	15767.7
869.4377	1233.9146	16715.3	15801.3
869.5823	1235.8269	16605.25	15691.85
869.7269	1237.7384	16501.9	15592.7
869.8715	1239.6492	16309.15	15399.2
870.016	1241.5592	16197.45	15287.55
870.1606	1243.4686	16106.75	15193.55
870.3051	1245.3772	16084.6	15172
870.4496	1247.285	16048.65	15139.1
870.5941	1249.1922	15987.55	15074.05
870.7387	1251.0986	15980.85	15067.65
870.8832	1253.0042	15959.8	15048.95
871.0277	1254.9092	16020.8	15109.7
871.1722	1256.8134	16083.65	15175.6
871.3167	1258.7169	16207.2	15296.45
871.4611	1260.6196	16354.15	15444.95
871.6056	1262.5216	16569.95	15657.45
871.7501	1264.4229	16721.9	15813.9
871.8945	1266.3234	16878.45	15967.4
872.039	1268.2232	16943.7	16031.25
872.1834	1270.1223	16893.35	15978.3
872.3278	1272.0207	16891.45	15980.9
872.4723	1273.9183	16845.75	15929.85
872.6167	1275.8151	16748.35	15837.45
872.7611	1277.7113	16674.7	15762.35
872.9055	1279.6067	16542.9	15633.65
873.0499	1281.5014	16410.8	15495.45
873.1943	1283.3953	16332.85	15421.25
873.3386	1285.2885	16351.85	15441.55
873.483	1287.181	16350.7	15438.5
873.6274	1289.0727	16422.7	15515.8
873.7717	1290.9637	16494.75	15585.2
873.9161	1292.854	16637.8	15728.8
874.0604	1294.7435	16739.2	15830.7
874.2047	1296.6323	16960.75	16053.75
874.349	1298.5204	17223.3	16309.3
874.4933	1300.4077	17413.9	16501.2
874.6376	1302.2943	17565.9	16654.05
874.7819	1304.1802	17631.95	16722.9
874.9262	1306.0653	17540.75	16627.15
875.0705	1307.9497	17351.2	16443.05
875.2147	1309.8333	17212.45	16304.75
875.359	1311.7162	17099.35	16189.15
875.5032	1313.5984	17154.7	16241.15
875.6475	1315.4798	17234.9	16315.7
875.7917	1317.3605	17293.8	16367.65
875.9359	1319.2405	17352.4	16440.05
876.0801	1321.1197	17303.9	16391.15
876.2243	1322.9982	17220.9	16308.6
876.3685	1324.876	17175.6	16264.75
876.5127	1326.753	17056.05	16148.5
876.6569	1328.6293	17047.45	16136.25
876.801	1330.5048	17055	16141.7
876.9452	1332.3796	17000.6	16089.2
877.0893	1334.2537	16995.55	16059.25
877.2335	1336.127	16893.8	15984.15
877.3776	1337.9996	16858.7	15947.6
877.5217	1339.8714	16813.45	15900.35
877.6658	1341.7426	16759.95	15805.95
877.8099	1343.6129	16767.55	15855.5
877.954	1345.4826	16655.65	15745.6
878.0981	1347.3515	16622.1	15708.15
878.2422	1349.2196	16536.75	15622.75
878.3862	1351.087	16549.25	15636.7
878.5303	1352.9537	16586.65	15673.45
878.6743	1354.8197	16727.5	15815.4
878.8184	1356.6849	16900.2	15988.05
878.9624	1358.5493	16975.15	16063.05
879.1064	1360.4131	16979.65	16070.25
879.2504	1362.276	16865.55	15953.35
879.3944	1364.1383	16747.75	15837.35
879.5384	1365.9998	16495.75	15583
879.6823	1367.8606	16186.1	15275.35
879.8263	1369.7206	15917.3	15006.85
879.9702	1371.5799	15689.95	14777.1
880.1142	1373.4384	15543.45	14630
880.2581	1375.2962	15395.5	14485.45
880.402	1377.1533	15111.1	14204.1
880.5459	1379.0096	14792.55	13886.7
880.6898	1380.8652	14515.6	13607.85
880.8337	1382.7201	14256.2	13347.95
880.9776	1384.5742	14053.4	13145.8
881.1215	1386.4275	13874.7	12961.5
881.2653	1388.2802	13724.35	12815.6
881.4092	1390.132	13620	12710.9
881.553	1391.9832	13561.55	12649.85
881.6968	1393.8336	13448.25	12536.55
881.8406	1395.6832	13420	12508.7
881.9844	1397.5322	13338.25	12427.4
882.1282	1399.3803	13317.55	12401.65
882.272	1401.2278	13269.65	12362.95
882.4158	1403.0745	13239.35	12329.55
882.5595	1404.9204	13231.85	12325.25
882.7033	1406.7656	13247.6	12339.15
882.847	1408.6101	13222	12308.35
882.9908	1410.4538	13249.95	12340.05
883.1345	1412.2968	13256.3	12347.85
883.2782	1414.139	13292	12383
883.4219	1415.9805	13370.55	12463.5
883.5656	1417.8213	13437	12522.1
883.7092	1419.6613	13529.15	12621.9
883.8529	1421.5006	13710.7	12801.95
883.9965	1423.3391	13913.5	13006.3
884.1402	1425.1769	14262.5	13353.7
884.2838	1427.0139	14755.05	13842.9
884.4274	1428.8502	15337.75	14424.2
884.571	1430.6858	15871.4	14961.2
884.7146	1432.5206	16260.45	15350.65
884.8582	1434.3547	16495.1	15586.9
885.0018	1436.188	16526.35	15618.8
885.1453	1438.0206	16472.95	15566.25
885.2889	1439.8524	16273.9	15363.25
885.4324	1441.6835	16153.65	15244.4
885.5759	1443.5139	16085.3	15172.4
885.7194	1445.3435	15999.8	15092.3
885.8629	1447.1724	15930.3	15021.55
886.0064	1449.0005	15834.15	14926.9
886.1499	1450.8279	15738.15	14830.3
886.2933	1452.6545	15678.3	14771.95
886.4368	1454.4804	15718.4	14809.45
886.5802	1456.3056	15694.7	14779.55
886.7237	1458.13	15618.6	14712.5
886.8671	1459.9536	15369.25	14459.75
887.0105	1461.7766	15009.3	14102.5
887.1539	1463.5987	14590.75	13680.65
887.2972	1465.4202	14207.35	13297.6
887.4406	1467.2409	13850.75	12940.7
887.584	1469.0608	13591.7	12684.7
887.7273	1470.88	13293.15	12385.55
887.8706	1472.6984	13080.8	12173.55
888.0139	1474.5161	12839.5	11929.65
888.1572	1476.3331	12680.05	11769.45
888.3005	1478.1493	12573.55	11666.5
888.4438	1479.9648	12466.65	11559.05
888.5871	1481.7795	12358.35	11451.65
888.7303	1483.5935	12305	11398.4
888.8736	1485.4067	12204.85	11297
889.0168	1487.2192	12158.35	11252.45
889.16	1489.031	12094.1	11182.1
889.3032	1490.842	12047.6	11142.55
889.4464	1492.6522	12046.2	11143.3
889.5896	1494.4618	11987.85	11078.85
889.7327	1496.2705	11970.95	11065.1
889.8759	1498.0785	11914.5	11008.7
890.019	1499.8858	11880	10971.2
890.1622	1501.6924	11811.65	10902.45
890.3053	1503.4981	11790.4	10883.7
890.4484	1505.3032	11765.25	10858.15
890.5914	1507.1075	11694.45	10785.75
890.7345	1508.911	11695.15	10789.8
890.8776	1510.7138	11679.25	10773.55
891.0206	1512.5159	11607.85	10699.5
891.1637	1514.3172	11523.2	10613.7
891.3067	1516.1178	11467.35	10563.9
891.4497	1517.9176	11442.1	10533.55
891.5927	1519.7166	11398.25	10493.85
891.7357	1521.515	11371.55	10458.7
891.8786	1523.3126	11331.65	10427
892.0216	1525.1094	11296.7	10389.35
892.1645	1526.9055	11222.3	10319.15
892.3074	1528.7008	11199.5	10296.35
892.4503	1530.4954	11135.9	10228.15
892.5932	1532.2893	11138.15	10234.65
892.7361	1534.0824	11065.9	10158.25
892.879	1535.8747	11060.4	10157.25
893.0218	1537.6663	11028.9	10128
893.1647	1539.4572	11011.95	10108
893.3075	1541.2473	10993.1	10087.25
893.4503	1543.0367	10966.85	10064.25
893.5931	1544.8253	10942.5	10034.8
893.7359	1546.6132	10946.15	10040.65
893.8787	1548.4003	10927.2	10013.35
894.0214	1550.1867	10946.2	10033.3
894.1642	1551.9723	10937.3	10032.15
894.3069	1553.7572	10953.6	10054.65
894.4496	1555.5414	11007.25	10109.2
894.5923	1557.3247	11031.15	10132.55
894.735	1559.1074	11091.6	10194.05
894.8777	1560.8893	11144.15	10245.1
895.0204	1562.6705	11179.2	10280.05
895.163	1564.4509	11246.35	10349.65
895.3056	1566.2305	11272.9	10379.35
895.4482	1568.0094	11358.95	10461.7
895.5908	1569.7876	11412	10515.75
895.7334	1571.565	11424.65	10527.05
895.876	1573.3417	11447.5	10551.2
896.0186	1575.1176	11427.8	10531.6
896.1611	1576.8928	11361.1	10465.3
896.3036	1578.6672	11260.65	10369.75
896.4461	1580.4409	11152.65	10263.45
896.5886	1582.2138	11012.25	10116.35
896.7311	1583.986	10901.35	10006
896.8736	1585.7575	10834.5	9938.5
897.0161	1587.5282	10766.55	9872.95
897.1585	1589.2981	10704.8	9814.85
897.3009	1591.0673	10634	9743.1
897.4433	1592.8358	10635.35	9744.45
897.5857	1594.6035	10634.7	9738.8
897.7281	1596.3704	10621.35	9724.25
897.8705	1598.1366	10653.5	9757.7
898.0128	1599.9021	10665.65	9773.5
898.1551	1601.6668	10716.85	9822.85
898.2975	1603.4308	10752.5	9857.8
898.4398	1605.194	10832.65	9933.5
898.5821	1606.9564	10918.7	10030
898.7243	1608.7182	11063.5	10176.25
898.8666	1610.4791	11192.45	10307.95
899.0088	1612.2394	11328.95	10445.3
899.1511	1613.9988	11505.7	10619.9
899.2933	1615.7576	11713.2	10825.25
899.4355	1617.5156	11966.75	11065.5
899.5776	1619.2728	12138.1	11245.75
899.7198	1621.0293	12248.9	11355.2
899.862	1622.785	12291.55	11395.4
900.0041	1624.54	12183.35	11292.05
900.1462	1626.2942	12029.5	11138.65
900.2883	1628.0477	11757.5	10865.4
900.4304	1629.8005	11541.2	10648.35
900.5725	1631.5525	11307.1	10417.35
900.7145	1633.3037	11107.6	10218.45
900.8566	1635.0542	10953.65	10066.65
900.9986	1636.804	10825.35	9936.95
901.1406	1638.553	10857.5	9883.25
901.2826	1640.3013	10730	9841.45
901.4245	1642.0488	10674.05	9786.35
901.5665	1643.7955	10688.35	9801.25
901.7085	1645.5416	10736.15	9849.85
901.8504	1647.2868	10810.1	9920.35
901.9923	1649.0313	10877.7	9987.5
902.1342	1650.7751	11007.7	10114.25
902.2761	1652.5181	11188.25	10302.1
902.4179	1654.2604	11345.1	10458.75
902.5598	1656.0019	11619.9	10731.05
902.7016	1657.7427	11927.85	11038.7
902.8434	1659.4828	12244.4	11354.8
902.9852	1661.222	12421.25	11531.5
903.127	1662.9606	12414.45	11528.65
903.2687	1664.6984	12194.1	11304.4
903.4105	1666.4354	11827.3	10936.95
903.5522	1668.1717	11328.8	10438.2
903.6939	1669.9072	10810.3	9917.3
903.8356	1671.642	10412.05	9515.7
903.9773	1673.3761	10088.15	9199.95
904.119	1675.1094	9793.35	8906.7
904.2606	1676.8419	9580.55	8691.85
904.4022	1678.5737	9404.65	8513.85
904.5439	1680.3048	9304	8414.2
904.6855	1682.0351	9161.45	8273.15
904.827	1683.7646	9066.55	8174.4
904.9686	1685.4934	9010.5	8123.75
905.1101	1687.2215	8921.75	8033.9
905.2517	1688.9488	8863.35	7974.15
905.3932	1690.6754	8796.25	7907.85
905.5347	1692.4012	8758.65	7868.45
905.6761	1694.1263	8705.95	7817.6
905.8176	1695.8506	8681.6	7791.8
905.9591	1697.5742	8639.5	7752.85
906.1005	1699.297	8592.5	7704.8
906.2419	1701.0191	8515.45	7629.3
906.3833	1702.7404	8491.25	7605.85
906.5246	1704.461	8456.15	7571.15
906.666	1706.1808	8407.25	7520.3
906.8073	1707.8999	8390.3	7506.4
906.9487	1709.6182	8366.65	7483.2
907.09	1711.3358	8332	7449.95
907.2313	1713.0527	8298.05	7416.9
907.3725	1714.7688	8231.05	7341.1
907.5138	1716.4841	8242.6	7356.6
907.655	1718.1987	8236.15	7344.7
907.7962	1719.9126	8177.65	7295.95
907.9374	1721.6257	8144.9	7261.65
908.0786	1723.338	8131.5	7249.75
908.2198	1725.0496	8091	7205.65
908.3609	1726.7605	8070.25	7185.35
908.502	1728.4706	8030.3	7146.95
908.6431	1730.18	7988.2	7103.25
908.7842	1731.8886	7959.85	7077.3
908.9253	1733.5964	7989.2	7085.4
909.0664	1735.3036	7938	7052.95
909.2074	1737.0099	7941.95	7060.45
909.3484	1738.7156	7889	7006.45
909.4894	1740.4204	7860.1	6975.65
909.6304	1742.1246	7825	6940.5
909.7714	1743.8279	7817.1	6934.7
909.9123	1745.5306	7802.8	6921.8
910.0532	1747.2325	7762.4	6879.85
910.1941	1748.9336	7742.55	6857.8
910.335	1750.634	7690.6	6805.55
910.4759	1752.3336	7672.4	6790.65
910.6168	1754.0325	7645.55	6764.9
910.7576	1755.7307	7635.25	6751.75
910.8984	1757.4281	7634.75	6752.95
911.0392	1759.1247	7620.5	6726.65
911.18	1760.8206	7597.5	6709.9
911.3208	1762.5158	7606.25	6717.1
911.4615	1764.2102	7535.2	6651.35
911.6022	1765.9039	7520.15	6637.85
911.7429	1767.5968	7512.65	6631.95
911.8836	1769.289	7479.6	6598.2
912.0243	1770.9804	7467.15	6583.5
912.1649	1772.6711	7461.65	6579.2
912.3056	1774.361	7437.15	6552.65
912.4462	1776.0502	7423.15	6539.5
912.5868	1777.7386	7402.8	6517.2
912.7274	1779.4263	7374.35	6492.45
912.8679	1781.1132	7375.9	6494.2
913.0084	1782.7994	7348.25	6468.6
913.149	1784.4849	7322.85	6442.3
913.2895	1786.1696	7299.2	6413.55
913.4299	1787.8535	7290.95	6412.35
913.5704	1789.5367	7280.05	6399.6
913.7108	1791.2192	7275.7	6397.55
913.8513	1792.9009	7273.2	6364.3
913.9917	1794.5818	7251.25	6367.35
914.132	1796.2621	7194.9	6315.7
914.2724	1797.9415	7172.75	6288.5
914.4128	1799.6202	7190.05	6309.4
914.5531	1801.2982	7154.5	6270.35
914.6934	1802.9755	7133.75	6250.05
914.8337	1804.6519	7135.85	6252.8
914.9739	1806.3277	7112.4	6231.85
915.1142	1808.0027	7088.2	6210.7
915.2544	1809.6769	7063.6	6183.05
915.3946	1811.3504	7044.25	6163.85
915.5348	1813.0231	7027.65	6148.15
915.675	1814.6951	7004.05	6123
915.8151	1816.3664	7015.25	6129.6
915.9553	1818.0369	6998.5	6116.95
916.0954	1819.7067	6968	6085.4
916.2355	1821.3757	6958.65	6075.05
916.3755	1823.044	6952.6	6066.85
916.5156	1824.7115	6928.85	6044.3
916.6556	1826.3783	6908.65	6026.6
916.7956	1828.0443	6878.2	5997.6
916.9356	1829.7096	6873.4	5989.2
917.0756	1831.3741	6887.7	6003.1
917.2155	1833.0379	6844.3	5966.3
917.3555	1834.701	6828.4	5947
917.4954	1836.3633	6813.15	5933.85
917.6353	1838.0248	6794.8	5911.15
917.7751	1839.6856	6793.05	5914.55
917.915	1841.3457	6785.5	5902.7
918.0548	1843.005	6764.05	5881.4
918.1946	1844.6636	6751.4	5869.7
918.3344	1846.3214	6732.05	5850.35
918.4742	1847.9785	6733.75	5853.15
918.6139	1849.6349	6700.3	5816.7
918.7537	1851.2904	6695.4	5800.6
918.8934	1852.9453	6699.6	5813.8
919.0331	1854.5994	6672.75	5788.75
919.1727	1856.2528	6663.1	5775.05
919.3124	1857.9054	6637	5754.75
919.452	1859.5572	6647.35	5766.15
919.5916	1861.2083	6644.25	5763.25
919.7312	1862.8587	6608.65	5728.65
919.8708	1864.5084	6587.05	5703.5
920.0103	1866.1572	6572.4	5688.45
920.1498	1867.8054	6555.25	5673
920.2893	1869.4528	6526.75	5643.25
920.4288	1871.0994	6527.05	5643.75
920.5683	1872.7453	6519.9	5635.45
920.7077	1874.3905	6498.8	5598.9
920.8471	1876.0349	6455.9	5572.35
920.9865	1877.6786	6479.2	5595.05
921.1259	1879.3215	6456.3	5574.35
921.2653	1880.9637	6439.55	5557.15
921.4046	1882.6051	6430.55	5550.6
921.5439	1884.2458	6411.5	5528.5
921.6832	1885.8858	6380.05	5498.45
921.8225	1887.525	6392	5509.75
921.9617	1889.1634	6362.4	5479.45
922.101	1890.8011	6344.35	5463.35
922.2402	1892.4381	6332.05	5449.05
922.3794	1894.0743	6296.85	5415.95
922.5185	1895.7098	6286.6	5403.7
922.6577	1897.3446	6285.25	5403
922.7968	1898.9786	6277.75	5392.45
922.9359	1900.6118	6232.8	5354.55
923.075	1902.2443	6210.5	5327.9
923.214	1903.8761	6202.2	5320.6
923.3531	1905.5071	6205.2	5324.85
923.4921	1907.1374	6175.05	5293.15
923.6311	1908.7669	6156.1	5275.1
923.77	1910.3957	6153.1	5273.45
923.909	1912.0237	6107.9	5228.15
924.0479	1913.651	6096.3	5212.9
924.1868	1915.2776	6076.25	5197.3
924.3257	1916.9034	6051.75	5172
924.4646	1918.5285	6048.6	5168.9
924.6034	1920.1528	6012	5132.55
924.7422	1921.7764	6016.4	5136.3
924.881	1923.3992	5995.85	5114.95
925.0198	1925.0213	5961.55	5082.9
925.1586	1926.6427	5946.95	5068.95
925.2973	1928.2633	5999.45	5019.8
925.436	1929.8832	5932.75	5051
925.5747	1931.5023	5899.55	5018.25
925.7134	1933.1207	5881.9	5000.1
925.852	1934.7383	5861.1	4980.35
925.9906	1936.3552	5848.8	4969.8
926.1292	1937.9714	5821.65	4941.35
926.2678	1939.5868	5796.3	4913.15
926.4064	1941.2015	5782.5	4900.25
926.5449	1942.8154	5763.35	4880.95
926.6834	1944.4286	5734.15	4852.65
926.8219	1946.041	5720.6	4821.75
926.9604	1947.6528	5712	4827.05
927.0988	1949.2637	5700.05	4819.6
927.2372	1950.8739	5668.65	4788.2
927.3756	1952.4834	5667.15	4784.7
927.514	1954.0921	5653.55	4772
927.6523	1955.7001	5632.15	4748.5
927.7907	1957.3074	5592.8	4715.95
927.929	1958.9139	5581.6	4704.4
928.0673	1960.5197	5561.85	4681.9
928.2055	1962.1247	5530.45	4652.2
928.3438	1963.729	5513.85	4638.7
928.482	1965.3325	5512.95	4630.55
928.6202	1966.9353	5493.7	4617.65
928.7584	1968.5374	5482	4601.35
928.8965	1970.1387	5462	4583.5
929.0346	1971.7393	5451.75	4570.9
929.1727	1973.3392	5434.3	4556.5
929.3108	1974.9383	5391.8	4515.4
929.4489	1976.5366	5383.75	4507.4
929.5869	1978.1342	5370.75	4494.5
929.7249	1979.7311	5385.1	4507.3
929.8629	1981.3273	5367.05	4490.95
930.0009	1982.9227	5347.25	4470.15
930.1388	1984.5173	5299.95	4423.4
930.2767	1986.1112	5296.5	4420.4
930.4146	1987.7044	5292.3	4417.15
930.5525	1989.2968	5290.3	4413.1
930.6904	1990.8885	5261.8	4381.5
930.8282	1992.4795	5253	4376.9
930.966	1994.0697	5234.25	4358.9
931.1038	1995.6592	5213.8	4336.65
931.2415	1997.2479	5191.3	4314.2
931.3793	1998.8359	5205	4328.2
931.517	2000.4232	5183.85	4312
931.6547	2002.0097	5158.7	4285.95
931.7923	2003.5955	5140.3	4266.25
931.93	2005.1805	5154.8	4278.8
932.0676	2006.7648	5122.5	4247.4
932.2052	2008.3484	5112.95	4239.25
932.3427	2009.9312	5118.95	4243.8
932.4803	2011.5133	5082.3	4210.5
932.6178	2013.0946	5082.6	4208.45
932.7553	2014.6752	5068.2	4196.75
932.8928	2016.2551	5047.2	4176
933.0302	2017.8342	5042.5	4168.05
933.1676	2019.4126	5006.6	4131.75
933.305	2020.9902	4987.15	4114.1
933.4424	2022.5672	5000.9	4126.35
933.5798	2024.1433	4987.2	4109.7
933.7171	2025.7188	4938.2	4068.05
933.8544	2027.2935	4940.75	4067.15
933.9917	2028.8674	4922.6	4052.1
934.129	2030.4406	4912.15	4040.45
934.2662	2032.0131	4889.3	4018.6
934.4034	2033.5849	4885.55	4005.65
934.5406	2035.1559	4882.2	4010.2
934.6778	2036.7261	4856.4	3984.2
934.8149	2038.2957	4864.25	3988.6
934.952	2039.8645	4863	3986.55
935.0891	2041.4325	4862.15	3984.45
935.2262	2042.9998	4822.65	3948.5
935.3632	2044.5664	4808	3935
935.5002	2046.1323	4791	3919.05
935.6372	2047.6974	4783.35	3910.15
935.7742	2049.2617	4776.45	3904.8
935.9111	2050.8254	4763.15	3884.6
936.048	2052.3883	4764.4	3889.9
936.1849	2053.9504	4747.3	3872.25
936.3218	2055.5118	4720.15	3846.05
936.4586	2057.0725	4734.6	3859.5
936.5955	2058.6325	4716.85	3844.1
936.7323	2060.1917	4700.6	3828.4
936.869	2061.7502	4707.5	3831.4
937.0058	2063.3079	4672.15	3798.85
937.1425	2064.8649	4657.5	3782.45
937.2792	2066.4212	4649.1	3774
937.4159	2067.9767	4625.7	3750.85
937.5525	2069.5315	4620.8	3746.5
937.6891	2071.0856	4609.9	3737.15
937.8257	2072.6389	4600	3726.85
937.9623	2074.1915	4562.6	3692.5
938.0989	2075.7433	4549.9	3675.75
938.2354	2077.2945	4535.65	3664
938.3719	2078.8448	4536	3660.4
938.5084	2080.3945	4537.6	3663.85
938.6448	2081.9434	4518.15	3642.25
938.7812	2083.4916	4493.25	3615.35
938.9176	2085.039	4493.25	3614.75
939.054	2086.5857	4484.1	3605.15
939.1903	2088.1317	4476.7	3599.8
939.3267	2089.677	4468.15	3587.15
939.463	2091.2215	4463	3584.45
939.5992	2092.7652	4454.85	3573.6
939.7355	2094.3083	4436.7	3558.45
939.8717	2095.8506	4420.65	3544.15
940.0079	2097.3921	4410.75	3533.9
940.1441	2098.933	4406.05	3530.4
940.2802	2100.4731	4408.25	3531.45
940.4163	2102.0124	4412.75	3517
940.5524	2103.5511	4388.6	3512.6
940.6885	2105.089	4387.85	3508.2
940.8245	2106.6261	4370.3	3492.75
940.9606	2108.1626	4358.75	3483.95
941.0965	2109.6983	4377.3	3472.8
941.2325	2111.2332	4349.55	3474.05
941.3684	2112.7675	4323.7	3444.95
941.5044	2114.301	4317	3437.5
941.6403	2115.8337	4295.75	3418.7
941.7761	2117.3657	4296.45	3418.4
941.912	2118.897	4290.3	3411.8
942.0478	2120.4276	4290.15	3407.45
942.1835	2121.9575	4271.9	3392.65
942.3193	2123.4866	4262.85	3370.65
942.455	2125.0149	4260.95	3382.3
942.5907	2126.5426	4237.85	3364.4
942.7264	2128.0695	4227.05	3349.65
942.8621	2129.5956	4216.95	3344.2
942.9977	2131.1211	4196.6	3317.5
943.1333	2132.6458	4195.05	3319.75
943.2689	2134.1698	4183.65	3305
943.4044	2135.693	4181.6	3301.55
943.54	2137.2155	4174.9	3294.7
943.6755	2138.7373	4167.15	3289.55
943.8109	2140.2584	4144.25	3268.95
943.9464	2141.7787	4141.8	3261.8
944.0818	2143.2983	4128.65	3257.35
944.2172	2144.8171	4109.85	3237
944.3526	2146.3353	4094.5	3218.35
944.4879	2147.8527	4088	3215.15
944.6232	2149.3693	4087.5	3208.3
944.7585	2150.8853	4066.2	3189
944.8938	2152.4005	4046.7	3168.55
945.029	2153.9149	4054.95	3177.65
945.1642	2155.4287	4042.75	3162.6
945.2994	2156.9417	4042.65	3165.55
945.4346	2158.454	4020.95	3145.45
945.5697	2159.9655	4018.55	3144.75
945.7048	2161.4764	4009.55	3135.05
945.8399	2162.9865	3983.9	3108.9
945.9749	2164.4958	3986.1	3109.75
946.1099	2166.0045	3962.3	3084
946.2449	2167.5124	3960.05	3083.85
946.3799	2169.0195	3982.5	3103.35
946.5148	2170.526	3960.55	3085.3
946.6498	2172.0317	3952.05	3076
946.7846	2173.5367	3947.4	3068.75
946.9195	2175.0409	3923.85	3046.65
947.0543	2176.5445	3937	3059.8
947.1891	2178.0473	3925.45	3047.25
947.3239	2179.5494	3922.5	3040.45
947.4587	2181.0507	3880.5	3005.2
947.5934	2182.5513	3879.35	3002.85
947.7281	2184.0512	3864.3	2986.85
947.8628	2185.5504	3857.1	2980.05
947.9974	2187.0488	3847.7	2971.4
948.132	2188.5465	3842.85	2968.15
948.2666	2190.0435	3823.55	2947.15
948.4012	2191.5397	3817.65	2939.15
948.5357	2193.0353	3803.95	2926.5
948.6702	2194.5301	3801.9	2921.6
948.8047	2196.0241	3792.55	2913.25
948.9392	2197.5175	3782.65	2903.05
949.0736	2199.0101	3782.75	2901.95
949.208	2200.502	3752.85	2878.45
949.3424	2201.9931	3735	2855.95
949.4767	2203.4835	3719.15	2842.3
949.611	2204.9733	3727.8	2845.35
949.7453	2206.4622	3726.95	2852.15
949.8796	2207.9505	3697.55	2818.55
950.0138	2209.438	3681.35	2808.85
950.148	2210.9248	3683.3	2806.7
950.2822	2212.4109	3659.2	2783
950.4164	2213.8962	3660.05	2780.1
950.5505	2215.3809	3658.85	2777.5
950.6846	2216.8648	3647.35	2767
950.8186	2218.3479	3629.05	2746.6
950.9527	2219.8304	3629.45	2745.95
951.0867	2221.3121	3622.95	2741.45
951.2207	2222.7931	3599.05	2722.05
951.3546	2224.2733	3598.7	2718.25
951.4886	2225.7529	3586.55	2707.85
951.6225	2227.2317	3577.6	2697
951.7563	2228.7098	3570.2	2693.1
951.8902	2230.1872	3551.25	2678.8
952.024	2231.6638	3547.4	2673.1
952.1578	2233.1397	3539	2659.5
952.2916	2234.6149	3531.15	2655.05
952.4253	2236.0894	3519.6	2643.1
952.559	2237.5632	3514.8	2636.9
952.6927	2239.0362	3507.35	2629.7
952.8263	2240.5085	3511.95	2636.4
952.9599	2241.9801	3486.5	2609.35
953.0935	2243.4509	3481.6	2603.05
953.2271	2244.921	3467.35	2587.4
953.3606	2246.3904	3454.35	2573.65
953.4941	2247.8591	3448.15	2568.35
953.6276	2249.3271	3441.3	2565.85
953.7611	2250.7943	3433.5	2554.1
953.8945	2252.2608	3417.95	2537.5
954.0279	2253.7266	3406.05	2529.6
954.1612	2255.1917	3407.2	2529.7
954.2946	2256.656	3405.85	2530.3
954.4279	2258.1197	3391	2516.65
954.5612	2259.5826	3390.8	2513.85
954.6944	2261.0447	3374.55	2495.65
954.8276	2262.5062	3369.1	2488.65
954.9608	2263.9669	3370.55	2490.25
955.094	2265.4269	3365.65	2486.65
955.2271	2266.8862	3353.55	2476.6
955.3602	2268.3448	3350.05	2471.75
955.4933	2269.8026	3341.75	2465.7
955.6264	2271.2598	3318.15	2443.2
955.7594	2272.7162	3313.3	2437.55
955.8924	2274.1719	3308.75	2430.4
956.0253	2275.6268	3284.3	2403.2
956.1583	2277.0811	3304.75	2424.6
956.2912	2278.5346	3289.25	2413.6
956.4241	2279.9874	3284	2409.5
956.5569	2281.4395	3299.4	2426.1
956.6897	2282.8908	3273.6	2393.05
956.8225	2284.3414	3274.5	2397.05
956.9553	2285.7914	3251.85	2376.55
957.088	2287.2406	3247.15	2369
957.2207	2288.689	3260.35	2380.15
957.3534	2290.1368	3245.75	2363.9
957.486	2291.5838	3248.05	2367.2
957.6186	2293.0302	3235.25	2354
957.7512	2294.4758	3220.1	2340.15
957.8838	2295.9206	3212	2332
958.0163	2297.3648	3193.7	2317.35
958.1488	2298.8082	3207.1	2329.9
958.2813	2300.251	3187.85	2308.9
958.4137	2301.693	3189.45	2307.4
958.5461	2303.1343	3176.25	2295.4
958.6785	2304.5748	3158.85	2281.5
958.8108	2306.0147	3156.35	2277.75
958.9432	2307.4538	3158.75	2281.35
959.0754	2308.8922	3147.2	2271.3
959.2077	2310.3299	3132.85	2258.1
959.3399	2311.7669	3119.7	2243
959.4721	2313.2031	3114	2237.4
959.6043	2314.6387	3109.55	2230.4
959.7365	2316.0735	3118.25	2240.45
959.8686	2317.5076	3087.85	2207.3
960.0006	2318.941	3089.8	2212
960.1327	2320.3737	3090.15	2209.8
960.2647	2321.8056	3083.85	2204.1
960.3967	2323.2369	3065.4	2185.5
960.5287	2324.6674	3077.1	2199.55
960.6606	2326.0972	3066.35	2186.8
960.7925	2327.5263	3062.85	2182.25
960.9244	2328.9547	3055.15	2177.15
961.0562	2330.3823	3036.75	2157
961.1881	2331.8092	3041.85	2158.8
961.3198	2333.2355	3022.25	2142.1
961.4516	2334.661	3024.25	2146.45
961.5833	2336.0858	3023.1	2141.75
961.715	2337.5098	2994.75	2114.7
961.8467	2338.9332	3004.75	2126.45
961.9783	2340.3558	3002.35	2122.1
962.1099	2341.7778	2987.25	2107.3
962.2415	2343.199	2988	2112.95
962.373	2344.6195	2968.15	2091.1
962.5045	2346.0393	2966.65	2090.25
962.636	2347.4583	2975.5	2097.05
962.7675	2348.8767	2953.65	2073.7
962.8989	2350.2943	2962.9	2082.25
963.0303	2351.7113	2951.75	2071.65
963.1617	2353.1275	2935.25	2054.15
963.293	2354.543	2963.7	2060.45
963.4243	2355.9578	2939.55	2062
963.5556	2357.3718	2917.2	2041.55
963.6868	2358.7852	2906.25	2026.9
963.818	2360.1978	2897.25	2020.8
963.9492	2361.6098	2886.45	2010.05
964.0803	2363.021	2893.3	2013.15
964.2114	2364.4315	2894.95	2017.95
964.3425	2365.8413	2883.4	2006.5
964.4736	2367.2504	2864.25	1989.45
964.6046	2368.6587	2866.35	1991
964.7356	2370.0664	2853.65	1979.3
964.8666	2371.4733	2847.85	1970.8
964.9975	2372.8795	2836.45	1960.7
965.1284	2374.285	2838.35	1961.4
965.2593	2375.6899	2837.2	1963.8
965.3901	2377.0939	2813.3	1938.25
965.5209	2378.4973	2803.2	1929.85
965.6517	2379.9	2795.2	1919.25
965.7825	2381.3019	2798.2	1923.1
965.9132	2382.7032	2788.4	1915.4
966.0439	2384.1037	2779.25	1907.9
966.1745	2385.5035	2785.75	1912.55
966.3051	2386.9027	2768.2	1894.55
966.4357	2388.3011	2754.75	1877.3
966.5663	2389.6987	2762.45	1888.45
966.6968	2391.0957	2745.55	1872.2
966.8273	2392.492	2734.45	1861.15
966.9578	2393.8876	2726.45	1853.55
967.0882	2395.2824	2723.5	1848.9
967.2186	2396.6765	2707.35	1834.2
967.349	2398.07	2705.35	1832.25
967.4793	2399.4627	2718.05	1842.2
967.6097	2400.8547	2699.3	1825.4
967.7399	2402.246	2697	1815.7
967.8702	2403.6366	2677.45	1802.25
968.0004	2405.0265	2675.7	1800.65
968.1306	2406.4156	2679	1800.65
968.2607	2407.8041	2672.2	1794.25
968.3909	2409.1918	2654.15	1776.3
968.521	2410.5789	2645.25	1770.3
968.651	2411.9652	2642.05	1763.9
968.781	2413.3508	2632.85	1758.55
968.911	2414.7358	2635.8	1760
969.041	2416.12	2619.4	1746.3
969.1709	2417.5035	2624.2	1752.4
969.3008	2418.8863	2621.05	1743.7
969.4307	2420.2684	2616.95	1741.65
969.5606	2421.6497	2593.65	1717.9
969.6904	2423.0304	2582.3	1709.1
969.8201	2424.4104	2583.05	1708.1
969.9499	2425.7896	2580.2	1702.45
970.0796	2427.1682	2578.5	1703.8
970.2093	2428.546	2581.95	1707.9
970.3389	2429.9232	2576.45	1699.2
970.4685	2431.2996	2575.2	1701.3
970.5981	2432.6753	2559.8	1683.75
970.7277	2434.0503	2555.75	1678.3
970.8572	2435.4246	2541.85	1666.25
970.9867	2436.7982	2538.75	1661.15
971.1161	2438.1711	2537.1	1660.45
971.2456	2439.5433	2536.25	1660.3
971.375	2440.9148	2534.85	1652.85
971.5043	2442.2856	2514	1641.1
971.6336	2443.6557	2510.25	1633.75
971.7629	2445.025	2505.9	1629.2
971.8922	2446.3937	2498.5	1622.35
972.0214	2447.7617	2502.35	1627.95
972.1506	2449.1289	2502.9	1629.45
972.2798	2450.4955	2489.15	1610.85
972.4089	2451.8613	2483.55	1608.4
972.538	2453.2265	2469.25	1594.2
972.6671	2454.5909	2473.9	1596.9
972.7961	2455.9546	2470.35	1595.4
972.9251	2457.3177	2465.8	1591.75
973.0541	2458.68	2461.2	1583.7
973.1831	2460.0416	2462.2	1585
973.312	2461.4025	2458.15	1581.55
973.4408	2462.7627	2464.25	1576.45
973.5697	2464.1222	2439.75	1567.3
973.6985	2465.4811	2451.55	1575.4
973.8273	2466.8392	2429.9	1555.1
973.956	2468.1966	2438.9	1560.6
974.0847	2469.5533	2428.7	1552.65
974.2134	2470.9093	2434.85	1559
974.3421	2472.2645	2423.5	1545.5
974.4707	2473.6191	2422.4	1546.1
974.5993	2474.973	2420.5	1543.7
974.7278	2476.3262	2413.8	1536.85
974.8563	2477.6787	2393.85	1516.95
974.9848	2479.0305	2399.85	1523.45
975.1132	2480.3816	2387.7	1510.95
975.2417	2481.7319	2380.15	1505.45
975.37	2483.0816	2368.5	1492.85
975.4984	2484.4306	2370.15	1492.75
975.6267	2485.7789	2355.2	1483.05
975.755	2487.1264	2360.5	1484.35
975.8833	2488.4733	2345.6	1470
976.0115	2489.8195	2349	1465.4
976.1397	2491.165	2347.65	1469.15
976.2678	2492.5097	2335.15	1457.4
976.3959	2493.8538	2327.65	1453.25
976.524	2495.1972	2316.35	1438.6
976.6521	2496.5398	2320.7	1443.35
976.7801	2497.8818	2308.2	1431.6
976.9081	2499.2231	2315.25	1439.8
977.036	2500.5637	2300.25	1421.55
977.164	2501.9035	2295.05	1418.1
977.2918	2503.2427	2305.55	1424.4
977.4197	2504.5812	2282.05	1407.5
977.5475	2505.919	2287.5	1408.55
977.6753	2507.256	2275.95	1401.6
977.8031	2508.5924	2271.5	1396
977.9308	2509.9281	2282.9	1400.3
978.0585	2511.2631	2271.8	1397.3
978.1861	2512.5974	2268.95	1391.8
978.3137	2513.9309	2258.5	1383.65
978.4413	2515.2638	2274.45	1373.5
978.5689	2516.596	2247.8	1374
978.6964	2517.9275	2246.2	1368.5
978.8239	2519.2583	2240.6	1365.3
978.9513	2520.5884	2234.1	1357.75
979.0788	2521.9178	2217.9	1341.2
979.2062	2523.2465	2229.1	1355.5
979.3335	2524.5745	2215.2	1341.55
979.4608	2525.9018	2212.55	1337.4
979.5881	2527.2284	2211.65	1337.05
979.7154	2528.5543	2215.35	1340.45
979.8426	2529.8796	2210.05	1334
979.9698	2531.2041	2218.5	1342.95
980.0969	2532.5279	2205.35	1331.5
980.224	2533.851	2192.1	1315.85
980.3511	2535.1735	2195.05	1320.65
980.4781	2536.4952	2191.15	1315.75
980.6052	2537.8163	2188.95	1311.75
980.7321	2539.1366	2189	1314.05
980.8591	2540.4562	2182.75	1305.05
980.986	2541.7752	2176.25	1302.35
981.1129	2543.0935	2180	1303.1
981.2397	2544.411	2180.3	1303.15
981.3665	2545.7279	2173.1	1298.9
981.4933	2547.0441	2162.25	1284.9
981.62	2548.3596	2164.25	1285.25
981.7467	2549.6744	2155.45	1279.25
981.8734	2550.9885	2158.9	1272.55
982.0001	2552.3019	2144.2	1267.5
982.1267	2553.6146	2144.15	1266.25
982.2532	2554.9266	2139.45	1264.1
982.3798	2556.2379	2133.15	1255.85
982.5063	2557.5485	2134.45	1262.2
982.6327	2558.8585	2130.7	1247.1
982.7592	2560.1677	2125.4	1248.1
982.8856	2561.4762	2130.65	1253.95
983.0119	2562.7841	2129.15	1248.85
983.1383	2564.0913	2125.05	1249.65
983.2646	2565.3977	2110.9	1237.1
983.3908	2566.7035	2113.05	1236.65
983.517	2568.0086	2125.45	1248
983.6432	2569.313	2105.2	1227.8
983.7694	2570.6167	2107.8	1228.05
983.8955	2571.9197	2100.3	1224.5
984.0216	2573.222	2095	1213.9
984.1476	2574.5236	2095.35	1219.75
984.2737	2575.8246	2096.5	1216.7
984.3996	2577.1248	2096.2	1215.9
984.5256	2578.4244	2084.1	1209.1
984.6515	2579.7232	2087.35	1209.7
984.7774	2581.0214	2112.85	1202.85
984.9032	2582.3189	2076.45	1199.9
985.029	2583.6157	2087.8	1208.6
985.1548	2584.9118	2083.35	1206.2
985.2806	2586.2072	2075.35	1196.9
985.4063	2587.5019	2083.1	1204.75
985.5319	2588.7959	2077.75	1200.85
985.6576	2590.0893	2082.55	1202.9
985.7832	2591.3819	2077.5	1201.95
985.9087	2592.6739	2078.25	1201.4
986.0343	2593.9652	2073.3	1197.3
986.1597	2595.2557	2071.8	1195.6
986.2852	2596.5456	2070.4	1192.95
986.4106	2597.8348	2069.9	1193.35
986.536	2599.1234	2057.65	1180.05
986.6614	2600.4112	2057.75	1178.65
986.7867	2601.6983	2062.75	1184.2
986.912	2602.9848	2055.9	1180.45
987.0372	2604.2705	2043.8	1161.05
987.1624	2605.5556	2041.6	1164.85
987.2876	2606.84	2031.8	1155.65
987.4128	2608.1237	2036	1156.3
987.5379	2609.4067	2026.15	1148.7
987.6629	2610.689	2045.45	1160.6
987.788	2611.9707	2034.35	1154.05
987.913	2613.2516	2023.85	1142
988.0379	2614.5319	2013.75	1137.5
988.1629	2615.8115	2014.9	1137.4
988.2878	2617.0903	2000.4	1124.55
988.4126	2618.3685	1997.2	1118.1
988.5375	2619.6461	1998.2	1121.7
988.6622	2620.9229	1996.3	1121.2
988.787	2622.199	1984.3	1107.35
988.9117	2623.4745	1997.65	1120.65
989.0364	2624.7493	1982.5	1105.85
989.161	2626.0234	1981.3	1105.85
989.2857	2627.2968	1987.3	1112.9
989.4102	2628.5695	1982.85	1106.45
989.5348	2629.8415	1975.4	1098.95
989.6593	2631.1128	1976.85	1097.6
989.7837	2632.3835	1969.85	1094.6
989.9082	2633.6535	1962.95	1088.45
990.0326	2634.9228	1954.5	1079.85
990.1569	2636.1914	1962.45	1088.55
990.2812	2637.4593	1955.4	1077.7
990.4055	2638.7265	1962.7	1084.2
990.5298	2639.9931	1951.7	1074.5
990.654	2641.259	1948.75	1069.6
990.7782	2642.5242	1947.75	1071.4
990.9023	2643.7887	1935.3	1060.6
991.0264	2645.0525	1939.7	1062.95
991.1505	2646.3156	1942.25	1066.5
991.2745	2647.5781	1928.05	1052.7
991.3985	2648.8398	1926.3	1053.8
991.5225	2650.1009	1935.25	1051.65
991.6464	2651.3613	1924.2	1048.05
991.7703	2652.6211	1915.5	1039.05
991.8942	2653.8801	1922.8	1045.05
992.018	2655.1385	1928.35	1048.15
992.1418	2656.3961	1914.75	1038.25
992.2655	2657.6531	1913.7	1039.45
992.3892	2658.9094	1904.9	1028.85
992.5129	2660.1651	1906.35	1032.8
992.6366	2661.42	1919.45	1044.8
992.7602	2662.6743	1913.95	1036.4
992.8837	2663.9279	1906.85	1032.45
993.0073	2665.1808	1900.2	1023.3
993.1307	2666.433	1901.8	1024.8
993.2542	2667.6846	1907.1	1031.8
993.3776	2668.9354	1907.4	1027.15
993.501	2670.1856	1902.95	1027.25
993.6244	2671.4351	1899.15	1023.45
993.7477	2672.6839	1908.05	1030.9
993.8709	2673.9321	1898.65	1022.4
993.9942	2675.1795	1901.55	1025.8
994.1174	2676.4263	1900.75	1024.5
994.2405	2677.6724	1908.6	1034.7
994.3637	2678.9179	1900.25	1026.45
994.4868	2680.1626	1905.7	1029.6
994.6098	2681.4067	1898.35	1025.5
994.7328	2682.6501	1892.35	1015.95
994.8558	2683.8928	1886.5	1012.25
994.9788	2685.1348	1890.6	1012.55
995.1017	2686.3761	1874.95	1001
995.2245	2687.6168	1883.25	1007.8
995.3474	2688.8568	1874.35	998.5
995.4702	2690.0961	1870.55	996.25
995.5929	2691.3348	1867.75	993.35
995.7156	2692.5727	1859.8	983.3
995.8383	2693.81	1861	986.75
995.961	2695.0466	1853.3	979.9
996.0836	2696.2826	1852.85	975.1
996.2062	2697.5178	1854.75	976.05
996.3287	2698.7524	1846.1	970.25
996.4512	2699.9863	1848.2	967.9
996.5737	2701.2195	1856.3	979.5
996.6961	2702.452	1853.3	974.7
996.8185	2703.6839	1848.95	971.3
996.9408	2704.9151	1849.7	975.3
997.0631	2706.1456	1857	980.55
997.1854	2707.3755	1858.75	982.25
997.3077	2708.6046	1863.95	987
997.4299	2709.8331	1869.35	994.95
997.552	2711.0609	1872.05	999.05
997.6742	2712.2881	1874.65	998.6
997.7963	2713.5145	1887.55	1009.45
997.9183	2714.7403	1899.3	1023.1
998.0403	2715.9654	1905.2	1030
998.1623	2717.1899	1927.15	1037.3
998.2842	2718.4136	1926.9	1052.6
998.4062	2719.6367	1935.1	1061.05
998.528	2720.8591	1949.85	1066.95
998.6498	2722.0809	1948.8	1072.9
998.7716	2723.3019	1963.05	1084.2
998.8934	2724.5223	1966.85	1089.95
999.0151	2725.7421	1971.25	1094.9
999.1368	2726.9611	1973.3	1096.95
999.2584	2728.1795	1974.2	1090.9
999.38	2729.3972	1958.6	1086.95
999.5016	2730.6142	1949.45	1061
999.6231	2731.8306	1933	1057.5
999.7446	2733.0462	1905.3	1026.6
999.8661	2734.2612	1887.8	1006.3
999.9875	2735.4756	1873.8	996.3
1000.1089	2736.6892	1860.95	984.8
1000.2302	2737.9022	1832.05	958.45
1000.3515	2739.1145	1824.5	949.05
1000.4728	2740.3262	1819.7	933.95
1000.594	2741.5372	1798.1	925.4
1000.7152	2742.7475	1782.35	905.3
1000.8363	2743.9571	1773.3	896
1000.9575	2745.1661	1769.1	887.2
1001.0785	2746.3744	1751.75	877.1
1001.1996	2747.582	1742.35	865.9
1001.3206	2748.7889	1739.65	862.5
1001.4415	2749.9952	1732.25	855.75
1001.5625	2751.2008	1717.75	842.55
1001.6833	2752.4057	1724.75	846.3
1001.8042	2753.61	1714.9	837.2
1001.925	2754.8136	1711.25	835.75
1002.0458	2756.0165	1714.3	838.05
1002.1665	2757.2188	1705.55	832.15
1002.2872	2758.4204	1693.15	818.9
1002.4078	2759.6213	1697.7	820.6
1002.5285	2760.8215	1694.8	816.95
1002.649	2762.0211	1698.6	822.3
1002.7696	2763.22	1690.4	811.35
1002.8901	2764.4182	1692.05	815.95
1003.0106	2765.6158	1690.7	817.6
1003.131	2766.8127	1676.5	800.95
1003.2514	2768.009	1675.8	800.75
1003.3717	2769.2045	1666.55	790.9
1003.492	2770.3994	1669.55	794.15
1003.6123	2771.5936	1673.95	799.05
1003.7325	2772.7872	1671.85	798.45
1003.8527	2773.9801	1658.7	782.3
1003.9729	2775.1723	1669.3	775.55
1004.093	2776.3639	1657.05	785
1004.2131	2777.5548	1656.6	779.55
1004.3331	2778.745	1651.15	774.1
1004.4531	2779.9346	1653.9	777.9
1004.5731	2781.1235	1659.8	783.05
1004.693	2782.3117	1655.3	780.85
1004.8129	2783.4992	1652.6	778.4
1004.9328	2784.6861	1660.45	787.6
1005.0526	2785.8723	1670.65	792.65
1005.1723	2787.0579	1673.45	799.45
1005.2921	2788.2428	1678.65	805
1005.4118	2789.427	1677.5	804.85
1005.5314	2790.6106	1693.05	820.8
1005.651	2791.7935	1699.15	823.95
1005.7706	2792.9757	1710.85	835.35
1005.8902	2794.1573	1716.3	841.1
1006.0097	2795.3382	1732.4	857.15
1006.1291	2796.5184	1740.3	868.4
1006.2485	2797.698	1756.8	879.95
1006.3679	2798.8769	1764.2	889.55
1006.4873	2800.0551	1788	912.8
1006.6066	2801.2327	1797.6	921.6
1006.7258	2802.4096	1805.85	933.2
1006.8451	2803.5859	1830.9	955.45
1006.9642	2804.7615	1855.7	980.2
1007.0834	2805.9364	1878.35	1004.45
1007.2025	2807.1106	1904.5	1029.55
1007.3216	2808.2842	1933.95	1057.3
1007.4406	2809.4572	1959.45	1085.95
1007.5596	2810.6294	1999.9	1124.95
1007.6785	2811.801	2035.35	1163.6
1007.7975	2812.972	2068.45	1194.4
1007.9163	2814.1423	2121.7	1249.25
1008.0352	2815.3119	2165.2	1290.5
1008.154	2816.4808	2204.3	1330.85
1008.2727	2817.6491	2256.1	1380.4
1008.3914	2818.8167	2301.35	1429.15
1008.5101	2819.9837	2353.4	1476.55
1008.6288	2821.15	2388.95	1516.05
1008.7474	2822.3157	2443.85	1570.3
1008.8659	2823.4807	2491.55	1618.5
1008.9844	2824.645	2532.7	1657.25
1009.1029	2825.8086	2582.75	1708.7
1009.2214	2826.9716	2601.7	1727.15
1009.3398	2828.134	2659.7	1784.45
1009.4581	2829.2957	2699.1	1823.95
1009.5764	2830.4567	2722.65	1850.75
1009.6947	2831.617	2730.2	1853.85
1009.813	2832.7767	2754.75	1883.3
1009.9312	2833.9358	2757	1883.9
1010.0493	2835.0941	2745.1	1868.4
1010.1675	2836.2519	2738	1863.75
1010.2855	2837.4089	2709.9	1836
1010.4036	2838.5653	2714.75	1842.05
1010.5216	2839.7211	2719.55	1846.2
1010.6396	2840.8761	2738.65	1862.3
1010.7575	2842.0306	2745.45	1873.7
1010.8754	2843.1843	2788.45	1914.15
1010.9932	2844.3374	2832.45	1959.4
1011.111	2845.4899	2892.35	2016.35
1011.2288	2846.6417	2952.4	2077.2
1011.3465	2847.7928	3025.95	2153.6
1011.4642	2848.9433	3119.4	2246.6
1011.5818	2850.0931	3200.6	2327.65
1011.6995	2851.2422	3266.25	2390.85
1011.817	2852.3907	3342.9	2469.05
1011.9345	2853.5385	3381.05	2505.5
1012.052	2854.6857	3470.65	2570.15
1012.1695	2855.8323	3499.4	2626.7
1012.2869	2856.9781	3549.15	2675.7
1012.4042	2858.1233	3599.95	2724.5
1012.5216	2859.2679	3622.15	2749.5
1012.6389	2860.4118	3702.15	2828.2
1012.7561	2861.555	3725.95	2850.25
1012.8733	2862.6976	3763.65	2888.35
1012.9905	2863.8395	3791.05	2916.75
1013.1076	2864.9808	3802.65	2931.85
1013.2247	2866.1214	3813.4	2939.8
1013.3417	2867.2614	3844.2	2970.3
1013.4587	2868.4007	3847	2969.75
1013.5757	2869.5393	3850.65	2977.1
1013.6926	2870.6773	3884.6	3007.85
1013.8095	2871.8146	3890.25	3012.65
1013.9263	2872.9513	3880.05	3004.8
1014.0431	2874.0874	3874.25	3001.15
1014.1599	2875.2227	3860.1	2983.65
1014.2766	2876.3574	3829.55	2955.15
1014.3933	2877.4915	3830.25	2957.4
1014.51	2878.6249	3801.15	2928.2
1014.6266	2879.7577	3786.4	2910.85
1014.7431	2880.8898	3769.7	2888
1014.8596	2882.0212	3738.8	2866.25
1014.9761	2883.152	3738.25	2863.55
1015.0925	2884.2821	3711.1	2840
1015.2089	2885.4116	3703.5	2831.65
1015.3253	2886.5405	3703.3	2830.4
1015.4416	2887.6686	3709.85	2831.65
1015.5579	2888.7962	3706.8	2835.55
1015.6741	2889.923	3732.3	2861
1015.7903	2891.0493	3749.85	2879.15
1015.9065	2892.1748	3747.25	2873.3
1016.0226	2893.2997	3753.05	2880.65
1016.1387	2894.424	3775.15	2903.5
1016.2547	2895.5476	3800.2	2926
1016.3707	2896.6706	3810.65	2938.95
1016.4866	2897.7929	3833.2	2961
1016.6025	2898.9145	3857.35	2984.75
1016.7184	2900.0355	3901.4	3028.25
1016.8342	2901.1559	3912.7	3037.9
1016.95	2902.2756	3947.2	3075.15
1017.0658	2903.3946	3980.5	3105.6
1017.1815	2904.513	4016.25	3139.4
1017.2971	2905.6308	4053.85	3182.95
1017.4127	2906.7479	4073.8	3198.5
1017.5283	2907.8643	4090.25	3218.2
1017.6439	2908.9801	4108.55	3237.45
1017.7594	2910.0953	4125.95	3251.9
1017.8748	2911.2098	4126.3	3250.15
1017.9902	2912.3236	4116.25	3237.25
1018.1056	2913.4368	4090.8	3214.5
1018.2209	2914.5494	4071.65	3198.75
1018.3362	2915.6613	4043.65	3164.35
1018.4515	2916.7725	4013.95	3137.1
1018.5667	2917.8831	3989.9	3116.95
1018.6819	2918.9931	3950.1	3075.4
1018.797	2920.1024	3918.05	3044.65
1018.9121	2921.211	3909.2	3036.25
1019.0271	2922.319	3892.75	3019.2
1019.1421	2923.4264	3883.45	3012.25
1019.2571	2924.5331	3852.85	2980.8
1019.372	2925.6391	3841.25	2967.6
1019.4869	2926.7445	3837.4	2966.65
1019.6017	2927.8493	3831.7	2958.35
1019.7165	2928.9534	3826.9	2953.15
1019.8313	2930.0569	3819	2943.1
1019.946	2931.1597	3809.35	2936.3
1020.0606	2932.2619	3797.75	2926.8
1020.1753	2933.3634	3795.8	2924.9
1020.2899	2934.4643	3786.35	2906.75
1020.4044	2935.5645	3758.5	2877.7
1020.5189	2936.6641	3732.75	2855.3
1020.6334	2937.763	3686.15	2813.15
1020.7478	2938.8613	3618.6	2744.55
1020.8622	2939.959	3576.85	2699.5
1020.9765	2941.056	3493.55	2621.2
1021.0908	2942.1523	3442.7	2567.55
1021.2051	2943.248	3329.6	2456.25
1021.3193	2944.3431	3233.2	2362.35
1021.4334	2945.4375	3117.75	2244.55
1021.5476	2946.5313	3038.45	2164.65
1021.6617	2947.6244	2923.95	2051.85
1021.7757	2948.7169	2824.6	1950.95
1021.8897	2949.8087	2735.8	1863.05
1022.0037	2950.8999	2623.35	1750.75
1022.1176	2951.9904	2559.1	1688.1
1022.2315	2953.0803	2494	1621.2
1022.3453	2954.1696	2416	1545.55
1022.4591	2955.2582	2363.45	1491.45
1022.5728	2956.3462	2330.7	1457.05
1022.6865	2957.4335	2282	1408.35
1022.8002	2958.5202	2256.75	1381.6
1022.9138	2959.6062	2221.1	1348.3
1023.0274	2960.6916	2199.1	1328.3
1023.141	2961.7764	2183.8	1310.25
1023.2545	2962.8605	2169.75	1297
1023.3679	2963.9439	2144.45	1272.8
1023.4813	2965.0267	2141.15	1266.55
1023.5947	2966.1089	2164	1269.75
1023.708	2967.1905	2124.9	1252.35
1023.8213	2968.2714	2120.9	1247.75
1023.9346	2969.3516	2130.35	1257.25
1024.0478	2970.4312	2122.3	1242.3
1024.1609	2971.5102	2122.15	1249.95
1024.274	2972.5885	2127.3	1254.9
1024.3871	2973.6662	2116.6	1240.25
1024.5002	2974.7432	2118.25	1245
1024.6132	2975.8196	2090.55	1218.3
1024.7261	2976.8954	2098.4	1225.25
1024.839	2977.9705	2088.9	1215.4
1024.9519	2979.045	2073.3	1202.45
1025.0647	2980.1188	2055.75	1184.15
1025.1775	2981.192	2026.45	1157.5
1025.2902	2982.2645	2003.95	1131.85
1025.4029	2983.3364	1991.95	1121.85
1025.5156	2984.4077	1961.1	1089.55
1025.6282	2985.4783	1933.5	1054.25
1025.7407	2986.5483	1900.4	1029.45
1025.8532	2987.6177	1867.4	996.95
1025.9657	2988.6864	1818.9	945.65
1026.0782	2989.7545	1791.2	918.4
1026.1906	2990.8219	1759.3	889.8
1026.3029	2991.8887	1721.5	847.35
1026.4152	2992.9548	1698.75	826.5
1026.5275	2994.0204	1671.9	798.95
1026.6397	2995.0852	1635.1	764.25
1026.7519	2996.1495	1613.5	740.4
1026.864	2997.2131	1584.7	712.75
1026.9761	2998.276	1564.75	693.1
1027.0882	2999.3383	1546.55	673.55
1027.2002	3000.4	1524.25	653.75
1027.3122	3001.4611	1508.9	640.2
1027.4241	3002.5215	1492.35	619.3
1027.536	3003.5812	1477.25	607.65
1027.6478	3004.6404	1464.4	591.2
1027.7596	3005.6989	1456.55	583.55
1027.8714	3006.7567	1443.45	571.15
1027.9831	3007.8139	1474.95	574.9
1028.0947	3008.8705	1436.05	566.9
1028.2064	3009.9264	1424.45	550
1028.3179	3010.9818	1422.1	550.05
1028.4295	3012.0364	1413.2	542.05
1028.541	3013.0905	1418.45	545.55
1028.6524	3014.1439	1410.45	540.65
1028.7638	3015.1966	1408.4	537.7
1028.8752	3016.2487	1407.9	533.95
1028.9865	3017.3002	1412.2	537.65
1029.0978	3018.3511	1398.75	527.45
1029.209	3019.4013	1404.4	533.3
1029.3202	3020.4509	1410.75	538.75
1029.4314	3021.4998	1405.6	533.35
1029.5425	3022.5481	1400.1	528.6
1029.6535	3023.5958	1403.85	529.6
1029.7645	3024.6428	1394.85	524.25
1029.8755	3025.6892	1406.2	535.1
1029.9864	3026.735	1409.3	539.15
1030.0973	3027.7802	1410.7	540.15
1030.2082	3028.8247	1414.55	542.8
1030.319	3029.8685	1407.2	535.2
1030.4297	3030.9118	1410.35	535.6
1030.5404	3031.9544	1419.35	546.95
1030.6511	3032.9963	1424.6	553.75
1030.7617	3034.0376	1422.7	551.75
1030.8723	3035.0783	1434.25	560.1
1030.9829	3036.1184	1441.75	569.85
1031.0934	3037.1578	1430.5	559.5
1031.2038	3038.1966	1430.85	558.7
1031.3142	3039.2348	1434.8	564.55
1031.4246	3040.2723	1441.3	561.15
1031.5349	3041.3092	1433.15	562.15
1031.6452	3042.3455	1431.05	560.45
1031.7554	3043.3811	1430.95	559.65
1031.8656	3044.4161	1426.8	555.5
1031.9758	3045.4505	1421.8	551.6
1032.0859	3046.4842	1417.1	545.9
1032.1959	3047.5173	1407.15	535.8
1032.3059	3048.5498	1399.6	526.4
1032.4159	3049.5816	1392.15	521.15
1032.5258	3050.6128	1384.35	511.2
1032.6357	3051.6434	1381.9	509.35
1032.7455	3052.6734	1378.35	504.9
1032.8553	3053.7027	1372.1	501.5
1032.9651	3054.7314	1370.35	498.5
1033.0748	3055.7594	1352.25	481.45
1033.1845	3056.7868	1353.65	481.4
1033.2941	3057.8136	1343.55	471.7
1033.4037	3058.8398	1342	469.65
1033.5132	3059.8653	1333.25	462.3
1033.6227	3060.8902	1327.85	456.05
1033.7321	3061.9145	1323.15	452.1
1033.8415	3062.9381	1315.95	443.9
1033.9509	3063.9612	1329.75	443.25
1034.0602	3064.9835	1313.1	442.35
1034.1694	3066.0053	1302.25	427.85
1034.2787	3067.0264	1297.25	425.7
1034.3878	3068.0469	1289.2	418.05
1034.497	3069.0668	1286.75	412.75
1034.6061	3070.086	1276.4	404.25
1034.7151	3071.1046	1269.7	397.25
1034.8241	3072.1226	1255.5	384.85
1034.9331	3073.1399	1255.75	385.3
1035.042	3074.1567	1244.55	372.8
1035.1508	3075.1727	1225.6	350.75
1035.2597	3076.1882	1226.95	353.4
1035.3684	3077.203	1213.4	341.75
1035.4772	3078.2173	1208.05	335.8
1035.5859	3079.2308	1204.4	331.2
1035.6945	3080.2438	1196.4	323.25
1035.8031	3081.2561	1179.45	308.6
1035.9117	3082.2678	1178.5	309.2
1036.0202	3083.2789	1175.35	302.45
1036.1286	3084.2893	1159.85	287.55
1036.2371	3085.2991	1155.45	284.45
1036.3454	3086.3083	1159.4	281.7
1036.4538	3087.3169	1148.55	275.95
1036.562	3088.3248	1141.65	268.8
1036.6703	3089.3321	1138.85	265
1036.7785	3090.3388	1129.7	257.5
1036.8866	3091.3449	1123.85	250.85
1036.9948	3092.3503	1123.35	250.55
1037.1028	3093.3551	1121.95	252.65
1037.2108	3094.3593	1115.1	245.6
1037.3188	3095.3629	1115.75	247.15
1037.4267	3096.3658	1114.85	242.2
1037.5346	3097.3681	1105.9	236.05
1037.6425	3098.3698	1103.5	230.05
1037.7503	3099.3708	1109	230.9
1037.858	3100.3713	1097.05	228.6
1037.9657	3101.3711	1098.95	227.25
1038.0734	3102.3702	1207.65	219
1038.181	3103.3688	1087.4	215.7
1038.2886	3104.3667	1084.7	214.45
1038.3961	3105.364	1086.3	216.85
1038.5036	3106.3607	1088.1	215.6
1038.611	3107.3568	1081.95	209.45
1038.7184	3108.3522	1079.15	208.25
1038.8257	3109.347	1082.15	209.6
1038.933	3110.3412	1078	203.85
1039.0403	3111.3348	1078.8	207.05
1039.1475	3112.3277	1071.7	200.6
1039.2547	3113.32	1070.2	199.35
1039.3618	3114.3117	1068.3	197
1039.4689	3115.3028	1066.25	195.4
1039.5759	3116.2932	1070.6	195.8
1039.6829	3117.2831	1067.8	191
1039.7898	3118.2723	1062.75	192.75
1039.8967	3119.2608	1064.8	193.9
1040.0035	3120.2488	1061.55	192.5
1040.1103	3121.2361	1059.35	188.75
1040.2171	3122.2229	1055.8	182.85
1040.3238	3123.209	1056.95	182.6
1040.4305	3124.1944	1058.95	187.3
1040.5371	3125.1793	1049.5	178.45
1040.6437	3126.1635	1050.65	180.3
1040.7502	3127.1471	1048.95	178.6
1040.8567	3128.1301	1044.55	173.2
1040.9631	3129.1125	1045.25	176.2
1041.0695	3130.0942	1042.65	172.35
1041.1759	3131.0753	1051	171.9
1041.2822	3132.0558	1048.25	173.65
1041.3884	3133.0357	1042.8	169.3
1041.4946	3134.015	1044.1	171.7
1041.6008	3134.9936	1040	168.9
1041.7069	3135.9716	1058.1	168.7
1041.813	3136.949	1036.75	164.95
1041.919	3137.9258	1055.8	167.25
1042.025	3138.902	1043.8	165.8
1042.1309	3139.8775	1034.3	164.25
1042.2368	3140.8524	1030.4	157.65
1042.3427	3141.8267	1032	157.55
1042.4485	3142.8004	1026.2	156.1
1042.5542	3143.7735	1031.6	154.9
1042.6599	3144.7459	1031	157.55
1042.7656	3145.7178	1031.25	160.95
1042.8712	3146.689	1025.8	157.05
1042.9768	3147.6596	1022.3	150.75
1043.0823	3148.6295	1024.8	152.95
1043.1878	3149.5989	1018.7	146.3
1043.2932	3150.5676	1020.35	150.25
1043.3986	3151.5357	1022.6	151.3
1043.5039	3152.5032	1017.35	148.2
1043.6092	3153.4701	1014.6	144.8
1043.7145	3154.4364	1017.5	143.35
1043.8197	3155.402	1011	140.7
1043.9248	3156.367	1014.55	144.4
1044.03	3157.3315	1037.55	141.3
1044.135	3158.2952	1005.25	134.9
1044.24	3159.2584	1011.2	142.2
1044.345	3160.221	1007.9	135.6
1044.4499	3161.1829	1007.4	136.15
1044.5548	3162.1442	1006.2	136.45
1044.6596	3163.105	1004.15	134.5
1044.7644	3164.065	1007.8	138.25
1044.8692	3165.0245	1009.45	136.35
1044.9739	3165.9834	1001.3	131.9
1045.0785	3166.9416	1003.8	134.75
1045.1831	3167.8993	999.95	130.2
1045.2877	3168.8563	997.05	126.65
1045.3922	3169.8127	996.05	126.55
1045.4966	3170.7684	1000.55	129.65
1045.6011	3171.7236	997.55	126.3
1045.7054	3172.6782	998.45	128.15
1045.8098	3173.6321	997.55	127.25
1045.914	3174.5854	997.1	121.3
1046.0183	3175.5381	996.05	123.65
1046.1224	3176.4902	994.75	127
1046.2266	3177.4417	994.35	124.2
1046.3307	3178.3926	993.65	125
1046.4347	3179.3428	989.7	121.5
1046.5387	3180.2924	992.3	121.95
1046.6427	3181.2415	990.9	120.15
1046.7466	3182.1899	994.4	122.85
1046.8504	3183.1377	989.05	118.5
1046.9542	3184.0848	990.85	118.4
1047.058	3185.0314	986.1	113.7
1047.1617	3185.9773	984.45	113.6
1047.2654	3186.9227	983.35	112.25
1047.369	3187.8674	988.35	117.75
1047.4726	3188.8115	987.85	114.85
1047.5761	3189.755	984.35	113.25
1047.6796	3190.6979	982	113.15
1047.783	3191.6402	979.35	107.9
1047.8864	3192.5818	983.1	111.85
1047.9898	3193.5229	987.9	113
1048.0931	3194.4633	984.85	113.65
1048.1963	3195.4031	977.8	107.4
1048.2995	3196.3423	976.35	106.55
1048.4027	3197.2809	979.3	106.8
1048.5058	3198.2189	977.9	108.3
1048.6089	3199.1563	992.15	104.55
1048.7119	3200.0931	977.95	109.4
1048.8148	3201.0292	976.5	107.3
1048.9178	3201.9648	977.6	107.15
1049.0206	3202.8997	974.7	101.55
1049.1235	3203.834	975.5	103.45
1049.2262	3204.7677	973	102.3
1049.329	3205.7008	973.5	102.75
1049.4317	3206.6333	970.15	101.05
1049.5343	3207.5652	973.3	102.25
1049.6369	3208.4964	972.25	103.65
1049.7394	3209.4271	970.35	101.7
1049.8419	3210.3571	971.45	101.35
1049.9444	3211.2865	970.5	97.85
1050.0468	3212.2154	967.15	97.2
1050.1491	3213.1436	968.75	96.7
1050.2514	3214.0712	974.1	96.8
1050.3537	3214.9982	964.25	96.85
1050.4559	3215.9246	967.55	95.85
1050.5581	3216.8503	962.45	93.75
1050.6602	3217.7755	964.9	92.65
1050.7623	3218.7001	966.1	95.7
1050.8643	3219.624	967.2	98.35
1050.9663	3220.5473	960.85	91.45
1051.0682	3221.4701	967	94.6
1051.1701	3222.3922	962.9	89
1051.2719	3223.3137	960.7	91.35
1051.3737	3224.2346	960.95	91.75
1051.4754	3225.1549	961.8	91.75
1051.5771	3226.0746	958.8	89.65
1051.6788	3226.9937	964.55	96.55
1051.7804	3227.9121	964.8	96.35
1051.8819	3228.83	958.8	90.05
1051.9834	3229.7473	956.35	86.9
1052.0849	3230.6639	961.95	91.8
1052.1863	3231.5799	956.7	88.35
1052.2876	3232.4954	957.65	87.2
1052.3889	3233.4102	958.35	89.35
1052.4902	3234.3244	954.25	83.8
1052.5914	3235.238	959.6	89.7
1052.6926	3236.151	969.2	86
1052.7937	3237.0634	954.9	87.15
1052.8948	3237.9752	952	82.6
1052.9958	3238.8864	955.9	86.95
1053.0968	3239.797	953.9	82.95
1053.1977	3240.7069	952.55	82.9
1053.2986	3241.6163	952.3	83.2
1053.3994	3242.5251	949	80.1
1053.5002	3243.4332	949.6	81.35
1053.6009	3244.3408	953.85	83.6
1053.7016	3245.2477	947.3	77.9
1053.8022	3246.154	951.85	81.95
1053.9028	3247.0598	949.45	77.35
1054.0034	3247.9649	949.8	79.2
1054.1039	3248.8694	948.45	76.95
1054.2043	3249.7733	948.2	81.25
1054.3047	3250.6766	945.95	76.35
1054.4051	3251.5793	948.55	76.45
1054.5054	3252.4814	942.2	72.85
1054.6056	3253.3829	942.45	71.35
1054.7058	3254.2838	942.45	72.1
1054.806	3255.1841	942.75	72.25
1054.9061	3256.0838	942.2	72.1
1055.0061	3256.9829	941.05	69.15
1055.1062	3257.8814	943.85	72.65
1055.2061	3258.7792	940.95	71.1
1055.306	3259.6765	936.95	65
1055.4059	3260.5731	937.1	66.5
1055.5057	3261.4692	935.95	66.55
1055.6055	3262.3647	936.9	68.2
1055.7052	3263.2595	934.2	65.4
1055.8049	3264.1538	936.45	66.9
1055.9045	3265.0474	935.65	64.65
1056.0041	3265.9404	931.1	61.85
1056.1036	3266.8329	931.55	62.1
1056.2031	3267.7247	939.35	59.8
1056.3025	3268.616	928.35	60.8
1056.4019	3269.5066	928.65	59.3
1056.5013	3270.3966	927	55.45
1056.6005	3271.286	925.8	58.95
