Software Version:	3.9.2.0
Unit SN:	10000200
Spectrometer SN:	6960
Date:	3/8/2024 11:30:09 AM
Data Line Index:	25
Spectral Points:	2048
Integration time (ms):	125
Averages:	20
Delay (ms):	30000
Sequence Number:	1
Processing:	dark subtract
Laser Power (mW):	300
Laser Current (mA):	821
Laser Diode Temp (C):	25
Laser Case Temp (C):	25
System Temp (C):	25
Spectrometer Temp (C):	22.8
CCD Temp (C):	0.004
Secondary Temp (C):	20.013
Heatsink Temp (C):	19.438
CCDPCB Temp (C):	33.661
SecondaryPCB Temp (C):	26.814

Wavelength	RamanShift	Raw Counts	Dark Subtracted
787.061	30.1047	416.1	7.45
787.2016	32.3739	413.3	5.25
787.3422	34.6426	415.95	6.5
787.4828	36.9109	418.75	7.55
787.6235	39.1787	422.1	5.95
787.7642	41.4461	427.4	7.4
787.9049	43.7131	431.6	10
788.0456	45.9796	435	11.45
788.1863	48.2456	439.8	12.9
788.3271	50.5112	443.6	10.35
788.4679	52.7764	447.05	12.05
788.6087	55.0411	451.65	12.5
788.7496	57.3054	457.55	13.2
788.8904	59.5692	459.25	12.3
789.0313	61.8326	463.65	16.55
789.1722	64.0955	472.55	19.5
789.3132	66.3579	477.9	21.85
789.4541	68.6199	482.95	22.4
789.5951	70.8815	493.1	28.3
789.7361	73.1426	511.2	43.35
789.8771	75.4032	549.95	77.55
790.0181	77.6634	626.1	150.1
790.1592	79.9231	811.5	332
790.3003	82.1824	1202.45	715.3
790.4414	84.4412	1821	1321
790.5825	86.6995	2624.5	2111.6
790.7237	88.9574	3387.8	2867
790.8648	91.2148	3882.3	3353.85
791.006	93.4717	4124.15	3587.8
791.1472	95.7282	4141.3	3600.7
791.2885	97.9842	4128.05	3584.35
791.4297	100.2398	4086.2	3542.4
791.571	102.4949	4037.35	3491.05
791.7123	104.7495	3989.25	3436.45
791.8536	107.0036	3936.15	3384.6
791.9949	109.2573	3858.45	3309.35
792.1363	111.5105	3770.55	3218.3
792.2777	113.7632	3663.1	3105.9
792.4191	116.0154	3554.65	2987.45
792.5605	118.2672	3456.95	2896.65
792.7019	120.5185	3348.05	2785.4
792.8434	122.7693	3239.05	2674.4
792.9849	125.0197	3154.9	2585.75
793.1264	127.2696	3060.05	2487.8
793.2679	129.519	3020.35	2448.05
793.4094	131.7679	2990.5	2412.05
793.551	134.0163	2961.2	2380
793.6926	136.2642	2952.2	2369.6
793.8342	138.5117	2956.4	2369.2
793.9758	140.7587	2913.05	2326.5
794.1175	143.0052	2877.65	2286.25
794.2591	145.2512	2828.7	2236.55
794.4008	147.4967	2770.8	2178.2
794.5425	149.7417	2715.05	2117.15
794.6842	151.9863	2687.75	2087.1
794.826	154.2304	2677	2073.4
794.9677	156.4739	2668.45	2060.45
795.1095	158.717	2681.6	2073.7
795.2513	160.9596	2703	2086.9
795.3931	163.2017	2725.85	2110.75
795.535	165.4433	2742.2	2122.95
795.6768	167.6844	2753.3	2131.7
795.8187	169.925	2726.5	2102
795.9606	172.1651	2656.35	2027.15
796.1025	174.4047	2618.8	1987.6
796.2445	176.6439	2567.55	1934.5
796.3864	178.8825	2541.2	1905.8
796.5284	181.1206	2519.65	1878.85
796.6704	183.3582	2507.55	1865.9
796.8124	185.5954	2507	1861.4
796.9544	187.832	2518.25	1869.3
797.0965	190.0681	2509.15	1854.85
797.2386	192.3037	2520.35	1867.3
797.3806	194.5388	2530.95	1870.9
797.5228	196.7734	2532.2	1873.9
797.6649	199.0075	2556.05	1898.65
797.807	201.2411	2573.65	1913.25
797.9492	203.4742	2584.95	1925.25
798.0914	205.7068	2627.35	1959.15
798.2336	207.9389	2647.4	1977.55
798.3758	210.1704	2658.6	1997.85
798.518	212.4015	2661.4	2007.95
798.6603	214.632	2656.5	2007.7
798.8025	216.862	2664.55	2019.55
798.9448	219.0915	2674.95	2027.2
799.0871	221.3205	2672.25	2023.25
799.2294	223.549	2696.55	2050.5
799.3718	225.777	2697.7	2052.1
799.5141	228.0044	2701	2046.55
799.6565	230.2314	2690.95	2036.65
799.7989	232.4578	2672.25	2013.05
799.9413	234.6837	2670	1998.05
800.0837	236.909	2653.1	1982.25
800.2262	239.1339	2660.65	1964
800.3687	241.3582	2650.3	1970.95
800.5111	243.582	2660.6	1948.9
800.6536	245.8053	2663.65	1964.1
800.7961	248.0281	2666.7	1974.8
800.9387	250.2503	2661.3	1965.9
801.0812	252.472	2670.2	1974.25
801.2238	254.6932	2684.45	1987.2
801.3664	256.9139	2687.9	1989.1
801.509	259.134	2712.65	2006.75
801.6516	261.3536	2731.1	2030.65
801.7942	263.5727	2775.05	2070.75
801.9369	265.7912	2818.95	2118
802.0795	268.0092	2887.9	2182.85
802.2222	270.2267	2944.4	2241.95
802.3649	272.4436	3002.9	2297.95
802.5076	274.6601	3052.95	2338.2
802.6504	276.8759	3072.45	2360.8
802.7931	279.0913	3094.1	2380.65
802.9359	281.3061	3113.9	2400.6
803.0787	283.5204	3135.05	2421.05
803.2215	285.7341	3171.3	2451.4
803.3643	287.9473	3185.3	2466.65
803.5071	290.16	3175	2451.15
803.6499	292.3721	3133.4	2416.45
803.7928	294.5837	3088	2369.45
803.9357	296.7947	3069.35	2350.45
804.0786	299.0052	3053	2331.2
804.2215	301.2152	3013.7	2291.3
804.3644	303.4246	3011.85	2293.55
804.5074	305.6334	2992.3	2273.6
804.6503	307.8418	2976.15	2250.85
804.7933	310.0495	2961.25	2238
804.9363	312.2568	2918.7	2193.6
805.0793	314.4635	2870.7	2142.35
805.2223	316.6696	2818.4	2092.2
805.3653	318.8752	2765.95	2027.85
805.5084	321.0802	2733.35	2002.65
805.6514	323.2847	2729.25	1995.45
805.7945	325.4887	2733.9	1999.25
805.9376	327.692	2744	2011.1
806.0807	329.8949	2798.45	2061.45
806.2238	332.0972	2840.7	2102.35
806.367	334.2989	2879.65	2137.1
806.5101	336.5001	2883.55	2140.15
806.6533	338.7007	2848.3	2104.55
806.7965	340.9008	2799.3	2053.85
806.9397	343.1003	2734.35	1989.9
807.0829	345.2992	2677.5	1930.9
807.2261	347.4976	2629.1	1880
807.3693	349.6955	2607.2	1850.7
807.5126	351.8927	2594.4	1839.2
807.6559	354.0895	2573.05	1808.9
807.7991	356.2856	2552.15	1795.85
807.9424	358.4812	2539.05	1781.1
808.0857	360.6763	2543.35	1786.3
808.2291	362.8707	2525.15	1764.85
808.3724	365.0646	2528.6	1767.4
808.5158	367.258	2535.7	1770.65
808.6591	369.4508	2563.2	1794.9
808.8025	371.643	2595.75	1829.85
808.9459	373.8346	2619.35	1849.2
809.0893	376.0257	2663.25	1890.6
809.2327	378.2162	2682.05	1915.1
809.3762	380.4062	2703.6	1936
809.5196	382.5956	2670.35	1902.35
809.6631	384.7844	2630.3	1866.15
809.8066	386.9726	2583.3	1818.4
809.9501	389.1603	2544.6	1784.45
810.0936	391.3474	2552.05	1757.5
810.2371	393.5339	2519.4	1752.5
810.3806	395.7199	2535.05	1772.65
810.5241	397.9052	2567.3	1801.85
810.6677	400.09	2620.95	1854.3
810.8113	402.2743	2674.5	1906.1
810.9548	404.4579	2708.1	1940.8
811.0984	406.641	2745.75	1976.2
811.2421	408.8235	2798.65	2028.6
811.3857	411.0054	2847.95	2073.6
811.5293	413.1868	2910.55	2132.8
811.673	415.3675	2963.45	2183
811.8166	417.5477	2977	2196.95
811.9603	419.7273	2917.2	2133.5
812.104	421.9064	2822.1	2031.5
812.2477	424.0848	2754.75	1970.55
812.3914	426.2627	2687.25	1900.2
812.5351	428.4399	2618.15	1831.6
812.6788	430.6166	2562.25	1769.95
812.8226	432.7928	2508.6	1718.35
812.9663	434.9683	2469.75	1678.75
813.1101	437.1432	2440.9	1648.45
813.2539	439.3176	2403.35	1615.25
813.3977	441.4914	2395.1	1604.2
813.5415	443.6645	2391.4	1600.85
813.6853	445.8371	2393.3	1601.65
813.8291	448.0091	2399.35	1606.55
813.973	450.1806	2398.05	1604.05
814.1168	452.3514	2393.6	1598.15
814.2607	454.5216	2396.45	1592.65
814.4046	456.6913	2377.85	1581.45
814.5485	458.8603	2389.5	1593.9
814.6924	461.0288	2393.1	1600.9
814.8363	463.1967	2391.7	1597.2
814.9802	465.3639	2394	1599.05
815.1241	467.5306	2389.45	1590.85
815.2681	469.6967	2368.5	1572.85
815.412	471.8622	2366.25	1569.25
815.556	474.0271	2353	1554.8
815.7	476.1914	2367.5	1570
815.844	478.3551	2341.95	1539.6
815.988	480.5182	2357.7	1559.05
816.132	482.6807	2358.1	1558.35
816.276	484.8426	2384.2	1584.65
816.4201	487.0039	2417.85	1617.2
816.5641	489.1647	2474.9	1673
816.7082	491.3248	2534.95	1734.8
816.8522	493.4843	2561.4	1760.05
816.9963	495.6432	2548.15	1744.7
817.1404	497.8015	2512.35	1704
817.2845	499.9592	2475.6	1670.15
817.4286	502.1163	2412.1	1602.95
817.5727	504.2728	2359.45	1550.85
817.7168	506.4287	2324.65	1520.8
817.861	508.5839	2301.05	1494.15
818.0051	510.7386	2297.7	1490.8
818.1493	512.8927	2309.6	1492.9
818.2935	515.0461	2312.85	1502.4
818.4377	517.199	2331.5	1520.65
818.5818	519.3512	2381.25	1568.05
818.726	521.5029	2449.3	1631.3
818.8703	523.6539	2515.5	1701.5
819.0145	525.8043	2538.55	1724.2
819.1587	527.9541	2478.75	1660.55
819.303	530.1033	2401.6	1584.85
819.4472	532.2519	2344.45	1529.2
819.5915	534.3999	2317.45	1500.6
819.7357	536.5472	2310.55	1493.1
819.88	538.694	2305.8	1490.1
820.0243	540.8401	2325.5	1509.65
820.1686	542.9856	2342.8	1523.35
820.3129	545.1305	2373.7	1555.45
820.4572	547.2748	2368.95	1549.65
820.6016	549.4185	2388.2	1566.65
820.7459	551.5615	2380.85	1560.75
820.8902	553.704	2406.4	1586.5
821.0346	555.8458	2419.4	1599.9
821.1789	557.987	2453.6	1633.15
821.3233	560.1276	2482.8	1663.25
821.4677	562.2675	2525.8	1707
821.6121	564.4069	2612.85	1793.1
821.7565	566.5456	2664.3	1842.15
821.9009	568.6837	2639.35	1817.95
822.0453	570.8212	2560.65	1736.2
822.1897	572.958	2466.95	1643.5
822.3342	575.0942	2390.6	1569.35
822.4786	577.2299	2360.75	1537.25
822.6231	579.3648	2328.5	1507.6
822.7675	581.4992	2303.85	1481.1
822.912	583.6329	2314.45	1491.5
823.0565	585.766	2353.55	1529.55
823.201	587.8985	2409.7	1585.95
823.3454	590.0304	2457.3	1621.2
823.4899	592.1616	2500.45	1668
823.6345	594.2922	2489.95	1659.8
823.779	596.4222	2446.55	1617.7
823.9235	598.5515	2384.75	1554.95
824.068	600.6802	2324.25	1495.9
824.2126	602.8083	2287.05	1459.25
824.3571	604.9358	2261.2	1430
824.5017	607.0626	2262.65	1430.6
824.6462	609.1888	2263.75	1429.7
824.7908	611.3144	2302.9	1468.2
824.9354	613.4393	2339.8	1506.8
825.08	615.5636	2397.35	1562.5
825.2246	617.6873	2460.35	1627.05
825.3692	619.8103	2488.55	1654.95
825.5138	621.9327	2477.65	1642.6
825.6584	624.0544	2438.6	1607
825.803	626.1756	2376.1	1542.85
825.9477	628.2961	2316.75	1481.65
826.0923	630.4159	2288.85	1452.6
826.237	632.5351	2287.85	1450.8
826.3816	634.6537	2277.65	1439.05
826.5263	636.7716	2264.55	1423.7
826.6709	638.8889	2267.65	1428.3
826.8156	641.0056	2266.55	1428.6
826.9603	643.1216	2263.4	1422.4
827.105	645.237	2283.8	1444.7
827.2497	647.3518	2258.95	1420.9
827.3944	649.4659	2223.1	1385.9
827.5391	651.5793	2214.95	1376.95
827.6838	653.6922	2189.7	1351.25
827.8285	655.8043	2187.95	1347.7
827.9733	657.9159	2172.2	1330.3
828.118	660.0268	2156	1313.65
828.2627	662.137	2152.05	1308.9
828.4075	664.2466	2164.25	1321.45
828.5522	666.3556	2159.8	1317
828.697	668.4639	2150.8	1305.25
828.8418	670.5716	2146.8	1305.65
828.9865	672.6786	2135.1	1290.5
829.1313	674.785	2128.85	1284.15
829.2761	676.8907	2114.3	1270.8
829.4209	678.9958	2108.15	1263.65
829.5657	681.1002	2111.1	1268
829.7105	683.204	2121.7	1270.85
829.8553	685.3072	2127.4	1281.45
830.0001	687.4097	2123.35	1279.7
830.1449	689.5115	2115.95	1267.75
830.2898	691.6127	2120.95	1276.2
830.4346	693.7132	2109.55	1263.75
830.5794	695.8131	2129	1269.4
830.7243	697.9123	2117.3	1270.2
830.8691	700.0109	2112.1	1261.55
831.014	702.1089	2130.9	1283.2
831.1588	704.2061	2155.35	1307.2
831.3037	706.3028	2162.65	1312.55
831.4486	708.3987	2192.1	1341.9
831.5935	710.4941	2212.95	1361.2
831.7383	712.5887	2212.1	1362.2
831.8832	714.6827	2212.85	1358.65
832.0281	716.7761	2201.3	1350.35
832.173	718.8688	2205.35	1355.1
832.3179	720.9608	2199.95	1344.65
832.4628	723.0522	2218.85	1363
832.6077	725.1429	2245.15	1392.95
832.7527	727.233	2269.65	1415.2
832.8976	729.3224	2356.8	1504.05
833.0425	731.4112	2406.95	1553
833.1874	733.4993	2418.65	1559.8
833.3324	735.5867	2361.7	1506.8
833.4773	737.6735	2296.25	1439.15
833.6222	739.7596	2222.7	1366.55
833.7672	741.845	2187.05	1330.55
833.9122	743.9298	2185.2	1325.3
834.0571	746.014	2182.9	1327.2
834.2021	748.0974	2190.3	1330.85
834.347	750.1802	2196.7	1340.3
834.492	752.2624	2184.25	1326.4
834.637	754.3439	2175.8	1318.25
834.782	756.4247	2176.55	1310.7
834.9269	758.5048	2169.1	1312.5
835.0719	760.5843	2189.1	1329.65
835.2169	762.6631	2233.9	1374.6
835.3619	764.7413	2278.05	1418.8
835.5069	766.8188	2391.25	1532.8
835.6519	768.8956	2470.15	1611.1
835.7969	770.9718	2534.6	1677.35
835.9419	773.0473	2528.8	1670.15
836.0869	775.1221	2480.8	1621.5
836.232	777.1962	2466.3	1608.55
836.377	779.2697	2532.5	1671.55
836.522	781.3426	2668	1791.25
836.667	783.4147	2716.5	1854.8
836.8121	785.4862	2711.55	1851.75
836.9571	787.557	2616.85	1757.15
837.1021	789.6271	2470.25	1609.85
837.2472	791.6966	2324.45	1463.8
837.3922	793.7654	2222.1	1360.65
837.5373	795.8335	2155.45	1292.55
837.6823	797.901	2116.4	1256.8
837.8274	799.9678	2110.35	1246.1
837.9724	802.0339	2104.8	1243.95
838.1175	804.0993	2133.1	1260.15
838.2626	806.1641	2105	1240.9
838.4076	808.2282	2090.85	1229.45
838.5527	810.2916	2075.2	1206.75
838.6978	812.3544	2046.1	1184.6
838.8428	814.4164	2038.8	1176.9
838.9879	816.4778	2056.9	1193.3
839.133	818.5385	2069.85	1205.6
839.2781	820.5986	2092	1225.75
839.4232	822.658	2162.65	1296.1
839.5682	824.7166	2233.15	1369.6
839.7133	826.7747	2319.7	1455.45
839.8584	828.832	2408.25	1543.85
840.0035	830.8886	2479.4	1612.8
840.1486	832.9446	2512.3	1644.25
840.2937	834.9999	2474.4	1610.1
840.4388	837.0545	2398.8	1528.4
840.5839	839.1085	2306.5	1440
840.729	841.1618	2214.8	1343.25
840.8741	843.2143	2148.55	1280.45
841.0192	845.2662	2113.45	1246.65
841.1643	847.3175	2103.75	1236.85
841.3095	849.368	2086.9	1222.45
841.4546	851.4179	2077.1	1211.95
841.5997	853.467	2079.35	1212.8
841.7448	855.5155	2083.9	1219.4
841.8899	857.5633	2086.75	1219.65
842.0351	859.6105	2083.2	1217.1
842.1802	861.6569	2070.3	1201.85
842.3253	863.7027	2046.2	1178.85
842.4704	865.7478	2037.35	1167.5
842.6156	867.7922	2025.75	1159.55
842.7607	869.8359	2015.5	1144.8
842.9058	871.8789	2014.7	1144.95
843.0509	873.9212	2048.15	1146.2
843.1961	875.9629	2016.2	1147.55
843.3412	878.0039	2032.55	1160.55
843.4863	880.0441	2053.55	1186.7
843.6315	882.0837	2068.5	1198.05
843.7766	884.1226	2099.95	1227.2
843.9218	886.1609	2130.9	1263.2
844.0669	888.1984	2193.55	1324.3
844.212	890.2352	2245.6	1375.75
844.3572	892.2714	2256.05	1380.3
844.5023	894.3069	2231.65	1360.7
844.6475	896.3416	2157.4	1286.1
844.7926	898.3757	2114.4	1242.25
844.9377	900.4091	2099.95	1227.4
845.0829	902.4418	2104.25	1229.7
845.228	904.4739	2120.95	1245.8
845.3732	906.5052	2136.7	1263.65
845.5183	908.5358	2141.75	1271.15
845.6635	910.5658	2114.75	1238.95
845.8086	912.595	2072.35	1200.95
845.9538	914.6236	2024.1	1151.55
846.0989	916.6515	1998.5	1127.6
846.2441	918.6786	1969.7	1098.2
846.3892	920.7051	1966.45	1092.15
846.5344	922.7309	1956.2	1083.1
846.6795	924.756	1969.65	1096.15
846.8246	926.7804	1979.4	1105
846.9698	928.8041	1994.35	1118.7
847.1149	930.8272	2003.3	1130.15
847.2601	932.8495	2017.65	1142.3
847.4052	934.8711	2029.3	1151.4
847.5504	936.892	2027.15	1154.2
847.6955	938.9123	2048.5	1170.7
847.8407	940.9318	2092.95	1217.1
847.9858	942.9506	2092	1217.1
848.131	944.9688	2084.75	1210.9
848.2761	946.9862	2062.45	1190.1
848.4213	949.003	2021.45	1145.55
848.5664	951.019	1992.9	1117.45
848.7115	953.0344	1975.7	1098.1
848.8567	955.0491	1953.85	1078.7
849.0018	957.063	1949.15	1073.85
849.147	959.0763	1949.25	1073.5
849.2921	961.0888	1958.4	1079.2
849.4373	963.1007	1950.1	1076.8
849.5824	965.1119	1935.8	1060.65
849.7275	967.1223	1930.1	1057.8
849.8727	969.1321	1920.05	1047.6
850.0178	971.1412	1917.25	1043.15
850.1629	973.1495	1913.35	1037.1
850.3081	975.1572	1952.2	1041.95
850.4532	977.1641	1916.85	1041.75
850.5983	979.1704	1915.2	1037.75
850.7435	981.1759	1924.1	1045.05
850.8886	983.1808	1905.75	1025.9
851.0337	985.1849	1905.9	1018.9
851.1788	987.1884	1894.4	1015.5
851.324	989.1911	1894	1012.95
851.4691	991.1932	1917.25	1039.75
851.6142	993.1945	1920.1	1042.9
851.7593	995.1951	1904.45	1025.6
851.9045	997.1951	1913	1031.15
852.0496	999.1943	1899.55	1023.05
852.1947	1001.1928	1907.2	1031.5
852.3398	1003.1906	1921	1044.8
852.4849	1005.1877	1942.6	1063.65
852.63	1007.1841	1963.45	1085.25
852.7751	1009.1798	1986.1	1109.35
852.9202	1011.1748	1976.8	1096.55
853.0653	1013.1691	1950.4	1074.35
853.2104	1015.1627	1905.25	1028.35
853.3555	1017.1556	1869.05	991.55
853.5006	1019.1477	1854.45	977.3
853.6457	1021.1392	1841.3	964.85
853.7908	1023.1299	1813.9	940.5
853.9359	1025.12	1830.75	954.95
854.081	1027.1093	1834.35	964.1
854.2261	1029.0979	1849.45	978
854.3712	1031.0859	1863.05	989.35
854.5163	1033.0731	1893.05	1016.85
854.6613	1035.0596	1892.3	1015.85
854.8064	1037.0454	1881.9	1002.9
854.9515	1039.0304	1868.45	988.1
855.0965	1041.0148	1846.7	969.5
855.2416	1042.9985	1817.3	937.4
855.3867	1044.9814	1807.2	931.05
855.5317	1046.9636	1802.2	920.35
855.6768	1048.9452	1809.45	930.75
855.8219	1050.926	1842.45	963.25
855.9669	1052.9061	1842.05	966.2
856.112	1054.8855	1850.9	972
856.257	1056.8642	1857.2	978.1
856.4021	1058.8421	1863.8	980.85
856.5471	1060.8194	1849.45	970.1
856.6921	1062.7959	1844.85	966.85
856.8372	1064.7717	1836.65	954.4
856.9822	1066.7469	1844.85	962.35
857.1272	1068.7213	1857.95	976.4
857.2723	1070.695	1869.05	989.7
857.4173	1072.6679	1888.8	1007.45
857.5623	1074.6402	1914.85	1034.2
857.7073	1076.6117	1934.45	1047.3
857.8523	1078.5826	1896.05	1016.45
857.9973	1080.5527	1860.35	978.65
858.1423	1082.5221	1808.15	927.4
858.2873	1084.4908	1785.95	904.4
858.4323	1086.4587	1777	893.9
858.5773	1088.426	1767.9	887.1
858.7223	1090.3925	1762.45	874.05
858.8673	1092.3584	1771.65	893.05
859.0123	1094.3235	1773.45	894.75
859.1573	1096.2879	1805.05	925.05
859.3022	1098.2515	1819.7	940.65
859.4472	1100.2145	1855.8	973.45
859.5922	1102.1767	1880.05	995.45
859.7371	1104.1382	1933.95	1053.9
859.8821	1106.099	2007.3	1124.15
860.027	1108.0591	2051.55	1173.35
860.172	1110.0185	2080.4	1197.4
860.3169	1111.9771	2126.3	1245.95
860.4619	1113.9351	2182.2	1300.95
860.6068	1115.8923	2251.35	1367.35
860.7517	1117.8488	2284.75	1400.15
860.8967	1119.8045	2237.45	1356.25
861.0416	1121.7596	2133.1	1250.45
861.1865	1123.7139	2019.6	1141.3
861.3314	1125.6675	1951	1068.6
861.4763	1127.6204	1948.55	1068.1
861.6212	1129.5726	1974.35	1092.2
861.7661	1131.524	1977.9	1097.6
861.911	1133.4748	1926.35	1042.75
862.0559	1135.4248	1865.3	979.65
862.2008	1137.3741	1811.2	929
862.3457	1139.3226	1792.05	907.85
862.4905	1141.2705	1782.55	902.3
862.6354	1143.2176	1795.4	908.4
862.7803	1145.164	1811.5	926.75
862.9251	1147.1097	1796.4	912.75
863.07	1149.0546	1778.75	895.25
863.2148	1150.9989	1754.1	869.6
863.3597	1152.9424	1730.75	846.85
863.5045	1154.8852	1707.85	823.05
863.6493	1156.8272	1704	822.65
863.7942	1158.7686	1719.75	828.05
863.939	1160.7092	1702.25	818.4
864.0838	1162.6491	1711.45	828.2
864.2286	1164.5883	1721.65	838.65
864.3734	1166.5267	1745.05	862.8
864.5182	1168.4644	1767.1	885.55
864.663	1170.4014	1809	923.85
864.8078	1172.3377	1853.95	972.65
864.9526	1174.2732	1896.8	1015
865.0974	1176.2081	1986.95	1105
865.2421	1178.1421	2120.8	1234.95
865.3869	1180.0755	2245.35	1362.2
865.5317	1182.0082	2335.05	1450.3
865.6764	1183.9401	2317.9	1432.65
865.8212	1185.8713	2201.5	1319.1
865.9659	1187.8017	2069.2	1187.7
866.1106	1189.7315	1945.8	1067.55
866.2554	1191.6605	1874.5	967.65
866.4001	1193.5888	1815.35	935.45
866.5448	1195.5163	1779	896
866.6895	1197.4432	1758.25	874.8
866.8342	1199.3693	1737.85	855.7
866.9789	1201.2947	1723.55	840.25
867.1236	1203.2193	1707.45	822.35
867.2683	1205.1432	1708.7	823.75
867.413	1207.0664	1709.8	827.5
867.5576	1208.9889	1707.7	819.3
867.7023	1210.9106	1705.7	821.7
867.847	1212.8316	1709.25	825.85
867.9916	1214.7519	1729.95	837.3
868.1363	1216.6715	1725.9	842.4
868.2809	1218.5903	1739.7	856.8
868.4255	1220.5084	1753.85	871.05
868.5701	1222.4257	1776.25	892.55
868.7148	1224.3424	1786.2	904.15
868.8594	1226.2583	1809.5	922
869.004	1228.1735	1844.3	960.75
869.1486	1230.0879	1873.55	988.1
869.2932	1232.0016	1929.65	1044.7
869.4377	1233.9146	1961.85	1075.7
869.5823	1235.8269	1979.8	1095.05
869.7269	1237.7384	1978.15	1093.6
869.8715	1239.6492	1990.95	1106.65
870.016	1241.5592	2000.3	1114.2
870.1606	1243.4686	2052.25	1166.25
870.3051	1245.3772	2121.8	1238.15
870.4496	1247.285	2225.5	1339.9
870.5941	1249.1922	2315.35	1431.85
870.7387	1251.0986	2384.35	1503.4
870.8832	1253.0042	2456.15	1571.05
871.0277	1254.9092	2559.45	1675.7
871.1722	1256.8134	2650.05	1766.95
871.3167	1258.7169	2746	1862.85
871.4611	1260.6196	2787.7	1905.1
871.6056	1262.5216	2816.05	1930.8
871.7501	1264.4229	2796.6	1913.75
871.8945	1266.3234	2768.3	1885.1
872.039	1268.2232	2721.75	1835.65
872.1834	1270.1223	2655.65	1768.45
872.3278	1272.0207	2603.1	1716.8
872.4723	1273.9183	2587.7	1698.8
872.6167	1275.8151	2589.2	1706.5
872.7611	1277.7113	2624.55	1739.3
872.9055	1279.6067	2717.45	1833.45
873.0499	1281.5014	2871.05	1984.2
873.1943	1283.3953	3057	2170.65
873.3386	1285.2885	3267.55	2386.35
873.483	1287.181	3428.6	2542.1
873.6274	1289.0727	3495.45	2611.05
873.7717	1290.9637	3441.65	2555.95
873.9161	1292.854	3330.45	2445.1
874.0604	1294.7435	3200.3	2314.2
874.2047	1296.6323	3070	2185.3
874.349	1298.5204	2957.5	2068.35
874.4933	1300.4077	2877.45	1991.35
874.6376	1302.2943	2819.3	1935.25
874.7819	1304.1802	2765.6	1880.1
874.9262	1306.0653	2741.3	1854.6
875.0705	1307.9497	2706.5	1823.1
875.2147	1309.8333	2660.55	1776.85
875.359	1311.7162	2640.65	1754.1
875.5032	1313.5984	2609.05	1721.55
875.6475	1315.4798	2590.15	1692.15
875.7917	1317.3605	2593.55	1702.4
875.9359	1319.2405	2580.55	1693.75
876.0801	1321.1197	2559.3	1672.4
876.2243	1322.9982	2509.05	1618.15
876.3685	1324.876	2437.4	1552.6
876.5127	1326.753	2340.35	1455.45
876.6569	1328.6293	2238.75	1349.4
876.801	1330.5048	2147.5	1261
876.9452	1332.3796	2060.2	1176.05
877.0893	1334.2537	2024.5	1111.2
877.2335	1336.127	1951.15	1065.8
877.3776	1337.9996	1919.75	1033.8
877.5217	1339.8714	1898.2	1010.35
877.6658	1341.7426	1910.2	979.7
877.8099	1343.6129	1861.3	973.95
877.954	1345.4826	1837.15	953.2
878.0981	1347.3515	1825.6	936
878.2422	1349.2196	1814.85	926.95
878.3862	1351.087	1806.2	922.35
878.5303	1352.9537	1801.35	916.6
878.6743	1354.8197	1796.75	908.3
878.8184	1356.6849	1814.65	929.15
878.9624	1358.5493	1822.25	936.15
879.1064	1360.4131	1850.1	964.9
879.2504	1362.276	1893.65	1008.15
879.3944	1364.1383	1926.4	1042.8
879.5384	1365.9998	1950.7	1059.25
879.6823	1367.8606	1941.95	1054.3
879.8263	1369.7206	1919.2	1033.55
879.9702	1371.5799	1929.55	1041.2
880.1142	1373.4384	1923.95	1036.1
880.2581	1375.2962	1892.1	1006
880.402	1377.1533	1836.4	949.4
880.5459	1379.0096	1781.85	894.75
880.6898	1380.8652	1750.4	863.15
880.8337	1382.7201	1712.85	827.3
880.9776	1384.5742	1678.7	793.25
881.1215	1386.4275	1660.25	773.4
881.2653	1388.2802	1644.9	759.25
881.4092	1390.132	1630.95	742.75
881.553	1391.9832	1625.2	737.7
881.6968	1393.8336	1618.1	732.5
881.8406	1395.6832	1610.5	722.6
881.9844	1397.5322	1601.95	715.2
882.1282	1399.3803	1589.85	699.55
882.272	1401.2278	1570.2	685.55
882.4158	1403.0745	1573	685.35
882.5595	1404.9204	1553.55	667.5
882.7033	1406.7656	1558.1	672.4
882.847	1408.6101	1553.1	665.15
882.9908	1410.4538	1547.95	661.1
883.1345	1412.2968	1549.55	663.65
883.2782	1414.139	1553.55	667.5
883.4219	1415.9805	1554.7	669.55
883.5656	1417.8213	1570.8	677.25
883.7092	1419.6613	1587.85	701
883.8529	1421.5006	1618.35	731.9
883.9965	1423.3391	1656.5	767.9
884.1402	1425.1769	1710.9	821.25
884.2838	1427.0139	1792.1	905.25
884.4274	1428.8502	1890.1	1000.35
884.571	1430.6858	1959.45	1071.75
884.7146	1432.5206	1986.75	1100.75
884.8582	1434.3547	1981.9	1096.2
885.0018	1436.188	1962.7	1075.5
885.1453	1438.0206	1935.9	1048.7
885.2889	1439.8524	1931.55	1044.4
885.4324	1441.6835	1925.95	1037.65
885.5759	1443.5139	1933.8	1042.2
885.7194	1445.3435	1930.65	1043.3
885.8629	1447.1724	1935.1	1047.15
886.0064	1449.0005	1937.45	1052.1
886.1499	1450.8279	1930.4	1039.2
886.2933	1452.6545	1915.5	1028.8
886.4368	1454.4804	1920.1	1034.15
886.5802	1456.3056	1903.9	1010.3
886.7237	1458.13	1894.5	1009.3
886.8671	1459.9536	1860.7	973.45
887.0105	1461.7766	1822.7	937.8
887.1539	1463.5987	1774.1	887.9
887.2972	1465.4202	1742.05	855.4
887.4406	1467.2409	1692.95	807.4
887.584	1469.0608	1665.1	777.15
887.7273	1470.88	1633.75	748.1
887.8706	1472.6984	1602.25	716.35
888.0139	1474.5161	1583.65	693.55
888.1572	1476.3331	1554.4	670
888.3005	1478.1493	1548.95	660.65
888.4438	1479.9648	1544	657.75
888.5871	1481.7795	1535.3	648.45
888.7303	1483.5935	1550.85	663.1
888.8736	1485.4067	1550.25	663.75
889.0168	1487.2192	1548.65	659.45
889.16	1489.031	1550.9	661.2
889.3032	1490.842	1545.15	658.2
889.4464	1492.6522	1547.05	661.95
889.5896	1494.4618	1538.8	652.75
889.7327	1496.2705	1531.95	647.35
889.8759	1498.0785	1529.85	641.1
890.019	1499.8858	1522.2	636.4
890.1622	1501.6924	1521.4	632.2
890.3053	1503.4981	1513.5	627.6
890.4484	1505.3032	1507.95	619.55
890.5914	1507.1075	1499.25	612.65
890.7345	1508.911	1495.65	611.05
890.8776	1510.7138	1492.75	605.35
891.0206	1512.5159	1479.95	595.1
891.1637	1514.3172	1468.6	581.85
891.3067	1516.1178	1456.5	571.8
891.4497	1517.9176	1462.25	572.3
891.5927	1519.7166	1448.1	563.5
891.7357	1521.515	1455.5	561.6
891.8786	1523.3126	1440.05	552.55
892.0216	1525.1094	1443.5	555.25
892.1645	1526.9055	1424.75	540.1
892.3074	1528.7008	1433.2	546.35
892.4503	1530.4954	1427.2	534.65
892.5932	1532.2893	1420.65	536.55
892.7361	1534.0824	1413.2	523.2
892.879	1535.8747	1412.35	528.9
893.0218	1537.6663	1413.2	527.9
893.1647	1539.4572	1415.5	528.15
893.3075	1541.2473	1414.4	525
893.4503	1543.0367	1412.5	526.05
893.5931	1544.8253	1418	530.55
893.7359	1546.6132	1425.5	534.75
893.8787	1548.4003	1440.55	544.35
894.0214	1550.1867	1438.8	546.05
894.1642	1551.9723	1443.7	553.3
894.3069	1553.7572	1454.9	570.8
894.4496	1555.5414	1470.1	582.25
894.5923	1557.3247	1504.3	619.95
894.735	1559.1074	1537.5	656.05
894.8777	1560.8893	1580.55	696.35
895.0204	1562.6705	1621.75	737.05
895.163	1564.4509	1641.2	755.85
895.3056	1566.2305	1666.3	783.1
895.4482	1568.0094	1660.5	779
895.5908	1569.7876	1649.2	763.95
895.7334	1571.565	1651.55	767.4
895.876	1573.3417	1654.3	771.85
896.0186	1575.1176	1658	773.75
896.1611	1576.8928	1677.75	794.05
896.3036	1578.6672	1689.6	806.05
896.4461	1580.4409	1724.1	842.5
896.5886	1582.2138	1760.55	875.2
896.7311	1583.986	1809.1	924.45
896.8736	1585.7575	1842.5	960.75
897.0161	1587.5282	1872.8	989.15
897.1585	1589.2981	1906.05	1025.3
897.3009	1591.0673	1927.65	1045.75
897.4433	1592.8358	1933.8	1052.15
897.5857	1594.6035	1938.45	1052.45
897.7281	1596.3704	1916.1	1029.75
897.8705	1598.1366	1895.5	1011.25
898.0128	1599.9021	1873.75	989.55
898.1551	1601.6668	1841.3	956.25
898.2975	1603.4308	1828.5	944.9
898.4398	1605.194	1845.85	958.35
898.5821	1606.9564	1864.9	984.05
898.7243	1608.7182	1911.5	1027.15
898.8666	1610.4791	1993.05	1113.85
899.0088	1612.2394	2100.75	1221.25
899.1511	1613.9988	2208	1327.7
899.2933	1615.7576	2293.95	1413.25
899.4355	1617.5156	2335.5	1447.25
899.5776	1619.2728	2301.85	1416.75
899.7198	1621.0293	2203.25	1321.6
899.862	1622.785	2099.3	1210.8
900.0041	1624.54	1955.75	1071.15
900.1462	1626.2942	1836.15	953.6
900.2883	1628.0477	1730.7	843.15
900.4304	1629.8005	1649.2	763.45
900.5725	1631.5525	1574.7	691.45
900.7145	1633.3037	1519.7	635.8
900.8566	1635.0542	1478.2	596.05
900.9986	1636.804	1442.55	559.35
901.1406	1638.553	1482.05	538.35
901.2826	1640.3013	1401.3	520
901.4245	1642.0488	1378.7	496.15
901.5665	1643.7955	1362.8	481.35
901.7085	1645.5416	1344.65	462.5
901.8504	1647.2868	1341.45	458.05
901.9923	1649.0313	1337.3	454.25
902.1342	1650.7751	1334.45	447.4
902.2761	1652.5181	1323.65	443.4
902.4179	1654.2604	1328.75	443.85
902.5598	1656.0019	1329.95	451.05
902.7016	1657.7427	1336	452.85
902.8434	1659.4828	1358.25	474.4
902.9852	1661.222	1393.8	511.45
903.127	1662.9606	1421.75	540.35
903.2687	1664.6984	1462.3	578.35
903.4105	1666.4354	1468.5	585.35
903.5522	1668.1717	1446.6	560.75
903.6939	1669.9072	1405.25	522.6
903.8356	1671.642	1367.35	479.2
903.9773	1673.3761	1322.8	439.4
904.119	1675.1094	1286.65	402.2
904.2606	1676.8419	1273.4	391.6
904.4022	1678.5737	1251.25	367.5
904.5439	1680.3048	1244.45	361.6
904.6855	1682.0351	1233.3	349.65
904.827	1683.7646	1230.6	344.05
904.9686	1685.4934	1219.4	334.75
905.1101	1687.2215	1216	332.4
905.2517	1688.9488	1212.7	331.2
905.3932	1690.6754	1211.6	328.4
905.5347	1692.4012	1202.35	319.8
905.6761	1694.1263	1204.35	320.8
905.8176	1695.8506	1201.2	318.65
905.9591	1697.5742	1198.55	316.1
906.1005	1699.297	1194.3	312.35
906.2419	1701.0191	1193.05	311.95
906.3833	1702.7404	1184.85	301.65
906.5246	1704.461	1189.1	304.9
906.666	1706.1808	1184.9	300.6
906.8073	1707.8999	1185.35	300.55
906.9487	1709.6182	1178.65	296.1
907.09	1711.3358	1176.95	295.05
907.2313	1713.0527	1166.2	285.5
907.3725	1714.7688	1178.8	288.95
907.5138	1716.4841	1173.85	289.15
907.655	1718.1987	1176	289.9
907.7962	1719.9126	1169.25	289.7
907.9374	1721.6257	1171.05	287.65
908.0786	1723.338	1164.65	283.35
908.2198	1725.0496	1165.2	282.65
908.3609	1726.7605	1164.9	282.45
908.502	1728.4706	1163.15	280.55
908.6431	1730.18	1161.25	276.95
908.7842	1731.8886	1161.65	279.3
908.9253	1733.5964	1184.3	282.9
909.0664	1735.3036	1160.65	277.6
909.2074	1737.0099	1159.05	278.65
909.3484	1738.7156	1158.3	278.05
909.4894	1740.4204	1154.55	270.75
909.6304	1742.1246	1155.2	270.65
909.7714	1743.8279	1154.7	272.5
909.9123	1745.5306	1151.15	267.95
910.0532	1747.2325	1154.1	271.65
910.1941	1748.9336	1149.75	267
910.335	1750.634	1148.75	265.55
910.4759	1752.3336	1147.55	267.6
910.6168	1754.0325	1153.3	272.95
910.7576	1755.7307	1146.55	266.3
910.8984	1757.4281	1147.7	266.15
911.0392	1759.1247	1155.9	264.35
911.18	1760.8206	1156.2	268.3
911.3208	1762.5158	1150.65	264.6
911.4615	1764.2102	1150	267.9
911.6022	1765.9039	1141.3	258.5
911.7429	1767.5968	1141.35	261.9
911.8836	1769.289	1144.15	262.6
912.0243	1770.9804	1141.3	258.4
912.1649	1772.6711	1142.95	262.2
912.3056	1774.361	1144.55	261.7
912.4462	1776.0502	1139.75	257.5
912.5868	1777.7386	1145.15	258.15
912.7274	1779.4263	1132.85	247.95
912.8679	1781.1132	1136.35	254.65
913.0084	1782.7994	1138.65	255.9
913.149	1784.4849	1138.5	257.75
913.2895	1786.1696	1155.2	253.6
913.4299	1787.8535	1133.2	255.2
913.5704	1789.5367	1133.55	252.55
913.7108	1791.2192	1134.4	252
913.8513	1792.9009	1154.65	247
913.9917	1794.5818	1134	249.95
914.132	1796.2621	1127.7	246.4
914.2724	1797.9415	1132.75	251.3
914.4128	1799.6202	1132.1	251.05
914.5531	1801.2982	1126.5	242.35
914.6934	1802.9755	1129.05	244.5
914.8337	1804.6519	1127.15	245.25
914.9739	1806.3277	1124.2	243.85
915.1142	1808.0027	1123.5	244.8
915.2544	1809.6769	1121.55	240.5
915.3946	1811.3504	1126.85	243.75
915.5348	1813.0231	1124.35	243
915.675	1814.6951	1125.1	244.45
915.8151	1816.3664	1122.9	239.7
915.9553	1818.0369	1125.95	244.4
916.0954	1819.7067	1124.35	242.75
916.2355	1821.3757	1119.75	235.8
916.3755	1823.044	1118.55	234
916.5156	1824.7115	1120.85	239.45
916.6556	1826.3783	1120.05	237.9
916.7956	1828.0443	1117.2	234.95
916.9356	1829.7096	1119.7	237.05
917.0756	1831.3741	1119	233.6
917.2155	1833.0379	1116.05	236.75
917.3555	1834.701	1114.65	232
917.4954	1836.3633	1114.45	231.15
917.6353	1838.0248	1112.8	230.5
917.7751	1839.6856	1118.95	235.3
917.915	1841.3457	1109.95	230.8
918.0548	1843.005	1112.05	228.25
918.1946	1844.6636	1110.2	231.55
918.3344	1846.3214	1110.55	228.4
918.4742	1847.9785	1109.1	230.55
918.6139	1849.6349	1112.75	228.3
918.7537	1851.2904	1119.1	226.3
918.8934	1852.9453	1109.95	229.05
919.0331	1854.5994	1109	223.65
919.1727	1856.2528	1113.6	225.55
919.3124	1857.9054	1105.95	227.05
919.452	1859.5572	1106.15	224.35
919.5916	1861.2083	1103.65	221.2
919.7312	1862.8587	1109.4	228.55
919.8708	1864.5084	1097.2	211.65
920.0103	1866.1572	1105.05	225.45
920.1498	1867.8054	1102.4	217.85
920.2893	1869.4528	1106.95	223.8
920.4288	1871.0994	1100.75	216.4
920.5683	1872.7453	1101.5	217.85
920.7077	1874.3905	1105.35	216.6
920.8471	1876.0349	1101.3	218.25
920.9865	1877.6786	1103.65	220.05
921.1259	1879.3215	1095.4	215.65
921.2653	1880.9637	1102.65	217
921.4046	1882.6051	1096.5	216.55
921.5439	1884.2458	1097.3	211.2
921.6832	1885.8858	1097.4	216.4
921.8225	1887.525	1097.5	214.7
921.9617	1889.1634	1096.55	213
922.101	1890.8011	1096.6	214.5
922.2402	1892.4381	1096.4	213.7
922.3794	1894.0743	1093.35	212.75
922.5185	1895.7098	1092.75	209.4
922.6577	1897.3446	1093.85	209.95
922.7968	1898.9786	1092.7	205.3
922.9359	1900.6118	1094.6	210.95
923.075	1902.2443	1092.45	207.35
923.214	1903.8761	1088.2	207.45
923.3531	1905.5071	1091.75	208.7
923.4921	1907.1374	1088	207.15
923.6311	1908.7669	1085.7	203
923.77	1910.3957	1083.95	202.35
923.909	1912.0237	1087.1	205.4
924.0479	1913.651	1087.35	204
924.1868	1915.2776	1085.9	207.2
924.3257	1916.9034	1081.85	199.45
924.4646	1918.5285	1085.05	204.05
924.6034	1920.1528	1084.15	200.7
924.7422	1921.7764	1082.9	199.2
924.881	1923.3992	1087.6	206
925.0198	1925.0213	1080	200.25
925.1586	1926.6427	1077.35	197.15
925.2973	1928.2633	1288.7	197.9
925.436	1929.8832	1082.05	197.3
925.5747	1931.5023	1083.8	201.65
925.7134	1933.1207	1078.55	195
925.852	1934.7383	1078.1	195.25
925.9906	1936.3552	1075.8	194.7
926.1292	1937.9714	1072.65	190.6
926.2678	1939.5868	1075.9	193.2
926.4064	1941.2015	1074.85	189.9
926.5449	1942.8154	1075.9	192.55
926.6834	1944.4286	1076.15	195.15
926.8219	1946.041	1092.95	187.95
926.9604	1947.6528	1077.05	190.35
927.0988	1949.2637	1072.85	192.95
927.2372	1950.8739	1074.2	193.1
927.3756	1952.4834	1069.5	187.9
927.514	1954.0921	1071.3	186.65
927.6523	1955.7001	1074	188.5
927.7907	1957.3074	1068.4	187.75
927.929	1958.9139	1063.5	180.9
928.0673	1960.5197	1071.2	189.9
928.2055	1962.1247	1068.2	187
928.3438	1963.729	1064	183.75
928.482	1965.3325	1068.35	180.25
928.6202	1966.9353	1063.4	184.3
928.7584	1968.5374	1068.15	185.05
928.8965	1970.1387	1066.1	185.95
929.0346	1971.7393	1069	188.4
929.1727	1973.3392	1067.35	187.15
929.3108	1974.9383	1064.7	183.9
929.4489	1976.5366	1060.95	181
929.5869	1978.1342	1064.75	185.75
929.7249	1979.7311	1062.6	181.7
929.8629	1981.3273	1063.7	185
930.0009	1982.9227	1060.8	177.2
930.1388	1984.5173	1059.65	178.35
930.2767	1986.1112	1061.45	182.35
930.4146	1987.7044	1060.3	182.6
930.5525	1989.2968	1061.25	181.35
930.6904	1990.8885	1060.75	176.85
930.8282	1992.4795	1057.6	176.6
930.966	1994.0697	1055.95	177.85
931.1038	1995.6592	1054.6	176.35
931.2415	1997.2479	1060.5	181.9
931.3793	1998.8359	1060.85	180.75
931.517	2000.4232	1049.65	173
931.6547	2002.0097	1052	174.6
931.7923	2003.5955	1051.75	171.9
931.93	2005.1805	1056.2	176.35
932.0676	2006.7648	1048.2	170
932.2052	2008.3484	1051.05	172.45
932.3427	2009.9312	1053.65	173.6
932.4803	2011.5133	1048.35	169.45
932.6178	2013.0946	1046.45	168.9
932.7553	2014.6752	1051.45	174.2
932.8928	2016.2551	1050.35	171.6
933.0302	2017.8342	1050.75	173.25
933.1676	2019.4126	1049.2	171.6
933.305	2020.9902	1046.2	169.9
933.4424	2022.5672	1050.4	170.45
933.5798	2024.1433	1053.6	169.55
933.7171	2025.7188	1044.35	171
933.8544	2027.2935	1047.6	170.25
933.9917	2028.8674	1043.9	165.8
934.129	2030.4406	1047.75	170.85
934.2662	2032.0131	1041.65	165.65
934.4034	2033.5849	1049.75	164.95
934.5406	2035.1559	1043.5	165.2
934.6778	2036.7261	1048.65	173.1
934.8149	2038.2957	1048.5	169
934.952	2039.8645	1042.2	163.15
935.0891	2041.4325	1052.7	173.1
935.2262	2042.9998	1042.55	166.05
935.3632	2044.5664	1045.5	164.45
935.5002	2046.1323	1041.6	164.85
935.6372	2047.6974	1047.3	170.55
935.7742	2049.2617	1040.75	163.75
935.9111	2050.8254	1049.85	165
936.048	2052.3883	1040.4	160.75
936.1849	2053.9504	1045.45	165.25
936.3218	2055.5118	1042.85	162.1
936.4586	2057.0725	1046.85	166.15
936.5955	2058.6325	1042.85	163.6
936.7323	2060.1917	1037.7	162.4
936.869	2061.7502	1040.85	159.25
937.0058	2063.3079	1037.25	160.35
937.1425	2064.8649	1044.8	164.05
937.2792	2066.4212	1036.95	158.55
937.4159	2067.9767	1038.6	160.1
937.5525	2069.5315	1036.45	156.55
937.6891	2071.0856	1038.8	160
937.8257	2072.6389	1037.55	159.05
937.9623	2074.1915	1033.05	158.1
938.0989	2075.7433	1041.25	161.45
938.2354	2077.2945	1034.7	157.7
938.3719	2078.8448	1036	157
938.5084	2080.3945	1043.35	165.75
938.6448	2081.9434	1038.45	160.15
938.7812	2083.4916	1041	163.65
938.9176	2085.039	1041.25	158
939.054	2086.5857	1035.75	153.4
939.1903	2088.1317	1039.65	158.4
939.3267	2089.677	1039.45	158.35
939.463	2091.2215	1034.5	153.5
939.5992	2092.7652	1035.2	154.6
939.7355	2094.3083	1037.75	157.4
939.8717	2095.8506	1033.35	155.85
940.0079	2097.3921	1032.25	151.6
940.1441	2098.933	1038.1	159.6
940.2802	2100.4731	1038.65	160.1
940.4163	2102.0124	1050.2	152.5
940.5524	2103.5511	1035.4	155.2
940.6885	2105.089	1037	157.7
940.8245	2106.6261	1035.9	155.95
940.9606	2108.1626	1035.5	154.1
941.0965	2109.6983	1062.05	155.25
941.2325	2111.2332	1034.1	155.65
941.3684	2112.7675	1034.9	154
941.5044	2114.301	1036.15	155.15
941.6403	2115.8337	1039.9	159.15
941.7761	2117.3657	1028.75	150.9
941.912	2118.897	1033.55	154.55
942.0478	2120.4276	1036.9	152.6
942.1835	2121.9575	1034.7	154.95
942.3193	2123.4866	1045.45	150.65
942.455	2125.0149	1035.6	152.45
942.5907	2126.5426	1032.9	153.7
942.7264	2128.0695	1034.7	150.8
942.8621	2129.5956	1029.15	154
942.9977	2131.1211	1036.3	153.05
943.1333	2132.6458	1030.95	153.85
943.2689	2134.1698	1032	151.7
943.4044	2135.693	1033.8	152.4
943.54	2137.2155	1030.75	150.25
943.6755	2138.7373	1030	151.1
943.8109	2140.2584	1027.65	148.65
943.9464	2141.7787	1035.35	150.55
944.0818	2143.2983	1027.6	151.4
944.2172	2144.8171	1025.25	149.25
944.3526	2146.3353	1029.45	152.5
944.4879	2147.8527	1027.95	151.15
944.6232	2149.3693	1030.75	152.85
944.7585	2150.8853	1029.3	149.8
944.8938	2152.4005	1028.15	149.05
945.029	2153.9149	1029.7	150.8
945.1642	2155.4287	1025.85	145.85
945.2994	2156.9417	1027.35	146.3
945.4346	2158.454	1032.2	151.15
945.5697	2159.9655	1024.5	148
945.7048	2161.4764	1024.75	147.9
945.8399	2162.9865	1029.45	151.25
945.9749	2164.4958	1025.5	146.5
946.1099	2166.0045	1028.85	148.65
946.2449	2167.5124	1022.9	143.3
946.3799	2169.0195	1027.45	150
946.5148	2170.526	1023.3	141.9
946.6498	2172.0317	1023.3	143.35
946.7846	2173.5367	1027.15	148.95
946.9195	2175.0409	1025.2	146.1
947.0543	2176.5445	1026.15	149.75
947.1891	2178.0473	1025.65	147.1
947.3239	2179.5494	1023.6	142.45
947.4587	2181.0507	1023.05	143.15
947.5934	2182.5513	1024.15	147.9
947.7281	2184.0512	1021.7	143.3
947.8628	2185.5504	1019.3	140.65
947.9974	2187.0488	1020.1	140.8
948.132	2188.5465	1019.9	142.45
948.2666	2190.0435	1020.65	141.55
948.4012	2191.5397	1025.4	148.15
948.5357	2193.0353	1018.75	139.05
948.6702	2194.5301	1021.75	141.8
948.8047	2196.0241	1021.1	142.15
948.9392	2197.5175	1019	139.65
949.0736	2199.0101	1024.8	140.55
949.208	2200.502	1016.25	138.6
949.3424	2201.9931	1021.2	141.3
949.4767	2203.4835	1017.5	139.65
949.611	2204.9733	1035.2	139.65
949.7453	2206.4622	1016.15	140.65
949.8796	2207.9505	1019.9	138.2
950.0138	2209.438	1011.4	136.15
950.148	2210.9248	1016.8	138.15
950.2822	2212.4109	1013.7	135.35
950.4164	2213.8962	1019.1	136.6
950.5505	2215.3809	1016.95	138.35
950.6846	2216.8648	1017.85	136.6
950.8186	2218.3479	1016.8	132.85
950.9527	2219.8304	1017.95	134.45
951.0867	2221.3121	1015.85	133.75
951.2207	2222.7931	1010.6	132
951.3546	2224.2733	1012.7	132.05
951.4886	2225.7529	1011.35	133.5
951.6225	2227.2317	1014.9	132.5
951.7563	2228.7098	1013.05	135.85
951.8902	2230.1872	1013.35	134.05
952.024	2231.6638	1010.25	129.65
952.1578	2233.1397	1021.15	135.95
952.2916	2234.6149	1007.45	130.45
952.4253	2236.0894	1006.9	125.8
952.559	2237.5632	1019.3	130.45
952.6927	2239.0362	1010.8	131.25
952.8263	2240.5085	1006.15	125.95
952.9599	2241.9801	1007.25	128.7
953.0935	2243.4509	1006.65	126.95
953.2271	2244.921	1009.05	129.4
953.3606	2246.3904	1008.75	125.35
953.4941	2247.8591	1007.25	129.55
953.6276	2249.3271	1006.75	130.1
953.7611	2250.7943	1005.55	125.25
953.8945	2252.2608	1006.1	127.9
954.0279	2253.7266	1009.45	131.2
954.1612	2255.1917	1004.35	125.15
954.2946	2256.656	1000.15	119.4
954.4279	2258.1197	1003.55	124.45
954.5612	2259.5826	1005.05	124.65
954.6944	2261.0447	1004.6	124.85
954.8276	2262.5062	1005.5	123.55
954.9608	2263.9669	1001.7	119.25
955.094	2265.4269	1002.2	123.7
955.2271	2266.8862	1001.05	123.95
955.3602	2268.3448	1000.05	123.2
955.4933	2269.8026	1003.5	124.9
955.6264	2271.2598	1000.9	124.2
955.7594	2272.7162	998.25	118.95
955.8924	2274.1719	997.85	119.1
956.0253	2275.6268	1002.85	122.15
956.1583	2277.0811	997.75	117.55
956.2912	2278.5346	997.9	118.35
956.4241	2279.9874	998.65	118.6
956.5569	2281.4395	997.9	119.45
956.6897	2282.8908	1001.1	118.05
956.8225	2284.3414	1003.75	122.9
956.9553	2285.7914	998.15	122.5
957.088	2287.2406	1003.95	122.85
957.2207	2288.689	1000.05	120.85
957.3534	2290.1368	997.1	118.25
957.486	2291.5838	997.75	114.55
957.6186	2293.0302	1001.85	121.55
957.7512	2294.4758	998.85	118
957.8838	2295.9206	998.9	118.4
958.0163	2297.3648	999	121.1
958.1488	2298.8082	998	117.05
958.2813	2300.251	994.5	115
958.4137	2301.693	998.55	115.35
958.5461	2303.1343	998.6	120.65
958.6785	2304.5748	996.5	116
958.8108	2306.0147	996.05	118.6
958.9432	2307.4538	996.2	116.35
959.0754	2308.8922	989.95	111.85
959.2077	2310.3299	996.1	118.6
959.3399	2311.7669	997.05	120.85
959.4721	2313.2031	994.1	114.5
959.6043	2314.6387	993.85	115.15
959.7365	2316.0735	995.7	116.1
959.8686	2317.5076	992.25	114.5
960.0006	2318.941	995.55	115.95
960.1327	2320.3737	993.9	112.15
960.2647	2321.8056	998.85	117.3
960.3967	2323.2369	994.6	114.9
960.5287	2324.6674	1000	117.6
960.6606	2326.0972	999.25	115.05
960.7925	2327.5263	1003.35	126.1
960.9244	2328.9547	1005.05	125.65
961.0562	2330.3823	999.95	120.65
961.1881	2331.8092	998.6	116.05
961.3198	2333.2355	992	114.1
961.4516	2334.661	993.8	113.6
961.5833	2336.0858	994.65	115.95
961.715	2337.5098	989.3	109.1
961.8467	2338.9332	991.55	110
961.9783	2340.3558	990.35	107.65
962.1099	2341.7778	986.5	106.45
962.2415	2343.199	992.6	111.7
962.373	2344.6195	989.9	110.35
962.5045	2346.0393	983.75	103.6
962.636	2347.4583	987.85	106.05
962.7675	2348.8767	987.45	108.5
962.8989	2350.2943	988.95	108.95
963.0303	2351.7113	991.05	109.2
963.1617	2353.1275	990.15	110.15
963.293	2354.543	1011.1	107.25
963.4243	2355.9578	985.95	105.1
963.5556	2357.3718	982.35	102.5
963.6868	2358.7852	988.85	106.05
963.818	2360.1978	982.6	102.3
963.9492	2361.6098	982.65	101.15
964.0803	2363.021	987.75	103.55
964.2114	2364.4315	987.9	106.6
964.3425	2365.8413	992.4	107.5
964.4736	2367.2504	985.35	107.2
964.6046	2368.6587	982.8	101.95
964.7356	2370.0664	981.3	101.7
964.8666	2371.4733	984.5	103.3
964.9975	2372.8795	982.35	104.2
965.1284	2374.285	980.3	100.15
965.2593	2375.6899	985	105.45
965.3901	2377.0939	982.15	101.2
965.5209	2378.4973	982.15	101.9
965.6517	2379.9	984.05	104.5
965.7825	2381.3019	982.05	101.75
965.9132	2382.7032	983.45	103.25
966.0439	2384.1037	979.3	100.25
966.1745	2385.5035	978.5	99.2
966.3051	2386.9027	978.7	98.7
966.4357	2388.3011	984.8	103.9
966.5663	2389.6987	980.3	100.25
966.6968	2391.0957	979.4	98.95
966.8273	2392.492	979.65	100
966.9578	2393.8876	976.6	96.7
967.0882	2395.2824	978.9	98.4
967.2186	2396.6765	978.3	100.45
967.349	2398.07	975.9	98.05
967.4793	2399.4627	980.3	98.3
967.6097	2400.8547	980.8	100.25
967.7399	2402.246	984.05	97.85
967.8702	2403.6366	980.8	101.1
968.0004	2405.0265	973.9	93.5
968.1306	2406.4156	979.45	94.5
968.2607	2407.8041	982.45	99.95
968.3909	2409.1918	977.75	92.8
968.521	2410.5789	973.25	92.95
968.651	2411.9652	976.15	92.2
968.781	2413.3508	975.25	93.1
968.911	2414.7358	973.95	92.65
969.041	2416.12	975.55	93.55
969.1709	2417.5035	973.3	94.7
969.3008	2418.8863	975.8	93.7
969.4307	2420.2684	975.75	94.4
969.5606	2421.6497	976.1	93.55
969.6904	2423.0304	971.35	91.3
969.8201	2424.4104	971.15	90.35
969.9499	2425.7896	976.15	91.35
970.0796	2427.1682	974.7	96.5
970.2093	2428.546	974.2	89.3
970.3389	2429.9232	975.1	94.85
970.4685	2431.2996	971.95	89.6
970.5981	2432.6753	968.2	89.45
970.7277	2434.0503	973.2	91.95
970.8572	2435.4246	970.15	90.85
970.9867	2436.7982	974.05	89.1
971.1161	2438.1711	968.55	89.5
971.2456	2439.5433	968.15	86.15
971.375	2440.9148	972.4	91.45
971.5043	2442.2856	969.75	90.25
971.6336	2443.6557	971.55	90.9
971.7629	2445.025	968.8	90.3
971.8922	2446.3937	968.35	87.65
972.0214	2447.7617	968.65	86.6
972.1506	2449.1289	966.65	86.1
972.2798	2450.4955	968.6	84.3
972.4089	2451.8613	962.65	83.4
972.538	2453.2265	967.25	85.75
972.6671	2454.5909	969.35	88.65
972.7961	2455.9546	966.55	84.95
972.9251	2457.3177	966.75	87.8
973.0541	2458.68	968.25	87
973.1831	2460.0416	965.2	85.9
973.312	2461.4025	965	81.5
973.4408	2462.7627	978.2	85.45
973.5697	2464.1222	967.65	87.8
973.6985	2465.4811	968.2	86.8
973.8273	2466.8392	968.4	87.2
973.956	2468.1966	972.4	89.4
974.0847	2469.5533	964.85	86.3
974.2134	2470.9093	962.2	81.9
974.3421	2472.2645	965.55	84
974.4707	2473.6191	963.25	82.6
974.5993	2474.973	963.9	83.8
974.7278	2476.3262	967	84.8
974.8563	2477.6787	964.65	85.1
974.9848	2479.0305	963.15	83.65
975.1132	2480.3816	965.35	83.95
975.2417	2481.7319	961.55	82.55
975.37	2483.0816	966.45	83.75
975.4984	2484.4306	967.95	87.2
975.6267	2485.7789	961	80.15
975.755	2487.1264	965.55	84.2
975.8833	2488.4733	958.5	79.15
976.0115	2489.8195	966.15	81.05
976.1397	2491.165	965	83
976.2678	2492.5097	965.5	83.9
976.3959	2493.8538	959.9	80.8
976.524	2495.1972	960.95	80.45
976.6521	2496.5398	961.35	77.85
976.7801	2497.8818	965.65	85.3
976.9081	2499.2231	960.95	79.7
977.036	2500.5637	961.25	79.25
977.164	2501.9035	960.75	79.45
977.2918	2503.2427	962.6	77.8
977.4197	2504.5812	959.9	80
977.5475	2505.919	961.05	77
977.6753	2507.256	960.15	78.55
977.8031	2508.5924	958.4	80.1
977.9308	2509.9281	966.2	78.75
978.0585	2511.2631	960.15	80.7
978.1861	2512.5974	962.25	82.45
978.3137	2513.9309	961.4	79.75
978.4413	2515.2638	984.95	78.5
978.5689	2516.596	954.75	75.95
978.6964	2517.9275	955.65	74.85
978.8239	2519.2583	959.1	78.75
978.9513	2520.5884	960.2	77.7
979.0788	2521.9178	956.25	77.05
979.2062	2523.2465	952.65	71.6
979.3335	2524.5745	956.25	76.25
979.4608	2525.9018	956.7	76.5
979.5881	2527.2284	955.2	77.8
979.7154	2528.5543	954.45	76.05
979.8426	2529.8796	958.9	80.05
979.9698	2531.2041	952.25	71.6
980.0969	2532.5279	952.1	70.05
980.224	2533.851	958.3	77.8
980.3511	2535.1735	955.45	74.7
980.4781	2536.4952	956.05	75.9
980.6052	2537.8163	958.4	76.9
980.7321	2539.1366	951.75	73.6
980.8591	2540.4562	954.5	73
980.986	2541.7752	955.65	74.9
981.1129	2543.0935	955.6	75.35
981.2397	2544.411	955.15	72.65
981.3665	2545.7279	954.8	76.15
981.4933	2547.0441	955.65	73.7
981.62	2548.3596	956.4	73.45
981.7467	2549.6744	955.75	75.75
981.8734	2550.9885	961.1	71.85
982.0001	2552.3019	950.9	71.4
982.1267	2553.6146	954.1	73
982.2532	2554.9266	948.8	69.25
982.3798	2556.2379	954.3	74.9
982.5063	2557.5485	952.75	74.45
982.6327	2558.8585	956.9	67.85
982.7592	2560.1677	957.15	71.45
982.8856	2561.4762	950.35	71.25
983.0119	2562.7841	952.9	69.85
983.1383	2564.0913	947.65	69.35
983.2646	2565.3977	949.35	67.65
983.3908	2566.7035	950	70.25
983.517	2568.0086	950.6	66.55
983.6432	2569.313	954.2	72.85
983.7694	2570.6167	957.85	75.95
983.8955	2571.9197	948.15	69.45
984.0216	2573.222	953	68.3
984.1476	2574.5236	952.25	72.95
984.2737	2575.8246	951.65	68.75
984.3996	2577.1248	953.35	70.7
984.5256	2578.4244	945.95	67.55
984.6515	2579.7232	951.4	72.3
984.7774	2581.0214	976.7	69.7
984.9032	2582.3189	948.9	69.75
985.029	2583.6157	953.1	68.3
985.1548	2584.9118	950	68.95
985.2806	2586.2072	946.2	67.25
985.4063	2587.5019	947.8	68.2
985.5319	2588.7959	951.1	70.15
985.6576	2590.0893	954.35	73.5
985.7832	2591.3819	946.3	67.2
985.9087	2592.6739	951.95	73.65
986.0343	2593.9652	951.7	71.45
986.1597	2595.2557	949.8	71.75
986.2852	2596.5456	954.55	74.4
986.4106	2597.8348	947.15	69.1
986.536	2599.1234	948.85	69.1
986.6614	2600.4112	947.15	69.3
986.7867	2601.6983	949.95	67.4
986.912	2602.9848	951.85	71.15
987.0372	2604.2705	958.5	71.7
987.1624	2605.5556	950.2	69.55
987.2876	2606.84	948.05	68.65
987.4128	2608.1237	950.35	69.15
987.5379	2609.4067	948.7	70.85
987.6629	2610.689	954.95	64.4
987.788	2611.9707	949.95	67.75
987.913	2613.2516	948.7	64.4
988.0379	2614.5319	941.15	61.3
988.1629	2615.8115	947.5	66.75
988.2878	2617.0903	949.05	65.7
988.4126	2618.3685	945.95	67.5
988.5375	2619.6461	950.65	72.3
988.6622	2620.9229	948.75	69
988.787	2622.199	948.6	69.8
988.9117	2623.4745	949.15	68
989.0364	2624.7493	944.15	66.25
989.161	2626.0234	944.05	66.2
989.2857	2627.2968	944.4	65.1
989.4102	2628.5695	948.2	66.8
989.5348	2629.8415	947.4	69.15
989.6593	2631.1128	942.8	63.35
989.7837	2632.3835	942.6	65.05
989.9082	2633.6535	941.7	61.25
990.0326	2634.9228	944.7	65.15
990.1569	2636.1914	940.5	59.05
990.2812	2637.4593	946.55	65.15
990.4055	2638.7265	941.2	60.7
990.5298	2639.9931	942	62.55
990.654	2641.259	946.2	65.2
990.7782	2642.5242	943.85	64.65
990.9023	2643.7887	941.8	60.45
991.0264	2645.0525	941.75	64.2
991.1505	2646.3156	942.15	63.65
991.2745	2647.5781	939.3	59.2
991.3985	2648.8398	939.2	59.1
991.5225	2650.1009	976.35	59.65
991.6464	2651.3613	940	61.6
991.7703	2652.6211	938.95	59.55
991.8942	2653.8801	937.9	60.3
992.018	2655.1385	943.5	60.45
992.1418	2656.3961	937.85	58.7
992.2655	2657.6531	940.3	60.05
992.3892	2658.9094	940.35	60.15
992.5129	2660.1651	937.6	60.15
992.6366	2661.42	938.9	59.35
992.7602	2662.6743	938.8	58.65
992.8837	2663.9279	938.55	58.85
993.0073	2665.1808	939.55	59.6
993.1307	2666.433	941.1	61.7
993.2542	2667.6846	938.75	58.25
993.3776	2668.9354	942.4	59.6
993.501	2670.1856	940.4	60.25
993.6244	2671.4351	937.85	59.35
993.7477	2672.6839	939.85	59.4
993.8709	2673.9321	940.5	62.15
993.9942	2675.1795	941.7	62.4
994.1174	2676.4263	943.15	62.7
994.2405	2677.6724	936.55	57.2
994.3637	2678.9179	938.9	57.9
994.4868	2680.1626	938.65	61.15
994.6098	2681.4067	939.7	61.1
994.7328	2682.6501	939.75	60.75
994.8558	2683.8928	938.7	58.5
994.9788	2685.1348	937.95	59.3
995.1017	2686.3761	935.55	55.75
995.2245	2687.6168	933.9	55
995.3474	2688.8568	933.85	56.2
995.4702	2690.0961	934.7	57.9
995.5929	2691.3348	936.05	55.6
995.7156	2692.5727	939	59.55
995.8383	2693.81	933.85	54.6
995.961	2695.0466	932.6	53.95
996.0836	2696.2826	933.45	54.1
996.2062	2697.5178	937.45	53.3
996.3287	2698.7524	934.3	57.5
996.4512	2699.9863	935.95	55.3
996.5737	2701.2195	934.2	57.95
996.6961	2702.452	936.35	55.9
996.8185	2703.6839	940.1	59.7
996.9408	2704.9151	933.7	55.35
997.0631	2706.1456	937.45	57.85
997.1854	2707.3755	936.3	56.45
997.3077	2708.6046	938.55	57
997.4299	2709.8331	936.4	56.75
997.552	2711.0609	938.75	58.95
997.6742	2712.2881	935.85	56
997.7963	2713.5145	938.8	58.8
997.9183	2714.7403	939.45	62.6
998.0403	2715.9654	941.05	60
998.1623	2717.1899	957.1	64.15
998.2842	2718.4136	937.9	59.05
998.4062	2719.6367	942.4	65
998.528	2720.8591	948.25	61.4
998.6498	2722.0809	946.9	66.3
998.7716	2723.3019	950.95	68.75
998.8934	2724.5223	947.05	68.4
999.0151	2725.7421	947.35	66.9
999.1368	2726.9611	945.9	64.65
999.2584	2728.1795	946.8	62.95
999.38	2729.3972	942.65	64.75
999.5016	2730.6142	950.2	65.8
999.6231	2731.8306	942.95	64.75
999.7446	2733.0462	940.5	60.15
999.8661	2734.2612	943.35	57.95
999.9875	2735.4756	938.75	60.35
1000.1089	2736.6892	934.25	55.5
1000.2302	2737.9022	933.9	56.1
1000.3515	2739.1145	937	57
1000.4728	2740.3262	942.25	55.8
1000.594	2741.5372	935.75	58.6
1000.7152	2742.7475	933.45	52.85
1000.8363	2743.9571	932.45	51.95
1000.9575	2745.1661	937.2	53.2
1001.0785	2746.3744	933.75	55.15
1001.1996	2747.582	928.2	51.25
1001.3206	2748.7889	930.6	49.85
1001.4415	2749.9952	926.95	49.05
1001.5625	2751.2008	930.15	50.35
1001.6833	2752.4057	931.2	49.5
1001.8042	2753.61	930.9	52.55
1001.925	2754.8136	928	46
1002.0458	2756.0165	924.65	47
1002.1665	2757.2188	923.7	46
1002.2872	2758.4204	927.75	50.55
1002.4078	2759.6213	926.75	47.95
1002.5285	2760.8215	931.6	49.05
1002.649	2762.0211	927.7	47.25
1002.7696	2763.22	929.6	48.5
1002.8901	2764.4182	928.4	46.95
1003.0106	2765.6158	926.25	46.3
1003.131	2766.8127	925.75	45.75
1003.2514	2768.009	924.1	45.45
1003.3717	2769.2045	923.25	45.55
1003.492	2770.3994	927.95	45.4
1003.6123	2771.5936	926.85	47.3
1003.7325	2772.7872	922.95	46.6
1003.8527	2773.9801	921.4	41.5
1003.9729	2775.1723	938.15	45.5
1004.093	2776.3639	919.95	41.4
1004.2131	2777.5548	925.15	45.1
1004.3331	2778.745	923.7	44.45
1004.4531	2779.9346	923.25	43.55
1004.5731	2781.1235	920	40.7
1004.693	2782.3117	919.15	41.7
1004.8129	2783.4992	922.6	44.45
1004.9328	2784.6861	923.05	44.5
1005.0526	2785.8723	924.55	44.7
1005.1723	2787.0579	925.05	46.7
1005.2921	2788.2428	922.8	45.45
1005.4118	2789.427	920.65	41.8
1005.5314	2790.6106	921.7	41.8
1005.651	2791.7935	923.9	44.35
1005.7706	2792.9757	921.4	44.1
1005.8902	2794.1573	925.95	45.55
1006.0097	2795.3382	922.15	45.25
1006.1291	2796.5184	921.35	45.5
1006.2485	2797.698	927.75	46.2
1006.3679	2798.8769	924.85	45.95
1006.4873	2800.0551	925.05	46.1
1006.6066	2801.2327	928	45.7
1006.7258	2802.4096	923.7	46.85
1006.8451	2803.5859	929.15	51.2
1006.9642	2804.7615	926.65	47.55
1007.0834	2805.9364	925.55	49.45
1007.2025	2807.1106	923.5	46.15
1007.3216	2808.2842	926.3	47.6
1007.4406	2809.4572	929	50.1
1007.5596	2810.6294	930.9	52
1007.6785	2811.801	931.05	53.15
1007.7975	2812.972	933.85	56.95
1007.9163	2814.1423	933.5	55.45
1008.0352	2815.3119	937.95	59.4
1008.154	2816.4808	937.05	60.2
1008.2727	2817.6491	947.05	68.25
1008.3914	2818.8167	942.25	65.75
1008.5101	2819.9837	953.9	72.1
1008.6288	2821.15	956.25	76.35
1008.7474	2822.3157	960.5	82.7
1008.8659	2823.4807	970.15	91.95
1008.9844	2824.645	979.15	99.9
1009.1029	2825.8086	982.7	106.35
1009.2214	2826.9716	990.45	113.7
1009.3398	2828.134	1004.75	127.5
1009.4581	2829.2957	1007.05	128.6
1009.5764	2830.4567	1015.65	140.1
1009.6947	2831.617	1014.75	138.4
1009.813	2832.7767	1024.55	146.05
1009.9312	2833.9358	1020.35	144.7
1010.0493	2835.0941	1023.4	142.55
1010.1675	2836.2519	1016.1	139.9
1010.2855	2837.4089	1009.75	131.5
1010.4036	2838.5653	1009.5	130.95
1010.5216	2839.7211	1005.85	129.45
1010.6396	2840.8761	1006.65	124.95
1010.7575	2842.0306	995.9	119.05
1010.8754	2843.1843	999.4	121.65
1010.9932	2844.3374	1003.55	127.3
1011.111	2845.4899	1003.05	123.7
1011.2288	2846.6417	1007.95	131.25
1011.3465	2847.7928	1006.25	129.9
1011.4642	2848.9433	1006.8	128.95
1011.5818	2850.0931	1009.95	132.7
1011.6995	2851.2422	1011.8	130.15
1011.817	2852.3907	1014.65	134.75
1011.9345	2853.5385	1016.2	135.65
1012.052	2854.6857	1045.7	140.4
1012.1695	2855.8323	1016.45	140.25
1012.2869	2856.9781	1015.85	137.55
1012.4042	2858.1233	1022.55	143.8
1012.5216	2859.2679	1027.95	151.7
1012.6389	2860.4118	1033	154.9
1012.7561	2861.555	1041.3	158.2
1012.8733	2862.6976	1042	162.4
1012.9905	2863.8395	1038.05	160.7
1013.1076	2864.9808	1037.85	159.9
1013.2247	2866.1214	1042.3	166.75
1013.3417	2867.2614	1045.45	168.45
1013.4587	2868.4007	1043.1	163.6
1013.5757	2869.5393	1046.2	164.9
1013.6926	2870.6773	1049.8	169.95
1013.8095	2871.8146	1054.1	172.8
1013.9263	2872.9513	1051.75	169.85
1014.0431	2874.0874	1054.05	175.65
1014.1599	2875.2227	1057.1	178.5
1014.2766	2876.3574	1060.3	181.45
1014.3933	2877.4915	1058.85	182.65
1014.51	2878.6249	1062.7	186.15
1014.6266	2879.7577	1066.95	186.6
1014.7431	2880.8898	1073.7	186.45
1014.8596	2882.0212	1071.9	195.1
1014.9761	2883.152	1072.4	193.15
1015.0925	2884.2821	1072.15	194.8
1015.2089	2885.4116	1073.95	196.55
1015.3253	2886.5405	1080.35	204.55
1015.4416	2887.6686	1085.35	205.15
1015.5579	2888.7962	1081.25	205.25
1015.6741	2889.923	1081.7	205.25
1015.7903	2891.0493	1074.9	197.25
1015.9065	2892.1748	1081.75	203.75
1016.0226	2893.2997	1077.2	197.05
1016.1387	2894.424	1080.55	203.75
1016.2547	2895.5476	1079	202
1016.3707	2896.6706	1078.35	201.75
1016.4866	2897.7929	1083.25	204.4
1016.6025	2898.9145	1078.05	200.8
1016.7184	2900.0355	1078.8	200.55
1016.8342	2901.1559	1078.05	201.1
1016.95	2902.2756	1083.5	199.85
1017.0658	2903.3946	1078.4	201.35
1017.1815	2904.513	1077.8	198.65
1017.2971	2905.6308	1072.3	195.3
1017.4127	2906.7479	1076.05	198
1017.5283	2907.8643	1075.05	195.55
1017.6439	2908.9801	1076.3	199.9
1017.7594	2910.0953	1071.6	193.3
1017.8748	2911.2098	1082.85	204.45
1017.9902	2912.3236	1082.7	196.65
1018.1056	2913.4368	1077.45	197.55
1018.2209	2914.5494	1071.65	192.15
1018.3362	2915.6613	1073.2	188.65
1018.4515	2916.7725	1076.3	197.8
1018.5667	2917.8831	1066.1	188.65
1018.6819	2918.9931	1066.75	186.45
1018.797	2920.1024	1062	183.6
1018.9121	2921.211	1057.75	180.2
1019.0271	2922.319	1058	180.65
1019.1421	2923.4264	1051.15	173.5
1019.2571	2924.5331	1052.3	175.6
1019.372	2925.6391	1049.55	172.75
1019.4869	2926.7445	1048.4	171
1019.6017	2927.8493	1053	175.95
1019.7165	2928.9534	1052.7	175.1
1019.8313	2930.0569	1060.8	178.8
1019.946	2931.1597	1056.4	177.8
1020.0606	2932.2619	1056.75	178.6
1020.1753	2933.3634	1060.6	183.75
1020.2899	2934.4643	1066.95	182.7
1020.4044	2935.5645	1069.55	185.05
1020.5189	2936.6641	1069.55	187.75
1020.6334	2937.763	1062.6	184.85
1020.7478	2938.8613	1060.7	182.85
1020.8622	2939.959	1069.1	185.4
1020.9765	2941.056	1056.1	179.45
1021.0908	2942.1523	1053.5	174.3
1021.2051	2943.248	1044.5	166.45
1021.3193	2944.3431	1035.65	160
1021.4334	2945.4375	1023.7	145.85
1021.5476	2946.5313	1018.55	143.65
1021.6617	2947.6244	1012.75	133.55
1021.7757	2948.7169	1007.2	128.05
1021.8897	2949.8087	998.2	121.5
1022.0037	2950.8999	990.95	113.75
1022.1176	2951.9904	987.7	110.95
1022.2315	2953.0803	981.6	105.2
1022.3453	2954.1696	979.4	101.8
1022.4591	2955.2582	974.55	97.05
1022.5728	2956.3462	969.7	93.6
1022.6865	2957.4335	974.75	96.85
1022.8002	2958.5202	970.5	91.55
1022.9138	2959.6062	969	91.9
1023.0274	2960.6916	966.4	90.15
1023.141	2961.7764	969.85	91.05
1023.2545	2962.8605	968.35	90.45
1023.3679	2963.9439	969.7	92.9
1023.4813	2965.0267	972.9	93.7
1023.5947	2966.1089	990.55	90.15
1023.708	2967.1905	967	90.25
1023.8213	2968.2714	964.45	87.6
1023.9346	2969.3516	959.1	80.7
1024.0478	2970.4312	969.2	83.45
1024.1609	2971.5102	966	89.3
1024.274	2972.5885	963.6	87.45
1024.3871	2973.6662	968.6	86.35
1024.5002	2974.7432	963.25	86.7
1024.6132	2975.8196	967.1	90.2
1024.7261	2976.8954	959.2	82.8
1024.839	2977.9705	967.4	90.85
1024.9519	2979.045	965.85	90.15
1025.0647	2980.1188	967.2	90.35
1025.1775	2981.192	963.1	87.5
1025.2902	2982.2645	964.65	88.6
1025.4029	2983.3364	958.9	80.25
1025.5156	2984.4077	958.8	82.65
1025.6282	2985.4783	964.8	82.3
1025.7407	2986.5483	956.25	80.1
1025.8532	2987.6177	952	75.3
1025.9657	2988.6864	949.3	71.65
1026.0782	2989.7545	947.05	66.6
1026.1906	2990.8219	941.95	66.85
1026.3029	2991.8887	941.55	62.35
1026.4152	2992.9548	938.2	60.25
1026.5275	2994.0204	935.55	58.05
1026.6397	2995.0852	928.3	53.6
1026.7519	2996.1495	928.1	49.25
1026.864	2997.2131	928.9	52
1026.9761	2998.276	924.05	47
1027.0882	2999.3383	923.4	45.8
1027.2002	3000.4	921.4	42.8
1027.3122	3001.4611	916.8	38.3
1027.4241	3002.5215	915.35	37.4
1027.536	3003.5812	914.15	36.95
1027.6478	3004.6404	916.5	38.9
1027.7596	3005.6989	916.25	36.65
1027.8714	3006.7567	913.95	37.9
1027.9831	3007.8139	939.9	36.45
1028.0947	3008.8705	912.65	35.95
1028.2064	3009.9264	913.9	32.2
1028.3179	3010.9818	911.95	35.15
1028.4295	3012.0364	910.15	31.45
1028.541	3013.0905	907.6	31.1
1028.6524	3014.1439	908.35	30.15
1028.7638	3015.1966	905.5	28.35
1028.8752	3016.2487	904.95	29.85
1028.9865	3017.3002	913.25	29.2
1029.0978	3018.3511	904.9	30.15
1029.209	3019.4013	904.6	28.55
1029.3202	3020.4509	904.15	27.25
1029.4314	3021.4998	907.35	31.15
1029.5425	3022.5481	906.65	31.55
1029.6535	3023.5958	904.2	26.8
1029.7645	3024.6428	905.9	26.3
1029.8755	3025.6892	902.5	24.05
1029.9864	3026.735	906.7	29.8
1030.0973	3027.7802	905.25	28.55
1030.2082	3028.8247	907.15	29.45
1030.319	3029.8685	904.25	27.6
1030.4297	3030.9118	905.8	28.55
1030.5404	3031.9544	903.75	29
1030.6511	3032.9963	905	28.6
1030.7617	3034.0376	903.05	28
1030.8723	3035.0783	907.9	27.95
1030.9829	3036.1184	906.9	28.7
1031.0934	3037.1578	905.7	31.1
1031.2038	3038.1966	903.7	26.7
1031.3142	3039.2348	902.3	27.95
1031.4246	3040.2723	913.15	29.95
1031.5349	3041.3092	903.8	29.45
1031.6452	3042.3455	903.95	26.05
1031.7554	3043.3811	906.75	31.65
1031.8656	3044.4161	904.4	25.05
1031.9758	3045.4505	904.7	28.85
1032.0859	3046.4842	905.5	27.5
1032.1959	3047.5173	903.15	28.4
1032.3059	3048.5498	902.65	27.1
1032.4159	3049.5816	904.65	27.05
1032.5258	3050.6128	904.8	27.55
1032.6357	3051.6434	906.2	26.65
1032.7455	3052.6734	905.8	29.45
1032.8553	3053.7027	904.8	28.95
1032.9651	3054.7314	905.05	27.8
1033.0748	3055.7594	903.45	26.65
1033.1845	3056.7868	905.85	28.05
1033.2941	3057.8136	903.95	28.2
1033.4037	3058.8398	904.4	28.8
1033.5132	3059.8653	905.75	28.95
1033.6227	3060.8902	906.5	29.5
1033.7321	3061.9145	906.25	29.55
1033.8415	3062.9381	904.8	27.6
1033.9509	3063.9612	922.3	30.85
1034.0602	3064.9835	908.8	32.65
1034.1694	3066.0053	909	29.65
1034.2787	3067.0264	906.1	30
1034.3878	3068.0469	908.15	30.4
1034.497	3069.0668	908.9	29.65
1034.6061	3070.086	906.9	32.2
1034.7151	3071.1046	906.2	31.8
1034.8241	3072.1226	907.6	29.75
1034.9331	3073.1399	902.7	25.2
1035.042	3074.1567	903.9	27
1035.1508	3075.1727	906.45	28.25
1035.2597	3076.1882	905.75	28.3
1035.3684	3077.203	903.1	26.75
1035.4772	3078.2173	904.4	26.1
1035.5859	3079.2308	905.5	25.9
1035.6945	3080.2438	905.25	25.8
1035.8031	3081.2561	901.1	24.2
1035.9117	3082.2678	899.9	22.55
1036.0202	3083.2789	898.5	19.8
1036.1286	3084.2893	898	23.2
1036.2371	3085.2991	900.2	22.8
1036.3454	3086.3083	900.95	19.8
1036.4538	3087.3169	901.35	23.75
1036.562	3088.3248	900.55	22.35
1036.6703	3089.3321	897.85	20.35
1036.7785	3090.3388	896.4	20.95
1036.8866	3091.3449	896.9	17.25
1036.9948	3092.3503	899.8	21.7
1037.1028	3093.3551	895.8	19.05
1037.2108	3094.3593	896.65	19.2
1037.3188	3095.3629	896.5	19.9
1037.4267	3096.3658	899.6	21.65
1037.5346	3097.3681	895.95	20.25
1037.6425	3098.3698	897.25	20
1037.7503	3099.3708	897.8	20.3
1037.858	3100.3713	895.7	18.8
1037.9657	3101.3711	895.6	17
1038.0734	3102.3702	1030.65	16.8
1038.181	3103.3688	896.3	19.55
1038.2886	3104.3667	895.9	22.75
1038.3961	3105.364	893.8	17
1038.5036	3106.3607	894.55	16.55
1038.611	3107.3568	895.5	16.2
1038.7184	3108.3522	892.55	18.9
1038.8257	3109.347	893.1	17.1
1038.933	3110.3412	897.7	14.25
1039.0403	3111.3348	892.8	17.65
1039.1475	3112.3277	892.85	16.65
1039.2547	3113.32	891.15	16.7
1039.3618	3114.3117	895.3	18.6
1039.4689	3115.3028	893.95	18.9
1039.5759	3116.2932	894.6	15.55
1039.6829	3117.2831	899.75	18.2
1039.7898	3118.2723	892.75	15.4
1039.8967	3119.2608	889.75	11.4
1040.0035	3120.2488	890.5	14.7
1040.1103	3121.2361	887.9	11.9
1040.2171	3122.2229	890.75	14.45
1040.3238	3123.209	892.8	14.65
1040.4305	3124.1944	888.65	12.35
1040.5371	3125.1793	892.65	14.65
1040.6437	3126.1635	889.15	13.75
1040.7502	3127.1471	889.95	15.2
1040.8567	3128.1301	888.2	12.65
1040.9631	3129.1125	889.45	12.3
1041.0695	3130.0942	890.5	13.65
1041.1759	3131.0753	897.6	9.65
1041.2822	3132.0558	892	12.4
1041.3884	3133.0357	889.95	11.95
1041.4946	3134.015	890.15	10.9
1041.6008	3134.9936	893.45	14.9
1041.7069	3135.9716	909.35	13.55
1041.813	3136.949	887.55	12.05
1041.919	3137.9258	906.2	11.3
1042.025	3138.902	894	12.45
1042.1309	3139.8775	888.65	13.85
1042.2368	3140.8524	887.6	8.25
1042.3427	3141.8267	888.65	10.8
1042.4485	3142.8004	890.5	13
1042.5542	3143.7735	894.35	11.45
1042.6599	3144.7459	890.5	12.35
1042.7656	3145.7178	889.3	12.55
1042.8712	3146.689	889	12.55
1042.9768	3147.6596	889.35	11.6
1043.0823	3148.6295	888.5	12.05
1043.1878	3149.5989	889.1	10.6
1043.2932	3150.5676	886.45	12.5
1043.3986	3151.5357	885.35	11
1043.5039	3152.5032	886.6	9.35
1043.6092	3153.4701	887.5	11
1043.7145	3154.4364	890.95	14.5
1043.8197	3155.402	885.55	8.95
1043.9248	3156.367	888.6	9.75
1044.03	3157.3315	928.9	8.45
1044.135	3158.2952	887	10.1
1044.24	3159.2584	885.05	8.55
1044.345	3160.221	887.3	9.5
1044.4499	3161.1829	886.5	10.9
1044.5548	3162.1442	885.55	9.05
1044.6596	3163.105	886.8	8.55
1044.7644	3164.065	886	7.65
1044.8692	3165.0245	888	8.35
1044.9739	3165.9834	885.5	10.4
1045.0785	3166.9416	886.1	9.9
1045.1831	3167.8993	886.4	9.3
1045.2877	3168.8563	887.8	12
1045.3922	3169.8127	886.55	9.5
1045.4966	3170.7684	885.3	9.25
1045.6011	3171.7236	885.45	6.25
1045.7054	3172.6782	886.35	10.05
1045.8098	3173.6321	885.85	7.85
1045.914	3174.5854	889.35	7.6
1046.0183	3175.5381	886.35	9.85
1046.1224	3176.4902	886.15	10.85
1046.2266	3177.4417	885.3	10
1046.3307	3178.3926	885.25	10
1046.4347	3179.3428	882.7	8.05
1046.5387	3180.2924	883.45	6.3
1046.6427	3181.2415	886.9	10.5
1046.7466	3182.1899	887.55	10.45
1046.8504	3183.1377	884.85	9.9
1046.9542	3184.0848	888.95	11.7
1047.058	3185.0314	887.5	11.4
1047.1617	3185.9773	888.1	11.4
1047.2654	3186.9227	885.3	7.55
1047.369	3187.8674	885.15	9.7
1047.4726	3188.8115	888.9	8.55
1047.5761	3189.755	883.6	8
1047.6796	3190.6979	884.5	7.45
1047.783	3191.6402	884.9	10.9
1047.8864	3192.5818	883.95	8.05
1047.9898	3193.5229	911.85	9.05
1048.0931	3194.4633	885.25	8.8
1048.1963	3195.4031	886.7	10.15
1048.2995	3196.3423	885.75	9.55
1048.4027	3197.2809	885.25	8.4
1048.5058	3198.2189	884.75	6.3
1048.6089	3199.1563	889.05	6.7
1048.7119	3200.0931	881.95	7.15
1048.8148	3201.0292	884.7	11.45
1048.9178	3201.9648	883.15	9.7
1049.0206	3202.8997	889.35	10.25
1049.1235	3203.834	884.4	9.4
1049.2262	3204.7677	885.7	7.5
1049.329	3205.7008	887.2	10.65
1049.4317	3206.6333	882.35	9.3
1049.5343	3207.5652	883.9	5.5
1049.6369	3208.4964	884.05	6.95
1049.7394	3209.4271	882.85	8.85
1049.8419	3210.3571	884.15	7.7
1049.9444	3211.2865	884.35	8.05
1050.0468	3212.2154	882.25	4.25
1050.1491	3213.1436	886.55	7.1
1050.2514	3214.0712	889.1	8.45
1050.3537	3214.9982	884.8	9.5
1050.4559	3215.9246	884.15	7.15
1050.5581	3216.8503	882.7	8.3
1050.6602	3217.7755	885.05	8.8
1050.7623	3218.7001	881.15	7.1
1050.8643	3219.624	884.4	9.55
1050.9663	3220.5473	883.2	7.05
1051.0682	3221.4701	882.6	4.9
1051.1701	3222.3922	885.1	7.65
1051.2719	3223.3137	883.25	6
1051.3737	3224.2346	883.1	6.65
1051.4754	3225.1549	882.1	6.85
1051.5771	3226.0746	882.85	6.75
1051.6788	3226.9937	884.55	8.8
1051.7804	3227.9121	882.4	7.65
1051.8819	3228.83	883.7	8.55
1051.9834	3229.7473	881.35	6.15
1052.0849	3230.6639	881.4	5.45
1052.1863	3231.5799	882.6	6.55
1052.2876	3232.4954	884.7	9.2
1052.3889	3233.4102	883.65	6.6
1052.4902	3234.3244	883.95	7.9
1052.5914	3235.238	880.65	6.75
1052.6926	3236.151	905.95	5.75
1052.7937	3237.0634	883.35	8.8
1052.8948	3237.9752	884.05	8.4
1052.9958	3238.8864	884.4	7.35
1053.0968	3239.797	880.95	3.85
1053.1977	3240.7069	884.65	8.4
1053.2986	3241.6163	881.65	2.85
1053.3994	3242.5251	882.15	7.85
1053.5002	3243.4332	879.9	4.85
1053.6009	3244.3408	880.7	3.65
1053.7016	3245.2477	882.7	5.3
1053.8022	3246.154	881.45	3.85
1053.9028	3247.0598	882.7	6.1
1054.0034	3247.9649	883.1	5.85
1054.1039	3248.8694	882.35	5.15
1054.2043	3249.7733	881.6	4.7
1054.3047	3250.6766	882.7	5.95
1054.4051	3251.5793	882.7	5.7
1054.5054	3252.4814	882.05	7.65
1054.6056	3253.3829	880	3.3
1054.7058	3254.2838	880.95	4.15
1054.806	3255.1841	883.15	6.45
1054.9061	3256.0838	880.7	2.75
1055.0061	3256.9829	878.4	3.2
1055.1062	3257.8814	884.1	4.25
1055.2061	3258.7792	884.5	5.05
1055.306	3259.6765	882.85	5.8
1055.4059	3260.5731	880.6	6.1
1055.5057	3261.4692	883.2	7.45
1055.6055	3262.3647	882	5.55
1055.7052	3263.2595	882.5	6.35
1055.8049	3264.1538	879.5	0.9
1055.9045	3265.0474	881.85	5.45
1056.0041	3265.9404	881	5.8
1056.1036	3266.8329	880.35	4.85
1056.2031	3267.7247	891.35	7.35
1056.3025	3268.616	881.7	7.45
1056.4019	3269.5066	881.4	4.35
1056.5013	3270.3966	883.4	7.05
1056.6005	3271.286	880	5.7
