Software Version:	3.9.2.0
Unit SN:	10000200
Spectrometer SN:	6960
Date:	3/8/2024 12:21:55 PM
Data Line Index:	25
Spectral Points:	2048
Integration time (ms):	125
Averages:	20
Delay (ms):	30000
Sequence Number:	1
Processing:	dark subtract
Laser Power (mW):	300
Laser Current (mA):	823
Laser Diode Temp (C):	25
Laser Case Temp (C):	25.8
System Temp (C):	25.8
Spectrometer Temp (C):	23.7
CCD Temp (C):	-0.005
Secondary Temp (C):	20.01
Heatsink Temp (C):	20.983
CCDPCB Temp (C):	36.107
SecondaryPCB Temp (C):	28.615

Wavelength	RamanShift	Raw Counts	Dark Subtracted
787.061	30.1047	418.95	9.4
787.2016	32.3739	417.05	9.6
787.3422	34.6426	418.6	11.4
787.4828	36.9109	423.6	14.25
787.6235	39.1787	425.7	13.25
787.7642	41.4461	432.7	13.5
787.9049	43.7131	436.8	15.5
788.0456	45.9796	441.7	19
788.1863	48.2456	444.55	15.95
788.3271	50.5112	453.05	19.35
788.4679	52.7764	454.7	18.7
788.6087	55.0411	464.6	23
788.7496	57.3054	471.3	25.75
788.8904	59.5692	470.6	22.35
789.0313	61.8326	475.7	25.1
789.1722	64.0955	482.05	28.3
789.3132	66.3579	492.35	33.3
789.4541	68.6199	498.05	34
789.5951	70.8815	513.2	46.55
789.7361	73.1426	543.6	73.45
789.8771	75.4032	603.55	129.55
790.0181	77.6634	742.4	264.9
790.1592	79.9231	1082.15	597.85
790.3003	82.1824	1775.65	1279.6
790.4414	84.4412	2939.7	2422.9
790.5825	86.6995	4423.65	3875.6
790.7237	88.9574	5860.65	5292.65
790.8648	91.2148	6839.5	6256.95
791.006	93.4717	7264.95	6671.4
791.1472	95.7282	7329.75	6732.55
791.2885	97.9842	7281.2	6682.2
791.4297	100.2398	7094.5	6492.85
791.571	102.4949	6930.15	6326.7
791.7123	104.7495	6750.55	6143.95
791.8536	107.0036	6549.25	5940.85
791.9949	109.2573	6351.05	5743.95
792.1363	111.5105	6160.65	5548.6
792.2777	113.7632	5963.5	5350.2
792.4191	116.0154	5774.75	5149.65
792.5605	118.2672	5589.7	4969.4
792.7019	120.5185	5405.4	4785.9
792.8434	122.7693	5277.2	4652.2
792.9849	125.0197	5148.85	4521.25
793.1264	127.2696	5045.85	4414.3
793.2679	129.519	4981.65	4345.3
793.4094	131.7679	4903.05	4267.45
793.551	134.0163	4843.5	4206.05
793.6926	136.2642	4775.5	4136.85
793.8342	138.5117	4705	4052.65
793.9758	140.7587	4603.7	3958.4
794.1175	143.0052	4515.55	3864.95
794.2591	145.2512	4412.7	3762.35
794.4008	147.4967	4317.7	3667.65
794.5425	149.7417	4244	3591.2
794.6842	151.9863	4199.3	3538.75
794.826	154.2304	4187.45	3522.3
794.9677	156.4739	4165.7	3497
795.1095	158.717	4169.5	3502.75
795.2513	160.9596	4168.45	3494.45
795.3931	163.2017	4150.65	3472.85
795.535	165.4433	4122.45	3443.05
795.6768	167.6844	4063.2	3381.95
795.8187	169.925	3987.8	3305.75
795.9606	172.1651	3896.2	3212.95
796.1025	174.4047	3814.65	3125.2
796.2445	176.6439	3758.15	3069.05
796.3864	178.8825	3695.4	3005.75
796.5284	181.1206	3672.7	2973
796.6704	183.3582	3639	2937.15
796.8124	185.5954	3627.1	2923.65
796.9544	187.832	3627.45	2919.05
797.0965	190.0681	3613.45	2901.5
797.2386	192.3037	3625.9	2913.25
797.3806	194.5388	3639.95	2925.15
797.5228	196.7734	3648.95	2935.95
797.6649	199.0075	3673.4	2953.65
797.807	201.2411	3716.95	2998.85
797.9492	203.4742	3748.75	3026.2
798.0914	205.7068	3800.5	3072.55
798.2336	207.9389	3819.75	3096.15
798.3758	210.1704	3857.05	3140.25
798.518	212.4015	3871.4	3164.55
798.6603	214.632	3893.95	3190
798.8025	216.862	3914.35	3210.15
798.9448	219.0915	3926.8	3220.85
799.0871	221.3205	3969.95	3266.15
799.2294	223.549	3956.3	3253.75
799.3718	225.777	3948.75	3242.4
799.5141	228.0044	3933.05	3219
799.6565	230.2314	3918.7	3204.25
799.7989	232.4578	3897.6	3182.75
799.9413	234.6837	3889.15	3163
800.0837	236.909	3874	3144.95
800.2262	239.1339	3887.55	3135.8
800.3687	241.3582	3871.4	3131.3
800.5111	243.582	3887.45	3117.75
800.6536	245.8053	3880.65	3125.65
800.7961	248.0281	3881.8	3131.85
800.9387	250.2503	3906.4	3152
801.0812	252.472	3939.35	3185.35
801.2238	254.6932	3965.55	3211.1
801.3664	256.9139	3993.8	3239.2
801.509	259.134	4047.6	3286.7
801.6516	261.3536	4122.6	3367.55
801.7942	263.5727	4208.5	3449.95
801.9369	265.7912	4315	3553.5
802.0795	268.0092	4433.9	3672.65
802.2222	270.2267	4528.65	3768.65
802.3649	272.4436	4615.65	3854
802.5076	274.6601	4662.3	3891.7
802.6504	276.8759	4682.65	3917.65
802.7931	279.0913	4703.25	3933
802.9359	281.3061	4700	3932.7
803.0787	283.5204	4740.85	3968.15
803.2215	285.7341	4745.5	3971.15
803.3643	287.9473	4787.45	4012.15
803.5071	290.16	4778.45	4002.25
803.6499	292.3721	4749.05	3976.3
803.7928	294.5837	4713.65	3942.6
803.9357	296.7947	4703.65	3927.75
804.0786	299.0052	4732.9	3958.15
804.2215	301.2152	4710.5	3932.15
804.3644	303.4246	4691.85	3919.95
804.5074	305.6334	4643.55	3871.4
804.6503	307.8418	4573.1	3798.2
804.7933	310.0495	4486.3	3704.15
804.9363	312.2568	4382.6	3604.75
805.0793	314.4635	4263.75	3481.1
805.2223	316.6696	4166.6	3380
805.3653	318.8752	4071.55	3276.45
805.5084	321.0802	4010.8	3222.7
805.6514	323.2847	4016.7	3228.85
805.7945	325.4887	4018.95	3232.65
805.9376	327.692	4043.25	3249.4
806.0807	329.8949	4091.7	3297.25
806.2238	332.0972	4104.15	3312.4
806.367	334.2989	4098.6	3302.8
806.5101	336.5001	4050.25	3253
806.6533	338.7007	3995.8	3201.85
806.7965	340.9008	3925.9	3128.3
806.9397	343.1003	3855.05	3055.35
807.0829	345.2992	3787.65	2986.7
807.2261	347.4976	3729.9	2925.45
807.3693	349.6955	3677.75	2869.3
807.5126	351.8927	3660.75	2855.05
807.6559	354.0895	3630.6	2810.9
807.7991	356.2856	3607.15	2797.25
807.9424	358.4812	3584.7	2775.25
808.0857	360.6763	3579.35	2769.05
808.2291	362.8707	3566.95	2751.6
808.3724	365.0646	3592.95	2777.7
808.5158	367.258	3620.15	2801.75
808.6591	369.4508	3644.2	2821.25
808.8025	371.643	3691.6	2871.05
808.9459	373.8346	3740.4	2918.2
809.0893	376.0257	3779.6	2956
809.2327	378.2162	3816.35	2993.7
809.3762	380.4062	3826.6	3005.95
809.5196	382.5956	3797.6	2976.6
809.6631	384.7844	3739.9	2925.7
809.8066	386.9726	3678.25	2866.55
809.9501	389.1603	3623.9	2810.15
810.0936	391.3474	3630	2781
810.2371	393.5339	3618	2798.15
810.3806	395.7199	3627.85	2813.85
810.5241	397.9052	3670.95	2854.7
810.6677	400.09	3729.65	2911.3
810.8113	402.2743	3799.1	2980.75
810.9548	404.4579	3868.6	3047.7
811.0984	406.641	3965.1	3141.4
811.2421	408.8235	4015.75	3192.75
811.3857	411.0054	4079.6	3255.15
811.5293	413.1868	4127.15	3294.95
811.673	415.3675	4132	3297.25
811.8166	417.5477	4080.45	3246.25
811.9603	419.7273	4008.4	3171.55
812.104	421.9064	3949	3109.25
812.2477	424.0848	3900.35	3064.1
812.3914	426.2627	3819.25	2985.45
812.5351	428.4399	3731.1	2895.25
812.6788	430.6166	3652.35	2811.25
812.8226	432.7928	3566	2722.95
812.9663	434.9683	3482.45	2642.45
813.1101	437.1432	3436.2	2595.9
813.2539	439.3176	3398.9	2567.2
813.3977	441.4914	3357.05	2524.2
813.5415	443.6645	3356.05	2518.55
813.6853	445.8371	3345.1	2508.75
813.8291	448.0091	3338.9	2497.35
813.973	450.1806	3329.25	2491.05
814.1168	452.3514	3333.7	2497
814.2607	454.5216	3347.7	2499.65
814.4046	456.6913	3335.25	2492.7
814.5485	458.8603	3343.75	2502.6
814.6924	461.0288	3355.55	2519.8
814.8363	463.1967	3355.05	2518.65
814.9802	465.3639	3356.25	2515.05
815.1241	467.5306	3345.55	2505.9
815.2681	469.6967	3330.25	2491.1
815.412	471.8622	3310.6	2473.1
815.556	474.0271	3308.75	2467.3
815.7	476.1914	3327.95	2483.2
815.844	478.3551	3314.7	2470.7
815.988	480.5182	3329.55	2488.65
816.132	482.6807	3346.95	2507.05
816.276	484.8426	3375.5	2541.2
816.4201	487.0039	3468.6	2631.5
816.5641	489.1647	3561.4	2716.6
816.7082	491.3248	3638.75	2791.95
816.8522	493.4843	3668.5	2825.9
816.9963	495.6432	3656.05	2811.75
817.1404	497.8015	3622.65	2768
817.2845	499.9592	3557.3	2703.75
817.4286	502.1163	3475.9	2621.4
817.5727	504.2728	3381.55	2530.75
817.7168	506.4287	3333.05	2490.2
817.861	508.5839	3268.55	2423.05
818.0051	510.7386	3241.5	2393.3
818.1493	512.8927	3246.6	2393
818.2935	515.0461	3262.9	2407.4
818.4377	517.199	3317.85	2463.9
818.5818	519.3512	3376.9	2521.45
818.726	521.5029	3484	2624.1
818.8703	523.6539	3574.15	2719.9
819.0145	525.8043	3592.2	2738.2
819.1587	527.9541	3521.85	2661.05
819.303	530.1033	3436.4	2578.4
819.4472	532.2519	3361.65	2506
819.5915	534.3999	3325.9	2467.85
819.7357	536.5472	3310.65	2452.4
819.88	538.694	3320.35	2465.25
820.0243	540.8401	3342.6	2481.7
820.1686	542.9856	3378.2	2513.6
820.3129	545.1305	3395.15	2525.1
820.4572	547.2748	3396.95	2529.65
820.6016	549.4185	3416.45	2546
820.7459	551.5615	3408.95	2539.55
820.8902	553.704	3437.1	2569.6
821.0346	555.8458	3471.2	2607.05
821.1789	557.987	3524.65	2658.05
821.3233	560.1276	3605.6	2741.85
821.4677	562.2675	3706.55	2842.25
821.6121	564.4069	3829.15	2965.5
821.7565	566.5456	3941.95	3078.45
821.9009	568.6837	3963.9	3099.45
822.0453	570.8212	3829.45	2966.15
822.1897	572.958	3672.4	2806.1
822.3342	575.0942	3515.5	2650.7
822.4786	577.2299	3413.8	2551.95
822.6231	579.3648	3375.45	2518.85
822.7675	581.4992	3340.4	2489.1
822.912	583.6329	3365.55	2514.2
823.0565	585.766	3445.2	2591.75
823.201	587.8985	3505.4	2646.7
823.3454	590.0304	3585.9	2695
823.4899	592.1616	3597.7	2727.85
823.6345	594.2922	3560.85	2689.55
823.779	596.4222	3498.15	2624.65
823.9235	598.5515	3391.55	2517.65
824.068	600.6802	3323.9	2447.85
824.2126	602.8083	3264.35	2391.6
824.3571	604.9358	3256.1	2382.75
824.5017	607.0626	3258.2	2386
824.6462	609.1888	3300.1	2422.9
824.7908	611.3144	3347.35	2468
824.9354	613.4393	3421.65	2544.15
825.08	615.5636	3498.1	2619.8
825.2246	617.6873	3561.3	2686.65
825.3692	619.8103	3575.35	2697.1
825.5138	621.9327	3542.2	2663.05
825.6584	624.0544	3457.4	2585
825.803	626.1756	3386.85	2512.8
825.9477	628.2961	3308.95	2433.7
826.0923	630.4159	3294.3	2417.45
826.237	632.5351	3281.95	2403.65
826.3816	634.6537	3259.8	2378.65
826.5263	636.7716	3242.5	2361.15
826.6709	638.8889	3258.3	2373.9
826.8156	641.0056	3250.5	2367.8
826.9603	643.1216	3257.25	2372.05
827.105	645.237	3235.85	2352.5
827.2497	647.3518	3208.55	2330.55
827.3944	649.4659	3179.65	2303.7
827.5391	651.5793	3145.3	2270.1
827.6838	653.6922	3124.45	2248.65
827.8285	655.8043	3118.95	2239.25
827.9733	657.9159	3106.3	2221.75
828.118	660.0268	3094.95	2211.7
828.2627	662.137	3098.65	2217
828.4075	664.2466	3108.45	2221
828.5522	666.3556	3085.25	2196.6
828.697	668.4639	3081.8	2196.4
828.8418	670.5716	3063.1	2186.25
828.9865	672.6786	3056.4	2173.6
829.1313	674.785	3043.5	2155.35
829.2761	676.8907	3022.35	2137.55
829.4209	678.9958	3001.8	2118.25
829.5657	681.1002	3012.5	2128.3
829.7105	683.204	3012.2	2118
829.8553	685.3072	3004.15	2114.4
830.0001	687.4097	3014.9	2124.65
830.1449	689.5115	3021.4	2131.9
830.2898	691.6127	3021.25	2131.4
830.4346	693.7132	3008.6	2123.4
830.5794	695.8131	3023.4	2116
830.7243	697.9123	3040.45	2148.15
830.8691	700.0109	3044.1	2151.45
831.014	702.1089	3068.15	2178.2
831.1588	704.2061	3086.45	2196.95
831.3037	706.3028	3117.6	2227.95
831.4486	708.3987	3142.15	2251.35
831.5935	710.4941	3151.85	2261.5
831.7383	712.5887	3170.15	2279.6
831.8832	714.6827	3177	2279.5
832.0281	716.7761	3168.05	2278.6
832.173	718.8688	3182.45	2290.45
832.3179	720.9608	3192.8	2295.15
832.4628	723.0522	3239.4	2338.3
832.6077	725.1429	3280.7	2385.35
832.7527	727.233	3374.7	2478.5
832.8976	729.3224	3484.5	2592.95
833.0425	731.4112	3532.45	2637.4
833.1874	733.4993	3492.4	2597.15
833.3324	735.5867	3400.05	2504.15
833.4773	737.6735	3276.85	2382.65
833.6222	739.7596	3201.25	2308.25
833.7672	741.845	3144.65	2249.3
833.9122	743.9298	3115.95	2219.9
834.0571	746.014	3110.4	2214.55
834.2021	748.0974	3106.75	2207.65
834.347	750.1802	3093.75	2192.95
834.492	752.2624	3113.45	2215.35
834.637	754.3439	3098.15	2198.15
834.782	756.4247	3122.7	2215.55
834.9269	758.5048	3170	2272.35
835.0719	760.5843	3237.95	2339.05
835.2169	762.6631	3304.4	2405.3
835.3619	764.7413	3443.55	2546.7
835.5069	766.8188	3606.5	2705.3
835.6519	768.8956	3779.4	2878.75
835.7969	770.9718	3914.75	3015.5
835.9419	773.0473	3895.35	2996.55
836.0869	775.1221	3845.9	2946.95
836.232	777.1962	3838.6	2938.4
836.377	779.2697	3890.9	2988
836.522	781.3426	4018.95	3099.45
836.667	783.4147	4063.25	3162
836.8121	785.4862	4016.45	3114.05
836.9571	787.557	3865.9	2963.85
837.1021	789.6271	3671.9	2770.15
837.2472	791.6966	3493.6	2589.25
837.3922	793.7654	3306.15	2404.8
837.5373	795.8335	3186.1	2281.45
837.6823	797.901	3124.5	2223.7
837.8274	799.9678	3095.6	2189.55
837.9724	802.0339	3074.35	2173.6
838.1175	804.0993	3076.3	2165.3
838.2626	806.1641	3031.85	2126.25
838.4076	808.2282	3014.2	2111.25
838.5527	810.2916	2983.9	2075.9
838.6978	812.3544	2961.05	2062.9
838.8428	814.4164	2960.65	2058.15
838.9879	816.4778	2970.25	2064.1
839.133	818.5385	3006.6	2103.25
839.2781	820.5986	3056.65	2151.65
839.4232	822.658	3150.35	2244.9
839.5682	824.7166	3270.4	2361.15
839.7133	826.7747	3449.85	2544.75
839.8584	828.832	3623.8	2717.2
840.0035	830.8886	3760.05	2853.75
840.1486	832.9446	3802.75	2895
840.2937	834.9999	3724.45	2819.55
840.4388	837.0545	3585.15	2674.3
840.5839	839.1085	3444.75	2538.25
840.729	841.1618	3313.6	2402.2
840.8741	843.2143	3204.3	2296.85
841.0192	845.2662	3134.6	2226.25
841.1643	847.3175	3098.6	2188.5
841.3095	849.368	3066.9	2159.15
841.4546	851.4179	3057.65	2149.85
841.5997	853.467	3045.6	2136.95
841.7448	855.5155	3028.4	2119.75
841.8899	857.5633	3033.35	2125.25
842.0351	859.6105	3016.4	2105.15
842.1802	861.6569	3003.3	2093.8
842.3253	863.7027	2971.9	2064.15
842.4704	865.7478	2955.35	2046
842.6156	867.7922	2926.25	2017.75
842.7607	869.8359	2923.15	2012.65
842.9058	871.8789	2944.55	2031.1
843.0509	873.9212	2960.7	2017.8
843.1961	875.9629	2941.75	2030.6
843.3412	878.0039	2982.05	2071.1
843.4863	880.0441	2982.25	2073.25
843.6315	882.0837	3038.25	2127.4
843.7766	884.1226	3079.55	2168.5
843.9218	886.1609	3125.45	2216.35
844.0669	888.1984	3205.05	2294.9
844.212	890.2352	3284.75	2375
844.3572	892.2714	3279.6	2363.8
844.5023	894.3069	3244.2	2331.2
844.6475	896.3416	3170.25	2260.4
844.7926	898.3757	3106.25	2193.2
844.9377	900.4091	3071	2158
845.0829	902.4418	3068.05	2146.75
845.228	904.4739	3089.5	2176.8
845.3732	906.5052	3089.25	2176.55
845.5183	908.5358	3077.8	2165.35
845.6635	910.5658	3036.4	2120.2
845.8086	912.595	2966.65	2051.8
845.9538	914.6236	2910.4	1997.7
846.0989	916.6515	2864.35	1951.4
846.2441	918.6786	2827.1	1912.6
846.3892	920.7051	2814.55	1901.4
846.5344	922.7309	2826	1910.25
846.6795	924.756	2822.7	1911.3
846.8246	926.7804	2841.7	1924.95
846.9698	928.8041	2857.05	1939.25
847.1149	930.8272	2881.95	1966.7
847.2601	932.8495	2896.75	1981.95
847.4052	934.8711	2901.75	1983.7
847.5504	936.892	2923.5	2010.3
847.6955	938.9123	2937.2	2023.1
847.8407	940.9318	2979	2064.6
847.9858	942.9506	2974.9	2060.6
848.131	944.9688	2968.8	2055.85
848.2761	946.9862	2925.9	2011
848.4213	949.003	2864.9	1949.8
848.5664	951.019	2819.3	1904.4
848.7115	953.0344	2796.2	1881.75
848.8567	955.0491	2784.8	1868
849.0018	957.063	2773.2	1858.4
849.147	959.0763	2782.95	1867.45
849.2921	961.0888	2784.1	1866.3
849.4373	963.1007	2791.35	1878.75
849.5824	965.1119	2780.85	1874.1
849.7275	967.1223	2773.1	1867.65
849.8727	969.1321	2765.7	1863.85
850.0178	971.1412	2757.3	1847.8
850.1629	973.1495	2747.6	1835.7
850.3081	975.1572	2783.95	1836.5
850.4532	977.1641	2763.75	1849.3
850.5983	979.1704	2746.9	1831.45
850.7435	981.1759	2739.9	1823.3
850.8886	983.1808	2741.2	1824.85
851.0337	985.1849	2745.4	1820.75
851.1788	987.1884	2732.3	1811.85
851.324	989.1911	2735.85	1822.4
851.4691	991.1932	2751.3	1838.1
851.6142	993.1945	2759.6	1844.95
851.7593	995.1951	2751.15	1833.25
851.9045	997.1951	2736.6	1815
852.0496	999.1943	2735.1	1819
852.1947	1001.1928	2741.25	1824.75
852.3398	1003.1906	2771.35	1853.95
852.4849	1005.1877	2797.65	1878.95
852.63	1007.1841	2834.35	1916.65
852.7751	1009.1798	2845.6	1931.7
852.9202	1011.1748	2831.8	1916.15
853.0653	1013.1691	2799.4	1880.05
853.2104	1015.1627	2761.3	1849.3
853.3555	1017.1556	2689.8	1778.15
853.5006	1019.1477	2669.65	1755.25
853.6457	1021.1392	2629.7	1717.7
853.7908	1023.1299	2619.7	1712.8
853.9359	1025.12	2617.35	1711.35
854.081	1027.1093	2638.65	1739.05
854.2261	1029.0979	2674.05	1776.15
854.3712	1031.0859	2697.45	1795.7
854.5163	1033.0731	2725.5	1818.15
854.6613	1035.0596	2728.7	1819.8
854.8064	1037.0454	2704.15	1793.85
854.9515	1039.0304	2691.35	1777.75
855.0965	1041.0148	2636.65	1721.95
855.2416	1042.9985	2611.55	1694.75
855.3867	1044.9814	2615.65	1702.65
855.5317	1046.9636	2601.4	1684.2
855.6768	1048.9452	2603	1691.8
855.8219	1050.926	2626.2	1714.3
855.9669	1052.9061	2659.85	1746.3
856.112	1054.8855	2653.6	1739.75
856.257	1056.8642	2658.9	1745.5
856.4021	1058.8421	2663.05	1745.85
856.5471	1060.8194	2662.25	1747.7
856.6921	1062.7959	2669.1	1754.85
856.8372	1064.7717	2672.15	1756.65
856.9822	1066.7469	2674.65	1758.4
857.1272	1068.7213	2705.4	1788.8
857.2723	1070.695	2736.3	1819.65
857.4173	1072.6679	2766.5	1852.15
857.5623	1074.6402	2790.35	1875.15
857.7073	1076.6117	2795.75	1876.7
857.8523	1078.5826	2746.15	1829.05
857.9973	1080.5527	2691.45	1773.5
858.1423	1082.5221	2647	1732.45
858.2873	1084.4908	2616.15	1704.6
858.4323	1086.4587	2595	1677.75
858.5773	1088.426	2572.1	1655.4
858.7223	1090.3925	2580.45	1660.75
858.8673	1092.3584	2594.1	1678.05
859.0123	1094.3235	2625.3	1712.85
859.1573	1096.2879	2666.05	1751.35
859.3022	1098.2515	2715.8	1803.1
859.4472	1100.2145	2763	1849.35
859.5922	1102.1767	2842.15	1924.4
859.7371	1104.1382	2917.55	2002.2
859.8821	1106.099	3003.2	2089.1
860.027	1108.0591	3089.65	2173.2
860.172	1110.0185	3141.45	2222.6
860.3169	1111.9771	3216.05	2299.25
860.4619	1113.9351	3261.7	2348.4
860.6068	1115.8923	3327.1	2412.2
860.7517	1117.8488	3319.5	2401
860.8967	1119.8045	3222.8	2307.95
861.0416	1121.7596	3103.3	2187.25
861.1865	1123.7139	2992.15	2081.15
861.3314	1125.6675	2924.05	2011.6
861.4763	1127.6204	2917.65	2001.85
861.6212	1129.5726	2928.45	2014.45
861.7661	1131.524	2908.25	1994
861.911	1133.4748	2842.9	1930.25
862.0559	1135.4248	2757.85	1844
862.2008	1137.3741	2684.9	1771.2
862.3457	1139.3226	2655.95	1739
862.4905	1141.2705	2648.5	1733.65
862.6354	1143.2176	2649.05	1728.1
862.7803	1145.164	2647.1	1730.1
862.9251	1147.1097	2609.05	1694.25
863.07	1149.0546	2578.2	1662.8
863.2148	1150.9989	2553.05	1637.5
863.3597	1152.9424	2515.9	1600.3
863.5045	1154.8852	2498.6	1583.1
863.6493	1156.8272	2488.95	1572.85
863.7942	1158.7686	2516.75	1598.8
863.939	1160.7092	2511.7	1595.5
864.0838	1162.6491	2529.6	1613.6
864.2286	1164.5883	2553.9	1638.7
864.3734	1166.5267	2605.3	1689.5
864.5182	1168.4644	2646	1729.8
864.663	1170.4014	2712.45	1795.2
864.8078	1172.3377	2785.85	1873.55
864.9526	1174.2732	2908.85	1995.95
865.0974	1176.2081	3087	2175.9
865.2421	1178.1421	3286.6	2369.7
865.3869	1180.0755	3478.35	2567.6
865.5317	1182.0082	3561.8	2650.05
865.6764	1183.9401	3524.15	2609.75
865.8212	1185.8713	3371.85	2461.2
865.9659	1187.8017	3187.65	2281.9
866.1106	1189.7315	3031.75	2130.85
866.2554	1191.6605	2902	1999.8
866.4001	1193.5888	2813.2	1905.2
866.5448	1195.5163	2745.75	1836.9
866.6895	1197.4432	2710.45	1799.95
866.8342	1199.3693	2704	1791.2
866.9789	1201.2947	2683.65	1768.95
867.1236	1203.2193	2678.15	1768.35
867.2683	1205.1432	2651.25	1739.65
867.413	1207.0664	2660.15	1749.7
867.5576	1208.9889	2655.95	1742.8
867.7023	1210.9106	2651.35	1739.15
867.847	1212.8316	2663.8	1753.9
867.9916	1214.7519	2686.8	1765.65
868.1363	1216.6715	2711.25	1799.85
868.2809	1218.5903	2737.6	1826.05
868.4255	1220.5084	2771	1855.85
868.5701	1222.4257	2823.2	1912.1
868.7148	1224.3424	2839.9	1930.3
868.8594	1226.2583	2902.75	1984.6
869.004	1228.1735	2956.05	2042.95
869.1486	1230.0879	3034.05	2121
869.2932	1232.0016	3111	2197.85
869.4377	1233.9146	3188.15	2274.6
869.5823	1235.8269	3216.85	2305.95
869.7269	1237.7384	3256.85	2346.45
869.8715	1239.6492	3254.4	2343.3
870.016	1241.5592	3297.15	2385.65
870.1606	1243.4686	3382.3	2468.4
870.3051	1245.3772	3523.15	2610.35
870.4496	1247.285	3657.45	2745
870.5941	1249.1922	3802.05	2886.6
870.7387	1251.0986	3930.55	3018.6
870.8832	1253.0042	4051.4	3140.95
871.0277	1254.9092	4166.1	3254.1
871.1722	1256.8134	4267.15	3359.8
871.3167	1258.7169	4317.35	3403.25
871.4611	1260.6196	4320.8	3410.8
871.6056	1262.5216	4324.35	3412.75
871.7501	1264.4229	4292.7	3382.8
871.8945	1266.3234	4285.25	3371.85
872.039	1268.2232	4260.25	3347.95
872.1834	1270.1223	4237.4	3321.85
872.3278	1272.0207	4187.1	3278.1
872.4723	1273.9183	4182.55	3263.8
872.6167	1275.8151	4201.6	3292.4
872.7611	1277.7113	4294.9	3384.15
872.9055	1279.6067	4421.65	3510.65
873.0499	1281.5014	4640.15	3727.1
873.1943	1283.3953	4910.15	3997.2
873.3386	1285.2885	5169	4257.65
873.483	1287.181	5381.6	4471.45
873.6274	1289.0727	5488.65	4578.15
873.7717	1290.9637	5523.5	4613.85
873.9161	1292.854	5481.9	4569.25
874.0604	1294.7435	5375.55	4459.95
874.2047	1296.6323	5238.8	4328
874.349	1298.5204	5122.75	4207.6
874.4933	1300.4077	4973.05	4060.5
874.6376	1302.2943	4860.9	3947.75
874.7819	1304.1802	4760.35	3848.45
874.9262	1306.0653	4640.35	3730.15
875.0705	1307.9497	4501.75	3590.9
875.2147	1309.8333	4379.1	3468.35
875.359	1311.7162	4264.55	3352
875.5032	1313.5984	4192.9	3278.45
875.6475	1315.4798	4109.25	3198.5
875.7917	1317.3605	4081.25	3152.9
875.9359	1319.2405	4005.35	3092.6
876.0801	1321.1197	3920.4	3007.15
876.2243	1322.9982	3764.7	2847.8
876.3685	1324.876	3619.15	2707.3
876.5127	1326.753	3465.8	2555.15
876.6569	1328.6293	3345.45	2429.55
876.801	1330.5048	3242.1	2327.6
876.9452	1332.3796	3133.4	2224.95
877.0893	1334.2537	3081.05	2145.05
877.2335	1336.127	3007.6	2096.85
877.3776	1337.9996	2975.6	2063.95
877.5217	1339.8714	2940.75	2027.45
877.6658	1341.7426	2967.25	2013.95
877.8099	1343.6129	2922.2	2009.5
877.954	1345.4826	2902.7	1989.45
878.0981	1347.3515	2881.7	1968.35
878.2422	1349.2196	2859.55	1945.85
878.3862	1351.087	2857	1943.1
878.5303	1352.9537	2851.8	1937.15
878.6743	1354.8197	2869.8	1956.15
878.8184	1356.6849	2901.25	1988.3
878.9624	1358.5493	2946.9	2033.75
879.1064	1360.4131	3016.6	2105.35
879.2504	1362.276	3084.75	2173.85
879.3944	1364.1383	3127.55	2216.4
879.5384	1365.9998	3129.5	2212.45
879.6823	1367.8606	3090.3	2177
879.8263	1369.7206	3032.95	2119.05
879.9702	1371.5799	2983.4	2068.75
880.1142	1373.4384	2939.05	2027.5
880.2581	1375.2962	2875.8	1963.85
880.402	1377.1533	2786.25	1878.85
880.5459	1379.0096	2676.15	1766.9
880.6898	1380.8652	2595.1	1684.75
880.8337	1382.7201	2519.85	1609.15
880.9776	1384.5742	2468.75	1557.95
881.1215	1386.4275	2433.6	1521.05
881.2653	1388.2802	2387.9	1478.15
881.4092	1390.132	2369.15	1461.65
881.553	1391.9832	2351.8	1438.25
881.6968	1393.8336	2311.95	1401.8
881.8406	1395.6832	2314.95	1402.05
881.9844	1397.5322	2301.65	1388.45
882.1282	1399.3803	2284.7	1369.9
882.272	1401.2278	2267.9	1357.5
882.4158	1403.0745	2272.75	1361.3
882.5595	1404.9204	2239.95	1329.85
882.7033	1406.7656	2243.65	1331.05
882.847	1408.6101	2237.45	1325.15
882.9908	1410.4538	2242.4	1328.8
883.1345	1412.2968	2254.45	1343.6
883.2782	1414.139	2259.25	1348.6
883.4219	1415.9805	2266.65	1354.85
883.5656	1417.8213	2298.2	1381.35
883.7092	1419.6613	2320.4	1412.35
883.8529	1421.5006	2369.9	1458
883.9965	1423.3391	2411	1502.55
884.1402	1425.1769	2514.55	1601.7
884.2838	1427.0139	2647.3	1736.55
884.4274	1428.8502	2777.75	1865.35
884.571	1430.6858	2917.05	2006.2
884.7146	1432.5206	2981.05	2068.3
884.8582	1434.3547	2999.1	2089.05
885.0018	1436.188	2978.05	2069.8
885.1453	1438.0206	2952.4	2041.05
885.2889	1439.8524	2904.65	1994.45
885.4324	1441.6835	2915.4	2004.1
885.5759	1443.5139	2902.25	1987.65
885.7194	1445.3435	2892.55	1985
885.8629	1447.1724	2886.45	1981.3
886.0064	1449.0005	2887.65	1981.8
886.1499	1450.8279	2896.6	1985.55
886.2933	1452.6545	2874.95	1965.5
886.4368	1454.4804	2878.8	1971.9
886.5802	1456.3056	2882.8	1968.4
886.7237	1458.13	2857.2	1949.6
886.8671	1459.9536	2799.85	1891.95
887.0105	1461.7766	2739.95	1832.2
887.1539	1463.5987	2664.05	1756.3
887.2972	1465.4202	2593	1682.35
887.4406	1467.2409	2506.85	1597.15
887.584	1469.0608	2459.2	1553.4
887.7273	1470.88	2396.35	1488.45
887.8706	1472.6984	2349.9	1443.35
888.0139	1474.5161	2296.65	1387.15
888.1572	1476.3331	2282.55	1376.5
888.3005	1478.1493	2256.4	1350.55
888.4438	1479.9648	2255.6	1347.85
888.5871	1481.7795	2229.45	1323.1
888.7303	1483.5935	2240.75	1332.9
888.8736	1485.4067	2229.55	1320.35
889.0168	1487.2192	2227.3	1319.05
889.16	1489.031	2221.15	1309.75
889.3032	1490.842	2211.25	1303.45
889.4464	1492.6522	2211.8	1302.35
889.5896	1494.4618	2213.1	1305.3
889.7327	1496.2705	2198.55	1292.05
889.8759	1498.0785	2178.5	1271.9
890.019	1499.8858	2171.8	1261.4
890.1622	1501.6924	2149.85	1244.45
890.3053	1503.4981	2143.2	1235.35
890.4484	1505.3032	2138.35	1233.5
890.5914	1507.1075	2122.2	1213.65
890.7345	1508.911	2117	1208.8
890.8776	1510.7138	2091.6	1181.65
891.0206	1512.5159	2074.65	1167.65
891.1637	1514.3172	2072.2	1167.05
891.3067	1516.1178	2042.05	1136.1
891.4497	1517.9176	2046.05	1138.4
891.5927	1519.7166	2045.2	1137.8
891.7357	1521.515	2037.1	1125.05
891.8786	1523.3126	2024.05	1121.65
892.0216	1525.1094	2020.55	1113.4
892.1645	1526.9055	2010.2	1105
892.3074	1528.7008	2007.65	1101.15
892.4503	1530.4954	2008.4	1104.45
892.5932	1532.2893	1997.05	1095.35
892.7361	1534.0824	2001	1092.65
892.879	1535.8747	1993.45	1090.65
893.0218	1537.6663	1992.1	1088.1
893.1647	1539.4572	1995.85	1088.95
893.3075	1541.2473	1991.8	1086.4
893.4503	1543.0367	1996.05	1094.6
893.5931	1544.8253	2015	1104.7
893.7359	1546.6132	2030.35	1125.75
893.8787	1548.4003	2043.95	1131.45
894.0214	1550.1867	2072.65	1160.55
894.1642	1551.9723	2086.35	1178.95
894.3069	1553.7572	2124.1	1221.4
894.4496	1555.5414	2166.2	1266.45
894.5923	1557.3247	2234.4	1334.65
894.735	1559.1074	2302.45	1406.15
894.8777	1560.8893	2383.95	1483.85
895.0204	1562.6705	2443.6	1544
895.163	1564.4509	2474.6	1575.75
895.3056	1566.2305	2508.2	1610.3
895.4482	1568.0094	2512.15	1615.1
895.5908	1569.7876	2511.65	1612.85
895.7334	1571.565	2517.7	1618.15
895.876	1573.3417	2505.7	1603.4
896.0186	1575.1176	2527.7	1629.05
896.1611	1576.8928	2549.6	1653.95
896.3036	1578.6672	2587.95	1694.8
896.4461	1580.4409	2630.9	1736.8
896.5886	1582.2138	2702.45	1802.4
896.7311	1583.986	2766.85	1868.5
896.8736	1585.7575	2836.55	1940.9
897.0161	1587.5282	2888.2	1991.75
897.1585	1589.2981	2960.85	2066.55
897.3009	1591.0673	2997.9	2103.3
897.4433	1592.8358	3038.75	2142.15
897.5857	1594.6035	3068.45	2172.15
897.7281	1596.3704	3067.75	2170.45
897.8705	1598.1366	3076.2	2179.15
898.0128	1599.9021	3053.25	2157.15
898.1551	1601.6668	3053.65	2154.15
898.2975	1603.4308	3067.85	2169.25
898.4398	1605.194	3103.95	2204.05
898.5821	1606.9564	3176.15	2284.3
898.7243	1608.7182	3290.05	2397.85
898.8666	1610.4791	3438.75	2549.8
899.0088	1612.2394	3608.25	2719.8
899.1511	1613.9988	3759.85	2868.05
899.2933	1615.7576	3859.65	2966.2
899.4355	1617.5156	3881.35	2980.05
899.5776	1619.2728	3800.75	2901.65
899.7198	1621.0293	3654.7	2760.25
899.862	1622.785	3458.45	2561.5
900.0041	1624.54	3249.65	2355.8
900.1462	1626.2942	3052.65	2158.75
900.2883	1628.0477	2857	1962.1
900.4304	1629.8005	2716.05	1820.1
900.5725	1631.5525	2587.4	1694.8
900.7145	1633.3037	2494.55	1602.35
900.8566	1635.0542	2404.2	1512.45
900.9986	1636.804	2323.5	1430.3
901.1406	1638.553	2338.65	1369.75
901.2826	1640.3013	2226	1332.85
901.4245	1642.0488	2188	1292.55
901.5665	1643.7955	2165.1	1274.9
901.7085	1645.5416	2154.85	1263.65
901.8504	1647.2868	2140.95	1250
901.9923	1649.0313	2142.35	1249.45
902.1342	1650.7751	2152.8	1255.6
902.2761	1652.5181	2161.95	1271.2
902.4179	1654.2604	2169.35	1279.35
902.5598	1656.0019	2217.4	1324.95
902.7016	1657.7427	2271.7	1380
902.8434	1659.4828	2340.3	1446.3
902.9852	1661.222	2408	1511.7
903.127	1662.9606	2447.9	1556
903.2687	1664.6984	2438.95	1546.3
903.4105	1666.4354	2384.9	1491.05
903.5522	1668.1717	2276.75	1383.3
903.6939	1669.9072	2159.7	1266.9
903.8356	1671.642	2057.15	1162.2
903.9773	1673.3761	1970	1077.75
904.119	1675.1094	1907.95	1015.7
904.2606	1676.8419	1864.3	971.4
904.4022	1678.5737	1832.5	941.1
904.5439	1680.3048	1798.95	905.1
904.6855	1682.0351	1773.25	880.6
904.827	1683.7646	1758.55	863.2
904.9686	1685.4934	1735.5	845.95
905.1101	1687.2215	1726.4	835.3
905.2517	1688.9488	1714.35	823.4
905.3932	1690.6754	1695.4	803.75
905.5347	1692.4012	1687.2	797.2
905.6761	1694.1263	1678.7	788.35
905.8176	1695.8506	1668.6	777.9
905.9591	1697.5742	1659.6	767.2
906.1005	1699.297	1648	759.55
906.2419	1701.0191	1651.35	763.6
906.3833	1702.7404	1636.7	747.1
906.5246	1704.461	1631.15	737.35
906.666	1706.1808	1624.95	732.85
906.8073	1707.8999	1622.1	730.45
906.9487	1709.6182	1620.1	732.2
907.09	1711.3358	1611.05	723.25
907.2313	1713.0527	1608.5	721.7
907.3725	1714.7688	1604.8	710.65
907.5138	1716.4841	1596.65	704.25
907.655	1718.1987	1601.9	704.55
907.7962	1719.9126	1590.25	700.25
907.9374	1721.6257	1587.2	696.6
908.0786	1723.338	1586.35	699.55
908.2198	1725.0496	1577.4	690.15
908.3609	1726.7605	1589.05	699.65
908.502	1728.4706	1574.1	684.4
908.6431	1730.18	1572.65	680.55
908.7842	1731.8886	1580.15	690.95
908.9253	1733.5964	1582.2	674.45
909.0664	1735.3036	1564.2	673.2
909.2074	1737.0099	1554.05	666.3
909.3484	1738.7156	1549.5	663.2
909.4894	1740.4204	1552.65	660.15
909.6304	1742.1246	1550.05	661.3
909.7714	1743.8279	1542.6	653.65
909.9123	1745.5306	1543.25	655.8
910.0532	1747.2325	1538.4	650.45
910.1941	1748.9336	1541.5	653.6
910.335	1750.634	1537.7	647.05
910.4759	1752.3336	1531	639.75
910.6168	1754.0325	1529.85	643.65
910.7576	1755.7307	1525.1	637.15
910.8984	1757.4281	1528.7	641.35
911.0392	1759.1247	1536.1	638.95
911.18	1760.8206	1523.5	628.4
911.3208	1762.5158	1521.95	628
911.4615	1764.2102	1516.5	626.8
911.6022	1765.9039	1513.4	625.3
911.7429	1767.5968	1519.1	631.1
911.8836	1769.289	1500.2	613.7
912.0243	1770.9804	1500.45	612
912.1649	1772.6711	1511	619.65
912.3056	1774.361	1508.1	617.45
912.4462	1776.0502	1501.85	610.1
912.5868	1777.7386	1506.55	613.05
912.7274	1779.4263	1508.3	619.8
912.8679	1781.1132	1495.7	610.65
913.0084	1782.7994	1505.2	615.55
913.149	1784.4849	1486.85	602.1
913.2895	1786.1696	1511.25	604.95
913.4299	1787.8535	1495.15	610
913.5704	1789.5367	1488.9	602.95
913.7108	1791.2192	1486	599.1
913.8513	1792.9009	1506.25	592.45
913.9917	1794.5818	1488.75	598.5
914.132	1796.2621	1485.4	600.1
914.2724	1797.9415	1481.8	595.5
914.4128	1799.6202	1475.75	586.75
914.5531	1801.2982	1471.8	580.75
914.6934	1802.9755	1477.3	586.05
914.8337	1804.6519	1470.55	580.3
914.9739	1806.3277	1462.7	574.75
915.1142	1808.0027	1464.05	577.15
915.2544	1809.6769	1469.2	582.15
915.3946	1811.3504	1460.15	573.85
915.5348	1813.0231	1461.2	574
915.675	1814.6951	1460.5	573.25
915.8151	1816.3664	1462.4	573.55
915.9553	1818.0369	1462.45	573.8
916.0954	1819.7067	1456.85	567.7
916.2355	1821.3757	1465.45	574.35
916.3755	1823.044	1462.45	574.25
916.5156	1824.7115	1463.15	575.85
916.6556	1826.3783	1460.4	572.5
916.7956	1828.0443	1452.35	563.85
916.9356	1829.7096	1454.35	566.25
917.0756	1831.3741	1448.9	555.95
917.2155	1833.0379	1446.8	559.1
917.3555	1834.701	1447.05	559.15
917.4954	1836.3633	1444.05	556.55
917.6353	1838.0248	1448.6	561.65
917.7751	1839.6856	1443.2	556.25
917.915	1841.3457	1447.15	561.1
918.0548	1843.005	1439.65	552.25
918.1946	1844.6636	1446.7	559.85
918.3344	1846.3214	1436.1	547.7
918.4742	1847.9785	1438.2	551.85
918.6139	1849.6349	1442.95	553.95
918.7537	1851.2904	1445.5	546.45
918.8934	1852.9453	1443.8	555.2
919.0331	1854.5994	1438.1	546.5
919.1727	1856.2528	1441.75	547.75
919.3124	1857.9054	1435.35	549
919.452	1859.5572	1426.65	540
919.5916	1861.2083	1432.8	544.85
919.7312	1862.8587	1432.9	543.45
919.8708	1864.5084	1432.8	542.85
920.0103	1866.1572	1429.3	538.75
920.1498	1867.8054	1427.85	537.95
920.2893	1869.4528	1426	535.15
920.4288	1871.0994	1427.95	536.9
920.5683	1872.7453	1422.55	532.95
920.7077	1874.3905	1425.05	531.6
920.8471	1876.0349	1418.15	531.85
920.9865	1877.6786	1417.3	528.35
921.1259	1879.3215	1408.65	521.05
921.2653	1880.9637	1411.05	521.85
921.4046	1882.6051	1410.75	524.4
921.5439	1884.2458	1416.8	526.45
921.6832	1885.8858	1408.9	519.65
921.8225	1887.525	1413.95	525.55
921.9617	1889.1634	1410.3	521.1
922.101	1890.8011	1405.05	518.35
922.2402	1892.4381	1403.3	513.85
922.3794	1894.0743	1413.3	526.25
922.5185	1895.7098	1400.15	512.75
922.6577	1897.3446	1399.05	507.05
922.7968	1898.9786	1404.55	511.85
922.9359	1900.6118	1390.5	503.2
923.075	1902.2443	1404.8	512.85
923.214	1903.8761	1385	497.75
923.3531	1905.5071	1391.95	502
923.4921	1907.1374	1389.45	503.85
923.6311	1908.7669	1386.65	498.45
923.77	1910.3957	1387.6	500.8
923.909	1912.0237	1385.2	498.5
924.0479	1913.651	1383.3	494.7
924.1868	1915.2776	1376.8	491.55
924.3257	1916.9034	1372.4	487.4
924.4646	1918.5285	1375.55	489.2
924.6034	1920.1528	1377.05	489.35
924.7422	1921.7764	1374.6	488.1
924.881	1923.3992	1379.35	492.55
925.0198	1925.0213	1368.25	479.8
925.1586	1926.6427	1367.4	480.7
925.2973	1928.2633	1453.75	486.3
925.436	1929.8832	1369	480.15
925.5747	1931.5023	1365.3	477.2
925.7134	1933.1207	1362.8	475.2
925.852	1934.7383	1357.6	469.15
925.9906	1936.3552	1355.4	466.85
926.1292	1937.9714	1360.2	472.8
926.2678	1939.5868	1356	466.15
926.4064	1941.2015	1351.95	463.05
926.5449	1942.8154	1355.55	467.8
926.6834	1944.4286	1353.9	466.7
926.8219	1946.041	1364.55	456.8
926.9604	1947.6528	1349.65	453.5
927.0988	1949.2637	1344.05	456.5
927.2372	1950.8739	1343.5	457.6
927.3756	1952.4834	1341.75	454.4
927.514	1954.0921	1340.65	452.9
927.6523	1955.7001	1343.1	450.05
927.7907	1957.3074	1338.85	451.85
927.929	1958.9139	1331	446.7
928.0673	1960.5197	1336.75	447.8
928.2055	1962.1247	1330.55	444.3
928.3438	1963.729	1327.15	443.5
928.482	1965.3325	1336.6	444.85
928.6202	1966.9353	1329.2	443.5
928.7584	1968.5374	1325.1	437.25
928.8965	1970.1387	1327.9	442.75
929.0346	1971.7393	1327.35	441.6
929.1727	1973.3392	1322.95	437.55
929.3108	1974.9383	1318.25	434.3
929.4489	1976.5366	1315.35	428.85
929.5869	1978.1342	1319.75	433.75
929.7249	1979.7311	1318.6	433.3
929.8629	1981.3273	1317.9	432.1
930.0009	1982.9227	1310.6	423.85
930.1388	1984.5173	1308.05	424.9
930.2767	1986.1112	1311.2	428.1
930.4146	1987.7044	1314.3	431.05
930.5525	1989.2968	1308.2	422.25
930.6904	1990.8885	1310.5	421.95
930.8282	1992.4795	1311.8	426.95
930.966	1994.0697	1299.95	414.25
931.1038	1995.6592	1300.05	415.15
931.2415	1997.2479	1301.05	415.95
931.3793	1998.8359	1298.8	415.45
931.517	2000.4232	1298.95	420.55
931.6547	2002.0097	1290.3	410.55
931.7923	2003.5955	1287.95	405.7
931.93	2005.1805	1291.4	406.4
932.0676	2006.7648	1297.8	415.5
932.2052	2008.3484	1294.2	409.8
932.3427	2009.9312	1293.45	407.4
932.4803	2011.5133	1284.15	405.65
932.6178	2013.0946	1284	402
932.7553	2014.6752	1287.8	406.85
932.8928	2016.2551	1289.45	407.05
933.0302	2017.8342	1284.4	402.15
933.1676	2019.4126	1281.85	400.65
933.305	2020.9902	1276.95	397.3
933.4424	2022.5672	1282.35	401.35
933.5798	2024.1433	1283.25	396
933.7171	2025.7188	1281.1	400.1
933.8544	2027.2935	1275.55	392.45
933.9917	2028.8674	1273.85	394.3
934.129	2030.4406	1271.95	392.25
934.2662	2032.0131	1269.65	390.5
934.4034	2033.5849	1267.05	376.6
934.5406	2035.1559	1265.3	383.75
934.6778	2036.7261	1275.3	393.55
934.8149	2038.2957	1269.85	387.7
934.952	2039.8645	1269.65	386.15
935.0891	2041.4325	1274	386.9
935.2262	2042.9998	1269.95	386.9
935.3632	2044.5664	1266.15	382.8
935.5002	2046.1323	1263.9	383.2
935.6372	2047.6974	1262.4	380.1
935.7742	2049.2617	1258.55	377.85
935.9111	2050.8254	1266.3	380
936.048	2052.3883	1262.25	379.1
936.1849	2053.9504	1265.55	381.1
936.3218	2055.5118	1258.8	374.55
936.4586	2057.0725	1262.9	377.35
936.5955	2058.6325	1253.6	370.8
936.7323	2060.1917	1259	378.15
936.869	2061.7502	1255.95	371.85
937.0058	2063.3079	1250.7	368.55
937.1425	2064.8649	1254.45	371.35
937.2792	2066.4212	1259.2	376.2
937.4159	2067.9767	1248.1	364.5
937.5525	2069.5315	1246.55	363.6
937.6891	2071.0856	1248.05	364.35
937.8257	2072.6389	1250.65	364.7
937.9623	2074.1915	1239.9	358.55
938.0989	2075.7433	1241.05	358.5
938.2354	2077.2945	1241.6	362.25
938.3719	2078.8448	1243.35	359.5
938.5084	2080.3945	1235.1	353
938.6448	2081.9434	1241.05	357.9
938.7812	2083.4916	1235.95	349.85
938.9176	2085.039	1239	351.55
939.054	2086.5857	1236.05	347.6
939.1903	2088.1317	1245.05	356.85
939.3267	2089.677	1240.35	351.1
939.463	2091.2215	1239.95	353.7
939.5992	2092.7652	1240.45	350.8
939.7355	2094.3083	1234.6	347.6
939.8717	2095.8506	1234.4	346.35
940.0079	2097.3921	1233.15	349.5
940.1441	2098.933	1228.65	344.95
940.2802	2100.4731	1226.6	343.1
940.4163	2102.0124	1246.4	341.85
940.5524	2103.5511	1232.55	345.05
940.6885	2105.089	1231.3	345.45
940.8245	2106.6261	1228.9	344.9
940.9606	2108.1626	1232.15	347.25
941.0965	2109.6983	1254.35	342.75
941.2325	2111.2332	1224	339.4
941.3684	2112.7675	1219.5	333.55
941.5044	2114.301	1224.85	337.75
941.6403	2115.8337	1224.65	338.85
941.7761	2117.3657	1226.15	340.25
941.912	2118.897	1219.6	332.4
942.0478	2120.4276	1225	333.55
942.1835	2121.9575	1217.55	330.55
942.3193	2123.4866	1220.5	333.6
942.455	2125.0149	1214.45	325.25
942.5907	2126.5426	1213.6	330.2
942.7264	2128.0695	1217.6	330.1
942.8621	2129.5956	1206.65	323.65
942.9977	2131.1211	1212.25	323.85
943.1333	2132.6458	1214.05	329.45
943.2689	2134.1698	1213.25	329.2
943.4044	2135.693	1212.15	324
943.54	2137.2155	1215.2	325.1
943.6755	2138.7373	1214.1	329.4
943.8109	2140.2584	1201.45	317.85
943.9464	2141.7787	1213.4	324.8
944.0818	2143.2983	1208.25	325.55
944.2172	2144.8171	1202.5	321.5
944.3526	2146.3353	1201.7	319.3
944.4879	2147.8527	1204.05	322.75
944.6232	2149.3693	1205.15	321.9
944.7585	2150.8853	1204.75	316.9
944.8938	2152.4005	1202.65	314.2
945.029	2153.9149	1199.45	313.65
945.1642	2155.4287	1200.2	314.25
945.2994	2156.9417	1191.75	304.75
945.4346	2158.454	1201.95	316.65
945.5697	2159.9655	1192.15	307.55
945.7048	2161.4764	1198.5	313.2
945.8399	2162.9865	1194.25	311.1
945.9749	2164.4958	1196.1	311.45
946.1099	2166.0045	1203.05	316.3
946.2449	2167.5124	1196.75	313.75
946.3799	2169.0195	1188.55	305.8
946.5148	2170.526	1192.35	305.2
946.6498	2172.0317	1192.25	306.65
946.7846	2173.5367	1194.65	309.05
946.9195	2175.0409	1187.8	304.25
947.0543	2176.5445	1186.3	300.45
947.1891	2178.0473	1187	300.95
947.3239	2179.5494	1191.9	301.25
947.4587	2181.0507	1190.4	305.7
947.5934	2182.5513	1189.95	303.75
947.7281	2184.0512	1190.9	306.5
947.8628	2185.5504	1180.05	294.3
947.9974	2187.0488	1182.7	298.65
948.132	2188.5465	1178	292.15
948.2666	2190.0435	1181.15	297.1
948.4012	2191.5397	1176.15	291
948.5357	2193.0353	1178.45	293.9
948.6702	2194.5301	1178.35	290.8
948.8047	2196.0241	1174.7	286.7
948.9392	2197.5175	1181.9	292.45
949.0736	2199.0101	1183.35	291.35
949.208	2200.502	1177.65	293.5
949.3424	2201.9931	1170.6	285.25
949.4767	2203.4835	1175.05	291.55
949.611	2204.9733	1192.2	293.4
949.7453	2206.4622	1171.3	287.85
949.8796	2207.9505	1169.55	282.45
950.0138	2209.438	1164.35	283.35
950.148	2210.9248	1170.7	283.65
950.2822	2212.4109	1165.75	282.55
950.4164	2213.8962	1172.3	280.65
950.5505	2215.3809	1166.65	279.9
950.6846	2216.8648	1166.4	276.25
950.8186	2218.3479	1172.85	280.15
950.9527	2219.8304	1171.9	280.75
951.0867	2221.3121	1166.95	277.85
951.2207	2222.7931	1162.95	274.6
951.3546	2224.2733	1158.35	271.2
951.4886	2225.7529	1158.25	269.7
951.6225	2227.2317	1159.2	272
951.7563	2228.7098	1155.05	271.9
951.8902	2230.1872	1153.55	270.45
952.024	2231.6638	1159.35	275.9
952.1578	2233.1397	1158.95	270.5
952.2916	2234.6149	1152.3	269.1
952.4253	2236.0894	1158.5	270.8
952.559	2237.5632	1159	263
952.6927	2239.0362	1151.75	266.35
952.8263	2240.5085	1150.55	265.4
952.9599	2241.9801	1147.2	260.6
953.0935	2243.4509	1151.95	263.2
953.2271	2244.921	1154.2	267.6
953.3606	2246.3904	1151.35	261.9
953.4941	2247.8591	1150.05	263.5
953.6276	2249.3271	1147.8	263.2
953.7611	2250.7943	1147.1	258.6
953.8945	2252.2608	1146.05	260.05
954.0279	2253.7266	1142.7	256.15
954.1612	2255.1917	1136.8	250.05
954.2946	2256.656	1140.1	253.9
954.4279	2258.1197	1140.25	253.8
954.5612	2259.5826	1145.5	257.45
954.6944	2261.0447	1146.85	258.8
954.8276	2262.5062	1134.5	245.85
954.9608	2263.9669	1139.75	251.25
955.094	2265.4269	1140.4	253.5
955.2271	2266.8862	1141.15	257.1
955.3602	2268.3448	1139.05	252.05
955.4933	2269.8026	1135.25	252
955.6264	2271.2598	1133	248.85
955.7594	2272.7162	1133.6	246.85
955.8924	2274.1719	1135.8	248.45
956.0253	2275.6268	1134.1	248.55
956.1583	2277.0811	1138.3	251.15
956.2912	2278.5346	1131.25	245.65
956.4241	2279.9874	1135.4	249.65
956.5569	2281.4395	1135.3	251.7
956.6897	2282.8908	1135.85	247.95
956.8225	2284.3414	1134.3	245.85
956.9553	2285.7914	1129.55	245.15
957.088	2287.2406	1130.95	244.05
957.2207	2288.689	1124.95	239.6
957.3534	2290.1368	1129	240.25
957.486	2291.5838	1129.4	237.05
957.6186	2293.0302	1131.35	240.5
957.7512	2294.4758	1128	238
957.8838	2295.9206	1128.7	241
958.0163	2297.3648	1124.4	237.3
958.1488	2298.8082	1132.05	245
958.2813	2300.251	1123.85	233.85
958.4137	2301.693	1131.5	242.5
958.5461	2303.1343	1121.3	232.7
958.6785	2304.5748	1121.25	236.75
958.8108	2306.0147	1118	229.8
958.9432	2307.4538	1124.75	238.65
959.0754	2308.8922	1117.3	233.8
959.2077	2310.3299	1125.35	240.9
959.3399	2311.7669	1117.7	234.05
959.4721	2313.2031	1122.45	234.65
959.6043	2314.6387	1119	232.6
959.7365	2316.0735	1115.1	228.75
959.8686	2317.5076	1110.45	223.9
960.0006	2318.941	1121.7	233.7
960.1327	2320.3737	1117.75	230.75
960.2647	2321.8056	1121.6	230.75
960.3967	2323.2369	1112.95	226.15
960.5287	2324.6674	1115.75	225.5
960.6606	2326.0972	1114	226.3
960.7925	2327.5263	1117.75	231.95
960.9244	2328.9547	1115.6	227.95
961.0562	2330.3823	1117.3	230.1
961.1881	2331.8092	1121.3	228.95
961.3198	2333.2355	1115.75	227.2
961.4516	2334.661	1109.35	221.7
961.5833	2336.0858	1111.7	221.8
961.715	2337.5098	1106.35	220.1
961.8467	2338.9332	1105.35	216.5
961.9783	2340.3558	1115.15	225.5
962.1099	2341.7778	1101.9	215
962.2415	2343.199	1108.25	220.15
962.373	2344.6195	1105.6	221.65
962.5045	2346.0393	1105.75	218.8
962.636	2347.4583	1105.5	218.3
962.7675	2348.8767	1102.3	213.9
962.8989	2350.2943	1108.5	220.95
963.0303	2351.7113	1107.55	217.1
963.1617	2353.1275	1108.05	218.45
963.293	2354.543	1115.85	218.2
963.4243	2355.9578	1107.7	219.05
963.5556	2357.3718	1099.05	212.65
963.6868	2358.7852	1101.75	214.35
963.818	2360.1978	1103.55	216.95
963.9492	2361.6098	1098.4	213.05
964.0803	2363.021	1106.3	213
964.2114	2364.4315	1101.9	215.35
964.3425	2365.8413	1100.1	211.1
964.4736	2367.2504	1098	212.2
964.6046	2368.6587	1095.55	211.75
964.7356	2370.0664	1096.8	210.5
964.8666	2371.4733	1096.35	206.1
964.9975	2372.8795	1097.75	208.5
965.1284	2374.285	1099	209
965.2593	2375.6899	1096.9	212.1
965.3901	2377.0939	1093.5	209
965.5209	2378.4973	1096.1	209.4
965.6517	2379.9	1092.85	206.55
965.7825	2381.3019	1088.8	198.5
965.9132	2382.7032	1090.1	205.7
966.0439	2384.1037	1085.45	200.85
966.1745	2385.5035	1088.05	203.55
966.3051	2386.9027	1084.85	200.15
966.4357	2388.3011	1087.45	197.9
966.5663	2389.6987	1089.5	203.95
966.6968	2391.0957	1087.05	203.1
966.8273	2392.492	1084.9	200.55
966.9578	2393.8876	1083.05	198.55
967.0882	2395.2824	1087.15	200.95
967.2186	2396.6765	1079	193.35
967.349	2398.07	1084.1	198.7
967.4793	2399.4627	1085.2	196.65
967.6097	2400.8547	1085.1	197.15
967.7399	2402.246	1093.6	200.9
967.8702	2403.6366	1083.45	196.5
968.0004	2405.0265	1075.95	192.1
968.1306	2406.4156	1082.15	192.3
968.2607	2407.8041	1082.3	193.4
968.3909	2409.1918	1079.65	190.75
968.521	2410.5789	1077	188
968.651	2411.9652	1077.8	188.3
968.781	2413.3508	1077.65	189.3
968.911	2414.7358	1076.9	188.75
969.041	2416.12	1080.55	193.85
969.1709	2417.5035	1074.95	188
969.3008	2418.8863	1077.4	189.45
969.4307	2420.2684	1075.65	188.2
969.5606	2421.6497	1073.3	186.55
969.6904	2423.0304	1072.2	185.1
969.8201	2424.4104	1075.3	185.65
969.9499	2425.7896	1078.5	185.2
970.0796	2427.1682	1073.75	187.4
970.2093	2428.546	1069.9	183.3
970.3389	2429.9232	1074.95	186.4
970.4685	2431.2996	1072.2	186
970.5981	2432.6753	1067	181
970.7277	2434.0503	1072.05	183.1
970.8572	2435.4246	1068.7	181.6
970.9867	2436.7982	1072.85	182.25
971.1161	2438.1711	1069	181.9
971.2456	2439.5433	1065.6	176.9
971.375	2440.9148	1069.45	176
971.5043	2442.2856	1069.05	184.55
971.6336	2443.6557	1068.95	179.9
971.7629	2445.025	1061.95	174.25
971.8922	2446.3937	1062	175.55
972.0214	2447.7617	1061.9	174.6
972.1506	2449.1289	1062.35	174.3
972.2798	2450.4955	1063.2	172.85
972.4089	2451.8613	1058.55	172.15
972.538	2453.2265	1062.2	174.05
972.6671	2454.5909	1066.5	178.7
972.7961	2455.9546	1059.9	173.85
972.9251	2457.3177	1056.2	169.8
973.0541	2458.68	1060.75	173.2
973.1831	2460.0416	1062	174.45
973.312	2461.4025	1060.95	173.05
973.4408	2462.7627	1073.05	176.2
973.5697	2464.1222	1058.3	172.75
973.6985	2465.4811	1058.5	172.65
973.8273	2466.8392	1057	170
973.956	2468.1966	1064.85	176.4
974.0847	2469.5533	1064.65	175.95
974.2134	2470.9093	1056.35	170
974.3421	2472.2645	1061.1	171.65
974.4707	2473.6191	1053.85	169.6
974.5993	2474.973	1057.3	172
974.7278	2476.3262	1059.25	169.7
974.8563	2477.6787	1058.8	172.5
974.9848	2479.0305	1056.1	168.7
975.1132	2480.3816	1056.3	168.7
975.2417	2481.7319	1057.6	171.5
975.37	2483.0816	1054	165.3
975.4984	2484.4306	1057	171.85
975.6267	2485.7789	1054.4	168.2
975.755	2487.1264	1055.9	167.95
975.8833	2488.4733	1051.15	165.65
976.0115	2489.8195	1069	164.75
976.1397	2491.165	1061.3	172.2
976.2678	2492.5097	1052	164.35
976.3959	2493.8538	1047.25	163.45
976.524	2495.1972	1051.55	166.35
976.6521	2496.5398	1053.45	165.65
976.7801	2497.8818	1056.55	166.45
976.9081	2499.2231	1046.35	158
977.036	2500.5637	1049.4	159.8
977.164	2501.9035	1056.85	169.1
977.2918	2503.2427	1053.85	163.4
977.4197	2504.5812	1047.25	161.3
977.5475	2505.919	1050.85	162.7
977.6753	2507.256	1046.65	160.95
977.8031	2508.5924	1046.05	158.8
977.9308	2509.9281	1051.5	160.9
978.0585	2511.2631	1047.9	163.45
978.1861	2512.5974	1046.75	159.1
978.3137	2513.9309	1045.3	158.85
978.4413	2515.2638	1075.9	158.6
978.5689	2516.596	1043.85	157.7
978.6964	2517.9275	1042.25	155.3
978.8239	2519.2583	1044.55	158.35
978.9513	2520.5884	1045.6	155.05
979.0788	2521.9178	1042.8	156.25
979.2062	2523.2465	1043.5	158.55
979.3335	2524.5745	1041.7	157.2
979.4608	2525.9018	1038.85	153.4
979.5881	2527.2284	1034.5	149.5
979.7154	2528.5543	1039.25	154.85
979.8426	2529.8796	1041.55	153.15
979.9698	2531.2041	1038.75	154.05
980.0969	2532.5279	1040.3	156.65
980.224	2533.851	1038.4	153.55
980.3511	2535.1735	1040.5	153.2
980.4781	2536.4952	1038.95	151.8
980.6052	2537.8163	1036.1	148.2
980.7321	2539.1366	1035.2	150.5
980.8591	2540.4562	1036.75	148.2
980.986	2541.7752	1038.45	152.2
981.1129	2543.0935	1038	150.1
981.2397	2544.411	1041.75	152.45
981.3665	2545.7279	1035.5	150.1
981.4933	2547.0441	1035.55	148.05
981.62	2548.3596	1037.4	148.25
981.7467	2549.6744	1041.75	156.05
981.8734	2550.9885	1043.4	150.2
982.0001	2552.3019	1038.45	152
982.1267	2553.6146	1037.05	149.2
982.2532	2554.9266	1031.6	143.2
982.3798	2556.2379	1033.2	145.85
982.5063	2557.5485	1028.4	142.5
982.6327	2558.8585	1040.4	146.7
982.7592	2560.1677	1034.75	145.6
982.8856	2561.4762	1037.5	149.25
983.0119	2562.7841	1034.25	143.6
983.1383	2564.0913	1034	148.1
983.2646	2565.3977	1028.7	145.35
983.3908	2566.7035	1035.1	148.7
983.517	2568.0086	1031.35	143.65
983.6432	2569.313	1031.95	146
983.7694	2570.6167	1034.7	144.55
983.8955	2571.9197	1031.8	146
984.0216	2573.222	1034.4	140.8
984.1476	2574.5236	1032.95	145.1
984.2737	2575.8246	1029.55	139.65
984.3996	2577.1248	1029.5	139.3
984.5256	2578.4244	1030.85	143.7
984.6515	2579.7232	1032.3	145.95
984.7774	2581.0214	1057.8	142.35
984.9032	2582.3189	1029.75	144.5
985.029	2583.6157	1030.35	139.95
985.1548	2584.9118	1032.3	147.7
985.2806	2586.2072	1033.8	149.65
985.4063	2587.5019	1030.25	144.95
985.5319	2588.7959	1034.1	145.3
985.6576	2590.0893	1034.7	147.45
985.7832	2591.3819	1033.4	147.45
985.9087	2592.6739	1027.5	141
986.0343	2593.9652	1032.2	146.05
986.1597	2595.2557	1029.2	144.3
986.2852	2596.5456	1037.95	149.75
986.4106	2597.8348	1033.2	149.65
986.536	2599.1234	1030.65	143.15
986.6614	2600.4112	1033.55	146.85
986.7867	2601.6983	1033.65	145.05
986.912	2602.9848	1030.55	144.75
987.0372	2604.2705	1037.1	144.25
987.1624	2605.5556	1032.35	146.2
987.2876	2606.84	1030.8	145.75
987.4128	2608.1237	1028.5	143.15
987.5379	2609.4067	1027.1	141.3
987.6629	2610.689	1035.4	141.3
987.788	2611.9707	1033.2	144.85
987.913	2613.2516	1031.75	141.4
988.0379	2614.5319	1022.8	138.05
988.1629	2615.8115	1023.4	137.5
988.2878	2617.0903	1029.05	143.65
988.4126	2618.3685	1022.9	139.65
988.5375	2619.6461	1023.85	137.8
988.6622	2620.9229	1022.45	137.65
988.787	2622.199	1021.9	136.5
988.9117	2623.4745	1021.5	137.05
989.0364	2624.7493	1025.45	139.25
989.161	2626.0234	1018.9	134.1
989.2857	2627.2968	1020.75	135.5
989.4102	2628.5695	1019.3	133.05
989.5348	2629.8415	1019.3	134.5
989.6593	2631.1128	1022.65	135.95
989.7837	2632.3835	1015.4	129.05
989.9082	2633.6535	1016.55	134.75
990.0326	2634.9228	1017.5	133.2
990.1569	2636.1914	1017.4	134.25
990.2812	2637.4593	1021.9	137.85
990.4055	2638.7265	1021.35	135.95
990.5298	2639.9931	1015.2	131.35
990.654	2641.259	1018.05	131.55
990.7782	2642.5242	1015	129.1
990.9023	2643.7887	1013.1	129.5
991.0264	2645.0525	1017.4	133.5
991.1505	2646.3156	1018.05	130.9
991.2745	2647.5781	1013.7	129.9
991.3985	2648.8398	1014.55	130.5
991.5225	2650.1009	1049.6	123.7
991.6464	2651.3613	1011.7	127.45
991.7703	2652.6211	1011.7	126.55
991.8942	2653.8801	1009.3	127.05
992.018	2655.1385	1014.1	127.75
992.1418	2656.3961	1010.25	127.7
992.2655	2657.6531	1010.3	125.1
992.3892	2658.9094	1009.85	125.3
992.5129	2660.1651	1013.9	129.65
992.6366	2661.42	1012.8	130.35
992.7602	2662.6743	1014.45	128.5
992.8837	2663.9279	1015.4	130.85
993.0073	2665.1808	1015.25	131.05
993.1307	2666.433	1010.75	122.65
993.2542	2667.6846	1013	128.65
993.3776	2668.9354	1015.4	126.85
993.501	2670.1856	1017.2	130.95
993.6244	2671.4351	1016.45	134.55
993.7477	2672.6839	1018.55	133.15
993.8709	2673.9321	1016.2	132.75
993.9942	2675.1795	1018.65	135.55
994.1174	2676.4263	1014.9	129.65
994.2405	2677.6724	1017.3	136.75
994.3637	2678.9179	1018.65	132.5
994.4868	2680.1626	1015.3	131.05
994.6098	2681.4067	1015.15	132.95
994.7328	2682.6501	1012.45	127.75
994.8558	2683.8928	1014.2	130.05
994.9788	2685.1348	1015.95	132.6
995.1017	2686.3761	1009.75	126.6
995.2245	2687.6168	1010	126.95
995.3474	2688.8568	1011.4	127.55
995.4702	2690.0961	1004.45	119.95
995.5929	2691.3348	1009.5	125.35
995.7156	2692.5727	1006.25	119.65
995.8383	2693.81	1008.6	125.45
995.961	2695.0466	1007.3	124.55
996.0836	2696.2826	1009.85	126.2
996.2062	2697.5178	1028.55	124.6
996.3287	2698.7524	1008.9	124.7
996.4512	2699.9863	1014.45	129.95
996.5737	2701.2195	1007.55	124.25
996.6961	2702.452	1012.45	125.2
996.8185	2703.6839	1013.05	127.3
996.9408	2704.9151	1011.3	128.1
997.0631	2706.1456	1009.7	126.5
997.1854	2707.3755	1017	133.85
997.3077	2708.6046	1016.65	130.9
997.4299	2709.8331	1017.9	133.25
997.552	2711.0609	1019.65	133.45
997.6742	2712.2881	1020.75	136.1
997.7963	2713.5145	1024.8	137.8
997.9183	2714.7403	1019.5	137.7
998.0403	2715.9654	1022.1	136.45
998.1623	2717.1899	1038.5	139.7
998.2842	2718.4136	1026.25	142.85
998.4062	2719.6367	1028.65	144.1
998.528	2720.8591	1038.5	147.75
998.6498	2722.0809	1032.95	148.25
998.7716	2723.3019	1039.7	151.55
998.8934	2724.5223	1040.75	155.25
999.0151	2725.7421	1038.2	151.75
999.1368	2726.9611	1035.4	151
999.2584	2728.1795	1040.45	152.7
999.38	2729.3972	1032.85	149.3
999.5016	2730.6142	1035.35	146.25
999.6231	2731.8306	1025.55	139.9
999.7446	2733.0462	1024.6	140.75
999.8661	2734.2612	1027.5	138.6
999.9875	2735.4756	1017.25	132.1
1000.1089	2736.6892	1017.7	133.65
1000.2302	2737.9022	1010.3	126.45
1000.3515	2739.1145	1013.3	129.1
1000.4728	2740.3262	1017.25	125.9
1000.594	2741.5372	1007.1	122.65
1000.7152	2742.7475	1006.3	122.8
1000.8363	2743.9571	1005.25	119.35
1000.9575	2745.1661	1008.25	119.6
1001.0785	2746.3744	1001.2	117
1001.1996	2747.582	998.65	115.65
1001.3206	2748.7889	998.75	114.05
1001.4415	2749.9952	993.8	111.05
1001.5625	2751.2008	998.3	113.8
1001.6833	2752.4057	997.15	113
1001.8042	2753.61	996.85	113.3
1001.925	2754.8136	994.45	109.6
1002.0458	2756.0165	991.45	106.75
1002.1665	2757.2188	992.3	107.55
1002.2872	2758.4204	994	111.7
1002.4078	2759.6213	995.65	111.35
1002.5285	2760.8215	998.5	112.15
1002.649	2762.0211	992.15	107.25
1002.7696	2763.22	997.05	110.7
1002.8901	2764.4182	993.5	108.8
1003.0106	2765.6158	992.95	108.45
1003.131	2766.8127	993.8	112.55
1003.2514	2768.009	988.75	106.3
1003.3717	2769.2045	990.25	104.9
1003.492	2770.3994	993.2	108.1
1003.6123	2771.5936	988.35	106.05
1003.7325	2772.7872	988.35	103.1
1003.8527	2773.9801	986.3	101.25
1003.9729	2775.1723	1002.4	99.1
1004.093	2776.3639	983.95	101.2
1004.2131	2777.5548	988	101.95
1004.3331	2778.745	987.7	103.05
1004.4531	2779.9346	986.15	103.9
1004.5731	2781.1235	988.45	103.75
1004.693	2782.3117	987.4	104.85
1004.8129	2783.4992	985.45	100.45
1004.9328	2784.6861	986	103.2
1005.0526	2785.8723	988.05	105
1005.1723	2787.0579	985.5	101.95
1005.2921	2788.2428	984.55	101
1005.4118	2789.427	988.1	107.7
1005.5314	2790.6106	987.6	103.75
1005.651	2791.7935	988.75	107.45
1005.7706	2792.9757	987.85	105.8
1005.8902	2794.1573	993.3	109.1
1006.0097	2795.3382	992.35	109
1006.1291	2796.5184	986.65	104.8
1006.2485	2797.698	995.4	109.15
1006.3679	2798.8769	995.3	111.65
1006.4873	2800.0551	998.65	114.7
1006.6066	2801.2327	996.15	109.5
1006.7258	2802.4096	994.95	113.5
1006.8451	2803.5859	1000.25	118.05
1006.9642	2804.7615	1005.7	122.85
1007.0834	2805.9364	1000.6	117.95
1007.2025	2807.1106	1005.7	123.95
1007.3216	2808.2842	1014.4	131.6
1007.4406	2809.4572	1012.85	131.4
1007.5596	2810.6294	1018.25	135.1
1007.6785	2811.801	1022.85	141.7
1007.7975	2812.972	1028.1	145.1
1007.9163	2814.1423	1037.05	154.35
1008.0352	2815.3119	1040	158.35
1008.154	2816.4808	1049.05	167.6
1008.2727	2817.6491	1062.35	178.25
1008.3914	2818.8167	1066.9	185.05
1008.5101	2819.9837	1089.85	202.2
1008.6288	2821.15	1093.45	210.5
1008.7474	2822.3157	1109.1	228.4
1008.8659	2823.4807	1129.45	246.35
1008.9844	2824.645	1147	262.35
1009.1029	2825.8086	1158.45	273.5
1009.2214	2826.9716	1175.75	294
1009.3398	2828.134	1190.45	310.65
1009.4581	2829.2957	1213.05	330.1
1009.5764	2830.4567	1216.85	336.3
1009.6947	2831.617	1232.85	347.7
1009.813	2832.7767	1236.2	356.3
1009.9312	2833.9358	1238.95	356.05
1010.0493	2835.0941	1231.4	347.9
1010.1675	2836.2519	1226.3	344.6
1010.2855	2837.4089	1215.55	331.8
1010.4036	2838.5653	1209.25	326.6
1010.5216	2839.7211	1195.15	314.55
1010.6396	2840.8761	1202.45	318.05
1010.7575	2842.0306	1198.1	316.55
1010.8754	2843.1843	1199.95	316.8
1010.9932	2844.3374	1201.2	319.3
1011.111	2845.4899	1205.3	323
1011.2288	2846.6417	1215.05	333.3
1011.3465	2847.7928	1219.8	336.95
1011.4642	2848.9433	1230.05	347.35
1011.5818	2850.0931	1243.7	362
1011.6995	2851.2422	1253.15	370.7
1011.817	2852.3907	1254.95	372.65
1011.9345	2853.5385	1263.5	378.85
1012.052	2854.6857	1293.05	384.85
1012.1695	2855.8323	1276.1	392.9
1012.2869	2856.9781	1284.95	403.65
1012.4042	2858.1233	1293.05	411
1012.5216	2859.2679	1304.55	421.75
1012.6389	2860.4118	1311.9	428.95
1012.7561	2861.555	1330.3	445.9
1012.8733	2862.6976	1339.7	455.15
1012.9905	2863.8395	1332.55	450.4
1013.1076	2864.9808	1341.3	459.2
1013.2247	2866.1214	1344.85	464.45
1013.3417	2867.2614	1349.2	465.6
1013.4587	2868.4007	1354.95	472.4
1013.5757	2869.5393	1358.55	474.55
1013.6926	2870.6773	1361.2	477.85
1013.8095	2871.8146	1366.1	481.05
1013.9263	2872.9513	1371.4	485.7
1014.0431	2874.0874	1370.3	487.9
1014.1599	2875.2227	1374.6	491.1
1014.2766	2876.3574	1373.8	492.2
1014.3933	2877.4915	1375.1	494.45
1014.51	2878.6249	1376.85	495.45
1014.6266	2879.7577	1378.8	495.1
1014.7431	2880.8898	1382.6	488.9
1014.8596	2882.0212	1370	489.9
1014.9761	2883.152	1374.55	491.35
1015.0925	2884.2821	1375.45	495.05
1015.2089	2885.4116	1380.9	498.4
1015.3253	2886.5405	1377.55	495.25
1015.4416	2887.6686	1383.6	496.8
1015.5579	2888.7962	1384.5	503.2
1015.6741	2889.923	1384	502.4
1015.7903	2891.0493	1388	510.05
1015.9065	2892.1748	1383.25	501.95
1016.0226	2893.2997	1385.15	503.35
1016.1387	2894.424	1387.75	508.75
1016.2547	2895.5476	1394.35	513
1016.3707	2896.6706	1393.55	513.3
1016.4866	2897.7929	1391.8	508.95
1016.6025	2898.9145	1395.85	514.95
1016.7184	2900.0355	1402.6	520.6
1016.8342	2901.1559	1406.15	523.9
1016.95	2902.2756	1401.1	519.6
1017.0658	2903.3946	1403.15	523.85
1017.1815	2904.513	1408.95	525.25
1017.2971	2905.6308	1411.15	529.7
1017.4127	2906.7479	1424.15	537.85
1017.5283	2907.8643	1425.7	544.3
1017.6439	2908.9801	1417.3	535.35
1017.7594	2910.0953	1424.95	544.35
1017.8748	2911.2098	1426.05	541
1017.9902	2912.3236	1427.3	537.85
1018.1056	2913.4368	1416.2	530.85
1018.2209	2914.5494	1412.3	529.6
1018.3362	2915.6613	1406.7	518.4
1018.4515	2916.7725	1401.4	515.1
1018.5667	2917.8831	1397.55	515.85
1018.6819	2918.9931	1392.15	507.45
1018.797	2920.1024	1380.45	498.15
1018.9121	2921.211	1384.7	502.8
1019.0271	2922.319	1372.35	490.8
1019.1421	2923.4264	1365.65	485.35
1019.2571	2924.5331	1365.65	485.55
1019.372	2925.6391	1365.3	484.1
1019.4869	2926.7445	1366.25	484.5
1019.6017	2927.8493	1366.45	484.65
1019.7165	2928.9534	1370.95	489
1019.8313	2930.0569	1369.4	484.2
1019.946	2931.1597	1374.05	492.65
1020.0606	2932.2619	1377.4	496.65
1020.1753	2933.3634	1381.2	499.05
1020.2899	2934.4643	1388.75	500.55
1020.4044	2935.5645	1389.5	502.3
1020.5189	2936.6641	1391.8	507.15
1020.6334	2937.763	1375.45	494.5
1020.7478	2938.8613	1375.4	492.4
1020.8622	2939.959	1378.8	491.5
1020.9765	2941.056	1355.05	474.7
1021.0908	2942.1523	1342.85	459.6
1021.2051	2943.248	1331.1	449.05
1021.3193	2944.3431	1297.7	415.9
1021.4334	2945.4375	1285.55	402.5
1021.5476	2946.5313	1257.4	377.45
1021.6617	2947.6244	1242.85	360.05
1021.7757	2948.7169	1222.6	341.4
1021.8897	2949.8087	1209.45	328.1
1022.0037	2950.8999	1190.2	308.5
1022.1176	2951.9904	1173.5	292.75
1022.2315	2953.0803	1155.7	274.2
1022.3453	2954.1696	1143.2	259.6
1022.4591	2955.2582	1137.2	255.25
1022.5728	2956.3462	1130.85	251.1
1022.6865	2957.4335	1127.8	245.95
1022.8002	2958.5202	1120.25	237.25
1022.9138	2959.6062	1118.5	238.3
1023.0274	2960.6916	1110.25	228.15
1023.141	2961.7764	1108.15	223.9
1023.2545	2962.8605	1108.4	227.2
1023.3679	2963.9439	1104.2	225.4
1023.4813	2965.0267	1099.55	215.55
1023.5947	2966.1089	1124.8	221.15
1023.708	2967.1905	1098	216.6
1023.8213	2968.2714	1091.4	210.55
1023.9346	2969.3516	1097.7	218.75
1024.0478	2970.4312	1114	225.85
1024.1609	2971.5102	1097.35	216.75
1024.274	2972.5885	1097.5	216.5
1024.3871	2973.6662	1106.15	220.35
1024.5002	2974.7432	1101.6	222.4
1024.6132	2975.8196	1100.8	220.2
1024.7261	2976.8954	1102.55	222.45
1024.839	2977.9705	1101.5	219.05
1024.9519	2979.045	1096.2	216.85
1025.0647	2980.1188	1095.85	215.1
1025.1775	2981.192	1094.5	213.5
1025.2902	2982.2645	1093.55	210.4
1025.4029	2983.3364	1087.45	207.15
1025.5156	2984.4077	1081.85	200.45
1025.6282	2985.4783	1083.95	197.95
1025.7407	2986.5483	1069.65	188.1
1025.8532	2987.6177	1061.2	179.35
1025.9657	2988.6864	1057.2	176.45
1026.0782	2989.7545	1053.95	170.75
1026.1906	2990.8219	1045.4	167
1026.3029	2991.8887	1042.3	159.2
1026.4152	2992.9548	1031.15	149.2
1026.5275	2994.0204	1023.45	143.35
1026.6397	2995.0852	1014.3	134.8
1026.7519	2996.1495	1013.15	130.95
1026.864	2997.2131	1004.65	123.4
1026.9761	2998.276	998.85	120.15
1027.0882	2999.3383	994.4	114.3
1027.2002	3000.4	989.6	108.7
1027.3122	3001.4611	986.85	105.3
1027.4241	3002.5215	982.9	100
1027.536	3003.5812	982.25	101.55
1027.6478	3004.6404	974.75	95.1
1027.7596	3005.6989	977.9	95.05
1027.8714	3006.7567	973.6	92.9
1027.9831	3007.8139	998.45	84.3
1028.0947	3008.8705	966.95	87.4
1028.2064	3009.9264	967.65	83.8
1028.3179	3010.9818	962.9	81.65
1028.4295	3012.0364	964.7	85.85
1028.541	3013.0905	961.9	80.9
1028.6524	3014.1439	960.85	79.7
1028.7638	3015.1966	959.9	80.1
1028.8752	3016.2487	958.55	78.75
1028.9865	3017.3002	963.2	76.35
1029.0978	3018.3511	960.85	82.2
1029.209	3019.4013	955.05	75.2
1029.3202	3020.4509	955.25	75.3
1029.4314	3021.4998	949.4	67.9
1029.5425	3022.5481	953.2	75.1
1029.6535	3023.5958	951.85	71.2
1029.7645	3024.6428	954.75	71.6
1029.8755	3025.6892	952.2	72.05
1029.9864	3026.735	951.4	70.35
1030.0973	3027.7802	950.2	68.65
1030.2082	3028.8247	950.7	69
1030.319	3029.8685	953	70.15
1030.4297	3030.9118	951.7	70.25
1030.5404	3031.9544	950.95	70.9
1030.6511	3032.9963	949.2	68.9
1030.7617	3034.0376	949.8	70.6
1030.8723	3035.0783	954	71.3
1030.9829	3036.1184	950.5	68.05
1031.0934	3037.1578	947.8	68.4
1031.2038	3038.1966	949.75	68.95
1031.3142	3039.2348	947.6	68.8
1031.4246	3040.2723	958.55	68.85
1031.5349	3041.3092	950.25	72.2
1031.6452	3042.3455	952.6	71.1
1031.7554	3043.3811	952.7	74.35
1031.8656	3044.4161	952.6	71.45
1031.9758	3045.4505	951.3	69.3
1032.0859	3046.4842	954.5	73.9
1032.1959	3047.5173	952.5	72.45
1032.3059	3048.5498	952.1	71.05
1032.4159	3049.5816	950.95	70.1
1032.5258	3050.6128	952.2	71.25
1032.6357	3051.6434	953.4	70.6
1032.7455	3052.6734	951.9	71.4
1032.8553	3053.7027	950	70.4
1032.9651	3054.7314	951.1	70.7
1033.0748	3055.7594	950.7	72.25
1033.1845	3056.7868	953.25	70.3
1033.2941	3057.8136	950.35	72.4
1033.4037	3058.8398	954.25	75
1033.5132	3059.8653	956.3	76.65
1033.6227	3060.8902	952.8	71.9
1033.7321	3061.9145	952.3	72.1
1033.8415	3062.9381	954.45	74.5
1033.9509	3063.9612	968.95	73.2
1034.0602	3064.9835	952.35	72.2
1034.1694	3066.0053	955.5	72.65
1034.2787	3067.0264	952	71.7
1034.3878	3068.0469	951.6	69.85
1034.497	3069.0668	954.45	70.7
1034.6061	3070.086	953.6	75
1034.7151	3071.1046	950.05	68.7
1034.8241	3072.1226	950.65	70.5
1034.9331	3073.1399	949.35	68.55
1035.042	3074.1567	945.3	65.2
1035.1508	3075.1727	947.25	64.8
1035.2597	3076.1882	942.85	63.45
1035.3684	3077.203	942.1	62.7
1035.4772	3078.2173	944.05	61.45
1035.5859	3079.2308	942.7	59.85
1035.6945	3080.2438	940.85	59.05
1035.8031	3081.2561	936.3	56.55
1035.9117	3082.2678	934.6	54.9
1036.0202	3083.2789	933.7	53.85
1036.1286	3084.2893	933.55	55.4
1036.2371	3085.2991	933.25	53.65
1036.3454	3086.3083	937.3	53.6
1036.4538	3087.3169	934.1	50.85
1036.562	3088.3248	930.4	49.8
1036.6703	3089.3321	930.7	50.35
1036.7785	3090.3388	925.35	46.4
1036.8866	3091.3449	927.05	47.35
1036.9948	3092.3503	931.55	50.45
1037.1028	3093.3551	922.85	42.95
1037.2108	3094.3593	926.2	44.5
1037.3188	3095.3629	925.35	45.7
1037.4267	3096.3658	927.5	46.15
1037.5346	3097.3681	924.45	45.35
1037.6425	3098.3698	925.75	44.85
1037.7503	3099.3708	931.2	44.85
1037.858	3100.3713	921.4	44.25
1037.9657	3101.3711	921.95	39.95
1038.0734	3102.3702	1035.5	44.05
1038.181	3103.3688	924.45	41.85
1038.2886	3104.3667	918.9	40.1
1038.3961	3105.364	918.7	38.2
1038.5036	3106.3607	922.7	39.8
1038.611	3107.3568	920.8	41.05
1038.7184	3108.3522	917.85	38.75
1038.8257	3109.347	920.55	40.55
1038.933	3110.3412	921.8	37.6
1039.0403	3111.3348	919.4	40.2
1039.1475	3112.3277	916.05	37.6
1039.2547	3113.32	916.2	39
1039.3618	3114.3117	918.95	37.75
1039.4689	3115.3028	914.25	35.3
1039.5759	3116.2932	917.65	33.2
1039.6829	3117.2831	919.55	33.7
1039.7898	3118.2723	915.6	34.75
1039.8967	3119.2608	911.25	32.1
1040.0035	3120.2488	912.2	31.9
1040.1103	3121.2361	913.1	32.25
1040.2171	3122.2229	910.3	31
1040.3238	3123.209	912	29.65
1040.4305	3124.1944	910.45	32.7
1040.5371	3125.1793	910.65	29.9
1040.6437	3126.1635	909.85	31.05
1040.7502	3127.1471	908.9	26.3
1040.8567	3128.1301	909.25	32.05
1040.9631	3129.1125	911.2	31.6
1041.0695	3130.0942	909.85	29.4
1041.1759	3131.0753	918.4	29.55
1041.2822	3132.0558	910.6	26.5
1041.3884	3133.0357	907.85	26.15
1041.4946	3134.015	910.7	31.35
1041.6008	3134.9936	911.1	29.9
1041.7069	3135.9716	931.85	33.95
1041.813	3136.949	906.95	28.45
1041.919	3137.9258	926.3	28.9
1042.025	3138.902	914.65	27.9
1042.1309	3139.8775	905.55	24.45
1042.2368	3140.8524	906.2	27.45
1042.3427	3141.8267	908.2	26.3
1042.4485	3142.8004	906.2	27.2
1042.5542	3143.7735	908.4	21.95
1042.6599	3144.7459	908.75	29.05
1042.7656	3145.7178	906.45	26
1042.8712	3146.689	903.45	25.85
1042.9768	3147.6596	905.2	23.9
1043.0823	3148.6295	904.95	25.65
1043.1878	3149.5989	903.5	22.75
1043.2932	3150.5676	903.8	25.25
1043.3986	3151.5357	901.25	21.35
1043.5039	3152.5032	902.25	23
1043.6092	3153.4701	902.1	25.05
1043.7145	3154.4364	906.1	23.7
1043.8197	3155.402	904.05	29.3
1043.9248	3156.367	905.4	25.25
1044.03	3157.3315	939.85	26.1
1044.135	3158.2952	904.9	24.45
1044.24	3159.2584	902.1	22.7
1044.345	3160.221	902.45	21.1
1044.4499	3161.1829	903.2	23.9
1044.5548	3162.1442	905.05	25.2
1044.6596	3163.105	901.25	20.35
1044.7644	3164.065	902.35	24.05
1044.8692	3165.0245	904.85	25.4
1044.9739	3165.9834	902.15	24.7
1045.0785	3166.9416	902.2	22.95
1045.1831	3167.8993	902.8	23.45
1045.2877	3168.8563	904.85	23.05
1045.3922	3169.8127	899.35	19.5
1045.4966	3170.7684	901.25	21.2
1045.6011	3171.7236	901.05	19.05
1045.7054	3172.6782	901.05	22.35
1045.8098	3173.6321	900	18.75
1045.914	3174.5854	903.25	18.4
1046.0183	3175.5381	899.45	21.6
1046.1224	3176.4902	898	18.15
1046.2266	3177.4417	900.05	21.35
1046.3307	3178.3926	896.45	15.55
1046.4347	3179.3428	901.45	23.65
1046.5387	3180.2924	899.1	20.3
1046.6427	3181.2415	900.7	19.4
1046.7466	3182.1899	901.1	22.3
1046.8504	3183.1377	898.7	22.65
1046.9542	3184.0848	902	19.75
1047.058	3185.0314	899.7	20.25
1047.1617	3185.9773	900.45	21.3
1047.2654	3186.9227	900.15	19.45
1047.369	3187.8674	899.15	19.4
1047.4726	3188.8115	905.45	21.8
1047.5761	3189.755	897.8	19.45
1047.6796	3190.6979	899.5	20.2
1047.783	3191.6402	898	19.95
1047.8864	3192.5818	899.5	19.7
1047.9898	3193.5229	908.3	15.6
1048.0931	3194.4633	897.6	18.05
1048.1963	3195.4031	899.05	18.9
1048.2995	3196.3423	896.15	17.25
1048.4027	3197.2809	895.55	15.55
1048.5058	3198.2189	895.6	16
1048.6089	3199.1563	917	18.65
1048.7119	3200.0931	894.5	14.9
1048.8148	3201.0292	895.55	18.05
1048.9178	3201.9648	897.1	17.85
1049.0206	3202.8997	898.2	15.5
1049.1235	3203.834	896	16.85
1049.2262	3204.7677	896.35	17.15
1049.329	3205.7008	896.1	15.5
1049.4317	3206.6333	896.4	17.65
1049.5343	3207.5652	899.7	17.75
1049.6369	3208.4964	897.95	18.1
1049.7394	3209.4271	894.95	18.35
1049.8419	3210.3571	895.25	15.8
1049.9444	3211.2865	895.75	15.7
1050.0468	3212.2154	895.3	15.1
1050.1491	3213.1436	897.8	15.05
1050.2514	3214.0712	904.8	19.6
1050.3537	3214.9982	895.75	17.75
1050.4559	3215.9246	895	14.15
1050.5581	3216.8503	892.35	11.9
1050.6602	3217.7755	895.85	19.25
1050.7623	3218.7001	894.6	16.7
1050.8643	3219.624	893.9	13.7
1050.9663	3220.5473	895.6	17.75
1051.0682	3221.4701	894.8	14.3
1051.1701	3222.3922	895.8	15.2
1051.2719	3223.3137	893.45	12.45
1051.3737	3224.2346	894.8	16.5
1051.4754	3225.1549	894.3	15.25
1051.5771	3226.0746	894.9	16.7
1051.6788	3226.9937	895.4	15.75
1051.7804	3227.9121	892.6	13.2
1051.8819	3228.83	894.05	14.35
1051.9834	3229.7473	892.6	10.85
1052.0849	3230.6639	893.1	16.4
1052.1863	3231.5799	891.85	12.95
1052.2876	3232.4954	893.35	14.1
1052.3889	3233.4102	892.1	12.45
1052.4902	3234.3244	893.6	12.3
1052.5914	3235.238	891.7	12.75
1052.6926	3236.151	913.35	10.85
1052.7937	3237.0634	892.7	14.5
1052.8948	3237.9752	891.35	12.6
1052.9958	3238.8864	891.5	12.2
1053.0968	3239.797	890	10.75
1053.1977	3240.7069	892.95	12.7
1053.2986	3241.6163	895	14.6
1053.3994	3242.5251	892.8	13.05
1053.5002	3243.4332	890.8	12.45
1053.6009	3244.3408	892.35	12.3
1053.7016	3245.2477	890.65	10.75
1053.8022	3246.154	894.3	13.7
1053.9028	3247.0598	891.95	11.35
1054.0034	3247.9649	893.1	11.6
1054.1039	3248.8694	891.3	11
1054.2043	3249.7733	892.2	13.6
1054.3047	3250.6766	890.9	11.05
1054.4051	3251.5793	890.25	11.6
1054.5054	3252.4814	890.6	12.75
1054.6056	3253.3829	891.3	13.4
1054.7058	3254.2838	891.8	12.65
1054.806	3255.1841	889.75	11.05
1054.9061	3256.0838	888.55	9.6
1055.0061	3256.9829	890	11.5
1055.1062	3257.8814	892.9	10.95
1055.2061	3258.7792	891.5	9.1
1055.306	3259.6765	891.7	12.85
1055.4059	3260.5731	890.15	12.85
1055.5057	3261.4692	889.55	10.75
1055.6055	3262.3647	890.5	9.8
1055.7052	3263.2595	889	11.55
1055.8049	3264.1538	891.4	13
1055.9045	3265.0474	891.25	11.3
1056.0041	3265.9404	888.5	8.95
1056.1036	3266.8329	889.4	11.45
1056.2031	3267.7247	899.05	9.6
1056.3025	3268.616	886.6	10.15
1056.4019	3269.5066	887.65	9.3
1056.5013	3270.3966	889.6	7.95
1056.6005	3271.286	886.1	8.45
