Software Version:	3.9.2.0
Unit SN:	10000200
Spectrometer SN:	6960
Date:	3/8/2024 12:22:42 PM
Data Line Index:	25
Spectral Points:	2048
Integration time (ms):	125
Averages:	20
Delay (ms):	30000
Sequence Number:	1
Processing:	dark subtract
Laser Power (mW):	305
Laser Current (mA):	823
Laser Diode Temp (C):	25
Laser Case Temp (C):	25.9
System Temp (C):	25.8
Spectrometer Temp (C):	23.7
CCD Temp (C):	0.007
Secondary Temp (C):	20.008
Heatsink Temp (C):	21.024
CCDPCB Temp (C):	36.14
SecondaryPCB Temp (C):	29.526

Wavelength	RamanShift	Raw Counts	Dark Subtracted
787.061	30.1047	415.9	4.55
787.2016	32.3739	414.8	6.3
787.3422	34.6426	417.6	9.15
787.4828	36.9109	419.75	9.1
787.6235	39.1787	425.1	9.75
787.7642	41.4461	430.9	13.8
787.9049	43.7131	434	12.05
788.0456	45.9796	437.7	11.2
788.1863	48.2456	440.95	11.25
788.3271	50.5112	445.6	12.35
788.4679	52.7764	449.9	13.35
788.6087	55.0411	457.55	15.85
788.7496	57.3054	463.9	20.25
788.8904	59.5692	467.4	17.75
789.0313	61.8326	469.6	19.8
789.1722	64.0955	476.85	24.35
789.3132	66.3579	482.75	24.4
789.4541	68.6199	491.2	30.35
789.5951	70.8815	502.9	38.85
789.7361	73.1426	525.65	56.5
789.8771	75.4032	575.75	101.75
790.0181	77.6634	685.05	206.7
790.1592	79.9231	957.3	473.55
790.3003	82.1824	1506.1	1009.45
790.4414	84.4412	2408.5	1896.6
790.5825	86.6995	3563.05	3025.6
790.7237	88.9574	4646.9	4088.6
790.8648	91.2148	5379.5	4808
791.006	93.4717	5701.05	5122.55
791.1472	95.7282	5737.4	5152
791.2885	97.9842	5648.9	5058.1
791.4297	100.2398	5519.85	4929.45
791.571	102.4949	5388.55	4795.1
791.7123	104.7495	5250.9	4653
791.8536	107.0036	5095.8	4499.45
791.9949	109.2573	4923.4	4328.7
792.1363	111.5105	4762.1	4160.4
792.2777	113.7632	4574.9	3969.55
792.4191	116.0154	4408.1	3794.9
792.5605	118.2672	4221.95	3618.6
792.7019	120.5185	4051.75	3444.85
792.8434	122.7693	3925.45	3312.45
792.9849	125.0197	3808.6	3195.65
793.1264	127.2696	3705.3	3085.75
793.2679	129.519	3651.9	3028.55
793.4094	131.7679	3589.05	2964.2
793.551	134.0163	3540.75	2915.4
793.6926	136.2642	3483.75	2853.7
793.8342	138.5117	3426.35	2785.65
793.9758	140.7587	3360.6	2725.9
794.1175	143.0052	3280.7	2641.05
794.2591	145.2512	3193.35	2553.95
794.4008	147.4967	3111.95	2472.2
794.5425	149.7417	3043.1	2399.8
794.6842	151.9863	3003.45	2356.3
794.826	154.2304	2989.4	2340.85
794.9677	156.4739	2974.4	2317.4
795.1095	158.717	3000.15	2345.8
795.2513	160.9596	3004.95	2343.6
795.3931	163.2017	3004.55	2339.4
795.535	165.4433	2988.5	2322.8
795.6768	167.6844	2921.4	2255.55
795.8187	169.925	2854.2	2183.85
795.9606	172.1651	2774.95	2100.1
796.1025	174.4047	2700.45	2022.7
796.2445	176.6439	2651	1976.8
796.3864	178.8825	2596	1913.3
796.5284	181.1206	2577.4	1894.4
796.6704	183.3582	2560.35	1871.6
796.8124	185.5954	2541.65	1853.15
796.9544	187.832	2530	1836.9
797.0965	190.0681	2539.7	1839.6
797.2386	192.3037	2541.8	1843
797.3806	194.5388	2549.45	1846.15
797.5228	196.7734	2554.1	1846.9
797.6649	199.0075	2576.05	1869.7
797.807	201.2411	2620.2	1913.1
797.9492	203.4742	2635.6	1926.6
798.0914	205.7068	2686.9	1971.8
798.2336	207.9389	2724.95	2009.65
798.3758	210.1704	2745.15	2037.85
798.518	212.4015	2754.7	2052.85
798.6603	214.632	2772.75	2075.45
798.8025	216.862	2785.9	2091.6
798.9448	219.0915	2802.8	2109.6
799.0871	221.3205	2828.95	2133.15
799.2294	223.549	2824.1	2132.25
799.3718	225.777	2824.85	2132.2
799.5141	228.0044	2800.9	2099.95
799.6565	230.2314	2785.1	2081.3
799.7989	232.4578	2766.8	2064.75
799.9413	234.6837	2741.65	2027.55
800.0837	236.909	2740.1	2026.25
800.2262	239.1339	2741.05	2001.35
800.3687	241.3582	2725	2000.35
800.5111	243.582	2750	1994.45
800.6536	245.8053	2754.55	2010.35
800.7961	248.0281	2753.1	2017.4
800.9387	250.2503	2761.1	2020.9
801.0812	252.472	2787.45	2040.7
801.2238	254.6932	2821.25	2080.6
801.3664	256.9139	2845.9	2097.6
801.509	259.134	2883.8	2133.7
801.6516	261.3536	2932.3	2189.05
801.7942	263.5727	3022.25	2275.55
801.9369	265.7912	3110.05	2360.7
802.0795	268.0092	3215.05	2465.7
802.2222	270.2267	3308.95	2561.9
802.3649	272.4436	3370.6	2623.2
802.5076	274.6601	3422	2660.65
802.6504	276.8759	3443.15	2687.45
802.7931	279.0913	3455.3	2700.15
802.9359	281.3061	3460.9	2705.3
803.0787	283.5204	3505.95	2745.6
803.2215	285.7341	3544.7	2778.25
803.3643	287.9473	3559.35	2792.85
803.5071	290.16	3548.6	2780.15
803.6499	292.3721	3509.75	2749.5
803.7928	294.5837	3490.2	2727.25
803.9357	296.7947	3491.45	2728.55
804.0786	299.0052	3509.3	2741.15
804.2215	301.2152	3487.6	2719.45
804.3644	303.4246	3462.8	2699.2
804.5074	305.6334	3412.65	2651.15
804.6503	307.8418	3351.1	2582.6
804.7933	310.0495	3277.8	2511.4
804.9363	312.2568	3183.6	2414.35
805.0793	314.4635	3095.55	2324.5
805.2223	316.6696	3009.45	2234.4
805.3653	318.8752	2913.1	2128.75
805.5084	321.0802	2869.7	2094.8
805.6514	323.2847	2865.2	2089.15
805.7945	325.4887	2867.75	2086.8
805.9376	327.692	2904.15	2122.9
806.0807	329.8949	2947.35	2168.05
806.2238	332.0972	2970.75	2188.75
806.367	334.2989	2971.05	2185.4
806.5101	336.5001	2939.2	2153.1
806.6533	338.7007	2884.9	2101
806.7965	340.9008	2817.45	2030.3
806.9397	343.1003	2749.55	1960.4
807.0829	345.2992	2678.05	1887.8
807.2261	347.4976	2615.65	1823.9
807.3693	349.6955	2584.2	1786.5
807.5126	351.8927	2560.4	1760.4
807.6559	354.0895	2545.25	1735.2
807.7991	356.2856	2515.25	1712.5
807.9424	358.4812	2495.75	1697.35
808.0857	360.6763	2491.15	1686.4
808.2291	362.8707	2505.25	1701
808.3724	365.0646	2502.05	1699.1
808.5158	367.258	2523	1716.05
808.6591	369.4508	2566.2	1756.15
808.8025	371.643	2605.05	1796.7
808.9459	373.8346	2660.6	1848.3
809.0893	376.0257	2716.4	1901.2
809.2327	378.2162	2736.2	1923.7
809.3762	380.4062	2737.95	1922.85
809.5196	382.5956	2691.95	1877.5
809.6631	384.7844	2652.4	1842.3
809.8066	386.9726	2596.05	1788
809.9501	389.1603	2550.7	1745.9
810.0936	391.3474	2567.25	1730.75
810.2371	393.5339	2558.2	1747.05
810.3806	395.7199	2569.25	1766.25
810.5241	397.9052	2612.95	1805.3
810.6677	400.09	2665.85	1858.8
810.8113	402.2743	2735.7	1927.95
810.9548	404.4579	2791.65	1980.6
811.0984	406.641	2864.55	2053.75
811.2421	408.8235	2918.95	2106.05
811.3857	411.0054	2969.6	2157.7
811.5293	413.1868	3031.45	2214.4
811.673	415.3675	3046.55	2220.7
811.8166	417.5477	2998.4	2174.35
811.9603	419.7273	2930.35	2103.2
812.104	421.9064	2874.75	2045.95
812.2477	424.0848	2817.7	1991.9
812.3914	426.2627	2745.25	1916.65
812.5351	428.4399	2669.5	1845.5
812.6788	430.6166	2568.9	1737.95
812.8226	432.7928	2498.2	1665.7
812.9663	434.9683	2440.45	1609.9
813.1101	437.1432	2399.65	1569.05
813.2539	439.3176	2360.4	1531.95
813.3977	441.4914	2345.7	1518.85
813.5415	443.6645	2331.9	1505.55
813.6853	445.8371	2337.9	1508
813.8291	448.0091	2332	1501.4
813.973	450.1806	2331.1	1501.75
814.1168	452.3514	2330.15	1500.5
814.2607	454.5216	2342	1503.6
814.4046	456.6913	2347.85	1514.05
814.5485	458.8603	2355.35	1523.15
814.6924	461.0288	2345.85	1516.35
814.8363	463.1967	2358.5	1531.15
814.9802	465.3639	2350.7	1513.05
815.1241	467.5306	2345.4	1513.65
815.2681	469.6967	2335.55	1504.1
815.412	471.8622	2331.85	1502
815.556	474.0271	2325.45	1492
815.7	476.1914	2329.2	1492.65
815.844	478.3551	2331.9	1495.9
815.988	480.5182	2332.05	1497.7
816.132	482.6807	2350.45	1516.35
816.276	484.8426	2388.5	1561.7
816.4201	487.0039	2457.2	1627.25
816.5641	489.1647	2543.25	1707.25
816.7082	491.3248	2620.7	1780.9
816.8522	493.4843	2635.75	1801.65
816.9963	495.6432	2625.85	1788.7
817.1404	497.8015	2586.85	1742.1
817.2845	499.9592	2536.15	1690.35
817.4286	502.1163	2454.15	1607.25
817.5727	504.2728	2374.25	1530.65
817.7168	506.4287	2318.5	1484
817.861	508.5839	2285.95	1450.1
818.0051	510.7386	2271.35	1431.2
818.1493	512.8927	2281.7	1436.85
818.2935	515.0461	2289.65	1443.05
818.4377	517.199	2334.55	1486
818.5818	519.3512	2402.65	1558.35
818.726	521.5029	2510.6	1659.35
818.8703	523.6539	2583.4	1736.4
819.0145	525.8043	2595.4	1743.45
819.1587	527.9541	2533.55	1678.45
819.303	530.1033	2440.8	1590.5
819.4472	532.2519	2372.75	1523.45
819.5915	534.3999	2338.7	1485.85
819.7357	536.5472	2316.55	1468.55
819.88	538.694	2328.1	1481.75
820.0243	540.8401	2366.5	1517.3
820.1686	542.9856	2390.25	1531.95
820.3129	545.1305	2414.2	1554.5
820.4572	547.2748	2420.15	1559.9
820.6016	549.4185	2421.7	1562.95
820.7459	551.5615	2443.15	1584.65
820.8902	553.704	2468.4	1608.85
821.0346	555.8458	2504.2	1649.15
821.1789	557.987	2549.8	1694.2
821.3233	560.1276	2609.6	1750.05
821.4677	562.2675	2707.05	1850.35
821.6121	564.4069	2830.45	1970.85
821.7565	566.5456	2905.2	2048.15
821.9009	568.6837	2908.35	2051.3
822.0453	570.8212	2787.15	1929.85
822.1897	572.958	2651.65	1791.85
822.3342	575.0942	2520.1	1663.7
822.4786	577.2299	2443.55	1588.3
822.6231	579.3648	2393.35	1544.15
822.7675	581.4992	2384.75	1537.15
822.912	583.6329	2415.85	1567.9
823.0565	585.766	2481.05	1629.85
823.201	587.8985	2543.3	1691.25
823.3454	590.0304	2637	1758.25
823.4899	592.1616	2663.75	1803
823.6345	594.2922	2633.7	1768.45
823.779	596.4222	2545.9	1680.35
823.9235	598.5515	2458.1	1588.65
824.068	600.6802	2396.7	1531.85
824.2126	602.8083	2347.3	1481.45
824.3571	604.9358	2327.8	1463.45
824.5017	607.0626	2322.3	1453.25
824.6462	609.1888	2362	1494.4
824.7908	611.3144	2422.45	1550.05
824.9354	613.4393	2471.15	1603.5
825.08	615.5636	2559.45	1688.05
825.2246	617.6873	2621.35	1753.3
825.3692	619.8103	2634	1763.85
825.5138	621.9327	2613.65	1741.95
825.6584	624.0544	2560.9	1692.8
825.803	626.1756	2474.7	1607.75
825.9477	628.2961	2405.35	1533.2
826.0923	630.4159	2390.9	1521.45
826.237	632.5351	2388.85	1518.75
826.3816	634.6537	2354.15	1480.25
826.5263	636.7716	2334.55	1456.85
826.6709	638.8889	2339	1462.25
826.8156	641.0056	2332.55	1455.7
826.9603	643.1216	2339.5	1461.6
827.105	645.237	2328.75	1454.15
827.2497	647.3518	2301.6	1426.15
827.3944	649.4659	2272.85	1402.1
827.5391	651.5793	2245	1375.9
827.6838	653.6922	2230.3	1360.45
827.8285	655.8043	2220.5	1349.85
827.9733	657.9159	2212.6	1338.55
828.118	660.0268	2209.75	1335.3
828.2627	662.137	2193.35	1317.3
828.4075	664.2466	2214.2	1332.7
828.5522	666.3556	2202.55	1323.3
828.697	668.4639	2185.65	1309.25
828.8418	670.5716	2184.95	1310.85
828.9865	672.6786	2175.2	1298.5
829.1313	674.785	2156.8	1274.65
829.2761	676.8907	2152.05	1275.2
829.4209	678.9958	2153.1	1276.7
829.5657	681.1002	2154.4	1272.65
829.7105	683.204	2158.55	1272.8
829.8553	685.3072	2152	1268.8
830.0001	687.4097	2156.25	1276.4
830.1449	689.5115	2160.9	1277.95
830.2898	691.6127	2139.9	1261.3
830.4346	693.7132	2149.9	1271.35
830.5794	695.8131	2163.65	1262.15
830.7243	697.9123	2175.2	1289.75
830.8691	700.0109	2182.75	1296.5
831.014	702.1089	2201.85	1316.55
831.1588	704.2061	2231.35	1347.05
831.3037	706.3028	2256.35	1370.85
831.4486	708.3987	2276.5	1391.95
831.5935	710.4941	2301.7	1417.8
831.7383	712.5887	2300.6	1416.65
831.8832	714.6827	2313.8	1430.75
832.0281	716.7761	2307.4	1425.6
832.173	718.8688	2318.75	1434.95
832.3179	720.9608	2337	1447.1
832.4628	723.0522	2372.4	1481.7
832.6077	725.1429	2426.7	1540.75
832.7527	727.233	2492.3	1601.9
832.8976	729.3224	2587.85	1700.8
833.0425	731.4112	2632.05	1744.35
833.1874	733.4993	2615.45	1724.55
833.3324	735.5867	2535.95	1647.35
833.4773	737.6735	2411.55	1521.45
833.6222	739.7596	2343.75	1451.1
833.7672	741.845	2296.2	1410.6
833.9122	743.9298	2259.95	1369.05
834.0571	746.014	2262.05	1374.3
834.2021	748.0974	2264.3	1374.55
834.347	750.1802	2257.5	1365.8
834.492	752.2624	2260.8	1368.2
834.637	754.3439	2256.5	1363.05
834.782	756.4247	2281.4	1382.8
834.9269	758.5048	2314.65	1421.6
835.0719	760.5843	2358.15	1464.5
835.2169	762.6631	2440.4	1548.55
835.3619	764.7413	2560.45	1668.65
835.5069	766.8188	2723.5	1830.65
835.6519	768.8956	2878.25	1982.6
835.7969	770.9718	2988.25	2093.25
835.9419	773.0473	2980	2085.7
836.0869	775.1221	2932.25	2040.8
836.232	777.1962	2906.3	2013.3
836.377	779.2697	2975.25	2080.9
836.522	781.3426	3097.75	2183.95
836.667	783.4147	3136	2242
836.8121	785.4862	3095.25	2199.25
836.9571	787.557	2971.4	2075
837.1021	789.6271	2788.9	1891.95
837.2472	791.6966	2608.4	1713.05
837.3922	793.7654	2447.1	1553.7
837.5373	795.8335	2360.8	1468.65
837.6823	797.901	2301	1406.4
837.8274	799.9678	2285.45	1385.45
837.9724	802.0339	2266.6	1369.45
838.1175	804.0993	2275.05	1368.75
838.2626	806.1641	2233.95	1339.35
838.4076	808.2282	2211.35	1318.75
838.5527	810.2916	2204.65	1306.75
838.6978	812.3544	2166.85	1271.65
838.8428	814.4164	2167.3	1270.55
838.9879	816.4778	2175.1	1275.5
839.133	818.5385	2197	1298.25
839.2781	820.5986	2255.15	1356.75
839.4232	822.658	2344.95	1443.9
839.5682	824.7166	2462.75	1567.45
839.7133	826.7747	2625.45	1727.05
839.8584	828.832	2793.35	1893.25
840.0035	830.8886	2897.95	1998.7
840.1486	832.9446	2919.25	2016.4
840.2937	834.9999	2853.9	1956
840.4388	837.0545	2738.8	1835.85
840.5839	839.1085	2599.95	1699.3
840.729	841.1618	2486.7	1583.25
840.8741	843.2143	2397.7	1497.55
841.0192	845.2662	2332.2	1430.7
841.1643	847.3175	2299.75	1400.1
841.3095	849.368	2271.4	1372.35
841.4546	851.4179	2272.75	1372.6
841.5997	853.467	2253.5	1349.85
841.7448	855.5155	2249.15	1348.05
841.8899	857.5633	2250.5	1345.85
842.0351	859.6105	2251.7	1350.15
842.1802	861.6569	2228.05	1326.6
842.3253	863.7027	2208.95	1304.1
842.4704	865.7478	2188.35	1285.05
842.6156	867.7922	2169	1266.05
842.7607	869.8359	2171.75	1269.5
842.9058	871.8789	2177.1	1276.7
843.0509	873.9212	2206.7	1273.25
843.1961	875.9629	2197.65	1296.45
843.3412	878.0039	2204.8	1300.85
843.4863	880.0441	2222.45	1321.7
843.6315	882.0837	2260.6	1358.7
843.7766	884.1226	2311	1404.2
843.9218	886.1609	2361.7	1458.75
844.0669	888.1984	2427.65	1526.55
844.212	890.2352	2475.05	1571.05
844.3572	892.2714	2494.45	1584.6
844.5023	894.3069	2457.05	1551.65
844.6475	896.3416	2386.3	1480
844.7926	898.3757	2332.95	1426.95
844.9377	900.4091	2291.7	1383.25
845.0829	902.4418	2299.7	1389.45
845.228	904.4739	2319.6	1409.2
845.3732	906.5052	2335.2	1428.95
845.5183	908.5358	2310.8	1403.95
845.6635	910.5658	2272	1362.75
845.8086	912.595	2215.2	1309.1
845.9538	914.6236	2158.25	1249.4
846.0989	916.6515	2116.8	1207.75
846.2441	918.6786	2104.65	1196.45
846.3892	920.7051	2076.55	1171.2
846.5344	922.7309	2083.65	1173.7
846.6795	924.756	2083.15	1176.65
846.8246	926.7804	2116.7	1210.5
846.9698	928.8041	2122.55	1215.55
847.1149	930.8272	2158.7	1249.65
847.2601	932.8495	2169.9	1261.05
847.4052	934.8711	2174.4	1265.4
847.5504	936.892	2196.1	1289.95
847.6955	938.9123	2208.65	1302.25
847.8407	940.9318	2228.15	1322.2
847.9858	942.9506	2245.4	1339.6
848.131	944.9688	2233	1327.6
848.2761	946.9862	2206.3	1297.05
848.4213	949.003	2144.9	1238.85
848.5664	951.019	2106.85	1198.8
848.7115	953.0344	2089.05	1183.6
848.8567	955.0491	2074.7	1167.15
849.0018	957.063	2076	1169.1
849.147	959.0763	2079.95	1171.85
849.2921	961.0888	2066.65	1157.5
849.4373	963.1007	2080.7	1173.1
849.5824	965.1119	2077.35	1175.5
849.7275	967.1223	2066.4	1166.65
849.8727	969.1321	2055.35	1156.15
850.0178	971.1412	2053.3	1149.8
850.1629	973.1495	2045.55	1138.65
850.3081	975.1572	2076.6	1137.2
850.4532	977.1641	2061.2	1151
850.5983	979.1704	2049.95	1140.45
850.7435	981.1759	2047.65	1135
850.8886	983.1808	2040.85	1127.5
851.0337	985.1849	2055.6	1136.15
851.1788	987.1884	2040.25	1127.8
851.324	989.1911	2047.35	1136.85
851.4691	991.1932	2064	1155.15
851.6142	993.1945	2065.1	1158.7
851.7593	995.1951	2066.7	1157.2
851.9045	997.1951	2063.55	1149.1
852.0496	999.1943	2057.75	1147.9
852.1947	1001.1928	2065.4	1156.15
852.3398	1003.1906	2087.55	1179.9
852.4849	1005.1877	2122.55	1213.05
852.63	1007.1841	2148.8	1240.25
852.7751	1009.1798	2156.2	1245.2
852.9202	1011.1748	2147.6	1238.95
853.0653	1013.1691	2126	1216.3
853.2104	1015.1627	2081.95	1173.6
853.3555	1017.1556	2023.25	1112
853.5006	1019.1477	1994.1	1087.15
853.6457	1021.1392	1971.5	1067
853.7908	1023.1299	1964.85	1061.7
853.9359	1025.12	1962.55	1060.45
854.081	1027.1093	1975.15	1079.1
854.2261	1029.0979	2008.15	1117.8
854.3712	1031.0859	2032.95	1133.9
854.5163	1033.0731	2056.9	1154.3
854.6613	1035.0596	2068	1162.4
854.8064	1037.0454	2055.05	1149.15
854.9515	1039.0304	2029.85	1122.95
855.0965	1041.0148	2002.4	1094.6
855.2416	1042.9985	1969.35	1058.75
855.3867	1044.9814	1970.15	1062.9
855.5317	1046.9636	1966.05	1056.2
855.6768	1048.9452	1970.5	1064.85
855.8219	1050.926	1993.95	1085.8
855.9669	1052.9061	2012.85	1102.85
856.112	1054.8855	2028.25	1118.55
856.257	1056.8642	2029.45	1123.6
856.4021	1058.8421	2027.65	1115.85
856.5471	1060.8194	2023.4	1109.8
856.6921	1062.7959	2027.85	1117.85
856.8372	1064.7717	2038.25	1125.15
856.9822	1066.7469	2043.2	1132.5
857.1272	1068.7213	2072.8	1160.5
857.2723	1070.695	2101	1193.55
857.4173	1072.6679	2119.6	1212.15
857.5623	1074.6402	2151.45	1238.3
857.7073	1076.6117	2143.85	1225.9
857.8523	1078.5826	2103.3	1193.75
857.9973	1080.5527	2054.45	1142.6
858.1423	1082.5221	2006.55	1096.75
858.2873	1084.4908	1971.45	1063.6
858.4323	1086.4587	1960	1049.25
858.5773	1088.426	1961.15	1052.65
858.7223	1090.3925	1973.4	1059.45
858.8673	1092.3584	1976.15	1064.1
859.0123	1094.3235	1998.7	1091.55
859.1573	1096.2879	2033.6	1124.3
859.3022	1098.2515	2074.6	1166.25
859.4472	1100.2145	2133.15	1222.5
859.5922	1102.1767	2191.45	1278.95
859.7371	1104.1382	2267.95	1360.15
859.8821	1106.099	2347.25	1438.2
860.027	1108.0591	2433.25	1524.4
860.172	1110.0185	2483.05	1572.5
860.3169	1111.9771	2556.35	1646.35
860.4619	1113.9351	2613.35	1704.95
860.6068	1115.8923	2654.7	1743.5
860.7517	1117.8488	2640.85	1728.4
860.8967	1119.8045	2565.9	1657.2
861.0416	1121.7596	2444.65	1534.25
861.1865	1123.7139	2325.35	1415.7
861.3314	1125.6675	2271.5	1362.25
861.4763	1127.6204	2276.9	1367.35
861.6212	1129.5726	2288.75	1378.95
861.7661	1131.524	2264.05	1356.65
861.911	1133.4748	2209.45	1299.45
862.0559	1135.4248	2132.5	1222.1
862.2008	1137.3741	2063.6	1152.9
862.3457	1139.3226	2035.5	1126.6
862.4905	1141.2705	2022.6	1112.9
862.6354	1143.2176	2040.3	1125.15
862.7803	1145.164	2040.9	1132.7
862.9251	1147.1097	2025	1113.65
863.07	1149.0546	2001.2	1091.45
863.2148	1150.9989	1950.3	1040.1
863.3597	1152.9424	1931.5	1021.8
863.5045	1154.8852	1910.05	997.7
863.6493	1156.8272	1904.55	997.3
863.7942	1158.7686	1921.9	1005.7
863.939	1160.7092	1920.85	1010.45
864.0838	1162.6491	1931.05	1018.5
864.2286	1164.5883	1955.4	1046.35
864.3734	1166.5267	1994.6	1083.1
864.5182	1168.4644	2040.6	1131.15
864.663	1170.4014	2105.35	1190.1
864.8078	1172.3377	2170.65	1262.25
864.9526	1174.2732	2287.25	1379
865.0974	1176.2081	2446.75	1538.05
865.2421	1178.1421	2633.4	1720.65
865.3869	1180.0755	2801.05	1893.75
865.5317	1182.0082	2877.2	1968.65
865.6764	1183.9401	2818.8	1906
865.8212	1185.8713	2676.55	1773.55
865.9659	1187.8017	2494.4	1591.15
866.1106	1189.7315	2337.05	1440.3
866.2554	1191.6605	2222.7	1324.2
866.4001	1193.5888	2153.3	1252.05
866.5448	1195.5163	2122.65	1216.5
866.6895	1197.4432	2090.45	1182.1
866.8342	1199.3693	2061.15	1153.8
866.9789	1201.2947	2049.05	1134.3
867.1236	1203.2193	2044.1	1137.35
867.2683	1205.1432	2030.05	1121.65
867.413	1207.0664	2031.9	1122
867.5576	1208.9889	2036.25	1125.9
867.7023	1210.9106	2043.65	1136.35
867.847	1212.8316	2041.5	1135.85
867.9916	1214.7519	2077.2	1157.55
868.1363	1216.6715	2098.3	1192.55
868.2809	1218.5903	2123.65	1215.95
868.4255	1220.5084	2147.1	1238.7
868.5701	1222.4257	2186.75	1278.65
868.7148	1224.3424	2215.65	1308.8
868.8594	1226.2583	2265.95	1353.2
869.004	1228.1735	2321.3	1413.55
869.1486	1230.0879	2388.8	1480.05
869.2932	1232.0016	2468.65	1558.35
869.4377	1233.9146	2527.15	1615.1
869.5823	1235.8269	2563.45	1653
869.7269	1237.7384	2585.4	1680
869.8715	1239.6492	2597.45	1688.8
870.016	1241.5592	2633.2	1724.2
870.1606	1243.4686	2703.75	1795.7
870.3051	1245.3772	2832.3	1925.35
870.4496	1247.285	2974.15	2064.8
870.5941	1249.1922	3107.8	2198.15
870.7387	1251.0986	3233.3	2324.9
870.8832	1253.0042	3351.1	2445.35
871.0277	1254.9092	3464.25	2556.75
871.1722	1256.8134	3566.5	2661.55
871.3167	1258.7169	3591.5	2684.4
871.4611	1260.6196	3599.15	2691.55
871.6056	1262.5216	3599.5	2689.15
871.7501	1264.4229	3576.9	2673
871.8945	1266.3234	3556.85	2648.4
872.039	1268.2232	3522.9	2614.5
872.1834	1270.1223	3478.6	2570.3
872.3278	1272.0207	3449.4	2540.85
872.4723	1273.9183	3432.55	2514.95
872.6167	1275.8151	3452.45	2545.3
872.7611	1277.7113	3536.45	2628.7
872.9055	1279.6067	3667.5	2760.75
873.0499	1281.5014	3875.75	2966.75
873.1943	1283.3953	4115.8	3204.8
873.3386	1285.2885	4355.55	3449.4
873.483	1287.181	4521.75	3612.45
873.6274	1289.0727	4628.25	3721.8
873.7717	1290.9637	4610.8	3702.5
873.9161	1292.854	4563	3654.1
874.0604	1294.7435	4449.55	3541.6
874.2047	1296.6323	4322.75	3415.05
874.349	1298.5204	4200.3	3287.7
874.4933	1300.4077	4099.6	3190.45
874.6376	1302.2943	4001.05	3093.35
874.7819	1304.1802	3920.45	3013.55
874.9262	1306.0653	3821.6	2910.35
875.0705	1307.9497	3725.6	2816.4
875.2147	1309.8333	3610.45	2700.9
875.359	1311.7162	3536.2	2626.5
875.5032	1313.5984	3464.85	2556.45
875.6475	1315.4798	3399.4	2488.1
875.7917	1317.3605	3397.85	2473.75
875.9359	1319.2405	3331.85	2419.85
876.0801	1321.1197	3244.4	2334.3
876.2243	1322.9982	3112.55	2198.85
876.3685	1324.876	2968.75	2060.9
876.5127	1326.753	2844.45	1935.15
876.6569	1328.6293	2732.25	1823
876.801	1330.5048	2619.1	1706.95
876.9452	1332.3796	2523.2	1614.6
877.0893	1334.2537	2479.7	1543.65
877.2335	1336.127	2403.75	1495.05
877.3776	1337.9996	2368.7	1460.95
877.5217	1339.8714	2340.75	1434.25
877.6658	1341.7426	2368.35	1415.65
877.8099	1343.6129	2318.45	1408.3
877.954	1345.4826	2294.8	1386.2
878.0981	1347.3515	2286.65	1376.15
878.2422	1349.2196	2265.55	1354.65
878.3862	1351.087	2264.5	1353.8
878.5303	1352.9537	2260.25	1351.1
878.6743	1354.8197	2273.95	1364.6
878.8184	1356.6849	2292.15	1382.4
878.9624	1358.5493	2339.75	1432.95
879.1064	1360.4131	2394.85	1487.65
879.2504	1362.276	2475.45	1570
879.3944	1364.1383	2516.15	1607.55
879.5384	1365.9998	2528.25	1613.65
879.6823	1367.8606	2474.4	1562.35
879.8263	1369.7206	2440.9	1532.55
879.9702	1371.5799	2413.05	1501.15
880.1142	1373.4384	2377.35	1467.2
880.2581	1375.2962	2318.85	1409.5
880.402	1377.1533	2221.85	1311.65
880.5459	1379.0096	2143.6	1237.35
880.6898	1380.8652	2067.25	1161
880.8337	1382.7201	2011.9	1108.8
880.9776	1384.5742	1966.95	1059.05
881.1215	1386.4275	1934.8	1024.75
881.2653	1388.2802	1891	981.75
881.4092	1390.132	1877	968.3
881.553	1391.9832	1867.8	956
881.6968	1393.8336	1842.7	934.65
881.8406	1395.6832	1843.35	933.5
881.9844	1397.5322	1826.15	918.45
882.1282	1399.3803	1812.1	898.85
882.272	1401.2278	1796.7	887.95
882.4158	1403.0745	1779.65	875.9
882.5595	1404.9204	1773.3	865.85
882.7033	1406.7656	1764.8	854.45
882.847	1408.6101	1771.95	863.45
882.9908	1410.4538	1759.25	850.35
883.1345	1412.2968	1769.3	863.7
883.2782	1414.139	1779.55	874.15
883.4219	1415.9805	1795.55	892.55
883.5656	1417.8213	1815.15	900.8
883.7092	1419.6613	1843.75	938.7
883.8529	1421.5006	1888.4	982.15
883.9965	1423.3391	1950.15	1040.9
884.1402	1425.1769	2016.2	1110.15
884.2838	1427.0139	2146.8	1240.5
884.4274	1428.8502	2291.4	1384.6
884.571	1430.6858	2397	1490.5
884.7146	1432.5206	2462.05	1555.5
884.8582	1434.3547	2462.65	1555.15
885.0018	1436.188	2428	1523.75
885.1453	1438.0206	2407.45	1500.2
885.2889	1439.8524	2375.15	1468.1
885.4324	1441.6835	2373.2	1464.05
885.5759	1443.5139	2377.65	1470.05
885.7194	1445.3435	2371.25	1464.25
885.8629	1447.1724	2375.9	1470.95
886.0064	1449.0005	2379.15	1474.95
886.1499	1450.8279	2357.4	1452.15
886.2933	1452.6545	2359.6	1452.8
886.4368	1454.4804	2359.9	1455.65
886.5802	1456.3056	2354.5	1442
886.7237	1458.13	2332.3	1428.1
886.8671	1459.9536	2276.3	1370.55
887.0105	1461.7766	2233.95	1329.75
887.1539	1463.5987	2165.95	1259.45
887.2972	1465.4202	2092.8	1186.3
887.4406	1467.2409	2033.25	1127.75
887.584	1469.0608	1982.45	1079.85
887.7273	1470.88	1922.15	1016.35
887.8706	1472.6984	1875.4	969.75
888.0139	1474.5161	1850.75	942.3
888.1572	1476.3331	1822.5	916.1
888.3005	1478.1493	1810.75	905.9
888.4438	1479.9648	1800.8	897.85
888.5871	1481.7795	1800.55	893.05
888.7303	1483.5935	1796.75	892
888.8736	1485.4067	1783.35	874.55
889.0168	1487.2192	1787.65	880.4
889.16	1489.031	1791.8	884.75
889.3032	1490.842	1778.7	873.5
889.4464	1492.6522	1775.15	870.1
889.5896	1494.4618	1767.85	859.3
889.7327	1496.2705	1763.3	858.15
889.8759	1498.0785	1745	840.1
890.019	1499.8858	1740.35	836.15
890.1622	1501.6924	1736	833.6
890.3053	1503.4981	1724.1	819.15
890.4484	1505.3032	1707.55	804.15
890.5914	1507.1075	1702.65	796.6
890.7345	1508.911	1687.6	782.6
890.8776	1510.7138	1677.45	771.75
891.0206	1512.5159	1670.05	761.7
891.1637	1514.3172	1652.35	748.7
891.3067	1516.1178	1651.35	749.2
891.4497	1517.9176	1645.35	738.8
891.5927	1519.7166	1637.7	735.8
891.7357	1521.515	1636.85	726.75
891.8786	1523.3126	1630.6	727.15
892.0216	1525.1094	1622.9	718.3
892.1645	1526.9055	1612.4	711
892.3074	1528.7008	1611.2	708.25
892.4503	1530.4954	1604.1	700.4
892.5932	1532.2893	1600.6	699.9
892.7361	1534.0824	1604.85	699.15
892.879	1535.8747	1609.9	707.45
893.0218	1537.6663	1599.45	698.55
893.1647	1539.4572	1600.8	695.05
893.3075	1541.2473	1611.35	707.85
893.4503	1543.0367	1606.5	707.55
893.5931	1544.8253	1618.7	711
893.7359	1546.6132	1637.55	732.15
893.8787	1548.4003	1656.3	747.15
894.0214	1550.1867	1667.1	756.75
894.1642	1551.9723	1699.55	795.65
894.3069	1553.7572	1724.25	824.25
894.4496	1555.5414	1774.55	873.5
894.5923	1557.3247	1823.05	922.9
894.735	1559.1074	1893.45	995.35
894.8777	1560.8893	1965.55	1067.75
895.0204	1562.6705	2021.55	1121.75
895.163	1564.4509	2043.05	1145.3
895.3056	1566.2305	2077.75	1180.85
895.4482	1568.0094	2079	1183.1
895.5908	1569.7876	2075.4	1179.9
895.7334	1571.565	2080.5	1182.65
895.876	1573.3417	2086.6	1188.55
896.0186	1575.1176	2102.6	1204.1
896.1611	1576.8928	2129	1233.85
896.3036	1578.6672	2161.45	1268
896.4461	1580.4409	2204.95	1311.95
896.5886	1582.2138	2264.95	1368.8
896.7311	1583.986	2323.9	1430.85
896.8736	1585.7575	2394.7	1498.95
897.0161	1587.5282	2447.8	1555.9
897.1585	1589.2981	2505.3	1611.8
897.3009	1591.0673	2542.3	1646.55
897.4433	1592.8358	2585	1691.7
897.5857	1594.6035	2618.8	1722.6
897.7281	1596.3704	2600.2	1704.2
897.8705	1598.1366	2594	1699.95
898.0128	1599.9021	2583.05	1690.3
898.1551	1601.6668	2557.4	1661.45
898.2975	1603.4308	2568.65	1672.65
898.4398	1605.194	2621.2	1722
898.5821	1606.9564	2671.45	1780.9
898.7243	1608.7182	2785.95	1891.65
898.8666	1610.4791	2909.1	2019.9
899.0088	1612.2394	3068.85	2181.05
899.1511	1613.9988	3212.3	2324.2
899.2933	1615.7576	3291.95	2401.75
899.4355	1617.5156	3328	2427.6
899.5776	1619.2728	3249.9	2355.25
899.7198	1621.0293	3095.05	2200.3
899.862	1622.785	2905.4	2007.6
900.0041	1624.54	2705.45	1812.1
900.1462	1626.2942	2525.45	1633.45
900.2883	1628.0477	2350	1456
900.4304	1629.8005	2227.45	1331.2
900.5725	1631.5525	2097.65	1206.2
900.7145	1633.3037	2019.2	1128.95
900.8566	1635.0542	1937.65	1047.35
900.9986	1636.804	1880.15	987.95
901.1406	1638.553	1882.75	918.55
901.2826	1640.3013	1799.15	906.4
901.4245	1642.0488	1767.25	874.25
901.5665	1643.7955	1740.15	850.95
901.7085	1645.5416	1729.4	838.45
901.8504	1647.2868	1729.3	837.4
901.9923	1649.0313	1715.05	823.15
902.1342	1650.7751	1721.35	826.1
902.2761	1652.5181	1728	838.45
902.4179	1654.2604	1751.7	861.95
902.5598	1656.0019	1774.9	886.75
902.7016	1657.7427	1810.25	917.8
902.8434	1659.4828	1874.8	983.85
902.9852	1661.222	1954.15	1063.15
903.127	1662.9606	1996.55	1104.3
903.2687	1664.6984	2002.05	1107.75
903.4105	1666.4354	1956.45	1063.65
903.5522	1668.1717	1865.95	973.5
903.6939	1669.9072	1770.25	876.1
903.8356	1671.642	1675.05	778.95
903.9773	1673.3761	1598.8	705.95
904.119	1675.1094	1542.95	650.5
904.2606	1676.8419	1514.45	623.1
904.4022	1678.5737	1482.45	590.9
904.5439	1680.3048	1462.25	570.35
904.6855	1682.0351	1434.75	542.75
904.827	1683.7646	1426.25	534.15
904.9686	1685.4934	1412.95	521.35
905.1101	1687.2215	1403.8	511.9
905.2517	1688.9488	1391.35	499.55
905.3932	1690.6754	1387.8	498.3
905.5347	1692.4012	1379.75	488.5
905.6761	1694.1263	1372.45	480.9
905.8176	1695.8506	1365.1	474.05
905.9591	1697.5742	1356.35	466.05
906.1005	1699.297	1345.7	455.45
906.2419	1701.0191	1340.9	451.5
906.3833	1702.7404	1343.05	453.1
906.5246	1704.461	1331.7	441.5
906.666	1706.1808	1335.45	443.15
906.8073	1707.8999	1326.15	434
906.9487	1709.6182	1321.35	433.5
907.09	1711.3358	1322.3	433.6
907.2313	1713.0527	1316.25	429.65
907.3725	1714.7688	1319.25	424.75
907.5138	1716.4841	1322.35	432.5
907.655	1718.1987	1317.55	424.2
907.7962	1719.9126	1302.25	413.6
907.9374	1721.6257	1311.25	421.35
908.0786	1723.338	1302.55	416.55
908.2198	1725.0496	1295.45	405.85
908.3609	1726.7605	1302.75	411.75
908.502	1728.4706	1303.5	414.55
908.6431	1730.18	1292.45	402.65
908.7842	1731.8886	1292.15	402.85
908.9253	1733.5964	1307.6	401
909.0664	1735.3036	1287.65	397.5
909.2074	1737.0099	1279.25	389.65
909.3484	1738.7156	1282.9	397.7
909.4894	1740.4204	1285.9	398.15
909.6304	1742.1246	1278.45	388.4
909.7714	1743.8279	1274.05	386.8
909.9123	1745.5306	1274.15	386.9
910.0532	1747.2325	1276.9	389
910.1941	1748.9336	1270.15	380.55
910.335	1750.634	1267.9	377
910.4759	1752.3336	1274.75	385
910.6168	1754.0325	1260.25	373.7
910.7576	1755.7307	1260.2	371.8
910.8984	1757.4281	1260.8	373.6
911.0392	1759.1247	1277.15	380.45
911.18	1760.8206	1270	375.2
911.3208	1762.5158	1268	375.7
911.4615	1764.2102	1261.5	375.15
911.6022	1765.9039	1254.3	365.85
911.7429	1767.5968	1254.7	369.3
911.8836	1769.289	1252.6	364.7
912.0243	1770.9804	1254.9	364.8
912.1649	1772.6711	1254.05	365.25
912.3056	1774.361	1257.55	370.35
912.4462	1776.0502	1252.55	363.5
912.5868	1777.7386	1247.95	357.05
912.7274	1779.4263	1244.2	355.35
912.8679	1781.1132	1251.9	363.9
913.0084	1782.7994	1244.85	356.45
913.149	1784.4849	1242.45	358.55
913.2895	1786.1696	1261.8	358.05
913.4299	1787.8535	1240	354.4
913.5704	1789.5367	1240.65	354.5
913.7108	1791.2192	1239.65	354.7
913.8513	1792.9009	1266.25	352.65
913.9917	1794.5818	1243.75	352.05
914.132	1796.2621	1235.4	348.05
914.2724	1797.9415	1233.7	345.3
914.4128	1799.6202	1239.5	350.45
914.5531	1801.2982	1230.05	341.5
914.6934	1802.9755	1231.65	342.2
914.8337	1804.6519	1223.4	336.35
914.9739	1806.3277	1223.95	337.95
915.1142	1808.0027	1229.55	343.55
915.2544	1809.6769	1220.2	334.1
915.3946	1811.3504	1230.55	343.55
915.5348	1813.0231	1218.8	332.45
915.675	1814.6951	1223.05	338
915.8151	1816.3664	1226.65	337.2
915.9553	1818.0369	1223.35	337.7
916.0954	1819.7067	1222.9	336.35
916.2355	1821.3757	1226.45	337.4
916.3755	1823.044	1219.2	332.95
916.5156	1824.7115	1221.85	333.05
916.6556	1826.3783	1217	329.4
916.7956	1828.0443	1215.05	330.1
916.9356	1829.7096	1223.05	333.8
917.0756	1831.3741	1215.25	325.05
917.2155	1833.0379	1217.8	332.25
917.3555	1834.701	1217.15	328.5
917.4954	1836.3633	1215.9	327.8
917.6353	1838.0248	1212.5	325.4
917.7751	1839.6856	1216.15	330
917.915	1841.3457	1211.85	326.9
918.0548	1843.005	1214.6	328.45
918.1946	1844.6636	1212.3	324.55
918.3344	1846.3214	1212.45	326.35
918.4742	1847.9785	1212.2	326.45
918.6139	1849.6349	1211.8	323.9
918.7537	1851.2904	1214.1	316
918.8934	1852.9453	1211.5	321.75
919.0331	1854.5994	1210.2	320.7
919.1727	1856.2528	1214	322
919.3124	1857.9054	1208	318.7
919.452	1859.5572	1202.3	316.5
919.5916	1861.2083	1205.05	318.1
919.7312	1862.8587	1213.25	327.05
919.8708	1864.5084	1209.25	319
920.0103	1866.1572	1206.55	318.05
920.1498	1867.8054	1201.9	314
920.2893	1869.4528	1200.45	312.45
920.4288	1871.0994	1199.95	310.7
920.5683	1872.7453	1199.35	310.45
920.7077	1874.3905	1203.55	310.2
920.8471	1876.0349	1201.45	313.3
920.9865	1877.6786	1200.1	311.7
921.1259	1879.3215	1198.7	310.25
921.2653	1880.9637	1194.9	306.3
921.4046	1882.6051	1193.3	306.25
921.5439	1884.2458	1195.1	304.95
921.6832	1885.8858	1189.3	303.1
921.8225	1887.525	1195.3	306.65
921.9617	1889.1634	1188.65	302.7
922.101	1890.8011	1187.8	300.3
922.2402	1892.4381	1191.1	302.85
922.3794	1894.0743	1185.45	298.55
922.5185	1895.7098	1185.2	298.85
922.6577	1897.3446	1189.2	303.3
922.7968	1898.9786	1194	305.55
922.9359	1900.6118	1182.5	294.05
923.075	1902.2443	1188.05	297.85
923.214	1903.8761	1183.4	295.8
923.3531	1905.5071	1185.1	299.75
923.4921	1907.1374	1178.1	290
923.6311	1908.7669	1178.6	292.8
923.77	1910.3957	1175.35	289.25
923.909	1912.0237	1178	290.6
924.0479	1913.651	1174.55	283.5
924.1868	1915.2776	1175.65	288.05
924.3257	1916.9034	1170.75	285.05
924.4646	1918.5285	1173.6	290.2
924.6034	1920.1528	1169.1	282.05
924.7422	1921.7764	1170.8	284.4
924.881	1923.3992	1171.05	285.4
925.0198	1925.0213	1166.9	278.05
925.1586	1926.6427	1163.55	278.8
925.2973	1928.2633	1254.6	280.2
925.436	1929.8832	1168.45	278.85
925.5747	1931.5023	1169.1	281.25
925.7134	1933.1207	1167.35	278.8
925.852	1934.7383	1164.95	278.25
925.9906	1936.3552	1157.8	269.9
926.1292	1937.9714	1157.85	272
926.2678	1939.5868	1163.5	275.3
926.4064	1941.2015	1160.65	270.65
926.5449	1942.8154	1156.15	270.4
926.6834	1944.4286	1159.65	272.15
926.8219	1946.041	1175.35	265.75
926.9604	1947.6528	1158.95	266.95
927.0988	1949.2637	1158.9	271.2
927.2372	1950.8739	1151.15	264.15
927.3756	1952.4834	1153.6	266.45
927.514	1954.0921	1155.85	267.9
927.6523	1955.7001	1157.9	268.8
927.7907	1957.3074	1147.75	263.2
927.929	1958.9139	1142.5	254.6
928.0673	1960.5197	1150.5	264.15
928.2055	1962.1247	1149.05	264.3
928.3438	1963.729	1146.85	262.05
928.482	1965.3325	1153.1	262.9
928.6202	1966.9353	1140.95	254
928.7584	1968.5374	1141.65	253.95
928.8965	1970.1387	1142.1	257
929.0346	1971.7393	1137.8	251.85
929.1727	1973.3392	1142.5	257.5
929.3108	1974.9383	1134.2	249
929.4489	1976.5366	1132.65	248.05
929.5869	1978.1342	1135.25	250.8
929.7249	1979.7311	1134.75	249.7
929.8629	1981.3273	1132.7	248
930.0009	1982.9227	1137.55	252.15
930.1388	1984.5173	1131.1	246.8
930.2767	1986.1112	1128.1	244.7
930.4146	1987.7044	1131.75	247.95
930.5525	1989.2968	1136.85	251.7
930.6904	1990.8885	1134.15	245.95
930.8282	1992.4795	1130.95	248.3
930.966	1994.0697	1126.7	244.15
931.1038	1995.6592	1124.45	240.15
931.2415	1997.2479	1128.1	245.5
931.3793	1998.8359	1124.95	240.4
931.517	2000.4232	1121.45	240
931.6547	2002.0097	1118.65	237.55
931.7923	2003.5955	1120.55	236.65
931.93	2005.1805	1119.75	235.2
932.0676	2006.7648	1125.85	244.4
932.2052	2008.3484	1121.7	238.9
932.3427	2009.9312	1124.15	238.9
932.4803	2011.5133	1118.6	237.25
932.6178	2013.0946	1118.45	237.2
932.7553	2014.6752	1116.15	234.5
932.8928	2016.2551	1115.5	230.15
933.0302	2017.8342	1115.35	233.15
933.1676	2019.4126	1114.35	232.9
933.305	2020.9902	1112.05	233
933.4424	2022.5672	1111.35	227.15
933.5798	2024.1433	1115.85	229.75
933.7171	2025.7188	1113.9	235.8
933.8544	2027.2935	1112.05	230.15
933.9917	2028.8674	1104.1	224.4
934.129	2030.4406	1107.1	227.4
934.2662	2032.0131	1108.4	227.55
934.4034	2033.5849	1114.8	225.55
934.5406	2035.1559	1111.5	230.65
934.6778	2036.7261	1102.35	220.15
934.8149	2038.2957	1111.5	228.15
934.952	2039.8645	1108.75	226.55
935.0891	2041.4325	1111.15	224.7
935.2262	2042.9998	1106.75	224.2
935.3632	2044.5664	1105.35	222.2
935.5002	2046.1323	1103.75	222.7
935.6372	2047.6974	1104.4	223.6
935.7742	2049.2617	1102.6	222.3
935.9111	2050.8254	1112.9	227.3
936.048	2052.3883	1105.55	222.15
936.1849	2053.9504	1109.15	224.4
936.3218	2055.5118	1103.3	219.35
936.4586	2057.0725	1106.95	222.4
936.5955	2058.6325	1102.15	220.65
936.7323	2060.1917	1096.95	214.35
936.869	2061.7502	1098.9	215.2
937.0058	2063.3079	1093.4	212.35
937.1425	2064.8649	1099.05	213.15
937.2792	2066.4212	1101	218.25
937.4159	2067.9767	1095.2	212.65
937.5525	2069.5315	1095.65	213.8
937.6891	2071.0856	1095.35	211.25
937.8257	2072.6389	1092.9	211.45
937.9623	2074.1915	1089.25	209.55
938.0989	2075.7433	1091.9	208.75
938.2354	2077.2945	1090.65	209.8
938.3719	2078.8448	1089.65	207.15
938.5084	2080.3945	1092.75	210.95
938.6448	2081.9434	1091.35	207.25
938.7812	2083.4916	1093.85	208.2
938.9176	2085.039	1097.45	211.3
939.054	2086.5857	1092	203.25
939.1903	2088.1317	1096.55	209.35
939.3267	2089.677	1090.95	205.3
939.463	2091.2215	1091.8	205.2
939.5992	2092.7652	1091.55	203.5
939.7355	2094.3083	1094.2	208.45
939.8717	2095.8506	1089.55	206.6
940.0079	2097.3921	1085	202.35
940.1441	2098.933	1085.3	199.9
940.2802	2100.4731	1088	203.85
940.4163	2102.0124	1106.1	204.3
940.5524	2103.5511	1085.3	197.95
940.6885	2105.089	1090.6	207.95
940.8245	2106.6261	1086.1	202.45
940.9606	2108.1626	1082.85	199.1
941.0965	2109.6983	1111.4	198.6
941.2325	2111.2332	1091.55	205.3
941.3684	2112.7675	1086.4	201.25
941.5044	2114.301	1082.45	196.7
941.6403	2115.8337	1092.25	208.05
941.7761	2117.3657	1084.05	198.5
941.912	2118.897	1081.6	195.3
942.0478	2120.4276	1090.45	200.5
942.1835	2121.9575	1081.1	196.1
942.3193	2123.4866	1080.1	190.4
942.455	2125.0149	1083.05	196.7
942.5907	2126.5426	1077.95	195
942.7264	2128.0695	1080.6	195.7
942.8621	2129.5956	1071.7	192.65
942.9977	2131.1211	1080.35	192.8
943.1333	2132.6458	1080.7	198.8
943.2689	2134.1698	1080.75	194.05
943.4044	2135.693	1082.8	194.75
943.54	2137.2155	1080.5	192.95
943.6755	2138.7373	1071.5	185.9
943.8109	2140.2584	1073.05	190.65
943.9464	2141.7787	1076.15	188.25
944.0818	2143.2983	1066.25	187.8
944.2172	2144.8171	1065.1	184.15
944.3526	2146.3353	1073.05	186.35
944.4879	2147.8527	1072.45	191.95
944.6232	2149.3693	1069.85	183.85
944.7585	2150.8853	1070.3	185.65
944.8938	2152.4005	1074.45	187.4
945.029	2153.9149	1071.1	185.75
945.1642	2155.4287	1069.85	186
945.2994	2156.9417	1071.85	186.85
945.4346	2158.454	1072.55	184.45
945.5697	2159.9655	1065.5	183.25
945.7048	2161.4764	1070.4	187.35
945.8399	2162.9865	1069.25	186.4
945.9749	2164.4958	1068.75	182.85
946.1099	2166.0045	1067.15	180.75
946.2449	2167.5124	1059.45	176.4
946.3799	2169.0195	1066.9	184.05
946.5148	2170.526	1069.55	186
946.6498	2172.0317	1066.45	180.65
946.7846	2173.5367	1063.8	181.25
946.9195	2175.0409	1065.15	182.75
947.0543	2176.5445	1064.85	182.05
947.1891	2178.0473	1059.6	175.05
947.3239	2179.5494	1069.35	177.7
947.4587	2181.0507	1063.15	176.75
947.5934	2182.5513	1061.6	176.5
947.7281	2184.0512	1062.5	178
947.8628	2185.5504	1061.2	175.5
947.9974	2187.0488	1060.6	176.25
948.132	2188.5465	1063.6	181.65
948.2666	2190.0435	1061.15	176.9
948.4012	2191.5397	1059	175.3
948.5357	2193.0353	1061.3	175.95
948.6702	2194.5301	1063.05	176.05
948.8047	2196.0241	1062.65	175.35
948.9392	2197.5175	1060.1	173.9
949.0736	2199.0101	1065.85	174.95
949.208	2200.502	1052.9	169.35
949.3424	2201.9931	1055	171.65
949.4767	2203.4835	1056.9	173.35
949.611	2204.9733	1072.45	170.1
949.7453	2206.4622	1051.65	168.25
949.8796	2207.9505	1055.2	171.85
950.0138	2209.438	1047.2	164.7
950.148	2210.9248	1053.7	169.65
950.2822	2212.4109	1048.2	163.65
950.4164	2213.8962	1053.15	163.55
950.5505	2215.3809	1055.95	167.55
950.6846	2216.8648	1056.3	167.9
950.8186	2218.3479	1059.65	167.8
950.9527	2219.8304	1054.4	165.5
951.0867	2221.3121	1055.1	164.8
951.2207	2222.7931	1050.6	164.7
951.3546	2224.2733	1049.7	164.7
951.4886	2225.7529	1047.8	163.3
951.6225	2227.2317	1053.6	166.9
951.7563	2228.7098	1045.15	162.4
951.8902	2230.1872	1040.3	155.1
952.024	2231.6638	1040.3	158.9
952.1578	2233.1397	1046.4	158.9
952.2916	2234.6149	1047.05	165.6
952.4253	2236.0894	1043.4	158.65
952.559	2237.5632	1055.4	159.35
952.6927	2239.0362	1043.45	159.6
952.8263	2240.5085	1046.05	160.8
952.9599	2241.9801	1046.3	160.6
953.0935	2243.4509	1042.55	157.5
953.2271	2244.921	1044.95	158.7
953.3606	2246.3904	1045.9	158.25
953.4941	2247.8591	1037.55	152
953.6276	2249.3271	1044.8	161.1
953.7611	2250.7943	1042.4	156.45
953.8945	2252.2608	1038.15	153.05
954.0279	2253.7266	1039.1	153.4
954.1612	2255.1917	1038.95	153.45
954.2946	2256.656	1036.7	154
954.4279	2258.1197	1036.05	152.25
954.5612	2259.5826	1043.55	156.75
954.6944	2261.0447	1039.75	154.1
954.8276	2262.5062	1039.3	151
954.9608	2263.9669	1037.75	151.25
955.094	2265.4269	1032.45	147.4
955.2271	2266.8862	1034.2	150.05
955.3602	2268.3448	1032.75	147
955.4933	2269.8026	1035.05	151.95
955.6264	2271.2598	1032.1	148.3
955.7594	2272.7162	1034.4	151.15
955.8924	2274.1719	1033.8	148.75
956.0253	2275.6268	1038.2	151.6
956.1583	2277.0811	1037.85	152.25
956.2912	2278.5346	1030.8	145.8
956.4241	2279.9874	1031.25	147.8
956.5569	2281.4395	1032	148.85
956.6897	2282.8908	1036.55	147.25
956.8225	2284.3414	1032.7	145.65
956.9553	2285.7914	1032.8	147.8
957.088	2287.2406	1034.5	148.35
957.2207	2288.689	1033	147.1
957.3534	2290.1368	1035.4	146.2
957.486	2291.5838	1037.9	147.9
957.6186	2293.0302	1034.7	144.7
957.7512	2294.4758	1032.3	146.35
957.8838	2295.9206	1031.45	144.5
958.0163	2297.3648	1027	142.5
958.1488	2298.8082	1031.2	144.65
958.2813	2300.251	1029.25	143.15
958.4137	2301.693	1035.15	145.25
958.5461	2303.1343	1031.2	145.05
958.6785	2304.5748	1026.1	139.9
958.8108	2306.0147	1028.85	143.05
958.9432	2307.4538	1024.5	137.9
959.0754	2308.8922	1023.7	141.55
959.2077	2310.3299	1025.65	142.5
959.3399	2311.7669	1028.6	145.05
959.4721	2313.2031	1023.3	139.1
959.6043	2314.6387	1026.55	141.15
959.7365	2316.0735	1023.8	137.85
959.8686	2317.5076	1024	137.75
960.0006	2318.941	1024.9	137.45
960.1327	2320.3737	1023.9	136.45
960.2647	2321.8056	1027.5	139.7
960.3967	2323.2369	1025.95	137.75
960.5287	2324.6674	1026.6	139.25
960.6606	2326.0972	1025.85	138.2
960.7925	2327.5263	1028.2	142.25
960.9244	2328.9547	1029.1	142.75
961.0562	2330.3823	1032.35	145.35
961.1881	2331.8092	1033.3	143.95
961.3198	2333.2355	1022.35	133.4
961.4516	2334.661	1020.45	133.75
961.5833	2336.0858	1021.9	133.3
961.715	2337.5098	1020.3	133.7
961.8467	2338.9332	1017.55	129.25
961.9783	2340.3558	1022.65	133.7
962.1099	2341.7778	1019.2	132.3
962.2415	2343.199	1020.15	132.8
962.373	2344.6195	1017.9	131.95
962.5045	2346.0393	1017.1	132.3
962.636	2347.4583	1018.65	131.45
962.7675	2348.8767	1025.15	135.95
962.8989	2350.2943	1021.5	131.85
963.0303	2351.7113	1021.8	131.35
963.1617	2353.1275	1016.9	130.8
963.293	2354.543	1028.15	132
963.4243	2355.9578	1017.75	128.8
963.5556	2357.3718	1015.6	130.5
963.6868	2358.7852	1018.15	129.35
963.818	2360.1978	1018.35	131.6
963.9492	2361.6098	1014.2	128.3
964.0803	2363.021	1019.45	128.7
964.2114	2364.4315	1015.55	129
964.3425	2365.8413	1017.15	129.75
964.4736	2367.2504	1013.95	130.1
964.6046	2368.6587	1017.95	133
964.7356	2370.0664	1013.6	126.75
964.8666	2371.4733	1016.7	132.5
964.9975	2372.8795	1015.35	131.55
965.1284	2374.285	1017.75	128.5
965.2593	2375.6899	1011.6	126.6
965.3901	2377.0939	1012.5	125.75
965.5209	2378.4973	1013.75	129.7
965.6517	2379.9	1013.5	127.75
965.7825	2381.3019	1011	125.75
965.9132	2382.7032	1013.55	129.45
966.0439	2384.1037	1011	128.1
966.1745	2385.5035	1009.75	126.25
966.3051	2386.9027	1005.9	122.8
966.4357	2388.3011	1013.5	123.9
966.5663	2389.6987	1008.2	121.55
966.6968	2391.0957	1009	121.3
966.8273	2392.492	1008.15	122.55
966.9578	2393.8876	1006.15	120.6
967.0882	2395.2824	1004.55	116.4
967.2186	2396.6765	1007.65	123.25
967.349	2398.07	1007.7	121
967.4793	2399.4627	1011.75	123.7
967.6097	2400.8547	1004.35	117.8
967.7399	2402.246	1007.75	112.6
967.8702	2403.6366	1005.35	117.5
968.0004	2405.0265	1003	119.05
968.1306	2406.4156	1008.95	119.75
968.2607	2407.8041	1008.55	118.65
968.3909	2409.1918	1010.95	121.35
968.521	2410.5789	1006.95	120.1
968.651	2411.9652	1009.15	120.8
968.781	2413.3508	1005.65	118.5
968.911	2414.7358	1005.7	119.45
969.041	2416.12	1004.3	118.9
969.1709	2417.5035	1002.3	117.95
969.3008	2418.8863	1002.8	116.8
969.4307	2420.2684	1004.3	115.35
969.5606	2421.6497	1004.55	115.9
969.6904	2423.0304	1003.6	116.2
969.8201	2424.4104	1003.7	116.4
969.9499	2425.7896	1009.45	117.6
970.0796	2427.1682	1000.85	114.5
970.2093	2428.546	1001.55	113.4
970.3389	2429.9232	1003.1	112.35
970.4685	2431.2996	1002.45	115.4
970.5981	2432.6753	997.5	111.55
970.7277	2434.0503	1001.7	114.7
970.8572	2435.4246	999.3	113.65
970.9867	2436.7982	1003.8	114.7
971.1161	2438.1711	997.35	111.75
971.2456	2439.5433	995.85	108.8
971.375	2440.9148	1002.5	109.9
971.5043	2442.2856	997.45	111.95
971.6336	2443.6557	1002.15	114.8
971.7629	2445.025	999.1	113.85
971.8922	2446.3937	996.45	108.3
972.0214	2447.7617	1004.35	118.55
972.1506	2449.1289	994.15	107.9
972.2798	2450.4955	1000.7	110.65
972.4089	2451.8613	995.7	109.95
972.538	2453.2265	1000.55	115.65
972.6671	2454.5909	998.3	110.2
972.7961	2455.9546	994.65	106.5
972.9251	2457.3177	993.15	105.95
973.0541	2458.68	993.95	105.65
973.1831	2460.0416	999	112.45
973.312	2461.4025	996.05	108.65
973.4408	2462.7627	1006.4	107.95
973.5697	2464.1222	994.3	110.65
973.6985	2465.4811	990.9	105.9
973.8273	2466.8392	990.2	103.9
973.956	2468.1966	995.85	105.9
974.0847	2469.5533	997.7	108.15
974.2134	2470.9093	991.7	106.5
974.3421	2472.2645	996.3	108.4
974.4707	2473.6191	997.6	112.45
974.5993	2474.973	994	106.75
974.7278	2476.3262	998.45	110.4
974.8563	2477.6787	995.4	109.1
974.9848	2479.0305	997.35	110.35
975.1132	2480.3816	992.9	104.55
975.2417	2481.7319	992.5	106.2
975.37	2483.0816	997.1	109.5
975.4984	2484.4306	997.35	109.7
975.6267	2485.7789	992.85	106.1
975.755	2487.1264	989.15	102.2
975.8833	2488.4733	993.45	111.05
976.0115	2489.8195	1008.85	107.05
976.1397	2491.165	994	104.85
976.2678	2492.5097	990.95	103.7
976.3959	2493.8538	988.7	103.1
976.524	2495.1972	989.3	101.75
976.6521	2496.5398	991.2	104.95
976.7801	2497.8818	991.8	103.1
976.9081	2499.2231	989.6	103.45
977.036	2500.5637	993.85	106.2
977.164	2501.9035	991.55	104.85
977.2918	2503.2427	994.4	102.1
977.4197	2504.5812	992.55	107.4
977.5475	2505.919	992.3	103.95
977.6753	2507.256	987.25	102.6
977.8031	2508.5924	988.05	102.55
977.9308	2509.9281	992.15	100.5
978.0585	2511.2631	984.45	99.4
978.1861	2512.5974	987.9	101.9
978.3137	2513.9309	981.7	94
978.4413	2515.2638	1015	100
978.5689	2516.596	986.25	102.35
978.6964	2517.9275	986.8	98.55
978.8239	2519.2583	987.4	100.9
978.9513	2520.5884	984.95	95.9
979.0788	2521.9178	984.45	98.5
979.2062	2523.2465	985.65	100.75
979.3335	2524.5745	981.6	97.85
979.4608	2525.9018	982.35	94.8
979.5881	2527.2284	980.9	95.95
979.7154	2528.5543	982.45	97.75
979.8426	2529.8796	986.5	99.05
979.9698	2531.2041	984.05	98.65
980.0969	2532.5279	982.75	100.5
980.224	2533.851	985.3	98.85
980.3511	2535.1735	982.1	96.8
980.4781	2536.4952	981.05	93.9
980.6052	2537.8163	983.75	97.6
980.7321	2539.1366	983.25	96.75
980.8591	2540.4562	984.15	96.6
980.986	2541.7752	982.5	96.25
981.1129	2543.0935	984.75	100.2
981.2397	2544.411	982.6	93.55
981.3665	2545.7279	981.8	96.9
981.4933	2547.0441	984.45	97.85
981.62	2548.3596	987.6	99.55
981.7467	2549.6744	982.1	97.85
981.8734	2550.9885	989.1	97.1
982.0001	2552.3019	978.7	94.7
982.1267	2553.6146	983.7	97.1
982.2532	2554.9266	982.65	99.05
982.3798	2556.2379	981.25	95.75
982.5063	2557.5485	974.8	90.7
982.6327	2558.8585	987.6	95.1
982.7592	2560.1677	986.45	95.6
982.8856	2561.4762	982.2	96.15
983.0119	2562.7841	984.3	94.25
983.1383	2564.0913	976.25	90.25
983.2646	2565.3977	982.05	96.95
983.3908	2566.7035	981.3	94.75
983.517	2568.0086	987.05	100.55
983.6432	2569.313	980.15	95.2
983.7694	2570.6167	985.7	97
983.8955	2571.9197	978.9	92.5
984.0216	2573.222	981.35	93.3
984.1476	2574.5236	982.7	93.85
984.2737	2575.8246	983.45	97.9
984.3996	2577.1248	981.15	92
984.5256	2578.4244	977.45	92.45
984.6515	2579.7232	978.75	93.6
984.7774	2581.0214	1009.15	99.6
984.9032	2582.3189	978.55	92.95
985.029	2583.6157	986.45	96.2
985.1548	2584.9118	983.35	98
985.2806	2586.2072	986.75	100.9
985.4063	2587.5019	981.15	93.85
985.5319	2588.7959	981.15	92.8
985.6576	2590.0893	984.9	97.95
985.7832	2591.3819	979.25	93.8
985.9087	2592.6739	981.45	96.1
986.0343	2593.9652	983.85	96.55
986.1597	2595.2557	980.3	95.95
986.2852	2596.5456	989.2	101.7
986.4106	2597.8348	984.5	99.75
986.536	2599.1234	982.25	98.3
986.6614	2600.4112	981.6	96.95
986.7867	2601.6983	983.45	95
986.912	2602.9848	983.05	96.85
987.0372	2604.2705	992.4	98.85
987.1624	2605.5556	985.15	99.65
987.2876	2606.84	979.6	92.85
987.4128	2608.1237	981.35	94.15
987.5379	2609.4067	979.6	93
987.6629	2610.689	989.35	93.5
987.788	2611.9707	983.25	94.9
987.913	2613.2516	982.05	93.15
988.0379	2614.5319	976.85	92.05
988.1629	2615.8115	980	94.85
988.2878	2617.0903	979.6	93.1
988.4126	2618.3685	976.5	89.95
988.5375	2619.6461	977.15	93.75
988.6622	2620.9229	977.2	93.15
988.787	2622.199	979.1	92.75
988.9117	2623.4745	976.35	90.85
989.0364	2624.7493	979.65	95.55
989.161	2626.0234	977.7	94.5
989.2857	2627.2968	971	87.6
989.4102	2628.5695	978.75	94.7
989.5348	2629.8415	976.4	94.5
989.6593	2631.1128	977.1	90.55
989.7837	2632.3835	973.9	87.7
989.9082	2633.6535	972.3	87.7
990.0326	2634.9228	975.05	90.7
990.1569	2636.1914	971.75	86.9
990.2812	2637.4593	974.3	91.25
990.4055	2638.7265	976.85	90.5
990.5298	2639.9931	973.05	89.65
990.654	2641.259	973.95	90.6
990.7782	2642.5242	973.45	89.5
990.9023	2643.7887	972.75	88.2
991.0264	2645.0525	971.2	86.45
991.1505	2646.3156	976.25	90.45
991.2745	2647.5781	969.95	84.9
991.3985	2648.8398	972.8	89.3
991.5225	2650.1009	1008.9	87.25
991.6464	2651.3613	974.4	89.9
991.7703	2652.6211	971.15	88.2
991.8942	2653.8801	968	86
992.018	2655.1385	972.95	86.25
992.1418	2656.3961	971.2	85.75
992.2655	2657.6531	968.8	85.15
992.3892	2658.9094	971.45	87.45
992.5129	2660.1651	967.7	84.3
992.6366	2661.42	973.2	88.2
992.7602	2662.6743	972.9	88.55
992.8837	2663.9279	975.2	92.7
993.0073	2665.1808	972.6	88.35
993.1307	2666.433	976.9	92.6
993.2542	2667.6846	968.95	85.1
993.3776	2668.9354	979.75	93.9
993.501	2670.1856	976.05	91.3
993.6244	2671.4351	973.5	90.4
993.7477	2672.6839	976.25	90
993.8709	2673.9321	976.5	95.05
993.9942	2675.1795	975.1	89.4
994.1174	2676.4263	975.95	91.1
994.2405	2677.6724	976.5	95.05
994.3637	2678.9179	973.65	87.5
994.4868	2680.1626	973.1	90.2
994.6098	2681.4067	977.55	91.6
994.7328	2682.6501	974.1	90.85
994.8558	2683.8928	973.6	90.35
994.9788	2685.1348	973.25	90.6
995.1017	2686.3761	972.6	88.7
995.2245	2687.6168	976.7	91.25
995.3474	2688.8568	970.65	85.5
995.4702	2690.0961	968.15	85.1
995.5929	2691.3348	969.65	85.1
995.7156	2692.5727	969.8	86.25
995.8383	2693.81	971.3	87.7
995.961	2695.0466	968.7	85.55
996.0836	2696.2826	972	85.05
996.2062	2697.5178	989.8	87.3
996.3287	2698.7524	971.45	88.95
996.4512	2699.9863	975.65	88.9
996.5737	2701.2195	973.65	91.2
996.6961	2702.452	974.1	90.35
996.8185	2703.6839	973.95	89.2
996.9408	2704.9151	974.1	91.85
997.0631	2706.1456	974.4	89.3
997.1854	2707.3755	973.65	89.5
997.3077	2708.6046	978.2	91.1
997.4299	2709.8331	976.45	92.5
997.552	2711.0609	977.9	94.1
997.6742	2712.2881	977.15	93.45
997.7963	2713.5145	983.15	95.85
997.9183	2714.7403	982.4	99.15
998.0403	2715.9654	985.45	100.6
998.1623	2717.1899	997.8	98.05
998.2842	2718.4136	987.2	102.95
998.4062	2719.6367	988.15	105.75
998.528	2720.8591	996.75	109
998.6498	2722.0809	996.9	112.7
998.7716	2723.3019	998.9	110.95
998.8934	2724.5223	998.85	113.4
999.0151	2725.7421	1002.75	117.6
999.1368	2726.9611	999.1	115.45
999.2584	2728.1795	1003.4	117.7
999.38	2729.3972	991.5	108.6
999.5016	2730.6142	995.75	108.15
999.6231	2731.8306	992.05	107.45
999.7446	2733.0462	984.9	101
999.8661	2734.2612	986.7	98.2
999.9875	2735.4756	982.5	98.4
1000.1089	2736.6892	983.6	98.9
1000.2302	2737.9022	977.05	94.95
1000.3515	2739.1145	972.05	89.8
1000.4728	2740.3262	985.6	94.55
1000.594	2741.5372	971.85	87.85
1000.7152	2742.7475	974.1	91.05
1000.8363	2743.9571	973.55	87.7
1000.9575	2745.1661	972.55	84.2
1001.0785	2746.3744	967.85	83.65
1001.1996	2747.582	966.75	82.3
1001.3206	2748.7889	965.65	78.3
1001.4415	2749.9952	963.55	79.1
1001.5625	2751.2008	964.2	80.85
1001.6833	2752.4057	965.7	81.2
1001.8042	2753.61	963.1	80.15
1001.925	2754.8136	961.9	77.2
1002.0458	2756.0165	959.8	76.95
1002.1665	2757.2188	959.2	75.1
1002.2872	2758.4204	958.5	76.2
1002.4078	2759.6213	965.45	79.95
1002.5285	2760.8215	964.2	77.15
1002.649	2762.0211	960.15	74.1
1002.7696	2763.22	965.55	78.45
1002.8901	2764.4182	963.5	80.5
1003.0106	2765.6158	959.75	75.85
1003.131	2766.8127	960.75	76.35
1003.2514	2768.009	958.65	77.65
1003.3717	2769.2045	958.2	76.35
1003.492	2770.3994	961.1	76
1003.6123	2771.5936	961.7	79
1003.7325	2772.7872	956.9	74.55
1003.8527	2773.9801	963.25	79.8
1003.9729	2775.1723	974.15	73.1
1004.093	2776.3639	953.8	72.55
1004.2131	2777.5548	958.7	75.2
1004.3331	2778.745	954.5	69.85
1004.4531	2779.9346	955.2	74.4
1004.5731	2781.1235	954.4	72.1
1004.693	2782.3117	953	73.45
1004.8129	2783.4992	952.45	70.25
1004.9328	2784.6861	957.35	73.85
1005.0526	2785.8723	960.45	77.75
1005.1723	2787.0579	959.5	75.7
1005.2921	2788.2428	958.95	75.65
1005.4118	2789.427	952.9	69.45
1005.5314	2790.6106	956.75	74.1
1005.651	2791.7935	961.05	79.4
1005.7706	2792.9757	957	76.05
1005.8902	2794.1573	963.1	78.25
1006.0097	2795.3382	962.95	81.5
1006.1291	2796.5184	960.8	80.05
1006.2485	2797.698	963.4	79.45
1006.3679	2798.8769	966.05	83.75
1006.4873	2800.0551	965.2	81.75
1006.6066	2801.2327	968.9	85.1
1006.7258	2802.4096	966.4	85.3
1006.8451	2803.5859	970.55	87.25
1006.9642	2804.7615	972.8	90.45
1007.0834	2805.9364	970.3	89.6
1007.2025	2807.1106	974.7	92.85
1007.3216	2808.2842	981.35	98.65
1007.4406	2809.4572	981.55	101.15
1007.5596	2810.6294	985.1	101.6
1007.6785	2811.801	986.05	103.2
1007.7975	2812.972	993.4	113.5
1007.9163	2814.1423	997.9	116.1
1008.0352	2815.3119	1008.95	126
1008.154	2816.4808	1009.35	128.3
1008.2727	2817.6491	1021.15	139.7
1008.3914	2818.8167	1026.85	146.05
1008.5101	2819.9837	1041.1	155.65
1008.6288	2821.15	1053.25	169.1
1008.7474	2822.3157	1065.1	183.9
1008.8659	2823.4807	1077.5	194.45
1008.9844	2824.645	1094.8	210.9
1009.1029	2825.8086	1104.3	221.15
1009.2214	2826.9716	1126.7	245.55
1009.3398	2828.134	1141.9	261.4
1009.4581	2829.2957	1153.35	269.35
1009.5764	2830.4567	1169.35	289.45
1009.6947	2831.617	1182.4	299.55
1009.813	2832.7767	1177.5	298.35
1009.9312	2833.9358	1183.05	301.5
1010.0493	2835.0941	1181.6	299.5
1010.1675	2836.2519	1174.75	294.8
1010.2855	2837.4089	1162.05	280.15
1010.4036	2838.5653	1155.7	275.85
1010.5216	2839.7211	1145.35	264.25
1010.6396	2840.8761	1145.35	264.2
1010.7575	2842.0306	1141.05	260.55
1010.8754	2843.1843	1147.4	265.8
1010.9932	2844.3374	1146.6	263.9
1011.111	2845.4899	1148.2	265.7
1011.2288	2846.6417	1155.9	273.75
1011.3465	2847.7928	1165.8	285.3
1011.4642	2848.9433	1170.35	287.25
1011.5818	2850.0931	1176.2	293.15
1011.6995	2851.2422	1185.5	304.25
1011.817	2852.3907	1189.05	306.95
1011.9345	2853.5385	1199.2	316.2
1012.052	2854.6857	1232.45	324.5
1012.1695	2855.8323	1208.4	327.05
1012.2869	2856.9781	1217	334.85
1012.4042	2858.1233	1232.6	351.15
1012.5216	2859.2679	1231.55	348.85
1012.6389	2860.4118	1245.15	363
1012.7561	2861.555	1252.45	366.9
1012.8733	2862.6976	1258.35	373.65
1012.9905	2863.8395	1259.35	378
1013.1076	2864.9808	1261.5	380.1
1013.2247	2866.1214	1265.1	385.5
1013.3417	2867.2614	1277.35	394.95
1013.4587	2868.4007	1276.95	394.2
1013.5757	2869.5393	1274.5	392.6
1013.6926	2870.6773	1285.65	402.75
1013.8095	2871.8146	1289.1	405.55
1013.9263	2872.9513	1285.45	402.1
1014.0431	2874.0874	1293.35	411.7
1014.1599	2875.2227	1285.45	403.3
1014.2766	2876.3574	1296.3	413.95
1014.3933	2877.4915	1303.75	423.5
1014.51	2878.6249	1300.1	419.65
1014.6266	2879.7577	1296.2	414.5
1014.7431	2880.8898	1309	415.75
1014.8596	2882.0212	1299.4	417.85
1014.9761	2883.152	1309.4	426.95
1015.0925	2884.2821	1301.9	421.3
1015.2089	2885.4116	1308.5	428.2
1015.3253	2886.5405	1311.75	430.25
1015.4416	2887.6686	1314.15	431.2
1015.5579	2888.7962	1307.8	426.3
1015.6741	2889.923	1315.2	435.4
1015.7903	2891.0493	1317	433.9
1015.9065	2892.1748	1322.45	439.75
1016.0226	2893.2997	1314.25	432.75
1016.1387	2894.424	1315.6	434.55
1016.2547	2895.5476	1312.4	431.25
1016.3707	2896.6706	1313.1	432.35
1016.4866	2897.7929	1322.25	442.75
1016.6025	2898.9145	1331	451.1
1016.7184	2900.0355	1323.1	442.15
1016.8342	2901.1559	1327.2	444.95
1016.95	2902.2756	1332.8	447.15
1017.0658	2903.3946	1329.2	447.6
1017.1815	2904.513	1336.9	449.95
1017.2971	2905.6308	1335.55	455.05
1017.4127	2906.7479	1336.25	454.15
1017.5283	2907.8643	1338.85	457.4
1017.6439	2908.9801	1337.2	457.8
1017.7594	2910.0953	1343.65	463.55
1017.8748	2911.2098	1345.5	459.6
1017.9902	2912.3236	1346.45	455.4
1018.1056	2913.4368	1341.2	459.25
1018.2209	2914.5494	1336.7	455.65
1018.3362	2915.6613	1336.4	447.45
1018.4515	2916.7725	1325.5	440
1018.5667	2917.8831	1327.55	444.35
1018.6819	2918.9931	1306.85	423.7
1018.797	2920.1024	1307	426.5
1018.9121	2921.211	1293.4	414.4
1019.0271	2922.319	1300.8	420.2
1019.1421	2923.4264	1290.05	408.7
1019.2571	2924.5331	1288.25	409.55
1019.372	2925.6391	1283.6	401.85
1019.4869	2926.7445	1289.2	408.3
1019.6017	2927.8493	1292.15	409.5
1019.7165	2928.9534	1298.95	419.15
1019.8313	2930.0569	1302.15	418.55
1019.946	2931.1597	1301.6	419.15
1020.0606	2932.2619	1304.6	424.35
1020.1753	2933.3634	1302.3	420.35
1020.2899	2934.4643	1313.75	426.55
1020.4044	2935.5645	1316.1	427.5
1020.5189	2936.6641	1311.9	428
1020.6334	2937.763	1306.95	426.4
1020.7478	2938.8613	1305.95	421.7
1020.8622	2939.959	1304.3	418.35
1020.9765	2941.056	1288.95	409.35
1021.0908	2942.1523	1276.95	394.6
1021.2051	2943.248	1256.9	374.95
1021.3193	2944.3431	1233.25	352.75
1021.4334	2945.4375	1220.55	340.4
1021.5476	2946.5313	1202.45	323.6
1021.6617	2947.6244	1183.45	302.6
1021.7757	2948.7169	1167.9	286.15
1021.8897	2949.8087	1152.25	273.1
1022.0037	2950.8999	1132.25	251.5
1022.1176	2951.9904	1121.4	242.05
1022.2315	2953.0803	1106.8	225
1022.3453	2954.1696	1095.2	214.85
1022.4591	2955.2582	1093.2	210.7
1022.5728	2956.3462	1086	205
1022.6865	2957.4335	1081.8	201.05
1022.8002	2958.5202	1076.8	195.9
1022.9138	2959.6062	1071.85	191
1023.0274	2960.6916	1075.95	196
1023.141	2961.7764	1069.3	188
1023.2545	2962.8605	1068.95	187.75
1023.3679	2963.9439	1062	183.85
1023.4813	2965.0267	1066.6	185.3
1023.5947	2966.1089	1085.95	186.25
1023.708	2967.1905	1065.85	185.75
1023.8213	2968.2714	1060.5	180.1
1023.9346	2969.3516	1059.4	178.55
1024.0478	2970.4312	1066	179.2
1024.1609	2971.5102	1060.7	181.1
1024.274	2972.5885	1060.25	181.85
1024.3871	2973.6662	1066.35	181.75
1024.5002	2974.7432	1058.5	178.9
1024.6132	2975.8196	1064.2	184.7
1024.7261	2976.8954	1061.9	183.55
1024.839	2977.9705	1062.85	182.3
1024.9519	2979.045	1061.05	179.8
1025.0647	2980.1188	1058.5	177.3
1025.1775	2981.192	1056.25	176.75
1025.2902	2982.2645	1058.75	176.9
1025.4029	2983.3364	1051.25	169.4
1025.5156	2984.4077	1049.5	169.45
1025.6282	2985.4783	1050.1	164.8
1025.7407	2986.5483	1038.45	158.3
1025.8532	2987.6177	1033.85	154.8
1025.9657	2988.6864	1026.2	145.35
1026.0782	2989.7545	1020.15	139.15
1026.1906	2990.8219	1013.05	132.3
1026.3029	2991.8887	1007.3	124.35
1026.4152	2992.9548	1003.3	123.15
1026.5275	2994.0204	991.85	113.55
1026.6397	2995.0852	991.8	112.8
1026.7519	2996.1495	990.1	109.9
1026.864	2997.2131	981.4	102.1
1026.9761	2998.276	976.15	97.15
1027.0882	2999.3383	975.2	93.1
1027.2002	3000.4	967.2	87.8
1027.3122	3001.4611	963.25	82.2
1027.4241	3002.5215	962.5	80.6
1027.536	3003.5812	957.7	78.35
1027.6478	3004.6404	954.75	73.35
1027.7596	3005.6989	956.05	74.75
1027.8714	3006.7567	951.5	73.05
1027.9831	3007.8139	984	71.65
1028.0947	3008.8705	947.6	67.7
1028.2064	3009.9264	948.5	65.05
1028.3179	3010.9818	943.9	63.25
1028.4295	3012.0364	942.2	61.2
1028.541	3013.0905	943.35	61.75
1028.6524	3014.1439	942.6	62.4
1028.7638	3015.1966	940.95	60.85
1028.8752	3016.2487	942.05	62
1028.9865	3017.3002	945.4	60.9
1029.0978	3018.3511	941.45	62.7
1029.209	3019.4013	937.85	57.9
1029.3202	3020.4509	937.4	57.95
1029.4314	3021.4998	935.95	53.65
1029.5425	3022.5481	937.75	60.3
1029.6535	3023.5958	939.05	58.75
1029.7645	3024.6428	933.8	53.2
1029.8755	3025.6892	933.1	53.85
1029.9864	3026.735	934.85	54.2
1030.0973	3027.7802	937.2	56.95
1030.2082	3028.8247	936.6	54.55
1030.319	3029.8685	933.9	53.6
1030.4297	3030.9118	937.5	54.2
1030.5404	3031.9544	934.9	57.75
1030.6511	3032.9963	932.75	53.05
1030.7617	3034.0376	936.4	56.6
1030.8723	3035.0783	938.35	55.1
1030.9829	3036.1184	936.15	56.75
1031.0934	3037.1578	937.6	57.5
1031.2038	3038.1966	938.55	57.65
1031.3142	3039.2348	936.4	56.45
1031.4246	3040.2723	946.55	59.05
1031.5349	3041.3092	937.3	56.9
1031.6452	3042.3455	938.05	57.2
1031.7554	3043.3811	935.8	55.25
1031.8656	3044.4161	939	57.85
1031.9758	3045.4505	936.45	58.15
1032.0859	3046.4842	936.3	56.35
1032.1959	3047.5173	935.2	55.5
1032.3059	3048.5498	936.55	56.15
1032.4159	3049.5816	938.65	58
1032.5258	3050.6128	937	56.5
1032.6357	3051.6434	940.05	58.8
1032.7455	3052.6734	937.95	55.3
1032.8553	3053.7027	934	54.35
1032.9651	3054.7314	936.35	56.25
1033.0748	3055.7594	935.7	56.75
1033.1845	3056.7868	942.4	61.4
1033.2941	3057.8136	936.7	56.2
1033.4037	3058.8398	935.65	56.3
1033.5132	3059.8653	940.65	62
1033.6227	3060.8902	938.25	59.5
1033.7321	3061.9145	940.7	61.5
1033.8415	3062.9381	939.4	59.2
1033.9509	3063.9612	953.5	59.8
1034.0602	3064.9835	939.6	59.35
1034.1694	3066.0053	940.35	58.9
1034.2787	3067.0264	938.1	59.2
1034.3878	3068.0469	939.7	58.55
1034.497	3069.0668	940.55	57.4
1034.6061	3070.086	938.85	59
1034.7151	3071.1046	939.25	59.1
1034.8241	3072.1226	938.25	58.05
1034.9331	3073.1399	933	53.4
1035.042	3074.1567	933.8	54.7
1035.1508	3075.1727	934.7	52.8
1035.2597	3076.1882	931.5	52.1
1035.3684	3077.203	932.5	51.45
1035.4772	3078.2173	931.55	50.15
1035.5859	3079.2308	931.7	48.25
1035.6945	3080.2438	929.1	46.55
1035.8031	3081.2561	926.2	46.1
1035.9117	3082.2678	922.5	42.9
1036.0202	3083.2789	922.6	42.5
1036.1286	3084.2893	923.35	43
1036.2371	3085.2991	923.15	43.1
1036.3454	3086.3083	925.25	41.15
1036.4538	3087.3169	924.9	44.55
1036.562	3088.3248	921.25	39.3
1036.6703	3089.3321	919.4	37.15
1036.7785	3090.3388	915.6	36.4
1036.8866	3091.3449	920.15	40.95
1036.9948	3092.3503	921.6	38.15
1037.1028	3093.3551	916.55	38.5
1037.2108	3094.3593	915.95	37.9
1037.3188	3095.3629	914.05	36.65
1037.4267	3096.3658	915.65	34.35
1037.5346	3097.3681	915.7	37.45
1037.6425	3098.3698	916.5	35.6
1037.7503	3099.3708	919.35	33.6
1037.858	3100.3713	914.5	35.35
1037.9657	3101.3711	915.75	36.45
1038.0734	3102.3702	1027.9	32.35
1038.181	3103.3688	914.25	32.7
1038.2886	3104.3667	911.8	33.05
1038.3961	3105.364	908.75	30.4
1038.5036	3106.3607	912.6	31.15
1038.611	3107.3568	910.65	30.5
1038.7184	3108.3522	910.15	32.4
1038.8257	3109.347	909.05	27.85
1038.933	3110.3412	914.2	29.75
1039.0403	3111.3348	907.85	28.1
1039.1475	3112.3277	908.85	29.15
1039.2547	3113.32	906.9	28.65
1039.3618	3114.3117	909.1	29.25
1039.4689	3115.3028	907.45	29.1
1039.5759	3116.2932	910.25	28.85
1039.6829	3117.2831	912.95	28.35
1039.7898	3118.2723	908.1	28.3
1039.8967	3119.2608	907.25	27.5
1040.0035	3120.2488	907.25	26.7
1040.1103	3121.2361	905.6	25.75
1040.2171	3122.2229	903.25	24.55
1040.3238	3123.209	905.35	25.45
1040.4305	3124.1944	903.45	25.45
1040.5371	3125.1793	905.75	25.9
1040.6437	3126.1635	904.2	26.75
1040.7502	3127.1471	900.45	21.25
1040.8567	3128.1301	902.45	23.8
1040.9631	3129.1125	903.95	23.2
1041.0695	3130.0942	902.2	23.75
1041.1759	3131.0753	911.9	24.1
1041.2822	3132.0558	905.45	24.1
1041.3884	3133.0357	900.25	19.8
1041.4946	3134.015	900.9	19.8
1041.6008	3134.9936	903.6	24.5
1041.7069	3135.9716	925.1	26.55
1041.813	3136.949	901.6	22.6
1041.919	3137.9258	918.95	22.15
1042.025	3138.902	905.05	19.6
1042.1309	3139.8775	900.7	22.35
1042.2368	3140.8524	900.2	20.4
1042.3427	3141.8267	900.6	17.25
1042.4485	3142.8004	897.8	18
1042.5542	3143.7735	904.1	17.55
1042.6599	3144.7459	902.85	22.5
1042.7656	3145.7178	899.9	18.45
1042.8712	3146.689	898.65	21.4
1042.9768	3147.6596	900.65	18.35
1043.0823	3148.6295	900.05	20.6
1043.1878	3149.5989	897.75	19.15
1043.2932	3150.5676	898.4	17.4
1043.3986	3151.5357	895.3	17.55
1043.5039	3152.5032	899.05	21.3
1043.6092	3153.4701	897.75	20.2
1043.7145	3154.4364	900.15	17
1043.8197	3155.402	897.9	18.55
1043.9248	3156.367	897.9	15.9
1044.03	3157.3315	932.8	17.15
1044.135	3158.2952	899.05	18.75
1044.24	3159.2584	899.25	18.5
1044.345	3160.221	897.85	17.1
1044.4499	3161.1829	898.05	18.3
1044.5548	3162.1442	894.3	15.85
1044.6596	3163.105	896.9	17.4
1044.7644	3164.065	897	17
1044.8692	3165.0245	899.35	15.65
1044.9739	3165.9834	895.9	19.5
1045.0785	3166.9416	895.45	14.2
1045.1831	3167.8993	897.35	20.2
1045.2877	3168.8563	898.45	18.05
1045.3922	3169.8127	895.25	18.15
1045.4966	3170.7684	893.75	14.15
1045.6011	3171.7236	896.55	16.7
1045.7054	3172.6782	895.95	15.7
1045.8098	3173.6321	895.55	17.35
1045.914	3174.5854	900.2	15.6
1046.0183	3175.5381	895.5	18
1046.1224	3176.4902	893.15	14.3
1046.2266	3177.4417	893.45	13.4
1046.3307	3178.3926	894.5	16.05
1046.4347	3179.3428	894.35	16.05
1046.5387	3180.2924	893.7	16.35
1046.6427	3181.2415	895.4	14.9
1046.7466	3182.1899	895.9	14.65
1046.8504	3183.1377	894.8	17.7
1046.9542	3184.0848	896.85	12.25
1047.058	3185.0314	895.55	16.6
1047.1617	3185.9773	894.05	13.25
1047.2654	3186.9227	891.9	12.7
1047.369	3187.8674	893.45	14.35
1047.4726	3188.8115	897.3	14.15
1047.5761	3189.755	893.5	14.4
1047.6796	3190.6979	894.85	15.05
1047.783	3191.6402	892.85	13.7
1047.8864	3192.5818	893.35	12.25
1047.9898	3193.5229	906.8	14.9
1048.0931	3194.4633	894.25	15.55
1048.1963	3195.4031	892	14.75
1048.2995	3196.3423	892.8	12.5
1048.4027	3197.2809	892.55	14.1
1048.5058	3198.2189	893.55	14.8
1048.6089	3199.1563	909.4	13.9
1048.7119	3200.0931	893	15.1
1048.8148	3201.0292	887.7	10.05
1048.9178	3201.9648	891.6	12.35
1049.0206	3202.8997	894.75	12.95
1049.1235	3203.834	892.3	11.9
1049.2262	3204.7677	892.85	13.55
1049.329	3205.7008	892.4	12.1
1049.4317	3206.6333	887.9	10.75
1049.5343	3207.5652	892.85	9.65
1049.6369	3208.4964	891.4	11.4
1049.7394	3209.4271	889.05	10.75
1049.8419	3210.3571	891.75	13
1049.9444	3211.2865	891.9	11.9
1050.0468	3212.2154	891.15	10.9
1050.1491	3213.1436	895.05	12.5
1050.2514	3214.0712	897.6	13.2
1050.3537	3214.9982	891.45	12.25
1050.4559	3215.9246	893.1	13.2
1050.5581	3216.8503	889.75	10.8
1050.6602	3217.7755	890.15	9.55
1050.7623	3218.7001	890.7	11.65
1050.8643	3219.624	893.05	13.95
1050.9663	3220.5473	891.7	10.8
1051.0682	3221.4701	892.15	11.3
1051.1701	3222.3922	890.8	9.1
1051.2719	3223.3137	889.3	11.3
1051.3737	3224.2346	890.5	10.15
1051.4754	3225.1549	890.75	11.55
1051.5771	3226.0746	889.15	9.55
1051.6788	3226.9937	892.8	11.6
1051.7804	3227.9121	888.7	9.1
1051.8819	3228.83	890.2	10.95
1051.9834	3229.7473	892.1	12.8
1052.0849	3230.6639	889.55	9.3
1052.1863	3231.5799	888.55	9.85
1052.2876	3232.4954	889.55	10.65
1052.3889	3233.4102	890.3	11.9
1052.4902	3234.3244	891	11.9
1052.5914	3235.238	890.25	12.2
1052.6926	3236.151	911.4	10.9
1052.7937	3237.0634	889.5	10.55
1052.8948	3237.9752	888.15	8.75
1052.9958	3238.8864	889.35	6.95
1053.0968	3239.797	890.75	13.1
1053.1977	3240.7069	889.8	10.35
1053.2986	3241.6163	890.65	10.65
1053.3994	3242.5251	888.7	13.5
1053.5002	3243.4332	888.35	11.95
1053.6009	3244.3408	889.25	10.55
1053.7016	3245.2477	886.8	8.8
1053.8022	3246.154	889.95	9.3
1053.9028	3247.0598	890.05	10.45
1054.0034	3247.9649	887.8	8.9
1054.1039	3248.8694	887.3	7.15
1054.2043	3249.7733	887.5	8.15
1054.3047	3250.6766	887.75	8.2
1054.4051	3251.5793	890.35	10.65
1054.5054	3252.4814	887.4	9.2
1054.6056	3253.3829	886.2	6.9
1054.7058	3254.2838	886.8	9.9
1054.806	3255.1841	888.3	7.8
1054.9061	3256.0838	888.3	7.9
1055.0061	3256.9829	887.35	9.35
1055.1062	3257.8814	889.7	9.4
1055.2061	3258.7792	890.25	10.4
1055.306	3259.6765	887.7	6.4
1055.4059	3260.5731	888.85	11.25
1055.5057	3261.4692	887.65	7.1
1055.6055	3262.3647	889.65	9.55
1055.7052	3263.2595	888.5	9.9
1055.8049	3264.1538	885.2	6.4
1055.9045	3265.0474	886.6	5.45
1056.0041	3265.9404	888.35	8.75
1056.1036	3266.8329	886	8.75
1056.2031	3267.7247	896.45	8.35
1056.3025	3268.616	884.55	7.65
1056.4019	3269.5066	885.25	5.65
1056.5013	3270.3966	887.05	4.55
1056.6005	3271.286	882.75	4.55
