Software Version:	3.9.2.0
Unit SN:	10000200
Spectrometer SN:	6960
Date:	3/8/2024 12:48:40 PM
Data Line Index:	25
Spectral Points:	2048
Integration time (ms):	125
Averages:	20
Delay (ms):	30000
Sequence Number:	1
Processing:	dark subtract
Laser Power (mW):	300
Laser Current (mA):	823
Laser Diode Temp (C):	25
Laser Case Temp (C):	26.2
System Temp (C):	26.1
Spectrometer Temp (C):	23.9
CCD Temp (C):	0.001
Secondary Temp (C):	20.01
Heatsink Temp (C):	20.794
CCDPCB Temp (C):	36.14
SecondaryPCB Temp (C):	30.126

Wavelength	RamanShift	Raw Counts	Dark Subtracted
787.061	30.1047	456.4	48.35
787.2016	32.3739	456.55	49.85
787.3422	34.6426	461.05	53.2
787.4828	36.9109	465.85	55.95
787.6235	39.1787	474.55	58.95
787.7642	41.4461	484.95	66.05
787.9049	43.7131	490.9	71
788.0456	45.9796	496.75	73.5
788.1863	48.2456	506.55	80
788.3271	50.5112	518.8	87.55
788.4679	52.7764	528.9	94.65
788.6087	55.0411	538.05	97.1
788.7496	57.3054	548.9	102.5
788.8904	59.5692	559.15	111.75
789.0313	61.8326	567.7	118.3
789.1722	64.0955	584.45	130.5
789.3132	66.3579	594.15	135.7
789.4541	68.6199	618.05	155.85
789.5951	70.8815	652.85	184.2
789.7361	73.1426	736.05	262.95
789.8771	75.4032	952.45	475.35
790.0181	77.6634	1477.65	995.9
790.1592	79.9231	2704.6	2214.2
790.3003	82.1824	5374.1	4863.35
790.4414	84.4412	10151.15	9601.65
790.5825	86.6995	16636.55	16042
790.7237	88.9574	22905.25	22273.1
790.8648	91.2148	27157.65	26501.45
791.006	93.4717	28986.6	28307.3
791.1472	95.7282	29245.6	28556.75
791.2885	97.9842	28907.95	28217.2
791.4297	100.2398	28097.9	27410.7
791.571	102.4949	27260.7	26565.9
791.7123	104.7495	26292.25	25598.85
791.8536	107.0036	25326.2	24626.4
791.9949	109.2573	24436.45	23739.45
792.1363	111.5105	23685.9	22986.55
792.2777	113.7632	22952.85	22249.5
792.4191	116.0154	22392.8	21676.85
792.5605	118.2672	21936.7	21224.9
792.7019	120.5185	21519.85	20812.1
792.8434	122.7693	21194.55	20485.55
792.9849	125.0197	20934.25	20216.4
793.1264	127.2696	20654.15	19935.75
793.2679	129.519	20449.2	19725.3
793.4094	131.7679	20153	19424.65
793.551	134.0163	19844.35	19115.1
793.6926	136.2642	19481	18746.1
793.8342	138.5117	19150.95	18410.4
793.9758	140.7587	18752.25	18014.35
794.1175	143.0052	18405.5	17659.8
794.2591	145.2512	18069.4	17327.85
794.4008	147.4967	17763.8	17023.75
794.5425	149.7417	17504.25	16757.95
794.6842	151.9863	17350.9	16603.15
794.826	154.2304	17201.4	16447.45
794.9677	156.4739	17014.45	16253.65
795.1095	158.717	16928.25	16173.5
795.2513	160.9596	16748.85	15989.05
795.3931	163.2017	16427.75	15665.05
795.535	165.4433	16143.2	15379.65
795.6768	167.6844	15829.1	15059.3
795.8187	169.925	15496.6	14726.3
795.9606	172.1651	15102.95	14336.45
796.1025	174.4047	14836.1	14062.25
796.2445	176.6439	14584.75	13808.7
796.3864	178.8825	14372.5	13591.15
796.5284	181.1206	14258.3	13472.25
796.6704	183.3582	14101.25	13313.35
796.8124	185.5954	13999	13205.6
796.9544	187.832	13918.4	13120.1
797.0965	190.0681	13874.9	13074.85
797.2386	192.3037	13866.4	13063.35
797.3806	194.5388	13829.25	13018.5
797.5228	196.7734	13897.3	13091.45
797.6649	199.0075	13963.85	13155.4
797.807	201.2411	14095.85	13286
797.9492	203.4742	14179.3	13367.75
798.0914	205.7068	14324.2	13509.45
798.2336	207.9389	14446.25	13626.35
798.3758	210.1704	14597.1	13779
798.518	212.4015	14702.55	13896.3
798.6603	214.632	14873.8	14081.25
798.8025	216.862	15011.15	14218.25
798.9448	219.0915	15118.9	14323.4
799.0871	221.3205	15235.6	14439.5
799.2294	223.549	15331.5	14536.65
799.3718	225.777	15463.35	14668.5
799.5141	228.0044	15546.2	14748
799.6565	230.2314	15766.05	14970.3
799.7989	232.4578	15904.7	15105.8
799.9413	234.6837	16046.8	15238.7
800.0837	236.909	16145.1	15333.95
800.2262	239.1339	16129.75	15289.2
800.3687	241.3582	16037	15211.8
800.5111	243.582	15911.2	15058.45
800.6536	245.8053	15810.9	14976.2
800.7961	248.0281	15763.85	14930.5
800.9387	250.2503	15708.8	14869.6
801.0812	252.472	15743.15	14897.9
801.2238	254.6932	15849.25	15010.3
801.3664	256.9139	15926.25	15089.6
801.509	259.134	16156	15305.1
801.6516	261.3536	16328.8	15484.3
801.7942	263.5727	16631.35	15783
801.9369	265.7912	16855.95	16010.1
802.0795	268.0092	17160.2	16316.3
802.2222	270.2267	17315.1	16470.55
802.3649	272.4436	17472.75	16624.3
802.5076	274.6601	17476.5	16621.05
802.6504	276.8759	17378.35	16528.25
802.7931	279.0913	17297.1	16445.6
802.9359	281.3061	17162.4	16308.15
803.0787	283.5204	17096.95	16235.8
803.2215	285.7341	17084.4	16223.05
803.3643	287.9473	17147.85	16274.1
803.5071	290.16	17205.45	16339.75
803.6499	292.3721	17337.4	16481.45
803.7928	294.5837	17572.9	16711.2
803.9357	296.7947	17783.75	16922.85
804.0786	299.0052	17977.25	17111.35
804.2215	301.2152	17907.55	17038.65
804.3644	303.4246	17710.5	16853.9
804.5074	305.6334	17337.6	16478.55
804.6503	307.8418	16912.25	16049.15
804.7933	310.0495	16494.95	15633
804.9363	312.2568	16057.55	15190.55
805.0793	314.4635	15651.4	14784.55
805.2223	316.6696	15415.3	14542.6
805.3653	318.8752	15171.7	14293.2
805.5084	321.0802	15115.5	14244.65
805.6514	323.2847	15135.95	14260
805.7945	325.4887	15148.15	14271.85
805.9376	327.692	15155.4	14275.15
806.0807	329.8949	15071.25	14194.35
806.2238	332.0972	14910.5	14030.45
806.367	334.2989	14694.85	13811.95
806.5101	336.5001	14422.05	13544.35
806.6533	338.7007	14223.35	13341.95
806.7965	340.9008	14036.95	13155.35
806.9397	343.1003	13884.55	12997.8
807.0829	345.2992	13764.6	12877.25
807.2261	347.4976	13699.5	12813.35
807.3693	349.6955	13602.65	12709.75
807.5126	351.8927	13606.45	12715.65
807.6559	354.0895	13508.25	12607.8
807.7991	356.2856	13481.7	12589.7
807.9424	358.4812	13448	12557.7
808.0857	360.6763	13452.9	12557.35
808.2291	362.8707	13415.4	12519
808.3724	365.0646	13483.6	12586.95
808.5158	367.258	13510.7	12611
808.6591	369.4508	13565.25	12665.1
808.8025	371.643	13727.45	12823.65
808.9459	373.8346	13776.8	12872.4
809.0893	376.0257	13889.9	12983.3
809.2327	378.2162	13900.35	12997.6
809.3762	380.4062	13863.9	12963.15
809.5196	382.5956	13763	12860.35
809.6631	384.7844	13623.4	12727
809.8066	386.9726	13492.6	12594.1
809.9501	389.1603	13430.05	12535.35
810.0936	391.3474	13358.6	12434.05
810.2371	393.5339	13334	12430.7
810.3806	395.7199	13288.25	12389.3
810.5241	397.9052	13342.5	12446.65
810.6677	400.09	13383.3	12488.9
810.8113	402.2743	13551.85	12656.25
810.9548	404.4579	13712.5	12811.8
811.0984	406.641	13913	13012.55
811.2421	408.8235	14080.05	13180.8
811.3857	411.0054	14294.5	13390.95
811.5293	413.1868	14455.2	13546.65
811.673	415.3675	14546.25	13630.35
811.8166	417.5477	14604.45	13695.95
811.9603	419.7273	14577.1	13666.5
812.104	421.9064	14475.9	13559.85
812.2477	424.0848	14390.75	13477.3
812.3914	426.2627	14233.15	13317.45
812.5351	428.4399	13986.95	13076.75
812.6788	430.6166	13665.6	12751.25
812.8226	432.7928	13319.3	12403.2
812.9663	434.9683	13018.9	12106.65
813.1101	437.1432	12781.05	11868.95
813.2539	439.3176	12620.7	11716.2
813.3977	441.4914	12463.1	11559.4
813.5415	443.6645	12444.5	11537.05
813.6853	445.8371	12391.25	11477
813.8291	448.0091	12344.2	11430.85
813.973	450.1806	12313.95	11408.3
814.1168	452.3514	12311.7	11407.4
814.2607	454.5216	12323.85	11404.75
814.4046	456.6913	12298.85	11388.85
814.5485	458.8603	12352.1	11445.9
814.6924	461.0288	12418.8	11516.45
814.8363	463.1967	12385.3	11486.65
814.9802	465.3639	12438.5	11531.65
815.1241	467.5306	12406.15	11496.4
815.2681	469.6967	12450.95	11546.3
815.412	471.8622	12481.25	11581.55
815.556	474.0271	12537.3	11631.15
815.7	476.1914	12591.35	11677.35
815.844	478.3551	12611.1	11700
815.988	480.5182	12640.7	11736.7
816.132	482.6807	12713.8	11818.6
816.276	484.8426	12892.1	12001.75
816.4201	487.0039	13213.75	12315.9
816.5641	489.1647	13617.15	12710.4
816.7082	491.3248	13951.35	13036.75
816.8522	493.4843	14088.05	13182
816.9963	495.6432	14025.25	13119.1
817.1404	497.8015	13921.45	13000.95
817.2845	499.9592	13835.35	12912.05
817.4286	502.1163	13647	12724.8
817.5727	504.2728	13313.25	12399
817.7168	506.4287	13009.15	12108.9
817.861	508.5839	12674.9	11774.05
818.0051	510.7386	12457.5	11546.35
818.1493	512.8927	12368.05	11444.45
818.2935	515.0461	12339.7	11421.65
818.4377	517.199	12386.75	11467.25
818.5818	519.3512	12571.9	11650.7
818.726	521.5029	12832.15	11905.5
818.8703	523.6539	13071.7	12151
819.0145	525.8043	13184.1	12263.1
819.1587	527.9541	13126	12204.35
819.303	530.1033	12960.75	12035
819.4472	532.2519	12796.9	11873.15
819.5915	534.3999	12762.4	11839.8
819.7357	536.5472	12818.8	11897.8
819.88	538.694	13070.95	12153.6
820.0243	540.8401	13350.15	12419.45
820.1686	542.9856	13598.55	12664.6
820.3129	545.1305	13650.4	12709.45
820.4572	547.2748	13577.05	12632.55
820.6016	549.4185	13376.85	12432.4
820.7459	551.5615	13226.15	12282
820.8902	553.704	13200.6	12257.35
821.0346	555.8458	13256.4	12318.2
821.1789	557.987	13446.7	12510.15
821.3233	560.1276	13656.6	12721.7
821.4677	562.2675	14045.55	13112.55
821.6121	564.4069	14503.35	13571.3
821.7565	566.5456	14914.45	13983.2
821.9009	568.6837	15041.25	14110.7
822.0453	570.8212	14684.5	13757.1
822.1897	572.958	14030.1	13101.4
822.3342	575.0942	13377.95	12453.4
822.4786	577.2299	12938.05	12019.6
822.6231	579.3648	12712.3	11803.95
822.7675	581.4992	12683.4	11788.9
822.912	583.6329	12774.85	11881.3
823.0565	585.766	12933.95	12033
823.201	587.8985	13113.6	12198.35
823.3454	590.0304	13171.3	12222.3
823.4899	592.1616	13117.2	12183.75
823.6345	594.2922	13003.05	12068.55
823.779	596.4222	12793.35	11856.2
823.9235	598.5515	12602.35	11660.1
824.068	600.6802	12430.35	11490
824.2126	602.8083	12273.9	11337.55
824.3571	604.9358	12238.5	11302
824.5017	607.0626	12261.15	11319.25
824.6462	609.1888	12354.1	11407
824.7908	611.3144	12497	11551.85
824.9354	613.4393	12603.15	11652.2
825.08	615.5636	12695	11750
825.2246	617.6873	12678	11731.55
825.3692	619.8103	12633.2	11691.25
825.5138	621.9327	12422.9	11481.85
825.6584	624.0544	12224.15	11287.25
825.803	626.1756	12054.75	11115.6
825.9477	628.2961	11925.2	10982.85
826.0923	630.4159	11835.55	10891.65
826.237	632.5351	11807.7	10860.45
826.3816	634.6537	11782.95	10835.45
826.5263	636.7716	11801.05	10852.3
826.6709	638.8889	11834.45	10876.7
826.8156	641.0056	11847.9	10894.8
826.9603	643.1216	11795.5	10841.7
827.105	645.237	11770.55	10820.85
827.2497	647.3518	11701.9	10766.95
827.3944	649.4659	11631.7	10700.2
827.5391	651.5793	11600.8	10664.4
827.6838	653.6922	11537.6	10603.5
827.8285	655.8043	11517.85	10579.8
827.9733	657.9159	11504.7	10566.5
828.118	660.0268	11483.55	10543.35
828.2627	662.137	11472.35	10532.15
828.4075	664.2466	11498.25	10547.1
828.5522	666.3556	11509.9	10562.25
828.697	668.4639	11432.45	10487.5
828.8418	670.5716	11407.05	10470.15
828.9865	672.6786	11385.8	10442.1
829.1313	674.785	11335.15	10384.8
829.2761	676.8907	11314.75	10370.9
829.4209	678.9958	11332.95	10395.5
829.5657	681.1002	11317.05	10371.65
829.7105	683.204	11321.15	10362.15
829.8553	685.3072	11287.3	10335.3
830.0001	687.4097	11271.25	10323.5
830.1449	689.5115	11242.8	10291.65
830.2898	691.6127	11218.75	10270.35
830.4346	693.7132	11216.45	10275
830.5794	695.8131	11236.55	10271.85
830.7243	697.9123	11263.5	10307.7
830.8691	700.0109	11292.95	10336.4
831.014	702.1089	11321.65	10370.3
831.1588	704.2061	11365.2	10412
831.3037	706.3028	11419.15	10460.35
831.4486	708.3987	11448.9	10496.25
831.5935	710.4941	11482.25	10529.25
831.7383	712.5887	11530.65	10580.25
831.8832	714.6827	11636.25	10683
832.0281	716.7761	11755.9	10806.15
832.173	718.8688	11985.3	11033.45
832.3179	720.9608	12142.35	11184.1
832.4628	723.0522	12282.65	11315.5
832.6077	725.1429	12299.4	11343.65
832.7527	727.233	12357.7	11401.05
832.8976	729.3224	12376.65	11422.65
833.0425	731.4112	12292.1	11335.9
833.1874	733.4993	12151.9	11196.55
833.3324	735.5867	11947.2	10996.6
833.4773	737.6735	11742.1	10785.3
833.6222	739.7596	11531.3	10574.7
833.7672	741.845	11405.45	10452.6
833.9122	743.9298	11295.1	10336.45
834.0571	746.014	11262.45	10308.75
834.2021	748.0974	11266.1	10304
834.347	750.1802	11240.25	10279.25
834.492	752.2624	11250.2	10285.75
834.637	754.3439	11311.3	10347.05
834.782	756.4247	11445.65	10475.45
834.9269	758.5048	11613.05	10651.25
835.0719	760.5843	11905.25	10942.6
835.2169	762.6631	12319.7	11359.95
835.3619	764.7413	12923.15	11962.9
835.5069	766.8188	13603.55	12640.85
835.6519	768.8956	14221.25	13255.6
835.7969	770.9718	14583.35	13624.45
835.9419	773.0473	14483.65	13520.7
836.0869	775.1221	14257	13300.1
836.232	777.1962	13966.8	13006.85
836.377	779.2697	13850.5	12889.45
836.522	781.3426	13913.45	12937.45
836.667	783.4147	14033.45	13069.55
836.8121	785.4862	14129.4	13168.65
836.9571	787.557	13947.15	12985.45
837.1021	789.6271	13516.2	12549.45
837.2472	791.6966	12883.25	11916
837.3922	793.7654	12255.2	11291.9
837.5373	795.8335	11819.75	10859.15
837.6823	797.901	11527.5	10565.45
837.8274	799.9678	11355.2	10387.7
837.9724	802.0339	11271.95	10306.1
838.1175	804.0993	11243.3	10269.45
838.2626	806.1641	11176.75	10213.75
838.4076	808.2282	11094.75	10131.75
838.5527	810.2916	11007.05	10043.4
838.6978	812.3544	10946.25	9987.2
838.8428	814.4164	10894.95	9932.35
838.9879	816.4778	10934.15	9968.05
839.133	818.5385	10962.65	9993.85
839.2781	820.5986	11116.7	10148.3
839.4232	822.658	11319.4	10352.9
839.5682	824.7166	11650.4	10680.9
839.7133	826.7747	12163.45	11194.1
839.8584	828.832	12709.95	11740.15
840.0035	830.8886	13051.15	12081.35
840.1486	832.9446	13256.9	12290.7
840.2937	834.9999	13129.65	12165.3
840.4388	837.0545	12835.9	11863
840.5839	839.1085	12508.1	11540.4
840.729	841.1618	12202.35	11229.3
840.8741	843.2143	11974.15	11007.05
841.0192	845.2662	11764.4	10795.45
841.1643	847.3175	11649.15	10678.75
841.3095	849.368	11509.25	10542.1
841.4546	851.4179	11430.85	10463
841.5997	853.467	11323.55	10352.05
841.7448	855.5155	11245.75	10275
841.8899	857.5633	11162.15	10193.1
842.0351	859.6105	11063.5	10097.25
842.1802	861.6569	10999	10029
842.3253	863.7027	10904.15	9932.55
842.4704	865.7478	10890.3	9917.95
842.6156	867.7922	10819.05	9845.35
842.7607	869.8359	10813.2	9845.75
842.9058	871.8789	10834.55	9861.2
843.0509	873.9212	10955.3	9952.5
843.1961	875.9629	11000.1	10029.15
843.3412	878.0039	11153.6	10184.3
843.4863	880.0441	11257.25	10294
843.6315	882.0837	11289.6	10319.95
843.7766	884.1226	11312.75	10343.65
843.9218	886.1609	11364.4	10396.8
844.0669	888.1984	11458.55	10486.95
844.212	890.2352	11592.3	10619.15
844.3572	892.2714	11605.25	10633.5
844.5023	894.3069	11552.8	10585.35
844.6475	896.3416	11382.6	10413.65
844.7926	898.3757	11244.4	10269.8
844.9377	900.4091	11166	10193.4
845.0829	902.4418	11141.8	10162.55
845.228	904.4739	11182.2	10204.9
845.3732	906.5052	11241.15	10266.1
845.5183	908.5358	11174.6	10203.65
845.6635	910.5658	11047.2	10071
845.8086	912.595	10846.65	9873.45
845.9538	914.6236	10619.95	9647.85
846.0989	916.6515	10488.55	9519.35
846.2441	918.6786	10405.4	9430.7
846.3892	920.7051	10374.6	9394.5
846.5344	922.7309	10472.5	9500.75
846.6795	924.756	10464.8	9493.6
846.8246	926.7804	10551.05	9577.45
846.9698	928.8041	10552.25	9580.3
847.1149	930.8272	10617.25	9644.95
847.2601	932.8495	10597.25	9622.8
847.4052	934.8711	10572.9	9599.85
847.5504	936.892	10502.05	9529.5
847.6955	938.9123	10494.6	9520.05
847.8407	940.9318	10519.4	9546.45
847.9858	942.9506	10498.25	9528.55
848.131	944.9688	10403.45	9430.4
848.2761	946.9862	10321.65	9348.6
848.4213	949.003	10195.45	9223
848.5664	951.019	10102.5	9130.35
848.7115	953.0344	10058.1	9089.7
848.8567	955.0491	10046.1	9072
849.0018	957.063	10104.9	9134.25
849.147	959.0763	10177	9202.45
849.2921	961.0888	10196.3	9222.9
849.4373	963.1007	10251.85	9282.05
849.5824	965.1119	10272.6	9311.65
849.7275	967.1223	10267.05	9310.7
849.8727	969.1321	10238.6	9287.35
850.0178	971.1412	10233.15	9269.8
850.1629	973.1495	10242.25	9277.1
850.3081	975.1572	10286.75	9271.35
850.4532	977.1641	10286.55	9313.25
850.5983	979.1704	10275.2	9301.2
850.7435	981.1759	10216.75	9238
850.8886	983.1808	10240.6	9265.8
851.0337	985.1849	10272.75	9293
851.1788	987.1884	10339.4	9362.65
851.324	989.1911	10442.45	9468.05
851.4691	991.1932	10495.75	9526.15
851.6142	993.1945	10530	9561.95
851.7593	995.1951	10497.25	9527.25
851.9045	997.1951	10456.85	9479.45
852.0496	999.1943	10431.45	9458.8
852.1947	1001.1928	10423.75	9447.6
852.3398	1003.1906	10478.2	9506.6
852.4849	1005.1877	10608.3	9635.4
852.63	1007.1841	10647.55	9676.95
852.7751	1009.1798	10664.1	9694.45
852.9202	1011.1748	10594.25	9623.65
853.0653	1013.1691	10411.45	9440.1
853.2104	1015.1627	10236.15	9268.1
853.3555	1017.1556	10026.2	9057.55
853.5006	1019.1477	9886.95	8921.1
853.6457	1021.1392	9775.15	8812.65
853.7908	1023.1299	9755.6	8796.5
853.9359	1025.12	9763.4	8817
854.081	1027.1093	9789.55	8855.1
854.2261	1029.0979	9898.6	8965.95
854.3712	1031.0859	9997.85	9055.55
854.5163	1033.0731	10065.55	9112.65
854.6613	1035.0596	10013.1	9054.8
854.8064	1037.0454	9913.15	8951.5
854.9515	1039.0304	9819.9	8852.85
855.0965	1041.0148	9701.45	8733.25
855.2416	1042.9985	9602.2	8634.25
855.3867	1044.9814	9541.75	8574.95
855.5317	1046.9636	9492.35	8527.15
855.6768	1048.9452	9464.85	8503.5
855.8219	1050.926	9515.3	8548.65
855.9669	1052.9061	9536.4	8571.7
856.112	1054.8855	9562.45	8597.55
856.257	1056.8642	9607.35	8639.7
856.4021	1058.8421	9643.1	8671.1
856.5471	1060.8194	9699.8	8729.5
856.6921	1062.7959	9740.2	8773.15
856.8372	1064.7717	9810.35	8840.25
856.9822	1066.7469	9886.45	8919.4
857.1272	1068.7213	9943.25	8972.85
857.2723	1070.695	10021.95	9054.05
857.4173	1072.6679	10069.85	9103.55
857.5623	1074.6402	10045.5	9076.4
857.7073	1076.6117	10009.4	9035
857.8523	1078.5826	9915.8	8950.25
857.9973	1080.5527	9791.6	8821.75
858.1423	1082.5221	9697	8730.7
858.2873	1084.4908	9718.65	8752.9
858.4323	1086.4587	9758.7	8788.9
858.5773	1088.426	9790.05	8823.6
858.7223	1090.3925	9810.85	8839.05
858.8673	1092.3584	9822.2	8853.2
859.0123	1094.3235	9833.9	8868.5
859.1573	1096.2879	9907.5	8941.15
859.3022	1098.2515	10016.75	9050.4
859.4472	1100.2145	10174.9	9209.25
859.5922	1102.1767	10360.2	9392.55
859.7371	1104.1382	10626.75	9663.55
859.8821	1106.099	10848.9	9881.3
860.027	1108.0591	11096.35	10131
860.172	1110.0185	11234.85	10269.9
860.3169	1111.9771	11315.85	10348.35
860.4619	1113.9351	11224.7	10257.5
860.6068	1115.8923	11087.2	10118.25
860.7517	1117.8488	10919	9951.5
860.8967	1119.8045	10739.8	9773.8
861.0416	1121.7596	10603.35	9642.25
861.1865	1123.7139	10453.2	9488.4
861.3314	1125.6675	10441.25	9479.2
861.4763	1127.6204	10450.1	9480.15
861.6212	1129.5726	10415.95	9448.4
861.7661	1131.524	10320.6	9358.5
861.911	1133.4748	10182.55	9216.45
862.0559	1135.4248	10008.45	9040.05
862.2008	1137.3741	9848.35	8881.35
862.3457	1139.3226	9737.4	8770.8
862.4905	1141.2705	9696.8	8730.65
862.6354	1143.2176	9569	8598.4
862.7803	1145.164	9563.45	8594.3
862.9251	1147.1097	9478.7	8510.85
863.07	1149.0546	9399.5	8434.6
863.2148	1150.9989	9301.3	8332.55
863.3597	1152.9424	9201.75	8235.15
863.5045	1154.8852	9104.5	8140.25
863.6493	1156.8272	9065.1	8099.75
863.7942	1158.7686	9086.15	8112.65
863.939	1160.7092	9112.15	8140.05
864.0838	1162.6491	9129.95	8162.95
864.2286	1164.5883	9235.35	8272.65
864.3734	1166.5267	9351.15	8384.7
864.5182	1168.4644	9531.65	8567
864.663	1170.4014	9695.2	8727.15
864.8078	1172.3377	9968.95	9005.15
864.9526	1174.2732	10288.8	9325.7
865.0974	1176.2081	10700.15	9738.55
865.2421	1178.1421	11209.35	10241.25
865.3869	1180.0755	11733.5	10772.95
865.5317	1182.0082	12095.5	11132.95
865.6764	1183.9401	12262.15	11297.35
865.8212	1185.8713	12117.85	11162.55
865.9659	1187.8017	11775.35	10828.75
866.1106	1189.7315	11411.25	10474.1
866.2554	1191.6605	10989.15	10054.8
866.4001	1193.5888	10706.55	9764.45
866.5448	1195.5163	10544.4	9592.75
866.6895	1197.4432	10446.4	9489.85
866.8342	1199.3693	10411.05	9449.8
866.9789	1201.2947	10379.35	9413.95
867.1236	1203.2193	10372.75	9412.7
867.2683	1205.1432	10315.9	9358.5
867.413	1207.0664	10312.1	9352.5
867.5576	1208.9889	10292.55	9330.7
867.7023	1210.9106	10277.1	9317.9
867.847	1212.8316	10271	9313.55
867.9916	1214.7519	10334.8	9365.7
868.1363	1216.6715	10354.95	9399.85
868.2809	1218.5903	10393.85	9434.55
868.4255	1220.5084	10475.5	9514.4
868.5701	1222.4257	10577.55	9619.1
868.7148	1224.3424	10621.7	9665.9
868.8594	1226.2583	10743.1	9782.6
869.004	1228.1735	10894.05	9935.55
869.1486	1230.0879	11030.55	10073.85
869.2932	1232.0016	11225.4	10265.2
869.4377	1233.9146	11358.55	10397.3
869.5823	1235.8269	11372.55	10417.15
869.7269	1237.7384	11345.2	10388.85
869.8715	1239.6492	11201.85	10244.75
870.016	1241.5592	11190.35	10233.45
870.1606	1243.4686	11219.85	10261.25
870.3051	1245.3772	11420.25	10463.35
870.4496	1247.285	11610.95	10651.85
870.5941	1249.1922	11777.55	10817.6
870.7387	1251.0986	11944.4	10987.75
870.8832	1253.0042	12061.15	11104.65
871.0277	1254.9092	12147.4	11191.45
871.1722	1256.8134	12253.1	11299.2
871.3167	1258.7169	12379.45	11421.6
871.4611	1260.6196	12564.95	11611.45
871.6056	1262.5216	12756.3	11797.95
871.7501	1264.4229	12970.7	12014.1
871.8945	1266.3234	13183.35	12226.55
872.039	1268.2232	13335.55	12380.8
872.1834	1270.1223	13391.75	12435.1
872.3278	1272.0207	13434.85	12474.8
872.4723	1273.9183	13421.9	12457
872.6167	1275.8151	13380.85	12428.3
872.7611	1277.7113	13383.25	12430.4
872.9055	1279.6067	13425.6	12473
873.0499	1281.5014	13660.65	12700.65
873.1943	1283.3953	14043.55	13084
873.3386	1285.2885	14561.1	13604.55
873.483	1287.181	15083.8	14129.6
873.6274	1289.0727	15565.9	14613.8
873.7717	1290.9637	15880.6	14924.85
873.9161	1292.854	16103.4	15147.15
874.0604	1294.7435	16086	15133.7
874.2047	1296.6323	16007.85	15054.2
874.349	1298.5204	15864.3	14905.95
874.4933	1300.4077	15671.45	14715.3
874.6376	1302.2943	15442	14483.8
874.7819	1304.1802	15110.2	14155.25
874.9262	1306.0653	14670.8	13713.7
875.0705	1307.9497	14149.85	13196.7
875.2147	1309.8333	13752	12799.15
875.359	1311.7162	13411.9	12456.9
875.5032	1313.5984	13200.85	12245.1
875.6475	1315.4798	13104.45	12139.2
875.7917	1317.3605	12996.1	12038.95
875.9359	1319.2405	12849.7	11893.85
876.0801	1321.1197	12631.35	11673.4
876.2243	1322.9982	12338.3	11380.3
876.3685	1324.876	12003.95	11047.65
876.5127	1326.753	11730.25	10773.5
876.6569	1328.6293	11515.95	10558.7
876.801	1330.5048	11353.05	10395.3
876.9452	1332.3796	11190.45	10234.4
877.0893	1334.2537	11090.15	10112.5
877.2335	1336.127	10995.3	10041.75
877.3776	1337.9996	10931.85	9977.25
877.5217	1339.8714	10935.85	9978.45
877.6658	1341.7426	10987.45	9987.95
877.8099	1343.6129	10996.75	10039.05
877.954	1345.4826	10992.9	10036.25
878.0981	1347.3515	11010.9	10051.2
878.2422	1349.2196	10979.25	10021.35
878.3862	1351.087	10996.4	10039.5
878.5303	1352.9537	11020	10063.8
878.6743	1354.8197	11140.6	10183.05
878.8184	1356.6849	11329.9	10372.4
878.9624	1358.5493	11482.35	10530
879.1064	1360.4131	11659.5	10709.25
879.2504	1362.276	11783.7	10830.65
879.3944	1364.1383	11780.25	10829.95
879.5384	1365.9998	11623.95	10666
879.6823	1367.8606	11285.5	10327.05
879.8263	1369.7206	10910.65	9952.05
879.9702	1371.5799	10580.3	9625.35
880.1142	1373.4384	10276.45	9320.15
880.2581	1375.2962	10047.4	9091.65
880.402	1377.1533	9742.25	8790.65
880.5459	1379.0096	9360.75	8410.95
880.6898	1380.8652	9026.05	8080.8
880.8337	1382.7201	8704	7754.5
880.9776	1384.5742	8468.45	7513.9
881.1215	1386.4275	8277.55	7324.75
881.2653	1388.2802	8118.4	7166.05
881.4092	1390.132	7992.05	7035.85
881.553	1391.9832	7933	6976.6
881.6968	1393.8336	7830.15	6877.2
881.8406	1395.6832	7788.3	6829.25
881.9844	1397.5322	7755.9	6803.45
882.1282	1399.3803	7718.35	6762.65
882.272	1401.2278	7687.6	6735
882.4158	1403.0745	7667.2	6719.8
882.5595	1404.9204	7659.15	6708.45
882.7033	1406.7656	7660.4	6705.5
882.847	1408.6101	7676	6721.8
882.9908	1410.4538	7708.85	6756.6
883.1345	1412.2968	7765.2	6812.7
883.2782	1414.139	7821.1	6867.45
883.4219	1415.9805	7901.85	6951.5
883.5656	1417.8213	7955.3	6998
883.7092	1419.6613	8070.95	7122.2
883.8529	1421.5006	8232	7282.85
883.9965	1423.3391	8428.4	7476.75
884.1402	1425.1769	8706.55	7753.7
884.2838	1427.0139	9153.1	8200.6
884.4274	1428.8502	9686.35	8735.8
884.571	1430.6858	10244.85	9293.6
884.7146	1432.5206	10634	9684.05
884.8582	1434.3547	10882.8	9932.2
885.0018	1436.188	10904.55	9955.7
885.1453	1438.0206	10823.8	9873.55
885.2889	1439.8524	10644.15	9692.05
885.4324	1441.6835	10536.05	9585.85
885.5759	1443.5139	10456.95	9507.65
885.7194	1445.3435	10381.55	9432.75
885.8629	1447.1724	10332.35	9386.65
886.0064	1449.0005	10280.05	9332.95
886.1499	1450.8279	10212.45	9265.75
886.2933	1452.6545	10209.7	9261.55
886.4368	1454.4804	10225.1	9277.85
886.5802	1456.3056	10224.45	9270.55
886.7237	1458.13	10178.1	9232.85
886.8671	1459.9536	10003.25	9056.85
887.0105	1461.7766	9709.1	8763.15
887.1539	1463.5987	9366.75	8414.5
887.2972	1465.4202	9049.15	8100.7
887.4406	1467.2409	8684.65	7737.15
887.584	1469.0608	8417.45	7470.85
887.7273	1470.88	8156.05	7207.5
887.8706	1472.6984	7934.75	6987.95
888.0139	1474.5161	7714.7	6764.2
888.1572	1476.3331	7558.35	6612.9
888.3005	1478.1493	7451.55	6501
888.4438	1479.9648	7353.55	6406.5
888.5871	1481.7795	7268.65	6322.1
888.7303	1483.5935	7232.7	6283.1
888.8736	1485.4067	7149.2	6201.55
889.0168	1487.2192	7126	6178.85
889.16	1489.031	7077.45	6126.7
889.3032	1490.842	7034.5	6087.1
889.4464	1492.6522	7005.45	6060.7
889.5896	1494.4618	6970	6023.7
889.7327	1496.2705	6926.45	5978.2
889.8759	1498.0785	6878.7	5930.65
890.019	1499.8858	6831.9	5888.1
890.1622	1501.6924	6814.55	5869.15
890.3053	1503.4981	6770.15	5824.9
890.4484	1505.3032	6731.4	5783.35
890.5914	1507.1075	6679.35	5732.8
890.7345	1508.911	6652.2	5708
890.8776	1510.7138	6601.35	5657.15
891.0206	1512.5159	6555.3	5611.1
891.1637	1514.3172	6492.7	5550.6
891.3067	1516.1178	6458.55	5515.4
891.4497	1517.9176	6438.75	5490.65
891.5927	1519.7166	6383.45	5440.6
891.7357	1521.515	6362.4	5414
891.8786	1523.3126	6340.85	5399
892.0216	1525.1094	6306.65	5362.8
892.1645	1526.9055	6284.2	5343.5
892.3074	1528.7008	6251.65	5311.4
892.4503	1530.4954	6227.35	5285.25
892.5932	1532.2893	6230.65	5293.55
892.7361	1534.0824	6209.4	5267.1
892.879	1535.8747	6197.75	5259.25
893.0218	1537.6663	6200.05	5261.45
893.1647	1539.4572	6183.05	5244.05
893.3075	1541.2473	6185.85	5247.25
893.4503	1543.0367	6214.4	5278.45
893.5931	1544.8253	6193.3	5250.8
893.7359	1546.6132	6244.3	5303.9
893.8787	1548.4003	6260.85	5314.35
894.0214	1550.1867	6317.2	5371.85
894.1642	1551.9723	6403.65	5464.3
894.3069	1553.7572	6468.25	5530.65
894.4496	1555.5414	6604.5	5672.5
894.5923	1557.3247	6750.6	5819.05
894.735	1559.1074	6909.55	5981.85
894.8777	1560.8893	7076.3	6148.35
895.0204	1562.6705	7231.25	6301.2
895.163	1564.4509	7364.35	6434.5
895.3056	1566.2305	7428.85	6503.15
895.4482	1568.0094	7479.7	6554
895.5908	1569.7876	7477.35	6550.8
895.7334	1571.565	7482.4	6553.25
895.876	1573.3417	7441.7	6513.1
896.0186	1575.1176	7421.1	6493.3
896.1611	1576.8928	7435.25	6510.7
896.3036	1578.6672	7417.1	6497
896.4461	1580.4409	7435.6	6520
896.5886	1582.2138	7451.6	6527.7
896.7311	1583.986	7523.5	6601.3
896.8736	1585.7575	7607.95	6686.95
897.0161	1587.5282	7657.4	6735.95
897.1585	1589.2981	7779	6858.6
897.3009	1591.0673	7874.55	6960.05
897.4433	1592.8358	7988.5	7067.95
897.5857	1594.6035	8111	7185.65
897.7281	1596.3704	8177.05	7254.75
897.8705	1598.1366	8308.4	7386.5
898.0128	1599.9021	8389.65	7469.95
898.1551	1601.6668	8505.7	7580.25
898.2975	1603.4308	8631.95	7705.4
898.4398	1605.194	8804.6	7878.65
898.5821	1606.9564	9010.5	8094.9
898.7243	1608.7182	9268.3	8359.8
898.8666	1610.4791	9543.7	8639.45
899.0088	1612.2394	9890.55	8983.1
899.1511	1613.9988	10210.05	9303.7
899.2933	1615.7576	10508.45	9593.75
899.4355	1617.5156	10707.2	9782.9
899.5776	1619.2728	10809	9884.65
899.7198	1621.0293	10724.95	9802.5
899.862	1622.785	10521.7	9602.5
900.0041	1624.54	10173	9256.1
900.1462	1626.2942	9792.25	8880.15
900.2883	1628.0477	9398.6	8478.95
900.4304	1629.8005	9016.35	8099.8
900.5725	1631.5525	8676.6	7764.1
900.7145	1633.3037	8347.2	7435
900.8566	1635.0542	8144.85	7232.7
900.9986	1636.804	7976.6	7063.35
901.1406	1638.553	7915.35	6907.65
901.2826	1640.3013	7767	6849.8
901.4245	1642.0488	7713.1	6798.65
901.5665	1643.7955	7733.85	6822.55
901.7085	1645.5416	7779	6868.35
901.8504	1647.2868	7885.2	6971.9
901.9923	1649.0313	8010.9	7092.8
902.1342	1650.7751	8137.3	7221
902.2761	1652.5181	8325.1	7413.5
902.4179	1654.2604	8474.55	7563.35
902.5598	1656.0019	8689.65	7777.05
902.7016	1657.7427	8984.2	8069.85
902.8434	1659.4828	9247.9	8333.15
902.9852	1661.222	9382.65	8463.9
903.127	1662.9606	9367.75	8455.15
903.2687	1664.6984	9133.35	8212.65
903.4105	1666.4354	8730.25	7812.65
903.5522	1668.1717	8147.8	7227.35
903.6939	1669.9072	7590.2	6672.55
903.8356	1671.642	7110	6188.6
903.9773	1673.3761	6676.5	5759.7
904.119	1675.1094	6358.95	5443.55
904.2606	1676.8419	6103.1	5189.2
904.4022	1678.5737	5889.5	4972.55
904.5439	1680.3048	5729	4811.15
904.6855	1682.0351	5587.35	4671.75
904.827	1683.7646	5480.1	4560.5
904.9686	1685.4934	5379.75	4468.65
905.1101	1687.2215	5291.45	4378.95
905.2517	1688.9488	5229.25	4316.35
905.3932	1690.6754	5163	4250.75
905.5347	1692.4012	5116.75	4203.6
905.6761	1694.1263	5070.9	4155.15
905.8176	1695.8506	5033.55	4118.9
905.9591	1697.5742	4986	4077.6
906.1005	1699.297	4931.25	4021.9
906.2419	1701.0191	4870.1	3965.55
906.3833	1702.7404	4847.15	3937.3
906.5246	1704.461	4790	3876.8
906.666	1706.1808	4775.6	3862.1
906.8073	1707.8999	4759.45	3851.6
906.9487	1709.6182	4729.9	3823.6
907.09	1711.3358	4684.85	3781.15
907.2313	1713.0527	4664.8	3762.75
907.3725	1714.7688	4667.4	3759.35
907.5138	1716.4841	4625.2	3715.45
907.655	1718.1987	4617.3	3705.2
907.7962	1719.9126	4599.05	3693.45
907.9374	1721.6257	4555	3649.6
908.0786	1723.338	4556	3653.25
908.2198	1725.0496	4533.75	3625.45
908.3609	1726.7605	4527.65	3617.5
908.502	1728.4706	4511.1	3603.75
908.6431	1730.18	4482.1	3578.1
908.7842	1731.8886	4475.1	3574.2
908.9253	1733.5964	4477.85	3552.55
909.0664	1735.3036	4455.4	3546.45
909.2074	1737.0099	4424.55	3519.2
909.3484	1738.7156	4402.65	3500.45
909.4894	1740.4204	4372.55	3465.1
909.6304	1742.1246	4367.75	3460.85
909.7714	1743.8279	4328.9	3424.45
909.9123	1745.5306	4320.05	3418.25
910.0532	1747.2325	4284.65	3380.35
910.1941	1748.9336	4266.65	3362.85
910.335	1750.634	4258.2	3350.7
910.4759	1752.3336	4258.05	3354.8
910.6168	1754.0325	4239.75	3342.15
910.7576	1755.7307	4217.7	3316.3
910.8984	1757.4281	4209.55	3304.45
911.0392	1759.1247	4218.85	3301.55
911.18	1760.8206	4193.85	3280.5
911.3208	1762.5158	4202.7	3289.7
911.4615	1764.2102	4165.55	3259.6
911.6022	1765.9039	4161.2	3257.9
911.7429	1767.5968	4149.3	3248
911.8836	1769.289	4137.85	3237.85
912.0243	1770.9804	4134.25	3228.7
912.1649	1772.6711	4122.8	3212.7
912.3056	1774.361	4112.45	3204.95
912.4462	1776.0502	4116.85	3209.3
912.5868	1777.7386	4091.3	3180.5
912.7274	1779.4263	4084.6	3179.65
912.8679	1781.1132	4087.8	3188.4
913.0084	1782.7994	4058.85	3158.8
913.149	1784.4849	4060.45	3160.75
913.2895	1786.1696	4079.35	3159.1
913.4299	1787.8535	4047.35	3150.6
913.5704	1789.5367	4033.5	3137.6
913.7108	1791.2192	4025.35	3126.65
913.8513	1792.9009	4035.05	3105.15
913.9917	1794.5818	4007.85	3100.1
914.132	1796.2621	3995.9	3091.65
914.2724	1797.9415	3982.1	3077.9
914.4128	1799.6202	3976.65	3073.4
914.5531	1801.2982	3980.75	3074.3
914.6934	1802.9755	3969.35	3062.7
914.8337	1804.6519	3952.45	3049.15
914.9739	1806.3277	3943.25	3042.35
915.1142	1808.0027	3929.6	3031.35
915.2544	1809.6769	3918.25	3020.45
915.3946	1811.3504	3895.7	2999.5
915.5348	1813.0231	3909.75	3009.75
915.675	1814.6951	3890.95	2990.7
915.8151	1816.3664	3900.8	2997.05
915.9553	1818.0369	3899.5	2998.75
916.0954	1819.7067	3880.25	2978.7
916.2355	1821.3757	3890.1	2984.85
916.3755	1823.044	3877.4	2972.45
916.5156	1824.7115	3879	2975.05
916.6556	1826.3783	3853.3	2952.6
916.7956	1828.0443	3850	2948.6
916.9356	1829.7096	3840.7	2936.8
917.0756	1831.3741	3831.45	2928.35
917.2155	1833.0379	3826.85	2927.5
917.3555	1834.701	3799.75	2902.3
917.4954	1836.3633	3820.75	2923.05
917.6353	1838.0248	3800	2898.9
917.7751	1839.6856	3812.1	2912.7
917.915	1841.3457	3798.75	2899.3
918.0548	1843.005	3794.95	2889.1
918.1946	1844.6636	3790.8	2888.65
918.3344	1846.3214	3774.95	2874.4
918.4742	1847.9785	3768.25	2866.05
918.6139	1849.6349	3753.3	2849.85
918.7537	1851.2904	3767.7	2851.6
918.8934	1852.9453	3753.3	2845.95
919.0331	1854.5994	3749.75	2839.6
919.1727	1856.2528	3743.65	2838.2
919.3124	1857.9054	3727.8	2824.4
919.452	1859.5572	3730.05	2827.7
919.5916	1861.2083	3737	2833.7
919.7312	1862.8587	3721.35	2817.05
919.8708	1864.5084	3718.85	2812.45
920.0103	1866.1572	3700.95	2794
920.1498	1867.8054	3691.9	2782.9
920.2893	1869.4528	3690.75	2785.6
920.4288	1871.0994	3687.3	2781.45
920.5683	1872.7453	3678.9	2775.65
920.7077	1874.3905	3679.5	2768.6
920.8471	1876.0349	3661.2	2757.05
920.9865	1877.6786	3671.2	2766.45
921.1259	1879.3215	3652.35	2749.75
921.2653	1880.9637	3655.25	2751.6
921.4046	1882.6051	3638.6	2737.5
921.5439	1884.2458	3631.9	2729.75
921.6832	1885.8858	3624.95	2723.95
921.8225	1887.525	3617.25	2712.9
921.9617	1889.1634	3595.5	2692.65
922.101	1890.8011	3590.15	2685.35
922.2402	1892.4381	3582.05	2678.45
922.3794	1894.0743	3595.45	2693.05
922.5185	1895.7098	3586.95	2683.55
922.6577	1897.3446	3568.2	2663.55
922.7968	1898.9786	3567.15	2660.8
922.9359	1900.6118	3561.9	2659.7
923.075	1902.2443	3537.65	2638
923.214	1903.8761	3526.8	2624.1
923.3531	1905.5071	3521	2615.6
923.4921	1907.1374	3511.9	2610.15
923.6311	1908.7669	3508.6	2606.3
923.77	1910.3957	3501.95	2603.05
923.909	1912.0237	3469.95	2569.75
924.0479	1913.651	3486.75	2584.15
924.1868	1915.2776	3471.85	2570.05
924.3257	1916.9034	3473.35	2574.05
924.4646	1918.5285	3451.1	2551.45
924.6034	1920.1528	3445	2542.8
924.7422	1921.7764	3454.15	2553
924.881	1923.3992	3436.9	2535.4
925.0198	1925.0213	3415.25	2513.6
925.1586	1926.6427	3394.7	2495.65
925.2973	1928.2633	3483.85	2505.6
925.436	1929.8832	3399.9	2494.05
925.5747	1931.5023	3372.05	2470.5
925.7134	1933.1207	3372.75	2471.65
925.852	1934.7383	3375.4	2474.25
925.9906	1936.3552	3355.3	2457.3
926.1292	1937.9714	3364.15	2465.15
926.2678	1939.5868	3349.05	2445.2
926.4064	1941.2015	3316	2414.75
926.5449	1942.8154	3328.5	2425.95
926.6834	1944.4286	3325.95	2425.95
926.8219	1946.041	3322.25	2402.25
926.9604	1947.6528	3285.3	2378.55
927.0988	1949.2637	3274.95	2376.2
927.2372	1950.8739	3261.9	2361.8
927.3756	1952.4834	3266	2366.8
927.514	1954.0921	3275.75	2373.8
927.6523	1955.7001	3269.7	2367.75
927.7907	1957.3074	3251.8	2353.45
927.929	1958.9139	3237.4	2343.45
928.0673	1960.5197	3243.45	2345.25
928.2055	1962.1247	3219.3	2322.45
928.3438	1963.729	3221.45	2325.7
928.482	1965.3325	3201.5	2300.6
928.6202	1966.9353	3200.3	2306.2
928.7584	1968.5374	3181.95	2287.15
928.8965	1970.1387	3170.9	2272.85
929.0346	1971.7393	3171.85	2274.95
929.1727	1973.3392	3169.1	2273.75
929.3108	1974.9383	3147.8	2252.65
929.4489	1976.5366	3132.5	2240.3
929.5869	1978.1342	3149.5	2257
929.7249	1979.7311	3132.3	2239.15
929.8629	1981.3273	3129.95	2236.65
930.0009	1982.9227	3106.35	2211.45
930.1388	1984.5173	3086.65	2193.8
930.2767	1986.1112	3085.4	2192.75
930.4146	1987.7044	3102.4	2208.9
930.5525	1989.2968	3099.1	2205.25
930.6904	1990.8885	3089.25	2193.85
930.8282	1992.4795	3087.6	2197.25
930.966	1994.0697	3066.75	2180.55
931.1038	1995.6592	3046.65	2157.05
931.2415	1997.2479	3062	2168.65
931.3793	1998.8359	3054.45	2163.55
931.517	2000.4232	3037.15	2150.3
931.6547	2002.0097	3025.6	2142.6
931.7923	2003.5955	3011.75	2125
931.93	2005.1805	3022.95	2134.55
932.0676	2006.7648	3012.75	2124.25
932.2052	2008.3484	3009.1	2122.15
932.3427	2009.9312	3015.5	2129.05
932.4803	2011.5133	2989.95	2107.85
932.6178	2013.0946	3005.3	2119.95
932.7553	2014.6752	2976.85	2091
932.8928	2016.2551	2990.9	2100.45
933.0302	2017.8342	2975.7	2085.8
933.1676	2019.4126	2963.7	2078.1
933.305	2020.9902	2965	2081.35
933.4424	2022.5672	2965.5	2081.15
933.5798	2024.1433	2957.6	2071.05
933.7171	2025.7188	2949.55	2068.5
933.8544	2027.2935	2934.7	2047.6
933.9917	2028.8674	2920.05	2035.65
934.129	2030.4406	2933.35	2052.7
934.2662	2032.0131	2907.6	2025.1
934.4034	2033.5849	2910.3	2023.4
934.5406	2035.1559	2904.55	2022.75
934.6778	2036.7261	2890.6	2004.9
934.8149	2038.2957	2911	2023.25
934.952	2039.8645	2907.95	2015.25
935.0891	2041.4325	2899.55	2007.25
935.2262	2042.9998	2882.75	1994.6
935.3632	2044.5664	2869.95	1981
935.5002	2046.1323	2869.75	1985.35
935.6372	2047.6974	2864	1982.4
935.7742	2049.2617	2848.9	1964.65
935.9111	2050.8254	2858	1968.75
936.048	2052.3883	2855.9	1967.1
936.1849	2053.9504	2855.05	1964.6
936.3218	2055.5118	2852.45	1961.6
936.4586	2057.0725	2848.15	1955.4
936.5955	2058.6325	2822.9	1935.85
936.7323	2060.1917	2806.25	1920.55
936.869	2061.7502	2807.2	1922.15
937.0058	2063.3079	2806.4	1923.95
937.1425	2064.8649	2799.2	1912.45
937.2792	2066.4212	2790.05	1902.8
937.4159	2067.9767	2793.5	1905.7
937.5525	2069.5315	2790.75	1902.2
937.6891	2071.0856	2786.1	1899.05
937.8257	2072.6389	2772.85	1886.55
937.9623	2074.1915	2754.7	1871.95
938.0989	2075.7433	2759.25	1873.1
938.2354	2077.2945	2763.5	1878.2
938.3719	2078.8448	2753.75	1864.35
938.5084	2080.3945	2738.25	1848.15
938.6448	2081.9434	2739.9	1850.95
938.7812	2083.4916	2749	1857.2
938.9176	2085.039	2742.8	1846.8
939.054	2086.5857	2736.15	1837.75
939.1903	2088.1317	2725.15	1825.7
939.3267	2089.677	2709.9	1813.6
939.463	2091.2215	2715.8	1820.15
939.5992	2092.7652	2710.8	1814.3
939.7355	2094.3083	2694.65	1796.65
939.8717	2095.8506	2707.8	1816.7
940.0079	2097.3921	2693.1	1801.5
940.1441	2098.933	2691.25	1799.65
940.2802	2100.4731	2688.75	1796.8
940.4163	2102.0124	2706.6	1795.4
940.5524	2103.5511	2694.55	1800.5
940.6885	2105.089	2670.55	1777.45
940.8245	2106.6261	2683.65	1792.6
940.9606	2108.1626	2663.7	1771.6
941.0965	2109.6983	2685.1	1766.25
941.2325	2111.2332	2665.35	1772.35
941.3684	2112.7675	2653.45	1757.8
941.5044	2114.301	2656.2	1761
941.6403	2115.8337	2649.65	1754.3
941.7761	2117.3657	2635.8	1744.35
941.912	2118.897	2635.2	1740.15
942.0478	2120.4276	2634.9	1735.15
942.1835	2121.9575	2624.4	1731.9
942.3193	2123.4866	2618.7	1721.4
942.455	2125.0149	2629.95	1735
942.5907	2126.5426	2607.75	1718.25
942.7264	2128.0695	2604.45	1714.05
942.8621	2129.5956	2603.75	1720.2
942.9977	2131.1211	2587.9	1694.95
943.1333	2132.6458	2599.15	1709.6
943.2689	2134.1698	2585.05	1691.3
943.4044	2135.693	2592.45	1693.05
943.54	2137.2155	2595.4	1696.25
943.6755	2138.7373	2586	1693.15
943.8109	2140.2584	2572.8	1686.6
943.9464	2141.7787	2564.2	1672.8
944.0818	2143.2983	2548.4	1666.75
944.2172	2144.8171	2546.95	1664.05
944.3526	2146.3353	2544.4	1656.35
944.4879	2147.8527	2548.85	1659.5
944.6232	2149.3693	2547.3	1654.95
944.7585	2150.8853	2533.5	1640
944.8938	2152.4005	2531.35	1635.35
945.029	2153.9149	2527.95	1632.85
945.1642	2155.4287	2520.5	1624.45
945.2994	2156.9417	2516.75	1625.2
945.4346	2158.454	2508.5	1618
945.5697	2159.9655	2513.05	1625.2
945.7048	2161.4764	2496.85	1608.35
945.8399	2162.9865	2478.15	1590.2
945.9749	2164.4958	2494.85	1606.25
946.1099	2166.0045	2484.2	1593
946.2449	2167.5124	2484.3	1593.1
946.3799	2169.0195	2482.1	1589.9
946.5148	2170.526	2486.75	1590.95
946.6498	2172.0317	2481.7	1589.4
946.7846	2173.5367	2470.6	1577.05
946.9195	2175.0409	2455.55	1564.35
947.0543	2176.5445	2464.25	1572.4
947.1891	2178.0473	2463.15	1566.6
947.3239	2179.5494	2460.25	1562.2
947.4587	2181.0507	2443.95	1550.4
947.5934	2182.5513	2444.6	1552.8
947.7281	2184.0512	2450.55	1558
947.8628	2185.5504	2436.4	1543.7
947.9974	2187.0488	2427.95	1537.45
948.132	2188.5465	2419.4	1531.65
948.2666	2190.0435	2418.3	1528.3
948.4012	2191.5397	2419.45	1527.2
948.5357	2193.0353	2421.5	1526.3
948.6702	2194.5301	2424.25	1527.7
948.8047	2196.0241	2431.6	1533.2
948.9392	2197.5175	2403.65	1502.65
949.0736	2199.0101	2394	1493.65
949.208	2200.502	2386.45	1493.6
949.3424	2201.9931	2384.6	1494.15
949.4767	2203.4835	2369.9	1480.35
949.611	2204.9733	2382.25	1479.25
949.7453	2206.4622	2359.7	1473.4
949.8796	2207.9505	2359.75	1471.25
950.0138	2209.438	2355	1469.75
950.148	2210.9248	2352.5	1462.75
950.2822	2212.4109	2356.15	1465.55
950.4164	2213.8962	2349.7	1453.2
950.5505	2215.3809	2351.95	1454.6
950.6846	2216.8648	2342.2	1444.35
950.8186	2218.3479	2336.7	1431.05
950.9527	2219.8304	2340.15	1435.25
951.0867	2221.3121	2328.9	1428.55
951.2207	2222.7931	2315.95	1421.2
951.3546	2224.2733	2326.5	1430.8
951.4886	2225.7529	2302.8	1409.85
951.6225	2227.2317	2301.55	1408.1
951.7563	2228.7098	2296.6	1407.55
951.8902	2230.1872	2284.2	1397.85
952.024	2231.6638	2283.8	1394.1
952.1578	2233.1397	2279.05	1385.2
952.2916	2234.6149	2280.15	1390.7
952.4253	2236.0894	2267.5	1376.45
952.559	2237.5632	2288.15	1388.7
952.6927	2239.0362	2256.05	1366.35
952.8263	2240.5085	2265.15	1373.7
952.9599	2241.9801	2263.35	1368.95
953.0935	2243.4509	2250.35	1351.05
953.2271	2244.921	2253.3	1357.75
953.3606	2246.3904	2248.65	1350.4
953.4941	2247.8591	2238.85	1345
953.6276	2249.3271	2236.05	1341.4
953.7611	2250.7943	2236.55	1340.25
953.8945	2252.2608	2229.9	1334.15
954.0279	2253.7266	2219.2	1323.8
954.1612	2255.1917	2225.3	1332
954.2946	2256.656	2214.2	1324.05
954.4279	2258.1197	2211.05	1321.4
954.5612	2259.5826	2199.65	1308.4
954.6944	2261.0447	2202.95	1309.1
954.8276	2262.5062	2203.2	1306.95
954.9608	2263.9669	2201.5	1305.45
955.094	2265.4269	2196.7	1302.45
955.2271	2266.8862	2180.5	1289.25
955.3602	2268.3448	2179.95	1289.25
955.4933	2269.8026	2180.3	1289.75
955.6264	2271.2598	2170.45	1279.1
955.7594	2272.7162	2179.45	1287.7
955.8924	2274.1719	2173.65	1281.5
956.0253	2275.6268	2169	1272.45
956.1583	2277.0811	2165.55	1268.75
956.2912	2278.5346	2164.75	1273.3
956.4241	2279.9874	2165.8	1275.8
956.5569	2281.4395	2162.5	1273.65
956.6897	2282.8908	2159.9	1262.05
956.8225	2284.3414	2154.75	1261.55
956.9553	2285.7914	2150.75	1258.2
957.088	2287.2406	2152.25	1256.45
957.2207	2288.689	2153.55	1258.15
957.3534	2290.1368	2147.2	1245.45
957.486	2291.5838	2148.65	1245.65
957.6186	2293.0302	2148.45	1246.75
957.7512	2294.4758	2124.8	1228.95
957.8838	2295.9206	2136.55	1237.55
958.0163	2297.3648	2114.2	1223.15
958.1488	2298.8082	2124.5	1231.75
958.2813	2300.251	2129.1	1234.1
958.4137	2301.693	2111.9	1212.6
958.5461	2303.1343	2115.05	1219.3
958.6785	2304.5748	2108.95	1217.5
958.8108	2306.0147	2110.2	1219.5
958.9432	2307.4538	2096.75	1206.05
959.0754	2308.8922	2092.05	1203.65
959.2077	2310.3299	2086.35	1197.85
959.3399	2311.7669	2089.8	1199.8
959.4721	2313.2031	2092.85	1198.15
959.6043	2314.6387	2082.5	1188.5
959.7365	2316.0735	2075.15	1180.4
959.8686	2317.5076	2074.1	1180.15
960.0006	2318.941	2079.45	1184.65
960.1327	2320.3737	2064.75	1167.5
960.2647	2321.8056	2072.4	1174.05
960.3967	2323.2369	2066.6	1171.75
960.5287	2324.6674	2057.3	1161.45
960.6606	2326.0972	2051.65	1157.2
960.7925	2327.5263	2059	1163.75
960.9244	2328.9547	2056	1157.55
961.0562	2330.3823	2057.8	1158.35
961.1881	2331.8092	2055.95	1154.4
961.3198	2333.2355	2043.8	1147.85
961.4516	2334.661	2045.1	1148.15
961.5833	2336.0858	2049.15	1149.75
961.715	2337.5098	2025.2	1129.8
961.8467	2338.9332	2032.85	1135.2
961.9783	2340.3558	2024.55	1129.05
962.1099	2341.7778	2021.35	1127
962.2415	2343.199	2024.55	1130.8
962.373	2344.6195	2009.05	1118.4
962.5045	2346.0393	2008.5	1116.6
962.636	2347.4583	2016.35	1123.3
962.7675	2348.8767	2018.15	1122.05
962.8989	2350.2943	2019.5	1119.3
963.0303	2351.7113	2020.5	1118
963.1617	2353.1275	2011.55	1109.25
963.293	2354.543	2020.75	1113.65
963.4243	2355.9578	2012.4	1115.8
963.5556	2357.3718	1992.3	1099.75
963.6868	2358.7852	1998.55	1102.4
963.818	2360.1978	1990.3	1096.85
963.9492	2361.6098	1984.4	1091.05
964.0803	2363.021	1980.85	1082.95
964.2114	2364.4315	1981.75	1085.5
964.3425	2365.8413	1990.75	1097.55
964.4736	2367.2504	1982.65	1091.5
964.6046	2368.6587	1965.4	1075.85
964.7356	2370.0664	1967.95	1075.9
964.8666	2371.4733	1959.6	1065.7
964.9975	2372.8795	1958	1062.55
965.1284	2374.285	1965.6	1069
965.2593	2375.6899	1958	1063.55
965.3901	2377.0939	1940.15	1046.65
965.5209	2378.4973	1942.3	1048.4
965.6517	2379.9	1942.05	1049.3
965.7825	2381.3019	1937.35	1045
965.9132	2382.7032	1940.85	1050.95
966.0439	2384.1037	1931.5	1043
966.1745	2385.5035	1919.15	1028.2
966.3051	2386.9027	1919.75	1031.25
966.4357	2388.3011	1925.55	1033.25
966.5663	2389.6987	1916.95	1023.5
966.6968	2391.0957	1916.1	1026.1
966.8273	2392.492	1917.5	1027.6
966.9578	2393.8876	1906.45	1015.2
967.0882	2395.2824	1894.4	1002.35
967.2186	2396.6765	1891.4	998.65
967.349	2398.07	1896.75	1003.35
967.4793	2399.4627	1901	1005.35
967.6097	2400.8547	1892.25	996.25
967.7399	2402.246	1889.7	988.05
967.8702	2403.6366	1886.55	993.6
968.0004	2405.0265	1875.6	985.3
968.1306	2406.4156	1877.9	981.85
968.2607	2407.8041	1864.45	969.45
968.3909	2409.1918	1865	967.7
968.521	2410.5789	1870.7	978.55
968.651	2411.9652	1866.25	969.1
968.781	2413.3508	1862.45	968.25
968.911	2414.7358	1861.15	966.4
969.041	2416.12	1846.7	955.5
969.1709	2417.5035	1851.15	956.45
969.3008	2418.8863	1863.75	969.8
969.4307	2420.2684	1859.9	966.4
969.5606	2421.6497	1850.85	956.3
969.6904	2423.0304	1844.4	950
969.8201	2424.4104	1841.4	947.45
969.9499	2425.7896	1840.75	942.95
970.0796	2427.1682	1831.2	937.65
970.2093	2428.546	1830.8	935.45
970.3389	2429.9232	1832.95	938.65
970.4685	2431.2996	1828.3	933.75
970.5981	2432.6753	1824.75	930.4
970.7277	2434.0503	1818.6	925
970.8572	2435.4246	1819.1	923.5
970.9867	2436.7982	1821.3	925.25
971.1161	2438.1711	1815.2	921.5
971.2456	2439.5433	1804	910.85
971.375	2440.9148	1808.2	908.35
971.5043	2442.2856	1807.9	914
971.6336	2443.6557	1806.45	912.45
971.7629	2445.025	1802.25	909.55
971.8922	2446.3937	1789.8	893.65
972.0214	2447.7617	1789.6	892.9
972.1506	2449.1289	1801	908.55
972.2798	2450.4955	1796.65	900.4
972.4089	2451.8613	1790.85	898.3
972.538	2453.2265	1781.7	888.45
972.6671	2454.5909	1783.15	889.45
972.7961	2455.9546	1771.85	880.3
972.9251	2457.3177	1776.95	884.6
973.0541	2458.68	1775.05	882.25
973.1831	2460.0416	1771.45	875.95
973.312	2461.4025	1774.85	881.15
973.4408	2462.7627	1773.75	869.7
973.5697	2464.1222	1761.75	870.85
973.6985	2465.4811	1757.85	868.15
973.8273	2466.8392	1762.3	870.25
973.956	2468.1966	1764.35	869.35
974.0847	2469.5533	1768.3	873.25
974.2134	2470.9093	1767.15	873.75
974.3421	2472.2645	1746.95	851.3
974.4707	2473.6191	1759.6	867
974.5993	2474.973	1758.25	864.2
974.7278	2476.3262	1752.05	857.05
974.8563	2477.6787	1750.15	858.45
974.9848	2479.0305	1747.3	854.8
975.1132	2480.3816	1748.05	853.4
975.2417	2481.7319	1739.5	847.15
975.37	2483.0816	1742.2	848.65
975.4984	2484.4306	1735.2	842.7
975.6267	2485.7789	1722.55	833.75
975.755	2487.1264	1729.5	837.65
975.8833	2488.4733	1717.65	824.8
976.0115	2489.8195	1724.35	823.9
976.1397	2491.165	1720.8	824.85
976.2678	2492.5097	1721.75	827
976.3959	2493.8538	1717.45	828.5
976.524	2495.1972	1711.75	819.25
976.6521	2496.5398	1705.95	812.8
976.7801	2497.8818	1713.7	816.3
976.9081	2499.2231	1706.55	811.65
977.036	2500.5637	1703.3	804.65
977.164	2501.9035	1699.3	802.65
977.2918	2503.2427	1705.95	808.05
977.4197	2504.5812	1698.4	804.8
977.5475	2505.919	1697.15	800.9
977.6753	2507.256	1689.1	796.65
977.8031	2508.5924	1689	797.7
977.9308	2509.9281	1693.65	795.2
978.0585	2511.2631	1684.2	791.5
978.1861	2512.5974	1688.15	795.45
978.3137	2513.9309	1681.3	790.7
978.4413	2515.2638	1695.95	777.45
978.5689	2516.596	1679.9	788.55
978.6964	2517.9275	1677.5	782.95
978.8239	2519.2583	1669.1	773.45
978.9513	2520.5884	1657.6	764.85
979.0788	2521.9178	1667.05	772.95
979.2062	2523.2465	1673.8	781.75
979.3335	2524.5745	1655.5	763.5
979.4608	2525.9018	1662.6	769.2
979.5881	2527.2284	1654.5	763
979.7154	2528.5543	1657.4	764.1
979.8426	2529.8796	1653.4	761.85
979.9698	2531.2041	1659.95	768.1
980.0969	2532.5279	1655.5	763.45
980.224	2533.851	1657.65	763.85
980.3511	2535.1735	1652.45	759.1
980.4781	2536.4952	1653.2	760.7
980.6052	2537.8163	1648.05	752.35
980.7321	2539.1366	1644.3	750.85
980.8591	2540.4562	1650.75	753.95
980.986	2541.7752	1648.9	755.85
981.1129	2543.0935	1649.6	754.2
981.2397	2544.411	1641.1	745.05
981.3665	2545.7279	1646.3	752.9
981.4933	2547.0441	1643.25	751.15
981.62	2548.3596	1647.55	752.5
981.7467	2549.6744	1635.9	744.35
981.8734	2550.9885	1636.2	739.9
982.0001	2552.3019	1637.65	744.5
982.1267	2553.6146	1638.95	743.9
982.2532	2554.9266	1627.65	734.25
982.3798	2556.2379	1626.9	730.8
982.5063	2557.5485	1623.3	733.3
982.6327	2558.8585	1628	726.5
982.7592	2560.1677	1628.55	731.1
982.8856	2561.4762	1636.05	739.9
983.0119	2562.7841	1626.65	729.9
983.1383	2564.0913	1611.15	720.55
983.2646	2565.3977	1623.45	730.3
983.3908	2566.7035	1618.1	721.35
983.517	2568.0086	1612.5	717.2
983.6432	2569.313	1620.75	726.8
983.7694	2570.6167	1613.5	717.25
983.8955	2571.9197	1616.5	723.5
984.0216	2573.222	1615.7	719.25
984.1476	2574.5236	1607.75	717.4
984.2737	2575.8246	1613.65	718.15
984.3996	2577.1248	1604.35	709.1
984.5256	2578.4244	1610.85	720.1
984.6515	2579.7232	1611.8	718.4
984.7774	2581.0214	1634.7	717.15
984.9032	2582.3189	1615.8	724.5
985.029	2583.6157	1609.4	713.2
985.1548	2584.9118	1609.55	714
985.2806	2586.2072	1609.85	716.8
985.4063	2587.5019	1601.25	708.05
985.5319	2588.7959	1600.75	707.45
985.6576	2590.0893	1611.1	715.1
985.7832	2591.3819	1605.9	714.8
985.9087	2592.6739	1598.8	706.9
986.0343	2593.9652	1608.35	714.25
986.1597	2595.2557	1606.35	711.5
986.2852	2596.5456	1604.1	707
986.4106	2597.8348	1600.7	710.4
986.536	2599.1234	1599.45	707.05
986.6614	2600.4112	1599.3	708.1
986.7867	2601.6983	1605.3	710
986.912	2602.9848	1598.6	704.3
987.0372	2604.2705	1604.9	705.6
987.1624	2605.5556	1597.55	705.05
987.2876	2606.84	1599.9	710.65
987.4128	2608.1237	1598.55	707.1
987.5379	2609.4067	1589.35	698.75
987.6629	2610.689	1596.4	693.8
987.788	2611.9707	1592.35	694.65
987.913	2613.2516	1577.1	680.95
988.0379	2614.5319	1578.15	686.5
988.1629	2615.8115	1579.65	688.7
988.2878	2617.0903	1571	679.65
988.4126	2618.3685	1571.15	677.5
988.5375	2619.6461	1564.3	674.7
988.6622	2620.9229	1562.7	672.65
988.787	2622.199	1563.15	671
988.9117	2623.4745	1561.7	668.7
989.0364	2624.7493	1574.6	684.35
989.161	2626.0234	1563.7	673.25
989.2857	2627.2968	1560.6	668.65
989.4102	2628.5695	1561.65	669.5
989.5348	2629.8415	1552.45	663.05
989.6593	2631.1128	1555.25	662.15
989.7837	2632.3835	1544.2	652.9
989.9082	2633.6535	1551.1	663.35
990.0326	2634.9228	1550.55	662.75
990.1569	2636.1914	1548.65	659.25
990.2812	2637.4593	1547.3	658.15
990.4055	2638.7265	1545.05	653
990.5298	2639.9931	1546.8	654.3
990.654	2641.259	1541.55	648.05
990.7782	2642.5242	1541.2	647.35
990.9023	2643.7887	1538.8	646.3
991.0264	2645.0525	1536.75	648.15
991.1505	2646.3156	1538	646.65
991.2745	2647.5781	1530.1	640.1
991.3985	2648.8398	1527.9	638.45
991.5225	2650.1009	1554.1	625.5
991.6464	2651.3613	1524.85	634.3
991.7703	2652.6211	1530.75	641.4
991.8942	2653.8801	1523.9	631.55
992.018	2655.1385	1527.75	635.45
992.1418	2656.3961	1518.95	628.6
992.2655	2657.6531	1522.1	630.55
992.3892	2658.9094	1520.35	633.6
992.5129	2660.1651	1520.05	631.45
992.6366	2661.42	1522.95	632.3
992.7602	2662.6743	1523.3	631.5
992.8837	2663.9279	1521.35	630.7
993.0073	2665.1808	1526.8	635.65
993.1307	2666.433	1530	637.9
993.2542	2667.6846	1525.4	634.95
993.3776	2668.9354	1531.2	637.65
993.501	2670.1856	1530.65	640.65
993.6244	2671.4351	1537.05	648.15
993.7477	2672.6839	1545.6	652.45
993.8709	2673.9321	1531.25	640.35
993.9942	2675.1795	1542.2	652.2
994.1174	2676.4263	1535.75	646.5
994.2405	2677.6724	1535.9	649.35
994.3637	2678.9179	1543.9	653.9
994.4868	2680.1626	1537.45	647.5
994.6098	2681.4067	1537.7	646.8
994.7328	2682.6501	1546.95	655.5
994.8558	2683.8928	1528.15	637.1
994.9788	2685.1348	1529	639.25
995.1017	2686.3761	1527.55	637.75
995.2245	2687.6168	1520.35	631.25
995.3474	2688.8568	1512.7	621.05
995.4702	2690.0961	1509.95	621.05
995.5929	2691.3348	1507.5	618.1
995.7156	2692.5727	1509.75	618
995.8383	2693.81	1507.85	617.95
995.961	2695.0466	1504.75	616.9
996.0836	2696.2826	1505.35	612.9
996.2062	2697.5178	1504.35	609.75
996.3287	2698.7524	1513.7	624.2
996.4512	2699.9863	1511.5	620.8
996.5737	2701.2195	1507.8	621.8
996.6961	2702.452	1511.7	619.85
996.8185	2703.6839	1520.05	631.8
996.9408	2704.9151	1518.05	628.7
997.0631	2706.1456	1526.15	636.65
997.1854	2707.3755	1530.3	641.45
997.3077	2708.6046	1537.55	644.8
997.4299	2709.8331	1541.55	650.7
997.552	2711.0609	1540.5	651.5
997.6742	2712.2881	1555.8	666.7
997.7963	2713.5145	1564.1	672.1
997.9183	2714.7403	1576.45	686.75
998.0403	2715.9654	1583.25	693
998.1623	2717.1899	1592.65	688.9
998.2842	2718.4136	1604.65	717.5
998.4062	2719.6367	1608.95	720.15
998.528	2720.8591	1624.85	731.6
998.6498	2722.0809	1628.7	740.4
998.7716	2723.3019	1639.15	749.55
998.8934	2724.5223	1651.65	759
999.0151	2725.7421	1654.7	765.4
999.1368	2726.9611	1664.05	772.05
999.2584	2728.1795	1659.95	766.2
999.38	2729.3972	1643.5	755.15
999.5016	2730.6142	1646.2	744.75
999.6231	2731.8306	1621.5	733
999.7446	2733.0462	1604.75	714.25
999.8661	2734.2612	1595.25	701.2
999.9875	2735.4756	1580.25	691.4
1000.1089	2736.6892	1561.4	670.1
1000.2302	2737.9022	1541.15	652.8
1000.3515	2739.1145	1531.45	641.5
1000.4728	2740.3262	1529.8	632.75
1000.594	2741.5372	1507.3	618.55
1000.7152	2742.7475	1500.85	611.45
1000.8363	2743.9571	1490.4	596.9
1000.9575	2745.1661	1488.1	594.75
1001.0785	2746.3744	1472.8	585.3
1001.1996	2747.582	1464.35	575.9
1001.3206	2748.7889	1456	566.55
1001.4415	2749.9952	1450.7	562.25
1001.5625	2751.2008	1437.3	549.15
1001.6833	2752.4057	1442.35	551.7
1001.8042	2753.61	1437.35	549.55
1001.925	2754.8136	1435.75	544.2
1002.0458	2756.0165	1425.95	538.7
1002.1665	2757.2188	1430.1	542.45
1002.2872	2758.4204	1428.05	541.4
1002.4078	2759.6213	1429.7	539.15
1002.5285	2760.8215	1435.75	544.45
1002.649	2762.0211	1429.35	539.3
1002.7696	2763.22	1433.1	543
1002.8901	2764.4182	1419.85	529.15
1003.0106	2765.6158	1420.7	533.9
1003.131	2766.8127	1415.65	527.55
1003.2514	2768.009	1411.8	524.25
1003.3717	2769.2045	1408.65	521.05
1003.492	2770.3994	1405.3	514.75
1003.6123	2771.5936	1405.25	515.7
1003.7325	2772.7872	1400.5	514.2
1003.8527	2773.9801	1394.65	504.55
1003.9729	2775.1723	1425.15	520.95
1004.093	2776.3639	1392.95	504.95
1004.2131	2777.5548	1395.1	505
1004.3331	2778.745	1400.55	512.45
1004.4531	2779.9346	1396.2	509.45
1004.5731	2781.1235	1404.1	516.85
1004.693	2782.3117	1393.85	507.7
1004.8129	2783.4992	1401.25	515.7
1004.9328	2784.6861	1401.6	514.95
1005.0526	2785.8723	1408.95	521.1
1005.1723	2787.0579	1405.1	517.6
1005.2921	2788.2428	1412.4	524.85
1005.4118	2789.427	1412	524.55
1005.5314	2790.6106	1425.9	537.95
1005.651	2791.7935	1431.05	544.9
1005.7706	2792.9757	1430.35	546
1005.8902	2794.1573	1450.4	561.7
1006.0097	2795.3382	1452.75	566.5
1006.1291	2796.5184	1454.65	568.55
1006.2485	2797.698	1473.95	585.4
1006.3679	2798.8769	1487.05	601.55
1006.4873	2800.0551	1487.9	599.6
1006.6066	2801.2327	1495.7	606.7
1006.7258	2802.4096	1513.2	629.5
1006.8451	2803.5859	1534.25	646.5
1006.9642	2804.7615	1554.9	667.4
1007.0834	2805.9364	1572.65	686.85
1007.2025	2807.1106	1590.1	705.85
1007.3216	2808.2842	1612.9	725.55
1007.4406	2809.4572	1638.05	751.15
1007.5596	2810.6294	1668.9	780.95
1007.6785	2811.801	1702.8	818.45
1007.7975	2812.972	1745.1	860.65
1007.9163	2814.1423	1776.35	889.8
1008.0352	2815.3119	1822.6	934
1008.154	2816.4808	1876	990.95
1008.2727	2817.6491	1919.2	1031.7
1008.3914	2818.8167	1966.65	1081.45
1008.5101	2819.9837	2019.2	1128.55
1008.6288	2821.15	2077.7	1190.1
1008.7474	2822.3157	2120.8	1236.75
1008.8659	2823.4807	2188.25	1302.35
1008.9844	2824.645	2243.05	1356.6
1009.1029	2825.8086	2300.7	1414.65
1009.2214	2826.9716	2352.85	1467
1009.3398	2828.134	2409.9	1523.05
1009.4581	2829.2957	2459.55	1574.3
1009.5764	2830.4567	2492.6	1606.75
1009.6947	2831.617	2504.15	1617.65
1009.813	2832.7767	2538.2	1653.7
1009.9312	2833.9358	2543.6	1658.5
1010.0493	2835.0941	2531.3	1643.25
1010.1675	2836.2519	2515.2	1627.9
1010.2855	2837.4089	2486.35	1599.15
1010.4036	2838.5653	2489.9	1605.3
1010.5216	2839.7211	2466.6	1584.7
1010.6396	2840.8761	2460.6	1573.8
1010.7575	2842.0306	2465.25	1580.25
1010.8754	2843.1843	2496.05	1612
1010.9932	2844.3374	2529	1643.5
1011.111	2845.4899	2568.5	1680.2
1011.2288	2846.6417	2617.15	1732.4
1011.3465	2847.7928	2673.95	1789.3
1011.4642	2848.9433	2735	1849.5
1011.5818	2850.0931	2794.8	1909.7
1011.6995	2851.2422	2870.85	1983.05
1011.817	2852.3907	2918.6	2031.6
1011.9345	2853.5385	2978.2	2091.85
1012.052	2854.6857	3046.4	2132.25
1012.1695	2855.8323	3061.55	2176.05
1012.2869	2856.9781	3131.05	2247.5
1012.4042	2858.1233	3174.15	2288.55
1012.5216	2859.2679	3216.9	2332.75
1012.6389	2860.4118	3276.75	2390.3
1012.7561	2861.555	3329.6	2440.35
1012.8733	2862.6976	3351.55	2466.65
1012.9905	2863.8395	3393.55	2509.3
1013.1076	2864.9808	3425.3	2540.45
1013.2247	2866.1214	3452.4	2568.95
1013.3417	2867.2614	3475.75	2591
1013.4587	2868.4007	3492.1	2606.45
1013.5757	2869.5393	3518.25	2631.5
1013.6926	2870.6773	3531.35	2640.2
1013.8095	2871.8146	3529.85	2641
1013.9263	2872.9513	3531.85	2642.95
1014.0431	2874.0874	3514.95	2628.35
1014.1599	2875.2227	3510	2623.7
1014.2766	2876.3574	3497.3	2614.5
1014.3933	2877.4915	3453	2566.4
1014.51	2878.6249	3444.85	2560.05
1014.6266	2879.7577	3412.2	2526.3
1014.7431	2880.8898	3407.2	2512.9
1014.8596	2882.0212	3377.35	2492.25
1014.9761	2883.152	3364.6	2481.15
1015.0925	2884.2821	3355.85	2470.4
1015.2089	2885.4116	3349.05	2467.15
1015.3253	2886.5405	3342.75	2458.45
1015.4416	2887.6686	3369.7	2479.45
1015.5579	2888.7962	3355.65	2471.6
1015.6741	2889.923	3373.5	2489.65
1015.7903	2891.0493	3386.8	2504.75
1015.9065	2892.1748	3395.6	2511.1
1016.0226	2893.2997	3408.4	2524.3
1016.1387	2894.424	3409.95	2529.75
1016.2547	2895.5476	3432.7	2547.65
1016.3707	2896.6706	3448.2	2565.45
1016.4866	2897.7929	3477.4	2593.05
1016.6025	2898.9145	3497.2	2612.15
1016.7184	2900.0355	3534.3	2652.2
1016.8342	2901.1559	3560.65	2674.7
1016.95	2902.2756	3582.05	2693.35
1017.0658	2903.3946	3609.1	2724.6
1017.1815	2904.513	3649.8	2764.3
1017.2971	2905.6308	3667.1	2782.95
1017.4127	2906.7479	3686.8	2803.15
1017.5283	2907.8643	3718.85	2834.2
1017.6439	2908.9801	3731.65	2847.45
1017.7594	2910.0953	3724.45	2843
1017.8748	2911.2098	3738.9	2852.25
1017.9902	2912.3236	3735	2844.6
1018.1056	2913.4368	3707.85	2821.1
1018.2209	2914.5494	3696.3	2810.25
1018.3362	2915.6613	3669.95	2779.15
1018.4515	2916.7725	3641.35	2754.3
1018.5667	2917.8831	3620.95	2735.05
1018.6819	2918.9931	3596.7	2710.8
1018.797	2920.1024	3567.35	2683.25
1018.9121	2921.211	3535.05	2652.65
1019.0271	2922.319	3517	2635.55
1019.1421	2923.4264	3502.45	2621.35
1019.2571	2924.5331	3498.25	2615.15
1019.372	2925.6391	3499.65	2617.3
1019.4869	2926.7445	3478.1	2594.15
1019.6017	2927.8493	3493.6	2610
1019.7165	2928.9534	3495.9	2610.2
1019.8313	2930.0569	3504.95	2617.3
1019.946	2931.1597	3502.5	2618.85
1020.0606	2932.2619	3498.75	2613.8
1020.1753	2933.3634	3508.5	2626.35
1020.2899	2934.4643	3516.3	2626.35
1020.4044	2935.5645	3508.2	2620.2
1020.5189	2936.6641	3482.6	2594.1
1020.6334	2937.763	3440.35	2559
1020.7478	2938.8613	3406.4	2523.1
1020.8622	2939.959	3362.55	2475.55
1020.9765	2941.056	3296.65	2412.85
1021.0908	2942.1523	3238.15	2355.1
1021.2051	2943.248	3156.45	2270.55
1021.3193	2944.3431	3081.85	2199.15
1021.4334	2945.4375	2984.75	2100.25
1021.5476	2946.5313	2869	1988.05
1021.6617	2947.6244	2779.2	1895.95
1021.7757	2948.7169	2672.65	1789.4
1021.8897	2949.8087	2585.55	1704.15
1022.0037	2950.8999	2497.35	1613.65
1022.1176	2951.9904	2424.45	1541.6
1022.2315	2953.0803	2352.4	1469.85
1022.3453	2954.1696	2289.05	1408.35
1022.4591	2955.2582	2229.2	1347.85
1022.5728	2956.3462	2187.5	1305.15
1022.6865	2957.4335	2141.2	1258.05
1022.8002	2958.5202	2115.55	1231.1
1022.9138	2959.6062	2090.55	1206.05
1023.0274	2960.6916	2067.4	1186.8
1023.141	2961.7764	2054.35	1171.35
1023.2545	2962.8605	2036.6	1152.95
1023.3679	2963.9439	2011	1128.9
1023.4813	2965.0267	2000.25	1115.35
1023.5947	2966.1089	2022	1116.75
1023.708	2967.1905	1990.45	1109.85
1023.8213	2968.2714	1991.3	1108.4
1023.9346	2969.3516	1984.3	1101.55
1024.0478	2970.4312	1998.35	1108.5
1024.1609	2971.5102	1996.6	1115.05
1024.274	2972.5885	1992.85	1111.65
1024.3871	2973.6662	2007.45	1117.3
1024.5002	2974.7432	2001.55	1120.45
1024.6132	2975.8196	1991.1	1108.6
1024.7261	2976.8954	1986.85	1105.55
1024.839	2977.9705	1974.45	1093.1
1024.9519	2979.045	1963.4	1080.75
1025.0647	2980.1188	1948.4	1066.5
1025.1775	2981.192	1932.35	1050.35
1025.2902	2982.2645	1915	1032.2
1025.4029	2983.3364	1889.8	1007.8
1025.5156	2984.4077	1872.1	990.5
1025.6282	2985.4783	1854.4	967.45
1025.7407	2986.5483	1815.15	935.3
1025.8532	2987.6177	1787.15	904.6
1025.9657	2988.6864	1756.3	873.55
1026.0782	2989.7545	1724.4	840.35
1026.1906	2990.8219	1677.35	796
1026.3029	2991.8887	1650.9	764.75
1026.4152	2992.9548	1620.05	738.4
1026.5275	2994.0204	1592.5	711.1
1026.6397	2995.0852	1561.8	681.8
1026.7519	2996.1495	1537.5	655.75
1026.864	2997.2131	1509.55	628.45
1026.9761	2998.276	1487.55	606
1027.0882	2999.3383	1460.75	578.75
1027.2002	3000.4	1440.15	557.7
1027.3122	3001.4611	1422.35	540.5
1027.4241	3002.5215	1411.8	529.4
1027.536	3003.5812	1392.7	512.15
1027.6478	3004.6404	1380.65	501
1027.7596	3005.6989	1374.75	491.3
1027.8714	3006.7567	1351.85	469.1
1027.9831	3007.8139	1375.1	464.35
1028.0947	3008.8705	1334.85	451.3
1028.2064	3009.9264	1330.3	445.2
1028.3179	3010.9818	1321	440.4
1028.4295	3012.0364	1306.75	424.7
1028.541	3013.0905	1306.55	424.55
1028.6524	3014.1439	1302.65	422.95
1028.7638	3015.1966	1301.35	421.2
1028.8752	3016.2487	1296	415
1028.9865	3017.3002	1295.95	407.55
1029.0978	3018.3511	1281.85	402.15
1029.209	3019.4013	1282.7	402
1029.3202	3020.4509	1276.75	395.95
1029.4314	3021.4998	1272.1	389.3
1029.5425	3022.5481	1281	400.95
1029.6535	3023.5958	1276.55	395.45
1029.7645	3024.6428	1278.95	396.7
1029.8755	3025.6892	1266.2	385.3
1029.9864	3026.735	1273.45	393.2
1030.0973	3027.7802	1272.85	391.9
1030.2082	3028.8247	1272.15	392.5
1030.319	3029.8685	1273.8	391.65
1030.4297	3030.9118	1275.1	393.95
1030.5404	3031.9544	1274.25	394
1030.6511	3032.9963	1278.6	396.45
1030.7617	3034.0376	1275	392.4
1030.8723	3035.0783	1290	405.5
1030.9829	3036.1184	1286.65	404.35
1031.0934	3037.1578	1283.55	401.7
1031.2038	3038.1966	1282.85	398
1031.3142	3039.2348	1289.35	409.25
1031.4246	3040.2723	1297.15	406.25
1031.5349	3041.3092	1288	408.05
1031.6452	3042.3455	1288.95	407.85
1031.7554	3043.3811	1284.55	403.75
1031.8656	3044.4161	1287.8	407.3
1031.9758	3045.4505	1279.9	401.5
1032.0859	3046.4842	1280.8	398.65
1032.1959	3047.5173	1268.55	390.15
1032.3059	3048.5498	1270.6	388.25
1032.4159	3049.5816	1271.05	390.25
1032.5258	3050.6128	1273.75	394.8
1032.6357	3051.6434	1264.85	384.2
1032.7455	3052.6734	1260.65	378.45
1032.8553	3053.7027	1257.9	377.1
1032.9651	3054.7314	1255	374.6
1033.0748	3055.7594	1250.75	370.9
1033.1845	3056.7868	1256.7	373.3
1033.2941	3057.8136	1250.2	370.55
1033.4037	3058.8398	1250.25	369.5
1033.5132	3059.8653	1241.85	358.3
1033.6227	3060.8902	1236.1	355.35
1033.7321	3061.9145	1236.6	356.05
1033.8415	3062.9381	1236.8	356.35
1033.9509	3063.9612	1250.55	352.7
1034.0602	3064.9835	1228	346.8
1034.1694	3066.0053	1224.4	340.5
1034.2787	3067.0264	1220.7	339.85
1034.3878	3068.0469	1212.45	330.85
1034.497	3069.0668	1216.55	331.2
1034.6061	3070.086	1205.4	326.05
1034.7151	3071.1046	1202.4	322.25
1034.8241	3072.1226	1197.45	315.25
1034.9331	3073.1399	1190.7	310.9
1035.042	3074.1567	1183.75	302.65
1035.1508	3075.1727	1183.9	300.2
1035.2597	3076.1882	1171.9	291.8
1035.3684	3077.203	1164.05	283.7
1035.4772	3078.2173	1154.2	275.55
1035.5859	3079.2308	1156.1	272.95
1035.6945	3080.2438	1146.45	264.55
1035.8031	3081.2561	1139.95	258.85
1035.9117	3082.2678	1130.85	251
1036.0202	3083.2789	1126.4	246.35
1036.1286	3084.2893	1123.15	243.9
1036.2371	3085.2991	1117.95	236
1036.3454	3086.3083	1113.65	228.2
1036.4538	3087.3169	1105.95	225.1
1036.562	3088.3248	1102.8	221.5
1036.6703	3089.3321	1098.45	217.55
1036.7785	3090.3388	1091.35	212.35
1036.8866	3091.3449	1091.2	210.25
1036.9948	3092.3503	1088.75	204.9
1037.1028	3093.3551	1085.75	208.5
1037.2108	3094.3593	1082.65	202.75
1037.3188	3095.3629	1077.1	198.8
1037.4267	3096.3658	1073.7	190.75
1037.5346	3097.3681	1074.2	195.7
1037.6425	3098.3698	1071.3	187.85
1037.7503	3099.3708	1074.5	189.55
1037.858	3100.3713	1068.25	189.6
1037.9657	3101.3711	1062.45	179.1
1038.0734	3102.3702	1176.6	182.8
1038.181	3103.3688	1059.85	179.2
1038.2886	3104.3667	1052.45	175.2
1038.3961	3105.364	1055.1	176
1038.5036	3106.3607	1049.7	169.25
1038.611	3107.3568	1051.65	170.9
1038.7184	3108.3522	1048.7	168.85
1038.8257	3109.347	1044.5	163.95
1038.933	3110.3412	1052.9	169.9
1039.0403	3111.3348	1037.5	157.65
1039.1475	3112.3277	1036.7	156.25
1039.2547	3113.32	1034.25	155.7
1039.3618	3114.3117	1035.75	155.45
1039.4689	3115.3028	1034.8	156.35
1039.5759	3116.2932	1037.45	156.75
1039.6829	3117.2831	1036.85	149.9
1039.7898	3118.2723	1029.85	148.75
1039.8967	3119.2608	1026.8	149.55
1040.0035	3120.2488	1026.5	147.2
1040.1103	3121.2361	1023.9	144.4
1040.2171	3122.2229	1021.55	141.7
1040.3238	3123.209	1022.15	141.75
1040.4305	3124.1944	1017.7	137.65
1040.5371	3125.1793	1015.9	134.45
1040.6437	3126.1635	1016.25	137.85
1040.7502	3127.1471	1013.75	134.5
1040.8567	3128.1301	1013.5	134.9
1040.9631	3129.1125	1018.75	140.9
1041.0695	3130.0942	1010	131.35
1041.1759	3131.0753	1020.75	133.35
1041.2822	3132.0558	1014.35	132.6
1041.3884	3133.0357	1006.9	126.5
1041.4946	3134.015	1011.1	130.85
1041.6008	3134.9936	1005.55	123.7
1041.7069	3135.9716	1025.85	126.95
1041.813	3136.949	1005.25	125.6
1041.919	3137.9258	1022.65	125.15
1042.025	3138.902	1007.15	124.05
1042.1309	3139.8775	1001.6	122.5
1042.2368	3140.8524	1003.3	123.95
1042.3427	3141.8267	999.55	116.35
1042.4485	3142.8004	994.25	113.65
1042.5542	3143.7735	1003.65	119.15
1042.6599	3144.7459	1000.4	118.05
1042.7656	3145.7178	995.5	116.25
1042.8712	3146.689	995.4	115.8
1042.9768	3147.6596	993.8	112.1
1043.0823	3148.6295	994.15	116.3
1043.1878	3149.5989	991.65	113.6
1043.2932	3150.5676	991.8	111.85
1043.3986	3151.5357	988.6	109.5
1043.5039	3152.5032	988.6	109.4
1043.6092	3153.4701	986.95	106.15
1043.7145	3154.4364	988.55	105.75
1043.8197	3155.402	987.05	109.1
1043.9248	3156.367	984.75	103.95
1044.03	3157.3315	1020.55	106.05
1044.135	3158.2952	984.25	104.65
1044.24	3159.2584	980.35	101.75
1044.345	3160.221	981.25	104.7
1044.4499	3161.1829	980.15	101.1
1044.5548	3162.1442	983.2	103.85
1044.6596	3163.105	979.3	100.15
1044.7644	3164.065	979.4	100.95
1044.8692	3165.0245	980.4	99.45
1044.9739	3165.9834	977.3	98.4
1045.0785	3166.9416	975.15	96.5
1045.1831	3167.8993	976.2	96.75
1045.2877	3168.8563	978.2	97.9
1045.3922	3169.8127	977.2	99.35
1045.4966	3170.7684	978.05	99.2
1045.6011	3171.7236	975.95	96.25
1045.7054	3172.6782	972.9	93.45
1045.8098	3173.6321	970.95	91.7
1045.914	3174.5854	976.3	93.9
1046.0183	3175.5381	969.85	90.9
1046.1224	3176.4902	969.95	91.45
1046.2266	3177.4417	969.75	92.3
1046.3307	3178.3926	965.9	87.6
1046.4347	3179.3428	969.5	91.3
1046.5387	3180.2924	964.4	86.6
1046.6427	3181.2415	966.7	88.25
1046.7466	3182.1899	966.35	86.8
1046.8504	3183.1377	968.05	89.75
1046.9542	3184.0848	968.25	86.4
1047.058	3185.0314	964.6	85.05
1047.1617	3185.9773	966.75	87.65
1047.2654	3186.9227	964.8	87.1
1047.369	3187.8674	963.25	83.85
1047.4726	3188.8115	964.95	83.4
1047.5761	3189.755	961.15	83.55
1047.6796	3190.6979	958.9	81.05
1047.783	3191.6402	957.85	80.55
1047.8864	3192.5818	963.25	85.7
1047.9898	3193.5229	968.65	82.7
1048.0931	3194.4633	962.2	84.25
1048.1963	3195.4031	957.2	76.2
1048.2995	3196.3423	961.5	81.65
1048.4027	3197.2809	962.95	84.1
1048.5058	3198.2189	961.25	84.6
1048.6089	3199.1563	974.65	79.75
1048.7119	3200.0931	952.7	74.35
1048.8148	3201.0292	958.45	80.35
1048.9178	3201.9648	952.85	75.5
1049.0206	3202.8997	961.85	80.5
1049.1235	3203.834	953.35	75.55
1049.2262	3204.7677	955.45	77.5
1049.329	3205.7008	956.55	77.25
1049.4317	3206.6333	955.05	78.95
1049.5343	3207.5652	952.85	71.65
1049.6369	3208.4964	954.3	74.7
1049.7394	3209.4271	952.85	77.3
1049.8419	3210.3571	950.15	72.1
1049.9444	3211.2865	955.2	78
1050.0468	3212.2154	949.55	69.2
1050.1491	3213.1436	958.25	76.9
1050.2514	3214.0712	956.2	69.55
1050.3537	3214.9982	949.35	69.25
1050.4559	3215.9246	948.5	67.45
1050.5581	3216.8503	945.35	66.95
1050.6602	3217.7755	950.45	72.3
1050.7623	3218.7001	948.6	68.85
1050.8643	3219.624	951.55	75.5
1050.9663	3220.5473	949.75	69.95
1051.0682	3221.4701	948.65	68.25
1051.1701	3222.3922	951.95	70.55
1051.2719	3223.3137	946.8	70
1051.3737	3224.2346	946.25	65.75
1051.4754	3225.1549	947	67.8
1051.5771	3226.0746	941.8	62.5
1051.6788	3226.9937	946.75	69.1
1051.7804	3227.9121	946.25	68.5
1051.8819	3228.83	943.35	66.05
1051.9834	3229.7473	946.65	66.75
1052.0849	3230.6639	945.9	66
1052.1863	3231.5799	944.2	66.8
1052.2876	3232.4954	943.8	67.5
1052.3889	3233.4102	941.05	62.8
1052.4902	3234.3244	941	63.05
1052.5914	3235.238	939.05	60.3
1052.6926	3236.151	966.5	66
1052.7937	3237.0634	938.25	61.15
1052.8948	3237.9752	940.5	60.7
1052.9958	3238.8864	939.3	62.75
1053.0968	3239.797	940.7	65.25
1053.1977	3240.7069	938.7	60.05
1053.2986	3241.6163	939.2	59.55
1053.3994	3242.5251	937.75	60.5
1053.5002	3243.4332	936.9	61
1053.6009	3244.3408	937.6	58.65
1053.7016	3245.2477	936.45	59.35
1053.8022	3246.154	937.65	58.65
1053.9028	3247.0598	936.1	58.75
1054.0034	3247.9649	934	54.6
1054.1039	3248.8694	934.85	55.85
1054.2043	3249.7733	932.5	54.55
1054.3047	3250.6766	935.85	57.7
1054.4051	3251.5793	933.15	54.3
1054.5054	3252.4814	932.55	55.3
1054.6056	3253.3829	929.2	53.75
1054.7058	3254.2838	931.35	53.05
1054.806	3255.1841	931.85	55
1054.9061	3256.0838	928.2	48.3
1055.0061	3256.9829	927.65	50.1
1055.1062	3257.8814	931.95	54.35
1055.2061	3258.7792	930.8	52.65
1055.306	3259.6765	932.95	54.65
1055.4059	3260.5731	929.45	50.45
1055.5057	3261.4692	926.95	47.15
1055.6055	3262.3647	925.25	48.65
1055.7052	3263.2595	927.75	48.4
1055.8049	3264.1538	924.1	46.8
1055.9045	3265.0474	923.6	46.35
1056.0041	3265.9404	919.7	44.25
1056.1036	3266.8329	922.8	46.2
1056.2031	3267.7247	932.05	43.75
1056.3025	3268.616	922	46.25
1056.4019	3269.5066	919.1	42.1
1056.5013	3270.3966	920.75	41.75
1056.6005	3271.286	915.25	37.95
