Software Version:	3.9.2.0
Unit SN:	10000200
Spectrometer SN:	6960
Date:	3/8/2024 12:26:38 PM
Data Line Index:	25
Spectral Points:	2048
Integration time (ms):	125
Averages:	20
Delay (ms):	30000
Sequence Number:	1
Processing:	dark subtract
Laser Power (mW):	300
Laser Current (mA):	822
Laser Diode Temp (C):	25
Laser Case Temp (C):	26
System Temp (C):	25.9
Spectrometer Temp (C):	23.7
CCD Temp (C):	0.015
Secondary Temp (C):	20.007
Heatsink Temp (C):	21.007
CCDPCB Temp (C):	36.085
SecondaryPCB Temp (C):	29.426

Wavelength	RamanShift	Raw Counts	Dark Subtracted
787.061	30.1047	435.75	28.2
787.2016	32.3739	436.1	29.35
787.3422	34.6426	438.65	30.5
787.4828	36.9109	444.1	33.6
787.6235	39.1787	448.4	33.1
787.7642	41.4461	457.85	37.8
787.9049	43.7131	464.35	40.85
788.0456	45.9796	469.25	44.85
788.1863	48.2456	478.05	49.55
788.3271	50.5112	482.15	49.6
788.4679	52.7764	490.15	56.5
788.6087	55.0411	498.5	58.05
788.7496	57.3054	506.3	60.4
788.8904	59.5692	515.05	67.35
789.0313	61.8326	520.1	70.55
789.1722	64.0955	528.8	77.7
789.3132	66.3579	540.8	81.35
789.4541	68.6199	556.65	94.15
789.5951	70.8815	580.55	112.2
789.7361	73.1426	633.35	160
789.8771	75.4032	770.25	295.5
790.0181	77.6634	1095.7	617.5
790.1592	79.9231	1888.9	1403.85
790.3003	82.1824	3543.35	3040.2
790.4414	84.4412	6408.65	5878.85
790.5825	86.6995	10293.05	9728.25
790.7237	88.9574	14007.1	13415.8
790.8648	91.2148	16545.3	15928.8
791.006	93.4717	17673.3	17050.25
791.1472	95.7282	17803.35	17171.1
791.2885	97.9842	17529.85	16893.15
791.4297	100.2398	17006.1	16365.65
791.571	102.4949	16470.4	15826.4
791.7123	104.7495	15788.8	15142.05
791.8536	107.0036	15174.25	14530.7
791.9949	109.2573	14624.55	13979.5
792.1363	111.5105	14149.7	13499.8
792.2777	113.7632	13732.35	13082.25
792.4191	116.0154	13379.05	12717.95
792.5605	118.2672	13113.3	12460.4
792.7019	120.5185	12873.1	12217.2
792.8434	122.7693	12655.15	11997.25
792.9849	125.0197	12499.35	11835.95
793.1264	127.2696	12327.15	11661
793.2679	129.519	12184.9	11512.25
793.4094	131.7679	12012.4	11335.8
793.551	134.0163	11829.15	11151.5
793.6926	136.2642	11582.8	10903.35
793.8342	138.5117	11331.8	10646.15
793.9758	140.7587	11091.2	10404.6
794.1175	143.0052	10853.6	10163.6
794.2591	145.2512	10585.35	9897.65
794.4008	147.4967	10399.9	9712.05
794.5425	149.7417	10247.5	9557.35
794.6842	151.9863	10105.25	9409.45
794.826	154.2304	10051.7	9350.55
794.9677	156.4739	9941.1	9236.95
795.1095	158.717	9861.55	9154
795.2513	160.9596	9749.2	9041.2
795.3931	163.2017	9580.7	8867.3
795.535	165.4433	9398.15	8686.5
795.6768	167.6844	9211.45	8495.2
795.8187	169.925	9004.95	8287.15
795.9606	172.1651	8785.45	8069.65
796.1025	174.4047	8640.9	7919.5
796.2445	176.6439	8513.8	7791.65
796.3864	178.8825	8356.4	7631
796.5284	181.1206	8293.1	7559.85
796.6704	183.3582	8207.8	7468.15
796.8124	185.5954	8146.45	7409.8
796.9544	187.832	8107.55	7365.55
797.0965	190.0681	8102.45	7353.85
797.2386	192.3037	8095.65	7348.4
797.3806	194.5388	8098.8	7342.1
797.5228	196.7734	8098.95	7342.4
797.6649	199.0075	8163.6	7408.65
797.807	201.2411	8250.2	7496.5
797.9492	203.4742	8277.5	7523
798.0914	205.7068	8358.15	7599.25
798.2336	207.9389	8426.15	7658.95
798.3758	210.1704	8538.5	7777.9
798.518	212.4015	8604.3	7850.7
798.6603	214.632	8702.4	7958.05
798.8025	216.862	8752.05	8014.5
798.9448	219.0915	8820.7	8075.45
799.0871	221.3205	8851.35	8107.7
799.2294	223.549	8887.5	8147.2
799.3718	225.777	8910.6	8170.3
799.5141	228.0044	8937.5	8190.95
799.6565	230.2314	8997.45	8252
799.7989	232.4578	9019.9	8268.9
799.9413	234.6837	9071.35	8313.75
800.0837	236.909	9110.85	8347.25
800.2262	239.1339	9108.2	8318.65
800.3687	241.3582	9065.35	8294.85
800.5111	243.582	9042.95	8241.2
800.6536	245.8053	9025.6	8239.1
800.7961	248.0281	9021.4	8239.7
800.9387	250.2503	9024.95	8238.3
801.0812	252.472	9068.65	8274.2
801.2238	254.6932	9198.6	8410.55
801.3664	256.9139	9266.4	8475.15
801.509	259.134	9394.95	8596.9
801.6516	261.3536	9575.8	8779.75
801.7942	263.5727	9800.4	9003.8
801.9369	265.7912	9982.9	9187.6
802.0795	268.0092	10209.95	9417.1
802.2222	270.2267	10358.65	9562.8
802.3649	272.4436	10473.65	9677.05
802.5076	274.6601	10485.4	9680.35
802.6504	276.8759	10450.95	9650.75
802.7931	279.0913	10399.15	9597.4
802.9359	281.3061	10293.7	9487.1
803.0787	283.5204	10260.8	9452.05
803.2215	285.7341	10248.25	9434.1
803.3643	287.9473	10271.45	9446.9
803.5071	290.16	10279.4	9465.8
803.6499	292.3721	10292.85	9484.6
803.7928	294.5837	10373.65	9566.8
803.9357	296.7947	10471.6	9662.45
804.0786	299.0052	10602.55	9793.2
804.2215	301.2152	10598.2	9784.55
804.3644	303.4246	10533.1	9722.35
804.5074	305.6334	10341.15	9533.7
804.6503	307.8418	10121.95	9306.8
804.7933	310.0495	9841.75	9026.6
804.9363	312.2568	9590.55	8774.75
805.0793	314.4635	9332.1	8515.35
805.2223	316.6696	9119.25	8301
805.3653	318.8752	8952	8123.85
805.5084	321.0802	8883.6	8062.7
805.6514	323.2847	8875.65	8052.8
805.7945	325.4887	8896.6	8073.45
805.9376	327.692	8887.9	8058.25
806.0807	329.8949	8880.3	8053.2
806.2238	332.0972	8778	7949.65
806.367	334.2989	8645.6	7817.45
806.5101	336.5001	8523.45	7689.55
806.6533	338.7007	8387.75	7555.65
806.7965	340.9008	8303.6	7471.4
806.9397	343.1003	8198.15	7364.3
807.0829	345.2992	8109.65	7273.8
807.2261	347.4976	8041.55	7203.85
807.3693	349.6955	7981	7136.9
807.5126	351.8927	7969.5	7125.9
807.6559	354.0895	7906.9	7055.45
807.7991	356.2856	7884.85	7038.35
807.9424	358.4812	7844.95	7001.35
808.0857	360.6763	7849.45	7005.4
808.2291	362.8707	7807.05	6958.85
808.3724	365.0646	7836.1	6985.6
808.5158	367.258	7892.05	7041.5
808.6591	369.4508	7915.25	7060.2
808.8025	371.643	8013.75	7157.65
808.9459	373.8346	8056.65	7203.15
809.0893	376.0257	8145.1	7284.5
809.2327	378.2162	8167.95	7311.95
809.3762	380.4062	8182.6	7326.25
809.5196	382.5956	8128.05	7274.9
809.6631	384.7844	8050.4	7203.65
809.8066	386.9726	7965.1	7113.85
809.9501	389.1603	7914	7064.95
810.0936	391.3474	7880.95	6986.95
810.2371	393.5339	7842.05	6990.15
810.3806	395.7199	7839.3	6990.75
810.5241	397.9052	7876.55	7025.45
810.6677	400.09	7929.05	7077.05
810.8113	402.2743	8030.1	7181.1
810.9548	404.4579	8136.3	7280.55
811.0984	406.641	8275.75	7420.65
811.2421	408.8235	8394.4	7539.35
811.3857	411.0054	8461.8	7601.45
811.5293	413.1868	8559.15	7696.2
811.673	415.3675	8601.4	7736.6
811.8166	417.5477	8553.95	7690.45
811.9603	419.7273	8494.65	7625.15
812.104	421.9064	8427.45	7555.15
812.2477	424.0848	8384.55	7518.55
812.3914	426.2627	8316.1	7451.8
812.5351	428.4399	8173.25	7301.85
812.6788	430.6166	7993.05	7120.15
812.8226	432.7928	7766.75	6897.1
812.9663	434.9683	7593.55	6720.95
813.1101	437.1432	7461.5	6590.1
813.2539	439.3176	7355.55	6489.45
813.3977	441.4914	7275.55	6412.9
813.5415	443.6645	7268.25	6403.9
813.6853	445.8371	7247.4	6376.85
813.8291	448.0091	7201.25	6332.65
813.973	450.1806	7207.05	6338.1
814.1168	452.3514	7196.95	6328.75
814.2607	454.5216	7237.25	6358.25
814.4046	456.6913	7221.35	6348.65
814.5485	458.8603	7250.25	6379.95
814.6924	461.0288	7278	6415.35
814.8363	463.1967	7255.4	6394.15
814.9802	465.3639	7266.1	6394.05
815.1241	467.5306	7250.65	6380.7
815.2681	469.6967	7252.4	6386.45
815.412	471.8622	7245.35	6381.45
815.556	474.0271	7263.1	6397.65
815.7	476.1914	7255.85	6380
815.844	478.3551	7287.55	6415.6
815.988	480.5182	7316.75	6443.95
816.132	482.6807	7384.05	6520.95
816.276	484.8426	7497.65	6636.6
816.4201	487.0039	7696.7	6834.9
816.5641	489.1647	7938.65	7064.95
816.7082	491.3248	8138.7	7265.9
816.8522	493.4843	8175.9	7307.25
816.9963	495.6432	8140	7270.25
817.1404	497.8015	8062.4	7183.8
817.2845	499.9592	8001.85	7120.35
817.4286	502.1163	7847.75	6961.15
817.5727	504.2728	7654.05	6776.3
817.7168	506.4287	7488.85	6618.45
817.861	508.5839	7327.55	6456.7
818.0051	510.7386	7209.4	6336.9
818.1493	512.8927	7168.85	6286.5
818.2935	515.0461	7165	6287.2
818.4377	517.199	7235.55	6351.8
818.5818	519.3512	7358.15	6472.2
818.726	521.5029	7539.55	6651.6
818.8703	523.6539	7702.1	6819.85
819.0145	525.8043	7804	6916.75
819.1587	527.9541	7753.3	6863.25
819.303	530.1033	7594.6	6706.8
819.4472	532.2519	7468.75	6585.15
819.5915	534.3999	7415.1	6527.3
819.7357	536.5472	7427.45	6545.3
819.88	538.694	7519.7	6635.2
820.0243	540.8401	7650.6	6760.05
820.1686	542.9856	7751	6856.6
820.3129	545.1305	7770.85	6870.35
820.4572	547.2748	7717	6811.75
820.6016	549.4185	7639.55	6737.5
820.7459	551.5615	7591	6694.1
820.8902	553.704	7607.5	6704.75
821.0346	555.8458	7674.9	6778.9
821.1789	557.987	7802.35	6908.95
821.3233	560.1276	7966.95	7069.65
821.4677	562.2675	8253.4	7357.1
821.6121	564.4069	8615.9	7722
821.7565	566.5456	8926.45	8032.6
821.9009	568.6837	9049.55	8153.75
822.0453	570.8212	8789.75	7898.2
822.1897	572.958	8346.3	7454.8
822.3342	575.0942	7930.55	7041.35
822.4786	577.2299	7601.8	6717.05
822.6231	579.3648	7453.8	6573.75
822.7675	581.4992	7378.4	6509.65
822.912	583.6329	7453.9	6584.9
823.0565	585.766	7541.65	6668.7
823.201	587.8985	7630.8	6749.05
823.3454	590.0304	7696.3	6783.9
823.4899	592.1616	7679.85	6779.3
823.6345	594.2922	7602.65	6705.9
823.779	596.4222	7490.35	6592.25
823.9235	598.5515	7377.6	6477.3
824.068	600.6802	7256.75	6358.05
824.2126	602.8083	7162.25	6264.35
824.3571	604.9358	7141	6238.4
824.5017	607.0626	7161.25	6256.4
824.6462	609.1888	7255.5	6347.55
824.7908	611.3144	7383.8	6477.35
824.9354	613.4393	7487.15	6583.65
825.08	615.5636	7570.05	6664.25
825.2246	617.6873	7577.7	6670.7
825.3692	619.8103	7557.7	6651.5
825.5138	621.9327	7411.6	6508.15
825.6584	624.0544	7267.1	6366.3
825.803	626.1756	7123.25	6221.15
825.9477	628.2961	7027.7	6122.75
826.0923	630.4159	6964.5	6057.75
826.237	632.5351	6976.05	6072.15
826.3816	634.6537	6962.85	6055.95
826.5263	636.7716	6970.75	6057.2
826.6709	638.8889	6993.85	6080.7
826.8156	641.0056	6993	6078.75
826.9603	643.1216	6982.95	6071.75
827.105	645.237	6981.2	6071.3
827.2497	647.3518	6881.45	5975
827.3944	649.4659	6849.6	5948.85
827.5391	651.5793	6812.05	5911.75
827.6838	653.6922	6792.1	5887.55
827.8285	655.8043	6766.3	5863.15
827.9733	657.9159	6758.35	5853.7
828.118	660.0268	6763.65	5853.95
828.2627	662.137	6764.6	5856.7
828.4075	664.2466	6786.6	5871.25
828.5522	666.3556	6783.6	5872.85
828.697	668.4639	6758	5845.9
828.8418	670.5716	6741	5835.65
828.9865	672.6786	6695.85	5785.85
829.1313	674.785	6637.55	5724.35
829.2761	676.8907	6605	5689.8
829.4209	678.9958	6611.25	5704
829.5657	681.1002	6594.75	5686.1
829.7105	683.204	6600.3	5682.2
829.8553	685.3072	6584.35	5664.75
830.0001	687.4097	6584.6	5670.95
830.1449	689.5115	6573.5	5656.5
830.2898	691.6127	6561.2	5650.4
830.4346	693.7132	6564	5654.05
830.5794	695.8131	6616.45	5685.55
830.7243	697.9123	6617.35	5701.2
830.8691	700.0109	6639.5	5720.7
831.014	702.1089	6664.4	5746.1
831.1588	704.2061	6714.85	5798.65
831.3037	706.3028	6758.4	5839.35
831.4486	708.3987	6780.65	5864.4
831.5935	710.4941	6792	5874.6
831.7383	712.5887	6795.35	5879.5
831.8832	714.6827	6808.35	5891.7
832.0281	716.7761	6875.1	5960.5
832.173	718.8688	6950.05	6033.3
832.3179	720.9608	7040.1	6114.9
832.4628	723.0522	7150.7	6226.45
832.6077	725.1429	7201.95	6282.4
832.7527	727.233	7293.7	6374.45
832.8976	729.3224	7365.3	6446.85
833.0425	731.4112	7355.5	6437.1
833.1874	733.4993	7263.3	6346.8
833.3324	735.5867	7120.15	6196.95
833.4773	737.6735	6968.65	6047.9
833.6222	739.7596	6845.35	5919.9
833.7672	741.845	6743.8	5824.05
833.9122	743.9298	6701.55	5776.8
834.0571	746.014	6673.1	5752.4
834.2021	748.0974	6664.8	5734.95
834.347	750.1802	6664.8	5739.05
834.492	752.2624	6663.6	5738.95
834.637	754.3439	6708.45	5781
834.782	756.4247	6791.5	5859
834.9269	758.5048	6874.5	5948.7
835.0719	760.5843	7040.35	6113.85
835.2169	762.6631	7305.85	6375.6
835.3619	764.7413	7655.65	6730.1
835.5069	766.8188	8110.65	7183.5
835.6519	768.8956	8482.65	7555.6
835.7969	770.9718	8756.8	7830.05
835.9419	773.0473	8747.65	7819.5
836.0869	775.1221	8572.25	7647.55
836.232	777.1962	8429.35	7503.55
836.377	779.2697	8387.4	7460.95
836.522	781.3426	8442.9	7506.6
836.667	783.4147	8492.9	7568.55
836.8121	785.4862	8507.9	7581.4
836.9571	787.557	8357.3	7427.35
837.1021	789.6271	8052.85	7121.3
837.2472	791.6966	7663.25	6734.6
837.3922	793.7654	7259.1	6331.55
837.5373	795.8335	6959.75	6031.1
837.6823	797.901	6790.75	5860.2
837.8274	799.9678	6700.5	5769.5
837.9724	802.0339	6623.7	5693.8
838.1175	804.0993	6617.45	5678.4
838.2626	806.1641	6555.7	5625
838.4076	808.2282	6500.75	5572.7
838.5527	810.2916	6465	5532.2
838.6978	812.3544	6416.6	5492.05
838.8428	814.4164	6407.25	5480
838.9879	816.4778	6424.35	5492.95
839.133	818.5385	6445.75	5512.9
839.2781	820.5986	6558.9	5625.1
839.4232	822.658	6712.4	5779.95
839.5682	824.7166	6917.95	5987.2
839.7133	826.7747	7279.45	6348.2
839.8584	828.832	7656.05	6723.6
840.0035	830.8886	7922.45	6987.25
840.1486	832.9446	8045.4	7110.25
840.2937	834.9999	7944.7	7016.1
840.4388	837.0545	7743.45	6807.7
840.5839	839.1085	7468.1	6534.3
840.729	841.1618	7239.2	6300.95
840.8741	843.2143	7061.55	6129.25
841.0192	845.2662	6921.6	5991.5
841.1643	847.3175	6832.45	5901.5
841.3095	849.368	6757.65	5823.35
841.4546	851.4179	6701.8	5765.75
841.5997	853.467	6636.55	5702.7
841.7448	855.5155	6599	5663.3
841.8899	857.5633	6554.8	5621.65
842.0351	859.6105	6509.5	5573.45
842.1802	861.6569	6474.25	5540.95
842.3253	863.7027	6431.7	5493.4
842.4704	865.7478	6409	5473.85
842.6156	867.7922	6383	5448.35
842.7607	869.8359	6355.2	5419.7
842.9058	871.8789	6339.2	5399.55
843.0509	873.9212	6405.35	5435.95
843.1961	875.9629	6433.95	5498.45
843.3412	878.0039	6488.5	5550.65
843.4863	880.0441	6530.85	5596.9
843.6315	882.0837	6581.5	5647.85
843.7766	884.1226	6617.35	5681.45
843.9218	886.1609	6668.25	5731.9
844.0669	888.1984	6740.3	5804.4
844.212	890.2352	6864.6	5928.05
844.3572	892.2714	6901.3	5960.1
844.5023	894.3069	6869.7	5929.25
844.6475	896.3416	6720.5	5785.5
844.7926	898.3757	6641.85	5705.8
844.9377	900.4091	6577.15	5636.5
845.0829	902.4418	6529.3	5587.5
845.228	904.4739	6577.3	5636.1
845.3732	906.5052	6610.85	5673
845.5183	908.5358	6600.6	5661.05
845.6635	910.5658	6497.4	5557.4
845.8086	912.595	6383.6	5445.2
845.9538	914.6236	6236	5297.9
846.0989	916.6515	6142.15	5204.1
846.2441	918.6786	6099.35	5157.35
846.3892	920.7051	6104.3	5163.9
846.5344	922.7309	6093.25	5153.4
846.6795	924.756	6104.45	5161.45
846.8246	926.7804	6150.25	5211.6
846.9698	928.8041	6150.4	5211.85
847.1149	930.8272	6199.55	5259.2
847.2601	932.8495	6190.45	5251.35
847.4052	934.8711	6191.45	5247.85
847.5504	936.892	6176.3	5233.45
847.6955	938.9123	6188	5247.05
847.8407	940.9318	6237.55	5297.05
847.9858	942.9506	6240.35	5298.4
848.131	944.9688	6202.5	5262.2
848.2761	946.9862	6132.65	5192.15
848.4213	949.003	6032.25	5094.15
848.5664	951.019	5980.4	5040.3
848.7115	953.0344	5922	4983.5
848.8567	955.0491	5934.35	4994.1
849.0018	957.063	5940.25	5002.2
849.147	959.0763	5947.6	5008.15
849.2921	961.0888	5991.35	5050.9
849.4373	963.1007	6016.85	5078.25
849.5824	965.1119	6021	5092.85
849.7275	967.1223	6005.7	5080.15
849.8727	969.1321	5993.45	5065.95
850.0178	971.1412	5961	5030.4
850.1629	973.1495	5960.25	5027.15
850.3081	975.1572	6003.4	5034.2
850.4532	977.1641	5986.65	5045.15
850.5983	979.1704	5971.5	5031.75
850.7435	981.1759	5963	5017.1
850.8886	983.1808	5945.55	5005.05
851.0337	985.1849	5959.2	5009.9
851.1788	987.1884	5984.7	5043.35
851.324	989.1911	6023.3	5088.6
851.4691	991.1932	6061.1	5122.95
851.6142	993.1945	6064.4	5126.75
851.7593	995.1951	6038.45	5100.6
851.9045	997.1951	6023.6	5079
852.0496	999.1943	5994.9	5056.15
852.1947	1001.1928	6018.65	5077.75
852.3398	1003.1906	6049.4	5108.6
852.4849	1005.1877	6136.9	5198.65
852.63	1007.1841	6194.3	5256
852.7751	1009.1798	6213.3	5277.65
852.9202	1011.1748	6187.95	5253.2
853.0653	1013.1691	6109	5169.45
853.2104	1015.1627	5978.75	5043.25
853.3555	1017.1556	5864.9	4928.2
853.5006	1019.1477	5779.05	4843.45
853.6457	1021.1392	5690.05	4755.5
853.7908	1023.1299	5685.2	4754.85
853.9359	1025.12	5708.6	4782.1
854.081	1027.1093	5713.75	4797.25
854.2261	1029.0979	5799.45	4886.6
854.3712	1031.0859	5838.85	4921.3
854.5163	1033.0731	5874.25	4946.15
854.6613	1035.0596	5865.25	4935.55
854.8064	1037.0454	5810.6	4875.9
854.9515	1039.0304	5762.2	4825.2
855.0965	1041.0148	5677.9	4740.2
855.2416	1042.9985	5619.85	4682.4
855.3867	1044.9814	5598.5	4663.25
855.5317	1046.9636	5564.2	4625.8
855.6768	1048.9452	5537.95	4601.2
855.8219	1050.926	5582.65	4649.75
855.9669	1052.9061	5617.75	4681.8
856.112	1054.8855	5644.25	4709.4
856.257	1056.8642	5654.1	4716.55
856.4021	1058.8421	5652.05	4704.7
856.5471	1060.8194	5688.5	4746.45
856.6921	1062.7959	5723.9	4783.15
856.8372	1064.7717	5775.1	4835.95
856.9822	1066.7469	5807.4	4871.55
857.1272	1068.7213	5876.3	4937.9
857.2723	1070.695	5942.25	5004.3
857.4173	1072.6679	5980.5	5042.45
857.5623	1074.6402	5978.75	5040.9
857.7073	1076.6117	5962.05	5016.3
857.8523	1078.5826	5894.1	4953.55
857.9973	1080.5527	5801.3	4862.25
858.1423	1082.5221	5705.3	4765.1
858.2873	1084.4908	5655.6	4718.6
858.4323	1086.4587	5654.9	4716.9
858.5773	1088.426	5677.2	4736.5
858.7223	1090.3925	5672.05	4729.85
858.8673	1092.3584	5701	4762.65
859.0123	1094.3235	5719.75	4787.1
859.1573	1096.2879	5801.25	4863.95
859.3022	1098.2515	5877.6	4940.75
859.4472	1100.2145	6007.05	5068.1
859.5922	1102.1767	6132.95	5196.4
859.7371	1104.1382	6276.95	5339.15
859.8821	1106.099	6442.65	5502.85
860.027	1108.0591	6579.6	5643
860.172	1110.0185	6686.9	5751.3
860.3169	1111.9771	6733.5	5797.9
860.4619	1113.9351	6690.2	5753.7
860.6068	1115.8923	6635.15	5698.1
860.7517	1117.8488	6573	5636.7
860.8967	1119.8045	6466.55	5531.05
861.0416	1121.7596	6392.7	5456.2
861.1865	1123.7139	6287.2	5351.7
861.3314	1125.6675	6238.4	5303.4
861.4763	1127.6204	6265.85	5330.15
861.6212	1129.5726	6213.55	5275.5
861.7661	1131.524	6172.7	5234.5
861.911	1133.4748	6070.7	5133.7
862.0559	1135.4248	5936	4999.25
862.2008	1137.3741	5827.8	4892.35
862.3457	1139.3226	5738.5	4798.6
862.4905	1141.2705	5730.9	4792.85
862.6354	1143.2176	5673.05	4732.1
862.7803	1145.164	5638.75	4700.35
862.9251	1147.1097	5603.5	4666.25
863.07	1149.0546	5525.3	4590.65
863.2148	1150.9989	5447.8	4512.45
863.3597	1152.9424	5400.9	4462.55
863.5045	1154.8852	5351.75	4415.9
863.6493	1156.8272	5353.4	4419.65
863.7942	1158.7686	5363.25	4419.75
863.939	1160.7092	5370.7	4434.65
864.0838	1162.6491	5416.4	4475.9
864.2286	1164.5883	5478.9	4546.7
864.3734	1166.5267	5537.55	4600.8
864.5182	1168.4644	5647.15	4709.45
864.663	1170.4014	5749.15	4810.1
864.8078	1172.3377	5921.3	4987.7
864.9526	1174.2732	6120.75	5186
865.0974	1176.2081	6411.9	5479.6
865.2421	1178.1421	6760.1	5822.75
865.3869	1180.0755	7129.6	6195.95
865.5317	1182.0082	7381.3	6447.2
865.6764	1183.9401	7493.2	6560.75
865.8212	1185.8713	7383.35	6454.9
865.9659	1187.8017	7165.1	6244.7
866.1106	1189.7315	6887.85	5968.6
866.2554	1191.6605	6596.05	5682
866.4001	1193.5888	6421.8	5500.3
866.5448	1195.5163	6314	5386.9
866.6895	1197.4432	6270.5	5339.7
866.8342	1199.3693	6216.65	5284.8
866.9789	1201.2947	6185.35	5252.5
867.1236	1203.2193	6155.75	5221.05
867.2683	1205.1432	6142.9	5212.6
867.413	1207.0664	6132.6	5199.3
867.5576	1208.9889	6126.4	5188
867.7023	1210.9106	6086.1	5153.15
867.847	1212.8316	6083.75	5154.05
867.9916	1214.7519	6123.8	5180.65
868.1363	1216.6715	6135.2	5202.7
868.2809	1218.5903	6202.05	5271
868.4255	1220.5084	6259.3	5327.65
868.5701	1222.4257	6348.25	5416.85
868.7148	1224.3424	6368.2	5439.75
868.8594	1226.2583	6440.2	5501.75
869.004	1228.1735	6567.45	5635.65
869.1486	1230.0879	6670.1	5737.65
869.2932	1232.0016	6807.25	5875
869.4377	1233.9146	6920.55	5987.25
869.5823	1235.8269	6964.5	6032.5
869.7269	1237.7384	6950.4	6018.35
869.8715	1239.6492	6885.9	5955.25
870.016	1241.5592	6927.45	5993.95
870.1606	1243.4686	6971.05	6038.65
870.3051	1245.3772	7129.65	6197.85
870.4496	1247.285	7273.95	6342.35
870.5941	1249.1922	7434.85	6503.7
870.7387	1251.0986	7592.2	6662.75
870.8832	1253.0042	7679.65	6750.4
871.0277	1254.9092	7765.9	6838.55
871.1722	1256.8134	7837	6906.15
871.3167	1258.7169	7904.4	6973.45
871.4611	1260.6196	8011	7081.95
871.6056	1262.5216	8139.25	7207.8
871.7501	1264.4229	8248.35	7316.7
871.8945	1266.3234	8363.85	7435.7
872.039	1268.2232	8469.35	7534.1
872.1834	1270.1223	8531.3	7594.95
872.3278	1272.0207	8537.3	7606.35
872.4723	1273.9183	8519	7583.7
872.6167	1275.8151	8499.95	7571.3
872.7611	1277.7113	8500.6	7572.6
872.9055	1279.6067	8582.55	7652.95
873.0499	1281.5014	8795.65	7858.4
873.1943	1283.3953	9143.85	8211.25
873.3386	1285.2885	9563.3	8630.75
873.483	1287.181	9965.4	9036.15
873.6274	1289.0727	10371.7	9442.95
873.7717	1290.9637	10608.25	9681.35
873.9161	1292.854	10778.7	9850
874.0604	1294.7435	10742.15	9812.45
874.2047	1296.6323	10643.85	9715.1
874.349	1298.5204	10489.65	9557.2
874.4933	1300.4077	10270.15	9339.05
874.6376	1302.2943	10031.45	9101.2
874.7819	1304.1802	9754.7	8822.5
874.9262	1306.0653	9386.45	8454.4
875.0705	1307.9497	9046	8116.2
875.2147	1309.8333	8718.65	7793.55
875.359	1311.7162	8475.15	7546.9
875.5032	1313.5984	8324.3	7392.7
875.6475	1315.4798	8206.05	7275.6
875.7917	1317.3605	8133.3	7188.2
875.9359	1319.2405	8043.75	7109.85
876.0801	1321.1197	7834.3	6904.3
876.2243	1322.9982	7591.3	6655.8
876.3685	1324.876	7418.5	6490
876.5127	1326.753	7177.35	6250
876.6569	1328.6293	7025.9	6097
876.801	1330.5048	6856.45	5921.3
876.9452	1332.3796	6730.7	5799.85
877.0893	1334.2537	6657.15	5703.35
877.2335	1336.127	6578.25	5646.4
877.3776	1337.9996	6558.45	5626.55
877.5217	1339.8714	6559.55	5627.7
877.6658	1341.7426	6580	5605.95
877.8099	1343.6129	6580.4	5648.75
877.954	1345.4826	6567.75	5636.85
878.0981	1347.3515	6552.9	5619.85
878.2422	1349.2196	6558.9	5628.25
878.3862	1351.087	6579.4	5647.95
878.5303	1352.9537	6612.5	5681.4
878.6743	1354.8197	6657.1	5727.35
878.8184	1356.6849	6762.85	5832.5
878.9624	1358.5493	6864.05	5932.65
879.1064	1360.4131	6990.6	6061.65
879.2504	1362.276	7104.15	6174.8
879.3944	1364.1383	7122.85	6192.55
879.5384	1365.9998	7044.35	6107.6
879.6823	1367.8606	6857.6	5926.55
879.8263	1369.7206	6628.65	5698.1
879.9702	1371.5799	6441.85	5511.4
880.1142	1373.4384	6270.3	5340.05
880.2581	1375.2962	6092.55	5160.7
880.402	1377.1533	5895.3	4967.25
880.5459	1379.0096	5656.85	4729.4
880.6898	1380.8652	5439.45	4514.8
880.8337	1382.7201	5271.45	4345.75
880.9776	1384.5742	5112	4184.3
881.1215	1386.4275	5015.85	4089.2
881.2653	1388.2802	4932.25	4003.65
881.4092	1390.132	4865.7	3938.05
881.553	1391.9832	4809.2	3880.9
881.6968	1393.8336	4757.05	3824.85
881.8406	1395.6832	4746.8	3815.7
881.9844	1397.5322	4713.55	3782.7
882.1282	1399.3803	4699.15	3765.15
882.272	1401.2278	4658	3728.45
882.4158	1403.0745	4644.75	3718.05
882.5595	1404.9204	4619.5	3693
882.7033	1406.7656	4644.65	3716.6
882.847	1408.6101	4648.05	3718.55
882.9908	1410.4538	4668.4	3740.2
883.1345	1412.2968	4678.8	3750.85
883.2782	1414.139	4705.05	3780.4
883.4219	1415.9805	4754.9	3827.75
883.5656	1417.8213	4810.1	3878.7
883.7092	1419.6613	4856.25	3928.45
883.8529	1421.5006	4945	4018.5
883.9965	1423.3391	5068.45	4140.25
884.1402	1425.1769	5235.25	4310.05
884.2838	1427.0139	5495.9	4569.4
884.4274	1428.8502	5808.3	4878.8
884.571	1430.6858	6128.35	5202.1
884.7146	1432.5206	6354.9	5429.3
884.8582	1434.3547	6470.8	5542.45
885.0018	1436.188	6478.75	5553.05
885.1453	1438.0206	6413.2	5486.85
885.2889	1439.8524	6323.4	5394.15
885.4324	1441.6835	6250.7	5326
885.5759	1443.5139	6194	5264.05
885.7194	1445.3435	6155.3	5229.2
885.8629	1447.1724	6151.75	5225.5
886.0064	1449.0005	6141.8	5216.15
886.1499	1450.8279	6116.35	5190.65
886.2933	1452.6545	6100.8	5176.05
886.4368	1454.4804	6110.5	5189.05
886.5802	1456.3056	6107.35	5175.95
886.7237	1458.13	6068.35	5145.05
886.8671	1459.9536	5986.15	5059.9
887.0105	1461.7766	5828.95	4901.35
887.1539	1463.5987	5663.65	4740.65
887.2972	1465.4202	5459.95	4536.25
887.4406	1467.2409	5274.05	4348.25
887.584	1469.0608	5114.3	4187
887.7273	1470.88	4934.05	4008.5
887.8706	1472.6984	4816.5	3891.95
888.0139	1474.5161	4691.95	3761.85
888.1572	1476.3331	4595.5	3671.05
888.3005	1478.1493	4543.85	3620.1
888.4438	1479.9648	4498.25	3572.8
888.5871	1481.7795	4430.1	3506.6
888.7303	1483.5935	4414.7	3491.4
888.8736	1485.4067	4385.05	3461
889.0168	1487.2192	4385.2	3459.55
889.16	1489.031	4349.15	3422.25
889.3032	1490.842	4334.7	3413.5
889.4464	1492.6522	4309.95	3389.05
889.5896	1494.4618	4287.55	3361.65
889.7327	1496.2705	4262.3	3339.7
889.8759	1498.0785	4235.15	3313.25
890.019	1499.8858	4223.3	3299.2
890.1622	1501.6924	4187.8	3266.8
890.3053	1503.4981	4159.1	3234.3
890.4484	1505.3032	4144.45	3223.05
890.5914	1507.1075	4108.55	3186.2
890.7345	1508.911	4085.15	3163.05
890.8776	1510.7138	4067.4	3143.55
891.0206	1512.5159	4034.6	3113.95
891.1637	1514.3172	4015.4	3095.05
891.3067	1516.1178	3972	3051.65
891.4497	1517.9176	3966.1	3040.95
891.5927	1519.7166	3924.85	3002.15
891.7357	1521.515	3919	2990.55
891.8786	1523.3126	3915.7	2993.75
892.0216	1525.1094	3893.1	2970.65
892.1645	1526.9055	3876.85	2955.75
892.3074	1528.7008	3863.9	2942.3
892.4503	1530.4954	3842.3	2921.75
892.5932	1532.2893	3836.95	2919.05
892.7361	1534.0824	3821.95	2897.45
892.879	1535.8747	3833.8	2916.05
893.0218	1537.6663	3825.5	2906.35
893.1647	1539.4572	3826.2	2906.45
893.3075	1541.2473	3809.3	2890.1
893.4503	1543.0367	3820	2905.15
893.5931	1544.8253	3847.1	2925.9
893.7359	1546.6132	3870.15	2948.8
893.8787	1548.4003	3898.4	2969.65
894.0214	1550.1867	3915.65	2989.9
894.1642	1551.9723	3951.05	3032.7
894.3069	1553.7572	4030.75	3112.25
894.4496	1555.5414	4111.05	3194.15
894.5923	1557.3247	4205.7	3290.8
894.735	1559.1074	4321.15	3409.35
894.8777	1560.8893	4442.3	3531.5
895.0204	1562.6705	4559.9	3645.4
895.163	1564.4509	4642.4	3732.85
895.3056	1566.2305	4699.95	3791.75
895.4482	1568.0094	4706.85	3798.1
895.5908	1569.7876	4714.2	3805.25
895.7334	1571.565	4702	3789.8
895.876	1573.3417	4684.85	3770.65
896.0186	1575.1176	4705.35	3794.55
896.1611	1576.8928	4706.2	3796.3
896.3036	1578.6672	4722.2	3817.65
896.4461	1580.4409	4756.05	3852.95
896.5886	1582.2138	4804.15	3895.6
896.7311	1583.986	4872.7	3961.9
896.8736	1585.7575	4940.95	4028.9
897.0161	1587.5282	5025.25	4120.55
897.1585	1589.2981	5101.5	4197.7
897.3009	1591.0673	5183.55	4282.2
897.4433	1592.8358	5274.3	4368.55
897.5857	1594.6035	5340.4	4431.6
897.7281	1596.3704	5410.45	4500.1
897.8705	1598.1366	5485.15	4577.5
898.0128	1599.9021	5552.55	4648.2
898.1551	1601.6668	5610.9	4700.15
898.2975	1603.4308	5690.8	4782.2
898.4398	1605.194	5812.6	4901.1
898.5821	1606.9564	5911.4	5010.4
898.7243	1608.7182	6096.85	5195.4
898.8666	1610.4791	6315	5420.6
899.0088	1612.2394	6531.35	5636.6
899.1511	1613.9988	6753.35	5855.6
899.2933	1615.7576	6965.1	6062.15
899.4355	1617.5156	7090.15	6180.1
899.5776	1619.2728	7121.7	6211.3
899.7198	1621.0293	7018.2	6113.2
899.862	1622.785	6828.85	5922.75
900.0041	1624.54	6565.1	5661.8
900.1462	1626.2942	6289.05	5388.35
900.2883	1628.0477	5982.1	5077.3
900.4304	1629.8005	5723.45	4820
900.5725	1631.5525	5492.75	4590.65
900.7145	1633.3037	5271.95	4373.6
900.8566	1635.0542	5091.8	4191.45
900.9986	1636.804	4979.75	4078.35
901.1406	1638.553	4910	3949.65
901.2826	1640.3013	4804.45	3902.4
901.4245	1642.0488	4778.65	3877
901.5665	1643.7955	4776	3877
901.7085	1645.5416	4800.75	3902.95
901.8504	1647.2868	4862.75	3961.75
901.9923	1649.0313	4940.4	4036.3
902.1342	1650.7751	5019.75	4114.25
902.2761	1652.5181	5082	4180.8
902.4179	1654.2604	5187.3	4289.7
902.5598	1656.0019	5315.9	4415.75
902.7016	1657.7427	5484.7	4581.95
902.8434	1659.4828	5632.8	4729.55
902.9852	1661.222	5712.85	4812.55
903.127	1662.9606	5719.95	4821.1
903.2687	1664.6984	5572	4669.3
903.4105	1666.4354	5329.35	4427.85
903.5522	1668.1717	4990.9	4086.6
903.6939	1669.9072	4652.75	3750.3
903.8356	1671.642	4375.05	3468.55
903.9773	1673.3761	4124.75	3224
904.119	1675.1094	3932.05	3030.05
904.2606	1676.8419	3794.05	2892.05
904.4022	1678.5737	3653.7	2752.5
904.5439	1680.3048	3569.5	2667.8
904.6855	1682.0351	3498.7	2598.4
904.827	1683.7646	3419.6	2516.85
904.9686	1685.4934	3377.15	2476.8
905.1101	1687.2215	3322.65	2422.1
905.2517	1688.9488	3278.55	2377.6
905.3932	1690.6754	3231.7	2331.4
905.5347	1692.4012	3200.6	2300.65
905.6761	1694.1263	3164.15	2262.55
905.8176	1695.8506	3143.35	2242.2
905.9591	1697.5742	3139.8	2240.5
906.1005	1699.297	3086.4	2191.1
906.2419	1701.0191	3074.45	2178.4
906.3833	1702.7404	3040.35	2143.15
906.5246	1704.461	3007.25	2108.5
906.666	1706.1808	2994.35	2095.75
906.8073	1707.8999	2989.8	2092.7
906.9487	1709.6182	2977.55	2082.6
907.09	1711.3358	2955.6	2058.7
907.2313	1713.0527	2935.6	2041.45
907.3725	1714.7688	2919	2016.8
907.5138	1716.4841	2910.2	2011
907.655	1718.1987	2910.65	2008.7
907.7962	1719.9126	2889.75	1992.95
907.9374	1721.6257	2872.6	1978.25
908.0786	1723.338	2862.3	1967.95
908.2198	1725.0496	2869.9	1972
908.3609	1726.7605	2857.8	1959.3
908.502	1728.4706	2834.5	1937
908.6431	1730.18	2829.6	1930.8
908.7842	1731.8886	2828.15	1934.6
908.9253	1733.5964	2829.9	1914.15
909.0664	1735.3036	2813.5	1914.95
909.2074	1737.0099	2788.85	1892.45
909.3484	1738.7156	2780.2	1888.4
909.4894	1740.4204	2775.1	1880.1
909.6304	1742.1246	2768.5	1869.5
909.7714	1743.8279	2749.15	1854.15
909.9123	1745.5306	2744.55	1848.15
910.0532	1747.2325	2727.1	1830.25
910.1941	1748.9336	2706.75	1809.25
910.335	1750.634	2690.8	1793.3
910.4759	1752.3336	2696	1802.85
910.6168	1754.0325	2681.25	1787.95
910.7576	1755.7307	2694.1	1800.55
910.8984	1757.4281	2677.55	1782.85
911.0392	1759.1247	2677.2	1771.5
911.18	1760.8206	2682.05	1779.25
911.3208	1762.5158	2684.2	1784
911.4615	1764.2102	2649.35	1755
911.6022	1765.9039	2640.95	1745.95
911.7429	1767.5968	2639.3	1747.75
911.8836	1769.289	2643.95	1751.5
912.0243	1770.9804	2635.95	1740.05
912.1649	1772.6711	2626	1727.65
912.3056	1774.361	2628.1	1732.75
912.4462	1776.0502	2631.6	1735.6
912.5868	1777.7386	2617.75	1717.55
912.7274	1779.4263	2617.1	1720.4
912.8679	1781.1132	2605.3	1709.95
913.0084	1782.7994	2601.5	1707.1
913.149	1784.4849	2597.7	1705.8
913.2895	1786.1696	2602.25	1690.45
913.4299	1787.8535	2579.4	1686.7
913.5704	1789.5367	2579.25	1689.3
913.7108	1791.2192	2576.9	1687.8
913.8513	1792.9009	2587.75	1666.4
913.9917	1794.5818	2564.1	1667.45
914.132	1796.2621	2556.95	1663.95
914.2724	1797.9415	2559.05	1662.65
914.4128	1799.6202	2539.2	1644
914.5531	1801.2982	2549.25	1653.9
914.6934	1802.9755	2543.65	1645.7
914.8337	1804.6519	2538.05	1644.15
914.9739	1806.3277	2530.95	1637.3
915.1142	1808.0027	2514.1	1623.1
915.2544	1809.6769	2522.55	1630.7
915.3946	1811.3504	2514.75	1621
915.5348	1813.0231	2514.1	1624.15
915.675	1814.6951	2520	1627.2
915.8151	1816.3664	2513.7	1620.65
915.9553	1818.0369	2518.85	1625.35
916.0954	1819.7067	2507.7	1612.9
916.2355	1821.3757	2502.4	1606.9
916.3755	1823.044	2482.9	1586.25
916.5156	1824.7115	2485.15	1589.15
916.6556	1826.3783	2478.8	1584.25
916.7956	1828.0443	2473.95	1580.5
916.9356	1829.7096	2481.7	1584.5
917.0756	1831.3741	2478.4	1581
917.2155	1833.0379	2464.2	1570.9
917.3555	1834.701	2467.05	1576.45
917.4954	1836.3633	2460.8	1569.4
917.6353	1838.0248	2459.05	1565.1
917.7751	1839.6856	2450.85	1556.95
917.915	1841.3457	2457.6	1563.75
918.0548	1843.005	2454.65	1561.4
918.1946	1844.6636	2451.75	1559.5
918.3344	1846.3214	2444.1	1551.15
918.4742	1847.9785	2441.65	1549.35
918.6139	1849.6349	2442.05	1547.05
918.7537	1851.2904	2445.8	1539.05
918.8934	1852.9453	2437.1	1539
919.0331	1854.5994	2432	1533.4
919.1727	1856.2528	2435.45	1536.35
919.3124	1857.9054	2422.25	1527.55
919.452	1859.5572	2414.3	1523.35
919.5916	1861.2083	2421.8	1528.15
919.7312	1862.8587	2410.6	1514.9
919.8708	1864.5084	2405.9	1508.3
920.0103	1866.1572	2403.85	1509.1
920.1498	1867.8054	2399.1	1503.5
920.2893	1869.4528	2392.9	1494.95
920.4288	1871.0994	2399.7	1503.9
920.5683	1872.7453	2388.05	1491.6
920.7077	1874.3905	2388.7	1486.45
920.8471	1876.0349	2372.3	1475.5
920.9865	1877.6786	2381.55	1484.7
921.1259	1879.3215	2383.4	1490.65
921.2653	1880.9637	2378.75	1483.75
921.4046	1882.6051	2379.65	1486.3
921.5439	1884.2458	2362.3	1467.8
921.6832	1885.8858	2365	1471
921.8225	1887.525	2360.55	1466.35
921.9617	1889.1634	2339.85	1445.75
922.101	1890.8011	2348.55	1451.9
922.2402	1892.4381	2343.25	1447.7
922.3794	1894.0743	2347.7	1454.2
922.5185	1895.7098	2335.15	1440.9
922.6577	1897.3446	2340.1	1446
922.7968	1898.9786	2330.4	1429.8
922.9359	1900.6118	2331.15	1439.05
923.075	1902.2443	2322.85	1426.35
923.214	1903.8761	2315.9	1420.4
923.3531	1905.5071	2307.65	1412.75
923.4921	1907.1374	2307.35	1413.65
923.6311	1908.7669	2299.1	1404.75
923.77	1910.3957	2291.3	1397.85
923.909	1912.0237	2293.45	1399.95
924.0479	1913.651	2294.5	1399.55
924.1868	1915.2776	2281.9	1387.95
924.3257	1916.9034	2273.95	1383.05
924.4646	1918.5285	2264.75	1374
924.6034	1920.1528	2267.35	1373.95
924.7422	1921.7764	2262.85	1370.45
924.881	1923.3992	2263.6	1368.4
925.0198	1925.0213	2243.45	1349.2
925.1586	1926.6427	2232.65	1340.45
925.2973	1928.2633	2310.5	1330.55
925.436	1929.8832	2248.8	1352.9
925.5747	1931.5023	2233.2	1338.55
925.7134	1933.1207	2231.9	1338.8
925.852	1934.7383	2226.95	1332.65
925.9906	1936.3552	2219	1328
926.1292	1937.9714	2214.25	1322.6
926.2678	1939.5868	2203.2	1309.2
926.4064	1941.2015	2210.9	1316.2
926.5449	1942.8154	2205.45	1313
926.6834	1944.4286	2196.85	1301.35
926.8219	1946.041	2222.75	1307.85
926.9604	1947.6528	2189.55	1291.9
927.0988	1949.2637	2179.9	1288.1
927.2372	1950.8739	2172.8	1281.85
927.3756	1952.4834	2178	1285.65
927.514	1954.0921	2167.35	1272.25
927.6523	1955.7001	2173.4	1277.55
927.7907	1957.3074	2166.25	1276.45
927.929	1958.9139	2160.9	1272.5
928.0673	1960.5197	2154.45	1261.7
928.2055	1962.1247	2134.5	1245.65
928.3438	1963.729	2144.6	1253.5
928.482	1965.3325	2147	1250.05
928.6202	1966.9353	2124.5	1237.55
928.7584	1968.5374	2134.75	1244.55
928.8965	1970.1387	2135.05	1244.6
929.0346	1971.7393	2123.8	1234
929.1727	1973.3392	2113.9	1225.3
929.3108	1974.9383	2103	1213.9
929.4489	1976.5366	2109.55	1220.05
929.5869	1978.1342	2101.65	1212.45
929.7249	1979.7311	2109.8	1219.25
929.8629	1981.3273	2097.55	1207.85
930.0009	1982.9227	2088.75	1199.15
930.1388	1984.5173	2081.3	1193.65
930.2767	1986.1112	2073.65	1187.85
930.4146	1987.7044	2081.4	1192.65
930.5525	1989.2968	2077.1	1187.85
930.6904	1990.8885	2078.65	1185.75
930.8282	1992.4795	2070.2	1180.55
930.966	1994.0697	2064.2	1177.55
931.1038	1995.6592	2054.9	1167.6
931.2415	1997.2479	2051.65	1162.3
931.3793	1998.8359	2053.65	1165.3
931.517	2000.4232	2046.8	1162.25
931.6547	2002.0097	2048.65	1165.2
931.7923	2003.5955	2035.55	1150.75
931.93	2005.1805	2045.15	1155.9
932.0676	2006.7648	2038.6	1152
932.2052	2008.3484	2032.5	1145.1
932.3427	2009.9312	2038.4	1152.25
932.4803	2011.5133	2019.85	1139
932.6178	2013.0946	2022.9	1139.25
932.7553	2014.6752	2031.9	1147.7
932.8928	2016.2551	2010.9	1123.7
933.0302	2017.8342	2015.85	1130.15
933.1676	2019.4126	2013.65	1128.8
933.305	2020.9902	1994.85	1109.35
933.4424	2022.5672	2010.45	1126.75
933.5798	2024.1433	2014.85	1125.15
933.7171	2025.7188	1998.45	1116.55
933.8544	2027.2935	1998.25	1114.6
933.9917	2028.8674	1990.85	1108.5
934.129	2030.4406	1986.25	1106.5
934.2662	2032.0131	1983.15	1102.85
934.4034	2033.5849	1971.15	1082.6
934.5406	2035.1559	1971.75	1088.95
934.6778	2036.7261	1976.05	1091.15
934.8149	2038.2957	1973.5	1085.55
934.952	2039.8645	1972.3	1083.45
935.0891	2041.4325	1983.4	1092.3
935.2262	2042.9998	1966.85	1081.45
935.3632	2044.5664	1965.5	1079.2
935.5002	2046.1323	1953.8	1069.7
935.6372	2047.6974	1953.25	1070.1
935.7742	2049.2617	1947.25	1064.75
935.9111	2050.8254	1963.8	1074.3
936.048	2052.3883	1948.15	1063
936.1849	2053.9504	1950.9	1063.45
936.3218	2055.5118	1944.5	1055.4
936.4586	2057.0725	1950.85	1062.3
936.5955	2058.6325	1933.45	1048.25
936.7323	2060.1917	1933.6	1049.85
936.869	2061.7502	1935.2	1047.75
937.0058	2063.3079	1925.35	1042.15
937.1425	2064.8649	1920.9	1034.55
937.2792	2066.4212	1924.6	1039.45
937.4159	2067.9767	1914.6	1028.9
937.5525	2069.5315	1913.35	1026.15
937.6891	2071.0856	1908.75	1021.45
937.8257	2072.6389	1906.75	1021.4
937.9623	2074.1915	1896.3	1013.75
938.0989	2075.7433	1897.8	1012.05
938.2354	2077.2945	1897.05	1013.2
938.3719	2078.8448	1890.15	1003.9
938.5084	2080.3945	1892.25	1005.35
938.6448	2081.9434	1900.35	1011.85
938.7812	2083.4916	1889.55	999.7
938.9176	2085.039	1881.05	989.25
939.054	2086.5857	1884.95	992.5
939.1903	2088.1317	1891.15	999.75
939.3267	2089.677	1878.25	987.7
939.463	2091.2215	1881.2	988.9
939.5992	2092.7652	1869.95	977.55
939.7355	2094.3083	1872.7	978.5
939.8717	2095.8506	1868.05	979.1
940.0079	2097.3921	1865.8	978.45
940.1441	2098.933	1858.9	968.55
940.2802	2100.4731	1865.8	977.9
940.4163	2102.0124	1873.5	964.85
940.5524	2103.5511	1862.7	973.8
940.6885	2105.089	1860.6	970
940.8245	2106.6261	1850.9	960.3
940.9606	2108.1626	1850.85	963.05
941.0965	2109.6983	1870.35	955
941.2325	2111.2332	1852.85	962.65
941.3684	2112.7675	1847.3	957.55
941.5044	2114.301	1846.65	954.2
941.6403	2115.8337	1839	947.8
941.7761	2117.3657	1842.05	951.75
941.912	2118.897	1838.1	948.3
942.0478	2120.4276	1833.85	938.85
942.1835	2121.9575	1821.45	932.8
942.3193	2123.4866	1835.05	942.55
942.455	2125.0149	1825.8	934.75
942.5907	2126.5426	1814.3	926.05
942.7264	2128.0695	1816.05	926.05
942.8621	2129.5956	1813.45	929.05
942.9977	2131.1211	1814	922.6
943.1333	2132.6458	1814.35	926.3
943.2689	2134.1698	1810.35	919.6
943.4044	2135.693	1808.05	913.3
943.54	2137.2155	1809.4	914.35
943.6755	2138.7373	1802.7	913.7
943.8109	2140.2584	1796.4	909.45
943.9464	2141.7787	1796.2	905.9
944.0818	2143.2983	1787	903.95
944.2172	2144.8171	1786.25	904.1
944.3526	2146.3353	1780.2	891.8
944.4879	2147.8527	1780.55	893.3
944.6232	2149.3693	1784.4	893.95
944.7585	2150.8853	1785.6	895.95
944.8938	2152.4005	1777.7	884.95
945.029	2153.9149	1780.2	888.85
945.1642	2155.4287	1775.7	883.15
945.2994	2156.9417	1781	890.05
945.4346	2158.454	1766.65	876.8
945.5697	2159.9655	1764.05	876.6
945.7048	2161.4764	1774.5	886.8
945.8399	2162.9865	1755.45	868.55
945.9749	2164.4958	1758.35	870.5
946.1099	2166.0045	1756.95	866.25
946.2449	2167.5124	1750.3	864.05
946.3799	2169.0195	1753.6	862.1
946.5148	2170.526	1749.05	858.85
946.6498	2172.0317	1740.95	851.4
946.7846	2173.5367	1740.1	851.45
946.9195	2175.0409	1742.2	857
947.0543	2176.5445	1746.2	855.8
947.1891	2178.0473	1744.85	853.35
947.3239	2179.5494	1738	845.05
947.4587	2181.0507	1742.25	851.7
947.5934	2182.5513	1732.6	841.45
947.7281	2184.0512	1729.1	839.3
947.8628	2185.5504	1725.45	836.55
947.9974	2187.0488	1726.95	839.8
948.132	2188.5465	1725.55	839.85
948.2666	2190.0435	1718.65	832.05
948.4012	2191.5397	1719.4	829.5
948.5357	2193.0353	1716.9	825.65
948.6702	2194.5301	1715.65	822.1
948.8047	2196.0241	1714.3	819.75
948.9392	2197.5175	1712.45	819.25
949.0736	2199.0101	1706.15	809.45
949.208	2200.502	1694.45	805.15
949.3424	2201.9931	1703.75	816.25
949.4767	2203.4835	1690.7	802.3
949.611	2204.9733	1700.4	796.05
949.7453	2206.4622	1688.15	801.8
949.8796	2207.9505	1684.35	797.85
950.0138	2209.438	1678.05	793.45
950.148	2210.9248	1679.45	790.85
950.2822	2212.4109	1680.05	792.1
950.4164	2213.8962	1682.85	788.1
950.5505	2215.3809	1676.1	780.2
950.6846	2216.8648	1677.3	784.5
950.8186	2218.3479	1678.05	779.45
950.9527	2219.8304	1672.45	777.6
951.0867	2221.3121	1676.85	780.3
951.2207	2222.7931	1670.5	778.05
951.3546	2224.2733	1663	771.15
951.4886	2225.7529	1668.2	778.4
951.6225	2227.2317	1661.8	770.95
951.7563	2228.7098	1656.8	769.9
951.8902	2230.1872	1650.7	762.7
952.024	2231.6638	1648.15	760.25
952.1578	2233.1397	1653.35	761.85
952.2916	2234.6149	1642.25	753.55
952.4253	2236.0894	1635	746.65
952.559	2237.5632	1652.55	751.6
952.6927	2239.0362	1629.85	739.35
952.8263	2240.5085	1634.45	744.85
952.9599	2241.9801	1632.1	741.75
953.0935	2243.4509	1640.9	750.35
953.2271	2244.921	1627.1	735.1
953.3606	2246.3904	1631.45	737.75
953.4941	2247.8591	1627.65	736.85
953.6276	2249.3271	1626.6	735.15
953.7611	2250.7943	1616.75	726.5
953.8945	2252.2608	1618.45	726.65
954.0279	2253.7266	1616.1	725.85
954.1612	2255.1917	1615	724.35
954.2946	2256.656	1604.9	716.7
954.4279	2258.1197	1605.05	716.6
954.5612	2259.5826	1602.85	713.15
954.6944	2261.0447	1599.55	707.3
954.8276	2262.5062	1604.75	711.45
954.9608	2263.9669	1607.15	711.5
955.094	2265.4269	1592.15	701.35
955.2271	2266.8862	1598.6	708.15
955.3602	2268.3448	1593.45	704.5
955.4933	2269.8026	1587.05	699.95
955.6264	2271.2598	1588.1	699.1
955.7594	2272.7162	1587	700.3
955.8924	2274.1719	1586.1	694.55
956.0253	2275.6268	1589.9	698.3
956.1583	2277.0811	1591.55	699.65
956.2912	2278.5346	1585.4	697.55
956.4241	2279.9874	1580.95	692.8
956.5569	2281.4395	1577.15	692.65
956.6897	2282.8908	1577.95	684.1
956.8225	2284.3414	1579.4	688.35
956.9553	2285.7914	1572.25	679.8
957.088	2287.2406	1574.6	683.2
957.2207	2288.689	1570.95	678.25
957.3534	2290.1368	1576.35	681.5
957.486	2291.5838	1574.45	677.45
957.6186	2293.0302	1569.05	675.1
957.7512	2294.4758	1567.65	674.35
957.8838	2295.9206	1567.35	676.6
958.0163	2297.3648	1564.3	673.85
958.1488	2298.8082	1562.1	670
958.2813	2300.251	1563.25	672.25
958.4137	2301.693	1559.55	663.15
958.5461	2303.1343	1559.5	663.25
958.6785	2304.5748	1550.85	662.1
958.8108	2306.0147	1551.9	663.25
958.9432	2307.4538	1550.3	658.75
959.0754	2308.8922	1545.8	660.35
959.2077	2310.3299	1536.25	647.1
959.3399	2311.7669	1544.4	657.05
959.4721	2313.2031	1539.45	648.3
959.6043	2314.6387	1540	648.25
959.7365	2316.0735	1542.25	651.95
959.8686	2317.5076	1537.15	646.65
960.0006	2318.941	1533.95	641.75
960.1327	2320.3737	1538.55	642.9
960.2647	2321.8056	1540.05	645.95
960.3967	2323.2369	1525.85	634
960.5287	2324.6674	1522.65	629.3
960.6606	2326.0972	1527.85	637.3
960.7925	2327.5263	1528.5	635.5
960.9244	2328.9547	1532.05	640.15
961.0562	2330.3823	1525.15	633.5
961.1881	2331.8092	1527.1	630.05
961.3198	2333.2355	1515.3	622.8
961.4516	2334.661	1522.1	628.15
961.5833	2336.0858	1518.2	625.2
961.715	2337.5098	1512	621.55
961.8467	2338.9332	1516.4	624.4
961.9783	2340.3558	1512.5	617.75
962.1099	2341.7778	1508	617.65
962.2415	2343.199	1509.7	616.4
962.373	2344.6195	1508.1	619.4
962.5045	2346.0393	1497	609.7
962.636	2347.4583	1494.9	603.85
962.7675	2348.8767	1497.3	602.8
962.8989	2350.2943	1502	607.75
963.0303	2351.7113	1508.05	611.7
963.1617	2353.1275	1506.1	610.4
963.293	2354.543	1515	613.1
963.4243	2355.9578	1499.85	604.55
963.5556	2357.3718	1492.75	601.65
963.6868	2358.7852	1481.85	590.65
963.818	2360.1978	1487.2	596.5
963.9492	2361.6098	1489.45	599.1
964.0803	2363.021	1487.25	593.9
964.2114	2364.4315	1484.25	592
964.3425	2365.8413	1489.6	596
964.4736	2367.2504	1472.6	582.8
964.6046	2368.6587	1482	589.2
964.7356	2370.0664	1479.1	588.4
964.8666	2371.4733	1479.05	588.9
964.9975	2372.8795	1475.85	583.75
965.1284	2374.285	1473.5	580.75
965.2593	2375.6899	1468.7	577.75
965.3901	2377.0939	1469.5	579.45
965.5209	2378.4973	1468.65	577.85
965.6517	2379.9	1466.6	573.9
965.7825	2381.3019	1470.2	579.2
965.9132	2382.7032	1460.15	570
966.0439	2384.1037	1465.5	578.05
966.1745	2385.5035	1452.75	565.15
966.3051	2386.9027	1451.8	564
966.4357	2388.3011	1459.65	565.95
966.5663	2389.6987	1451.5	560.3
966.6968	2391.0957	1452.35	563.4
966.8273	2392.492	1448.5	559.95
966.9578	2393.8876	1439	549.35
967.0882	2395.2824	1440.8	550.4
967.2186	2396.6765	1440.7	550.8
967.349	2398.07	1434.95	542.65
967.4793	2399.4627	1438.65	543.55
967.6097	2400.8547	1436.35	544.15
967.7399	2402.246	1449.85	551.9
967.8702	2403.6366	1437.65	546.3
968.0004	2405.0265	1428.45	536.8
968.1306	2406.4156	1430.6	536.15
968.2607	2407.8041	1432.9	540.3
968.3909	2409.1918	1428.45	534.45
968.521	2410.5789	1429.4	537.3
968.651	2411.9652	1433.85	537.75
968.781	2413.3508	1426.25	534.05
968.911	2414.7358	1418.4	525
969.041	2416.12	1419	527.1
969.1709	2417.5035	1419.5	529.5
969.3008	2418.8863	1411.45	516.95
969.4307	2420.2684	1422.7	530.95
969.5606	2421.6497	1415.1	521.3
969.6904	2423.0304	1407.55	515.3
969.8201	2424.4104	1413.55	519.9
969.9499	2425.7896	1414.05	518.65
970.0796	2427.1682	1411.05	519.45
970.2093	2428.546	1409.25	518.6
970.3389	2429.9232	1410.65	518.75
970.4685	2431.2996	1406	512.85
970.5981	2432.6753	1400.8	508.85
970.7277	2434.0503	1403.2	509.35
970.8572	2435.4246	1395.15	502.55
970.9867	2436.7982	1402.85	508.9
971.1161	2438.1711	1402.6	510.85
971.2456	2439.5433	1398.5	507.2
971.375	2440.9148	1394.5	496.05
971.5043	2442.2856	1393.25	502.85
971.6336	2443.6557	1385.85	495
971.7629	2445.025	1391.8	501.3
971.8922	2446.3937	1392.5	499.4
972.0214	2447.7617	1385.9	493.05
972.1506	2449.1289	1384.85	492.85
972.2798	2450.4955	1378.95	484.2
972.4089	2451.8613	1385.1	495.9
972.538	2453.2265	1380.05	489.45
972.6671	2454.5909	1375.7	482.85
972.7961	2455.9546	1382.2	492.6
972.9251	2457.3177	1382.3	491.6
973.0541	2458.68	1371.6	479.8
973.1831	2460.0416	1366.4	474.85
973.312	2461.4025	1372.4	478.85
973.4408	2462.7627	1379.3	477.25
973.5697	2464.1222	1366.5	477.85
973.6985	2465.4811	1369.75	479.25
973.8273	2466.8392	1371.65	480.8
973.956	2468.1966	1370.1	478.5
974.0847	2469.5533	1370.65	478.2
974.2134	2470.9093	1359.6	467.45
974.3421	2472.2645	1372.45	480.8
974.4707	2473.6191	1367.5	479
974.5993	2474.973	1366.45	475.15
974.7278	2476.3262	1368.5	474.95
974.8563	2477.6787	1358.05	469.45
974.9848	2479.0305	1363.2	472
975.1132	2480.3816	1365.1	472.75
975.2417	2481.7319	1359.9	469
975.37	2483.0816	1352	459.95
975.4984	2484.4306	1352.85	461.05
975.6267	2485.7789	1357.75	467.3
975.755	2487.1264	1349.7	459.25
975.8833	2488.4733	1352.55	463.8
976.0115	2489.8195	1366.9	457.9
976.1397	2491.165	1351.65	458.7
976.2678	2492.5097	1348.4	455.2
976.3959	2493.8538	1342.2	453.3
976.524	2495.1972	1342.8	450.3
976.6521	2496.5398	1346.25	454.75
976.7801	2497.8818	1337.65	446.05
976.9081	2499.2231	1343.4	451.2
977.036	2500.5637	1334.05	441.3
977.164	2501.9035	1341.85	450.7
977.2918	2503.2427	1348	451.5
977.4197	2504.5812	1341.1	449.5
977.5475	2505.919	1330.3	438.55
977.6753	2507.256	1332.55	440.95
977.8031	2508.5924	1323.8	433.05
977.9308	2509.9281	1329.6	432.4
978.0585	2511.2631	1331.15	440.15
978.1861	2512.5974	1325.2	433.65
978.3137	2513.9309	1329.9	440.15
978.4413	2515.2638	1353.65	434.45
978.5689	2516.596	1322.5	430.15
978.6964	2517.9275	1324.3	432.55
978.8239	2519.2583	1323.5	432.6
978.9513	2520.5884	1328.35	436.05
979.0788	2521.9178	1314.9	424.05
979.2062	2523.2465	1312.95	424.4
979.3335	2524.5745	1316.6	428.2
979.4608	2525.9018	1311.35	421
979.5881	2527.2284	1313.2	422.6
979.7154	2528.5543	1313.7	422.9
979.8426	2529.8796	1313.3	421.35
979.9698	2531.2041	1308.3	417.15
980.0969	2532.5279	1309.3	419.8
980.224	2533.851	1311.55	421.75
980.3511	2535.1735	1307.6	417
980.4781	2536.4952	1310	416.5
980.6052	2537.8163	1310.55	419
980.7321	2539.1366	1312.65	422.7
980.8591	2540.4562	1306.85	415.05
980.986	2541.7752	1315.15	425.45
981.1129	2543.0935	1301.15	409.4
981.2397	2544.411	1311.9	418.55
981.3665	2545.7279	1301.55	412.6
981.4933	2547.0441	1305	416.2
981.62	2548.3596	1310.3	414.9
981.7467	2549.6744	1301.2	412.85
981.8734	2550.9885	1309.7	410.7
982.0001	2552.3019	1297.6	408.85
982.1267	2553.6146	1300.9	411.25
982.2532	2554.9266	1298.7	408.1
982.3798	2556.2379	1294.8	401.45
982.5063	2557.5485	1294.75	403.7
982.6327	2558.8585	1299.15	402
982.7592	2560.1677	1302.1	406.15
982.8856	2561.4762	1300.95	410.2
983.0119	2562.7841	1295.85	402.35
983.1383	2564.0913	1292	401.65
983.2646	2565.3977	1298.4	408
983.3908	2566.7035	1287.05	396.45
983.517	2568.0086	1288.9	395.65
983.6432	2569.313	1297.9	407
983.7694	2570.6167	1292.55	398.25
983.8955	2571.9197	1291.9	402.95
984.0216	2573.222	1297.55	401.35
984.1476	2574.5236	1285.05	394.45
984.2737	2575.8246	1290.9	399.45
984.3996	2577.1248	1295.25	401.35
984.5256	2578.4244	1282.45	393.35
984.6515	2579.7232	1287.5	396.05
984.7774	2581.0214	1305.65	389.4
984.9032	2582.3189	1287.9	396.85
985.029	2583.6157	1288.05	394.4
985.1548	2584.9118	1285.1	393.25
985.2806	2586.2072	1285.1	395.75
985.4063	2587.5019	1286.05	397.5
985.5319	2588.7959	1287.05	398.2
985.6576	2590.0893	1290.65	399.2
985.7832	2591.3819	1290.95	401.6
985.9087	2592.6739	1283.1	392
986.0343	2593.9652	1282.65	390.85
986.1597	2595.2557	1284.75	394.05
986.2852	2596.5456	1288.05	394.6
986.4106	2597.8348	1290.75	401.3
986.536	2599.1234	1282.45	396.15
986.6614	2600.4112	1281.45	388.4
986.7867	2601.6983	1285.5	391.45
986.912	2602.9848	1284.55	394.7
987.0372	2604.2705	1281.8	385.65
987.1624	2605.5556	1285.6	396.05
987.2876	2606.84	1276.45	386.05
987.4128	2608.1237	1269.85	376.75
987.5379	2609.4067	1279.45	389.7
987.6629	2610.689	1282.85	384.45
987.788	2611.9707	1275.7	383.1
987.913	2613.2516	1276.65	382.7
988.0379	2614.5319	1264.65	376.25
988.1629	2615.8115	1270.4	380
988.2878	2617.0903	1273.95	383.1
988.4126	2618.3685	1268.5	378.15
988.5375	2619.6461	1269	379
988.6622	2620.9229	1263.8	375.45
988.787	2622.199	1265.75	375.4
988.9117	2623.4745	1267.45	377.1
989.0364	2624.7493	1263.2	373.8
989.161	2626.0234	1260.55	373.05
989.2857	2627.2968	1261.1	372.75
989.4102	2628.5695	1262.75	371.75
989.5348	2629.8415	1247.65	359.8
989.6593	2631.1128	1258.9	370.1
989.7837	2632.3835	1254.35	364.5
989.9082	2633.6535	1254.25	366.2
990.0326	2634.9228	1256.9	369.3
990.1569	2636.1914	1255.15	364.4
990.2812	2637.4593	1251.05	362.05
990.4055	2638.7265	1251.4	362.5
990.5298	2639.9931	1250.15	362.75
990.654	2641.259	1247.95	359.55
990.7782	2642.5242	1247.2	357.2
990.9023	2643.7887	1246.75	359.1
991.0264	2645.0525	1245.4	356.35
991.1505	2646.3156	1242.95	355.25
991.2745	2647.5781	1245.5	356.95
991.3985	2648.8398	1238.65	352.75
991.5225	2650.1009	1274.55	349.75
991.6464	2651.3613	1239.25	350.35
991.7703	2652.6211	1241.2	353
991.8942	2653.8801	1236.35	349.7
992.018	2655.1385	1244.3	353.65
992.1418	2656.3961	1237.6	347.55
992.2655	2657.6531	1240.35	352.1
992.3892	2658.9094	1232.15	342.55
992.5129	2660.1651	1237.35	350.15
992.6366	2661.42	1239.15	350.05
992.7602	2662.6743	1238.15	347.85
992.8837	2663.9279	1239.55	353.25
993.0073	2665.1808	1241.95	355.5
993.1307	2666.433	1245.4	357.05
993.2542	2667.6846	1242	354.2
993.3776	2668.9354	1251.15	359.15
993.501	2670.1856	1245.7	355.05
993.6244	2671.4351	1242.35	354.25
993.7477	2672.6839	1245.2	357.35
993.8709	2673.9321	1240.7	352.5
993.9942	2675.1795	1249.65	361.4
994.1174	2676.4263	1254.45	366.05
994.2405	2677.6724	1248.15	361.25
994.3637	2678.9179	1251.15	363.5
994.4868	2680.1626	1246.6	358.5
994.6098	2681.4067	1252.75	365.75
994.7328	2682.6501	1246.15	357.15
994.8558	2683.8928	1240.8	351.95
994.9788	2685.1348	1246.4	358.4
995.1017	2686.3761	1237.8	350.05
995.2245	2687.6168	1238.95	350.95
995.3474	2688.8568	1234	344.85
995.4702	2690.0961	1230.65	343.25
995.5929	2691.3348	1237.15	350.65
995.7156	2692.5727	1231.35	342.9
995.8383	2693.81	1228.85	339.05
995.961	2695.0466	1229.55	340.4
996.0836	2696.2826	1228.5	339.5
996.2062	2697.5178	1231.25	340.5
996.3287	2698.7524	1227	338.6
996.4512	2699.9863	1230.2	341.45
996.5737	2701.2195	1228.85	341.9
996.6961	2702.452	1226.95	337.45
996.8185	2703.6839	1234.8	344.8
996.9408	2704.9151	1242.95	355.75
997.0631	2706.1456	1243	355.65
997.1854	2707.3755	1245.2	356.8
997.3077	2708.6046	1254.55	363.65
997.4299	2709.8331	1252	362.65
997.552	2711.0609	1253.4	365.6
997.6742	2712.2881	1249.45	361.45
997.7963	2713.5145	1265.75	376.8
997.9183	2714.7403	1264.25	377.35
998.0403	2715.9654	1269.9	382.25
998.1623	2717.1899	1291.1	390.7
998.2842	2718.4136	1281.4	393.45
998.4062	2719.6367	1286.9	399.2
998.528	2720.8591	1304.35	410.7
998.6498	2722.0809	1295.4	407.65
998.7716	2723.3019	1310.6	418.8
998.8934	2724.5223	1316.25	427.85
999.0151	2725.7421	1315.75	427.35
999.1368	2726.9611	1319.75	430.05
999.2584	2728.1795	1320.15	428.65
999.38	2729.3972	1311.2	424.2
999.5016	2730.6142	1306.2	411.7
999.6231	2731.8306	1289.85	401.8
999.7446	2733.0462	1293.75	404
999.8661	2734.2612	1278.25	386.85
999.9875	2735.4756	1269.3	380.9
1000.1089	2736.6892	1258.05	368.5
1000.2302	2737.9022	1244.6	359.1
1000.3515	2739.1145	1248.85	362.3
1000.4728	2740.3262	1249.35	355.45
1000.594	2741.5372	1235.7	349.9
1000.7152	2742.7475	1227.25	337.5
1000.8363	2743.9571	1224.55	336.05
1000.9575	2745.1661	1219.9	329.95
1001.0785	2746.3744	1215.4	329.15
1001.1996	2747.582	1201.2	314.35
1001.3206	2748.7889	1207.9	319.95
1001.4415	2749.9952	1193.6	306.2
1001.5625	2751.2008	1195.9	309.95
1001.6833	2752.4057	1196.25	306.25
1001.8042	2753.61	1194.05	306.55
1001.925	2754.8136	1192.4	304.25
1002.0458	2756.0165	1190.85	306.15
1002.1665	2757.2188	1184.4	298.35
1002.2872	2758.4204	1184.85	298.25
1002.4078	2759.6213	1190.55	299.6
1002.5285	2760.8215	1192.65	300.9
1002.649	2762.0211	1191.7	303.2
1002.7696	2763.22	1188.75	299.3
1002.8901	2764.4182	1188.4	299.7
1003.0106	2765.6158	1182.55	296.05
1003.131	2766.8127	1181.15	293.75
1003.2514	2768.009	1179.7	292.75
1003.3717	2769.2045	1182.65	295.9
1003.492	2770.3994	1176.85	287.75
1003.6123	2771.5936	1178.25	290.85
1003.7325	2772.7872	1167	282.2
1003.8527	2773.9801	1174.1	286.95
1003.9729	2775.1723	1187.35	286.85
1004.093	2776.3639	1169.2	282.45
1004.2131	2777.5548	1170.05	280.25
1004.3331	2778.745	1172.25	285.85
1004.4531	2779.9346	1167.9	282.1
1004.5731	2781.1235	1170.65	282.5
1004.693	2782.3117	1162.7	276.3
1004.8129	2783.4992	1170.45	284.35
1004.9328	2784.6861	1173.25	286.4
1005.0526	2785.8723	1174.7	287.3
1005.1723	2787.0579	1176.3	288.75
1005.2921	2788.2428	1178	292.05
1005.4118	2789.427	1175.65	289.95
1005.5314	2790.6106	1178.25	293.15
1005.651	2791.7935	1185.85	300
1005.7706	2792.9757	1188.4	302.5
1005.8902	2794.1573	1192.25	304.5
1006.0097	2795.3382	1197.05	311.2
1006.1291	2796.5184	1196.2	311.4
1006.2485	2797.698	1207.75	319.25
1006.3679	2798.8769	1205.2	320.25
1006.4873	2800.0551	1217.15	329.95
1006.6066	2801.2327	1221.7	335.7
1006.7258	2802.4096	1221.4	335.7
1006.8451	2803.5859	1236.15	351.25
1006.9642	2804.7615	1245.65	358.7
1007.0834	2805.9364	1249.4	365.6
1007.2025	2807.1106	1262.8	374.55
1007.3216	2808.2842	1279.3	392.6
1007.4406	2809.4572	1290.15	403.2
1007.5596	2810.6294	1308.8	423.4
1007.6785	2811.801	1328.25	443.9
1007.7975	2812.972	1345.5	461.3
1007.9163	2814.1423	1368	483.45
1008.0352	2815.3119	1394.9	509.45
1008.154	2816.4808	1424.85	541.95
1008.2727	2817.6491	1444.05	556.3
1008.3914	2818.8167	1476.35	591.25
1008.5101	2819.9837	1515.85	627.25
1008.6288	2821.15	1538.95	652.45
1008.7474	2822.3157	1577.9	693.95
1008.8659	2823.4807	1609.75	724.7
1008.9844	2824.645	1648.35	763.25
1009.1029	2825.8086	1678.8	794.15
1009.2214	2826.9716	1712	829.4
1009.3398	2828.134	1742.05	856.35
1009.4581	2829.2957	1772.35	888.55
1009.5764	2830.4567	1796.65	912.85
1009.6947	2831.617	1815	930
1009.813	2832.7767	1808	922.25
1009.9312	2833.9358	1815.85	932.1
1010.0493	2835.0941	1809.1	922.25
1010.1675	2836.2519	1791.5	906.65
1010.2855	2837.4089	1787.9	903.2
1010.4036	2838.5653	1773.75	889.45
1010.5216	2839.7211	1766.6	882.55
1010.6396	2840.8761	1760.8	871.7
1010.7575	2842.0306	1769.55	886.1
1010.8754	2843.1843	1777.1	891.25
1010.9932	2844.3374	1789	906.05
1011.111	2845.4899	1824.5	939.75
1011.2288	2846.6417	1843.15	959
1011.3465	2847.7928	1874.35	991.05
1011.4642	2848.9433	1912.75	1027.85
1011.5818	2850.0931	1949.7	1066.5
1011.6995	2851.2422	1978.45	1091.2
1011.817	2852.3907	2008.85	1124.15
1011.9345	2853.5385	2033.25	1145.85
1012.052	2854.6857	2089.05	1176.05
1012.1695	2855.8323	2092.1	1208.55
1012.2869	2856.9781	2111	1226.6
1012.4042	2858.1233	2151.55	1267.6
1012.5216	2859.2679	2181.05	1296.5
1012.6389	2860.4118	2206.5	1322.1
1012.7561	2861.555	2237.2	1347.35
1012.8733	2862.6976	2263.3	1376.95
1012.9905	2863.8395	2269.55	1386.6
1013.1076	2864.9808	2300.15	1416.6
1013.2247	2866.1214	2305.85	1420.85
1013.3417	2867.2614	2321	1436.65
1013.4587	2868.4007	2327.55	1443.65
1013.5757	2869.5393	2339.6	1451.85
1013.6926	2870.6773	2357.15	1467.15
1013.8095	2871.8146	2348.55	1459.75
1013.9263	2872.9513	2361.85	1474.55
1014.0431	2874.0874	2342	1456.6
1014.1599	2875.2227	2347.1	1461.55
1014.2766	2876.3574	2326.8	1442.2
1014.3933	2877.4915	2319.35	1435.35
1014.51	2878.6249	2297.8	1413.9
1014.6266	2879.7577	2278.75	1394.3
1014.7431	2880.8898	2290	1395.3
1014.8596	2882.0212	2252.6	1368
1014.9761	2883.152	2268.35	1382.6
1015.0925	2884.2821	2251.25	1367.45
1015.2089	2885.4116	2247.1	1364.3
1015.3253	2886.5405	2245	1361.25
1015.4416	2887.6686	2255.7	1368.5
1015.5579	2888.7962	2259.4	1375.85
1015.6741	2889.923	2261.2	1379.05
1015.7903	2891.0493	2264.8	1384
1015.9065	2892.1748	2285.75	1402.3
1016.0226	2893.2997	2283.2	1399.85
1016.1387	2894.424	2289.45	1406.4
1016.2547	2895.5476	2301.8	1417.75
1016.3707	2896.6706	2310.9	1426.5
1016.4866	2897.7929	2313.55	1429.45
1016.6025	2898.9145	2339.45	1452.25
1016.7184	2900.0355	2348.15	1461.75
1016.8342	2901.1559	2367	1481.35
1016.95	2902.2756	2384.05	1495.45
1017.0658	2903.3946	2394.55	1509.55
1017.1815	2904.513	2408.4	1522
1017.2971	2905.6308	2436.5	1553.45
1017.4127	2906.7479	2430.45	1545.95
1017.5283	2907.8643	2455.25	1569.6
1017.6439	2908.9801	2453.55	1568.7
1017.7594	2910.0953	2457.3	1574.3
1017.8748	2911.2098	2464.7	1579.35
1017.9902	2912.3236	2461.55	1573.3
1018.1056	2913.4368	2456.75	1567.4
1018.2209	2914.5494	2437.25	1553.3
1018.3362	2915.6613	2429.85	1541.95
1018.4515	2916.7725	2400.8	1513.7
1018.5667	2917.8831	2393.1	1508.05
1018.6819	2918.9931	2375.4	1488.4
1018.797	2920.1024	2353.2	1468.05
1018.9121	2921.211	2340.45	1456.1
1019.0271	2922.319	2336.5	1453
1019.1421	2923.4264	2325.1	1442.4
1019.2571	2924.5331	2329.95	1447.45
1019.372	2925.6391	2317.5	1434.8
1019.4869	2926.7445	2318.9	1436.45
1019.6017	2927.8493	2324.95	1442.6
1019.7165	2928.9534	2321	1437.8
1019.8313	2930.0569	2329	1441.1
1019.946	2931.1597	2342.8	1458.6
1020.0606	2932.2619	2346.7	1463.6
1020.1753	2933.3634	2337.25	1452.45
1020.2899	2934.4643	2352.7	1464.05
1020.4044	2935.5645	2337.75	1447.55
1020.5189	2936.6641	2335.7	1447.9
1020.6334	2937.763	2318.55	1435.95
1020.7478	2938.8613	2297.55	1414.4
1020.8622	2939.959	2280.8	1392.75
1020.9765	2941.056	2242.8	1358.95
1021.0908	2942.1523	2198.4	1314.8
1021.2051	2943.248	2153.1	1269.2
1021.3193	2944.3431	2105.95	1222.65
1021.4334	2945.4375	2060.2	1176.15
1021.5476	2946.5313	1983.95	1103.5
1021.6617	2947.6244	1945.25	1060.6
1021.7757	2948.7169	1891.65	1007.3
1021.8897	2949.8087	1831.75	946.6
1022.0037	2950.8999	1787.8	905.05
1022.1176	2951.9904	1743.1	860.3
1022.2315	2953.0803	1704.15	819.9
1022.3453	2954.1696	1674.1	790.7
1022.4591	2955.2582	1637.75	753.3
1022.5728	2956.3462	1619	735.5
1022.6865	2957.4335	1592.7	710.3
1022.8002	2958.5202	1573.3	688.1
1022.9138	2959.6062	1561.25	677.6
1023.0274	2960.6916	1550.75	667.9
1023.141	2961.7764	1528.4	642.2
1023.2545	2962.8605	1524.45	638.15
1023.3679	2963.9439	1522.2	639.8
1023.4813	2965.0267	1512.7	628.9
1023.5947	2966.1089	1521.2	616.15
1023.708	2967.1905	1511.2	626.85
1023.8213	2968.2714	1497.45	616.1
1023.9346	2969.3516	1507.95	624.45
1024.0478	2970.4312	1512.35	621
1024.1609	2971.5102	1511.65	629.25
1024.274	2972.5885	1516	634.15
1024.3871	2973.6662	1518.85	628.65
1024.5002	2974.7432	1509.65	627.8
1024.6132	2975.8196	1516.15	634.25
1024.7261	2976.8954	1509.05	626.15
1024.839	2977.9705	1503.1	619.05
1024.9519	2979.045	1501.3	620
1025.0647	2980.1188	1493.6	610.1
1025.1775	2981.192	1482.35	602.6
1025.2902	2982.2645	1474.65	590.45
1025.4029	2983.3364	1456.8	572.95
1025.5156	2984.4077	1450	567.3
1025.6282	2985.4783	1437.3	548.65
1025.7407	2986.5483	1411.05	528.3
1025.8532	2987.6177	1395.55	514.9
1025.9657	2988.6864	1377.05	493.05
1026.0782	2989.7545	1364.85	482.05
1026.1906	2990.8219	1341.8	459.45
1026.3029	2991.8887	1315.7	431.4
1026.4152	2992.9548	1305	420.5
1026.5275	2994.0204	1284.25	402.1
1026.6397	2995.0852	1266.5	386.1
1026.7519	2996.1495	1254.1	371.4
1026.864	2997.2131	1240.85	358.6
1026.9761	2998.276	1224.85	341.8
1027.0882	2999.3383	1211.95	329.8
1027.2002	3000.4	1203.5	321.25
1027.3122	3001.4611	1191.9	308.95
1027.4241	3002.5215	1181.65	298.3
1027.536	3003.5812	1167.6	286.9
1027.6478	3004.6404	1158.2	276.85
1027.7596	3005.6989	1157.7	274.5
1027.8714	3006.7567	1147.35	264.7
1027.9831	3007.8139	1175.75	260.4
1028.0947	3008.8705	1134.95	254.05
1028.2064	3009.9264	1137.15	251.3
1028.3179	3010.9818	1124	239.8
1028.4295	3012.0364	1121.25	237.1
1028.541	3013.0905	1113.6	229.15
1028.6524	3014.1439	1115.1	233.4
1028.7638	3015.1966	1111	226.4
1028.8752	3016.2487	1109.4	226.8
1028.9865	3017.3002	1113.55	229.55
1029.0978	3018.3511	1102.5	223.2
1029.209	3019.4013	1102.5	218.4
1029.3202	3020.4509	1100.65	221.5
1029.4314	3021.4998	1099.5	215.35
1029.5425	3022.5481	1098.55	216.85
1029.6535	3023.5958	1095.45	214.9
1029.7645	3024.6428	1092.35	209.8
1029.8755	3025.6892	1091.55	209.9
1029.9864	3026.735	1094.75	213.05
1030.0973	3027.7802	1092.65	209.85
1030.2082	3028.8247	1095.7	213.2
1030.319	3029.8685	1095.05	212.15
1030.4297	3030.9118	1099.7	217.9
1030.5404	3031.9544	1090.45	209.95
1030.6511	3032.9963	1094.45	212.8
1030.7617	3034.0376	1090.85	208.35
1030.8723	3035.0783	1097.35	211.2
1030.9829	3036.1184	1099.2	215.05
1031.0934	3037.1578	1104.2	223.9
1031.2038	3038.1966	1102.65	220.1
1031.3142	3039.2348	1102.3	221.9
1031.4246	3040.2723	1103.55	213.4
1031.5349	3041.3092	1100.7	219.45
1031.6452	3042.3455	1106.45	222.35
1031.7554	3043.3811	1100.3	218.25
1031.8656	3044.4161	1098	216.35
1031.9758	3045.4505	1100.45	219.7
1032.0859	3046.4842	1099.5	216.85
1032.1959	3047.5173	1096.2	213.85
1032.3059	3048.5498	1097.85	215.2
1032.4159	3049.5816	1092.2	207.85
1032.5258	3050.6128	1098.75	215.75
1032.6357	3051.6434	1095	210.55
1032.7455	3052.6734	1092.9	209.85
1032.8553	3053.7027	1091.75	210.7
1032.9651	3054.7314	1090.3	208.85
1033.0748	3055.7594	1087.7	203.2
1033.1845	3056.7868	1083.55	202.4
1033.2941	3057.8136	1080.55	197.6
1033.4037	3058.8398	1082.45	203.65
1033.5132	3059.8653	1082.05	198.95
1033.6227	3060.8902	1086.8	205.7
1033.7321	3061.9145	1080.95	199.15
1033.8415	3062.9381	1079.1	196.7
1033.9509	3063.9612	1091	191
1034.0602	3064.9835	1075.65	192.6
1034.1694	3066.0053	1073.55	190.1
1034.2787	3067.0264	1072.75	191.25
1034.3878	3068.0469	1075.15	191.05
1034.497	3069.0668	1071.2	187.1
1034.6061	3070.086	1065.55	185.6
1034.7151	3071.1046	1064.7	181.85
1034.8241	3072.1226	1065.1	183.9
1034.9331	3073.1399	1067.8	185.4
1035.042	3074.1567	1052.4	171.3
1035.1508	3075.1727	1051.8	168.6
1035.2597	3076.1882	1041.75	161.75
1035.3684	3077.203	1042.4	161.1
1035.4772	3078.2173	1043.45	162.4
1035.5859	3079.2308	1042.75	157.45
1035.6945	3080.2438	1036.35	152.6
1035.8031	3081.2561	1033.4	151.85
1035.9117	3082.2678	1026.9	144.45
1036.0202	3083.2789	1025.55	143.05
1036.1286	3084.2893	1018.35	135.7
1036.2371	3085.2991	1015.7	132.6
1036.3454	3086.3083	1022.25	135.2
1036.4538	3087.3169	1016.9	134.25
1036.562	3088.3248	1010.95	128.35
1036.6703	3089.3321	1007.5	124.35
1036.7785	3090.3388	1006.2	127.4
1036.8866	3091.3449	1004.8	124.55
1036.9948	3092.3503	1006.05	121.15
1037.1028	3093.3551	1002.25	122.7
1037.2108	3094.3593	997.45	114.65
1037.3188	3095.3629	997.3	115.75
1037.4267	3096.3658	998.45	114.85
1037.5346	3097.3681	995.8	112.5
1037.6425	3098.3698	993.3	109
1037.7503	3099.3708	996.65	109.4
1037.858	3100.3713	989.2	108.9
1037.9657	3101.3711	989.05	108.7
1038.0734	3102.3702	1100.4	103.35
1038.181	3103.3688	983.05	99.8
1038.2886	3104.3667	980.95	100.65
1038.3961	3105.364	980.75	99.65
1038.5036	3106.3607	983	99.2
1038.611	3107.3568	979.55	97.25
1038.7184	3108.3522	977.45	95.55
1038.8257	3109.347	977.75	94.75
1038.933	3110.3412	975.8	90.6
1039.0403	3111.3348	975.2	94.8
1039.1475	3112.3277	974.45	93.85
1039.2547	3113.32	972.2	91.95
1039.3618	3114.3117	971.9	89.05
1039.4689	3115.3028	972.45	90.3
1039.5759	3116.2932	972.5	89.25
1039.6829	3117.2831	974.85	88.15
1039.7898	3118.2723	968.9	86.35
1039.8967	3119.2608	967.2	85.95
1040.0035	3120.2488	965.4	84
1040.1103	3121.2361	963.8	82.1
1040.2171	3122.2229	965.35	84.65
1040.3238	3123.209	964.8	82.1
1040.4305	3124.1944	961	79.05
1040.5371	3125.1793	964.8	83.35
1040.6437	3126.1635	959.3	76.3
1040.7502	3127.1471	959.6	78.85
1040.8567	3128.1301	958.85	79
1040.9631	3129.1125	960.9	80.75
1041.0695	3130.0942	956.35	74.75
1041.1759	3131.0753	966.8	77.15
1041.2822	3132.0558	957.15	74.6
1041.3884	3133.0357	954.45	71.95
1041.4946	3134.015	954.5	72.2
1041.6008	3134.9936	955.2	73.7
1041.7069	3135.9716	971.65	69.9
1041.813	3136.949	950.7	68.95
1041.919	3137.9258	970.6	71.25
1042.025	3138.902	955.9	70.95
1042.1309	3139.8775	951.55	69.4
1042.2368	3140.8524	950.5	71.6
1042.3427	3141.8267	954.4	71.25
1042.4485	3142.8004	950.25	68.45
1042.5542	3143.7735	955.15	68
1042.6599	3144.7459	950.35	67.9
1042.7656	3145.7178	949.65	68.15
1042.8712	3146.689	948.8	69.3
1042.9768	3147.6596	949.75	65.35
1043.0823	3148.6295	945.55	64.2
1043.1878	3149.5989	946.2	66.35
1043.2932	3150.5676	941.1	59.7
1043.3986	3151.5357	945.35	65.15
1043.5039	3152.5032	942.8	63.25
1043.6092	3153.4701	945.2	66.25
1043.7145	3154.4364	943.85	59.7
1043.8197	3155.402	943.95	64.85
1043.9248	3156.367	942.85	59.7
1044.03	3157.3315	979.2	62.45
1044.135	3158.2952	941.2	59.45
1044.24	3159.2584	940.25	56.65
1044.345	3160.221	941.4	59.15
1044.4499	3161.1829	939.3	57.15
1044.5548	3162.1442	937.2	57.1
1044.6596	3163.105	942.45	61.1
1044.7644	3164.065	939.9	59.3
1044.8692	3165.0245	941.9	58.4
1044.9739	3165.9834	936.6	59.5
1045.0785	3166.9416	938.05	55.75
1045.1831	3167.8993	936.35	55.1
1045.2877	3168.8563	935.35	54.1
1045.3922	3169.8127	935.2	54.1
1045.4966	3170.7684	934.05	52.95
1045.6011	3171.7236	937.2	55.95
1045.7054	3172.6782	936.15	55.35
1045.8098	3173.6321	937.95	56.3
1045.914	3174.5854	938.8	51.6
1046.0183	3175.5381	937.4	57.5
1046.1224	3176.4902	934.4	52.7
1046.2266	3177.4417	934.1	53.4
1046.3307	3178.3926	934.6	56.45
1046.4347	3179.3428	932.35	51.45
1046.5387	3180.2924	928.95	48.15
1046.6427	3181.2415	933.4	51.5
1046.7466	3182.1899	933.75	49.8
1046.8504	3183.1377	932.4	49.95
1046.9542	3184.0848	933.55	50.2
1047.058	3185.0314	931.65	50
1047.1617	3185.9773	930.1	48.8
1047.2654	3186.9227	929.2	47.1
1047.369	3187.8674	930	50
1047.4726	3188.8115	936.2	50.5
1047.5761	3189.755	928.15	49.55
1047.6796	3190.6979	929.9	50.45
1047.783	3191.6402	926.2	46.8
1047.8864	3192.5818	930	47.9
1047.9898	3193.5229	932.75	46.05
1048.0931	3194.4633	927.25	47.25
1048.1963	3195.4031	927.9	46.7
1048.2995	3196.3423	927.1	45.5
1048.4027	3197.2809	925.6	44
1048.5058	3198.2189	927.35	45.35
1048.6089	3199.1563	942	43.2
1048.7119	3200.0931	925.3	47.7
1048.8148	3201.0292	925.6	44.7
1048.9178	3201.9648	924.5	42.9
1049.0206	3202.8997	928.5	45.1
1049.1235	3203.834	924.55	42.8
1049.2262	3204.7677	923.4	43.65
1049.329	3205.7008	925.55	42.15
1049.4317	3206.6333	923.55	45.1
1049.5343	3207.5652	924.95	42.15
1049.6369	3208.4964	923.45	41.5
1049.7394	3209.4271	923.05	44.4
1049.8419	3210.3571	922.75	41.85
1049.9444	3211.2865	923.45	42
1050.0468	3212.2154	924.2	43.5
1050.1491	3213.1436	927.3	42.85
1050.2514	3214.0712	929.55	43.1
1050.3537	3214.9982	920.1	40.7
1050.4559	3215.9246	923.65	42.35
1050.5581	3216.8503	920.15	39.25
1050.6602	3217.7755	921.95	39.05
1050.7623	3218.7001	922.85	43.1
1050.8643	3219.624	922.5	41.95
1050.9663	3220.5473	919.8	38.35
1051.0682	3221.4701	920.55	38.4
1051.1701	3222.3922	921.45	36.1
1051.2719	3223.3137	922.2	40.8
1051.3737	3224.2346	920.95	40.05
1051.4754	3225.1549	919.45	41.5
1051.5771	3226.0746	918.2	38.8
1051.6788	3226.9937	918.65	37.5
1051.7804	3227.9121	918.1	40.8
1051.8819	3228.83	917.6	36.65
1051.9834	3229.7473	918.75	39.1
1052.0849	3230.6639	920.65	41.4
1052.1863	3231.5799	918.4	39.3
1052.2876	3232.4954	919	35.85
1052.3889	3233.4102	916.1	38.65
1052.4902	3234.3244	915.25	34.7
1052.5914	3235.238	917.15	37.75
1052.6926	3236.151	938.75	32.65
1052.7937	3237.0634	916.1	35
1052.8948	3237.9752	916.7	38.1
1052.9958	3238.8864	914.8	32.25
1053.0968	3239.797	915.05	35.35
1053.1977	3240.7069	916	35
1053.2986	3241.6163	916.45	33.2
1053.3994	3242.5251	915.75	36.9
1053.5002	3243.4332	915.95	38.1
1053.6009	3244.3408	915.15	33.1
1053.7016	3245.2477	912.9	32.45
1053.8022	3246.154	913.05	33.3
1053.9028	3247.0598	914	32.3
1054.0034	3247.9649	913.85	31.85
1054.1039	3248.8694	911.1	32.55
1054.2043	3249.7733	912.9	32.8
1054.3047	3250.6766	910.7	31
1054.4051	3251.5793	911.3	30.85
1054.5054	3252.4814	911.35	30.3
1054.6056	3253.3829	913.45	32.9
1054.7058	3254.2838	909.55	29.5
1054.806	3255.1841	908.7	29.05
1054.9061	3256.0838	910.05	31.65
1055.0061	3256.9829	910.65	30.25
1055.1062	3257.8814	913.3	30.2
1055.2061	3258.7792	910.75	30.3
1055.306	3259.6765	909.95	28.95
1055.4059	3260.5731	908.85	30.9
1055.5057	3261.4692	908.95	26.9
1055.6055	3262.3647	908.35	25.5
1055.7052	3263.2595	907.15	26.95
1055.8049	3264.1538	906.05	24.95
1055.9045	3265.0474	908.3	27.75
1056.0041	3265.9404	906.25	26.6
1056.1036	3266.8329	906.05	25
1056.2031	3267.7247	915.65	25.15
1056.3025	3268.616	903.5	24.5
1056.4019	3269.5066	904.8	23.75
1056.5013	3270.3966	905.15	22.45
1056.6005	3271.286	902.55	23.05
