Software Version:	3.9.2.0
Unit SN:	10000200
Spectrometer SN:	6960
Date:	3/8/2024 1:27:18 PM
Data Line Index:	25
Spectral Points:	2048
Integration time (ms):	125
Averages:	20
Delay (ms):	30000
Sequence Number:	1
Processing:	dark subtract
Laser Power (mW):	300
Laser Current (mA):	822
Laser Diode Temp (C):	25
Laser Case Temp (C):	26.3
System Temp (C):	26.2
Spectrometer Temp (C):	24.2
CCD Temp (C):	0.005
Secondary Temp (C):	20.006
Heatsink Temp (C):	21.313
CCDPCB Temp (C):	36.073
SecondaryPCB Temp (C):	31.394

Wavelength	RamanShift	Raw Counts	Dark Subtracted
787.061	30.1047	453	44.9
787.2016	32.3739	453.8	44.8
787.3422	34.6426	453.5	43.55
787.4828	36.9109	464.1	53.8
787.6235	39.1787	470.05	57.55
787.7642	41.4461	479.4	61.5
787.9049	43.7131	487.85	66.45
788.0456	45.9796	495.9	70.35
788.1863	48.2456	507.55	79.6
788.3271	50.5112	517.2	84
788.4679	52.7764	521.75	84.05
788.6087	55.0411	534.7	94.65
788.7496	57.3054	544.95	99
788.8904	59.5692	553.4	108.2
789.0313	61.8326	561.95	113.7
789.1722	64.0955	575.8	122.75
789.3132	66.3579	588.2	130.4
789.4541	68.6199	605.3	141.8
789.5951	70.8815	639.5	173.4
789.7361	73.1426	717.7	245.65
789.8771	75.4032	916.7	443.85
790.0181	77.6634	1391	913.5
790.1592	79.9231	2507.55	2019.3
790.3003	82.1824	4902.5	4399.25
790.4414	84.4412	9270.85	8733.2
790.5825	86.6995	15246.25	14668.7
790.7237	88.9574	21102.3	20491.1
790.8648	91.2148	25128.3	24494.35
791.006	93.4717	26946.35	26298.85
791.1472	95.7282	27260.65	26608.65
791.2885	97.9842	27072.8	26412.7
791.4297	100.2398	26479.2	25815.8
791.571	102.4949	25798.35	25134.2
791.7123	104.7495	25017	24348.4
791.8536	107.0036	24136.4	23470.5
791.9949	109.2573	23349.15	22681.1
792.1363	111.5105	22622.7	21951.4
792.2777	113.7632	21884	21211.15
792.4191	116.0154	21283.75	20602.55
792.5605	118.2672	20825.75	20149.6
792.7019	120.5185	20350.85	19669.45
792.8434	122.7693	19984.6	19300.8
792.9849	125.0197	19689.85	19004.65
793.1264	127.2696	19401.95	18711.3
793.2679	129.519	19245.95	18551.3
793.4094	131.7679	18964.5	18266.85
793.551	134.0163	18797.9	18096.1
793.6926	136.2642	18524.15	17823.45
793.8342	138.5117	18283.1	17578.3
793.9758	140.7587	17997.1	17285.7
794.1175	143.0052	17755.75	17044.5
794.2591	145.2512	17481.55	16769.25
794.4008	147.4967	17230.1	16517.8
794.5425	149.7417	17060.55	16348.9
794.6842	151.9863	16917.65	16199.9
794.826	154.2304	16843.6	16119.1
794.9677	156.4739	16678.1	15949.65
795.1095	158.717	16577.15	15845.2
795.2513	160.9596	16423.8	15690.4
795.3931	163.2017	16197.05	15465.05
795.535	165.4433	15865.7	15129.15
795.6768	167.6844	15550.55	14811.1
795.8187	169.925	15238.65	14493.4
795.9606	172.1651	14871.65	14127.7
796.1025	174.4047	14576.05	13834.4
796.2445	176.6439	14331.5	13584.4
796.3864	178.8825	14080	13329.6
796.5284	181.1206	13920.95	13159.15
796.6704	183.3582	13763.8	13003.45
796.8124	185.5954	13650.55	12886.4
796.9544	187.832	13563	12798.55
797.0965	190.0681	13524.9	12753.65
797.2386	192.3037	13496.55	12723.6
797.3806	194.5388	13487.95	12711.1
797.5228	196.7734	13523.6	12748.45
797.6649	199.0075	13632.75	12852.9
797.807	201.2411	13723.55	12945.55
797.9492	203.4742	13789.1	13009.35
798.0914	205.7068	13935.4	13150.35
798.2336	207.9389	14054.25	13267.45
798.3758	210.1704	14206.35	13425.6
798.518	212.4015	14269.6	13500.8
798.6603	214.632	14445.1	13681.1
798.8025	216.862	14627.15	13859.45
798.9448	219.0915	14790.1	14024
799.0871	221.3205	14973.9	14203.45
799.2294	223.549	15177.9	14410
799.3718	225.777	15407.35	14640
799.5141	228.0044	15683.6	14905.7
799.6565	230.2314	16063.85	15289.05
799.7989	232.4578	16445.65	15671.65
799.9413	234.6837	16741.55	15959.4
800.0837	236.909	16918.15	16137.75
800.2262	239.1339	16937.75	16121.95
800.3687	241.3582	16760	15962.65
800.5111	243.582	16467.1	15640.9
800.6536	245.8053	16161.65	15349.05
800.7961	248.0281	15876.8	15065.35
800.9387	250.2503	15729.15	14915.45
801.0812	252.472	15638.5	14826.7
801.2238	254.6932	15597.45	14787.6
801.3664	256.9139	15552.3	14735.8
801.509	259.134	15614.8	14796
801.6516	261.3536	15684.8	14867.55
801.7942	263.5727	15827.75	15005.55
801.9369	265.7912	15842.65	15024.55
802.0795	268.0092	15935.2	15116.4
802.2222	270.2267	15923.6	15106.6
802.3649	272.4436	15925.5	15101.7
802.5076	274.6601	15894.05	15065.5
802.6504	276.8759	15804.25	14980.45
802.7931	279.0913	15749.35	14926.85
802.9359	281.3061	15647	14820.55
803.0787	283.5204	15679.7	14845.2
803.2215	285.7341	15722.6	14883.7
803.3643	287.9473	15851.9	15008.8
803.5071	290.16	16027.05	15190.2
803.6499	292.3721	16280.5	15450.2
803.7928	294.5837	16667.45	15838.2
803.9357	296.7947	16997.05	16162.5
804.0786	299.0052	17166.45	16332.1
804.2215	301.2152	17037.8	16203.05
804.3644	303.4246	16740.45	15907.2
804.5074	305.6334	16241.7	15412.25
804.6503	307.8418	15758.55	14926.3
804.7933	310.0495	15329.05	14491.45
804.9363	312.2568	14979.05	14139.15
805.0793	314.4635	14731.45	13890
805.2223	316.6696	14573.05	13729.55
805.3653	318.8752	14494.55	13647.3
805.5084	321.0802	14494.3	13650.65
805.6514	323.2847	14618.1	13768.05
805.7945	325.4887	14630.95	13784.55
805.9376	327.692	14588.8	13738.8
806.0807	329.8949	14530.1	13681.05
806.2238	332.0972	14268.7	13421.15
806.367	334.2989	13969.8	13114.3
806.5101	336.5001	13710.2	12854.25
806.6533	338.7007	13485.8	12627.9
806.7965	340.9008	13389.65	12530.65
806.9397	343.1003	13264.2	12407.45
807.0829	345.2992	13191.05	12330.35
807.2261	347.4976	13123	12262.2
807.3693	349.6955	13119	12255.3
807.5126	351.8927	13155.25	12290.5
807.6559	354.0895	13139.7	12265.05
807.7991	356.2856	13155.45	12290.75
807.9424	358.4812	13141.15	12274.25
808.0857	360.6763	13156.6	12284.75
808.2291	362.8707	13118.4	12249.75
808.3724	365.0646	13159.8	12284.75
808.5158	367.258	13155.3	12284.85
808.6591	369.4508	13189.2	12311.8
808.8025	371.643	13349.95	12472.95
808.9459	373.8346	13333.5	12455.7
809.0893	376.0257	13321.95	12441.1
809.2327	378.2162	13268.45	12388.9
809.3762	380.4062	13203.2	12321.75
809.5196	382.5956	13083.35	12205.85
809.6631	384.7844	12977.7	12108.65
809.8066	386.9726	12856.4	11987.95
809.9501	389.1603	12774.2	11904.15
810.0936	391.3474	12778.95	11876.4
810.2371	393.5339	12706.9	11831.15
810.3806	395.7199	12648.1	11774.4
810.5241	397.9052	12688.95	11820.1
810.6677	400.09	12739.35	11869.1
810.8113	402.2743	12788.4	11921.65
810.9548	404.4579	12928.2	12055.6
811.0984	406.641	13110.45	12238.6
811.2421	408.8235	13292.35	12417.15
811.3857	411.0054	13569.75	12693.95
811.5293	413.1868	13922	13042.15
811.673	415.3675	14235	13345.8
811.8166	417.5477	14401.8	13517.45
811.9603	419.7273	14398.4	13513.8
812.104	421.9064	14281.4	13388.45
812.2477	424.0848	14182.75	13298.45
812.3914	426.2627	14012.55	13124.85
812.5351	428.4399	13701.5	12812
812.6788	430.6166	13350.5	12460.3
812.8226	432.7928	12982	12091.05
812.9663	434.9683	12662.35	11774.5
813.1101	437.1432	12450.2	11563.45
813.2539	439.3176	12282.75	11399.95
813.3977	441.4914	12185.65	11307.35
813.5415	443.6645	12144.6	11260.65
813.6853	445.8371	12092.8	11209.35
813.8291	448.0091	12035.35	11151.05
813.973	450.1806	12021.5	11136.8
814.1168	452.3514	11981.85	11097.7
814.2607	454.5216	11989.1	11087.85
814.4046	456.6913	11940.95	11048.1
814.5485	458.8603	11992.95	11105.2
814.6924	461.0288	12031	11148.4
814.8363	463.1967	12030.4	11152.55
814.9802	465.3639	12155.1	11270.3
815.1241	467.5306	12215.6	11327.1
815.2681	469.6967	12306	11417.85
815.412	471.8622	12433.65	11552.6
815.556	474.0271	12548	11662.25
815.7	476.1914	12621.55	11732.95
815.844	478.3551	12617.75	11727.1
815.988	480.5182	12602.05	11718.55
816.132	482.6807	12621.75	11746.45
816.276	484.8426	12758.5	11885.85
816.4201	487.0039	13036.2	12154.3
816.5641	489.1647	13419.45	12531
816.7082	491.3248	13867	12980.75
816.8522	493.4843	13997.9	13112.55
816.9963	495.6432	14010.4	13127.95
817.1404	497.8015	13894.25	12998.05
817.2845	499.9592	13869.9	12967.55
817.4286	502.1163	13747.15	12849.9
817.5727	504.2728	13515.25	12622.1
817.7168	506.4287	13179.65	12298.5
817.861	508.5839	12810.85	11931.25
818.0051	510.7386	12509.75	11619.5
818.1493	512.8927	12353.05	11454.75
818.2935	515.0461	12252.85	11356.8
818.4377	517.199	12272.25	11371.3
818.5818	519.3512	12306.2	11402.4
818.726	521.5029	12413.85	11510.25
818.8703	523.6539	12519.1	11621.35
819.0145	525.8043	12556.2	11657.7
819.1587	527.9541	12590.4	11684.55
819.303	530.1033	12521.35	11622.75
819.4472	532.2519	12507.45	11606.4
819.5915	534.3999	12578.25	11673.9
819.7357	536.5472	12796.5	11896.85
819.88	538.694	13170.5	12274.25
820.0243	540.8401	13668.8	12765.45
820.1686	542.9856	14130.05	13221.4
820.3129	545.1305	14252.95	13333.95
820.4572	547.2748	14153.6	13235.65
820.6016	549.4185	13806.6	12886.6
820.7459	551.5615	13504.9	12584.3
820.8902	553.704	13453.15	12535.5
821.0346	555.8458	13391.45	12479.35
821.1789	557.987	13453.55	12544.7
821.3233	560.1276	13477.15	12565.35
821.4677	562.2675	13592	12679.45
821.6121	564.4069	13765.9	12850.3
821.7565	566.5456	13913.85	13002.65
821.9009	568.6837	13830.3	12922.9
822.0453	570.8212	13581.6	12676.15
822.1897	572.958	13145.75	12232.9
822.3342	575.0942	12768.9	11864.4
822.4786	577.2299	12517.2	11615.75
822.6231	579.3648	12420.25	11530.3
822.7675	581.4992	12463.15	11579.2
822.912	583.6329	12622.2	11740.7
823.0565	585.766	12816.7	11928.85
823.201	587.8985	12996.85	12103.85
823.3454	590.0304	13008.6	12083.5
823.4899	592.1616	12951.05	12037.45
823.6345	594.2922	12832.25	11913.6
823.779	596.4222	12691.65	11773.15
823.9235	598.5515	12504.8	11587.2
824.068	600.6802	12358	11441.3
824.2126	602.8083	12192.8	11281.85
824.3571	604.9358	12141.15	11221.65
824.5017	607.0626	12087	11168.55
824.6462	609.1888	12119.9	11192.15
824.7908	611.3144	12119.95	11194.5
824.9354	613.4393	12039.55	11112.65
825.08	615.5636	12023.65	11100.6
825.2246	617.6873	11939.65	11020.7
825.3692	619.8103	11900.6	10978.5
825.5138	621.9327	11727.3	10806.8
825.6584	624.0544	11683.25	10769.85
825.803	626.1756	11591.5	10673.95
825.9477	628.2961	11514.2	10592.95
826.0923	630.4159	11463.95	10541.6
826.237	632.5351	11456.95	10534
826.3816	634.6537	11413.65	10492.15
826.5263	636.7716	11375.8	10447.75
826.6709	638.8889	11395.3	10461.25
826.8156	641.0056	11414.35	10485.25
826.9603	643.1216	11416.7	10490.65
827.105	645.237	11421.1	10494.05
827.2497	647.3518	11389.6	10469.5
827.3944	649.4659	11369.85	10451.35
827.5391	651.5793	11368.15	10454.85
827.6838	653.6922	11364.65	10447.3
827.8285	655.8043	11326.25	10407.8
827.9733	657.9159	11332.7	10414.1
828.118	660.0268	11232.95	10313.65
828.2627	662.137	11221.85	10291.4
828.4075	664.2466	11236.8	10304.6
828.5522	666.3556	11212.3	10285.5
828.697	668.4639	11153.15	10229.2
828.8418	670.5716	11179.75	10260.9
828.9865	672.6786	11205.55	10282.9
829.1313	674.785	11258.7	10327.45
829.2761	676.8907	11289.2	10365.65
829.4209	678.9958	11341.95	10421.35
829.5657	681.1002	11334.95	10409.6
829.7105	683.204	11316.3	10380.2
829.8553	685.3072	11288.95	10358.8
830.0001	687.4097	11213.35	10285.45
830.1449	689.5115	11209.65	10279.4
830.2898	691.6127	11186.5	10258.3
830.4346	693.7132	11105.05	10178.8
830.5794	695.8131	11081.2	10144.35
830.7243	697.9123	11078.95	10145.45
830.8691	700.0109	11088.65	10154.45
831.014	702.1089	11080.4	10150.1
831.1588	704.2061	11085.8	10156.15
831.3037	706.3028	11097.25	10158.2
831.4486	708.3987	11174.75	10238.5
831.5935	710.4941	11261.35	10331.05
831.7383	712.5887	11398.55	10466.6
831.8832	714.6827	11606.25	10672.15
832.0281	716.7761	11900.1	10972.65
832.173	718.8688	12205.35	11275.2
832.3179	720.9608	12425.65	11485.05
832.4628	723.0522	12460.85	11515.4
832.6077	725.1429	12361.05	11420.2
832.7527	727.233	12182.65	11244.75
832.8976	729.3224	12002.55	11069.5
833.0425	731.4112	11799.85	10868
833.1874	733.4993	11590.25	10653.55
833.3324	735.5867	11420.65	10488.15
833.4773	737.6735	11286.75	10346.95
833.6222	739.7596	11193.85	10255.85
833.7672	741.845	11140.85	10202.65
833.9122	743.9298	11110.55	10175.1
834.0571	746.014	11070.3	10137.6
834.2021	748.0974	11094.5	10150.9
834.347	750.1802	11088.55	10143.65
834.492	752.2624	11109.2	10168.2
834.637	754.3439	11158.25	10218
834.782	756.4247	11252.35	10304.6
834.9269	758.5048	11357	10414.1
835.0719	760.5843	11620.35	10679.8
835.2169	762.6631	11965.7	11023.4
835.3619	764.7413	12454.2	11514.35
835.5069	766.8188	13083.9	12142.55
835.6519	768.8956	13562.6	12620.1
835.7969	770.9718	13864.15	12924.85
835.9419	773.0473	13748.2	12801.55
836.0869	775.1221	13434.55	12495.25
836.232	777.1962	13068.6	12123.15
836.377	779.2697	12915.15	11972.7
836.522	781.3426	12972.9	12017.9
836.667	783.4147	13164.7	12219.9
836.8121	785.4862	13426.1	12481.95
836.9571	787.557	13417.5	12475.3
837.1021	789.6271	13059.1	12115.05
837.2472	791.6966	12471.15	11527.3
837.3922	793.7654	11925	10977.65
837.5373	795.8335	11595.7	10648.95
837.6823	797.901	11351.8	10408.2
837.8274	799.9678	11271.7	10323.9
837.9724	802.0339	11238.65	10291.55
838.1175	804.0993	11280	10321.45
838.2626	806.1641	11261.6	10316.15
838.4076	808.2282	11204.05	10259.9
838.5527	810.2916	11099.25	10154.5
838.6978	812.3544	11007.9	10067.15
838.8428	814.4164	10920.05	9977.05
838.9879	816.4778	10949.1	10001.35
839.133	818.5385	10980.5	10034.3
839.2781	820.5986	11046.3	10096.55
839.4232	822.658	11209.95	10259.65
839.5682	824.7166	11383.75	10431.8
839.7133	826.7747	11676.05	10729.4
839.8584	828.832	11989.8	11040.9
840.0035	830.8886	12181.85	11229.55
840.1486	832.9446	12335.9	11385.1
840.2937	834.9999	12290.15	11341.6
840.4388	837.0545	12236.6	11283.35
840.5839	839.1085	12126.85	11178.6
840.729	841.1618	12030.35	11075.1
840.8741	843.2143	11930.95	10983.15
841.0192	845.2662	11804.05	10854.2
841.1643	847.3175	11741.6	10788.55
841.3095	849.368	11646.6	10696.55
841.4546	851.4179	11542.8	10589.6
841.5997	853.467	11414.6	10467.65
841.7448	855.5155	11320.75	10373.6
841.8899	857.5633	11222.05	10270.95
842.0351	859.6105	11131.05	10181.6
842.1802	861.6569	11057.9	10105.75
842.3253	863.7027	11012.05	10060.35
842.4704	865.7478	10954.25	10003.85
842.6156	867.7922	10941.55	9988.15
842.7607	869.8359	10990	10037
842.9058	871.8789	11070.55	10114.75
843.0509	873.9212	11244.55	10260.1
843.1961	875.9629	11373.5	10419.8
843.3412	878.0039	11536.1	10583.9
843.4863	880.0441	11630.15	10680.4
843.6315	882.0837	11675.85	10726.8
843.7766	884.1226	11595.75	10643.5
843.9218	886.1609	11527.15	10573.75
844.0669	888.1984	11505.2	10554.5
844.212	890.2352	11512.85	10561.8
844.3572	892.2714	11500.7	10544.45
844.5023	894.3069	11484.9	10536.2
844.6475	896.3416	11368.85	10418.9
844.7926	898.3757	11318.15	10363.7
844.9377	900.4091	11296	10344.2
845.0829	902.4418	11296.5	10334.1
845.228	904.4739	11327.7	10370.15
845.3732	906.5052	11332.8	10382.5
845.5183	908.5358	11247.3	10293.15
845.6635	910.5658	11121.3	10166.65
845.8086	912.595	10950.2	9996.9
845.9538	914.6236	10809.35	9855.5
846.0989	916.6515	10705.45	9751.5
846.2441	918.6786	10644.25	9685.95
846.3892	920.7051	10697	9739.3
846.5344	922.7309	10804.8	9847.4
846.6795	924.756	10866	9911.35
846.8246	926.7804	10950.2	9995.05
846.9698	928.8041	10927.7	9969.4
847.1149	930.8272	10965.6	10009.8
847.2601	932.8495	10930.45	9975.25
847.4052	934.8711	10905.35	9949.7
847.5504	936.892	10761.85	9806
847.6955	938.9123	10678.1	9722.1
847.8407	940.9318	10603.35	9648.6
847.9858	942.9506	10530.9	9573.5
848.131	944.9688	10434.2	9479.95
848.2761	946.9862	10363.95	9408.55
848.4213	949.003	10309.85	9353
848.5664	951.019	10268.4	9312.9
848.7115	953.0344	10289.25	9334.55
848.8567	955.0491	10323.65	9366
849.0018	957.063	10385.55	9429.6
849.147	959.0763	10492.65	9539.95
849.2921	961.0888	10516.75	9560.65
849.4373	963.1007	10590.1	9639.2
849.5824	965.1119	10628.95	9684.45
849.7275	967.1223	10646.55	9707.1
849.8727	969.1321	10663.7	9728.75
850.0178	971.1412	10652.8	9706.35
850.1629	973.1495	10673.65	9721.85
850.3081	975.1572	10732.8	9734.2
850.4532	977.1641	10748.7	9794.5
850.5983	979.1704	10738.25	9784
850.7435	981.1759	10738.65	9783.9
850.8886	983.1808	10800.75	9844.9
851.0337	985.1849	10862.5	9897.4
851.1788	987.1884	10965.15	10010.45
851.324	989.1911	11119.5	10162.25
851.4691	991.1932	11234.55	10277.6
851.6142	993.1945	11297	10347.3
851.7593	995.1951	11240.7	10286.25
851.9045	997.1951	11229.3	10268
852.0496	999.1943	11176.05	10222.5
852.1947	1001.1928	11151.8	10193.95
852.3398	1003.1906	11167.45	10214.25
852.4849	1005.1877	11229.9	10273.05
852.63	1007.1841	11204.5	10249.25
852.7751	1009.1798	11184.55	10231.05
852.9202	1011.1748	11058.15	10103.75
853.0653	1013.1691	10864.85	9911.9
853.2104	1015.1627	10650.7	9695.9
853.3555	1017.1556	10446.05	9491.25
853.5006	1019.1477	10349.9	9399.1
853.6457	1021.1392	10268.05	9323.1
853.7908	1023.1299	10258.05	9319.1
853.9359	1025.12	10286.4	9346.5
854.081	1027.1093	10331.8	9408.75
854.2261	1029.0979	10445.4	9523.55
854.3712	1031.0859	10518.25	9590.95
854.5163	1033.0731	10544.6	9605.9
854.6613	1035.0596	10474.5	9531.5
854.8064	1037.0454	10348.35	9398.8
854.9515	1039.0304	10247.3	9297.25
855.0965	1041.0148	10126.2	9176.65
855.2416	1042.9985	10054.1	9103.55
855.3867	1044.9814	10012.8	9062.45
855.5317	1046.9636	9962.35	9014.15
855.6768	1048.9452	9933.7	8985.25
855.8219	1050.926	9963.4	9013.5
855.9669	1052.9061	9960.95	9009.75
856.112	1054.8855	9993.75	9039.8
856.257	1056.8642	10028.2	9074.55
856.4021	1058.8421	10087.65	9130.6
856.5471	1060.8194	10114.95	9159.45
856.6921	1062.7959	10147.5	9195.1
856.8372	1064.7717	10179.2	9225.25
856.9822	1066.7469	10235.1	9278.25
857.1272	1068.7213	10246.5	9295.85
857.2723	1070.695	10270.7	9320.15
857.4173	1072.6679	10231.7	9280.8
857.5623	1074.6402	10181.95	9229.95
857.7073	1076.6117	10189.05	9227.9
857.8523	1078.5826	10134.55	9178.2
857.9973	1080.5527	10093.05	9135.25
858.1423	1082.5221	10139.35	9186.2
858.2873	1084.4908	10290.25	9337.45
858.4323	1086.4587	10422.9	9470.45
858.5773	1088.426	10544.25	9588.45
858.7223	1090.3925	10541.8	9584.45
858.8673	1092.3584	10506.5	9554.8
859.0123	1094.3235	10436.05	9484.7
859.1573	1096.2879	10398.9	9446.7
859.3022	1098.2515	10451.4	9501.1
859.4472	1100.2145	10557.85	9607.85
859.5922	1102.1767	10671.6	9718.4
859.7371	1104.1382	10873.1	9921.1
859.8821	1106.099	11074	10123.1
860.027	1108.0591	11250.05	10299
860.172	1110.0185	11421.15	10468.8
860.3169	1111.9771	11474.2	10520.05
860.4619	1113.9351	11308.25	10356.8
860.6068	1115.8923	11072.05	10120.4
860.7517	1117.8488	10809.8	9855.25
860.8967	1119.8045	10550.05	9601.35
861.0416	1121.7596	10463.3	9514.25
861.1865	1123.7139	10383.2	9433.75
861.3314	1125.6675	10356.2	9404.25
861.4763	1127.6204	10434.35	9483.65
861.6212	1129.5726	10402.7	9450.25
861.7661	1131.524	10364.7	9416.4
861.911	1133.4748	10300.5	9347.25
862.0559	1135.4248	10225.9	9277.25
862.2008	1137.3741	10186.95	9235.85
862.3457	1139.3226	10127.6	9176.15
862.4905	1141.2705	10057.7	9107.8
862.6354	1143.2176	10003.5	9049.3
862.7803	1145.164	9990.8	9039.45
862.9251	1147.1097	9986.05	9036.05
863.07	1149.0546	9937.65	8983.75
863.2148	1150.9989	9863.7	8914.1
863.3597	1152.9424	9742.25	8788.7
863.5045	1154.8852	9598.2	8646.55
863.6493	1156.8272	9545.75	8594.45
863.7942	1158.7686	9507.9	8548.4
863.939	1160.7092	9473	8519.9
864.0838	1162.6491	9502.3	8550.4
864.2286	1164.5883	9575.75	8628.75
864.3734	1166.5267	9635.15	8682
864.5182	1168.4644	9804.7	8852.7
864.663	1170.4014	9970.75	9018.2
864.8078	1172.3377	10242.95	9298.9
864.9526	1174.2732	10464.05	9517.3
865.0974	1176.2081	10769.15	9821.55
865.2421	1178.1421	11086.7	10132.2
865.3869	1180.0755	11375.55	10429.05
865.5317	1182.0082	11587.7	10641.85
865.6764	1183.9401	11652.45	10707
865.8212	1185.8713	11505.55	10566.95
865.9659	1187.8017	11257	10323.05
866.1106	1189.7315	10963.15	10039
866.2554	1191.6605	10648.05	9723.7
866.4001	1193.5888	10437.85	9510.65
866.5448	1195.5163	10338.6	9400.2
866.6895	1197.4432	10261.1	9313.25
866.8342	1199.3693	10220.65	9274.45
866.9789	1201.2947	10188.15	9243.35
867.1236	1203.2193	10177.1	9229.25
867.2683	1205.1432	10186.1	9238.65
867.413	1207.0664	10196.9	9252.5
867.5576	1208.9889	10211.65	9264.85
867.7023	1210.9106	10236.85	9293
867.847	1212.8316	10278.1	9332.65
867.9916	1214.7519	10314.35	9360
868.1363	1216.6715	10333.5	9384.7
868.2809	1218.5903	10373.85	9431.4
868.4255	1220.5084	10372.5	9426.1
868.5701	1222.4257	10412.95	9466.75
868.7148	1224.3424	10416.5	9473
868.8594	1226.2583	10460.4	9515.4
869.004	1228.1735	10565.7	9624.1
869.1486	1230.0879	10676.3	9729.05
869.2932	1232.0016	10781.15	9837.1
869.4377	1233.9146	10849.4	9901.35
869.5823	1235.8269	10791.25	9845.45
869.7269	1237.7384	10696.95	9751.5
869.8715	1239.6492	10524.2	9581.55
870.016	1241.5592	10430.25	9485.1
870.1606	1243.4686	10395	9452.45
870.3051	1245.3772	10403.65	9459.65
870.4496	1247.285	10455.45	9511.95
870.5941	1249.1922	10488.85	9545.1
870.7387	1251.0986	10529.95	9586.1
870.8832	1253.0042	10520.7	9573
871.0277	1254.9092	10566.4	9621.75
871.1722	1256.8134	10656.35	9714.9
871.3167	1258.7169	10824.1	9880.25
871.4611	1260.6196	10973.85	10029.95
871.6056	1262.5216	11192.65	10248
871.7501	1264.4229	11388.4	10447.55
871.8945	1266.3234	11537.55	10595.1
872.039	1268.2232	11617.85	10673.6
872.1834	1270.1223	11661.8	10713.4
872.3278	1272.0207	11655.2	10709.55
872.4723	1273.9183	11652.7	10702
872.6167	1275.8151	11561.1	10615.8
872.7611	1277.7113	11540.05	10595.95
872.9055	1279.6067	11431.15	10492.15
873.0499	1281.5014	11436.95	10491
873.1943	1283.3953	11479.9	10537.6
873.3386	1285.2885	11614.5	10669.75
873.483	1287.181	11788	10848.45
873.6274	1289.0727	12003.25	11061.25
873.7717	1290.9637	12121	11179.05
873.9161	1292.854	12262.35	11320.4
874.0604	1294.7435	12354.35	11408.15
874.2047	1296.6323	12483	11539.55
874.349	1298.5204	12565.6	11619.1
874.4933	1300.4077	12698.35	11754.55
874.6376	1302.2943	12741.45	11795.4
874.7819	1304.1802	12723.05	11780.8
874.9262	1306.0653	12459.65	11515.25
875.0705	1307.9497	12235.3	11293.7
875.2147	1309.8333	11990.3	11051.45
875.359	1311.7162	11870.6	10929.7
875.5032	1313.5984	11795.1	10851.65
875.6475	1315.4798	11812	10866.85
875.7917	1317.3605	11879.2	10921.15
875.9359	1319.2405	11871	10925.3
876.0801	1321.1197	11802.35	10856.6
876.2243	1322.9982	11603.5	10655.1
876.3685	1324.876	11475.1	10530.1
876.5127	1326.753	11347.4	10405.3
876.6569	1328.6293	11259.8	10314.6
876.801	1330.5048	11234.8	10287.15
876.9452	1332.3796	11132.75	10189.35
877.0893	1334.2537	11119.95	10157.5
877.2335	1336.127	11042.35	10100.75
877.3776	1337.9996	11044	10102.7
877.5217	1339.8714	11011.35	10070.45
877.6658	1341.7426	11015.7	10028.2
877.8099	1343.6129	10991.3	10050.8
877.954	1345.4826	10974	10033
878.0981	1347.3515	10959.2	10015.65
878.2422	1349.2196	10948.15	10006.5
878.3862	1351.087	10930.8	9985.85
878.5303	1352.9537	10978.9	10033.85
878.6743	1354.8197	11090.05	10145.25
878.8184	1356.6849	11253.3	10307.55
878.9624	1358.5493	11370.25	10421.75
879.1064	1360.4131	11473.4	10532.95
879.2504	1362.276	11471.35	10529.25
879.3944	1364.1383	11385.1	10442.35
879.5384	1365.9998	11140.05	10190.15
879.6823	1367.8606	10846.55	9903.85
879.8263	1369.7206	10496.9	9553.5
879.9702	1371.5799	10266.9	9321.95
880.1142	1373.4384	10054.15	9113.15
880.2581	1375.2962	9898.15	8954.75
880.402	1377.1533	9639.4	8699.65
880.5459	1379.0096	9283.05	8346.45
880.6898	1380.8652	9012.95	8075.6
880.8337	1382.7201	8759.1	7818.45
880.9776	1384.5742	8536.2	7595.25
881.1215	1386.4275	8335.25	7391.9
881.2653	1388.2802	8223.95	7284.4
881.4092	1390.132	8116.75	7176.85
881.553	1391.9832	8041.7	7097.45
881.6968	1393.8336	7965.8	7025.2
881.8406	1395.6832	7945.1	7003.1
881.9844	1397.5322	7916.85	6978.25
882.1282	1399.3803	7887.05	6941.5
882.272	1401.2278	7832.3	6890.35
882.4158	1403.0745	7837.9	6897.45
882.5595	1404.9204	7832.25	6892.9
882.7033	1406.7656	7870.2	6932.3
882.847	1408.6101	7867.1	6925.85
882.9908	1410.4538	7917.65	6972.9
883.1345	1412.2968	7964.15	7022.95
883.2782	1414.139	8007.1	7065.95
883.4219	1415.9805	8089.45	7147.9
883.5656	1417.8213	8171.6	7227.65
883.7092	1419.6613	8288.2	7350.15
883.8529	1421.5006	8460.55	7524.7
883.9965	1423.3391	8696.85	7755.65
884.1402	1425.1769	8999	8060.6
884.2838	1427.0139	9478.05	8537.35
884.4274	1428.8502	10040.05	9099.95
884.571	1430.6858	10579.3	9642.5
884.7146	1432.5206	10984.95	10045.35
884.8582	1434.3547	11214.05	10274.7
885.0018	1436.188	11245.4	10307.5
885.1453	1438.0206	11178.5	10239.1
885.2889	1439.8524	11011.4	10073.7
885.4324	1441.6835	10888.6	9946.8
885.5759	1443.5139	10791.2	9849.5
885.7194	1445.3435	10737.85	9801.6
885.8629	1447.1724	10700.1	9765.6
886.0064	1449.0005	10631.4	9696.1
886.1499	1450.8279	10550.55	9614.55
886.2933	1452.6545	10519.6	9585.45
886.4368	1454.4804	10541.4	9608.65
886.5802	1456.3056	10528	9585.05
886.7237	1458.13	10454.5	9519.75
886.8671	1459.9536	10214.35	9278.4
887.0105	1461.7766	9914.7	8979.5
887.1539	1463.5987	9536.6	8597.6
887.2972	1465.4202	9176	8240.6
887.4406	1467.2409	8839.7	7903.6
887.584	1469.0608	8555.55	7616.95
887.7273	1470.88	8285.25	7348.55
887.8706	1472.6984	8068.4	7131.75
888.0139	1474.5161	7865	6927.2
888.1572	1476.3331	7698.1	6759.9
888.3005	1478.1493	7582.3	6647.25
888.4438	1479.9648	7489.3	6555.95
888.5871	1481.7795	7424.5	6485.65
888.7303	1483.5935	7350.55	6413.3
888.8736	1485.4067	7284.45	6347.85
889.0168	1487.2192	7246.85	6309.55
889.16	1489.031	7204.95	6266.75
889.3032	1490.842	7157.15	6222.05
889.4464	1492.6522	7121.25	6184.55
889.5896	1494.4618	7094.2	6156.9
889.7327	1496.2705	7068.1	6130.8
889.8759	1498.0785	7026.35	6091.9
890.019	1499.8858	7005.8	6071
890.1622	1501.6924	6961.5	6030
890.3053	1503.4981	6924.1	5989.05
890.4484	1505.3032	6893.7	5959.05
890.5914	1507.1075	6872.75	5936.05
890.7345	1508.911	6857.35	5921.85
890.8776	1510.7138	6798.75	5864.85
891.0206	1512.5159	6760.35	5829.15
891.1637	1514.3172	6717.9	5786.5
891.3067	1516.1178	6674.25	5743.3
891.4497	1517.9176	6629.7	5692.55
891.5927	1519.7166	6601.3	5669.5
891.7357	1521.515	6591.75	5651.4
891.8786	1523.3126	6571.5	5640.6
892.0216	1525.1094	6537.95	5603.15
892.1645	1526.9055	6506.35	5577.7
892.3074	1528.7008	6497.65	5567.6
892.4503	1530.4954	6464.8	5533.35
892.5932	1532.2893	6447.9	5521.25
892.7361	1534.0824	6418.1	5484.55
892.879	1535.8747	6418.05	5493.95
893.0218	1537.6663	6395.8	5468.1
893.1647	1539.4572	6389	5460.35
893.3075	1541.2473	6377.3	5450.3
893.4503	1543.0367	6386.3	5457.85
893.5931	1544.8253	6397.9	5464
893.7359	1546.6132	6411.55	5477.85
893.8787	1548.4003	6412.3	5475.35
894.0214	1550.1867	6436.1	5501.05
894.1642	1551.9723	6469.4	5539.15
894.3069	1553.7572	6536.8	5608.15
894.4496	1555.5414	6607.2	5681.05
894.5923	1557.3247	6666	5743.3
894.735	1559.1074	6758.7	5839
894.8777	1560.8893	6872.55	5951.15
895.0204	1562.6705	6973.6	6051.1
895.163	1564.4509	7036.6	6116.05
895.3056	1566.2305	7119.95	6200.95
895.4482	1568.0094	7166.35	6249.25
895.5908	1569.7876	7189.2	6270.5
895.7334	1571.565	7187.65	6266.5
895.876	1573.3417	7204.35	6284.65
896.0186	1575.1176	7189.9	6272.45
896.1611	1576.8928	7142.2	6224.65
896.3036	1578.6672	7079.6	6170.6
896.4461	1580.4409	7013.2	6102.15
896.5886	1582.2138	6940.7	6024.85
896.7311	1583.986	6902.6	5986.5
896.8736	1585.7575	6868.25	5950.6
897.0161	1587.5282	6842.6	5928.65
897.1585	1589.2981	6828.3	5915.1
897.3009	1591.0673	6858.2	5948
897.4433	1592.8358	6880.6	5969.2
897.5857	1594.6035	6937.5	6019.7
897.7281	1596.3704	6968.55	6050
897.8705	1598.1366	7025.45	6112.45
898.0128	1599.9021	7084.6	6172.2
898.1551	1601.6668	7151.5	6234.3
898.2975	1603.4308	7261.7	6343.05
898.4398	1605.194	7401.2	6481.05
898.5821	1606.9564	7533.3	6625.75
898.7243	1608.7182	7718.05	6812.4
898.8666	1610.4791	7876.9	6977.9
899.0088	1612.2394	8087.4	7188.85
899.1511	1613.9988	8301.8	7399.75
899.2933	1615.7576	8538.9	7631.2
899.4355	1617.5156	8730.2	7809.65
899.5776	1619.2728	8924.4	8007.85
899.7198	1621.0293	9001.25	8087.1
899.862	1622.785	8927.05	8013.45
900.0041	1624.54	8792.6	7883.1
900.1462	1626.2942	8619.85	7710.85
900.2883	1628.0477	8309.9	7398.15
900.4304	1629.8005	8072.15	7160.75
900.5725	1631.5525	7842.2	6934.15
900.7145	1633.3037	7654.45	6747.1
900.8566	1635.0542	7509.45	6601.85
900.9986	1636.804	7390.8	6484.6
901.1406	1638.553	7388.55	6419.4
901.2826	1640.3013	7309.75	6400.6
901.4245	1642.0488	7278.8	6370.45
901.5665	1643.7955	7318.65	6412.35
901.7085	1645.5416	7367.6	6465.3
901.8504	1647.2868	7484.25	6579.1
901.9923	1649.0313	7577.6	6669.85
902.1342	1650.7751	7725.45	6816.95
902.2761	1652.5181	7884.35	6977.65
902.4179	1654.2604	8061.2	7154.85
902.5598	1656.0019	8333.95	7429.8
902.7016	1657.7427	8620.2	7712.65
902.8434	1659.4828	8895.05	7986.2
902.9852	1661.222	9083	8174.75
903.127	1662.9606	9052.65	8144.4
903.2687	1664.6984	8838.55	7927.45
903.4105	1666.4354	8425.35	7513.55
903.5522	1668.1717	7892.5	6982.45
903.6939	1669.9072	7359.2	6447.65
903.8356	1671.642	6938.05	6021.4
903.9773	1673.3761	6591.4	5683.65
904.119	1675.1094	6279.95	5372.3
904.2606	1676.8419	6073.25	5164.15
904.4022	1678.5737	5887.1	4977.75
904.5439	1680.3048	5746.35	4835.65
904.6855	1682.0351	5622.3	4711.95
904.827	1683.7646	5537.65	4628.3
904.9686	1685.4934	5457	4549.9
905.1101	1687.2215	5387.4	4480
905.2517	1688.9488	5344.3	4436.4
905.3932	1690.6754	5289.1	4383.35
905.5347	1692.4012	5250.25	4345
905.6761	1694.1263	5235.15	4327.65
905.8176	1695.8506	5197.2	4287.15
905.9591	1697.5742	5148.25	4241.45
906.1005	1699.297	5101.4	4196.7
906.2419	1701.0191	5066.85	4169.1
906.3833	1702.7404	5037.2	4135.2
906.5246	1704.461	5013	4110.1
906.666	1706.1808	4973.6	4067
906.8073	1707.8999	4956.35	4052.85
906.9487	1709.6182	4935.05	4036.75
907.09	1711.3358	4914.9	4018.25
907.2313	1713.0527	4893.7	3997.6
907.3725	1714.7688	4869.25	3963.4
907.5138	1716.4841	4848.9	3945.2
907.655	1718.1987	4836.7	3927.95
907.7962	1719.9126	4816.6	3917.5
907.9374	1721.6257	4797.45	3897.7
908.0786	1723.338	4778.25	3882.95
908.2198	1725.0496	4738.65	3838.1
908.3609	1726.7605	4752.45	3849.2
908.502	1728.4706	4722.9	3823
908.6431	1730.18	4698.8	3799.35
908.7842	1731.8886	4674.05	3777.25
908.9253	1733.5964	4697.3	3775.35
909.0664	1735.3036	4653.45	3751.5
909.2074	1737.0099	4648.85	3747.5
909.3484	1738.7156	4624.1	3727.1
909.4894	1740.4204	4600.45	3700.4
909.6304	1742.1246	4593.35	3693
909.7714	1743.8279	4576.15	3677.4
909.9123	1745.5306	4570.85	3674
910.0532	1747.2325	4553.7	3657.65
910.1941	1748.9336	4527.5	3628.5
910.335	1750.634	4509.4	3607.5
910.4759	1752.3336	4489.8	3593.3
910.6168	1754.0325	4474.2	3577.4
910.7576	1755.7307	4463.7	3566.8
910.8984	1757.4281	4465.4	3566.9
911.0392	1759.1247	4458.8	3550.05
911.18	1760.8206	4441.95	3536.2
911.3208	1762.5158	4429.35	3524.3
911.4615	1764.2102	4409.15	3510.75
911.6022	1765.9039	4397.5	3499.45
911.7429	1767.5968	4387.85	3493.3
911.8836	1769.289	4371.8	3475.1
912.0243	1770.9804	4373	3473.9
912.1649	1772.6711	4357.9	3453.85
912.3056	1774.361	4350.5	3448.25
912.4462	1776.0502	4345.85	3443.5
912.5868	1777.7386	4345.25	3443.15
912.7274	1779.4263	4325.35	3426.1
912.8679	1781.1132	4320.7	3424.85
913.0084	1782.7994	4310.8	3416.45
913.149	1784.4849	4284	3389.3
913.2895	1786.1696	4297.2	3382.15
913.4299	1787.8535	4269.5	3377.25
913.5704	1789.5367	4243.35	3351.05
913.7108	1791.2192	4263.1	3371.6
913.8513	1792.9009	4257.95	3337.55
913.9917	1794.5818	4244.6	3342.75
914.132	1796.2621	4226.55	3328.25
914.2724	1797.9415	4212.2	3311.6
914.4128	1799.6202	4201.4	3300.3
914.5531	1801.2982	4197.9	3298.1
914.6934	1802.9755	4192.85	3291.95
914.8337	1804.6519	4184.25	3285
914.9739	1806.3277	4159.45	3261.5
915.1142	1808.0027	4150.25	3257.85
915.2544	1809.6769	4148.7	3255.55
915.3946	1811.3504	4138.95	3246.4
915.5348	1813.0231	4135.5	3242.8
915.675	1814.6951	4138.2	3243.45
915.8151	1816.3664	4122.7	3224.15
915.9553	1818.0369	4117.5	3220.05
916.0954	1819.7067	4112.05	3215.85
916.2355	1821.3757	4103.65	3203.1
916.3755	1823.044	4097	3199.2
916.5156	1824.7115	4093.65	3195.4
916.6556	1826.3783	4067.4	3169.8
916.7956	1828.0443	4071.55	3174.75
916.9356	1829.7096	4058.5	3161.75
917.0756	1831.3741	4058.9	3158.1
917.2155	1833.0379	4050.75	3156.95
917.3555	1834.701	4018.3	3125.3
917.4954	1836.3633	4030	3138.05
917.6353	1838.0248	4016.55	3121.15
917.7751	1839.6856	4005.25	3110.55
917.915	1841.3457	4015.85	3117.95
918.0548	1843.005	3995.7	3097.9
918.1946	1844.6636	3984.9	3086.25
918.3344	1846.3214	3993.15	3097.65
918.4742	1847.9785	3980.2	3085.3
918.6139	1849.6349	3975.6	3078.2
918.7537	1851.2904	3971.6	3062.75
918.8934	1852.9453	3967.75	3067.35
919.0331	1854.5994	3947.75	3045.5
919.1727	1856.2528	3942.85	3039.85
919.3124	1857.9054	3940.35	3043.25
919.452	1859.5572	3929.35	3034.6
919.5916	1861.2083	3923.05	3027.1
919.7312	1862.8587	3925.35	3029.75
919.8708	1864.5084	3931.75	3033.9
920.0103	1866.1572	3907.7	3007.25
920.1498	1867.8054	3899.15	3001.2
920.2893	1869.4528	3887.7	2987.85
920.4288	1871.0994	3872.6	2976.65
920.5683	1872.7453	3865.8	2968.15
920.7077	1874.3905	3860.85	2948
920.8471	1876.0349	3840.4	2942.15
920.9865	1877.6786	3859.5	2959.4
921.1259	1879.3215	3848.35	2952.8
921.2653	1880.9637	3829.7	2934
921.4046	1882.6051	3827.3	2932.05
921.5439	1884.2458	3833.2	2935.05
921.6832	1885.8858	3809.25	2911.35
921.8225	1887.525	3793.1	2895.45
921.9617	1889.1634	3798.8	2903.95
922.101	1890.8011	3780.05	2882.85
922.2402	1892.4381	3759.9	2862.95
922.3794	1894.0743	3766.15	2869.05
922.5185	1895.7098	3747.75	2850.9
922.6577	1897.3446	3748.15	2849.2
922.7968	1898.9786	3750	2848.8
922.9359	1900.6118	3735.05	2841.45
923.075	1902.2443	3725.7	2831.35
923.214	1903.8761	3716.1	2824.25
923.3531	1905.5071	3705.7	2807.65
923.4921	1907.1374	3688.05	2792.25
923.6311	1908.7669	3698.05	2802.4
923.77	1910.3957	3690.6	2793.4
923.909	1912.0237	3678.1	2782.7
924.0479	1913.651	3649.65	2752.75
924.1868	1915.2776	3635.85	2740.45
924.3257	1916.9034	3643.9	2751.6
924.4646	1918.5285	3632.25	2738.5
924.6034	1920.1528	3614.6	2720.2
924.7422	1921.7764	3618.65	2725.7
924.881	1923.3992	3611.55	2717
925.0198	1925.0213	3586.4	2691
925.1586	1926.6427	3576.85	2681.5
925.2973	1928.2633	3743.3	2634.45
925.436	1929.8832	3584.1	2686.35
925.5747	1931.5023	3554.35	2661.25
925.7134	1933.1207	3549.8	2653.45
925.852	1934.7383	3545.25	2649.75
925.9906	1936.3552	3527.35	2634.7
926.1292	1937.9714	3519.3	2623.7
926.2678	1939.5868	3500.35	2603.35
926.4064	1941.2015	3489	2592.85
926.5449	1942.8154	3488.5	2592.65
926.6834	1944.4286	3481.45	2585
926.8219	1946.041	3472.5	2559.05
926.9604	1947.6528	3453.85	2553.3
927.0988	1949.2637	3453.3	2557.15
927.2372	1950.8739	3443.8	2548.1
927.3756	1952.4834	3422.65	2527.45
927.514	1954.0921	3424.4	2529.35
927.6523	1955.7001	3415.95	2520.2
927.7907	1957.3074	3395.75	2506.2
927.929	1958.9139	3384.55	2495.55
928.0673	1960.5197	3386.15	2493.45
928.2055	1962.1247	3382.05	2491.85
928.3438	1963.729	3361.95	2470.15
928.482	1965.3325	3352.25	2455.6
928.6202	1966.9353	3335.05	2445.95
928.7584	1968.5374	3332.45	2442.3
928.8965	1970.1387	3324.95	2434.25
929.0346	1971.7393	3320.05	2429.8
929.1727	1973.3392	3315.35	2421.85
929.3108	1974.9383	3306.15	2416.85
929.4489	1976.5366	3291.5	2402.4
929.5869	1978.1342	3290.25	2401.3
929.7249	1979.7311	3284.65	2395.2
929.8629	1981.3273	3269.75	2380.35
930.0009	1982.9227	3261	2372.15
930.1388	1984.5173	3243	2354.9
930.2767	1986.1112	3248.1	2362.25
930.4146	1987.7044	3228.4	2342.3
930.5525	1989.2968	3229.85	2340.3
930.6904	1990.8885	3217.15	2328.4
930.8282	1992.4795	3228.2	2339.6
930.966	1994.0697	3198.8	2315
931.1038	1995.6592	3199	2313
931.2415	1997.2479	3192	2301.2
931.3793	1998.8359	3189.4	2301.1
931.517	2000.4232	3174.75	2292.1
931.6547	2002.0097	3170.95	2289.45
931.7923	2003.5955	3156.55	2271.55
931.93	2005.1805	3156.95	2272.25
932.0676	2006.7648	3154.35	2270.1
932.2052	2008.3484	3130.35	2246.55
932.3427	2009.9312	3144.85	2260.75
932.4803	2011.5133	3131.5	2249.4
932.6178	2013.0946	3132.4	2249.65
932.7553	2014.6752	3129.9	2249.9
932.8928	2016.2551	3114.7	2228.75
933.0302	2017.8342	3095.8	2210.3
933.1676	2019.4126	3099.7	2217.8
933.305	2020.9902	3076.75	2196.95
933.4424	2022.5672	3069.9	2186.4
933.5798	2024.1433	3077.15	2189.6
933.7171	2025.7188	3068.4	2188.55
933.8544	2027.2935	3050.5	2167.55
933.9917	2028.8674	3051.35	2170.5
934.129	2030.4406	3039.3	2158.75
934.2662	2032.0131	3032.7	2152.85
934.4034	2033.5849	3027.6	2146.45
934.5406	2035.1559	3028.3	2148.75
934.6778	2036.7261	3029.35	2144.1
934.8149	2038.2957	3024.2	2137.05
934.952	2039.8645	3019.35	2132.2
935.0891	2041.4325	3017.2	2129.4
935.2262	2042.9998	2999.2	2116.55
935.3632	2044.5664	2982	2097.15
935.5002	2046.1323	2974.6	2092.95
935.6372	2047.6974	2980.55	2099
935.7742	2049.2617	2977.7	2096.5
935.9111	2050.8254	2999.35	2084.65
936.048	2052.3883	2979.05	2095.15
936.1849	2053.9504	2961.95	2076.45
936.3218	2055.5118	2960.15	2071.25
936.4586	2057.0725	2957.6	2069.55
936.5955	2058.6325	2943.9	2061.7
936.7323	2060.1917	2933.25	2049.4
936.869	2061.7502	2947.45	2064.6
937.0058	2063.3079	2926.65	2045.95
937.1425	2064.8649	2922.95	2037.1
937.2792	2066.4212	2906.1	2023.1
937.4159	2067.9767	2911.1	2027.4
937.5525	2069.5315	2904.4	2022.95
937.6891	2071.0856	2885.3	1999.5
937.8257	2072.6389	2886.4	2003.85
937.9623	2074.1915	2874.75	1995.05
938.0989	2075.7433	2867.25	1982.1
938.2354	2077.2945	2872.65	1990.5
938.3719	2078.8448	2851.1	1963.95
938.5084	2080.3945	2846.3	1960.2
938.6448	2081.9434	2864.05	1977.75
938.7812	2083.4916	2850.8	1962.65
938.9176	2085.039	2852.35	1961.2
939.054	2086.5857	2841.25	1946.65
939.1903	2088.1317	2829.9	1935.1
939.3267	2089.677	2822.6	1928.9
939.463	2091.2215	2814.45	1920.6
939.5992	2092.7652	2825.75	1931.5
939.7355	2094.3083	2810.85	1917.9
939.8717	2095.8506	2787.65	1899.1
940.0079	2097.3921	2797.3	1908.9
940.1441	2098.933	2781.35	1892.8
940.2802	2100.4731	2781.7	1893.65
940.4163	2102.0124	2800.35	1902.6
940.5524	2103.5511	2774.3	1885.6
940.6885	2105.089	2790.9	1901.15
940.8245	2106.6261	2761.3	1872.85
940.9606	2108.1626	2756.8	1869.3
941.0965	2109.6983	2768.75	1855.4
941.2325	2111.2332	2753.3	1861.1
941.3684	2112.7675	2748.9	1856.55
941.5044	2114.301	2745.2	1853.45
941.6403	2115.8337	2728.4	1837.7
941.7761	2117.3657	2736.55	1849.15
941.912	2118.897	2735.8	1845.75
942.0478	2120.4276	2735.7	1840.75
942.1835	2121.9575	2711.75	1821.25
942.3193	2123.4866	2723.9	1831.1
942.455	2125.0149	2699.55	1808.7
942.5907	2126.5426	2684.6	1797.2
942.7264	2128.0695	2697.8	1812.75
942.8621	2129.5956	2681.15	1801.2
942.9977	2131.1211	2680	1789.2
943.1333	2132.6458	2681.55	1794.9
943.2689	2134.1698	2679.2	1788.6
943.4044	2135.693	2681.75	1787.1
943.54	2137.2155	2673.65	1779.75
943.6755	2138.7373	2658.35	1770.1
943.8109	2140.2584	2658.5	1773.45
943.9464	2141.7787	2642.75	1753.85
944.0818	2143.2983	2647.15	1767.1
944.2172	2144.8171	2632.25	1750.15
944.3526	2146.3353	2637.75	1753.9
944.4879	2147.8527	2615.4	1730.3
944.6232	2149.3693	2627.9	1738.3
944.7585	2150.8853	2618.7	1728.2
944.8938	2152.4005	2604.95	1714.85
945.029	2153.9149	2613.85	1722.2
945.1642	2155.4287	2606.45	1713.15
945.2994	2156.9417	2612.15	1719.25
945.4346	2158.454	2585.65	1695.55
945.5697	2159.9655	2592.8	1710.2
945.7048	2161.4764	2595.7	1708.4
945.8399	2162.9865	2577.25	1689.55
945.9749	2164.4958	2563.65	1677.4
946.1099	2166.0045	2574.75	1687.4
946.2449	2167.5124	2565.05	1677.15
946.3799	2169.0195	2558.25	1668.05
946.5148	2170.526	2565.25	1676.75
946.6498	2172.0317	2562.7	1674.95
946.7846	2173.5367	2563.25	1673.45
946.9195	2175.0409	2550.15	1661
947.0543	2176.5445	2550.8	1662.35
947.1891	2178.0473	2544.65	1654.9
947.3239	2179.5494	2541.8	1647.3
947.4587	2181.0507	2538.45	1650.1
947.5934	2182.5513	2530.5	1642.85
947.7281	2184.0512	2515.65	1625.25
947.8628	2185.5504	2517.8	1629.7
947.9974	2187.0488	2505.75	1617.35
948.132	2188.5465	2495.8	1612.05
948.2666	2190.0435	2487.15	1600.05
948.4012	2191.5397	2491.7	1600.95
948.5357	2193.0353	2474.9	1584.75
948.6702	2194.5301	2477.65	1584.1
948.8047	2196.0241	2480.85	1585.2
948.9392	2197.5175	2484.75	1589.25
949.0736	2199.0101	2464.35	1566.9
949.208	2200.502	2458.05	1570.05
949.3424	2201.9931	2457	1570.8
949.4767	2203.4835	2444.55	1557.95
949.611	2204.9733	2442.9	1551.15
949.7453	2206.4622	2434.8	1550.35
949.8796	2207.9505	2434.2	1547.8
950.0138	2209.438	2421.4	1538.9
950.148	2210.9248	2417.3	1529.4
950.2822	2212.4109	2417.95	1531.95
950.4164	2213.8962	2407.35	1511.8
950.5505	2215.3809	2404.5	1509.6
950.6846	2216.8648	2412.1	1518.2
950.8186	2218.3479	2413.8	1513.05
950.9527	2219.8304	2398.75	1501.15
951.0867	2221.3121	2392.9	1496.75
951.2207	2222.7931	2383.8	1490.55
951.3546	2224.2733	2375.4	1483.65
951.4886	2225.7529	2378.75	1488.75
951.6225	2227.2317	2373.8	1483.35
951.7563	2228.7098	2367.75	1481.75
951.8902	2230.1872	2357.35	1471.7
952.024	2231.6638	2349.95	1465.85
952.1578	2233.1397	2345.85	1455.4
952.2916	2234.6149	2343.3	1460.1
952.4253	2236.0894	2340.85	1454.9
952.559	2237.5632	2344.15	1445.9
952.6927	2239.0362	2334.35	1446.25
952.8263	2240.5085	2323.2	1435.7
952.9599	2241.9801	2312.5	1422.2
953.0935	2243.4509	2311.45	1420.65
953.2271	2244.921	2318.35	1424.7
953.3606	2246.3904	2307.95	1413.4
953.4941	2247.8591	2310.8	1419.4
953.6276	2249.3271	2300.35	1407.85
953.7611	2250.7943	2293.05	1401.4
953.8945	2252.2608	2281.4	1389.6
954.0279	2253.7266	2280.7	1391.8
954.1612	2255.1917	2281.9	1391.8
954.2946	2256.656	2268.8	1382.8
954.4279	2258.1197	2270.45	1385.65
954.5612	2259.5826	2264.45	1375
954.6944	2261.0447	2270.8	1380.05
954.8276	2262.5062	2255.4	1361.1
954.9608	2263.9669	2248.75	1356.05
955.094	2265.4269	2247.85	1358
955.2271	2266.8862	2247.2	1358.2
955.3602	2268.3448	2242.25	1354.75
955.4933	2269.8026	2239.35	1351.25
955.6264	2271.2598	2228.95	1341.9
955.7594	2272.7162	2220.95	1332.95
955.8924	2274.1719	2236.6	1345.6
956.0253	2275.6268	2232.05	1339.7
956.1583	2277.0811	2224.7	1330.15
956.2912	2278.5346	2219.35	1333
956.4241	2279.9874	2226.55	1339.95
956.5569	2281.4395	2210.8	1323.75
956.6897	2282.8908	2209.95	1315.75
956.8225	2284.3414	2196.05	1309
956.9553	2285.7914	2194.3	1306.25
957.088	2287.2406	2212	1318.6
957.2207	2288.689	2197.35	1302.95
957.3534	2290.1368	2203.75	1307.1
957.486	2291.5838	2199.55	1302.7
957.6186	2293.0302	2192.6	1296.05
957.7512	2294.4758	2174.55	1283.1
957.8838	2295.9206	2170.1	1276.2
958.0163	2297.3648	2167.65	1277.3
958.1488	2298.8082	2171.1	1280.95
958.2813	2300.251	2160.2	1265.4
958.4137	2301.693	2167	1272.55
958.5461	2303.1343	2169.8	1274.25
958.6785	2304.5748	2159.1	1269.7
958.8108	2306.0147	2154.3	1264.9
958.9432	2307.4538	2144.15	1255.8
959.0754	2308.8922	2146.1	1262.65
959.2077	2310.3299	2130.85	1243.55
959.3399	2311.7669	2146.3	1257.1
959.4721	2313.2031	2134.3	1246.1
959.6043	2314.6387	2131.8	1242.45
959.7365	2316.0735	2124.05	1235.7
959.8686	2317.5076	2116.1	1224.25
960.0006	2318.941	2118.85	1229.65
960.1327	2320.3737	2116.5	1223.85
960.2647	2321.8056	2114.1	1218.65
960.3967	2323.2369	2114.6	1224
960.5287	2324.6674	2113.4	1220.9
960.6606	2326.0972	2112.3	1220.2
960.7925	2327.5263	2110.45	1219.15
960.9244	2328.9547	2094.65	1202.7
961.0562	2330.3823	2100.4	1206.3
961.1881	2331.8092	2103.2	1205.95
961.3198	2333.2355	2086.15	1190.3
961.4516	2334.661	2074.55	1182.2
961.5833	2336.0858	2081.75	1188.6
961.715	2337.5098	2080.35	1190.4
961.8467	2338.9332	2069.4	1180.3
961.9783	2340.3558	2069.1	1175.5
962.1099	2341.7778	2063.75	1174.6
962.2415	2343.199	2052	1160.65
962.373	2344.6195	2059.9	1170.7
962.5045	2346.0393	2057.5	1168.75
962.636	2347.4583	2063.25	1171.2
962.7675	2348.8767	2053.65	1158.85
962.8989	2350.2943	2053	1161.35
963.0303	2351.7113	2047.65	1154.45
963.1617	2353.1275	2049.4	1155.35
963.293	2354.543	2047.85	1145
963.4243	2355.9578	2041.1	1149
963.5556	2357.3718	2026.05	1137.55
963.6868	2358.7852	2025.65	1135.85
963.818	2360.1978	2019.95	1132.3
963.9492	2361.6098	2019.3	1131.1
964.0803	2363.021	2030.8	1137.45
964.2114	2364.4315	2017.15	1125.75
964.3425	2365.8413	2014.5	1127.25
964.4736	2367.2504	2008.1	1121.35
964.6046	2368.6587	1994.55	1107.1
964.7356	2370.0664	1990.05	1103.25
964.8666	2371.4733	1995.7	1106.95
964.9975	2372.8795	2001.35	1113.9
965.1284	2374.285	1983.7	1096.15
965.2593	2375.6899	1983.45	1095.55
965.3901	2377.0939	1979.45	1091.7
965.5209	2378.4973	1971.3	1083.65
965.6517	2379.9	1976.7	1088.2
965.7825	2381.3019	1971.15	1082.6
965.9132	2382.7032	1961.4	1077.2
966.0439	2384.1037	1963	1079.95
966.1745	2385.5035	1951.25	1067
966.3051	2386.9027	1949.65	1064.55
966.4357	2388.3011	1944.8	1058.45
966.5663	2389.6987	1950.7	1064.35
966.6968	2391.0957	1943.95	1057.3
966.8273	2392.492	1943.55	1058.8
966.9578	2393.8876	1930.8	1045.55
967.0882	2395.2824	1937.5	1054.4
967.2186	2396.6765	1919.65	1033.95
967.349	2398.07	1920.25	1032.5
967.4793	2399.4627	1918.1	1031.15
967.6097	2400.8547	1915.05	1028.1
967.7399	2402.246	1923.65	1029
967.8702	2403.6366	1909.5	1022.4
968.0004	2405.0265	1901.75	1015.05
968.1306	2406.4156	1901.9	1012.25
968.2607	2407.8041	1899.25	1009.6
968.3909	2409.1918	1893.95	1006.3
968.521	2410.5789	1893.15	1005.65
968.651	2411.9652	1885.25	993.95
968.781	2413.3508	1890.85	1003.5
968.911	2414.7358	1883.45	994.75
969.041	2416.12	1876.95	989.85
969.1709	2417.5035	1882.2	995.85
969.3008	2418.8863	1871.3	982.25
969.4307	2420.2684	1876.85	990
969.5606	2421.6497	1865.2	975.85
969.6904	2423.0304	1863.8	977.15
969.8201	2424.4104	1858.6	973.2
969.9499	2425.7896	1862.05	973.6
970.0796	2427.1682	1849	963.6
970.2093	2428.546	1859.85	972.2
970.3389	2429.9232	1859.95	969.55
970.4685	2431.2996	1852.45	962.8
970.5981	2432.6753	1843	955.05
970.7277	2434.0503	1845.65	958.7
970.8572	2435.4246	1833	943.75
970.9867	2436.7982	1831.95	941.95
971.1161	2438.1711	1833.4	944
971.2456	2439.5433	1834.95	946.25
971.375	2440.9148	1828.6	936.6
971.5043	2442.2856	1819.05	933.05
971.6336	2443.6557	1812.1	922.85
971.7629	2445.025	1823.3	937.1
971.8922	2446.3937	1820.45	933.15
972.0214	2447.7617	1810.05	921.7
972.1506	2449.1289	1813.5	925.45
972.2798	2450.4955	1811.95	921.6
972.4089	2451.8613	1804	917.2
972.538	2453.2265	1805.2	918.9
972.6671	2454.5909	1799.8	911.05
972.7961	2455.9546	1791.45	903.8
972.9251	2457.3177	1793.9	906.5
973.0541	2458.68	1793.95	903.95
973.1831	2460.0416	1786.95	897.9
973.312	2461.4025	1786.8	896.75
973.4408	2462.7627	1800.1	900.9
973.5697	2464.1222	1786.6	901.65
973.6985	2465.4811	1788	900.95
973.8273	2466.8392	1786.5	898.05
973.956	2468.1966	1775.25	886
974.0847	2469.5533	1776.5	887.65
974.2134	2470.9093	1778.85	891
974.3421	2472.2645	1784.75	894.65
974.4707	2473.6191	1776.85	889.85
974.5993	2474.973	1773.25	887.1
974.7278	2476.3262	1783.3	895.8
974.8563	2477.6787	1770.7	885.85
974.9848	2479.0305	1758.3	873.05
975.1132	2480.3816	1765.75	874.9
975.2417	2481.7319	1746.55	858.75
975.37	2483.0816	1753.6	863.6
975.4984	2484.4306	1746.05	858.3
975.6267	2485.7789	1747.75	862.25
975.755	2487.1264	1739.55	849.85
975.8833	2488.4733	1743.45	859.6
976.0115	2489.8195	1752.7	847.7
976.1397	2491.165	1738.7	847.15
976.2678	2492.5097	1732.7	844.55
976.3959	2493.8538	1723.55	839.85
976.524	2495.1972	1730.85	845.5
976.6521	2496.5398	1717.5	828.45
976.7801	2497.8818	1730.65	839.5
976.9081	2499.2231	1715.35	826.75
977.036	2500.5637	1710.7	821.35
977.164	2501.9035	1709.9	822.2
977.2918	2503.2427	1720.45	828.1
977.4197	2504.5812	1704.5	815.5
977.5475	2505.919	1705.75	814.55
977.6753	2507.256	1707	818.3
977.8031	2508.5924	1702.85	814.25
977.9308	2509.9281	1705.8	813.25
978.0585	2511.2631	1695.8	807.8
978.1861	2512.5974	1700.65	816.8
978.3137	2513.9309	1693	805.9
978.4413	2515.2638	1713.2	800.85
978.5689	2516.596	1691.75	803.45
978.6964	2517.9275	1685.05	796.3
978.8239	2519.2583	1681.8	792.95
978.9513	2520.5884	1678.7	788.95
979.0788	2521.9178	1683.95	797.4
979.2062	2523.2465	1669.2	782.7
979.3335	2524.5745	1666.85	780.15
979.4608	2525.9018	1671.15	785.45
979.5881	2527.2284	1672.3	784.5
979.7154	2528.5543	1664.2	775
979.8426	2529.8796	1667.65	779.35
979.9698	2531.2041	1667	780
980.0969	2532.5279	1665.75	779.4
980.224	2533.851	1662.65	776.15
980.3511	2535.1735	1653.8	767.4
980.4781	2536.4952	1653.95	766.65
980.6052	2537.8163	1662.35	773.55
980.7321	2539.1366	1658.35	771
980.8591	2540.4562	1656.2	766.75
980.986	2541.7752	1657.8	767.65
981.1129	2543.0935	1645.15	756.6
981.2397	2544.411	1649.8	759.05
981.3665	2545.7279	1645.95	757.9
981.4933	2547.0441	1640.6	752.65
981.62	2548.3596	1649.15	759.65
981.7467	2549.6744	1644.35	756.8
981.8734	2550.9885	1641.4	748.25
982.0001	2552.3019	1636.6	749.1
982.1267	2553.6146	1638.15	750.05
982.2532	2554.9266	1633	742.2
982.3798	2556.2379	1631.45	743.45
982.5063	2557.5485	1624.2	736.4
982.6327	2558.8585	1631.2	736.85
982.7592	2560.1677	1638.5	744.9
982.8856	2561.4762	1621	730.3
983.0119	2562.7841	1626.4	735.8
983.1383	2564.0913	1617.45	731.8
983.2646	2565.3977	1623.4	733.45
983.3908	2566.7035	1624.3	737.2
983.517	2568.0086	1614.5	722.15
983.6432	2569.313	1621.9	730.65
983.7694	2570.6167	1616.15	723.15
983.8955	2571.9197	1613.4	724.1
984.0216	2573.222	1611.35	720.3
984.1476	2574.5236	1603	712.95
984.2737	2575.8246	1609.05	718.7
984.3996	2577.1248	1619.15	728.4
984.5256	2578.4244	1605.25	718.35
984.6515	2579.7232	1610.1	720.95
984.7774	2581.0214	1646.75	724.85
984.9032	2582.3189	1612.8	726.05
985.029	2583.6157	1607.8	716.65
985.1548	2584.9118	1612.7	721.6
985.2806	2586.2072	1609.1	719.85
985.4063	2587.5019	1612.4	722
985.5319	2588.7959	1612.7	721.7
985.6576	2590.0893	1612.5	721.45
985.7832	2591.3819	1608.75	720.5
985.9087	2592.6739	1607.6	720
986.0343	2593.9652	1611	719.2
986.1597	2595.2557	1613.45	724.75
986.2852	2596.5456	1602.85	712.2
986.4106	2597.8348	1599.25	711.3
986.536	2599.1234	1604.1	714.55
986.6614	2600.4112	1598	706.95
986.7867	2601.6983	1602.55	710.8
986.912	2602.9848	1608.95	720.25
987.0372	2604.2705	1604.85	709.4
987.1624	2605.5556	1604.35	715.85
987.2876	2606.84	1596.4	707.85
987.4128	2608.1237	1588.25	699.45
987.5379	2609.4067	1595.95	709.55
987.6629	2610.689	1601.85	706.8
987.788	2611.9707	1592.2	701.3
987.913	2613.2516	1589.85	695.15
988.0379	2614.5319	1586.35	698.95
988.1629	2615.8115	1572.9	684.1
988.2878	2617.0903	1573.75	683.7
988.4126	2618.3685	1574.3	684.35
988.5375	2619.6461	1573.5	685.6
988.6622	2620.9229	1567.9	680.45
988.787	2622.199	1572.5	683.55
988.9117	2623.4745	1572.9	683.8
989.0364	2624.7493	1564.25	676.05
989.161	2626.0234	1561.4	675.1
989.2857	2627.2968	1567.9	679.3
989.4102	2628.5695	1563.65	674.6
989.5348	2629.8415	1561.75	676.4
989.6593	2631.1128	1575.85	686.9
989.7837	2632.3835	1561.7	674.05
989.9082	2633.6535	1561.6	673.7
990.0326	2634.9228	1554.05	666
990.1569	2636.1914	1561.85	674.35
990.2812	2637.4593	1554.7	667.15
990.4055	2638.7265	1556.3	667.7
990.5298	2639.9931	1550.75	664.25
990.654	2641.259	1554.3	666.5
990.7782	2642.5242	1547.9	655.8
990.9023	2643.7887	1551.15	663.4
991.0264	2645.0525	1542.15	655.75
991.1505	2646.3156	1545.9	657.75
991.2745	2647.5781	1539.15	653.05
991.3985	2648.8398	1532.05	645.2
991.5225	2650.1009	1557.1	663.95
991.6464	2651.3613	1535.8	647.9
991.7703	2652.6211	1530.65	642.3
991.8942	2653.8801	1523.65	637.9
992.018	2655.1385	1534.8	645.5
992.1418	2656.3961	1526.5	639.15
992.2655	2657.6531	1537.4	649.2
992.3892	2658.9094	1528.45	641.15
992.5129	2660.1651	1524.05	638.85
992.6366	2661.42	1533.8	646.8
992.7602	2662.6743	1527.15	641.05
992.8837	2663.9279	1537.6	653.35
993.0073	2665.1808	1535.4	647.35
993.1307	2666.433	1536.9	648.85
993.2542	2667.6846	1532.85	645.45
993.3776	2668.9354	1539.5	648.7
993.501	2670.1856	1541.5	654.55
993.6244	2671.4351	1542.9	656.1
993.7477	2672.6839	1554.7	667.8
993.8709	2673.9321	1538.05	651.4
993.9942	2675.1795	1541.6	653.4
994.1174	2676.4263	1545.85	660.8
994.2405	2677.6724	1540.85	657.05
994.3637	2678.9179	1545.45	657.1
994.4868	2680.1626	1540.4	654.1
994.6098	2681.4067	1542.1	656.05
994.7328	2682.6501	1547.45	658.8
994.8558	2683.8928	1545.7	656.8
994.9788	2685.1348	1532.65	646
995.1017	2686.3761	1546.25	658.5
995.2245	2687.6168	1534.5	647.5
995.3474	2688.8568	1534.35	647.75
995.4702	2690.0961	1525.1	640.1
995.5929	2691.3348	1523.05	638.1
995.7156	2692.5727	1512.85	625.7
995.8383	2693.81	1515.55	627.55
995.961	2695.0466	1506.6	622.25
996.0836	2696.2826	1507.3	618.4
996.2062	2697.5178	1512.9	621.8
996.3287	2698.7524	1517.5	629.6
996.4512	2699.9863	1520.3	631.75
996.5737	2701.2195	1512.9	628.3
996.6961	2702.452	1522.8	636.65
996.8185	2703.6839	1524.2	633.9
996.9408	2704.9151	1523.2	637.3
997.0631	2706.1456	1536.35	648.65
997.1854	2707.3755	1535.3	648.25
997.3077	2708.6046	1549.6	659.6
997.4299	2709.8331	1550.1	662.4
997.552	2711.0609	1549.45	663.65
997.6742	2712.2881	1560.05	674.85
997.7963	2713.5145	1570.35	683.7
997.9183	2714.7403	1576	690.1
998.0403	2715.9654	1590.9	704.35
998.1623	2717.1899	1599.5	697.95
998.2842	2718.4136	1606	719.3
998.4062	2719.6367	1616.6	731.9
998.528	2720.8591	1636.2	741.6
998.6498	2722.0809	1639.8	753.6
998.7716	2723.3019	1652.3	760.6
998.8934	2724.5223	1660.55	774.1
999.0151	2725.7421	1664.2	775.15
999.1368	2726.9611	1671	782.35
999.2584	2728.1795	1667.25	776.3
999.38	2729.3972	1656.15	769.05
999.5016	2730.6142	1659.9	760.3
999.6231	2731.8306	1628.15	739.5
999.7446	2733.0462	1611.7	724.5
999.8661	2734.2612	1605.6	714.75
999.9875	2735.4756	1577.45	689.95
1000.1089	2736.6892	1566.9	677.95
1000.2302	2737.9022	1547.6	663.1
1000.3515	2739.1145	1529.9	646.05
1000.4728	2740.3262	1529.05	635.2
1000.594	2741.5372	1513.65	629.35
1000.7152	2742.7475	1507.4	621.05
1000.8363	2743.9571	1495.45	610.45
1000.9575	2745.1661	1487.45	597.15
1001.0785	2746.3744	1474.4	588.5
1001.1996	2747.582	1466.35	578.8
1001.3206	2748.7889	1459.5	573.45
1001.4415	2749.9952	1445.6	559.45
1001.5625	2751.2008	1446.95	560.65
1001.6833	2752.4057	1446.35	559.85
1001.8042	2753.61	1435.6	546.75
1001.925	2754.8136	1435.95	547.6
1002.0458	2756.0165	1433	548.05
1002.1665	2757.2188	1437.55	551.3
1002.2872	2758.4204	1429	542.65
1002.4078	2759.6213	1428.05	541.05
1002.5285	2760.8215	1434.15	544.8
1002.649	2762.0211	1432.55	546
1002.7696	2763.22	1424.9	535.8
1002.8901	2764.4182	1429.25	541.75
1003.0106	2765.6158	1421.4	536.9
1003.131	2766.8127	1418.15	532.65
1003.2514	2768.009	1417.6	533.15
1003.3717	2769.2045	1417.95	530.6
1003.492	2770.3994	1417.55	531.75
1003.6123	2771.5936	1409.25	524.95
1003.7325	2772.7872	1406.25	519.95
1003.8527	2773.9801	1406.85	521.6
1003.9729	2775.1723	1422.35	520.1
1004.093	2776.3639	1409.7	524.85
1004.2131	2777.5548	1403.5	517.15
1004.3331	2778.745	1404.6	519.95
1004.4531	2779.9346	1410.8	526.8
1004.5731	2781.1235	1405.4	519.6
1004.693	2782.3117	1410.95	527.35
1004.8129	2783.4992	1407.65	524.25
1004.9328	2784.6861	1417.9	532.75
1005.0526	2785.8723	1419.75	534.2
1005.1723	2787.0579	1429.7	542.55
1005.2921	2788.2428	1432.65	549.6
1005.4118	2789.427	1432.85	548.9
1005.5314	2790.6106	1444.3	562.3
1005.651	2791.7935	1455.05	570.7
1005.7706	2792.9757	1451.5	570.1
1005.8902	2794.1573	1477.45	591.9
1006.0097	2795.3382	1479.95	595.45
1006.1291	2796.5184	1492.75	608.8
1006.2485	2797.698	1505.9	617.65
1006.3679	2798.8769	1521.45	637.85
1006.4873	2800.0551	1537.6	654.4
1006.6066	2801.2327	1557.95	672.7
1006.7258	2802.4096	1564	680.15
1006.8451	2803.5859	1583.8	699.25
1006.9642	2804.7615	1604.6	721.85
1007.0834	2805.9364	1625.75	740.4
1007.2025	2807.1106	1643.05	760.25
1007.3216	2808.2842	1680.4	794.6
1007.4406	2809.4572	1712	828.9
1007.5596	2810.6294	1741.25	855.65
1007.6785	2811.801	1771.6	889.4
1007.7975	2812.972	1821.75	939.45
1007.9163	2814.1423	1854.9	971.15
1008.0352	2815.3119	1898.75	1015.4
1008.154	2816.4808	1943.5	1060.4
1008.2727	2817.6491	1992.85	1108.95
1008.3914	2818.8167	2046.3	1163.1
1008.5101	2819.9837	2100.3	1210.1
1008.6288	2821.15	2137.75	1252.95
1008.7474	2822.3157	2184.6	1304.1
1008.8659	2823.4807	2240.9	1358.65
1008.9844	2824.645	2289.3	1404.05
1009.1029	2825.8086	2332.3	1450.15
1009.2214	2826.9716	2377.4	1495.3
1009.3398	2828.134	2426.95	1545.6
1009.4581	2829.2957	2468.05	1583.2
1009.5764	2830.4567	2499.85	1619.3
1009.6947	2831.617	2518.7	1633.75
1009.813	2832.7767	2530.6	1647
1009.9312	2833.9358	2527.4	1644.15
1010.0493	2835.0941	2518.3	1633.1
1010.1675	2836.2519	2526.25	1642.95
1010.2855	2837.4089	2496.65	1611.9
1010.4036	2838.5653	2501.9	1618.35
1010.5216	2839.7211	2477.4	1596.6
1010.6396	2840.8761	2490.3	1603.65
1010.7575	2842.0306	2505.55	1623.3
1010.8754	2843.1843	2546.25	1661.95
1010.9932	2844.3374	2578.25	1696.9
1011.111	2845.4899	2632.15	1748.05
1011.2288	2846.6417	2687.1	1803.85
1011.3465	2847.7928	2770.7	1890.15
1011.4642	2848.9433	2834.15	1949.5
1011.5818	2850.0931	2917.4	2036.35
1011.6995	2851.2422	2984.4	2099.4
1011.817	2852.3907	3050.65	2164.95
1011.9345	2853.5385	3109.1	2225.8
1012.052	2854.6857	3169.2	2274
1012.1695	2855.8323	3205.5	2322.95
1012.2869	2856.9781	3256.1	2373.25
1012.4042	2858.1233	3304.35	2421.1
1012.5216	2859.2679	3349.95	2466.25
1012.6389	2860.4118	3397.6	2514.2
1012.7561	2861.555	3451.25	2563.45
1012.8733	2862.6976	3489.8	2604
1012.9905	2863.8395	3504.5	2623.1
1013.1076	2864.9808	3540.9	2659.6
1013.2247	2866.1214	3555.5	2675.1
1013.3417	2867.2614	3582.5	2699.3
1013.4587	2868.4007	3576.75	2693.15
1013.5757	2869.5393	3596.65	2711.8
1013.6926	2870.6773	3606.35	2718.9
1013.8095	2871.8146	3626.8	2740.7
1013.9263	2872.9513	3621.15	2734.25
1014.0431	2874.0874	3616.55	2732.35
1014.1599	2875.2227	3608.85	2723.55
1014.2766	2876.3574	3588.55	2706.85
1014.3933	2877.4915	3569.05	2685.85
1014.51	2878.6249	3535.1	2654.05
1014.6266	2879.7577	3514.75	2630.2
1014.7431	2880.8898	3501.75	2607.2
1014.8596	2882.0212	3486.7	2605.4
1014.9761	2883.152	3475.8	2592.8
1015.0925	2884.2821	3453.8	2572.9
1015.2089	2885.4116	3447.3	2567.75
1015.3253	2886.5405	3464.95	2583.2
1015.4416	2887.6686	3470.3	2583.8
1015.5579	2888.7962	3469.3	2589.85
1015.6741	2889.923	3484.25	2601.25
1015.7903	2891.0493	3497.5	2616.35
1015.9065	2892.1748	3488.35	2605.15
1016.0226	2893.2997	3520.85	2636
1016.1387	2894.424	3522.9	2640.55
1016.2547	2895.5476	3542.65	2659.15
1016.3707	2896.6706	3569.55	2689.75
1016.4866	2897.7929	3590.85	2709.3
1016.6025	2898.9145	3601.05	2719.65
1016.7184	2900.0355	3644.9	2762.8
1016.8342	2901.1559	3675.35	2792.75
1016.95	2902.2756	3711.5	2829.15
1017.0658	2903.3946	3739.55	2856.95
1017.1815	2904.513	3760.75	2876
1017.2971	2905.6308	3790.3	2908.15
1017.4127	2906.7479	3805.6	2923.45
1017.5283	2907.8643	3832.9	2949.65
1017.6439	2908.9801	3861.2	2980.45
1017.7594	2910.0953	3842.25	2960.95
1017.8748	2911.2098	3863.45	2978.55
1017.9902	2912.3236	3869.8	2976.75
1018.1056	2913.4368	3847.95	2964.2
1018.2209	2914.5494	3836.5	2953.75
1018.3362	2915.6613	3799.05	2912
1018.4515	2916.7725	3770.65	2886.75
1018.5667	2917.8831	3734.1	2852.2
1018.6819	2918.9931	3716.25	2831.2
1018.797	2920.1024	3689	2806.7
1018.9121	2921.211	3643.95	2763.3
1019.0271	2922.319	3628.55	2747.3
1019.1421	2923.4264	3627.35	2747.85
1019.2571	2924.5331	3620.2	2739.2
1019.372	2925.6391	3600.6	2718.45
1019.4869	2926.7445	3601.6	2722.25
1019.6017	2927.8493	3603.05	2719.85
1019.7165	2928.9534	3596.5	2715.4
1019.8313	2930.0569	3594.45	2710.25
1019.946	2931.1597	3592.1	2706.15
1020.0606	2932.2619	3589.15	2708.6
1020.1753	2933.3634	3578.5	2694.45
1020.2899	2934.4643	3576.5	2689.7
1020.4044	2935.5645	3557.35	2671.75
1020.5189	2936.6641	3532.6	2645.1
1020.6334	2937.763	3484.55	2603.9
1020.7478	2938.8613	3442.8	2560.25
1020.8622	2939.959	3398.8	2511.75
1020.9765	2941.056	3314.25	2431.2
1021.0908	2942.1523	3257.25	2373.8
1021.2051	2943.248	3175.1	2292.85
1021.3193	2944.3431	3087.1	2207.45
1021.4334	2945.4375	2987.35	2104.95
1021.5476	2946.5313	2881.95	1999.55
1021.6617	2947.6244	2783.15	1901.55
1021.7757	2948.7169	2680.55	1796.6
1021.8897	2949.8087	2599.7	1718.3
1022.0037	2950.8999	2504.15	1623.1
1022.1176	2951.9904	2416.5	1536.2
1022.2315	2953.0803	2358.7	1476.05
1022.3453	2954.1696	2285.75	1404.6
1022.4591	2955.2582	2239.35	1357.45
1022.5728	2956.3462	2194.2	1314.3
1022.6865	2957.4335	2148.85	1266.55
1022.8002	2958.5202	2126.55	1245.05
1022.9138	2959.6062	2097.1	1216.1
1023.0274	2960.6916	2074.3	1192.85
1023.141	2961.7764	2052.7	1172.3
1023.2545	2962.8605	2032.25	1149.3
1023.3679	2963.9439	2024.05	1144.35
1023.4813	2965.0267	2016.75	1133.55
1023.5947	2966.1089	2018.75	1114.5
1023.708	2967.1905	1995.45	1114.75
1023.8213	2968.2714	2001.65	1118.95
1023.9346	2969.3516	1992.3	1113.15
1024.0478	2970.4312	1991.25	1102.5
1024.1609	2971.5102	1999.95	1121.65
1024.274	2972.5885	1994.4	1114.3
1024.3871	2973.6662	2004.3	1118.65
1024.5002	2974.7432	1999.7	1119.55
1024.6132	2975.8196	1987.7	1107.3
1024.7261	2976.8954	1982.3	1101.35
1024.839	2977.9705	1968.55	1090.5
1024.9519	2979.045	1960.9	1080.45
1025.0647	2980.1188	1945.8	1066.65
1025.1775	2981.192	1926.45	1046.5
1025.2902	2982.2645	1907.25	1027.85
1025.4029	2983.3364	1883.65	1001.8
1025.5156	2984.4077	1858	976.45
1025.6282	2985.4783	1836.05	949.65
1025.7407	2986.5483	1790.3	912.45
1025.8532	2987.6177	1768.25	887.4
1025.9657	2988.6864	1739.4	859.55
1026.0782	2989.7545	1699.15	818.65
1026.1906	2990.8219	1665.95	787.35
1026.3029	2991.8887	1638.2	756.3
1026.4152	2992.9548	1607.15	727.05
1026.5275	2994.0204	1573.4	694.25
1026.6397	2995.0852	1544.1	664.75
1026.7519	2996.1495	1517.4	637.1
1026.864	2997.2131	1492.6	612.85
1026.9761	2998.276	1473.25	591.9
1027.0882	2999.3383	1453.2	573.35
1027.2002	3000.4	1437.25	555.35
1027.3122	3001.4611	1417.2	537.35
1027.4241	3002.5215	1392.65	510.4
1027.536	3003.5812	1381.4	501.6
1027.6478	3004.6404	1375.65	495.3
1027.7596	3005.6989	1364.6	482.9
1027.8714	3006.7567	1351.55	470.5
1027.9831	3007.8139	1373.3	462.75
1028.0947	3008.8705	1341.15	462.05
1028.2064	3009.9264	1332.95	449.95
1028.3179	3010.9818	1327.7	448.3
1028.4295	3012.0364	1325.55	443.1
1028.541	3013.0905	1314.1	435.05
1028.6524	3014.1439	1311.6	431.85
1028.7638	3015.1966	1312.65	430.75
1028.8752	3016.2487	1306.5	427.05
1028.9865	3017.3002	1309.95	422.4
1029.0978	3018.3511	1302.55	426.2
1029.209	3019.4013	1305.85	426.6
1029.3202	3020.4509	1304.35	424.5
1029.4314	3021.4998	1300.95	420.65
1029.5425	3022.5481	1302.35	421.9
1029.6535	3023.5958	1296.3	418.35
1029.7645	3024.6428	1303.1	421.85
1029.8755	3025.6892	1298.95	418.65
1029.9864	3026.735	1305.6	424
1030.0973	3027.7802	1303.55	423.1
1030.2082	3028.8247	1304.3	425
1030.319	3029.8685	1308.3	428.1
1030.4297	3030.9118	1307.2	425.9
1030.5404	3031.9544	1310.8	433.05
1030.6511	3032.9963	1314.7	433.45
1030.7617	3034.0376	1321.3	441.55
1030.8723	3035.0783	1324.6	441.5
1030.9829	3036.1184	1327.65	445.15
1031.0934	3037.1578	1324.2	444.2
1031.2038	3038.1966	1330.35	449
1031.3142	3039.2348	1332.25	453.05
1031.4246	3040.2723	1337.9	450.3
1031.5349	3041.3092	1327.5	449.7
1031.6452	3042.3455	1324.35	443.25
1031.7554	3043.3811	1328.5	447.15
1031.8656	3044.4161	1324.1	444.6
1031.9758	3045.4505	1320.5	444.75
1032.0859	3046.4842	1317.7	438.1
1032.1959	3047.5173	1311.35	433.35
1032.3059	3048.5498	1299.6	417.3
1032.4159	3049.5816	1303.9	425.4
1032.5258	3050.6128	1295.5	412.8
1032.6357	3051.6434	1290.2	409.3
1032.7455	3052.6734	1291.95	411.75
1032.8553	3053.7027	1287.7	406.5
1032.9651	3054.7314	1277.3	398.7
1033.0748	3055.7594	1268.4	390.45
1033.1845	3056.7868	1271.5	391.85
1033.2941	3057.8136	1264.45	383.7
1033.4037	3058.8398	1257.3	378.75
1033.5132	3059.8653	1259.5	379
1033.6227	3060.8902	1247.05	368.6
1033.7321	3061.9145	1252.6	374.2
1033.8415	3062.9381	1245.9	365.05
1033.9509	3063.9612	1256	359
1034.0602	3064.9835	1240.4	360.75
1034.1694	3066.0053	1236.7	355.35
1034.2787	3067.0264	1218.6	341.7
1034.3878	3068.0469	1219.6	340.1
1034.497	3069.0668	1213.25	330.2
1034.6061	3070.086	1203.7	326.4
1034.7151	3071.1046	1201.7	322.5
1034.8241	3072.1226	1192.15	311.8
1034.9331	3073.1399	1190.85	312.6
1035.042	3074.1567	1183.1	301.3
1035.1508	3075.1727	1172.35	290.9
1035.2597	3076.1882	1157.15	278.4
1035.3684	3077.203	1151.7	271.9
1035.4772	3078.2173	1146.85	267.85
1035.5859	3079.2308	1143.65	261.05
1035.6945	3080.2438	1132.55	251
1035.8031	3081.2561	1122.5	242.65
1035.9117	3082.2678	1119.35	240.25
1036.0202	3083.2789	1114.45	237.4
1036.1286	3084.2893	1108.15	227
1036.2371	3085.2991	1101.75	222.9
1036.3454	3086.3083	1108.1	226.65
1036.4538	3087.3169	1093.85	213.1
1036.562	3088.3248	1088.05	207.95
1036.6703	3089.3321	1085.5	205.2
1036.7785	3090.3388	1077.6	198.95
1036.8866	3091.3449	1076.95	197.9
1036.9948	3092.3503	1071.85	190.6
1037.1028	3093.3551	1065.45	187.3
1037.2108	3094.3593	1066.3	188.8
1037.3188	3095.3629	1064.65	184.85
1037.4267	3096.3658	1059	178.95
1037.5346	3097.3681	1054.5	176.15
1037.6425	3098.3698	1056.35	174.6
1037.7503	3099.3708	1059.7	173.8
1037.858	3100.3713	1054.2	178.25
1037.9657	3101.3711	1044.95	164.3
1038.0734	3102.3702	1185.6	170.9
1038.181	3103.3688	1044.4	164.35
1038.2886	3104.3667	1042.15	164.15
1038.3961	3105.364	1037.2	159.65
1038.5036	3106.3607	1037.95	158
1038.611	3107.3568	1033.8	153.8
1038.7184	3108.3522	1030.9	152.75
1038.8257	3109.347	1030.65	151.15
1038.933	3110.3412	1029.5	146.75
1039.0403	3111.3348	1028.15	148.4
1039.1475	3112.3277	1026.05	147.1
1039.2547	3113.32	1024.75	146.45
1039.3618	3114.3117	1025.25	145.6
1039.4689	3115.3028	1023.7	143.9
1039.5759	3116.2932	1023.15	144.15
1039.6829	3117.2831	1022.2	140.1
1039.7898	3118.2723	1013.3	134.4
1039.8967	3119.2608	1015.5	137.5
1040.0035	3120.2488	1017.25	138.4
1040.1103	3121.2361	1016.2	136.35
1040.2171	3122.2229	1015.4	135.8
1040.3238	3123.209	1009.4	129.5
1040.4305	3124.1944	1013.05	135.45
1040.5371	3125.1793	1012.7	132.45
1040.6437	3126.1635	1005.9	127.55
1040.7502	3127.1471	1002.85	124.4
1040.8567	3128.1301	1001.9	122.1
1040.9631	3129.1125	1003.95	126.55
1041.0695	3130.0942	1000.1	120.95
1041.1759	3131.0753	1009.55	121.4
1041.2822	3132.0558	1005.75	124.95
1041.3884	3133.0357	1001.85	123.6
1041.4946	3134.015	997.6	117.95
1041.6008	3134.9936	995.95	115.25
1041.7069	3135.9716	1012.7	114.6
1041.813	3136.949	994.35	115.75
1041.919	3137.9258	1013.15	116.9
1042.025	3138.902	998.6	115.35
1042.1309	3139.8775	993.65	116.4
1042.2368	3140.8524	989.5	110.35
1042.3427	3141.8267	989.5	109.05
1042.4485	3142.8004	992.05	111.55
1042.5542	3143.7735	991.4	107.95
1042.6599	3144.7459	992.55	113.9
1042.7656	3145.7178	985.9	107.25
1042.8712	3146.689	985.9	107.2
1042.9768	3147.6596	985.7	107.7
1043.0823	3148.6295	982.8	103.8
1043.1878	3149.5989	981.95	103.2
1043.2932	3150.5676	979.45	104.1
1043.3986	3151.5357	980.5	103.05
1043.5039	3152.5032	978.7	100.5
1043.6092	3153.4701	981.3	102.55
1043.7145	3154.4364	979.35	98.95
1043.8197	3155.402	976.65	101.35
1043.9248	3156.367	977.15	96.3
1044.03	3157.3315	1006.55	98
1044.135	3158.2952	975.9	97.15
1044.24	3159.2584	973.25	95.45
1044.345	3160.221	974.1	93.15
1044.4499	3161.1829	972.05	95.9
1044.5548	3162.1442	970.05	91.45
1044.6596	3163.105	971.65	93.8
1044.7644	3164.065	971.65	94
1044.8692	3165.0245	975.35	94.85
1044.9739	3165.9834	968.95	93.1
1045.0785	3166.9416	969.45	92.6
1045.1831	3167.8993	971.25	93.2
1045.2877	3168.8563	970.45	92.05
1045.3922	3169.8127	968.75	91.1
1045.4966	3170.7684	965.9	89.35
1045.6011	3171.7236	967.75	88.35
1045.7054	3172.6782	968.15	91
1045.8098	3173.6321	969.8	92.65
1045.914	3174.5854	969.25	88.45
1046.0183	3175.5381	962.9	84.5
1046.1224	3176.4902	963.5	85.6
1046.2266	3177.4417	962.8	84.35
1046.3307	3178.3926	958.8	80.4
1046.4347	3179.3428	961.85	84.55
1046.5387	3180.2924	961.1	83.8
1046.6427	3181.2415	960.95	83.3
1046.7466	3182.1899	959.7	82.2
1046.8504	3183.1377	960.35	81.1
1046.9542	3184.0848	963.35	83.45
1047.058	3185.0314	959.5	80.15
1047.1617	3185.9773	959.6	81.85
1047.2654	3186.9227	956.7	80.1
1047.369	3187.8674	956.6	77.5
1047.4726	3188.8115	962.45	82.85
1047.5761	3189.755	953.7	76.25
1047.6796	3190.6979	954.8	78.15
1047.783	3191.6402	951.4	76.1
1047.8864	3192.5818	954.65	76.9
1047.9898	3193.5229	971.3	74.05
1048.0931	3194.4633	954.55	75.95
1048.1963	3195.4031	953.2	74.9
1048.2995	3196.3423	953.2	75.7
1048.4027	3197.2809	955.2	78.35
1048.5058	3198.2189	951.8	72.25
1048.6089	3199.1563	957.65	74.55
1048.7119	3200.0931	950.65	74.65
1048.8148	3201.0292	951.8	74.6
1048.9178	3201.9648	949.65	71.65
1049.0206	3202.8997	953.8	75.05
1049.1235	3203.834	947	69.4
1049.2262	3204.7677	951.25	73.9
1049.329	3205.7008	951.2	71.6
1049.4317	3206.6333	945.05	69.5
1049.5343	3207.5652	952.25	73
1049.6369	3208.4964	945.8	69.35
1049.7394	3209.4271	944.75	67.15
1049.8419	3210.3571	945.5	68.2
1049.9444	3211.2865	946.5	67.8
1050.0468	3212.2154	948.1	69.55
1050.1491	3213.1436	946.9	65.3
1050.2514	3214.0712	951.75	67.4
1050.3537	3214.9982	945.75	68.4
1050.4559	3215.9246	941.15	61.65
1050.5581	3216.8503	943.6	65.4
1050.6602	3217.7755	946.4	69.05
1050.7623	3218.7001	943.25	66
1050.8643	3219.624	941.6	62.35
1050.9663	3220.5473	943.1	65.9
1051.0682	3221.4701	941.45	60.5
1051.1701	3222.3922	945.7	67.25
1051.2719	3223.3137	939.45	62.8
1051.3737	3224.2346	941.4	63.55
1051.4754	3225.1549	939.25	62.05
1051.5771	3226.0746	940.3	63.7
1051.6788	3226.9937	938.55	60.4
1051.7804	3227.9121	937.35	59.95
1051.8819	3228.83	940.65	63.45
1051.9834	3229.7473	942.05	66.5
1052.0849	3230.6639	938.7	61.55
1052.1863	3231.5799	938.25	61.05
1052.2876	3232.4954	940.05	59.85
1052.3889	3233.4102	937.4	61.7
1052.4902	3234.3244	936.75	60.6
1052.5914	3235.238	936.8	57.9
1052.6926	3236.151	962.65	61.85
1052.7937	3237.0634	934.05	58.85
1052.8948	3237.9752	935.55	60.1
1052.9958	3238.8864	934.45	56.55
1053.0968	3239.797	936.3	58.95
1053.1977	3240.7069	935.5	57.45
1053.2986	3241.6163	936.45	57.4
1053.3994	3242.5251	935	59.1
1053.5002	3243.4332	931.25	55.65
1053.6009	3244.3408	931.15	52.1
1053.7016	3245.2477	932.65	54.75
1053.8022	3246.154	931.3	54.9
1053.9028	3247.0598	934.1	55.6
1054.0034	3247.9649	932.55	56
1054.1039	3248.8694	930.8	55.5
1054.2043	3249.7733	931.35	54.25
1054.3047	3250.6766	929.2	54.05
1054.4051	3251.5793	931.75	52.1
1054.5054	3252.4814	927.8	52.3
1054.6056	3253.3829	928.25	52.55
1054.7058	3254.2838	930.2	54.95
1054.806	3255.1841	928.15	51.65
1054.9061	3256.0838	928.6	52.1
1055.0061	3256.9829	925.7	50.5
1055.1062	3257.8814	928.55	49.95
1055.2061	3258.7792	927.2	49.35
1055.306	3259.6765	924.9	47.4
1055.4059	3260.5731	923.75	48.85
1055.5057	3261.4692	924.6	45.15
1055.6055	3262.3647	923.05	47
1055.7052	3263.2595	918.45	42.3
1055.8049	3264.1538	919.55	42.3
1055.9045	3265.0474	922.35	42.5
1056.0041	3265.9404	918.8	43.15
1056.1036	3266.8329	918.4	41.15
1056.2031	3267.7247	926.25	40.15
1056.3025	3268.616	912.9	37.35
1056.4019	3269.5066	915.7	38.9
1056.5013	3270.3966	916.15	36.05
1056.6005	3271.286	912.05	36.2
