Software Version:	3.9.2.0
Unit SN:	10000200
Spectrometer SN:	6960
Date:	3/8/2024 11:30:58 AM
Data Line Index:	25
Spectral Points:	2048
Integration time (ms):	125
Averages:	20
Delay (ms):	30000
Sequence Number:	1
Processing:	dark subtract
Laser Power (mW):	300
Laser Current (mA):	822
Laser Diode Temp (C):	25
Laser Case Temp (C):	25.1
System Temp (C):	25
Spectrometer Temp (C):	22.9
CCD Temp (C):	0.004
Secondary Temp (C):	20.008
Heatsink Temp (C):	19.466
CCDPCB Temp (C):	33.339
SecondaryPCB Temp (C):	26.892

Wavelength	RamanShift	Raw Counts	Dark Subtracted
787.061	30.1047	413	3.35
787.2016	32.3739	414.1	7.6
787.3422	34.6426	415.3	5.5
787.4828	36.9109	416.75	5.85
787.6235	39.1787	419.4	5.7
787.7642	41.4461	426.7	9.85
787.9049	43.7131	430.2	10.3
788.0456	45.9796	436.25	13.45
788.1863	48.2456	437.3	9.25
788.3271	50.5112	443.55	11.15
788.4679	52.7764	448.1	12.65
788.6087	55.0411	452	11.8
788.7496	57.3054	458	13
788.8904	59.5692	462.1	15.05
789.0313	61.8326	465.3	15.25
789.1722	64.0955	470.05	19.95
789.3132	66.3579	475.85	20.9
789.4541	68.6199	482.55	20.9
789.5951	70.8815	495	28.85
789.7361	73.1426	512.35	43.9
789.8771	75.4032	552.05	79.2
790.0181	77.6634	632.35	157.4
790.1592	79.9231	819.3	339.9
790.3003	82.1824	1206.4	721.05
790.4414	84.4412	1839.05	1343.6
790.5825	86.6995	2657.55	2149.75
790.7237	88.9574	3423.4	2905.15
790.8648	91.2148	3951.5	3426.6
791.006	93.4717	4164.95	3635.85
791.1472	95.7282	4204.8	3675.25
791.2885	97.9842	4191.9	3656.95
791.4297	100.2398	4130.25	3592.9
791.571	102.4949	4062.8	3521.25
791.7123	104.7495	4040.65	3496.05
791.8536	107.0036	3990.45	3445.9
791.9949	109.2573	3904.55	3363.75
792.1363	111.5105	3817.3	3271.35
792.2777	113.7632	3704.5	3158.8
792.4191	116.0154	3605.75	3047.35
792.5605	118.2672	3493.45	2939.95
792.7019	120.5185	3380.2	2824.65
792.8434	122.7693	3267.7	2709.65
792.9849	125.0197	3175.9	2614.8
793.1264	127.2696	3092.1	2528.3
793.2679	129.519	3041.4	2472.65
793.4094	131.7679	2992.8	2423.45
793.551	134.0163	2982.05	2410.25
793.6926	136.2642	2972.3	2396.5
793.8342	138.5117	2971	2391.8
793.9758	140.7587	2933.5	2354.15
794.1175	143.0052	2897.35	2314.25
794.2591	145.2512	2837.35	2251.95
794.4008	147.4967	2785.1	2197.8
794.5425	149.7417	2724.8	2133.95
794.6842	151.9863	2701.35	2110.85
794.826	154.2304	2691.7	2094.8
794.9677	156.4739	2687.85	2087.75
795.1095	158.717	2702.95	2099.9
795.2513	160.9596	2734.75	2125.1
795.3931	163.2017	2755.75	2143.65
795.535	165.4433	2764.5	2152.8
795.6768	167.6844	2763.6	2149.4
795.8187	169.925	2740.15	2123.5
795.9606	172.1651	2679.4	2057.85
796.1025	174.4047	2623.55	2000.25
796.2445	176.6439	2586.3	1961.8
796.3864	178.8825	2540.45	1910.05
796.5284	181.1206	2526.7	1891.9
796.6704	183.3582	2519.45	1881.75
796.8124	185.5954	2515.65	1877.5
796.9544	187.832	2510.05	1867
797.0965	190.0681	2515.65	1871.65
797.2386	192.3037	2523.2	1875.1
797.3806	194.5388	2534.35	1885
797.5228	196.7734	2540.5	1890.5
797.6649	199.0075	2550.5	1894.95
797.807	201.2411	2579.65	1927.1
797.9492	203.4742	2602.6	1945.55
798.0914	205.7068	2641.25	1981.15
798.2336	207.9389	2647.65	1985.75
798.3758	210.1704	2664.95	2006.35
798.518	212.4015	2670.25	2022
798.6603	214.632	2658.45	2019.15
798.8025	216.862	2688.3	2049.8
798.9448	219.0915	2676.5	2036.4
799.0871	221.3205	2697.85	2054.55
799.2294	223.549	2703	2066.2
799.3718	225.777	2711.5	2075.2
799.5141	228.0044	2704.25	2054.8
799.6565	230.2314	2698.9	2048.7
799.7989	232.4578	2692.8	2037.1
799.9413	234.6837	2673.8	2009.9
800.0837	236.909	2657.8	1992.95
800.2262	239.1339	2663.9	1975.8
800.3687	241.3582	2649.8	1976.2
800.5111	243.582	2674	1969.55
800.6536	245.8053	2671.7	1981.9
800.7961	248.0281	2680.25	1993.7
800.9387	250.2503	2684.75	1994.9
801.0812	252.472	2682.1	1992.95
801.2238	254.6932	2705.35	2014.35
801.3664	256.9139	2700.1	2006.7
801.509	259.134	2721.65	2026.4
801.6516	261.3536	2738.85	2047.15
801.7942	263.5727	2795.6	2101.45
801.9369	265.7912	2839.1	2145.65
802.0795	268.0092	2898.05	2200.75
802.2222	270.2267	2958.65	2262.15
802.3649	272.4436	3036.1	2337.1
802.5076	274.6601	3080.45	2369.45
802.6504	276.8759	3088.95	2384.45
802.7931	279.0913	3106.9	2401.25
802.9359	281.3061	3124.85	2416.5
803.0787	283.5204	3155.35	2447.1
803.2215	285.7341	3188.15	2474.35
803.3643	287.9473	3193.85	2479.95
803.5071	290.16	3198.25	2481.85
803.6499	292.3721	3161.95	2451.15
803.7928	294.5837	3126.7	2414.9
803.9357	296.7947	3082.8	2368.8
804.0786	299.0052	3072.6	2359.25
804.2215	301.2152	3048.15	2331.7
804.3644	303.4246	3041.05	2328.75
804.5074	305.6334	3013.3	2299.55
804.6503	307.8418	2999.55	2278.45
804.7933	310.0495	2973.2	2254.05
804.9363	312.2568	2934.3	2215.95
805.0793	314.4635	2886.35	2164
805.2223	316.6696	2824.25	2099.3
805.3653	318.8752	2774.8	2040.55
805.5084	321.0802	2751.05	2025.2
805.6514	323.2847	2741.6	2012.65
805.7945	325.4887	2746.9	2017.35
805.9376	327.692	2773.65	2042.05
806.0807	329.8949	2818.2	2087.65
806.2238	332.0972	2864.6	2132.3
806.367	334.2989	2884.6	2147.55
806.5101	336.5001	2888.35	2151.2
806.6533	338.7007	2867	2128.3
806.7965	340.9008	2817.5	2080.25
806.9397	343.1003	2742.85	2002.5
807.0829	345.2992	2700.85	1959.8
807.2261	347.4976	2651.45	1908.8
807.3693	349.6955	2617.65	1872.45
807.5126	351.8927	2585.1	1837.9
807.6559	354.0895	2565.45	1806.8
807.7991	356.2856	2565.85	1817.95
807.9424	358.4812	2556.95	1806.1
808.0857	360.6763	2546.25	1795.8
808.2291	362.8707	2554.6	1800.05
808.3724	365.0646	2548.55	1791
808.5158	367.258	2559.25	1801
808.6591	369.4508	2578.55	1817.65
808.8025	371.643	2601.35	1838.4
808.9459	373.8346	2637	1875.75
809.0893	376.0257	2674.5	1908.95
809.2327	378.2162	2711.9	1948.1
809.3762	380.4062	2716.75	1953.6
809.5196	382.5956	2677.45	1916.15
809.6631	384.7844	2638.75	1880.5
809.8066	386.9726	2585.2	1829.9
809.9501	389.1603	2561.4	1805.15
810.0936	391.3474	2569.8	1779.45
810.2371	393.5339	2540.75	1779.45
810.3806	395.7199	2538.8	1782
810.5241	397.9052	2581.4	1823.9
810.6677	400.09	2626.05	1866.95
810.8113	402.2743	2679.3	1917.65
810.9548	404.4579	2720.35	1958.4
811.0984	406.641	2770.2	2004.25
811.2421	408.8235	2812.75	2046.2
811.3857	411.0054	2865	2095.45
811.5293	413.1868	2932.7	2162
811.673	415.3675	2989.4	2214.85
811.8166	417.5477	2977.35	2200.75
811.9603	419.7273	2921.2	2140.9
812.104	421.9064	2834.35	2048.15
812.2477	424.0848	2763.4	1983.9
812.3914	426.2627	2700.7	1921.9
812.5351	428.4399	2625.6	1847.45
812.6788	430.6166	2571.2	1787.2
812.8226	432.7928	2512.5	1724.8
812.9663	434.9683	2473.5	1687.3
813.1101	437.1432	2450.5	1659.05
813.2539	439.3176	2423.6	1638.25
813.3977	441.4914	2404.35	1622.9
813.5415	443.6645	2398.95	1612.8
813.6853	445.8371	2402.6	1615.05
813.8291	448.0091	2398.25	1612
813.973	450.1806	2396.1	1612.85
814.1168	452.3514	2387.05	1596.65
814.2607	454.5216	2397.65	1598.35
814.4046	456.6913	2388.1	1596.3
814.5485	458.8603	2405.25	1611.9
814.6924	461.0288	2404.95	1614.55
814.8363	463.1967	2390.3	1600.7
814.9802	465.3639	2403	1611.55
815.1241	467.5306	2383.8	1590.35
815.2681	469.6967	2383.35	1593.55
815.412	471.8622	2367.1	1576.25
815.556	474.0271	2363.8	1571.3
815.7	476.1914	2375.65	1578.1
815.844	478.3551	2372.8	1578.8
815.988	480.5182	2369	1575.5
816.132	482.6807	2370.7	1578.1
816.276	484.8426	2380.85	1587.6
816.4201	487.0039	2416.9	1623.25
816.5641	489.1647	2501.55	1704.65
816.7082	491.3248	2549.6	1751.95
816.8522	493.4843	2562.2	1764.8
816.9963	495.6432	2547.8	1751.5
817.1404	497.8015	2527.95	1724.05
817.2845	499.9592	2470.9	1668.8
817.4286	502.1163	2408.2	1605.4
817.5727	504.2728	2357	1552.95
817.7168	506.4287	2335.95	1535.25
817.861	508.5839	2322.55	1520.85
818.0051	510.7386	2308.6	1507.05
818.1493	512.8927	2309.55	1498.1
818.2935	515.0461	2321.3	1514.95
818.4377	517.199	2332.6	1525.15
818.5818	519.3512	2392.5	1589.3
818.726	521.5029	2482.4	1671.1
818.8703	523.6539	2527.55	1717.3
819.0145	525.8043	2537.95	1726.8
819.1587	527.9541	2491.6	1678.95
819.303	530.1033	2408.75	1598.65
819.4472	532.2519	2350.8	1543.1
819.5915	534.3999	2325.45	1512.35
819.7357	536.5472	2316.25	1506.55
819.88	538.694	2312.75	1502.95
820.0243	540.8401	2337.9	1524.25
820.1686	542.9856	2359.2	1542.65
820.3129	545.1305	2363.25	1546.5
820.4572	547.2748	2375	1556.95
820.6016	549.4185	2387.65	1572.9
820.7459	551.5615	2399.35	1583.2
820.8902	553.704	2412.45	1597.55
821.0346	555.8458	2432.5	1618.65
821.1789	557.987	2450.65	1636.65
821.3233	560.1276	2479.5	1664.25
821.4677	562.2675	2554.9	1737.5
821.6121	564.4069	2633.5	1818.8
821.7565	566.5456	2678.2	1862.3
821.9009	568.6837	2651.5	1833.5
822.0453	570.8212	2569.95	1751.35
822.1897	572.958	2478.8	1659.4
822.3342	575.0942	2416.85	1600.25
822.4786	577.2299	2380.1	1561.15
822.6231	579.3648	2336	1518.7
822.7675	581.4992	2320.55	1505.1
822.912	583.6329	2326.35	1510.4
823.0565	585.766	2370	1552.95
823.201	587.8985	2410.55	1592.05
823.3454	590.0304	2470.05	1635.85
823.4899	592.1616	2503.4	1676.55
823.6345	594.2922	2514.95	1691.3
823.779	596.4222	2468	1642.3
823.9235	598.5515	2392.75	1566.45
824.068	600.6802	2339.6	1514.45
824.2126	602.8083	2290.25	1467.3
824.3571	604.9358	2267.15	1441.65
824.5017	607.0626	2269.95	1443.2
824.6462	609.1888	2283.25	1455.35
824.7908	611.3144	2293.05	1464.4
824.9354	613.4393	2342.2	1516.6
825.08	615.5636	2405.1	1578.8
825.2246	617.6873	2461.95	1632.75
825.3692	619.8103	2497.7	1667
825.5138	621.9327	2495.65	1663.9
825.6584	624.0544	2439.75	1610.8
825.803	626.1756	2376.5	1549.9
825.9477	628.2961	2326.6	1497.9
826.0923	630.4159	2304.9	1475.1
826.237	632.5351	2307.05	1475.45
826.3816	634.6537	2279.35	1446
826.5263	636.7716	2278.65	1443.45
826.6709	638.8889	2268.75	1434.2
826.8156	641.0056	2274.8	1441.55
826.9603	643.1216	2286.15	1451.05
827.105	645.237	2281.6	1447
827.2497	647.3518	2258.95	1426.4
827.3944	649.4659	2240.6	1406.6
827.5391	651.5793	2216.8	1383.3
827.6838	653.6922	2198.55	1365
827.8285	655.8043	2184.9	1350.7
827.9733	657.9159	2189.8	1354.6
828.118	660.0268	2172.95	1335.65
828.2627	662.137	2156.9	1317.9
828.4075	664.2466	2168.85	1330.7
828.5522	666.3556	2162.05	1323.9
828.697	668.4639	2155.95	1316.55
828.8418	670.5716	2148.65	1310.6
828.9865	672.6786	2143.65	1305.05
829.1313	674.785	2125.15	1284.25
829.2761	676.8907	2128.9	1290.35
829.4209	678.9958	2137.05	1298.8
829.5657	681.1002	2127.8	1288.15
829.7105	683.204	2133.1	1287.35
829.8553	685.3072	2139.55	1296.25
830.0001	687.4097	2127.3	1285.5
830.1449	689.5115	2130.85	1287.75
830.2898	691.6127	2109.35	1268.75
830.4346	693.7132	2124.35	1282.55
830.5794	695.8131	2131.45	1281.35
830.7243	697.9123	2130	1284.65
830.8691	700.0109	2132.7	1289.25
831.014	702.1089	2143.3	1297.65
831.1588	704.2061	2159.05	1315.95
831.3037	706.3028	2175.1	1326.3
831.4486	708.3987	2204.3	1359.15
831.5935	710.4941	2217.6	1370.75
831.7383	712.5887	2232.25	1386.35
831.8832	714.6827	2221.7	1374.4
832.0281	716.7761	2220.1	1372.5
832.173	718.8688	2215.1	1367.8
832.3179	720.9608	2219.85	1367.1
832.4628	723.0522	2223.15	1369.45
832.6077	725.1429	2247.5	1400.6
832.7527	727.233	2288.1	1438.85
832.8976	729.3224	2358.65	1510.2
833.0425	731.4112	2421.15	1571.4
833.1874	733.4993	2440.1	1589.7
833.3324	735.5867	2382.85	1529.75
833.4773	737.6735	2302.9	1451.1
833.6222	739.7596	2238.5	1386
833.7672	741.845	2174.45	1324.1
833.9122	743.9298	2191	1337.75
834.0571	746.014	2186.05	1332.75
834.2021	748.0974	2210	1357.15
834.347	750.1802	2200.05	1346.1
834.492	752.2624	2197.25	1342.75
834.637	754.3439	2178.2	1323.1
834.782	756.4247	2191.5	1327.65
834.9269	758.5048	2190.15	1338.5
835.0719	760.5843	2201.75	1347.35
835.2169	762.6631	2230.2	1377
835.3619	764.7413	2303.55	1451.25
835.5069	766.8188	2394.65	1538
835.6519	768.8956	2487.65	1629.85
835.7969	770.9718	2550.75	1696.05
835.9419	773.0473	2529.9	1674.2
836.0869	775.1221	2503.1	1648.05
836.232	777.1962	2498.15	1644.05
836.377	779.2697	2547.95	1691.8
836.522	781.3426	2676.1	1804.8
836.667	783.4147	2747	1891.45
836.8121	785.4862	2739.15	1884.3
836.9571	787.557	2638.4	1781.65
837.1021	789.6271	2478.8	1621.05
837.2472	791.6966	2334.15	1478.8
837.3922	793.7654	2231.4	1373.2
837.5373	795.8335	2165.85	1309.05
837.6823	797.901	2138.75	1282.05
837.8274	799.9678	2120.05	1260.15
837.9724	802.0339	2120.25	1260.25
838.1175	804.0993	2134.4	1268.5
838.2626	806.1641	2123.5	1267.05
838.4076	808.2282	2102.1	1243.8
838.5527	810.2916	2081.7	1222.3
838.6978	812.3544	2069.75	1211.65
838.8428	814.4164	2056.45	1199.35
838.9879	816.4778	2060.7	1201.8
839.133	818.5385	2074.05	1213.45
839.2781	820.5986	2115.55	1256.75
839.4232	822.658	2159.9	1296.2
839.5682	824.7166	2242.85	1383.5
839.7133	826.7747	2335.85	1475.65
839.8584	828.832	2425.25	1564.15
840.0035	830.8886	2507.9	1644.7
840.1486	832.9446	2515.1	1653.2
840.2937	834.9999	2485.35	1625.9
840.4388	837.0545	2408.05	1541.1
840.5839	839.1085	2311.9	1449.9
840.729	841.1618	2226.55	1360.15
840.8741	843.2143	2165.8	1304.2
841.0192	845.2662	2127.55	1265.45
841.1643	847.3175	2112.65	1252.4
841.3095	849.368	2100.1	1237.95
841.4546	851.4179	2083.65	1222.3
841.5997	853.467	2085.7	1222.6
841.7448	855.5155	2090.75	1225.9
841.8899	857.5633	2099	1236.75
842.0351	859.6105	2088.35	1225.65
842.1802	861.6569	2087.9	1223.45
842.3253	863.7027	2062.25	1197.35
842.4704	865.7478	2054	1187.9
842.6156	867.7922	2041.55	1178.75
842.7607	869.8359	2024.05	1157.4
842.9058	871.8789	2025.2	1159.1
843.0509	873.9212	2050.05	1153.8
843.1961	875.9629	2032.25	1168.6
843.3412	878.0039	2042.3	1176.15
843.4863	880.0441	2060.3	1193.6
843.6315	882.0837	2081.1	1214.65
843.7766	884.1226	2099.15	1230.9
843.9218	886.1609	2145.8	1281.05
844.0669	888.1984	2194.9	1329.65
844.212	890.2352	2259.4	1392.5
844.3572	892.2714	2274.85	1403.6
844.5023	894.3069	2242.8	1374.25
844.6475	896.3416	2173.1	1306.45
844.7926	898.3757	2132.45	1264.6
844.9377	900.4091	2102.5	1232.55
845.0829	902.4418	2113.35	1241.15
845.228	904.4739	2137.7	1267
845.3732	906.5052	2143	1274.7
845.5183	908.5358	2144.8	1275.75
845.6635	910.5658	2120.3	1250.15
845.8086	912.595	2073.3	1205.35
845.9538	914.6236	2030.65	1161.45
846.0989	916.6515	2006.6	1139.05
846.2441	918.6786	1978.3	1108.1
846.3892	920.7051	1978	1107.7
846.5344	922.7309	1972.25	1103.65
846.6795	924.756	1981	1110.45
846.8246	926.7804	1988.7	1118.7
846.9698	928.8041	1992.5	1120.6
847.1149	930.8272	2013.35	1144.65
847.2601	932.8495	2020.55	1150.65
847.4052	934.8711	2037.7	1167.8
847.5504	936.892	2030.9	1160.15
847.6955	938.9123	2067.7	1195.5
847.8407	940.9318	2093.5	1224.3
847.9858	942.9506	2102.15	1232.45
848.131	944.9688	2094.5	1224.45
848.2761	946.9862	2065.8	1194.95
848.4213	949.003	2031.1	1161.15
848.5664	951.019	1999.45	1128.4
848.7115	953.0344	1975.7	1102.75
848.8567	955.0491	1970.05	1098.9
849.0018	957.063	1948.9	1074.25
849.147	959.0763	1959.3	1088.45
849.2921	961.0888	1955.05	1082.15
849.4373	963.1007	1946.5	1074.05
849.5824	965.1119	1939.55	1069.4
849.7275	967.1223	1941.65	1071.55
849.8727	969.1321	1934.8	1065.65
850.0178	971.1412	1928.85	1059.5
850.1629	973.1495	1922.9	1051.6
850.3081	975.1572	1950.5	1047.55
850.4532	977.1641	1912.4	1042.25
850.5983	979.1704	1921.35	1047
850.7435	981.1759	1920.4	1045.9
850.8886	983.1808	1912.75	1036.6
851.0337	985.1849	1915.25	1031.15
851.1788	987.1884	1889.6	1012.95
851.324	989.1911	1907.9	1032.3
851.4691	991.1932	1918.85	1044
851.6142	993.1945	1913.9	1038
851.7593	995.1951	1922.7	1049.9
851.9045	997.1951	1916.8	1035.95
852.0496	999.1943	1898.95	1026
852.1947	1001.1928	1920.25	1047.05
852.3398	1003.1906	1910.35	1035.1
852.4849	1005.1877	1947.2	1071.8
852.63	1007.1841	1964.3	1090.1
852.7751	1009.1798	1987.8	1112.15
852.9202	1011.1748	1980.05	1107.65
853.0653	1013.1691	1952.5	1078.2
853.2104	1015.1627	1919.55	1047.5
853.3555	1017.1556	1879.95	1006.15
853.5006	1019.1477	1864.15	989.45
853.6457	1021.1392	1835.35	962.55
853.7908	1023.1299	1834.4	959.6
853.9359	1025.12	1831.5	957.65
854.081	1027.1093	1833	963.2
854.2261	1029.0979	1857.1	989.1
854.3712	1031.0859	1881.1	1011.85
854.5163	1033.0731	1900.15	1025.15
854.6613	1035.0596	1897.8	1026.6
854.8064	1037.0454	1886.7	1012.85
854.9515	1039.0304	1873.85	997.6
855.0965	1041.0148	1850.6	976.05
855.2416	1042.9985	1820.75	946.1
855.3867	1044.9814	1814.3	942.6
855.5317	1046.9636	1817.85	939.4
855.6768	1048.9452	1815.85	942.75
855.8219	1050.926	1840.15	966.25
855.9669	1052.9061	1859.1	983.8
856.112	1054.8855	1859.5	984.4
856.257	1056.8642	1865.85	988.3
856.4021	1058.8421	1866.35	986.9
856.5471	1060.8194	1858.8	981.35
856.6921	1062.7959	1854	976.25
856.8372	1064.7717	1850.2	970.9
856.9822	1066.7469	1845.2	967.95
857.1272	1068.7213	1848.7	972.85
857.2723	1070.695	1875.65	997.95
857.4173	1072.6679	1889.95	1011.6
857.5623	1074.6402	1925.25	1048
857.7073	1076.6117	1930.4	1048.3
857.8523	1078.5826	1910.2	1034.75
857.9973	1080.5527	1875.8	995.15
858.1423	1082.5221	1827.95	948.9
858.2873	1084.4908	1798.25	920.3
858.4323	1086.4587	1774.9	896.25
858.5773	1088.426	1767.65	889.85
858.7223	1090.3925	1769.2	888.25
858.8673	1092.3584	1776.75	902.35
859.0123	1094.3235	1780	904.75
859.1573	1096.2879	1812.9	936.3
859.3022	1098.2515	1826.65	948.8
859.4472	1100.2145	1856.55	978.65
859.5922	1102.1767	1898.65	1016.95
859.7371	1104.1382	1945	1069
859.8821	1106.099	2004.15	1123.75
860.027	1108.0591	2059.5	1182.45
860.172	1110.0185	2097.35	1216.05
860.3169	1111.9771	2141.5	1266.05
860.4619	1113.9351	2191.85	1315.1
860.6068	1115.8923	2264	1385.95
860.7517	1117.8488	2300.35	1420.6
860.8967	1119.8045	2251.85	1373.95
861.0416	1121.7596	2146.35	1266.9
861.1865	1123.7139	2029.5	1154.35
861.3314	1125.6675	1969.65	1090.1
861.4763	1127.6204	1962.45	1083.35
861.6212	1129.5726	1981.4	1103.45
861.7661	1131.524	1977.25	1100
861.911	1133.4748	1938.6	1060.5
862.0559	1135.4248	1872.9	992.45
862.2008	1137.3741	1813.85	938.5
862.3457	1139.3226	1795.05	916.2
862.4905	1141.2705	1790.45	913.4
862.6354	1143.2176	1792.85	907.8
862.7803	1145.164	1804.05	922.8
862.9251	1147.1097	1801.85	922.7
863.07	1149.0546	1785.9	905.3
863.2148	1150.9989	1757.35	879.1
863.3597	1152.9424	1738.6	858.6
863.5045	1154.8852	1717.15	837.65
863.6493	1156.8272	1711.25	833.35
863.7942	1158.7686	1715.9	830.8
863.939	1160.7092	1710	831.5
864.0838	1162.6491	1720.7	841.4
864.2286	1164.5883	1724.3	847
864.3734	1166.5267	1747.75	866.75
864.5182	1168.4644	1770.7	890.6
864.663	1170.4014	1802.25	923.1
864.8078	1172.3377	1854.45	974.8
864.9526	1174.2732	1905.6	1025.65
865.0974	1176.2081	1995.95	1115.15
865.2421	1178.1421	2132.1	1248.05
865.3869	1180.0755	2279.45	1401.4
865.5317	1182.0082	2337.85	1459.05
865.6764	1183.9401	2329.65	1449.55
865.8212	1185.8713	2228.75	1350.85
865.9659	1187.8017	2076.25	1197.2
866.1106	1189.7315	1962.35	1090.05
866.2554	1191.6605	1896.6	990.55
866.4001	1193.5888	1817.45	939.8
866.5448	1195.5163	1788	910.25
866.6895	1197.4432	1756.1	875.65
866.8342	1199.3693	1738.55	858.75
866.9789	1201.2947	1726.55	843
867.1236	1203.2193	1719.3	839
867.2683	1205.1432	1710	829.8
867.413	1207.0664	1701.6	820.6
867.5576	1208.9889	1715.15	832.35
867.7023	1210.9106	1718.1	837.3
867.847	1212.8316	1713.85	834.55
867.9916	1214.7519	1731.05	842
868.1363	1216.6715	1745.3	863.4
868.2809	1218.5903	1752.55	873.4
868.4255	1220.5084	1764.3	884.4
868.5701	1222.4257	1779.65	900.65
868.7148	1224.3424	1792.15	912.45
868.8594	1226.2583	1818.35	933.9
869.004	1228.1735	1853.1	971.55
869.1486	1230.0879	1893.2	1014.35
869.2932	1232.0016	1934.55	1054.8
869.4377	1233.9146	1978.45	1095.15
869.5823	1235.8269	1993.3	1113.5
869.7269	1237.7384	2012.85	1132.2
869.8715	1239.6492	1998.3	1117.6
870.016	1241.5592	2017.7	1134.95
870.1606	1243.4686	2064.3	1183.45
870.3051	1245.3772	2144.45	1261.95
870.4496	1247.285	2251.95	1368.7
870.5941	1249.1922	2333	1450.9
870.7387	1251.0986	2408.4	1526.65
870.8832	1253.0042	2480.25	1597.45
871.0277	1254.9092	2573.85	1694.55
871.1722	1256.8134	2675.75	1794.75
871.3167	1258.7169	2778.05	1897.3
871.4611	1260.6196	2823.9	1944.85
871.6056	1262.5216	2842.4	1959.7
871.7501	1264.4229	2817.65	1937.4
871.8945	1266.3234	2784.8	1904.2
872.039	1268.2232	2740.55	1858.55
872.1834	1270.1223	2668.65	1784
872.3278	1272.0207	2639.1	1757.4
872.4723	1273.9183	2608.25	1719.15
872.6167	1275.8151	2602.65	1721.8
872.7611	1277.7113	2660.4	1778.1
872.9055	1279.6067	2747.4	1866.25
873.0499	1281.5014	2894.3	2010.65
873.1943	1283.3953	3093.15	2208.3
873.3386	1285.2885	3303.8	2421.2
873.483	1287.181	3460.65	2577.35
873.6274	1289.0727	3513.1	2631.05
873.7717	1290.9637	3466.1	2582.45
873.9161	1292.854	3364.4	2481.45
874.0604	1294.7435	3234.9	2351.55
874.2047	1296.6323	3115.6	2235.2
874.349	1298.5204	2986.35	2101.8
874.4933	1300.4077	2915.9	2033.45
874.6376	1302.2943	2850.05	1966.6
874.7819	1304.1802	2807	1926.25
874.9262	1306.0653	2762.1	1875.75
875.0705	1307.9497	2730.95	1849.85
875.2147	1309.8333	2696.65	1816.15
875.359	1311.7162	2668.3	1786.4
875.5032	1313.5984	2635.2	1748.25
875.6475	1315.4798	2611.35	1719.45
875.7917	1317.3605	2602.75	1715.85
875.9359	1319.2405	2589.8	1706.9
876.0801	1321.1197	2573.7	1688.9
876.2243	1322.9982	2540.55	1652.45
876.3685	1324.876	2449.6	1565.8
876.5127	1326.753	2352.5	1469.05
876.6569	1328.6293	2242.05	1356.85
876.801	1330.5048	2162	1278.85
876.9452	1332.3796	2063.6	1181.05
877.0893	1334.2537	2023.5	1114.3
877.2335	1336.127	1965.95	1083.45
877.3776	1337.9996	1926.75	1042.4
877.5217	1339.8714	1909.05	1026.2
877.6658	1341.7426	1929.3	999.9
877.8099	1343.6129	1876.45	993.05
877.954	1345.4826	1849.2	966.65
878.0981	1347.3515	1835	947.3
878.2422	1349.2196	1817.6	934
878.3862	1351.087	1812.9	927.3
878.5303	1352.9537	1805.2	920.9
878.6743	1354.8197	1815.35	932.1
878.8184	1356.6849	1823.35	940.1
878.9624	1358.5493	1842.9	960.25
879.1064	1360.4131	1863.75	981.35
879.2504	1362.276	1904.65	1021.55
879.3944	1364.1383	1947.8	1066.45
879.5384	1365.9998	1971.1	1082
879.6823	1367.8606	1944.9	1060.05
879.8263	1369.7206	1938.5	1054.3
879.9702	1371.5799	1945.8	1060.55
880.1142	1373.4384	1930.4	1047.3
880.2581	1375.2962	1894.55	1008.1
880.402	1377.1533	1836.55	954.25
880.5459	1379.0096	1788.2	905
880.6898	1380.8652	1755.05	872.25
880.8337	1382.7201	1723.45	839.05
880.9776	1384.5742	1696.05	811.05
881.1215	1386.4275	1670.1	785.3
881.2653	1388.2802	1652.15	768.8
881.4092	1390.132	1627.65	744.45
881.553	1391.9832	1622.95	739.05
881.6968	1393.8336	1617.9	732.4
881.8406	1395.6832	1628.2	741.9
881.9844	1397.5322	1601.45	717.25
882.1282	1399.3803	1598.2	708.05
882.272	1401.2278	1576.05	692.3
882.4158	1403.0745	1568.25	683.45
882.5595	1404.9204	1563.2	681.45
882.7033	1406.7656	1557.2	675.9
882.847	1408.6101	1553	665.95
882.9908	1410.4538	1556	673.95
883.1345	1412.2968	1552.35	668.5
883.2782	1414.139	1543.3	658.6
883.4219	1415.9805	1566.05	682.5
883.5656	1417.8213	1586.15	696.7
883.7092	1419.6613	1589.15	706.4
883.8529	1421.5006	1620.6	736.55
883.9965	1423.3391	1661.6	776.3
884.1402	1425.1769	1721.3	838.55
884.2838	1427.0139	1803.05	917.35
884.4274	1428.8502	1896	1012.85
884.571	1430.6858	1977.35	1092.75
884.7146	1432.5206	1998.15	1111.6
884.8582	1434.3547	1989.25	1105.25
885.0018	1436.188	1965.7	1080.15
885.1453	1438.0206	1946.8	1062.2
885.2889	1439.8524	1940.2	1056.3
885.4324	1441.6835	1941.4	1056.2
885.5759	1443.5139	1940.45	1052.7
885.7194	1445.3435	1948.85	1066.25
885.8629	1447.1724	1950.95	1068.75
886.0064	1449.0005	1939.1	1055.25
886.1499	1450.8279	1933.25	1047.05
886.2933	1452.6545	1926.35	1043.5
886.4368	1454.4804	1936.8	1054.15
886.5802	1456.3056	1925.65	1034.3
886.7237	1458.13	1892.2	1007.3
886.8671	1459.9536	1868.65	983.95
887.0105	1461.7766	1829.3	946.3
887.1539	1463.5987	1780.85	895.25
887.2972	1465.4202	1740	855.4
887.4406	1467.2409	1712	829.5
887.584	1469.0608	1667.65	782.55
887.7273	1470.88	1636.45	753.3
887.8706	1472.6984	1607.15	721.5
888.0139	1474.5161	1586.4	701.4
888.1572	1476.3331	1562.2	680.55
888.3005	1478.1493	1558.15	673.9
888.4438	1479.9648	1540.7	657.85
888.5871	1481.7795	1544.85	661.3
888.7303	1483.5935	1550.8	665.7
888.8736	1485.4067	1550.8	668.15
889.0168	1487.2192	1556.25	669.8
889.16	1489.031	1549.8	664.85
889.3032	1490.842	1546.2	661.5
889.4464	1492.6522	1548.7	665.35
889.5896	1494.4618	1550.25	664.75
889.7327	1496.2705	1535.25	652.8
889.8759	1498.0785	1532.35	646.7
890.019	1499.8858	1531.85	646.25
890.1622	1501.6924	1519.9	633.9
890.3053	1503.4981	1518.75	634.95
890.4484	1505.3032	1507	622
890.5914	1507.1075	1499.55	614
890.7345	1508.911	1489.25	605.65
890.8776	1510.7138	1488.6	603.45
891.0206	1512.5159	1471.9	588.95
891.1637	1514.3172	1472.85	586.7
891.3067	1516.1178	1452.4	571.2
891.4497	1517.9176	1461.45	573.15
891.5927	1519.7166	1458.85	575.5
891.7357	1521.515	1454.9	565.45
891.8786	1523.3126	1446.45	560.6
892.0216	1525.1094	1435.1	549.9
892.1645	1526.9055	1431.25	547.9
892.3074	1528.7008	1425.7	539.95
892.4503	1530.4954	1429.25	539.1
892.5932	1532.2893	1420.8	537.5
892.7361	1534.0824	1421.55	532.55
892.879	1535.8747	1412	529.9
893.0218	1537.6663	1409.7	527.65
893.1647	1539.4572	1419.55	534.4
893.3075	1541.2473	1421	536.45
893.4503	1543.0367	1411.75	525.8
893.5931	1544.8253	1424.6	537.1
893.7359	1546.6132	1426.9	541.15
893.8787	1548.4003	1433.3	541.2
894.0214	1550.1867	1435.25	544.85
894.1642	1551.9723	1447	558.4
894.3069	1553.7572	1453.35	569.75
894.4496	1555.5414	1479.3	596.9
894.5923	1557.3247	1510.75	624.05
894.735	1559.1074	1541.95	660.6
894.8777	1560.8893	1588.3	706.5
895.0204	1562.6705	1623.15	740.45
895.163	1564.4509	1653.6	771.15
895.3056	1566.2305	1660.25	780.7
895.4482	1568.0094	1673.95	791.55
895.5908	1569.7876	1666.2	784.9
895.7334	1571.565	1659.35	775.95
895.876	1573.3417	1670.2	788.35
896.0186	1575.1176	1663.65	781.6
896.1611	1576.8928	1683.15	800.6
896.3036	1578.6672	1705.3	825.05
896.4461	1580.4409	1733.1	850
896.5886	1582.2138	1766.4	881.85
896.7311	1583.986	1810.25	927.75
896.8736	1585.7575	1857.65	976.15
897.0161	1587.5282	1882.6	1002.1
897.1585	1589.2981	1914.6	1034.6
897.3009	1591.0673	1940.45	1059.65
897.4433	1592.8358	1932.15	1051.8
897.5857	1594.6035	1935.25	1049.75
897.7281	1596.3704	1937.05	1056.45
897.8705	1598.1366	1903.25	1019.75
898.0128	1599.9021	1884.9	1004
898.1551	1601.6668	1854.9	973.45
898.2975	1603.4308	1835.05	952.45
898.4398	1605.194	1843.15	956.2
898.5821	1606.9564	1860.75	979.8
898.7243	1608.7182	1930.1	1046.95
898.8666	1610.4791	2005.2	1127.9
899.0088	1612.2394	2111.75	1232.55
899.1511	1613.9988	2224.05	1345.4
899.2933	1615.7576	2304.45	1423.95
899.4355	1617.5156	2349.7	1462.8
899.5776	1619.2728	2316	1435.3
899.7198	1621.0293	2232.85	1352
899.862	1622.785	2108.5	1220.95
900.0041	1624.54	1973.4	1088.9
900.1462	1626.2942	1844.45	962.95
900.2883	1628.0477	1734	852
900.4304	1629.8005	1644.3	759.35
900.5725	1631.5525	1583.75	702.2
900.7145	1633.3037	1523	642.6
900.8566	1635.0542	1476	596.15
900.9986	1636.804	1450.35	569.4
901.1406	1638.553	1477.3	537
901.2826	1640.3013	1402.5	520.85
901.4245	1642.0488	1380.35	499.95
901.5665	1643.7955	1364.1	482.8
901.7085	1645.5416	1355.6	476.65
901.8504	1647.2868	1343.3	460.45
901.9923	1649.0313	1340.25	458.95
902.1342	1650.7751	1332	447.45
902.2761	1652.5181	1325.4	447.35
902.4179	1654.2604	1325.1	443.45
902.5598	1656.0019	1333.65	454.8
902.7016	1657.7427	1345.65	466
902.8434	1659.4828	1362.05	481.95
902.9852	1661.222	1390.7	508.6
903.127	1662.9606	1439.35	558.2
903.2687	1664.6984	1461.45	579.4
903.4105	1666.4354	1480.45	599
903.5522	1668.1717	1447.7	566.5
903.6939	1669.9072	1412.7	530
903.8356	1671.642	1365.55	480.7
903.9773	1673.3761	1318.15	437.7
904.119	1675.1094	1293.85	412.15
904.2606	1676.8419	1268.85	386.45
904.4022	1678.5737	1249.45	367.25
904.5439	1680.3048	1240.8	359.2
904.6855	1682.0351	1232.25	351.8
904.827	1683.7646	1226.95	342.1
904.9686	1685.4934	1224.95	345.9
905.1101	1687.2215	1218.75	338.7
905.2517	1688.9488	1208.9	327.75
905.3932	1690.6754	1206.8	324.8
905.5347	1692.4012	1202.75	321.75
905.6761	1694.1263	1201	320.7
905.8176	1695.8506	1199.7	316.25
905.9591	1697.5742	1195	314.9
906.1005	1699.297	1191.5	312.55
906.2419	1701.0191	1189	308.7
906.3833	1702.7404	1190.65	310.05
906.5246	1704.461	1188.9	306.2
906.666	1706.1808	1187.35	305.65
906.8073	1707.8999	1175.3	292.1
906.9487	1709.6182	1179.7	299.6
907.09	1711.3358	1173.6	293.75
907.2313	1713.0527	1168.9	291.15
907.3725	1714.7688	1176	291.15
907.5138	1716.4841	1174.1	293.2
907.655	1718.1987	1173.3	289.65
907.7962	1719.9126	1173.45	295
907.9374	1721.6257	1162.3	279.95
908.0786	1723.338	1169.75	289.9
908.2198	1725.0496	1168.05	285.8
908.3609	1726.7605	1167	285.1
908.502	1728.4706	1163.1	284.95
908.6431	1730.18	1159.75	278.3
908.7842	1731.8886	1159.1	279.4
908.9253	1733.5964	1178.4	277.6
909.0664	1735.3036	1159.9	278.35
909.2074	1737.0099	1154.7	274.5
909.3484	1738.7156	1155.55	276.65
909.4894	1740.4204	1157.55	272.75
909.6304	1742.1246	1155.6	273.65
909.7714	1743.8279	1160	280.65
909.9123	1745.5306	1157.85	276.95
910.0532	1747.2325	1153.7	275.05
910.1941	1748.9336	1152.25	270.95
910.335	1750.634	1154.3	270.35
910.4759	1752.3336	1144.65	262.85
910.6168	1754.0325	1152.05	274.45
910.7576	1755.7307	1150.4	271.2
910.8984	1757.4281	1147.7	268.9
911.0392	1759.1247	1153.55	264.25
911.18	1760.8206	1151.9	265.9
911.3208	1762.5158	1151.85	266.9
911.4615	1764.2102	1145.25	265.25
911.6022	1765.9039	1142.2	259.45
911.7429	1767.5968	1141.15	261.85
911.8836	1769.289	1144.05	261.85
912.0243	1770.9804	1148.9	268.65
912.1649	1772.6711	1141.3	260
912.3056	1774.361	1140.15	255.75
912.4462	1776.0502	1140.85	261.45
912.5868	1777.7386	1142.45	257.75
912.7274	1779.4263	1133.6	253.85
912.8679	1781.1132	1139.35	259.8
913.0084	1782.7994	1137.65	257.35
913.149	1784.4849	1134.6	255
913.2895	1786.1696	1150.45	250.85
913.4299	1787.8535	1138.35	258.7
913.5704	1789.5367	1134.4	255.45
913.7108	1791.2192	1138.35	259.5
913.8513	1792.9009	1160.65	253.15
913.9917	1794.5818	1131.5	251.3
914.132	1796.2621	1130	250.25
914.2724	1797.9415	1132.55	252.3
914.4128	1799.6202	1126.3	243.4
914.5531	1801.2982	1130.4	248
914.6934	1802.9755	1127.35	246.25
914.8337	1804.6519	1130.85	249.1
914.9739	1806.3277	1127.6	248.3
915.1142	1808.0027	1121.15	242.45
915.2544	1809.6769	1119.6	241.25
915.3946	1811.3504	1122.15	243.15
915.5348	1813.0231	1123.95	245.6
915.675	1814.6951	1120.15	239.6
915.8151	1816.3664	1120.25	238.6
915.9553	1818.0369	1121.75	239.25
916.0954	1819.7067	1121.75	241.75
916.2355	1821.3757	1122.15	241.3
916.3755	1823.044	1121.15	241.2
916.5156	1824.7115	1115.45	234.15
916.6556	1826.3783	1114.7	234.3
916.7956	1828.0443	1117.55	237.7
916.9356	1829.7096	1118.35	235.6
917.0756	1831.3741	1114.4	231.9
917.2155	1833.0379	1114.6	234.65
917.3555	1834.701	1112.55	229.65
917.4954	1836.3633	1114.1	234.25
917.6353	1838.0248	1116.2	233.75
917.7751	1839.6856	1117.5	238.1
917.915	1841.3457	1112.55	233.05
918.0548	1843.005	1111.35	231.45
918.1946	1844.6636	1107.65	229
918.3344	1846.3214	1111.05	231.6
918.4742	1847.9785	1110.2	230.3
918.6139	1849.6349	1114.1	232.7
918.7537	1851.2904	1119.9	231.05
918.8934	1852.9453	1111.05	230.15
919.0331	1854.5994	1110.55	226.9
919.1727	1856.2528	1112.15	226.75
919.3124	1857.9054	1108.1	224.9
919.452	1859.5572	1104.4	221.7
919.5916	1861.2083	1108.55	225.8
919.7312	1862.8587	1104.65	224.75
919.8708	1864.5084	1105.5	223.25
920.0103	1866.1572	1103.55	223.75
920.1498	1867.8054	1108.35	227.7
920.2893	1869.4528	1106.85	224.85
920.4288	1871.0994	1097.85	217
920.5683	1872.7453	1100.25	218.35
920.7077	1874.3905	1106.35	219.05
920.8471	1876.0349	1100	218.6
920.9865	1877.6786	1104.5	222.4
921.1259	1879.3215	1096.95	217.35
921.2653	1880.9637	1100.85	216.6
921.4046	1882.6051	1097.1	217.7
921.5439	1884.2458	1097.7	214
921.6832	1885.8858	1096.2	215.85
921.8225	1887.525	1096.65	215.4
921.9617	1889.1634	1094.95	215.6
922.101	1890.8011	1092.95	212
922.2402	1892.4381	1095.15	212.55
922.3794	1894.0743	1092	211.4
922.5185	1895.7098	1091.45	212.45
922.6577	1897.3446	1091.95	209.25
922.7968	1898.9786	1093.8	208.25
922.9359	1900.6118	1086.9	205.15
923.075	1902.2443	1088.55	206.5
923.214	1903.8761	1087.95	207.05
923.3531	1905.5071	1092.5	210.35
923.4921	1907.1374	1085.9	203.9
923.6311	1908.7669	1085.85	206.35
923.77	1910.3957	1085.25	205.5
923.909	1912.0237	1084.5	202.75
924.0479	1913.651	1086.05	205.65
924.1868	1915.2776	1086.05	206
924.3257	1916.9034	1083.35	204.3
924.4646	1918.5285	1076	196.05
924.6034	1920.1528	1086.7	205
924.7422	1921.7764	1083.15	202.9
924.881	1923.3992	1085.5	204.1
925.0198	1925.0213	1083.25	202.85
925.1586	1926.6427	1081.85	201.9
925.2973	1928.2633	1285.15	191.4
925.436	1929.8832	1086.65	199.8
925.5747	1931.5023	1079.95	198.95
925.7134	1933.1207	1077	195.8
925.852	1934.7383	1076.25	194.7
925.9906	1936.3552	1077.65	197.65
926.1292	1937.9714	1078.8	198.7
926.2678	1939.5868	1078.2	196.95
926.4064	1941.2015	1073.7	192.8
926.5449	1942.8154	1078.3	197.5
926.6834	1944.4286	1073.35	191.3
926.8219	1946.041	1099	194.25
926.9604	1947.6528	1075.1	189.1
927.0988	1949.2637	1072.6	191.1
927.2372	1950.8739	1069.5	188.45
927.3756	1952.4834	1075.5	194.35
927.514	1954.0921	1072.05	194.2
927.6523	1955.7001	1070.75	187.35
927.7907	1957.3074	1071.15	192.25
927.929	1958.9139	1064.65	185.3
928.0673	1960.5197	1067.65	186.25
928.2055	1962.1247	1067.75	186.65
928.3438	1963.729	1061.3	180.9
928.482	1965.3325	1064.35	179.15
928.6202	1966.9353	1064.05	186.15
928.7584	1968.5374	1064.15	183.35
928.8965	1970.1387	1065	184.45
929.0346	1971.7393	1061.45	181.9
929.1727	1973.3392	1058.05	177.95
929.3108	1974.9383	1057.75	178.6
929.4489	1976.5366	1058.9	178.85
929.5869	1978.1342	1058.6	180.7
929.7249	1979.7311	1061.95	182.1
929.8629	1981.3273	1059.85	179.35
930.0009	1982.9227	1064.45	185.1
930.1388	1984.5173	1061.7	184.85
930.2767	1986.1112	1059.9	180.7
930.4146	1987.7044	1056.2	178.45
930.5525	1989.2968	1058.25	179.75
930.6904	1990.8885	1063.7	181.5
930.8282	1992.4795	1056.6	177.3
930.966	1994.0697	1052.2	173.1
931.1038	1995.6592	1055.8	177.85
931.2415	1997.2479	1053.3	173.05
931.3793	1998.8359	1055.95	177.95
931.517	2000.4232	1056.85	182.2
931.6547	2002.0097	1053.45	176.9
931.7923	2003.5955	1054.25	174.7
931.93	2005.1805	1049.6	171.2
932.0676	2006.7648	1049.75	173
932.2052	2008.3484	1052.2	172.25
932.3427	2009.9312	1051.5	173.25
932.4803	2011.5133	1049.4	172.45
932.6178	2013.0946	1052.15	176.7
932.7553	2014.6752	1049.3	172.25
932.8928	2016.2551	1051.85	174.75
933.0302	2017.8342	1051.8	173.25
933.1676	2019.4126	1049.8	173.5
933.305	2020.9902	1044.05	166.35
933.4424	2022.5672	1050.4	171.95
933.5798	2024.1433	1055.25	173.05
933.7171	2025.7188	1045.45	169.3
933.8544	2027.2935	1045.6	167.5
933.9917	2028.8674	1047.5	171.4
934.129	2030.4406	1048	173.1
934.2662	2032.0131	1040.8	164.6
934.4034	2033.5849	1044.4	162.95
934.5406	2035.1559	1041.8	165.85
934.6778	2036.7261	1045.3	167.25
934.8149	2038.2957	1046.65	167.7
934.952	2039.8645	1045.85	167
935.0891	2041.4325	1047.3	166.65
935.2262	2042.9998	1045.5	169.75
935.3632	2044.5664	1048.95	168.8
935.5002	2046.1323	1041.9	163.4
935.6372	2047.6974	1042.55	166.7
935.7742	2049.2617	1043.05	166.75
935.9111	2050.8254	1046.05	161.9
936.048	2052.3883	1043.35	166.25
936.1849	2053.9504	1042.9	165.15
936.3218	2055.5118	1045.05	167.2
936.4586	2057.0725	1048.7	166.65
936.5955	2058.6325	1041.55	163.1
936.7323	2060.1917	1039.95	164.4
936.869	2061.7502	1041.65	161.75
937.0058	2063.3079	1040.85	164.3
937.1425	2064.8649	1043.75	165.6
937.2792	2066.4212	1040.45	160.25
937.4159	2067.9767	1040.5	162.55
937.5525	2069.5315	1040.4	161.55
937.6891	2071.0856	1039.55	162.6
937.8257	2072.6389	1037.45	158.4
937.9623	2074.1915	1036.15	159.25
938.0989	2075.7433	1037.65	159.25
938.2354	2077.2945	1036.9	160.25
938.3719	2078.8448	1040.05	164.45
938.5084	2080.3945	1039	163.35
938.6448	2081.9434	1034.7	156.4
938.7812	2083.4916	1038.45	160.45
938.9176	2085.039	1039.7	155.95
939.054	2086.5857	1041.35	163.05
939.1903	2088.1317	1039.3	160.35
939.3267	2089.677	1040.9	158.9
939.463	2091.2215	1037.45	157.85
939.5992	2092.7652	1037.15	157.35
939.7355	2094.3083	1035.25	155.85
939.8717	2095.8506	1037.2	159.8
940.0079	2097.3921	1038.45	160.8
940.1441	2098.933	1032	153.35
940.2802	2100.4731	1033.7	155.05
940.4163	2102.0124	1053.95	157.7
940.5524	2103.5511	1039.1	160.2
940.6885	2105.089	1038.75	159.35
940.8245	2106.6261	1034.25	155
940.9606	2108.1626	1035.8	157.45
941.0965	2109.6983	1060.95	155.25
941.2325	2111.2332	1035.5	157.6
941.3684	2112.7675	1032.8	151.2
941.5044	2114.301	1039.35	159.75
941.6403	2115.8337	1033.7	154.6
941.7761	2117.3657	1034.65	156.3
941.912	2118.897	1035.6	156.15
942.0478	2120.4276	1043.7	159.1
942.1835	2121.9575	1037.6	159.7
942.3193	2123.4866	1048.9	154.55
942.455	2125.0149	1042.85	162.25
942.5907	2126.5426	1033.3	155.05
942.7264	2128.0695	1034.05	151.05
942.8621	2129.5956	1032.05	156.65
942.9977	2131.1211	1037.9	155.05
943.1333	2132.6458	1031.2	153.9
943.2689	2134.1698	1030.2	150.25
943.4044	2135.693	1029.15	148.1
943.54	2137.2155	1035.25	155.55
943.6755	2138.7373	1031.65	152.5
943.8109	2140.2584	1030.85	153.7
943.9464	2141.7787	1039.1	156.2
944.0818	2143.2983	1027.7	151.2
944.2172	2144.8171	1027.5	149.5
944.3526	2146.3353	1030.15	151.95
944.4879	2147.8527	1028.65	152.25
944.6232	2149.3693	1027.25	149.8
944.7585	2150.8853	1030.25	152.1
944.8938	2152.4005	1029.7	151.3
945.029	2153.9149	1030	151.2
945.1642	2155.4287	1028.45	149.7
945.2994	2156.9417	1030.5	151.85
945.4346	2158.454	1030.65	149.75
945.5697	2159.9655	1025.55	148.5
945.7048	2161.4764	1028.6	152.1
945.8399	2162.9865	1026.1	147.55
945.9749	2164.4958	1027.25	149.55
946.1099	2166.0045	1027.15	147
946.2449	2167.5124	1025.15	147.25
946.3799	2169.0195	1025.45	146.5
946.5148	2170.526	1025.7	146.1
946.6498	2172.0317	1030	152.25
946.7846	2173.5367	1024.85	145.2
946.9195	2175.0409	1022.15	145.2
947.0543	2176.5445	1027.75	150.05
947.1891	2178.0473	1026	146.6
947.3239	2179.5494	1022.6	141.2
947.4587	2181.0507	1021.35	143.85
947.5934	2182.5513	1021.85	143.55
947.7281	2184.0512	1021.05	143.1
947.8628	2185.5504	1023.35	146.25
947.9974	2187.0488	1024	146.1
948.132	2188.5465	1018.85	141.1
948.2666	2190.0435	1024.4	145.5
948.4012	2191.5397	1021.3	143.75
948.5357	2193.0353	1021.45	141.85
948.6702	2194.5301	1017.9	136.9
948.8047	2196.0241	1023	142.6
948.9392	2197.5175	1019.3	141.45
949.0736	2199.0101	1023.9	141.55
949.208	2200.502	1018	142.15
949.3424	2201.9931	1018	139.75
949.4767	2203.4835	1018.3	139.05
949.611	2204.9733	1032.5	135.7
949.7453	2206.4622	1013.6	138.4
949.8796	2207.9505	1018.35	138.75
950.0138	2209.438	1013.8	139.05
950.148	2210.9248	1017.2	138.55
950.2822	2212.4109	1015.05	138.4
950.4164	2213.8962	1020.4	138.8
950.5505	2215.3809	1018.6	138.95
950.6846	2216.8648	1016.7	136.9
950.8186	2218.3479	1018.75	133.85
950.9527	2219.8304	1018.2	135.85
951.0867	2221.3121	1016.85	136
951.2207	2222.7931	1017.6	139.75
951.3546	2224.2733	1015.75	134.35
951.4886	2225.7529	1013.8	136.15
951.6225	2227.2317	1016.55	134.15
951.7563	2228.7098	1010.25	134.55
951.8902	2230.1872	1011.3	133.9
952.024	2231.6638	1012	134.65
952.1578	2233.1397	1016.9	133.8
952.2916	2234.6149	1010.2	133.8
952.4253	2236.0894	1013	132.55
952.559	2237.5632	1018.6	130.25
952.6927	2239.0362	1007.05	129.25
952.8263	2240.5085	1009.7	131
952.9599	2241.9801	1007.45	128.6
953.0935	2243.4509	1007.1	128.35
953.2271	2244.921	1003.55	125.1
953.3606	2246.3904	1006.9	127
953.4941	2247.8591	1007.05	128.7
953.6276	2249.3271	1002.55	123
953.7611	2250.7943	1006.95	128.2
953.8945	2252.2608	1007.7	130
954.0279	2253.7266	1008.05	129.05
954.1612	2255.1917	1002.7	122.85
954.2946	2256.656	1003.6	124.2
954.4279	2258.1197	1006.55	130.65
954.5612	2259.5826	1007.9	128.65
954.6944	2261.0447	1003.5	124.55
954.8276	2262.5062	1008.55	128.75
954.9608	2263.9669	1005.85	125
955.094	2265.4269	1003.75	124.05
955.2271	2266.8862	1003.8	126
955.3602	2268.3448	1005.35	125.95
955.4933	2269.8026	1001.6	122.2
955.6264	2271.2598	997.8	120
955.7594	2272.7162	1001.7	124.6
955.8924	2274.1719	1000.7	122.5
956.0253	2275.6268	1005.15	124.55
956.1583	2277.0811	1003.2	125.6
956.2912	2278.5346	1002.55	125.55
956.4241	2279.9874	1000.05	122.85
956.5569	2281.4395	997.6	120.95
956.6897	2282.8908	1004.35	120.85
956.8225	2284.3414	1001.25	119.35
956.9553	2285.7914	996.7	121.2
957.088	2287.2406	999.75	119.85
957.2207	2288.689	999.85	124.15
957.3534	2290.1368	1002.15	121.75
957.486	2291.5838	1000.75	118.75
957.6186	2293.0302	1001.65	125.4
957.7512	2294.4758	999.35	121.05
957.8838	2295.9206	999.55	117.1
958.0163	2297.3648	999.8	121.7
958.1488	2298.8082	1000.15	120.45
958.2813	2300.251	997.65	122.1
958.4137	2301.693	998.6	116.9
958.5461	2303.1343	997.1	118.5
958.6785	2304.5748	990.95	111.15
958.8108	2306.0147	997.9	120.7
958.9432	2307.4538	995	114.85
959.0754	2308.8922	996.1	120.45
959.2077	2310.3299	992.8	117
959.3399	2311.7669	992.95	116
959.4721	2313.2031	992.35	114.45
959.6043	2314.6387	994.95	115.7
959.7365	2316.0735	994.2	116.95
959.8686	2317.5076	993.75	117.3
960.0006	2318.941	996.6	118.5
960.1327	2320.3737	992.25	114.85
960.2647	2321.8056	998.15	116.65
960.3967	2323.2369	995.2	115.8
960.5287	2324.6674	998.15	117.2
960.6606	2326.0972	995.65	117.5
960.7925	2327.5263	1000.15	122.95
960.9244	2328.9547	1006.2	125.9
961.0562	2330.3823	1001.65	121.8
961.1881	2331.8092	1001.55	119.65
961.3198	2333.2355	993.9	113.35
961.4516	2334.661	992.35	113.2
961.5833	2336.0858	990.55	110.75
961.715	2337.5098	989.95	110.15
961.8467	2338.9332	989.35	111.8
961.9783	2340.3558	992.2	112.3
962.1099	2341.7778	990.25	110.4
962.2415	2343.199	990.4	111
962.373	2344.6195	991	114.6
962.5045	2346.0393	988.9	112.7
962.636	2347.4583	986.9	107.85
962.7675	2348.8767	987.85	108.35
962.8989	2350.2943	989.5	108.85
963.0303	2351.7113	989.15	108.7
963.1617	2353.1275	987.05	105.55
963.293	2354.543	1011.65	108.3
963.4243	2355.9578	989.75	108.1
963.5556	2357.3718	987.45	110.95
963.6868	2358.7852	986	105.9
963.818	2360.1978	985.25	106.45
963.9492	2361.6098	985.1	107.95
964.0803	2363.021	991.75	107.45
964.2114	2364.4315	987.15	109.25
964.3425	2365.8413	992.1	108.2
964.4736	2367.2504	985.4	107.45
964.6046	2368.6587	983.95	104.65
964.7356	2370.0664	983	105.45
964.8666	2371.4733	983.45	100.65
964.9975	2372.8795	984.3	106.45
965.1284	2374.285	985.9	105
965.2593	2375.6899	981.95	104.7
965.3901	2377.0939	982.05	103
965.5209	2378.4973	984.5	106.75
965.6517	2379.9	978.35	98.7
965.7825	2381.3019	984.1	101.75
965.9132	2382.7032	979.2	103.7
966.0439	2384.1037	981.4	102.85
966.1745	2385.5035	980	102.6
966.3051	2386.9027	978.05	99.35
966.4357	2388.3011	979.75	97.6
966.5663	2389.6987	981.65	104.7
966.6968	2391.0957	979.5	99.35
966.8273	2392.492	976.1	97.5
966.9578	2393.8876	980.05	99.9
967.0882	2395.2824	979.65	98.5
967.2186	2396.6765	977	99.55
967.349	2398.07	977.4	98.85
967.4793	2399.4627	981.5	100.75
967.6097	2400.8547	974.65	95.95
967.7399	2402.246	983.65	97.85
967.8702	2403.6366	978.05	98.2
968.0004	2405.0265	974	95.05
968.1306	2406.4156	979.1	93.25
968.2607	2407.8041	980.2	96.55
968.3909	2409.1918	979.15	96.2
968.521	2410.5789	977.5	97.3
968.651	2411.9652	979.25	95.55
968.781	2413.3508	975.85	95.7
968.911	2414.7358	977.25	95.85
969.041	2416.12	972.4	92.95
969.1709	2417.5035	976.15	97.95
969.3008	2418.8863	974.2	95.2
969.4307	2420.2684	973.4	93.4
969.5606	2421.6497	976.6	96.25
969.6904	2423.0304	972.5	94.1
969.8201	2424.4104	970.4	90.25
969.9499	2425.7896	979.4	92.75
970.0796	2427.1682	972.05	94.1
970.2093	2428.546	974.45	94.7
970.3389	2429.9232	972.85	93.25
970.4685	2431.2996	971.5	92.55
970.5981	2432.6753	970.3	91.1
970.7277	2434.0503	973.65	93
970.8572	2435.4246	974.35	94.1
970.9867	2436.7982	971.4	88.9
971.1161	2438.1711	968.3	90.9
971.2456	2439.5433	972.8	92.25
971.375	2440.9148	970.9	89.45
971.5043	2442.2856	967.7	88.05
971.6336	2443.6557	969.7	88.25
971.7629	2445.025	970.1	89.45
971.8922	2446.3937	969.45	90.9
972.0214	2447.7617	970	90.5
972.1506	2449.1289	970.75	90.3
972.2798	2450.4955	971.65	89.85
972.4089	2451.8613	968.95	90.55
972.538	2453.2265	965.9	86.4
972.6671	2454.5909	967.95	87.7
972.7961	2455.9546	966	87.55
972.9251	2457.3177	967.1	86.1
973.0541	2458.68	971	89.55
973.1831	2460.0416	963.25	84
973.312	2461.4025	967.15	88.1
973.4408	2462.7627	975.95	86.95
973.5697	2464.1222	964.95	88.35
973.6985	2465.4811	967.1	87.6
973.8273	2466.8392	965.5	85.95
973.956	2468.1966	967.55	87
974.0847	2469.5533	966.35	84.85
974.2134	2470.9093	967.45	88.45
974.3421	2472.2645	966.1	84.65
974.4707	2473.6191	964.8	85.8
974.5993	2474.973	966.5	87.8
974.7278	2476.3262	964.7	83.5
974.8563	2477.6787	962.35	85.15
974.9848	2479.0305	963.4	83.4
975.1132	2480.3816	965.5	85.55
975.2417	2481.7319	963.2	82.8
975.37	2483.0816	965.55	84.95
975.4984	2484.4306	963.7	84.6
975.6267	2485.7789	963.75	85.6
975.755	2487.1264	965.05	84.2
975.8833	2488.4733	963.05	83.5
976.0115	2489.8195	970.2	85.2
976.1397	2491.165	967.35	85.9
976.2678	2492.5097	962.25	80.95
976.3959	2493.8538	961.2	82.4
976.524	2495.1972	960.15	80.55
976.6521	2496.5398	960.5	80.05
976.7801	2497.8818	964.35	83.4
976.9081	2499.2231	961.85	84.25
977.036	2500.5637	964.25	82.85
977.164	2501.9035	960.7	80.3
977.2918	2503.2427	965.25	81.5
977.4197	2504.5812	958.85	79.1
977.5475	2505.919	965.95	84.85
977.6753	2507.256	959.05	80
977.8031	2508.5924	957.55	78.5
977.9308	2509.9281	966.75	80.3
978.0585	2511.2631	957.55	79.55
978.1861	2512.5974	958.85	81.2
978.3137	2513.9309	958.55	79.55
978.4413	2515.2638	982.75	76.25
978.5689	2516.596	959.6	83.65
978.6964	2517.9275	956.55	75.7
978.8239	2519.2583	957.85	77.65
978.9513	2520.5884	959.25	77.95
979.0788	2521.9178	959.2	79.8
979.2062	2523.2465	958.05	78.7
979.3335	2524.5745	956.05	76.85
979.4608	2525.9018	956.05	77.5
979.5881	2527.2284	954.55	77.75
979.7154	2528.5543	955.5	77.4
979.8426	2529.8796	956.25	77.45
979.9698	2531.2041	956.65	77.25
980.0969	2532.5279	955.1	78.75
980.224	2533.851	956.9	78.4
980.3511	2535.1735	954.35	76.45
980.4781	2536.4952	952.85	74.45
980.6052	2537.8163	955.4	74.45
980.7321	2539.1366	955.6	77.15
980.8591	2540.4562	956	77.15
980.986	2541.7752	956.85	78.05
981.1129	2543.0935	956.6	78.3
981.2397	2544.411	956.65	76.7
981.3665	2545.7279	952.95	75.6
981.4933	2547.0441	955.15	76.3
981.62	2548.3596	956.95	75.6
981.7467	2549.6744	953.5	75.05
981.8734	2550.9885	959.5	71.9
982.0001	2552.3019	952	75.1
982.1267	2553.6146	952.7	73.25
982.2532	2554.9266	952.7	70.8
982.3798	2556.2379	955.3	73.2
982.5063	2557.5485	953.95	76.4
982.6327	2558.8585	960	73.15
982.7592	2560.1677	955.4	70.8
982.8856	2561.4762	949.4	70.9
983.0119	2562.7841	954	73.35
983.1383	2564.0913	951.35	74.05
983.2646	2565.3977	948.4	70.65
983.3908	2566.7035	951.9	73.15
983.517	2568.0086	949.05	66.85
983.6432	2569.313	949.4	67.5
983.7694	2570.6167	956.55	74.3
983.8955	2571.9197	947.6	69.05
984.0216	2573.222	955.35	72.55
984.1476	2574.5236	951.35	73.55
984.2737	2575.8246	955.25	74.4
984.3996	2577.1248	951.6	69.75
984.5256	2578.4244	949.1	70.9
984.6515	2579.7232	951.1	72.5
984.7774	2581.0214	976.65	70.7
984.9032	2582.3189	947.1	67.45
985.029	2583.6157	954.55	73.65
985.1548	2584.9118	947.05	67.95
985.2806	2586.2072	948	68.3
985.4063	2587.5019	949.25	70.5
985.5319	2588.7959	952.45	72.75
985.6576	2590.0893	951.8	70.55
985.7832	2591.3819	949.2	70.55
985.9087	2592.6739	947.15	68.95
986.0343	2593.9652	953.3	74.05
986.1597	2595.2557	949.1	68.65
986.2852	2596.5456	949.65	68.4
986.4106	2597.8348	949.55	71.55
986.536	2599.1234	949.25	69.6
986.6614	2600.4112	951.2	71.45
986.7867	2601.6983	955.95	74.95
986.912	2602.9848	950.55	74.25
987.0372	2604.2705	957.65	72.65
987.1624	2605.5556	946	66.3
987.2876	2606.84	949.95	70.85
987.4128	2608.1237	949.4	70.05
987.5379	2609.4067	950.35	71.45
987.6629	2610.689	952.95	64.8
987.788	2611.9707	955.9	74.95
987.913	2613.2516	951.15	69.55
988.0379	2614.5319	947.35	66.65
988.1629	2615.8115	949.9	69.65
988.2878	2617.0903	946.3	66.15
988.4126	2618.3685	944.95	66
988.5375	2619.6461	945.5	66.75
988.6622	2620.9229	946.45	67.25
988.787	2622.199	944.5	65.2
988.9117	2623.4745	942.65	64.1
989.0364	2624.7493	947.8	68.7
989.161	2626.0234	944.05	66.5
989.2857	2627.2968	945.7	67.8
989.4102	2628.5695	943.9	64.35
989.5348	2629.8415	941.1	63.95
989.6593	2631.1128	946.55	65.4
989.7837	2632.3835	947.3	67.75
989.9082	2633.6535	939.2	60.9
990.0326	2634.9228	945	66.4
990.1569	2636.1914	940.35	63.3
990.2812	2637.4593	944.75	62
990.4055	2638.7265	943.05	66.35
990.5298	2639.9931	941.4	63.3
990.654	2641.259	942.5	62.8
990.7782	2642.5242	939.9	62.3
990.9023	2643.7887	941.5	62.35
991.0264	2645.0525	940.7	63.25
991.1505	2646.3156	942	62.25
991.2745	2647.5781	940.15	61.7
991.3985	2648.8398	940.3	62.4
991.5225	2650.1009	984	68.9
991.6464	2651.3613	940.15	62.85
991.7703	2652.6211	937.45	57
991.8942	2653.8801	940.4	61.9
992.018	2655.1385	940.75	58.4
992.1418	2656.3961	938.3	58.6
992.2655	2657.6531	936.4	58.65
992.3892	2658.9094	938.55	58.75
992.5129	2660.1651	937.4	59.65
992.6366	2661.42	940.5	62.65
992.7602	2662.6743	939.7	59.35
992.8837	2663.9279	939.45	62.15
993.0073	2665.1808	941.05	63.85
993.1307	2666.433	943.9	63.6
993.2542	2667.6846	941	63.8
993.3776	2668.9354	941.15	58.8
993.501	2670.1856	943.15	65.55
993.6244	2671.4351	938.85	60.95
993.7477	2672.6839	943.8	61.95
993.8709	2673.9321	937.3	59.55
993.9942	2675.1795	940.6	61.55
994.1174	2676.4263	939.3	61.85
994.2405	2677.6724	937.95	59.9
994.3637	2678.9179	942.25	63.85
994.4868	2680.1626	940.45	60.45
994.6098	2681.4067	937.8	60.95
994.7328	2682.6501	939.85	62.45
994.8558	2683.8928	938.8	59.6
994.9788	2685.1348	938.45	59.3
995.1017	2686.3761	937.05	58.85
995.2245	2687.6168	935.85	58.9
995.3474	2688.8568	936.4	58.2
995.4702	2690.0961	936.55	60.25
995.5929	2691.3348	937.7	58.8
995.7156	2692.5727	935.35	56.4
995.8383	2693.81	934.25	54.6
995.961	2695.0466	932.55	55.95
996.0836	2696.2826	934.2	55.35
996.2062	2697.5178	938.35	57.25
996.3287	2698.7524	934.25	55.35
996.4512	2699.9863	936.25	56.05
996.5737	2701.2195	934	57.1
996.6961	2702.452	938.9	58.9
996.8185	2703.6839	937.2	58.4
996.9408	2704.9151	937.9	60.8
997.0631	2706.1456	936.9	57.5
997.1854	2707.3755	939.8	62.8
997.3077	2708.6046	941.65	62.85
997.4299	2709.8331	936.5	58
997.552	2711.0609	936.55	58.45
997.6742	2712.2881	940.65	61.7
997.7963	2713.5145	939.85	59.45
997.9183	2714.7403	938.25	63.2
998.0403	2715.9654	938.25	59.5
998.1623	2717.1899	956.5	63.5
998.2842	2718.4136	941.7	63.9
998.4062	2719.6367	944.8	67.6
998.528	2720.8591	953.1	68.15
998.6498	2722.0809	947.2	69.65
998.7716	2723.3019	946.85	65.65
998.8934	2724.5223	949.45	72.4
999.0151	2725.7421	946.05	66.55
999.1368	2726.9611	947.4	65.05
999.2584	2728.1795	949.8	68.05
999.38	2729.3972	942.35	63.6
999.5016	2730.6142	946.25	64.3
999.6231	2731.8306	940.9	61.4
999.7446	2733.0462	940.45	60.15
999.8661	2734.2612	940.65	58.35
999.9875	2735.4756	936.4	58.95
1000.1089	2736.6892	939.8	60.1
1000.2302	2737.9022	935.3	57.55
1000.3515	2739.1145	935.1	57.55
1000.4728	2740.3262	944.4	58.85
1000.594	2741.5372	932.95	56.25
1000.7152	2742.7475	932.95	56.25
1000.8363	2743.9571	932.7	52.25
1000.9575	2745.1661	936	54.25
1001.0785	2746.3744	933.05	52.9
1001.1996	2747.582	931	51.6
1001.3206	2748.7889	933.2	51.8
1001.4415	2749.9952	929.75	50.7
1001.5625	2751.2008	930.75	51.85
1001.6833	2752.4057	929.85	50.8
1001.8042	2753.61	926.45	45.95
1001.925	2754.8136	928.55	46.9
1002.0458	2756.0165	926.15	47.9
1002.1665	2757.2188	924.6	47.3
1002.2872	2758.4204	926.95	49.05
1002.4078	2759.6213	931.25	50.75
1002.5285	2760.8215	930.15	50.55
1002.649	2762.0211	928.85	47.5
1002.7696	2763.22	931	50.4
1002.8901	2764.4182	927.9	49.55
1003.0106	2765.6158	922.6	43.05
1003.131	2766.8127	925.95	46.75
1003.2514	2768.009	925.25	46.75
1003.3717	2769.2045	925.65	46.65
1003.492	2770.3994	929	50.25
1003.6123	2771.5936	925.3	47.7
1003.7325	2772.7872	924.45	46.6
1003.8527	2773.9801	923.8	43.55
1003.9729	2775.1723	938.7	43.4
1004.093	2776.3639	921.65	44.5
1004.2131	2777.5548	924.25	42.6
1004.3331	2778.745	925.25	45.55
1004.4531	2779.9346	921.1	42.6
1004.5731	2781.1235	924.8	44.75
1004.693	2782.3117	926.15	51.2
1004.8129	2783.4992	923.85	44.4
1004.9328	2784.6861	922.1	43.75
1005.0526	2785.8723	924.25	44.5
1005.1723	2787.0579	924.1	45.9
1005.2921	2788.2428	922.45	44.85
1005.4118	2789.427	922.9	44.25
1005.5314	2790.6106	922.05	46.25
1005.651	2791.7935	926.85	47.85
1005.7706	2792.9757	922.3	45.35
1005.8902	2794.1573	927.75	47.75
1006.0097	2795.3382	925.75	47.3
1006.1291	2796.5184	923.05	46.5
1006.2485	2797.698	925.5	44.55
1006.3679	2798.8769	925.45	48.15
1006.4873	2800.0551	926.05	47.8
1006.6066	2801.2327	927.1	46.2
1006.7258	2802.4096	927	49.8
1006.8451	2803.5859	925.15	46.35
1006.9642	2804.7615	927.5	48.85
1007.0834	2805.9364	924.4	47.75
1007.2025	2807.1106	926.6	47.65
1007.3216	2808.2842	930.8	52.7
1007.4406	2809.4572	929.45	51.15
1007.5596	2810.6294	934	57.6
1007.6785	2811.801	929.35	55.45
1007.7975	2812.972	933.9	57.9
1007.9163	2814.1423	933.15	55.05
1008.0352	2815.3119	935.95	58.3
1008.154	2816.4808	939.35	63.35
1008.2727	2817.6491	943.8	64.85
1008.3914	2818.8167	948.1	71.75
1008.5101	2819.9837	954.25	70.65
1008.6288	2821.15	958.15	81
1008.7474	2822.3157	961.3	85.3
1008.8659	2823.4807	972.4	93.2
1008.9844	2824.645	976.95	97.95
1009.1029	2825.8086	984.35	108.05
1009.2214	2826.9716	993.7	116.25
1009.3398	2828.134	999.7	122.75
1009.4581	2829.2957	1010.8	133.6
1009.5764	2830.4567	1015.4	139.65
1009.6947	2831.617	1020.45	139.7
1009.813	2832.7767	1020.2	144.75
1009.9312	2833.9358	1021.55	143.8
1010.0493	2835.0941	1022.45	141.95
1010.1675	2836.2519	1021.75	146.05
1010.2855	2837.4089	1013.9	135.85
1010.4036	2838.5653	1012.2	135.85
1010.5216	2839.7211	1005.75	130.7
1010.6396	2840.8761	1004.9	126.65
1010.7575	2842.0306	1002.2	127.45
1010.8754	2843.1843	1001	126.1
1010.9932	2844.3374	1005.85	130.85
1011.111	2845.4899	1005.45	127.15
1011.2288	2846.6417	1008.3	131.6
1011.3465	2847.7928	1009.85	134.4
1011.4642	2848.9433	1008.05	131.2
1011.5818	2850.0931	1011.65	134.25
1011.6995	2851.2422	1016.95	135.7
1011.817	2852.3907	1014.15	134.65
1011.9345	2853.5385	1020.1	139.6
1012.052	2854.6857	1046.6	142.2
1012.1695	2855.8323	1020.95	146.5
1012.2869	2856.9781	1020.65	143.1
1012.4042	2858.1233	1026.8	152.65
1012.5216	2859.2679	1030.25	151.5
1012.6389	2860.4118	1036.55	158.25
1012.7561	2861.555	1043.5	162.9
1012.8733	2862.6976	1042.75	164.3
1012.9905	2863.8395	1042.95	165.1
1013.1076	2864.9808	1040.25	162.75
1013.2247	2866.1214	1042.05	166.1
1013.3417	2867.2614	1048.65	172.2
1013.4587	2868.4007	1047.25	168.55
1013.5757	2869.5393	1050.5	170.65
1013.6926	2870.6773	1052.35	172.55
1013.8095	2871.8146	1062.2	182
1013.9263	2872.9513	1058.65	180.2
1014.0431	2874.0874	1057.5	179.1
1014.1599	2875.2227	1061.15	183.65
1014.2766	2876.3574	1064.65	186.25
1014.3933	2877.4915	1061.35	185.05
1014.51	2878.6249	1067.8	191.9
1014.6266	2879.7577	1070.1	191.55
1014.7431	2880.8898	1082.55	194.55
1014.8596	2882.0212	1073.5	199.5
1014.9761	2883.152	1071.75	192.85
1015.0925	2884.2821	1077.5	200.35
1015.2089	2885.4116	1076.15	198.35
1015.3253	2886.5405	1077.3	200.7
1015.4416	2887.6686	1084.8	203.95
1015.5579	2888.7962	1086.55	210.1
1015.6741	2889.923	1081.2	207.2
1015.7903	2891.0493	1080.8	203.05
1015.9065	2892.1748	1081.4	202.55
1016.0226	2893.2997	1078.1	199.2
1016.1387	2894.424	1081.55	203.55
1016.2547	2895.5476	1082.2	205.1
1016.3707	2896.6706	1078.9	201.7
1016.4866	2897.7929	1082.95	203.95
1016.6025	2898.9145	1084.35	205.5
1016.7184	2900.0355	1080.05	201.3
1016.8342	2901.1559	1078.95	200.85
1016.95	2902.2756	1088.6	207.4
1017.0658	2903.3946	1080.95	203.75
1017.1815	2904.513	1083.65	202.45
1017.2971	2905.6308	1076.9	199.6
1017.4127	2906.7479	1082.6	204.7
1017.5283	2907.8643	1081.05	203.2
1017.6439	2908.9801	1080.3	204.35
1017.7594	2910.0953	1075.95	197.7
1017.8748	2911.2098	1081.3	202.65
1017.9902	2912.3236	1081.95	198.7
1018.1056	2913.4368	1081.3	201.8
1018.2209	2914.5494	1074.2	197.4
1018.3362	2915.6613	1078.95	195.45
1018.4515	2916.7725	1071.2	191.7
1018.5667	2917.8831	1072.35	192.6
1018.6819	2918.9931	1068.55	189.75
1018.797	2920.1024	1064.35	185.8
1018.9121	2921.211	1061.75	186.85
1019.0271	2922.319	1057.5	180.8
1019.1421	2923.4264	1056.6	180.35
1019.2571	2924.5331	1052.55	176.55
1019.372	2925.6391	1054.1	177.4
1019.4869	2926.7445	1056.1	180.6
1019.6017	2927.8493	1058.6	181.15
1019.7165	2928.9534	1056.75	177.45
1019.8313	2930.0569	1061.05	181.05
1019.946	2931.1597	1060.55	182
1020.0606	2932.2619	1061.85	185.6
1020.1753	2933.3634	1060.6	183.2
1020.2899	2934.4643	1067.6	183.55
1020.4044	2935.5645	1069.5	186.4
1020.5189	2936.6641	1066.45	186.35
1020.6334	2937.763	1064.85	187.4
1020.7478	2938.8613	1063.65	185.6
1020.8622	2939.959	1072.5	190.7
1020.9765	2941.056	1060.2	184.05
1021.0908	2942.1523	1050.65	170.4
1021.2051	2943.248	1044.55	168.8
1021.3193	2944.3431	1039.3	163.3
1021.4334	2945.4375	1027.7	150.9
1021.5476	2946.5313	1016	140.95
1021.6617	2947.6244	1012.1	134.4
1021.7757	2948.7169	1008.3	131.9
1021.8897	2949.8087	997.2	119.3
1022.0037	2950.8999	993.05	117.4
1022.1176	2951.9904	985.05	109.55
1022.2315	2953.0803	979.35	101.5
1022.3453	2954.1696	978.05	100.55
1022.4591	2955.2582	976.5	101.15
1022.5728	2956.3462	972.2	97.25
1022.6865	2957.4335	972.1	92.8
1022.8002	2958.5202	975.2	95.7
1022.9138	2959.6062	972.95	94.45
1023.0274	2960.6916	968.45	91.6
1023.141	2961.7764	970.05	93.1
1023.2545	2962.8605	974.05	98.5
1023.3679	2963.9439	968	90.2
1023.4813	2965.0267	967.8	89.5
1023.5947	2966.1089	989.85	91.45
1023.708	2967.1905	966.55	91.6
1023.8213	2968.2714	964.85	88.45
1023.9346	2969.3516	967.85	91.7
1024.0478	2970.4312	974.35	88.6
1024.1609	2971.5102	963.9	88.45
1024.274	2972.5885	962.75	83.65
1024.3871	2973.6662	970.45	91.05
1024.5002	2974.7432	961.65	87.7
1024.6132	2975.8196	969.45	95.35
1024.7261	2976.8954	968	93.15
1024.839	2977.9705	966.6	89.45
1024.9519	2979.045	967.95	91.9
1025.0647	2980.1188	965.25	88.6
1025.1775	2981.192	960.5	83.05
1025.2902	2982.2645	962.55	84.25
1025.4029	2983.3364	961.3	84.65
1025.5156	2984.4077	961.35	84.55
1025.6282	2985.4783	964.4	80.85
1025.7407	2986.5483	957.55	80.95
1025.8532	2987.6177	950.1	74.2
1025.9657	2988.6864	948.6	72.2
1026.0782	2989.7545	947.2	68.85
1026.1906	2990.8219	944.85	70
1026.3029	2991.8887	941.4	62.45
1026.4152	2992.9548	938.7	63.75
1026.5275	2994.0204	934.9	57.65
1026.6397	2995.0852	933.45	59.6
1026.7519	2996.1495	930.55	52.35
1026.864	2997.2131	930.1	52.7
1026.9761	2998.276	926.15	48.5
1027.0882	2999.3383	923	45.8
1027.2002	3000.4	921.55	45.15
1027.3122	3001.4611	918.3	42
1027.4241	3002.5215	917.2	40.85
1027.536	3003.5812	916.9	40.4
1027.6478	3004.6404	915.55	39.65
1027.7596	3005.6989	916.3	38.35
1027.8714	3006.7567	914.55	37.7
1027.9831	3007.8139	942.1	37.25
1028.0947	3008.8705	911.45	35.45
1028.2064	3009.9264	912.1	30.8
1028.3179	3010.9818	911.5	34.2
1028.4295	3012.0364	909.4	33.4
1028.541	3013.0905	908.05	29.4
1028.6524	3014.1439	907.1	32.1
1028.7638	3015.1966	906.65	30.5
1028.8752	3016.2487	907.8	31.35
1028.9865	3017.3002	912.9	28.3
1029.0978	3018.3511	905.8	31.3
1029.209	3019.4013	908.35	32.05
1029.3202	3020.4509	905.75	29.2
1029.4314	3021.4998	904.05	23.25
1029.5425	3022.5481	907.85	31
1029.6535	3023.5958	905.6	29.1
1029.7645	3024.6428	908.55	30.8
1029.8755	3025.6892	903.95	29.7
1029.9864	3026.735	905.35	27.9
1030.0973	3027.7802	904.25	28.15
1030.2082	3028.8247	903.8	26.8
1030.319	3029.8685	905.05	28.75
1030.4297	3030.9118	905.7	29.2
1030.5404	3031.9544	903.85	26.5
1030.6511	3032.9963	905.45	28.4
1030.7617	3034.0376	904.8	27.35
1030.8723	3035.0783	905.8	26.5
1030.9829	3036.1184	904.95	29
1031.0934	3037.1578	904.1	30.1
1031.2038	3038.1966	904.85	28.9
1031.3142	3039.2348	902.6	30.15
1031.4246	3040.2723	913.9	26.8
1031.5349	3041.3092	906.25	31.45
1031.6452	3042.3455	905.9	28.4
1031.7554	3043.3811	907.05	30.5
1031.8656	3044.4161	907.45	29.9
1031.9758	3045.4505	903.25	27.95
1032.0859	3046.4842	905.55	28.15
1032.1959	3047.5173	905.55	32.3
1032.3059	3048.5498	904.2	28.1
1032.4159	3049.5816	906.85	29.85
1032.5258	3050.6128	907.4	30.55
1032.6357	3051.6434	907.6	29.95
1032.7455	3052.6734	906.5	29.6
1032.8553	3053.7027	907.05	30.3
1032.9651	3054.7314	904.85	28.35
1033.0748	3055.7594	902.55	26.95
1033.1845	3056.7868	908.7	31.4
1033.2941	3057.8136	905.8	28.55
1033.4037	3058.8398	906.75	32.25
1033.5132	3059.8653	908.85	32
1033.6227	3060.8902	905.85	30.2
1033.7321	3061.9145	905.6	30.5
1033.8415	3062.9381	906.8	29.65
1033.9509	3063.9612	922.55	29.35
1034.0602	3064.9835	908.6	33
1034.1694	3066.0053	910.3	32.05
1034.2787	3067.0264	909.35	34.55
1034.3878	3068.0469	906.9	27.95
1034.497	3069.0668	909.85	29.85
1034.6061	3070.086	907.6	31.6
1034.7151	3071.1046	907.2	31.45
1034.8241	3072.1226	907.85	31.05
1034.9331	3073.1399	905.6	29.75
1035.042	3074.1567	905.5	29.05
1035.1508	3075.1727	904.65	26.8
1035.2597	3076.1882	903.5	25.9
1035.3684	3077.203	904.65	28.15
1035.4772	3078.2173	902.9	23.45
1035.5859	3079.2308	906.65	29.65
1035.6945	3080.2438	904.05	24.9
1035.8031	3081.2561	900.9	23.85
1035.9117	3082.2678	900.9	25.85
1036.0202	3083.2789	900.2	23.95
1036.1286	3084.2893	898.2	22.95
1036.2371	3085.2991	898.55	21.85
1036.3454	3086.3083	903.55	22.6
1036.4538	3087.3169	899.25	22.1
1036.562	3088.3248	900.9	22.65
1036.6703	3089.3321	900	21.6
1036.7785	3090.3388	896.35	21.45
1036.8866	3091.3449	896.7	18.8
1036.9948	3092.3503	902.6	23.4
1037.1028	3093.3551	894.65	19.3
1037.2108	3094.3593	894.4	20.05
1037.3188	3095.3629	897.7	22.15
1037.4267	3096.3658	897.55	19.55
1037.5346	3097.3681	895.15	19.1
1037.6425	3098.3698	898.65	21.05
1037.7503	3099.3708	898.35	19.3
1037.858	3100.3713	894.4	19.25
1037.9657	3101.3711	894.75	17.6
1038.0734	3102.3702	1030.9	14.95
1038.181	3103.3688	897.75	20
1038.2886	3104.3667	894.8	19.85
1038.3961	3105.364	892.35	18.95
1038.5036	3106.3607	897.15	18.9
1038.611	3107.3568	895.6	17.25
1038.7184	3108.3522	893	14.75
1038.8257	3109.347	895.9	18.35
1038.933	3110.3412	895.5	15.65
1039.0403	3111.3348	894.45	19.25
1039.1475	3112.3277	895.15	18.15
1039.2547	3113.32	891.2	16.95
1039.3618	3114.3117	892.7	15.6
1039.4689	3115.3028	892.3	17.35
1039.5759	3116.2932	893.8	14.35
1039.6829	3117.2831	897.5	15.55
1039.7898	3118.2723	893.45	17.55
1039.8967	3119.2608	889.6	12.7
1040.0035	3120.2488	893	14.95
1040.1103	3121.2361	891.25	13.8
1040.2171	3122.2229	891.6	15.4
1040.3238	3123.209	893.9	18.8
1040.4305	3124.1944	889.65	13.4
1040.5371	3125.1793	890.35	12.1
1040.6437	3126.1635	891.05	14.25
1040.7502	3127.1471	888.55	12.75
1040.8567	3128.1301	888.65	13.4
1040.9631	3129.1125	891.85	15.3
1041.0695	3130.0942	891.9	16.5
1041.1759	3131.0753	901.85	15.75
1041.2822	3132.0558	893.65	15.2
1041.3884	3133.0357	891.9	14.7
1041.4946	3134.015	892.25	15.5
1041.6008	3134.9936	891	14.5
1041.7069	3135.9716	909.45	10.55
1041.813	3136.949	889.65	13.2
1041.919	3137.9258	906.1	11.75
1042.025	3138.902	894.05	12.4
1042.1309	3139.8775	890.95	15.3
1042.2368	3140.8524	889.2	13.7
1042.3427	3141.8267	891.7	12.95
1042.4485	3142.8004	888.4	11.75
1042.5542	3143.7735	894.85	11.9
1042.6599	3144.7459	890.05	11.85
1042.7656	3145.7178	889.45	10.75
1042.8712	3146.689	886.8	13.25
1042.9768	3147.6596	891.95	16.2
1043.0823	3148.6295	890.05	13.45
1043.1878	3149.5989	889.1	10.3
1043.2932	3150.5676	885.95	10.9
1043.3986	3151.5357	886.9	10.4
1043.5039	3152.5032	888.05	13.1
1043.6092	3153.4701	885.35	11.5
1043.7145	3154.4364	890.95	12.15
1043.8197	3155.402	884.2	10.5
1043.9248	3156.367	889.25	10.4
1044.03	3157.3315	930.8	11.3
1044.135	3158.2952	888.1	10.4
1044.24	3159.2584	884.6	7.9
1044.345	3160.221	887.6	11.35
1044.4499	3161.1829	887.65	12.7
1044.5548	3162.1442	887.2	12.2
1044.6596	3163.105	886.35	10.25
1044.7644	3164.065	887.4	12.35
1044.8692	3165.0245	890.65	13.6
1044.9739	3165.9834	884.75	10.45
1045.0785	3166.9416	886	11.55
1045.1831	3167.8993	887.25	9.8
1045.2877	3168.8563	887.2	9.55
1045.3922	3169.8127	886.1	8.85
1045.4966	3170.7684	886.15	10.15
1045.6011	3171.7236	889.05	12.6
1045.7054	3172.6782	887.7	13.15
1045.8098	3173.6321	886.3	10.15
1045.914	3174.5854	890.5	9.85
1046.0183	3175.5381	884.85	10.35
1046.1224	3176.4902	885.9	10.15
1046.2266	3177.4417	885.35	6.7
1046.3307	3178.3926	884.5	8.6
1046.4347	3179.3428	883.85	9.1
1046.5387	3180.2924	885.6	10.95
1046.6427	3181.2415	887.3	11.1
1046.7466	3182.1899	886.95	8.4
1046.8504	3183.1377	885.7	9.6
1046.9542	3184.0848	889.95	12.45
1047.058	3185.0314	886.45	8.65
1047.1617	3185.9773	886.35	10.55
1047.2654	3186.9227	886.45	8.4
1047.369	3187.8674	886.25	12.15
1047.4726	3188.8115	890.2	9.2
1047.5761	3189.755	884.8	8
1047.6796	3190.6979	884.5	10
1047.783	3191.6402	883.75	8.45
1047.8864	3192.5818	885.65	9.5
1047.9898	3193.5229	910.15	9
1048.0931	3194.4633	884.8	9.9
1048.1963	3195.4031	887.7	10.15
1048.2995	3196.3423	882	3.45
1048.4027	3197.2809	884.35	7.6
1048.5058	3198.2189	884.3	9.9
1048.6089	3199.1563	891	8.6
1048.7119	3200.0931	883.75	10.25
1048.8148	3201.0292	884.15	8.65
1048.9178	3201.9648	883.5	5.7
1049.0206	3202.8997	888	9.9
1049.1235	3203.834	885	8.9
1049.2262	3204.7677	883.5	8.75
1049.329	3205.7008	884.85	7.9
1049.4317	3206.6333	880.95	7.65
1049.5343	3207.5652	885.6	8.45
1049.6369	3208.4964	883.75	7.5
1049.7394	3209.4271	883.3	7.6
1049.8419	3210.3571	883.7	7.3
1049.9444	3211.2865	883.9	6.65
1050.0468	3212.2154	885.2	7.9
1050.1491	3213.1436	888.1	8.9
1050.2514	3214.0712	890.15	6.45
1050.3537	3214.9982	881.85	6.25
1050.4559	3215.9246	884.5	8.5
1050.5581	3216.8503	882.55	9.2
1050.6602	3217.7755	883.3	8
1050.7623	3218.7001	883.65	6.95
1050.8643	3219.624	884.15	6.85
1050.9663	3220.5473	883.3	7.7
1051.0682	3221.4701	887.3	10.65
1051.1701	3222.3922	884.95	6.9
1051.2719	3223.3137	883.55	7.8
1051.3737	3224.2346	882.15	6.25
1051.4754	3225.1549	883.05	7.1
1051.5771	3226.0746	884.5	9.95
1051.6788	3226.9937	883.8	7.85
1051.7804	3227.9121	882.45	7.1
1051.8819	3228.83	883	7.55
1051.9834	3229.7473	883.6	7.7
1052.0849	3230.6639	880.85	4.95
1052.1863	3231.5799	883.15	5.85
1052.2876	3232.4954	883.45	5.95
1052.3889	3233.4102	881.75	4.7
1052.4902	3234.3244	885.6	10.75
1052.5914	3235.238	883.1	6.55
1052.6926	3236.151	907.65	8.65
1052.7937	3237.0634	882.45	6.9
1052.8948	3237.9752	882.1	6.7
1052.9958	3238.8864	881.05	3.9
1053.0968	3239.797	885.1	9.9
1053.1977	3240.7069	883.3	6.5
1053.2986	3241.6163	883.8	5.1
1053.3994	3242.5251	884.15	8.9
1053.5002	3243.4332	880.4	5.25
1053.6009	3244.3408	882.6	7.35
1053.7016	3245.2477	881.5	5.6
1053.8022	3246.154	884.25	7.8
1053.9028	3247.0598	882.75	5.8
1054.0034	3247.9649	882.95	6.5
1054.1039	3248.8694	880.05	6.25
1054.2043	3249.7733	881.05	6.3
1054.3047	3250.6766	880.8	2.6
1054.4051	3251.5793	882.9	5.65
1054.5054	3252.4814	880.7	3.75
1054.6056	3253.3829	879.8	3.4
1054.7058	3254.2838	882.9	7.2
1054.806	3255.1841	879.8	4.8
1054.9061	3256.0838	881.25	5.9
1055.0061	3256.9829	881.55	6
1055.1062	3257.8814	880.5	1.9
1055.2061	3258.7792	885.2	7.55
1055.306	3259.6765	883.15	7.9
1055.4059	3260.5731	881.9	6.15
1055.5057	3261.4692	882.7	7.55
1055.6055	3262.3647	883.45	8.05
1055.7052	3263.2595	880.7	5
1055.8049	3264.1538	880.1	2.5
1055.9045	3265.0474	879.65	4.45
1056.0041	3265.9404	880.75	4.15
1056.1036	3266.8329	881.2	4.8
1056.2031	3267.7247	892.25	8.1
1056.3025	3268.616	877.4	0.85
1056.4019	3269.5066	879.3	2.1
1056.5013	3270.3966	881.25	3.2
1056.6005	3271.286	878.4	2.55
