Software Version:	3.9.2.0
Unit SN:	10000200
Spectrometer SN:	6960
Date:	3/8/2024 12:08:30 PM
Data Line Index:	25
Spectral Points:	2048
Integration time (ms):	125
Averages:	20
Delay (ms):	30000
Sequence Number:	1
Processing:	dark subtract
Laser Power (mW):	305
Laser Current (mA):	823
Laser Diode Temp (C):	25.1
Laser Case Temp (C):	25.7
System Temp (C):	25.6
Spectrometer Temp (C):	23.5
CCD Temp (C):	0.004
Secondary Temp (C):	20.008
Heatsink Temp (C):	20.25
CCDPCB Temp (C):	34.84
SecondaryPCB Temp (C):	28.381

Wavelength	RamanShift	Raw Counts	Dark Subtracted
787.061	30.1047	438.7	30.75
787.2016	32.3739	437.75	32.85
787.3422	34.6426	441.85	36.3
787.4828	36.9109	444.15	34.7
787.6235	39.1787	451.8	37.35
787.7642	41.4461	459.9	41.1
787.9049	43.7131	467.1	43.85
788.0456	45.9796	473.7	50.7
788.1863	48.2456	477	48.25
788.3271	50.5112	486.9	54.15
788.4679	52.7764	493.8	58.85
788.6087	55.0411	504.7	63
788.7496	57.3054	510.3	64
788.8904	59.5692	517.65	71.35
789.0313	61.8326	524.4	74.2
789.1722	64.0955	533.25	78.65
789.3132	66.3579	548.9	90
789.4541	68.6199	559.55	95.8
789.5951	70.8815	587.85	120.05
789.7361	73.1426	650.15	179.75
789.8771	75.4032	804.95	333.25
790.0181	77.6634	1175.25	697.9
790.1592	79.9231	2055.25	1574.05
790.3003	82.1824	3879.95	3388.4
790.4414	84.4412	7119.95	6610.9
790.5825	86.6995	11401.7	10875.05
790.7237	88.9574	15492.55	14947.25
790.8648	91.2148	18296.4	17740.95
791.006	93.4717	19493	18926.2
791.1472	95.7282	19583.9	19012.65
791.2885	97.9842	19321.55	18750.1
791.4297	100.2398	18743.65	18170.4
791.571	102.4949	18100.7	17522.85
791.7123	104.7495	17383.8	16803.6
791.8536	107.0036	16638.35	16059.35
791.9949	109.2573	16009.7	15432.15
792.1363	111.5105	15385.45	14803.05
792.2777	113.7632	14826.1	14239.5
792.4191	116.0154	14403.85	13807.65
792.5605	118.2672	14053.65	13463.15
792.7019	120.5185	13713.15	13122.1
792.8434	122.7693	13441.55	12847.15
792.9849	125.0197	13244.05	12645.9
793.1264	127.2696	13025.25	12427.8
793.2679	129.519	12887.95	12282
793.4094	131.7679	12682.3	12073
793.551	134.0163	12464.15	11853.75
793.6926	136.2642	12218.8	11601.15
793.8342	138.5117	11933.05	11307.6
793.9758	140.7587	11607.4	10989.6
794.1175	143.0052	11319.1	10699.35
794.2591	145.2512	11038.4	10416.35
794.4008	147.4967	10755.55	10134
794.5425	149.7417	10512.1	9883.2
794.6842	151.9863	10352.5	9723.3
794.826	154.2304	10242.85	9608.85
794.9677	156.4739	10122.85	9484.85
795.1095	158.717	10077.6	9435.6
795.2513	160.9596	9987.8	9344.85
795.3931	163.2017	9854.5	9210.35
795.535	165.4433	9691.45	9044.9
795.6768	167.6844	9471.6	8822.6
795.8187	169.925	9243.2	8589.45
795.9606	172.1651	8967.85	8312.45
796.1025	174.4047	8760	8099.9
796.2445	176.6439	8558.35	7898.2
796.3864	178.8825	8382.6	7715.45
796.5284	181.1206	8279.25	7610.55
796.6704	183.3582	8174.9	7501
796.8124	185.5954	8118.6	7442.55
796.9544	187.832	8052.3	7373.85
797.0965	190.0681	8044	7362.2
797.2386	192.3037	8027.1	7338.45
797.3806	194.5388	8028.65	7340.25
797.5228	196.7734	8050.25	7361.55
797.6649	199.0075	8066.8	7377.4
797.807	201.2411	8147.45	7454.45
797.9492	203.4742	8218.85	7525.05
798.0914	205.7068	8349.3	7652.8
798.2336	207.9389	8434.75	7735.75
798.3758	210.1704	8561.45	7869.2
798.518	212.4015	8618.25	7936.1
798.6603	214.632	8725.6	8051.15
798.8025	216.862	8823.1	8147.9
798.9448	219.0915	8890.75	8212
799.0871	221.3205	8961.45	8285.7
799.2294	223.549	8996.8	8318.6
799.3718	225.777	9029.45	8353.5
799.5141	228.0044	9040.1	8354.1
799.6565	230.2314	9072.05	8387.2
799.7989	232.4578	9065.2	8376
799.9413	234.6837	9057.6	8356.95
800.0837	236.909	9073.9	8377.3
800.2262	239.1339	9102.3	8377.55
800.3687	241.3582	9036.3	8326.85
800.5111	243.582	9023.2	8282.35
800.6536	245.8053	8996.4	8270.55
800.7961	248.0281	8960.65	8237.4
800.9387	250.2503	8961.15	8238.65
801.0812	252.472	9005.25	8276.55
801.2238	254.6932	9108.65	8385
801.3664	256.9139	9199.8	8470.3
801.509	259.134	9341.15	8607.95
801.6516	261.3536	9485.2	8755.75
801.7942	263.5727	9739.2	9010.25
801.9369	265.7912	9974.75	9245.8
802.0795	268.0092	10282.6	9551.5
802.2222	270.2267	10552.55	9821.5
802.3649	272.4436	10755.05	10018.6
802.5076	274.6601	10896.7	10152.2
802.6504	276.8759	10915.45	10175.15
802.7931	279.0913	10898.45	10159.3
802.9359	281.3061	10837.9	10095
803.0787	283.5204	10816.9	10072.65
803.2215	285.7341	10814.75	10068.35
803.3643	287.9473	10850.35	10102
803.5071	290.16	10816.2	10064.7
803.6499	292.3721	10784.8	10040.9
803.7928	294.5837	10838	10091.7
803.9357	296.7947	10884.4	10135.05
804.0786	299.0052	11005	10254.9
804.2215	301.2152	11063.25	10313.55
804.3644	303.4246	11051.85	10302.6
804.5074	305.6334	10893.55	10145.4
804.6503	307.8418	10658.5	9905.95
804.7933	310.0495	10361.7	9609.9
804.9363	312.2568	10024.95	9270
805.0793	314.4635	9643.95	8888.65
805.2223	316.6696	9333.25	8575.2
805.3653	318.8752	9096.7	8330.25
805.5084	321.0802	8952.65	8190.35
805.6514	323.2847	8947.3	8183.95
805.7945	325.4887	8987.7	8227.35
805.9376	327.692	9023.7	8262.8
806.0807	329.8949	9093.65	8330.3
806.2238	332.0972	9017.95	8251.75
806.367	334.2989	8911.75	8138.85
806.5101	336.5001	8739.45	7967.95
806.6533	338.7007	8549.7	7777.7
806.7965	340.9008	8393.75	7623.5
806.9397	343.1003	8196.05	7422.65
807.0829	345.2992	8067.2	7295.4
807.2261	347.4976	7929.05	7154
807.3693	349.6955	7850.75	7073.45
807.5126	351.8927	7806.55	7023.25
807.6559	354.0895	7728.2	6935.5
807.7991	356.2856	7642.25	6860
807.9424	358.4812	7622.3	6837.9
808.0857	360.6763	7561.25	6775.4
808.2291	362.8707	7567.6	6781
808.3724	365.0646	7568.85	6779.95
808.5158	367.258	7602.9	6813.85
808.6591	369.4508	7684.75	6888.65
808.8025	371.643	7800.05	7006.65
808.9459	373.8346	7914.8	7116.35
809.0893	376.0257	8020.25	7220.9
809.2327	378.2162	8126.7	7327.65
809.3762	380.4062	8151.4	7350.85
809.5196	382.5956	8097.2	7303.45
809.6631	384.7844	7977.75	7186.15
809.8066	386.9726	7824.95	7040.65
809.9501	389.1603	7739.15	6950.9
810.0936	391.3474	7692.35	6865.5
810.2371	393.5339	7653.4	6858.7
810.3806	395.7199	7653.4	6863.45
810.5241	397.9052	7710.15	6919.85
810.6677	400.09	7846.05	7055.45
810.8113	402.2743	8014.8	7222.6
810.9548	404.4579	8159.55	7366.25
811.0984	406.641	8370.95	7577.65
811.2421	408.8235	8507.6	7711.9
811.3857	411.0054	8591.2	7791.25
811.5293	413.1868	8656.35	7853.1
811.673	415.3675	8651.35	7845.2
811.8166	417.5477	8585.5	7780.1
811.9603	419.7273	8519.35	7709.6
812.104	421.9064	8427.15	7612.6
812.2477	424.0848	8381.5	7574.2
812.3914	426.2627	8286.35	7474.35
812.5351	428.4399	8079.35	7271.8
812.6788	430.6166	7819.25	7003.8
812.8226	432.7928	7555.05	6738.45
812.9663	434.9683	7322.2	6506.25
813.1101	437.1432	7108.75	6292.8
813.2539	439.3176	6994.85	6178.8
813.3977	441.4914	6896.9	6086.85
813.5415	443.6645	6867	6055.05
813.6853	445.8371	6847.5	6028.95
813.8291	448.0091	6829	6011.7
813.973	450.1806	6822.1	6009.9
814.1168	452.3514	6816	5999.3
814.2607	454.5216	6861.2	6033.1
814.4046	456.6913	6867.05	6049.3
814.5485	458.8603	6907.45	6090.7
814.6924	461.0288	6937.4	6124.45
814.8363	463.1967	6917.25	6103.4
814.9802	465.3639	6923.3	6101.85
815.1241	467.5306	6883.5	6063.9
815.2681	469.6967	6884.45	6064.25
815.412	471.8622	6864.1	6046.95
815.556	474.0271	6874.4	6056.75
815.7	476.1914	6905.75	6084.8
815.844	478.3551	6899.45	6074.6
815.988	480.5182	6938.95	6121.85
816.132	482.6807	7017.15	6199.8
816.276	484.8426	7148.65	6332.4
816.4201	487.0039	7435.6	6616.2
816.5641	489.1647	7726.5	6900.35
816.7082	491.3248	7980.25	7156.25
816.8522	493.4843	8035.25	7213.45
816.9963	495.6432	7976.5	7151.55
817.1404	497.8015	7839.7	7008.45
817.2845	499.9592	7733.65	6901.45
817.4286	502.1163	7549.05	6716.8
817.5727	504.2728	7287.65	6458.3
817.7168	506.4287	7059.9	6233.3
817.861	508.5839	6858.4	6032.85
818.0051	510.7386	6729.65	5904.2
818.1493	512.8927	6684.3	5853.3
818.2935	515.0461	6680.15	5848.55
818.4377	517.199	6769.8	5936
818.5818	519.3512	6925.1	6091.75
818.726	521.5029	7205	6365.05
818.8703	523.6539	7493.25	6659.35
819.0145	525.8043	7613.25	6777.3
819.1587	527.9541	7533.25	6693.85
819.303	530.1033	7309	6471.1
819.4472	532.2519	7100.65	6264.05
819.5915	534.3999	6977.7	6140.25
819.7357	536.5472	6973.25	6135.75
819.88	538.694	7068	6230.7
820.0243	540.8401	7195.4	6355.75
820.1686	542.9856	7343.2	6498.35
820.3129	545.1305	7371.2	6525.7
820.4572	547.2748	7326.25	6480.4
820.6016	549.4185	7237.35	6390.1
820.7459	551.5615	7201.35	6354.7
820.8902	553.704	7215.45	6371.55
821.0346	555.8458	7322.4	6478.2
821.1789	557.987	7472.25	6628.95
821.3233	560.1276	7694.15	6847.5
821.4677	562.2675	8021.1	7177.5
821.6121	564.4069	8505.05	7660.9
821.7565	566.5456	8996.55	8155.8
821.9009	568.6837	9195.3	8352.8
822.0453	570.8212	8875.3	8032.2
822.1897	572.958	8267.85	7423.35
822.3342	575.0942	7669.8	6825.9
822.4786	577.2299	7219.45	6376
822.6231	579.3648	6994.85	6156.95
822.7675	581.4992	6931.85	6094.85
822.912	583.6329	7003.3	6168.7
823.0565	585.766	7146.95	6308.7
823.201	587.8985	7313.65	6475.65
823.3454	590.0304	7451.5	6582.75
823.4899	592.1616	7472.35	6622.25
823.6345	594.2922	7430.85	6582
823.779	596.4222	7273.05	6422.1
823.9235	598.5515	7066.15	6214.2
824.068	600.6802	6897.55	6045.75
824.2126	602.8083	6743.2	5893.05
824.3571	604.9358	6693.25	5842.4
824.5017	607.0626	6741.95	5887.6
824.6462	609.1888	6829.35	5974.3
824.7908	611.3144	6990.7	6134.85
824.9354	613.4393	7185.3	6328.1
825.08	615.5636	7365.1	6504.7
825.2246	617.6873	7454.35	6599.25
825.3692	619.8103	7427.7	6568.1
825.5138	621.9327	7260.1	6401.55
825.6584	624.0544	7035.15	6182.75
825.803	626.1756	6828.6	5979.05
825.9477	628.2961	6657.1	5800.75
826.0923	630.4159	6580.15	5723.85
826.237	632.5351	6569.6	5711.8
826.3816	634.6537	6550.05	5690.8
826.5263	636.7716	6566.4	5706.5
826.6709	638.8889	6577.3	5717.9
826.8156	641.0056	6593.1	5730.75
826.9603	643.1216	6592.1	5729.2
827.105	645.237	6587.05	5723.4
827.2497	647.3518	6511.05	5651.15
827.3944	649.4659	6398.2	5542.3
827.5391	651.5793	6344	5486.85
827.6838	653.6922	6291.2	5434.05
827.8285	655.8043	6279.6	5421.5
827.9733	657.9159	6284.25	5423.35
828.118	660.0268	6272.85	5411.25
828.2627	662.137	6284.4	5422.6
828.4075	664.2466	6318.6	5452.7
828.5522	666.3556	6295.55	5432.65
828.697	668.4639	6265.6	5398.65
828.8418	670.5716	6221.1	5362.85
828.9865	672.6786	6152.7	5290.45
829.1313	674.785	6085	5218.65
829.2761	676.8907	6044.85	5184.05
829.4209	678.9958	6017.85	5154.55
829.5657	681.1002	5999.95	5135.35
829.7105	683.204	5989.3	5117.9
829.8553	685.3072	6001.05	5134.4
830.0001	687.4097	5966.3	5099.9
830.1449	689.5115	5980.8	5111.6
830.2898	691.6127	5969.2	5107.8
830.4346	693.7132	5965.3	5098.1
830.5794	695.8131	5988.7	5101.2
830.7243	697.9123	6017.75	5148.75
830.8691	700.0109	6042.6	5174.05
831.014	702.1089	6109.95	5242.55
831.1588	704.2061	6151.65	5281.6
831.3037	706.3028	6259.6	5387.1
831.4486	708.3987	6322.75	5451.8
831.5935	710.4941	6359.2	5487.4
831.7383	712.5887	6366.1	5495.25
831.8832	714.6827	6377.8	5503.9
832.0281	716.7761	6409.85	5541.7
832.173	718.8688	6474.3	5606.8
832.3179	720.9608	6567.95	5692.6
832.4628	723.0522	6675.6	5797.55
832.6077	725.1429	6806.55	5932.4
832.7527	727.233	6928.85	6052.55
832.8976	729.3224	7116.85	6247.35
833.0425	731.4112	7112.6	6237.75
833.1874	733.4993	7049.65	6174.65
833.3324	735.5867	6827	5955.2
833.4773	737.6735	6581.9	5704.95
833.6222	739.7596	6362.05	5489.05
833.7672	741.845	6235	5361
833.9122	743.9298	6147.45	5270.8
834.0571	746.014	6094.55	5220.8
834.2021	748.0974	6084.2	5207.25
834.347	750.1802	6096.45	5220.55
834.492	752.2624	6107.15	5228.65
834.637	754.3439	6132.9	5250.5
834.782	756.4247	6219.15	5328.65
834.9269	758.5048	6330.75	5454.95
835.0719	760.5843	6524.2	5646.65
835.2169	762.6631	6791.65	5912.15
835.3619	764.7413	7243.2	6363.3
835.5069	766.8188	7817.65	6939.7
835.6519	768.8956	8386.1	7504.85
835.7969	770.9718	8820.1	7942.35
835.9419	773.0473	8881.5	8002.45
836.0869	775.1221	8675.85	7797.3
836.232	777.1962	8518.3	7641.5
836.377	779.2697	8528.2	7646.2
836.522	781.3426	8747.45	7853.65
836.667	783.4147	8953.4	8070.35
836.8121	785.4862	8971.95	8091.2
836.9571	787.557	8747.95	7868.35
837.1021	789.6271	8272.3	7390.9
837.2472	791.6966	7670.7	6792
837.3922	793.7654	7084.65	6203.4
837.5373	795.8335	6681.2	5800.15
837.6823	797.901	6413.8	5533.55
837.8274	799.9678	6216.7	5330.9
837.9724	802.0339	6138.35	5257.35
838.1175	804.0993	6137.5	5246.4
838.2626	806.1641	6069.4	5185.4
838.4076	808.2282	6016.55	5138.4
838.5527	810.2916	5956.85	5073.55
838.6978	812.3544	5890.8	5010.75
838.8428	814.4164	5822.8	4943.1
838.9879	816.4778	5826	4940.5
839.133	818.5385	5881.45	4995.7
839.2781	820.5986	5989.5	5106.05
839.4232	822.658	6191.4	5306.55
839.5682	824.7166	6493.15	5609.45
839.7133	826.7747	6952.8	6067.3
839.8584	828.832	7511.75	6624.25
840.0035	830.8886	7962.8	7074.45
840.1486	832.9446	8211.55	7324.6
840.2937	834.9999	8126	7241.15
840.4388	837.0545	7826	6938.9
840.5839	839.1085	7444.3	6558.3
840.729	841.1618	7087.2	6199.1
840.8741	843.2143	6790.5	5905.5
841.0192	845.2662	6570.65	5685.3
841.1643	847.3175	6464.25	5577.45
841.3095	849.368	6363.3	5473.1
841.4546	851.4179	6316.3	5430.85
841.5997	853.467	6238.1	5353.05
841.7448	855.5155	6193.4	5306.05
841.8899	857.5633	6155.3	5267.45
842.0351	859.6105	6092.05	5204.1
842.1802	861.6569	6022.35	5135.5
842.3253	863.7027	5962.45	5073.7
842.4704	865.7478	5898.45	5009.4
842.6156	867.7922	5862	4972.1
842.7607	869.8359	5825.45	4937.7
842.9058	871.8789	5808.35	4922.85
843.0509	873.9212	5879.05	4958
843.1961	875.9629	5891.85	5000.2
843.3412	878.0039	5968.6	5078.95
843.4863	880.0441	6050.75	5163.3
843.6315	882.0837	6107.25	5217.05
843.7766	884.1226	6185.65	5295.45
843.9218	886.1609	6287.1	5400
844.0669	888.1984	6419.35	5531.2
844.212	890.2352	6612.15	5723.35
844.3572	892.2714	6698	5805.9
844.5023	894.3069	6645.75	5754.7
844.6475	896.3416	6473.4	5585
844.7926	898.3757	6276.4	5385.3
844.9377	900.4091	6157.1	5264.9
845.0829	902.4418	6107.4	5210.1
845.228	904.4739	6144.8	5251
845.3732	906.5052	6232.25	5339.55
845.5183	908.5358	6259.9	5369
845.6635	910.5658	6146.3	5254
845.8086	912.595	5966.9	5072.75
845.9538	914.6236	5766.65	4877.45
846.0989	916.6515	5612.95	4723.1
846.2441	918.6786	5527.05	4633.6
846.3892	920.7051	5504.7	4609.15
846.5344	922.7309	5527.3	4639.2
846.6795	924.756	5521.4	4629.5
846.8246	926.7804	5577	4684.75
846.9698	928.8041	5615.7	4721.9
847.1149	930.8272	5666	4772.75
847.2601	932.8495	5682.2	4789.25
847.4052	934.8711	5676.45	4783.8
847.5504	936.892	5670.3	4778.45
847.6955	938.9123	5710.8	4816.7
847.8407	940.9318	5809.35	4916.1
847.9858	942.9506	5872.7	4981.1
848.131	944.9688	5839.1	4946.6
848.2761	946.9862	5774.45	4882.5
848.4213	949.003	5599.95	4706.3
848.5664	951.019	5464.2	4570.75
848.7115	953.0344	5384.3	4490.05
848.8567	955.0491	5345.75	4448.95
849.0018	957.063	5352.85	4457.75
849.147	959.0763	5390	4498.8
849.2921	961.0888	5426.5	4531.05
849.4373	963.1007	5474.35	4581.4
849.5824	965.1119	5470.65	4581.15
849.7275	967.1223	5444.4	4557.2
849.8727	969.1321	5425.8	4539
850.0178	971.1412	5398.6	4509.3
850.1629	973.1495	5385.75	4493.1
850.3081	975.1572	5424.45	4495.95
850.4532	977.1641	5400.85	4506.7
850.5983	979.1704	5388.2	4492.05
850.7435	981.1759	5352.05	4453.65
850.8886	983.1808	5345.9	4450.75
851.0337	985.1849	5352.3	4445.75
851.1788	987.1884	5377.05	4478.85
851.324	989.1911	5449.1	4549.9
851.4691	991.1932	5485.15	4589.3
851.6142	993.1945	5501.1	4606
851.7593	995.1951	5498.4	4603.05
851.9045	997.1951	5469.55	4569.45
852.0496	999.1943	5450.8	4555.3
852.1947	1001.1928	5457.05	4560.15
852.3398	1003.1906	5526.55	4631.1
852.4849	1005.1877	5642.35	4744.55
852.63	1007.1841	5732.65	4837.9
852.7751	1009.1798	5818.15	4923.5
852.9202	1011.1748	5797.7	4903.6
853.0653	1013.1691	5687.5	4790.95
853.2104	1015.1627	5513.9	4620.35
853.3555	1017.1556	5348.6	4454.15
853.5006	1019.1477	5228.15	4333.85
853.6457	1021.1392	5138.15	4245.1
853.7908	1023.1299	5092.65	4201.3
853.9359	1025.12	5090.9	4199.65
854.081	1027.1093	5152.65	4268.65
854.2261	1029.0979	5269.1	4387
854.3712	1031.0859	5374.8	4487.2
854.5163	1033.0731	5434.35	4544.5
854.6613	1035.0596	5416.4	4522.55
854.8064	1037.0454	5336.95	4444.25
854.9515	1039.0304	5257.8	4363.05
855.0965	1041.0148	5182.45	4290.45
855.2416	1042.9985	5112.85	4216.35
855.3867	1044.9814	5033.4	4138.7
855.5317	1046.9636	5007.8	4111.55
855.6768	1048.9452	5004.45	4114.05
855.8219	1050.926	5054.9	4158.65
855.9669	1052.9061	5101.8	4207.6
856.112	1054.8855	5145.75	4249.15
856.257	1056.8642	5142.85	4249.75
856.4021	1058.8421	5197.05	4300.3
856.5471	1060.8194	5228.3	4332.6
856.6921	1062.7959	5233.85	4337.7
856.8372	1064.7717	5278.6	4379.15
856.9822	1066.7469	5345.85	4451.45
857.1272	1068.7213	5414.75	4515.25
857.2723	1070.695	5498.05	4603.85
857.4173	1072.6679	5578.6	4681.9
857.5623	1074.6402	5659.1	4763.2
857.7073	1076.6117	5658.3	4757.75
857.8523	1078.5826	5570.75	4671.65
857.9973	1080.5527	5412.5	4515.15
858.1423	1082.5221	5234.4	4339.95
858.2873	1084.4908	5147.45	4253.05
858.4323	1086.4587	5096.25	4196.95
858.5773	1088.426	5103.7	4206.95
858.7223	1090.3925	5133.55	4232.1
858.8673	1092.3584	5144.8	4248.1
859.0123	1094.3235	5185.65	4292.95
859.1573	1096.2879	5276.95	4379.9
859.3022	1098.2515	5422.6	4525.45
859.4472	1100.2145	5578.1	4683.9
859.5922	1102.1767	5757.45	4858.5
859.7371	1104.1382	5979.25	5082.6
859.8821	1106.099	6222.45	5322.3
860.027	1108.0591	6430.8	5535.95
860.172	1110.0185	6603.45	5705.55
860.3169	1111.9771	6724.6	5829.3
860.4619	1113.9351	6699.45	5804.15
860.6068	1115.8923	6681.5	5785.9
860.7517	1117.8488	6610.85	5712.3
860.8967	1119.8045	6475.65	5578.45
861.0416	1121.7596	6300.1	5403.45
861.1865	1123.7139	6088.4	5194.45
861.3314	1125.6675	5957.75	5064.05
861.4763	1127.6204	5969.2	5074.3
861.6212	1129.5726	5955.5	5060.9
861.7661	1131.524	5948.2	5053.4
861.911	1133.4748	5810.35	4913.25
862.0559	1135.4248	5628.05	4729.4
862.2008	1137.3741	5458.5	4561.85
862.3457	1139.3226	5311.1	4411.8
862.4905	1141.2705	5275.9	4381.3
862.6354	1143.2176	5252.35	4353.8
862.7803	1145.164	5252	4351.45
862.9251	1147.1097	5181.9	4282.5
863.07	1149.0546	5086.05	4190.8
863.2148	1150.9989	4960.95	4065.55
863.3597	1152.9424	4861.9	3964.95
863.5045	1154.8852	4793.7	3895.8
863.6493	1156.8272	4748.3	3851.8
863.7942	1158.7686	4765.05	3860.75
863.939	1160.7092	4778.4	3880.95
864.0838	1162.6491	4813.15	3910.25
864.2286	1164.5883	4911.4	4017.15
864.3734	1166.5267	5004	4105.05
864.5182	1168.4644	5122.6	4227.9
864.663	1170.4014	5293.1	4391.2
864.8078	1172.3377	5478.9	4584.15
864.9526	1174.2732	5717.3	4819.45
865.0974	1176.2081	6113.5	5220.4
865.2421	1178.1421	6606.05	5703.55
865.3869	1180.0755	7169.9	6272.3
865.5317	1182.0082	7604.7	6707.25
865.6764	1183.9401	7783.65	6883.7
865.8212	1185.8713	7668.75	6776.45
865.9659	1187.8017	7270.35	6378.3
866.1106	1189.7315	6810.5	5922.15
866.2554	1191.6605	6383.9	5494.55
866.4001	1193.5888	6075.05	5184
866.5448	1195.5163	5887.55	4995.3
866.6895	1197.4432	5749.15	4855.15
866.8342	1199.3693	5660.8	4766.05
866.9789	1201.2947	5604.25	4706.2
867.1236	1203.2193	5560.7	4664.3
867.2683	1205.1432	5541.95	4646.8
867.413	1207.0664	5510.05	4615.7
867.5576	1208.9889	5525.05	4626.45
867.7023	1210.9106	5535	4639.05
867.847	1212.8316	5564.15	4670.1
867.9916	1214.7519	5611.85	4706.8
868.1363	1216.6715	5629.55	4734.2
868.2809	1218.5903	5718.85	4823.4
868.4255	1220.5084	5805.85	4909.75
868.5701	1222.4257	5911.05	5015.85
868.7148	1224.3424	5981.2	5089.6
868.8594	1226.2583	6133.15	5236.45
869.004	1228.1735	6276.1	5380.35
869.1486	1230.0879	6478.45	5580.1
869.2932	1232.0016	6728.1	5830.3
869.4377	1233.9146	6920.85	6023
869.5823	1235.8269	7023.85	6128.15
869.7269	1237.7384	7034.4	6140.7
869.8715	1239.6492	6927.3	6032.9
870.016	1241.5592	6913.35	6017.4
870.1606	1243.4686	6990.2	6096.05
870.3051	1245.3772	7199.85	6305.25
870.4496	1247.285	7514.6	6619.35
870.5941	1249.1922	7800.25	6904.7
870.7387	1251.0986	8088.35	7194.55
870.8832	1253.0042	8314.3	7417.85
871.0277	1254.9092	8555.7	7661.95
871.1722	1256.8134	8715.05	7819.05
871.3167	1258.7169	8861.1	7963.4
871.4611	1260.6196	8995	8098.55
871.6056	1262.5216	9157.5	8260.25
871.7501	1264.4229	9283.25	8389.75
871.8945	1266.3234	9433.35	8538.6
872.039	1268.2232	9537.15	8642.5
872.1834	1270.1223	9561.85	8661.35
872.3278	1272.0207	9636.3	8741.05
872.4723	1273.9183	9604.5	8704.55
872.6167	1275.8151	9530.7	8635
872.7611	1277.7113	9495.5	8600.1
872.9055	1279.6067	9604.95	8709.8
873.0499	1281.5014	9973.3	9075.45
873.1943	1283.3953	10534.55	9638.2
873.3386	1285.2885	11265.85	10370.45
873.483	1287.181	12076.35	11178.25
873.6274	1289.0727	12828.1	11936.05
873.7717	1290.9637	13373.45	12474.4
873.9161	1292.854	13746.35	12852.7
874.0604	1294.7435	13774.7	12879.9
874.2047	1296.6323	13582.05	12687.3
874.349	1298.5204	13187.15	12288.5
874.4933	1300.4077	12734.6	11837.3
874.6376	1302.2943	12233.4	11340
874.7819	1304.1802	11711.45	10815.4
874.9262	1306.0653	11136.8	10240.65
875.0705	1307.9497	10560.2	9663.5
875.2147	1309.8333	10044.35	9149.2
875.359	1311.7162	9687.9	8791.6
875.5032	1313.5984	9427.95	8529.95
875.6475	1315.4798	9275.35	8377.9
875.7917	1317.3605	9217.85	8306.55
875.9359	1319.2405	9136.8	8238.1
876.0801	1321.1197	8933.75	8035.2
876.2243	1322.9982	8629.6	7727.1
876.3685	1324.876	8291.1	7394.55
876.5127	1326.753	7923.1	7027.35
876.6569	1328.6293	7563.25	6663.8
876.801	1330.5048	7250.3	6351.35
876.9452	1332.3796	6994.9	6097.75
877.0893	1334.2537	6803.55	5882.75
877.2335	1336.127	6611.65	5714.95
877.3776	1337.9996	6505.5	5609.35
877.5217	1339.8714	6437.5	5540
877.6658	1341.7426	6442	5501.85
877.8099	1343.6129	6414.2	5515.35
877.954	1345.4826	6371.55	5476.3
878.0981	1347.3515	6350.25	5452.8
878.2422	1349.2196	6315.75	5419.55
878.3862	1351.087	6305.55	5408.75
878.5303	1352.9537	6334.35	5432.8
878.6743	1354.8197	6406.65	5510.25
878.8184	1356.6849	6505.2	5609.45
878.9624	1358.5493	6666.55	5769.65
879.1064	1360.4131	6870.6	5975.1
879.2504	1362.276	7091.3	6197.3
879.3944	1364.1383	7193	6295.4
879.5384	1365.9998	7184.25	6280.4
879.6823	1367.8606	7021.6	6121.85
879.8263	1369.7206	6797.9	5902.05
879.9702	1371.5799	6563.7	5665.45
880.1142	1373.4384	6373.4	5477.35
880.2581	1375.2962	6175.45	5277.65
880.402	1377.1533	5918.95	5022.9
880.5459	1379.0096	5611.8	4718.7
880.6898	1380.8652	5337.7	4443
880.8337	1382.7201	5108.15	4212.35
880.9776	1384.5742	4925.15	4030.95
881.1215	1386.4275	4763.7	3866.25
881.2653	1388.2802	4652.4	3758.25
881.4092	1390.132	4561.95	3666.6
881.553	1391.9832	4504.45	3608.65
881.6968	1393.8336	4458	3562.45
881.8406	1395.6832	4446.9	3547.15
881.9844	1397.5322	4405.3	3508.05
882.1282	1399.3803	4368.15	3466.3
882.272	1401.2278	4339.6	3441.3
882.4158	1403.0745	4312.25	3417.35
882.5595	1404.9204	4287.7	3391.1
882.7033	1406.7656	4258.45	3362.6
882.847	1408.6101	4268.2	3370.95
882.9908	1410.4538	4268.05	3371.3
883.1345	1412.2968	4274.15	3377.4
883.2782	1414.139	4339.25	3441.05
883.4219	1415.9805	4373.85	3479.9
883.5656	1417.8213	4456.1	3537.15
883.7092	1419.6613	4532.25	3635.95
883.8529	1421.5006	4646.2	3750.85
883.9965	1423.3391	4832.8	3936.6
884.1402	1425.1769	5067.15	4169.7
884.2838	1427.0139	5444.35	4546
884.4274	1428.8502	5882.25	4983.05
884.571	1430.6858	6282	5387.1
884.7146	1432.5206	6613.05	5718.35
884.8582	1434.3547	6778.8	5881.9
885.0018	1436.188	6797.75	5901.95
885.1453	1438.0206	6749.65	5853.85
885.2889	1439.8524	6633.2	5736.1
885.4324	1441.6835	6555.4	5656.95
885.5759	1443.5139	6466.45	5566.95
885.7194	1445.3435	6437.85	5543.75
885.8629	1447.1724	6417.55	5522.9
886.0064	1449.0005	6396.3	5503.05
886.1499	1450.8279	6356	5460.25
886.2933	1452.6545	6329.95	5435.3
886.4368	1454.4804	6353.4	5460.05
886.5802	1456.3056	6367.15	5466.25
886.7237	1458.13	6298.75	5406
886.8671	1459.9536	6200.7	5307.65
887.0105	1461.7766	6022.25	5129.25
887.1539	1463.5987	5801.85	4907.45
887.2972	1465.4202	5534.3	4638.8
887.4406	1467.2409	5269.85	4371.5
887.584	1469.0608	5044.55	4150.3
887.7273	1470.88	4825.1	3928.95
887.8706	1472.6984	4641.55	3748.75
888.0139	1474.5161	4499	3601.7
888.1572	1476.3331	4363.85	3471.65
888.3005	1478.1493	4288.05	3390.85
888.4438	1479.9648	4227.6	3334.4
888.5871	1481.7795	4175.1	3282.9
888.7303	1483.5935	4152.95	3260.4
888.8736	1485.4067	4116.9	3224.45
889.0168	1487.2192	4112.75	3217.1
889.16	1489.031	4087.4	3189.2
889.3032	1490.842	4077.4	3184.55
889.4464	1492.6522	4052.45	3157.45
889.5896	1494.4618	4038.4	3143.9
889.7327	1496.2705	4035.15	3138.95
889.8759	1498.0785	3996.75	3101
890.019	1499.8858	3974.2	3080.2
890.1622	1501.6924	3940.55	3048.35
890.3053	1503.4981	3912.3	3018.5
890.4484	1505.3032	3880.55	2985.4
890.5914	1507.1075	3857.1	2963.1
890.7345	1508.911	3813	2919.8
890.8776	1510.7138	3799.9	2905.95
891.0206	1512.5159	3737.6	2842.3
891.1637	1514.3172	3702.85	2809.4
891.3067	1516.1178	3668.3	2778.45
891.4497	1517.9176	3645.45	2749
891.5927	1519.7166	3624	2730.3
891.7357	1521.515	3601.95	2702.4
891.8786	1523.3126	3585.2	2694
892.0216	1525.1094	3555	2659.25
892.1645	1526.9055	3549.05	2657.2
892.3074	1528.7008	3528.3	2634
892.4503	1530.4954	3509.15	2610.35
892.5932	1532.2893	3501.25	2611.4
892.7361	1534.0824	3492.75	2595.65
892.879	1535.8747	3493.85	2602
893.0218	1537.6663	3481.2	2588.7
893.1647	1539.4572	3486.9	2592.8
893.3075	1541.2473	3497.45	2605.4
893.4503	1543.0367	3500.95	2608.4
893.5931	1544.8253	3520.4	2624.4
893.7359	1546.6132	3543.8	2649.05
893.8787	1548.4003	3577.15	2674.85
894.0214	1550.1867	3616.3	2716.3
894.1642	1551.9723	3669.7	2774.7
894.3069	1553.7572	3761.2	2868
894.4496	1555.5414	3834.95	2944.65
894.5923	1557.3247	3975.05	3085.55
894.735	1559.1074	4149.4	3260.6
894.8777	1560.8893	4315.85	3426.8
895.0204	1562.6705	4485.15	3596.1
895.163	1564.4509	4627.7	3736.45
895.3056	1566.2305	4733.35	3844
895.4482	1568.0094	4800.7	3913.25
895.5908	1569.7876	4823.6	3935.05
895.7334	1571.565	4826.25	3935.5
895.876	1573.3417	4829.5	3940.25
896.0186	1575.1176	4860.75	3972.4
896.1611	1576.8928	4907.15	4020.15
896.3036	1578.6672	4968.45	4083
896.4461	1580.4409	5060.5	4175.95
896.5886	1582.2138	5165.45	4275.15
896.7311	1583.986	5293.95	4406.05
896.8736	1585.7575	5418.75	4530.6
897.0161	1587.5282	5555.2	4667.4
897.1585	1589.2981	5709.9	4825.6
897.3009	1591.0673	5798.85	4912.05
897.4433	1592.8358	5913.55	5027.85
897.5857	1594.6035	5987.45	5099.3
897.7281	1596.3704	6025	5135.7
897.8705	1598.1366	6048.85	5162.35
898.0128	1599.9021	6105.95	5220.3
898.1551	1601.6668	6101	5211.95
898.2975	1603.4308	6131.2	5241.15
898.4398	1605.194	6193.95	5301.9
898.5821	1606.9564	6321.1	5436.9
898.7243	1608.7182	6537.3	5651.55
898.8666	1610.4791	6792.1	5909.05
899.0088	1612.2394	7151.25	6270
899.1511	1613.9988	7505.65	6622.3
899.2933	1615.7576	7855.7	6973.75
899.4355	1617.5156	8120.05	7227
899.5776	1619.2728	8227.8	7341.45
899.7198	1621.0293	8159.5	7274.15
899.862	1622.785	7920.3	7029.05
900.0041	1624.54	7503.75	6614.75
900.1462	1626.2942	7084.15	6196.25
900.2883	1628.0477	6647.3	5762.1
900.4304	1629.8005	6198.8	5312
900.5725	1631.5525	5790.35	4905.8
900.7145	1633.3037	5478.25	4594.65
900.8566	1635.0542	5180.9	4295.3
900.9986	1636.804	4964.35	4079.7
901.1406	1638.553	4864.35	3911.6
901.2826	1640.3013	4678.05	3796.85
901.4245	1642.0488	4580.3	3696.95
901.5665	1643.7955	4558.55	3674.15
901.7085	1645.5416	4529.8	3644.55
901.8504	1647.2868	4543.45	3658.65
901.9923	1649.0313	4583.6	3699.3
902.1342	1650.7751	4633.5	3745.7
902.2761	1652.5181	4681.7	3797.15
902.4179	1654.2604	4762.9	3877.85
902.5598	1656.0019	4876.35	3991.3
902.7016	1657.7427	5044.1	4160.25
902.8434	1659.4828	5268.35	4383.6
902.9852	1661.222	5464.25	4576.95
903.127	1662.9606	5556.15	4674.35
903.2687	1664.6984	5512.6	4627.7
903.4105	1666.4354	5283	4398.65
903.5522	1668.1717	4935.05	4048.65
903.6939	1669.9072	4549.3	3661.35
903.8356	1671.642	4185	3297.8
903.9773	1673.3761	3873.2	2989.25
904.119	1675.1094	3609.65	2725.3
904.2606	1676.8419	3452.3	2567.05
904.4022	1678.5737	3287.75	2403.1
904.5439	1680.3048	3190.7	2305.45
904.6855	1682.0351	3091.65	2207.45
904.827	1683.7646	3033.55	2146.45
904.9686	1685.4934	2971.85	2088.05
905.1101	1687.2215	2921.1	2035.6
905.2517	1688.9488	2874.7	1991.25
905.3932	1690.6754	2855.5	1970.95
905.5347	1692.4012	2813.15	1929.95
905.6761	1694.1263	2793.5	1907.6
905.8176	1695.8506	2754.05	1868.45
905.9591	1697.5742	2727.7	1845.65
906.1005	1699.297	2703.9	1821.95
906.2419	1701.0191	2699.95	1818.75
906.3833	1702.7404	2660.4	1777
906.5246	1704.461	2634.2	1748.3
906.666	1706.1808	2621.3	1735.85
906.8073	1707.8999	2612.05	1728.3
906.9487	1709.6182	2587.95	1702.25
907.09	1711.3358	2576.4	1694.7
907.2313	1713.0527	2559.3	1677.65
907.3725	1714.7688	2545.45	1657.1
907.5138	1716.4841	2530.4	1645.6
907.655	1718.1987	2527.2	1637.55
907.7962	1719.9126	2512.7	1630.45
907.9374	1721.6257	2508.55	1623.4
908.0786	1723.338	2508.7	1626.15
908.2198	1725.0496	2478.6	1594.25
908.3609	1726.7605	2473.25	1591.2
908.502	1728.4706	2475.6	1592.15
908.6431	1730.18	2465.75	1581.2
908.7842	1731.8886	2445.45	1563.95
908.9253	1733.5964	2462.75	1558
909.0664	1735.3036	2447.9	1561.05
909.2074	1737.0099	2438.95	1556.55
909.3484	1738.7156	2423.6	1541.35
909.4894	1740.4204	2407.4	1523.25
909.6304	1742.1246	2393	1507.35
909.7714	1743.8279	2394.45	1513.8
909.9123	1745.5306	2377.6	1494.9
910.0532	1747.2325	2373.2	1490
910.1941	1748.9336	2372.45	1489.45
910.335	1750.634	2355.2	1469.45
910.4759	1752.3336	2342.35	1459.6
910.6168	1754.0325	2339.15	1459.55
910.7576	1755.7307	2347.75	1464.05
910.8984	1757.4281	2342.5	1462.15
911.0392	1759.1247	2340.75	1449.95
911.18	1760.8206	2338.7	1452
911.3208	1762.5158	2334	1445.1
911.4615	1764.2102	2309.1	1424.65
911.6022	1765.9039	2321.2	1437.9
911.7429	1767.5968	2308.05	1424.15
911.8836	1769.289	2303.3	1421.3
912.0243	1770.9804	2298.9	1415.35
912.1649	1772.6711	2298.55	1414.8
912.3056	1774.361	2285.95	1402.05
912.4462	1776.0502	2289.2	1405.9
912.5868	1777.7386	2287.05	1402.15
912.7274	1779.4263	2276.55	1392.75
912.8679	1781.1132	2283.65	1400.2
913.0084	1782.7994	2265.05	1382
913.149	1784.4849	2281.3	1398.95
913.2895	1786.1696	2277.45	1375.8
913.4299	1787.8535	2260	1377.95
913.5704	1789.5367	2265.7	1384.2
913.7108	1791.2192	2254.2	1374.5
913.8513	1792.9009	2277.55	1366.65
913.9917	1794.5818	2248.05	1364.95
914.132	1796.2621	2232.2	1349.85
914.2724	1797.9415	2227.1	1344.05
914.4128	1799.6202	2237.15	1355.9
914.5531	1801.2982	2226.35	1342.3
914.6934	1802.9755	2212.15	1326.95
914.8337	1804.6519	2218.3	1335.45
914.9739	1806.3277	2211.9	1327.75
915.1142	1808.0027	2203.6	1322.35
915.2544	1809.6769	2211.8	1329.5
915.3946	1811.3504	2199.2	1315.8
915.5348	1813.0231	2187.95	1306.75
915.675	1814.6951	2188.55	1307.7
915.8151	1816.3664	2194.2	1310.2
915.9553	1818.0369	2185.75	1302.3
916.0954	1819.7067	2190.3	1307.75
916.2355	1821.3757	2182.8	1298.85
916.3755	1823.044	2178.05	1294.05
916.5156	1824.7115	2177.25	1294.05
916.6556	1826.3783	2169.95	1287.15
916.7956	1828.0443	2162.3	1279.2
916.9356	1829.7096	2177.7	1293.8
917.0756	1831.3741	2169.75	1283.3
917.2155	1833.0379	2145.85	1264.1
917.3555	1834.701	2154.7	1269.7
917.4954	1836.3633	2153.8	1271.85
917.6353	1838.0248	2158.6	1273.1
917.7751	1839.6856	2149.15	1267.6
917.915	1841.3457	2140.2	1259.85
918.0548	1843.005	2139.75	1256.8
918.1946	1844.6636	2133.85	1250.7
918.3344	1846.3214	2138.65	1255.5
918.4742	1847.9785	2137.9	1254.25
918.6139	1849.6349	2136	1253.05
918.7537	1851.2904	2147.2	1255.75
918.8934	1852.9453	2137.3	1253.1
919.0331	1854.5994	2125.6	1240.8
919.1727	1856.2528	2132.5	1245.9
919.3124	1857.9054	2118.9	1237
919.452	1859.5572	2121.1	1240.1
919.5916	1861.2083	2125.6	1240.5
919.7312	1862.8587	2114.3	1232.15
919.8708	1864.5084	2116.75	1233.55
920.0103	1866.1572	2106.65	1225.65
920.1498	1867.8054	2098.05	1215.1
920.2893	1869.4528	2114.05	1230.05
920.4288	1871.0994	2096	1213.9
920.5683	1872.7453	2091	1207.05
920.7077	1874.3905	2090.3	1201.05
920.8471	1876.0349	2087.55	1205.8
920.9865	1877.6786	2091.9	1208.7
921.1259	1879.3215	2077.15	1194.7
921.2653	1880.9637	2076.35	1193.15
921.4046	1882.6051	2076.45	1192.5
921.5439	1884.2458	2074.75	1191.15
921.6832	1885.8858	2067.55	1185.45
921.8225	1887.525	2075.35	1192.85
921.9617	1889.1634	2058.8	1176.35
922.101	1890.8011	2062.25	1177.95
922.2402	1892.4381	2054.45	1172.7
922.3794	1894.0743	2047.55	1165.3
922.5185	1895.7098	2041.15	1159.05
922.6577	1897.3446	2043.35	1159.15
922.7968	1898.9786	2034.85	1145.9
922.9359	1900.6118	2033.85	1152
923.075	1902.2443	2040	1155
923.214	1903.8761	2018.7	1137.15
923.3531	1905.5071	2025.8	1142.2
923.4921	1907.1374	2023.05	1138.9
923.6311	1908.7669	2014.65	1133
923.77	1910.3957	2023.15	1139.25
923.909	1912.0237	1999.05	1117.1
924.0479	1913.651	2006.4	1122.2
924.1868	1915.2776	1994.95	1113.55
924.3257	1916.9034	1991.35	1111.95
924.4646	1918.5285	1991.3	1110.65
924.6034	1920.1528	1984.6	1101.6
924.7422	1921.7764	1987.9	1108.95
924.881	1923.3992	1987.85	1105.55
925.0198	1925.0213	1976.05	1093.45
925.1586	1926.6427	1975.65	1094.5
925.2973	1928.2633	2040.65	1073
925.436	1929.8832	1969.55	1087.3
925.5747	1931.5023	1974.5	1089.55
925.7134	1933.1207	1951.25	1067.6
925.852	1934.7383	1960.15	1076.3
925.9906	1936.3552	1953.3	1070.65
926.1292	1937.9714	1949.1	1064.7
926.2678	1939.5868	1952.1	1067.1
926.4064	1941.2015	1940.3	1055.4
926.5449	1942.8154	1936.6	1053.25
926.6834	1944.4286	1927.85	1044.35
926.8219	1946.041	1949.5	1043.3
926.9604	1947.6528	1931.45	1043.7
927.0988	1949.2637	1918.4	1034.95
927.2372	1950.8739	1919.25	1034.95
927.3756	1952.4834	1914.2	1029.8
927.514	1954.0921	1917.55	1032.55
927.6523	1955.7001	1911.95	1024.55
927.7907	1957.3074	1902.7	1021.55
927.929	1958.9139	1900.45	1018.9
928.0673	1960.5197	1897.8	1014.05
928.2055	1962.1247	1890.7	1007.95
928.3438	1963.729	1881.8	999.95
928.482	1965.3325	1896.05	1007.8
928.6202	1966.9353	1882.5	1002.35
928.7584	1968.5374	1875.95	993.95
928.8965	1970.1387	1875.85	994.5
929.0346	1971.7393	1879	997.15
929.1727	1973.3392	1872.95	992
929.3108	1974.9383	1864.35	983.8
929.4489	1976.5366	1858.75	976.85
929.5869	1978.1342	1858.95	978.75
929.7249	1979.7311	1851.1	970
929.8629	1981.3273	1856.8	975.75
930.0009	1982.9227	1846	965.25
930.1388	1984.5173	1844.65	963.9
930.2767	1986.1112	1847.45	968.65
930.4146	1987.7044	1845.35	965.9
930.5525	1989.2968	1842.5	959.85
930.6904	1990.8885	1849.4	965.5
930.8282	1992.4795	1831.25	948.85
930.966	1994.0697	1837	957.25
931.1038	1995.6592	1828.6	948.85
931.2415	1997.2479	1828.15	946.3
931.3793	1998.8359	1821.7	943.8
931.517	2000.4232	1818.1	939.6
931.6547	2002.0097	1821.7	944.55
931.7923	2003.5955	1821.45	941.85
931.93	2005.1805	1818.25	937.45
932.0676	2006.7648	1815	935.3
932.2052	2008.3484	1813.9	933.25
932.3427	2009.9312	1812.35	930.05
932.4803	2011.5133	1810.4	932.65
932.6178	2013.0946	1801.4	921.95
932.7553	2014.6752	1799.35	923.7
932.8928	2016.2551	1798.45	917.05
933.0302	2017.8342	1798.4	917.6
933.1676	2019.4126	1788.85	912.8
933.305	2020.9902	1785.35	907.6
933.4424	2022.5672	1792.15	914
933.5798	2024.1433	1795.7	911.15
933.7171	2025.7188	1785.55	907.5
933.8544	2027.2935	1780	899.9
933.9917	2028.8674	1777	898.95
934.129	2030.4406	1768.6	890.35
934.2662	2032.0131	1773.95	897.85
934.4034	2033.5849	1773.35	885.55
934.5406	2035.1559	1769.6	892.95
934.6778	2036.7261	1764.85	885.05
934.8149	2038.2957	1763.4	884.4
934.952	2039.8645	1773.25	892.65
935.0891	2041.4325	1770.35	887.05
935.2262	2042.9998	1761.5	882.9
935.3632	2044.5664	1761.8	882.8
935.5002	2046.1323	1756.55	878.6
935.6372	2047.6974	1749.75	873.1
935.7742	2049.2617	1748.7	869.5
935.9111	2050.8254	1753.95	869.85
936.048	2052.3883	1760.95	883.45
936.1849	2053.9504	1753.8	870.9
936.3218	2055.5118	1747.55	867.35
936.4586	2057.0725	1744.9	859.95
936.5955	2058.6325	1735.7	856.95
936.7323	2060.1917	1733.15	853.9
936.869	2061.7502	1733.8	851.05
937.0058	2063.3079	1734.85	857.8
937.1425	2064.8649	1730.45	849.05
937.2792	2066.4212	1733.9	855
937.4159	2067.9767	1727.5	848.7
937.5525	2069.5315	1723.9	844.05
937.6891	2071.0856	1721.3	842.55
937.8257	2072.6389	1718.15	837.65
937.9623	2074.1915	1711.95	835.1
938.0989	2075.7433	1708.85	827.7
938.2354	2077.2945	1710.3	831.35
938.3719	2078.8448	1702.45	821.2
938.5084	2080.3945	1710.55	831
938.6448	2081.9434	1705.55	826.15
938.7812	2083.4916	1704.35	823.45
938.9176	2085.039	1700.75	817.1
939.054	2086.5857	1698.55	817.6
939.1903	2088.1317	1696.65	815.25
939.3267	2089.677	1690.35	807.95
939.463	2091.2215	1693.3	808.3
939.5992	2092.7652	1692.95	810.75
939.7355	2094.3083	1683.9	800.4
939.8717	2095.8506	1680	799.65
940.0079	2097.3921	1689.45	809.1
940.1441	2098.933	1682.55	802.35
940.2802	2100.4731	1682.55	800.35
940.4163	2102.0124	1692.85	791.9
940.5524	2103.5511	1685.25	803.95
940.6885	2105.089	1688.05	807.05
940.8245	2106.6261	1677.8	797.95
940.9606	2108.1626	1678.55	795.15
941.0965	2109.6983	1702.5	792.8
941.2325	2111.2332	1664.2	780.65
941.3684	2112.7675	1670.25	787.5
941.5044	2114.301	1669.85	787.6
941.6403	2115.8337	1665.9	783.65
941.7761	2117.3657	1666.65	786.45
941.912	2118.897	1671	789.05
942.0478	2120.4276	1663.5	775.55
942.1835	2121.9575	1659.4	777.9
942.3193	2123.4866	1656.4	773.25
942.455	2125.0149	1655.1	773.35
942.5907	2126.5426	1643.65	764.4
942.7264	2128.0695	1650	766.35
942.8621	2129.5956	1646.2	767.75
942.9977	2131.1211	1649.15	763.85
943.1333	2132.6458	1651.9	770.35
943.2689	2134.1698	1640.3	759.5
943.4044	2135.693	1638.8	753.9
943.54	2137.2155	1632.6	749.05
943.6755	2138.7373	1639.45	759.05
943.8109	2140.2584	1645.1	764.7
943.9464	2141.7787	1633.9	748.85
944.0818	2143.2983	1628.3	751.9
944.2172	2144.8171	1622.55	744.4
944.3526	2146.3353	1629	745.45
944.4879	2147.8527	1619.2	739.5
944.6232	2149.3693	1618.25	738.6
944.7585	2150.8853	1627.3	745.45
944.8938	2152.4005	1616	734
945.029	2153.9149	1615.65	733.55
945.1642	2155.4287	1615.25	736.05
945.2994	2156.9417	1620.55	739.75
945.4346	2158.454	1610.75	728.4
945.5697	2159.9655	1604.55	724.15
945.7048	2161.4764	1602.1	724.05
945.8399	2162.9865	1602	722.3
945.9749	2164.4958	1601.4	722.3
946.1099	2166.0045	1598.6	715.65
946.2449	2167.5124	1603.15	723.7
946.3799	2169.0195	1600.6	720.95
946.5148	2170.526	1598.35	715.25
946.6498	2172.0317	1603.5	724.3
946.7846	2173.5367	1593.3	714.05
946.9195	2175.0409	1587.9	707.2
947.0543	2176.5445	1595.25	713.5
947.1891	2178.0473	1589.25	707.9
947.3239	2179.5494	1583.45	695.75
947.4587	2181.0507	1578.45	699.4
947.5934	2182.5513	1588.65	708.35
947.7281	2184.0512	1584.35	703.8
947.8628	2185.5504	1581	700.85
947.9974	2187.0488	1576.3	696.1
948.132	2188.5465	1575.95	695.1
948.2666	2190.0435	1578	698.15
948.4012	2191.5397	1572.7	692.85
948.5357	2193.0353	1570.5	689.7
948.6702	2194.5301	1570.15	687.05
948.8047	2196.0241	1577.35	695.4
948.9392	2197.5175	1568.25	685.2
949.0736	2199.0101	1566.45	679.95
949.208	2200.502	1559.1	680.8
949.3424	2201.9931	1561.7	681.05
949.4767	2203.4835	1556.35	675.9
949.611	2204.9733	1562.7	675.4
949.7453	2206.4622	1560.15	683.2
949.8796	2207.9505	1552.5	671.55
950.0138	2209.438	1556.1	677.5
950.148	2210.9248	1548.25	666.1
950.2822	2212.4109	1547.85	666.15
950.4164	2213.8962	1548.75	665.65
950.5505	2215.3809	1545.75	659.65
950.6846	2216.8648	1546.85	665.1
950.8186	2218.3479	1541.3	654.85
950.9527	2219.8304	1538.2	654.3
951.0867	2221.3121	1542.75	658.7
951.2207	2222.7931	1534.25	650.95
951.3546	2224.2733	1533.6	652.05
951.4886	2225.7529	1524.3	642.7
951.6225	2227.2317	1521.6	638.3
951.7563	2228.7098	1521.75	643.05
951.8902	2230.1872	1521.35	640.05
952.024	2231.6638	1520.35	641.5
952.1578	2233.1397	1520.45	635.3
952.2916	2234.6149	1519.4	639.25
952.4253	2236.0894	1514.25	632.05
952.559	2237.5632	1518.85	628
952.6927	2239.0362	1511.6	632.25
952.8263	2240.5085	1511.7	630.6
952.9599	2241.9801	1509.4	628.1
953.0935	2243.4509	1506.65	625.5
953.2271	2244.921	1509.8	626.85
953.3606	2246.3904	1504.55	620.35
953.4941	2247.8591	1499.1	618.5
953.6276	2249.3271	1494.5	612.75
953.7611	2250.7943	1493.25	610.4
953.8945	2252.2608	1497.1	616
954.0279	2253.7266	1490.15	610.1
954.1612	2255.1917	1483.75	602.55
954.2946	2256.656	1484.6	602.6
954.4279	2258.1197	1482.7	602.6
954.5612	2259.5826	1478.65	595.7
954.6944	2261.0447	1489.1	607.7
954.8276	2262.5062	1478.6	595.2
954.9608	2263.9669	1482.45	598.4
955.094	2265.4269	1481.55	600.45
955.2271	2266.8862	1484.7	602.1
955.3602	2268.3448	1470	589.6
955.4933	2269.8026	1479.9	597.55
955.6264	2271.2598	1477.55	595.6
955.7594	2272.7162	1471	591.7
955.8924	2274.1719	1467.85	588.3
956.0253	2275.6268	1466.65	584.15
956.1583	2277.0811	1463.8	582.45
956.2912	2278.5346	1456.7	578
956.4241	2279.9874	1466	587.05
956.5569	2281.4395	1463.25	584.9
956.6897	2282.8908	1473.35	587.65
956.8225	2284.3414	1462.4	578.6
956.9553	2285.7914	1464.05	583.15
957.088	2287.2406	1465.7	581.75
957.2207	2288.689	1460.85	577.25
957.3534	2290.1368	1456.15	572.95
957.486	2291.5838	1463.05	580.4
957.6186	2293.0302	1461.7	578.55
957.7512	2294.4758	1462	579.95
957.8838	2295.9206	1454.8	568.7
958.0163	2297.3648	1457.95	578.1
958.1488	2298.8082	1454.6	572.85
958.2813	2300.251	1454.85	573.15
958.4137	2301.693	1453.15	568.4
958.5461	2303.1343	1448.4	565.45
958.6785	2304.5748	1448.3	566.35
958.8108	2306.0147	1441.25	559.05
958.9432	2307.4538	1453	569.1
959.0754	2308.8922	1443.05	565.95
959.2077	2310.3299	1438.9	557.75
959.3399	2311.7669	1435.6	556.4
959.4721	2313.2031	1440.9	562.35
959.6043	2314.6387	1441.55	559
959.7365	2316.0735	1439.8	557.7
959.8686	2317.5076	1436.5	554.85
960.0006	2318.941	1428.75	546.6
960.1327	2320.3737	1425.55	544.5
960.2647	2321.8056	1431.3	548.1
960.3967	2323.2369	1423.75	543.1
960.5287	2324.6674	1422.45	539.15
960.6606	2326.0972	1428.4	544.7
960.7925	2327.5263	1424.05	543.25
960.9244	2328.9547	1422.25	541.1
961.0562	2330.3823	1422.95	540.1
961.1881	2331.8092	1426.45	540.45
961.3198	2333.2355	1417.15	535.4
961.4516	2334.661	1409.1	526.1
961.5833	2336.0858	1419.45	535
961.715	2337.5098	1411.35	530
961.8467	2338.9332	1417.7	535.3
961.9783	2340.3558	1410.45	522.4
962.1099	2341.7778	1404.1	524.45
962.2415	2343.199	1407	521.65
962.373	2344.6195	1405.1	526.15
962.5045	2346.0393	1401.85	520.95
962.636	2347.4583	1408.85	526.35
962.7675	2348.8767	1401.1	519.25
962.8989	2350.2943	1407.4	522.55
963.0303	2351.7113	1401.1	516.45
963.1617	2353.1275	1401.45	519
963.293	2354.543	1426.85	519.5
963.4243	2355.9578	1401.35	517.5
963.5556	2357.3718	1397.25	515
963.6868	2358.7852	1400.25	515.25
963.818	2360.1978	1392.55	509.2
963.9492	2361.6098	1399.35	517.75
964.0803	2363.021	1404.15	518.85
964.2114	2364.4315	1388	506.45
964.3425	2365.8413	1390.55	508.4
964.4736	2367.2504	1392.8	512.7
964.6046	2368.6587	1389.45	507.6
964.7356	2370.0664	1383.25	501.2
964.8666	2371.4733	1391.65	510.2
964.9975	2372.8795	1381.95	498.5
965.1284	2374.285	1376.15	492.5
965.2593	2375.6899	1382.5	499.2
965.3901	2377.0939	1382.75	500
965.5209	2378.4973	1373.65	491.65
965.6517	2379.9	1380.4	497.25
965.7825	2381.3019	1373.3	492.25
965.9132	2382.7032	1377.15	495.3
966.0439	2384.1037	1371.05	491.15
966.1745	2385.5035	1367.05	485.3
966.3051	2386.9027	1364.4	483.8
966.4357	2388.3011	1374.2	491.25
966.5663	2389.6987	1362.85	480.85
966.6968	2391.0957	1362.6	479.1
966.8273	2392.492	1357.75	476.6
966.9578	2393.8876	1352.75	469.6
967.0882	2395.2824	1354.1	471.8
967.2186	2396.6765	1348.25	467
967.349	2398.07	1348.75	467.95
967.4793	2399.4627	1351.4	470
967.6097	2400.8547	1348.7	464.95
967.7399	2402.246	1349.15	459.9
967.8702	2403.6366	1347.3	464.75
968.0004	2405.0265	1345.3	463.8
968.1306	2406.4156	1345.8	461.1
968.2607	2407.8041	1343.75	457.5
968.3909	2409.1918	1343.8	460.35
968.521	2410.5789	1342.1	459.15
968.651	2411.9652	1339.8	455.1
968.781	2413.3508	1333.35	451.9
968.911	2414.7358	1333.7	451.1
969.041	2416.12	1336.2	455
969.1709	2417.5035	1334.3	455.55
969.3008	2418.8863	1341.05	456.25
969.4307	2420.2684	1341.75	458.4
969.5606	2421.6497	1331.65	450.1
969.6904	2423.0304	1334.85	455.15
969.8201	2424.4104	1327.4	444.25
969.9499	2425.7896	1336.3	449.7
970.0796	2427.1682	1326.75	444
970.2093	2428.546	1328.75	444.5
970.3389	2429.9232	1331.75	447.2
970.4685	2431.2996	1324.2	441.55
970.5981	2432.6753	1325.35	443.95
970.7277	2434.0503	1326.45	443.35
970.8572	2435.4246	1323.2	443.05
970.9867	2436.7982	1320.1	435.15
971.1161	2438.1711	1314.4	431.65
971.2456	2439.5433	1322.05	438.8
971.375	2440.9148	1324	436.15
971.5043	2442.2856	1317.35	435.6
971.6336	2443.6557	1316.65	432.55
971.7629	2445.025	1308.65	425.3
971.8922	2446.3937	1305.75	423.3
972.0214	2447.7617	1305.2	423.3
972.1506	2449.1289	1314.2	432.85
972.2798	2450.4955	1313.85	428.25
972.4089	2451.8613	1304.65	423.35
972.538	2453.2265	1308.35	426.1
972.6671	2454.5909	1308.3	426
972.7961	2455.9546	1300.65	416.5
972.9251	2457.3177	1301.15	420.8
973.0541	2458.68	1302.95	419.6
973.1831	2460.0416	1300.55	418.55
973.312	2461.4025	1304.2	421.2
973.4408	2462.7627	1313.3	420.05
973.5697	2464.1222	1300.85	419.8
973.6985	2465.4811	1294.65	412.6
973.8273	2466.8392	1291.15	408.55
973.956	2468.1966	1308.9	424.25
974.0847	2469.5533	1302.6	418.2
974.2134	2470.9093	1301.5	419.7
974.3421	2472.2645	1292.1	408
974.4707	2473.6191	1297.6	415.15
974.5993	2474.973	1297.95	416.25
974.7278	2476.3262	1293.65	409.25
974.8563	2477.6787	1295.55	415.65
974.9848	2479.0305	1295.1	411.95
975.1132	2480.3816	1299.7	416.45
975.2417	2481.7319	1298.8	419.35
975.37	2483.0816	1290.6	407.75
975.4984	2484.4306	1289.35	406.05
975.6267	2485.7789	1288.8	406.8
975.755	2487.1264	1293.85	410.4
975.8833	2488.4733	1284	403.35
976.0115	2489.8195	1301.05	401.55
976.1397	2491.165	1291.75	407.15
976.2678	2492.5097	1288.95	406.7
976.3959	2493.8538	1280.9	399
976.524	2495.1972	1286.95	403.75
976.6521	2496.5398	1286.1	401
976.7801	2497.8818	1281.75	396.5
976.9081	2499.2231	1277.8	394.15
977.036	2500.5637	1285.25	401.15
977.164	2501.9035	1278.45	395.6
977.2918	2503.2427	1278.35	390.85
977.4197	2504.5812	1271.2	387.55
977.5475	2505.919	1273.1	390.1
977.6753	2507.256	1276.55	393.6
977.8031	2508.5924	1271.55	390.7
977.9308	2509.9281	1281.4	393.6
978.0585	2511.2631	1267.35	384.3
978.1861	2512.5974	1271.6	390.05
978.3137	2513.9309	1265.9	382.25
978.4413	2515.2638	1296.85	387.6
978.5689	2516.596	1267.1	386.6
978.6964	2517.9275	1267.5	383.85
978.8239	2519.2583	1269.5	387.15
978.9513	2520.5884	1264.55	380.25
979.0788	2521.9178	1262.75	380.4
979.2062	2523.2465	1267.4	386.25
979.3335	2524.5745	1258.8	378
979.4608	2525.9018	1255.95	373.75
979.5881	2527.2284	1259.65	379.4
979.7154	2528.5543	1261.6	380.8
979.8426	2529.8796	1260.2	379.7
979.9698	2531.2041	1255.2	373.35
980.0969	2532.5279	1260.05	381.1
980.224	2533.851	1259	378.3
980.3511	2535.1735	1260.7	379.55
980.4781	2536.4952	1259.05	378.05
980.6052	2537.8163	1263.15	379
980.7321	2539.1366	1257.9	375.75
980.8591	2540.4562	1261.85	376.6
980.986	2541.7752	1253	370.7
981.1129	2543.0935	1254.8	374.15
981.2397	2544.411	1253.1	368.7
981.3665	2545.7279	1258.8	378.8
981.4933	2547.0441	1253.1	371.35
981.62	2548.3596	1254.5	370.1
981.7467	2549.6744	1250	368.8
981.8734	2550.9885	1256.75	365.95
982.0001	2552.3019	1254.45	374.95
982.1267	2553.6146	1239.4	356.85
982.2532	2554.9266	1247.05	362.8
982.3798	2556.2379	1247.5	364.1
982.5063	2557.5485	1245.1	363.25
982.6327	2558.8585	1256	366.35
982.7592	2560.1677	1250.4	364.45
982.8856	2561.4762	1246.45	364
983.0119	2562.7841	1247.15	362.6
983.1383	2564.0913	1246.2	365.15
983.2646	2565.3977	1247.35	364.35
983.3908	2566.7035	1247.95	368.2
983.517	2568.0086	1247.1	362.4
983.6432	2569.313	1247.55	365.65
983.7694	2570.6167	1243.9	358.6
983.8955	2571.9197	1241.55	359.2
984.0216	2573.222	1251.25	365.35
984.1476	2574.5236	1247.65	366.85
984.2737	2575.8246	1239.55	355.3
984.3996	2577.1248	1240.6	355.75
984.5256	2578.4244	1243.1	362.45
984.6515	2579.7232	1245.9	363.2
984.7774	2581.0214	1268.4	359.4
984.9032	2582.3189	1239	359.25
985.029	2583.6157	1246.1	359.55
985.1548	2584.9118	1242.85	363.6
985.2806	2586.2072	1245.8	366.35
985.4063	2587.5019	1244.05	363.45
985.5319	2588.7959	1246.05	365.1
985.6576	2590.0893	1249.05	364.95
985.7832	2591.3819	1246.05	364.05
985.9087	2592.6739	1245.9	364.2
986.0343	2593.9652	1247.6	362
986.1597	2595.2557	1253.25	371.95
986.2852	2596.5456	1253	369.35
986.4106	2597.8348	1244	363.55
986.536	2599.1234	1250.2	369.95
986.6614	2600.4112	1249.4	367.95
986.7867	2601.6983	1255.45	372.05
986.912	2602.9848	1248.55	365.4
987.0372	2604.2705	1254.4	365.5
987.1624	2605.5556	1249.75	370.25
987.2876	2606.84	1243.2	360.8
987.4128	2608.1237	1249.95	368.35
987.5379	2609.4067	1244.85	363.3
987.6629	2610.689	1252.15	361
987.788	2611.9707	1246.45	362.8
987.913	2613.2516	1246.2	360.65
988.0379	2614.5319	1235.45	354.55
988.1629	2615.8115	1233.65	353.5
988.2878	2617.0903	1229.95	348.65
988.4126	2618.3685	1231.85	351.15
988.5375	2619.6461	1231	348.95
988.6622	2620.9229	1230.95	349.45
988.787	2622.199	1231.35	350.6
988.9117	2623.4745	1224.6	341.15
989.0364	2624.7493	1223.75	344.45
989.161	2626.0234	1223	342.05
989.2857	2627.2968	1223.2	341.65
989.4102	2628.5695	1231.25	348.4
989.5348	2629.8415	1225.05	345.6
989.6593	2631.1128	1230.15	348.3
989.7837	2632.3835	1223.45	341.2
989.9082	2633.6535	1226.15	346.1
990.0326	2634.9228	1225.3	345.2
990.1569	2636.1914	1215.1	334.15
990.2812	2637.4593	1220.3	337.8
990.4055	2638.7265	1220.85	339.6
990.5298	2639.9931	1218.9	337.85
990.654	2641.259	1218.6	336.85
990.7782	2642.5242	1213.55	331.85
990.9023	2643.7887	1213.6	333.15
991.0264	2645.0525	1216.85	336.4
991.1505	2646.3156	1210.85	330
991.2745	2647.5781	1214.35	335.4
991.3985	2648.8398	1207.1	326.6
991.5225	2650.1009	1218.05	327.9
991.6464	2651.3613	1214.7	333.85
991.7703	2652.6211	1212.5	333.1
991.8942	2653.8801	1203.5	325.5
992.018	2655.1385	1209.5	326.6
992.1418	2656.3961	1206.75	325.8
992.2655	2657.6531	1209.75	330.45
992.3892	2658.9094	1205.15	323.25
992.5129	2660.1651	1211.15	332.25
992.6366	2661.42	1207.8	327.7
992.7602	2662.6743	1211.7	330.35
992.8837	2663.9279	1207.35	326.9
993.0073	2665.1808	1211.95	330.3
993.1307	2666.433	1215.3	332.9
993.2542	2667.6846	1213.5	332.95
993.3776	2668.9354	1221.85	338.25
993.501	2670.1856	1217.4	335.5
993.6244	2671.4351	1222.6	341.35
993.7477	2672.6839	1223.6	344.1
993.8709	2673.9321	1228.2	349.8
993.9942	2675.1795	1228.9	347.85
994.1174	2676.4263	1222.15	342.05
994.2405	2677.6724	1224.75	346.05
994.3637	2678.9179	1230.2	349.5
994.4868	2680.1626	1232.7	354.7
994.6098	2681.4067	1230.9	349.7
994.7328	2682.6501	1223.85	343.95
994.8558	2683.8928	1221.75	342.8
994.9788	2685.1348	1226.6	346.5
995.1017	2686.3761	1214.05	333.7
995.2245	2687.6168	1217.2	335.05
995.3474	2688.8568	1216.3	334.6
995.4702	2690.0961	1206.2	327.5
995.5929	2691.3348	1208.5	325.9
995.7156	2692.5727	1209.1	329.35
995.8383	2693.81	1202.9	322.85
995.961	2695.0466	1206.05	327.3
996.0836	2696.2826	1207.6	327.2
996.2062	2697.5178	1221.55	321.35
996.3287	2698.7524	1210.1	329.75
996.4512	2699.9863	1216	332.2
996.5737	2701.2195	1213.85	334.1
996.6961	2702.452	1214.75	332.75
996.8185	2703.6839	1215.5	334.7
996.9408	2704.9151	1217.2	337.5
997.0631	2706.1456	1228.9	346.95
997.1854	2707.3755	1231.65	353.95
997.3077	2708.6046	1238.8	356.7
997.4299	2709.8331	1244.4	363.8
997.552	2711.0609	1248.9	368.55
997.6742	2712.2881	1252.65	374.05
997.7963	2713.5145	1259.8	376.85
997.9183	2714.7403	1263.5	383.85
998.0403	2715.9654	1266.2	386.3
998.1623	2717.1899	1290.5	394.55
998.2842	2718.4136	1288.6	409.85
998.4062	2719.6367	1298.55	420.1
998.528	2720.8591	1310.65	424.2
998.6498	2722.0809	1310.65	429.55
998.7716	2723.3019	1335.65	450.45
998.8934	2724.5223	1333.05	451.4
999.0151	2725.7421	1335.45	455.3
999.1368	2726.9611	1332.7	449.3
999.2584	2728.1795	1331.85	448.8
999.38	2729.3972	1316.55	435.35
999.5016	2730.6142	1320.5	433.1
999.6231	2731.8306	1304.05	422.7
999.7446	2733.0462	1296	413.3
999.8661	2734.2612	1279.5	394.85
999.9875	2735.4756	1269.1	388.45
1000.1089	2736.6892	1259.2	377.85
1000.2302	2737.9022	1248.05	368.8
1000.3515	2739.1145	1235.6	356.85
1000.4728	2740.3262	1238.9	351.4
1000.594	2741.5372	1223.8	346.3
1000.7152	2742.7475	1221.85	341.9
1000.8363	2743.9571	1210.95	328.05
1000.9575	2745.1661	1208.15	321.1
1001.0785	2746.3744	1201.8	319.85
1001.1996	2747.582	1200	321.4
1001.3206	2748.7889	1195.7	313.65
1001.4415	2749.9952	1186.55	308.5
1001.5625	2751.2008	1182.35	300.6
1001.6833	2752.4057	1186.85	304.5
1001.8042	2753.61	1174	293.85
1001.925	2754.8136	1180.7	299.45
1002.0458	2756.0165	1171.85	292.2
1002.1665	2757.2188	1173.95	293
1002.2872	2758.4204	1169.45	289.6
1002.4078	2759.6213	1172.05	290.05
1002.5285	2760.8215	1172.9	289.15
1002.649	2762.0211	1178.2	296.1
1002.7696	2763.22	1178.15	294.65
1002.8901	2764.4182	1169.15	287.85
1003.0106	2765.6158	1173.85	293.8
1003.131	2766.8127	1163.9	284.75
1003.2514	2768.009	1163.55	286
1003.3717	2769.2045	1161.05	279.15
1003.492	2770.3994	1164.5	282.25
1003.6123	2771.5936	1162.55	282.6
1003.7325	2772.7872	1157.5	279.25
1003.8527	2773.9801	1156.55	275.75
1003.9729	2775.1723	1170.1	273.55
1004.093	2776.3639	1153.35	275.75
1004.2131	2777.5548	1152.65	270.95
1004.3331	2778.745	1153	270.25
1004.4531	2779.9346	1157.9	278.4
1004.5731	2781.1235	1155.35	274.65
1004.693	2782.3117	1154.5	275.35
1004.8129	2783.4992	1152.85	272.2
1004.9328	2784.6861	1156.05	276.3
1005.0526	2785.8723	1155.05	272.85
1005.1723	2787.0579	1163.65	283.45
1005.2921	2788.2428	1158.75	280.35
1005.4118	2789.427	1165.15	288.05
1005.5314	2790.6106	1163.2	285.7
1005.651	2791.7935	1169.7	289.15
1005.7706	2792.9757	1173.9	296.65
1005.8902	2794.1573	1183.75	301.85
1006.0097	2795.3382	1184.5	303.45
1006.1291	2796.5184	1186.25	306.1
1006.2485	2797.698	1196.15	313.3
1006.3679	2798.8769	1206	327.8
1006.4873	2800.0551	1214.55	335.2
1006.6066	2801.2327	1224.9	343.9
1006.7258	2802.4096	1226.45	347.1
1006.8451	2803.5859	1232.75	352.85
1006.9642	2804.7615	1242.6	360.8
1007.0834	2805.9364	1256.85	377.3
1007.2025	2807.1106	1275.5	398.4
1007.3216	2808.2842	1288.25	406.7
1007.4406	2809.4572	1304.8	424.85
1007.5596	2810.6294	1323.5	445.1
1007.6785	2811.801	1349.2	470.4
1007.7975	2812.972	1375.4	498
1007.9163	2814.1423	1408.7	527.6
1008.0352	2815.3119	1432.45	553.95
1008.154	2816.4808	1464.9	587.35
1008.2727	2817.6491	1506.25	625.9
1008.3914	2818.8167	1531.9	656.05
1008.5101	2819.9837	1580.6	696.6
1008.6288	2821.15	1616.35	737.75
1008.7474	2822.3157	1663.7	786.7
1008.8659	2823.4807	1701.3	821.85
1008.9844	2824.645	1749.2	867.65
1009.1029	2825.8086	1803.5	923.3
1009.2214	2826.9716	1832.15	953.75
1009.3398	2828.134	1871.3	993.2
1009.4581	2829.2957	1915.1	1037.2
1009.5764	2830.4567	1932.1	1054.8
1009.6947	2831.617	1954.8	1074.65
1009.813	2832.7767	1960.6	1081.4
1009.9312	2833.9358	1962.35	1085.3
1010.0493	2835.0941	1958.5	1076.2
1010.1675	2836.2519	1942.25	1064.55
1010.2855	2837.4089	1928.1	1047.45
1010.4036	2838.5653	1908.25	1030.7
1010.5216	2839.7211	1898.15	1018.5
1010.6396	2840.8761	1904.95	1026.05
1010.7575	2842.0306	1907.3	1030.7
1010.8754	2843.1843	1919.3	1040.65
1010.9932	2844.3374	1942.55	1064.1
1011.111	2845.4899	1971.8	1092.65
1011.2288	2846.6417	2005.2	1127.45
1011.3465	2847.7928	2053.65	1176.25
1011.4642	2848.9433	2084.5	1205.7
1011.5818	2850.0931	2115.7	1238.15
1011.6995	2851.2422	2153.95	1274.75
1011.817	2852.3907	2187.95	1307.2
1011.9345	2853.5385	2215.05	1333.25
1012.052	2854.6857	2276.25	1367.65
1012.1695	2855.8323	2301.7	1424.5
1012.2869	2856.9781	2331.55	1452.45
1012.4042	2858.1233	2366.9	1488.05
1012.5216	2859.2679	2398.7	1519.05
1012.6389	2860.4118	2439.35	1561.25
1012.7561	2861.555	2461.7	1578.05
1012.8733	2862.6976	2501.5	1623.6
1012.9905	2863.8395	2518.85	1640
1013.1076	2864.9808	2539.3	1661.25
1013.2247	2866.1214	2551.55	1673.25
1013.3417	2867.2614	2567.75	1690.25
1013.4587	2868.4007	2583.8	1705.25
1013.5757	2869.5393	2599.5	1720.9
1013.6926	2870.6773	2602.65	1720.9
1013.8095	2871.8146	2607.9	1727.35
1013.9263	2872.9513	2606.15	1724.7
1014.0431	2874.0874	2605.85	1727.65
1014.1599	2875.2227	2592	1713.4
1014.2766	2876.3574	2582.05	1703.95
1014.3933	2877.4915	2566.5	1688.05
1014.51	2878.6249	2554.9	1677.95
1014.6266	2879.7577	2533	1653.15
1014.7431	2880.8898	2529.7	1643.3
1014.8596	2882.0212	2524.9	1646.05
1014.9761	2883.152	2511.7	1631.6
1015.0925	2884.2821	2515	1636.05
1015.2089	2885.4116	2513.6	1634.05
1015.3253	2886.5405	2519.7	1641.95
1015.4416	2887.6686	2521.35	1637.7
1015.5579	2888.7962	2526.4	1651.2
1015.6741	2889.923	2521	1646.15
1015.7903	2891.0493	2534.15	1656.25
1015.9065	2892.1748	2539.25	1662.6
1016.0226	2893.2997	2543.55	1666.25
1016.1387	2894.424	2559.75	1682
1016.2547	2895.5476	2582	1702.5
1016.3707	2896.6706	2588.55	1710.55
1016.4866	2897.7929	2599.95	1721.1
1016.6025	2898.9145	2606.6	1726.5
1016.7184	2900.0355	2618.45	1739.4
1016.8342	2901.1559	2637.6	1758.5
1016.95	2902.2756	2665.7	1784.2
1017.0658	2903.3946	2673.9	1796.85
1017.1815	2904.513	2693.2	1811.55
1017.2971	2905.6308	2716.2	1837.05
1017.4127	2906.7479	2728.25	1850.05
1017.5283	2907.8643	2733.8	1855.1
1017.6439	2908.9801	2745.9	1868.8
1017.7594	2910.0953	2748.35	1870.5
1017.8748	2911.2098	2747.3	1863.75
1017.9902	2912.3236	2741.5	1855.95
1018.1056	2913.4368	2719.2	1837.5
1018.2209	2914.5494	2699.8	1822.2
1018.3362	2915.6613	2694.25	1809.3
1018.4515	2916.7725	2671.15	1790.05
1018.5667	2917.8831	2640.85	1763.05
1018.6819	2918.9931	2621.55	1741.15
1018.797	2920.1024	2595.85	1718.05
1018.9121	2921.211	2588.9	1709.85
1019.0271	2922.319	2571.15	1691.7
1019.1421	2923.4264	2565.75	1688.8
1019.2571	2924.5331	2561.4	1683.85
1019.372	2925.6391	2555.85	1679.85
1019.4869	2926.7445	2555.75	1679
1019.6017	2927.8493	2551.45	1672.7
1019.7165	2928.9534	2556.4	1678.7
1019.8313	2930.0569	2559.5	1677.8
1019.946	2931.1597	2575.35	1694.7
1020.0606	2932.2619	2587.35	1708.5
1020.1753	2933.3634	2580.4	1700.85
1020.2899	2934.4643	2585.8	1701.3
1020.4044	2935.5645	2583.75	1699.8
1020.5189	2936.6641	2584.7	1700.6
1020.6334	2937.763	2550.85	1672.35
1020.7478	2938.8613	2538.4	1657.7
1020.8622	2939.959	2525.8	1642.15
1020.9765	2941.056	2480.35	1602.45
1021.0908	2942.1523	2433.65	1554.15
1021.2051	2943.248	2384.55	1504.25
1021.3193	2944.3431	2326.8	1450.2
1021.4334	2945.4375	2253.05	1374.25
1021.5476	2946.5313	2198.8	1322.05
1021.6617	2947.6244	2123.65	1244.4
1021.7757	2948.7169	2042.15	1163.7
1021.8897	2949.8087	1990.6	1113.5
1022.0037	2950.8999	1924.5	1047.7
1022.1176	2951.9904	1884.45	1006.15
1022.2315	2953.0803	1829.9	950.3
1022.3453	2954.1696	1789.95	912.25
1022.4591	2955.2582	1753.5	874.25
1022.5728	2956.3462	1733.85	855.5
1022.6865	2957.4335	1699.4	823.2
1022.8002	2958.5202	1679.9	797.5
1022.9138	2959.6062	1660.75	784.35
1023.0274	2960.6916	1643.2	762.95
1023.141	2961.7764	1645.95	765.9
1023.2545	2962.8605	1625.6	746.6
1023.3679	2963.9439	1625.85	747.15
1023.4813	2965.0267	1617.8	739.3
1023.5947	2966.1089	1630.45	730.95
1023.708	2967.1905	1596.4	718.2
1023.8213	2968.2714	1599.55	723.15
1023.9346	2969.3516	1609.2	731
1024.0478	2970.4312	1621.8	735.65
1024.1609	2971.5102	1617.2	738.05
1024.274	2972.5885	1620.65	743.05
1024.3871	2973.6662	1634.2	751.95
1024.5002	2974.7432	1619.5	743.05
1024.6132	2975.8196	1623.45	745.9
1024.7261	2976.8954	1615.9	739.35
1024.839	2977.9705	1613.4	735.65
1024.9519	2979.045	1606.75	729.35
1025.0647	2980.1188	1598.35	721.75
1025.1775	2981.192	1593.95	717.9
1025.2902	2982.2645	1580.6	699.2
1025.4029	2983.3364	1564.45	687.75
1025.5156	2984.4077	1545.2	666.5
1025.6282	2985.4783	1524.4	639.45
1025.7407	2986.5483	1503	626.85
1025.8532	2987.6177	1484.6	604.9
1025.9657	2988.6864	1463.6	586.6
1026.0782	2989.7545	1443.9	563.65
1026.1906	2990.8219	1418.8	541.3
1026.3029	2991.8887	1401.15	521.7
1026.4152	2992.9548	1375.8	497.8
1026.5275	2994.0204	1354	476.7
1026.6397	2995.0852	1324.55	448.35
1026.7519	2996.1495	1309.2	430.4
1026.864	2997.2131	1286.3	408.65
1026.9761	2998.276	1273.85	396.65
1027.0882	2999.3383	1260.65	382.75
1027.2002	3000.4	1239.5	361.1
1027.3122	3001.4611	1226.8	349.1
1027.4241	3002.5215	1212.6	334.2
1027.536	3003.5812	1201.85	323.7
1027.6478	3004.6404	1191.3	313.55
1027.7596	3005.6989	1183.6	303.9
1027.8714	3006.7567	1166.35	287.75
1027.9831	3007.8139	1193.45	287.6
1028.0947	3008.8705	1157.55	280.95
1028.2064	3009.9264	1155.7	273.15
1028.3179	3010.9818	1143.2	266.45
1028.4295	3012.0364	1136.6	257.85
1028.541	3013.0905	1135.1	256.2
1028.6524	3014.1439	1131.25	253
1028.7638	3015.1966	1124.5	246.7
1028.8752	3016.2487	1119.6	242.05
1028.9865	3017.3002	1124.3	242.6
1029.0978	3018.3511	1119.8	244.9
1029.209	3019.4013	1116.95	239.9
1029.3202	3020.4509	1111.45	233.9
1029.4314	3021.4998	1111.05	232.15
1029.5425	3022.5481	1109.6	233.3
1029.6535	3023.5958	1107.85	229.75
1029.7645	3024.6428	1110.9	232.4
1029.8755	3025.6892	1108.35	232.95
1029.9864	3026.735	1108.65	230.1
1030.0973	3027.7802	1104.75	228.8
1030.2082	3028.8247	1106.2	228.65
1030.319	3029.8685	1100.8	221.85
1030.4297	3030.9118	1106.1	227.85
1030.5404	3031.9544	1107.1	228.05
1030.6511	3032.9963	1105.1	225.35
1030.7617	3034.0376	1110.1	235.55
1030.8723	3035.0783	1110.85	229.45
1030.9829	3036.1184	1115.2	238.65
1031.0934	3037.1578	1107.35	229.05
1031.2038	3038.1966	1112.05	233.75
1031.3142	3039.2348	1112.5	233.45
1031.4246	3040.2723	1124.1	237.25
1031.5349	3041.3092	1112.35	237.1
1031.6452	3042.3455	1118.85	240.05
1031.7554	3043.3811	1112.95	235.45
1031.8656	3044.4161	1112.5	233.5
1031.9758	3045.4505	1115.1	237.15
1032.0859	3046.4842	1115.2	235.25
1032.1959	3047.5173	1106.05	230.15
1032.3059	3048.5498	1115.35	238.35
1032.4159	3049.5816	1109.95	233
1032.5258	3050.6128	1112.6	235.25
1032.6357	3051.6434	1115.45	236.6
1032.7455	3052.6734	1110.15	232.85
1032.8553	3053.7027	1104.8	225.85
1032.9651	3054.7314	1098.4	221.65
1033.0748	3055.7594	1106.55	226.95
1033.1845	3056.7868	1102.75	223.55
1033.2941	3057.8136	1107.1	229
1033.4037	3058.8398	1104.25	227.7
1033.5132	3059.8653	1099.3	222.05
1033.6227	3060.8902	1102	225.75
1033.7321	3061.9145	1102.45	225.3
1033.8415	3062.9381	1099.7	223.2
1033.9509	3063.9612	1113.6	221.45
1034.0602	3064.9835	1094.85	217.2
1034.1694	3066.0053	1097.35	216.95
1034.2787	3067.0264	1092.45	215.95
1034.3878	3068.0469	1092.15	212.4
1034.497	3069.0668	1094.8	213.35
1034.6061	3070.086	1090.4	213.7
1034.7151	3071.1046	1083.5	206.6
1034.8241	3072.1226	1082.45	202.95
1034.9331	3073.1399	1078.3	202
1035.042	3074.1567	1074.8	197.3
1035.1508	3075.1727	1070.45	192.15
1035.2597	3076.1882	1065.4	186.45
1035.3684	3077.203	1062.05	184
1035.4772	3078.2173	1063.35	183.85
1035.5859	3079.2308	1058.7	179.6
1035.6945	3080.2438	1053.5	175
1035.8031	3081.2561	1041.25	163.1
1035.9117	3082.2678	1037.55	160.2
1036.0202	3083.2789	1036.8	157.35
1036.1286	3084.2893	1034.45	157.15
1036.2371	3085.2991	1031.2	155.4
1036.3454	3086.3083	1031.25	148.45
1036.4538	3087.3169	1027.35	147.8
1036.562	3088.3248	1022.15	142.1
1036.6703	3089.3321	1022.2	140.85
1036.7785	3090.3388	1011.8	134.95
1036.8866	3091.3449	1014	137.8
1036.9948	3092.3503	1015.35	134.45
1037.1028	3093.3551	1002.45	127.55
1037.2108	3094.3593	999.3	122.95
1037.3188	3095.3629	1003.25	128.2
1037.4267	3096.3658	1002.5	124.5
1037.5346	3097.3681	1000.15	120.85
1037.6425	3098.3698	998.7	119.65
1037.7503	3099.3708	995.85	119
1037.858	3100.3713	997.45	120.85
1037.9657	3101.3711	992.3	116.1
1038.0734	3102.3702	1128.1	113.45
1038.181	3103.3688	989.4	110.3
1038.2886	3104.3667	987.9	112.75
1038.3961	3105.364	987.7	111.1
1038.5036	3106.3607	983.45	104.8
1038.611	3107.3568	984.3	104.45
1038.7184	3108.3522	978.05	101.8
1038.8257	3109.347	978.45	99.65
1038.933	3110.3412	983	102.45
1039.0403	3111.3348	975.9	99.4
1039.1475	3112.3277	978.25	99.55
1039.2547	3113.32	972.7	94.2
1039.3618	3114.3117	974.8	95.45
1039.4689	3115.3028	970.55	90.1
1039.5759	3116.2932	972.75	94.7
1039.6829	3117.2831	975.7	91.6
1039.7898	3118.2723	969.25	93.15
1039.8967	3119.2608	967.35	89.2
1040.0035	3120.2488	967.1	88.3
1040.1103	3121.2361	960.25	81.35
1040.2171	3122.2229	961.1	83.55
1040.3238	3123.209	966.95	87.65
1040.4305	3124.1944	960.05	84.25
1040.5371	3125.1793	963.1	84.05
1040.6437	3126.1635	958.45	80.6
1040.7502	3127.1471	958.9	81.55
1040.8567	3128.1301	959.95	82.25
1040.9631	3129.1125	957.1	79.75
1041.0695	3130.0942	954.45	76.2
1041.1759	3131.0753	964.75	81.05
1041.2822	3132.0558	959.7	81.15
1041.3884	3133.0357	954.55	74.85
1041.4946	3134.015	952.05	73.8
1041.6008	3134.9936	953.9	72.05
1041.7069	3135.9716	972.5	73.85
1041.813	3136.949	950.9	74.1
1041.919	3137.9258	970.5	75.3
1042.025	3138.902	955.85	72.2
1042.1309	3139.8775	949.95	72.5
1042.2368	3140.8524	948.95	73.1
1042.3427	3141.8267	943.55	65.5
1042.4485	3142.8004	947.95	67.95
1042.5542	3143.7735	951.85	69.05
1042.6599	3144.7459	949.85	69.7
1042.7656	3145.7178	944.65	66.2
1042.8712	3146.689	943.55	67.4
1042.9768	3147.6596	944.55	65.1
1043.0823	3148.6295	942.5	65.45
1043.1878	3149.5989	944.9	66.35
1043.2932	3150.5676	940.6	65.8
1043.3986	3151.5357	945.5	70.15
1043.5039	3152.5032	940.7	64.35
1043.6092	3153.4701	940.85	62.3
1043.7145	3154.4364	944.15	64.4
1043.8197	3155.402	940.8	64.1
1043.9248	3156.367	941.45	63.3
1044.03	3157.3315	976.9	62.15
1044.135	3158.2952	937.35	59.55
1044.24	3159.2584	935.1	59.2
1044.345	3160.221	937.45	59.75
1044.4499	3161.1829	938.35	60.9
1044.5548	3162.1442	935.45	58.45
1044.6596	3163.105	941.6	64.6
1044.7644	3164.065	935.85	57.7
1044.8692	3165.0245	937.45	55.1
1044.9739	3165.9834	932.05	56.5
1045.0785	3166.9416	934.75	55.95
1045.1831	3167.8993	934.5	54.85
1045.2877	3168.8563	934.15	54.8
1045.3922	3169.8127	933.65	57.6
1045.4966	3170.7684	931.25	54.9
1045.6011	3171.7236	932.6	54.85
1045.7054	3172.6782	932.85	54.05
1045.8098	3173.6321	929.95	52.4
1045.914	3174.5854	935	51.55
1046.0183	3175.5381	930.4	53.15
1046.1224	3176.4902	933.05	56.75
1046.2266	3177.4417	934.2	58.3
1046.3307	3178.3926	927.1	51.4
1046.4347	3179.3428	932.85	57.15
1046.5387	3180.2924	929.8	52.6
1046.6427	3181.2415	929.9	52.25
1046.7466	3182.1899	932	53.05
1046.8504	3183.1377	929.2	52.95
1046.9542	3184.0848	931.2	51.6
1047.058	3185.0314	930.3	51.65
1047.1617	3185.9773	926.3	49.95
1047.2654	3186.9227	928.7	52.5
1047.369	3187.8674	926.35	48.6
1047.4726	3188.8115	930.4	50.4
1047.5761	3189.755	926.75	48.95
1047.6796	3190.6979	925.05	48.65
1047.783	3191.6402	925.15	48.95
1047.8864	3192.5818	926.1	50.45
1047.9898	3193.5229	929.85	35.65
1048.0931	3194.4633	924.35	46.05
1048.1963	3195.4031	924.25	46.9
1048.2995	3196.3423	924.6	47.9
1048.4027	3197.2809	924.35	46.55
1048.5058	3198.2189	922.9	44.4
1048.6089	3199.1563	940.75	45.4
1048.7119	3200.0931	921.7	45.55
1048.8148	3201.0292	922.6	45.4
1048.9178	3201.9648	920.95	43.3
1049.0206	3202.8997	923.1	43.95
1049.1235	3203.834	922.95	45.9
1049.2262	3204.7677	920.6	44.1
1049.329	3205.7008	925.1	44.35
1049.4317	3206.6333	918.2	42.45
1049.5343	3207.5652	922.35	42.25
1049.6369	3208.4964	919.85	40.9
1049.7394	3209.4271	917.95	41.65
1049.8419	3210.3571	917.4	40.05
1049.9444	3211.2865	920.5	42.95
1050.0468	3212.2154	919.3	39.55
1050.1491	3213.1436	919.75	38.85
1050.2514	3214.0712	922.9	40.25
1050.3537	3214.9982	917.9	40.95
1050.4559	3215.9246	920.25	41.3
1050.5581	3216.8503	916.85	41.2
1050.6602	3217.7755	918.55	41.25
1050.7623	3218.7001	918.7	42.95
1050.8643	3219.624	917.65	40.25
1050.9663	3220.5473	920.1	43.2
1051.0682	3221.4701	916.95	38.65
1051.1701	3222.3922	918.4	37.65
1051.2719	3223.3137	916.55	38.85
1051.3737	3224.2346	915.25	38.7
1051.4754	3225.1549	913.7	37.2
1051.5771	3226.0746	913.25	37.25
1051.6788	3226.9937	916.6	38.9
1051.7804	3227.9121	913.9	40.8
1051.8819	3228.83	916.2	39.8
1051.9834	3229.7473	915.2	38.65
1052.0849	3230.6639	914.75	38.55
1052.1863	3231.5799	915.15	37.6
1052.2876	3232.4954	913.25	35.55
1052.3889	3233.4102	913.15	36.45
1052.4902	3234.3244	914.05	36.85
1052.5914	3235.238	909.4	30.65
1052.6926	3236.151	938.4	37.3
1052.7937	3237.0634	910.3	34.35
1052.8948	3237.9752	912.1	36.4
1052.9958	3238.8864	913.5	34.8
1053.0968	3239.797	912.2	34.9
1053.1977	3240.7069	912.8	35.05
1053.2986	3241.6163	911.5	32.85
1053.3994	3242.5251	907.45	32.35
1053.5002	3243.4332	908.55	32.95
1053.6009	3244.3408	908.35	30.9
1053.7016	3245.2477	907.6	31.55
1053.8022	3246.154	910.3	33.65
1053.9028	3247.0598	911.9	34.55
1054.0034	3247.9649	911.55	34.25
1054.1039	3248.8694	911.7	34.5
1054.2043	3249.7733	907.95	31
1054.3047	3250.6766	909.5	34.15
1054.4051	3251.5793	906.9	29.7
1054.5054	3252.4814	906.5	29.15
1054.6056	3253.3829	907	31.95
1054.7058	3254.2838	903.85	25.55
1054.806	3255.1841	904.8	27.35
1054.9061	3256.0838	907.75	30.15
1055.0061	3256.9829	905.35	30.45
1055.1062	3257.8814	906.8	29.65
1055.2061	3258.7792	909.85	30.3
1055.306	3259.6765	907.7	29.7
1055.4059	3260.5731	903.3	27.1
1055.5057	3261.4692	905.1	26.75
1055.6055	3262.3647	904.3	27.6
1055.7052	3263.2595	903	26.2
1055.8049	3264.1538	903.95	27.4
1055.9045	3265.0474	903.75	25.45
1056.0041	3265.9404	902.5	25
1056.1036	3266.8329	902.25	24.5
1056.2031	3267.7247	912.5	24.9
1056.3025	3268.616	898.6	22
1056.4019	3269.5066	901.65	25.15
1056.5013	3270.3966	902.7	22.45
1056.6005	3271.286	900.2	23.9
