Software Version:	3.9.2.0
Unit SN:	10000200
Spectrometer SN:	6960
Date:	3/8/2024 11:48:29 AM
Data Line Index:	25
Spectral Points:	2048
Integration time (ms):	125
Averages:	20
Delay (ms):	30000
Sequence Number:	1
Processing:	dark subtract
Laser Power (mW):	300
Laser Current (mA):	822
Laser Diode Temp (C):	25.1
Laser Case Temp (C):	25.4
System Temp (C):	25.3
Spectrometer Temp (C):	23.1
CCD Temp (C):	0.005
Secondary Temp (C):	20.001
Heatsink Temp (C):	19.935
CCDPCB Temp (C):	34.606
SecondaryPCB Temp (C):	27.681

Wavelength	RamanShift	Raw Counts	Dark Subtracted
787.061	30.1047	413.75	5.85
787.2016	32.3739	412.85	5.8
787.3422	34.6426	414.85	6.2
787.4828	36.9109	416.1	4.4
787.6235	39.1787	419.95	5.95
787.7642	41.4461	424.95	6.7
787.9049	43.7131	428.85	6.2
788.0456	45.9796	433.15	7.3
788.1863	48.2456	436.75	9.65
788.3271	50.5112	443.1	9.7
788.4679	52.7764	444.1	9.25
788.6087	55.0411	449.1	9.6
788.7496	57.3054	455.9	11.3
788.8904	59.5692	457.75	11.7
789.0313	61.8326	460.9	11.2
789.1722	64.0955	467.3	14.5
789.3132	66.3579	474.05	16.45
789.4541	68.6199	479.6	18.95
789.5951	70.8815	492.05	25.05
789.7361	73.1426	509.85	39.4
789.8771	75.4032	541.3	68.3
790.0181	77.6634	608.15	130.5
790.1592	79.9231	773.05	291.6
790.3003	82.1824	1113.55	623.95
790.4414	84.4412	1665.6	1160.2
790.5825	86.6995	2372.95	1847.2
790.7237	88.9574	3052.6	2511.8
790.8648	91.2148	3504.55	2953
791.006	93.4717	3691.7	3135.5
791.1472	95.7282	3699.6	3139
791.2885	97.9842	3687.45	3121.6
791.4297	100.2398	3632.05	3067.05
791.571	102.4949	3588.75	3017.55
791.7123	104.7495	3545.1	2970.4
791.8536	107.0036	3495.8	2919.05
791.9949	109.2573	3413.75	2839.35
792.1363	111.5105	3321	2742.9
792.2777	113.7632	3209.5	2629.75
792.4191	116.0154	3124.75	2533.55
792.5605	118.2672	3010.4	2424.75
792.7019	120.5185	2907.1	2321.4
792.8434	122.7693	2820.85	2232.65
792.9849	125.0197	2739.7	2146.45
793.1264	127.2696	2665.75	2070.15
793.2679	129.519	2631.4	2030.8
793.4094	131.7679	2608.7	2007.4
793.551	134.0163	2592.35	1990.3
793.6926	136.2642	2576.05	1966.6
793.8342	138.5117	2563.5	1945.4
793.9758	140.7587	2528.3	1916
794.1175	143.0052	2482.85	1867.55
794.2591	145.2512	2440.3	1825.3
794.4008	147.4967	2388.55	1774.6
794.5425	149.7417	2346.2	1726.7
794.6842	151.9863	2328.35	1705
794.826	154.2304	2310.85	1683.15
794.9677	156.4739	2307.7	1672.65
795.1095	158.717	2312.7	1676.3
795.2513	160.9596	2357.3	1719.5
795.3931	163.2017	2366.4	1727.75
795.535	165.4433	2375.7	1735.85
795.6768	167.6844	2362.55	1718.5
795.8187	169.925	2338.6	1694.35
795.9606	172.1651	2285.9	1638.35
796.1025	174.4047	2238.05	1584.45
796.2445	176.6439	2187.45	1532.95
796.3864	178.8825	2172.35	1514.15
796.5284	181.1206	2154.4	1491.3
796.6704	183.3582	2146.5	1478.05
796.8124	185.5954	2144.75	1479.2
796.9544	187.832	2150.65	1479.6
797.0965	190.0681	2147.9	1475.1
797.2386	192.3037	2158.35	1481.35
797.3806	194.5388	2164.45	1483.4
797.5228	196.7734	2174.35	1492.85
797.6649	199.0075	2176.5	1492.1
797.807	201.2411	2198.25	1514.7
797.9492	203.4742	2223.3	1540.3
798.0914	205.7068	2245.7	1554.85
798.2336	207.9389	2262.6	1568.6
798.3758	210.1704	2276.3	1585.5
798.518	212.4015	2284.8	1605.45
798.6603	214.632	2277.65	1608.2
798.8025	216.862	2278.35	1609.6
798.9448	219.0915	2289.65	1620
799.0871	221.3205	2300.1	1625
799.2294	223.549	2301.95	1631.95
799.3718	225.777	2311.6	1642.5
799.5141	228.0044	2305.6	1630.2
799.6565	230.2314	2288.95	1610.4
799.7989	232.4578	2279.95	1597.95
799.9413	234.6837	2281.45	1593
800.0837	236.909	2266.9	1574.3
800.2262	239.1339	2269.25	1552.55
800.3687	241.3582	2264.05	1560.7
800.5111	243.582	2284.9	1551.4
800.6536	245.8053	2282.05	1565.8
800.7961	248.0281	2275.35	1562.8
800.9387	250.2503	2291.2	1568.8
801.0812	252.472	2280.65	1559.85
801.2238	254.6932	2299.45	1579.75
801.3664	256.9139	2311.6	1591
801.509	259.134	2324.5	1599
801.6516	261.3536	2336.35	1614.8
801.7942	263.5727	2390.15	1667.6
801.9369	265.7912	2428.9	1704.95
802.0795	268.0092	2490.35	1763.5
802.2222	270.2267	2549	1820.55
802.3649	272.4436	2590.25	1862.4
802.5076	274.6601	2636.25	1897.75
802.6504	276.8759	2648.6	1916.05
802.7931	279.0913	2667.95	1935.8
802.9359	281.3061	2688.5	1952.35
803.0787	283.5204	2711.6	1970.25
803.2215	285.7341	2735.3	1993.5
803.3643	287.9473	2755.95	2012.85
803.5071	290.16	2756.7	2012.85
803.6499	292.3721	2701.55	1963.05
803.7928	294.5837	2684.45	1945
803.9357	296.7947	2638.3	1895.85
804.0786	299.0052	2641.35	1900.2
804.2215	301.2152	2630.45	1887.6
804.3644	303.4246	2606.85	1864.55
804.5074	305.6334	2594.2	1852.75
804.6503	307.8418	2579.4	1832.6
804.7933	310.0495	2554.6	1806.65
804.9363	312.2568	2522.75	1776.45
805.0793	314.4635	2467	1718.8
805.2223	316.6696	2419.65	1667.85
805.3653	318.8752	2387.5	1628.55
805.5084	321.0802	2345.45	1592.3
805.6514	323.2847	2346.9	1591.25
805.7945	325.4887	2358.5	1603.5
805.9376	327.692	2378.1	1622.4
806.0807	329.8949	2407.7	1650.25
806.2238	332.0972	2444.5	1686.05
806.367	334.2989	2458.5	1696.55
806.5101	336.5001	2462.6	1699.6
806.6533	338.7007	2429.05	1664.1
806.7965	340.9008	2407.25	1641.1
806.9397	343.1003	2331.7	1563.5
807.0829	345.2992	2293.4	1525.75
807.2261	347.4976	2262.5	1494.85
807.3693	349.6955	2222.75	1449.9
807.5126	351.8927	2215.45	1440.05
807.6559	354.0895	2202.05	1419.7
807.7991	356.2856	2182.9	1408.45
807.9424	358.4812	2175.55	1397.65
808.0857	360.6763	2179.55	1402.8
808.2291	362.8707	2170.4	1387.9
808.3724	365.0646	2169.45	1387.4
808.5158	367.258	2180.05	1397.3
808.6591	369.4508	2203.05	1415
808.8025	371.643	2219.9	1432.55
808.9459	373.8346	2263.65	1475
809.0893	376.0257	2279.75	1491.75
809.2327	378.2162	2306	1515.45
809.3762	380.4062	2309.15	1515.9
809.5196	382.5956	2289.35	1499.45
809.6631	384.7844	2256.2	1472.1
809.8066	386.9726	2216.8	1428.75
809.9501	389.1603	2183.65	1399.6
810.0936	391.3474	2204.5	1387.25
810.2371	393.5339	2171.35	1384.45
810.3806	395.7199	2191.9	1406.2
810.5241	397.9052	2219	1433.8
810.6677	400.09	2251.9	1466.9
810.8113	402.2743	2294.3	1507.65
810.9548	404.4579	2331.8	1544.2
811.0984	406.641	2373.7	1584.1
811.2421	408.8235	2422.55	1634.15
811.3857	411.0054	2461.2	1670.35
811.5293	413.1868	2525.25	1727.05
811.673	415.3675	2580.95	1783.3
811.8166	417.5477	2580.5	1783.75
811.9603	419.7273	2515.1	1713.15
812.104	421.9064	2444.35	1638.35
812.2477	424.0848	2376.05	1572.35
812.3914	426.2627	2313.5	1509
812.5351	428.4399	2269.25	1465.2
812.6788	430.6166	2207.35	1399.15
812.8226	432.7928	2163.2	1353.6
812.9663	434.9683	2130.6	1320.5
813.1101	437.1432	2097.05	1283.35
813.2539	439.3176	2077.45	1270.25
813.3977	441.4914	2064.95	1256.5
813.5415	443.6645	2070.5	1262.05
813.6853	445.8371	2063.55	1253.3
813.8291	448.0091	2066.4	1255.5
813.973	450.1806	2063.05	1254.75
814.1168	452.3514	2057.65	1244.6
814.2607	454.5216	2062.85	1245.35
814.4046	456.6913	2057	1241.35
814.5485	458.8603	2066.5	1252.35
814.6924	461.0288	2066.05	1256
814.8363	463.1967	2057.3	1246.65
814.9802	465.3639	2063.75	1251.25
815.1241	467.5306	2066.8	1250.05
815.2681	469.6967	2045.45	1230.6
815.412	471.8622	2054.45	1241.25
815.556	474.0271	2050.45	1236
815.7	476.1914	2052.3	1232.05
815.844	478.3551	2041.3	1224.65
815.988	480.5182	2036.55	1222.25
816.132	482.6807	2045.25	1230.95
816.276	484.8426	2056.15	1243.1
816.4201	487.0039	2095	1278.25
816.5641	489.1647	2138.5	1322.25
816.7082	491.3248	2198.25	1380
816.8522	493.4843	2207.3	1390.6
816.9963	495.6432	2202.5	1386.7
817.1404	497.8015	2173.85	1351.45
817.2845	499.9592	2127.8	1303.25
817.4286	502.1163	2082.05	1258
817.5727	504.2728	2034.45	1208.95
817.7168	506.4287	2020	1200.55
817.861	508.5839	2007.25	1186.95
818.0051	510.7386	1994.25	1170.8
818.1493	512.8927	1997.95	1160.75
818.2935	515.0461	2005.45	1180.65
818.4377	517.199	2029	1200.5
818.5818	519.3512	2066.85	1238.4
818.726	521.5029	2138	1304.9
818.8703	523.6539	2187.5	1357.6
819.0145	525.8043	2199.7	1367.75
819.1587	527.9541	2142.75	1307.75
819.303	530.1033	2077.5	1245.85
819.4472	532.2519	2037.45	1205.4
819.5915	534.3999	2009.5	1173.95
819.7357	536.5472	1997.25	1165.4
819.88	538.694	1999.35	1169.9
820.0243	540.8401	2027.3	1195.95
820.1686	542.9856	2037.2	1201
820.3129	545.1305	2057.3	1213.85
820.4572	547.2748	2070.25	1228.85
820.6016	549.4185	2071.9	1232.3
820.7459	551.5615	2076.75	1238.2
820.8902	553.704	2102.8	1264.8
821.0346	555.8458	2113.1	1276.6
821.1789	557.987	2131.3	1296.6
821.3233	560.1276	2162.3	1323.3
821.4677	562.2675	2209.05	1369.35
821.6121	564.4069	2273.3	1434.05
821.7565	566.5456	2303.05	1465.7
821.9009	568.6837	2298.4	1460.6
822.0453	570.8212	2227	1387.7
822.1897	572.958	2153.15	1311.65
822.3342	575.0942	2105.75	1267.75
822.4786	577.2299	2067.25	1228.05
822.6231	579.3648	2039	1205.55
822.7675	581.4992	2009.95	1180.45
822.912	583.6329	2026.1	1196.1
823.0565	585.766	2060.55	1223.7
823.201	587.8985	2108.75	1275.75
823.3454	590.0304	2158.85	1305.7
823.4899	592.1616	2174.55	1329.65
823.6345	594.2922	2173.4	1329.55
823.779	596.4222	2132.3	1288.1
823.9235	598.5515	2083.8	1237.8
824.068	600.6802	2033.35	1189.5
824.2126	602.8083	1994.2	1148.2
824.3571	604.9358	1979.15	1133.85
824.5017	607.0626	1975.9	1126.7
824.6462	609.1888	1985.35	1133.8
824.7908	611.3144	2018.6	1166.25
824.9354	613.4393	2049.5	1198.9
825.08	615.5636	2096.95	1248.8
825.2246	617.6873	2152.2	1300.15
825.3692	619.8103	2173.5	1320.95
825.5138	621.9327	2164.35	1311.8
825.6584	624.0544	2129.2	1280.85
825.803	626.1756	2063	1214
825.9477	628.2961	2028.45	1178.6
826.0923	630.4159	2010.45	1158.85
826.237	632.5351	2008.9	1160.2
826.3816	634.6537	2007.2	1153.5
826.5263	636.7716	1992.3	1136.35
826.6709	638.8889	1990.4	1132.5
826.8156	641.0056	1988.45	1133.45
826.9603	643.1216	1993.75	1138.3
827.105	645.237	1995.3	1137.8
827.2497	647.3518	1972.75	1118.35
827.3944	649.4659	1953.85	1101.35
827.5391	651.5793	1932.45	1079.9
827.6838	653.6922	1934.15	1080
827.8285	655.8043	1920.25	1067.55
827.9733	657.9159	1906.55	1051.35
828.118	660.0268	1893.3	1036.85
828.2627	662.137	1885.7	1027.9
828.4075	664.2466	1890.25	1030.75
828.5522	666.3556	1900.55	1039.05
828.697	668.4639	1887.8	1027.65
828.8418	670.5716	1877.55	1019.8
828.9865	672.6786	1879.65	1019.6
829.1313	674.785	1869.2	1008.65
829.2761	676.8907	1876.15	1016.75
829.4209	678.9958	1867.8	1009.75
829.5657	681.1002	1861.15	999.55
829.7105	683.204	1870.3	1007.45
829.8553	685.3072	1864.05	1001.4
830.0001	687.4097	1861.5	1002.4
830.1449	689.5115	1861.6	994.8
830.2898	691.6127	1855.4	995.95
830.4346	693.7132	1853.65	993.25
830.5794	695.8131	1879.05	995.2
830.7243	697.9123	1873.65	1009.65
830.8691	700.0109	1867.7	1000.65
831.014	702.1089	1885.25	1021
831.1588	704.2061	1894.15	1030
831.3037	706.3028	1913.65	1048.15
831.4486	708.3987	1932.5	1067
831.5935	710.4941	1950.5	1086.35
831.7383	712.5887	1944.3	1080.9
831.8832	714.6827	1952.95	1084.55
832.0281	716.7761	1947.45	1085.05
832.173	718.8688	1942.4	1075.85
832.3179	720.9608	1948.65	1076.95
832.4628	723.0522	1967.95	1096.2
832.6077	725.1429	1991.2	1122.45
832.7527	727.233	2019.3	1151.2
832.8976	729.3224	2088.4	1219.9
833.0425	731.4112	2140.25	1272.35
833.1874	733.4993	2136.65	1265.15
833.3324	735.5867	2100.05	1228.85
833.4773	737.6735	2017.45	1148.1
833.6222	739.7596	1964.5	1093.65
833.7672	741.845	1944.2	1076.05
833.9122	743.9298	1944.95	1072.95
834.0571	746.014	1935.2	1066.7
834.2021	748.0974	1959.2	1085.65
834.347	750.1802	1949.9	1077.1
834.492	752.2624	1934.9	1063.7
834.637	754.3439	1931.5	1058.55
834.782	756.4247	1942.75	1058.8
834.9269	758.5048	1933.6	1063.75
835.0719	760.5843	1948.4	1072.75
835.2169	762.6631	1984.15	1109.75
835.3619	764.7413	2044.25	1171.15
835.5069	766.8188	2127.1	1254.15
835.6519	768.8956	2198.8	1324.15
835.7969	770.9718	2252.3	1378.7
835.9419	773.0473	2244.9	1371.8
836.0869	775.1221	2218.35	1345.75
836.232	777.1962	2203.9	1332.3
836.377	779.2697	2263.2	1387.95
836.522	781.3426	2372.4	1479.4
836.667	783.4147	2413.75	1538.85
836.8121	785.4862	2397.95	1523.5
836.9571	787.557	2292.5	1415.75
837.1021	789.6271	2179.8	1303.15
837.2472	791.6966	2068.35	1190.6
837.3922	793.7654	1977.6	1101.4
837.5373	795.8335	1927.55	1051.4
837.6823	797.901	1897.25	1019.2
837.8274	799.9678	1891.35	1011.95
837.9724	802.0339	1892.1	1015.9
838.1175	804.0993	1907.55	1021.9
838.2626	806.1641	1882.7	1005.8
838.4076	808.2282	1868.75	990.15
838.5527	810.2916	1843.7	962.85
838.6978	812.3544	1832.35	955.55
838.8428	814.4164	1825	948.35
838.9879	816.4778	1836.8	957.75
839.133	818.5385	1845.95	966.45
839.2781	820.5986	1877.1	996.85
839.4232	822.658	1932.7	1049.9
839.5682	824.7166	1990.5	1111.35
839.7133	826.7747	2076.85	1196.75
839.8584	828.832	2157.75	1277.05
840.0035	830.8886	2211.7	1328.65
840.1486	832.9446	2225.05	1342.7
840.2937	834.9999	2198	1319
840.4388	837.0545	2116.15	1233.95
840.5839	839.1085	2044.65	1164.3
840.729	841.1618	1973.4	1087.45
840.8741	843.2143	1926.5	1046.95
841.0192	845.2662	1887.25	1003.05
841.1643	847.3175	1874.05	992.1
841.3095	849.368	1864.85	983.65
841.4546	851.4179	1868.55	987.55
841.5997	853.467	1866.3	985.25
841.7448	855.5155	1865.6	984.8
841.8899	857.5633	1870.05	988.7
842.0351	859.6105	1862.25	980.5
842.1802	861.6569	1846.7	965.45
842.3253	863.7027	1828.6	942.45
842.4704	865.7478	1834.9	951.85
842.6156	867.7922	1814.9	932.45
842.7607	869.8359	1817.4	934.95
842.9058	871.8789	1809.9	925.35
843.0509	873.9212	1843.5	929.25
843.1961	875.9629	1828.1	944.15
843.3412	878.0039	1831.6	948.25
843.4863	880.0441	1836.6	956.45
843.6315	882.0837	1857.3	973.45
843.7766	884.1226	1887.1	998.6
843.9218	886.1609	1921.15	1037.85
844.0669	888.1984	1965.25	1079.65
844.212	890.2352	2014.4	1130.05
844.3572	892.2714	2012.85	1120.85
844.5023	894.3069	1988.65	1099.65
844.6475	896.3416	1944.55	1056.35
844.7926	898.3757	1897.45	1011.05
844.9377	900.4091	1887.85	1001.95
845.0829	902.4418	1881.35	990.4
845.228	904.4739	1896.2	1007.95
845.3732	906.5052	1914.35	1024.85
845.5183	908.5358	1900.25	1012.5
845.6635	910.5658	1885.4	997.75
845.8086	912.595	1858.4	971.3
845.9538	914.6236	1802.5	914.1
846.0989	916.6515	1789.45	902.9
846.2441	918.6786	1767.2	877.2
846.3892	920.7051	1758.2	869.4
846.5344	922.7309	1756.45	872.2
846.6795	924.756	1757.35	868.4
846.8246	926.7804	1779.75	891.35
846.9698	928.8041	1782.95	893.15
847.1149	930.8272	1798.25	910.25
847.2601	932.8495	1806.6	916.6
847.4052	934.8711	1813.7	921.55
847.5504	936.892	1818.55	930.75
847.6955	938.9123	1841.3	953.8
847.8407	940.9318	1859.1	972.75
847.9858	942.9506	1869.15	983.2
848.131	944.9688	1862.85	972.5
848.2761	946.9862	1834.85	945.9
848.4213	949.003	1803.15	913.55
848.5664	951.019	1783.6	893.9
848.7115	953.0344	1764.5	874.55
848.8567	955.0491	1744.25	856.55
849.0018	957.063	1744.3	853.9
849.147	959.0763	1742.45	854.95
849.2921	961.0888	1749.6	858.15
849.4373	963.1007	1745.7	856.65
849.5824	965.1119	1740.8	856.55
849.7275	967.1223	1728.25	845.4
849.8727	969.1321	1722.25	838.35
850.0178	971.1412	1725.75	839.95
850.1629	973.1495	1728.5	841.4
850.3081	975.1572	1747.65	826.4
850.4532	977.1641	1718.3	828.35
850.5983	979.1704	1725.1	835.2
850.7435	981.1759	1722.1	828.3
850.8886	983.1808	1712.25	818.05
851.0337	985.1849	1725.1	825.8
851.1788	987.1884	1704.8	813.4
851.324	989.1911	1712.25	821.65
851.4691	991.1932	1723.2	833.8
851.6142	993.1945	1721.8	831.15
851.7593	995.1951	1715.7	824.3
851.9045	997.1951	1716.85	818.95
852.0496	999.1943	1713.5	823.4
852.1947	1001.1928	1713.65	821.65
852.3398	1003.1906	1727.85	834.65
852.4849	1005.1877	1747.15	854.95
852.63	1007.1841	1771.9	883.7
852.7751	1009.1798	1782.15	891.2
852.9202	1011.1748	1770.9	881.95
853.0653	1013.1691	1757.1	863.9
853.2104	1015.1627	1715.9	821.8
853.3555	1017.1556	1690.5	798.55
853.5006	1019.1477	1672.55	779.95
853.6457	1021.1392	1667.85	777.25
853.7908	1023.1299	1657.25	768.35
853.9359	1025.12	1643.5	756.2
854.081	1027.1093	1659.3	776.55
854.2261	1029.0979	1667.85	789.2
854.3712	1031.0859	1694.45	811.7
854.5163	1033.0731	1715.9	828.95
854.6613	1035.0596	1712.95	826.3
854.8064	1037.0454	1698.15	806.8
854.9515	1039.0304	1687.8	797.05
855.0965	1041.0148	1661.7	770.8
855.2416	1042.9985	1645.1	750.75
855.3867	1044.9814	1642.45	750.6
855.5317	1046.9636	1638.95	746.15
855.6768	1048.9452	1636	747.1
855.8219	1050.926	1655.2	763.3
855.9669	1052.9061	1666.7	777.95
856.112	1054.8855	1662.95	770
856.257	1056.8642	1671.85	779.1
856.4021	1058.8421	1680.6	785.8
856.5471	1060.8194	1674.9	781.15
856.6921	1062.7959	1672.8	779.75
856.8372	1064.7717	1673.35	779.25
856.9822	1066.7469	1670.65	778.7
857.1272	1068.7213	1682.95	788.25
857.2723	1070.695	1687.85	796.1
857.4173	1072.6679	1707.05	814.65
857.5623	1074.6402	1725	834.3
857.7073	1076.6117	1736.3	839.9
857.8523	1078.5826	1708.9	815.5
857.9973	1080.5527	1678.85	784.1
858.1423	1082.5221	1644.7	751.45
858.2873	1084.4908	1623.1	730.7
858.4323	1086.4587	1609.05	716
858.5773	1088.426	1609.55	715.65
858.7223	1090.3925	1602.45	706.25
858.8673	1092.3584	1602.45	708.8
859.0123	1094.3235	1614.5	724.25
859.1573	1096.2879	1634.4	742.45
859.3022	1098.2515	1653.55	759.5
859.4472	1100.2145	1678.35	785.1
859.5922	1102.1767	1708.95	812.1
859.7371	1104.1382	1761.6	869
859.8821	1106.099	1810.6	916.15
860.027	1108.0591	1847.15	954.2
860.172	1110.0185	1887.35	991.8
860.3169	1111.9771	1915.65	1024.55
860.4619	1113.9351	1976.45	1082.05
860.6068	1115.8923	2020.05	1125.6
860.7517	1117.8488	2043	1146.3
860.8967	1119.8045	1985.3	1091.35
861.0416	1121.7596	1900	1003.15
861.1865	1123.7139	1804.65	912.9
861.3314	1125.6675	1764.4	873.7
861.4763	1127.6204	1761.15	868.4
861.6212	1129.5726	1777.8	881.9
861.7661	1131.524	1770.95	877.55
861.911	1133.4748	1741.5	848.95
862.0559	1135.4248	1689.7	796.3
862.2008	1137.3741	1641.6	748.15
862.3457	1139.3226	1616.4	722.75
862.4905	1141.2705	1614.15	720.2
862.6354	1143.2176	1628.95	729.3
862.7803	1145.164	1627.75	733.1
862.9251	1147.1097	1635.6	741.3
863.07	1149.0546	1610	714.9
863.2148	1150.9989	1583.25	686.2
863.3597	1152.9424	1570.2	677.05
863.5045	1154.8852	1556.25	662.7
863.6493	1156.8272	1549.85	658.05
863.7942	1158.7686	1556.4	654.45
863.939	1160.7092	1561.3	664.65
864.0838	1162.6491	1555.9	658.5
864.2286	1164.5883	1576.7	682.2
864.3734	1166.5267	1597.75	704.2
864.5182	1168.4644	1611.55	719.45
864.663	1170.4014	1641.65	744.05
864.8078	1172.3377	1672.6	779.3
864.9526	1174.2732	1723.7	831.35
865.0974	1176.2081	1818.75	925.55
865.2421	1178.1421	1934.05	1036.45
865.3869	1180.0755	2030.9	1141.3
865.5317	1182.0082	2083.55	1188.8
865.6764	1183.9401	2049.65	1156.5
865.8212	1185.8713	1963.05	1070.85
865.9659	1187.8017	1834.8	944.7
866.1106	1189.7315	1740.95	853.25
866.2554	1191.6605	1692.7	777.2
866.4001	1193.5888	1638.65	748.1
866.5448	1195.5163	1611.45	719.95
866.6895	1197.4432	1597.35	703
866.8342	1199.3693	1582.45	690.1
866.9789	1201.2947	1570.85	674.25
867.1236	1203.2193	1562.45	666.65
867.2683	1205.1432	1559.5	666.3
867.413	1207.0664	1553.35	659.7
867.5576	1208.9889	1551.6	652.8
867.7023	1210.9106	1553.1	657.85
867.847	1212.8316	1562.75	669.8
867.9916	1214.7519	1575.75	673
868.1363	1216.6715	1581.9	687.95
868.2809	1218.5903	1605.45	710.05
868.4255	1220.5084	1609.25	716.85
868.5701	1222.4257	1617.45	722.7
868.7148	1224.3424	1636.05	743
868.8594	1226.2583	1655.25	759.75
869.004	1228.1735	1682.35	786.75
869.1486	1230.0879	1724.45	829.6
869.2932	1232.0016	1756.25	863.65
869.4377	1233.9146	1788.85	890.2
869.5823	1235.8269	1797.75	904.75
869.7269	1237.7384	1820.7	924.55
869.8715	1239.6492	1819.7	925.75
870.016	1241.5592	1836.55	940.55
870.1606	1243.4686	1884.65	990.15
870.3051	1245.3772	1949.65	1053.7
870.4496	1247.285	2026.45	1132.65
870.5941	1249.1922	2098.05	1202.35
870.7387	1251.0986	2185.3	1292.3
870.8832	1253.0042	2236.9	1342.95
871.0277	1254.9092	2319.9	1425.2
871.1722	1256.8134	2393.9	1501.3
871.3167	1258.7169	2446.95	1552.1
871.4611	1260.6196	2474.95	1580.5
871.6056	1262.5216	2474.6	1577.9
871.7501	1264.4229	2456.65	1561.5
871.8945	1266.3234	2427.3	1529.05
872.039	1268.2232	2382.95	1488.75
872.1834	1270.1223	2332.3	1437.7
872.3278	1272.0207	2307.65	1410.8
872.4723	1273.9183	2295.5	1395.25
872.6167	1275.8151	2305.25	1407.7
872.7611	1277.7113	2332.55	1438.7
872.9055	1279.6067	2415.9	1521.3
873.0499	1281.5014	2552.4	1653.1
873.1943	1283.3953	2704.85	1806.85
873.3386	1285.2885	2864.15	1969.9
873.483	1287.181	2980.3	2086.05
873.6274	1289.0727	3017.45	2124.15
873.7717	1290.9637	2973.25	2077.95
873.9161	1292.854	2905.05	2010.65
874.0604	1294.7435	2792.2	1898.6
874.2047	1296.6323	2707.5	1812.9
874.349	1298.5204	2642.6	1745.4
874.4933	1300.4077	2569.25	1672.4
874.6376	1302.2943	2522.65	1628.3
874.7819	1304.1802	2487.8	1591.5
874.9262	1306.0653	2464.25	1568.4
875.0705	1307.9497	2433.15	1537.1
875.2147	1309.8333	2382.7	1488.65
875.359	1311.7162	2355.9	1462.05
875.5032	1313.5984	2318.15	1419.65
875.6475	1315.4798	2299.7	1392.15
875.7917	1317.3605	2308.1	1407.5
875.9359	1319.2405	2283	1386.2
876.0801	1321.1197	2248.7	1351.35
876.2243	1322.9982	2199.45	1300.55
876.3685	1324.876	2129.85	1234.6
876.5127	1326.753	2043.45	1148.65
876.6569	1328.6293	1966.05	1065.8
876.801	1330.5048	1895.4	998.15
876.9452	1332.3796	1835.55	941.5
877.0893	1334.2537	1801.8	880.85
877.2335	1336.127	1750.2	853.75
877.3776	1337.9996	1722.9	825.1
877.5217	1339.8714	1712.05	814.05
877.6658	1341.7426	1739.6	798.8
877.8099	1343.6129	1685.75	789.35
877.954	1345.4826	1673.3	778.65
878.0981	1347.3515	1659.85	761.2
878.2422	1349.2196	1644.5	744.25
878.3862	1351.087	1638.1	740.25
878.5303	1352.9537	1635.55	738.5
878.6743	1354.8197	1642.95	745.15
878.8184	1356.6849	1645.1	746.4
878.9624	1358.5493	1665.25	767.75
879.1064	1360.4131	1689.4	795.1
879.2504	1362.276	1716.35	822.85
879.3944	1364.1383	1748.7	853.35
879.5384	1365.9998	1772.1	868.95
879.6823	1367.8606	1757.15	861.5
879.8263	1369.7206	1739.05	842.45
879.9702	1371.5799	1733.45	833.85
880.1142	1373.4384	1724.7	826
880.2581	1375.2962	1703.1	807
880.402	1377.1533	1657.85	762.45
880.5459	1379.0096	1610.4	717.35
880.6898	1380.8652	1572.25	677.35
880.8337	1382.7201	1562.15	667.5
880.9776	1384.5742	1532.85	636.15
881.1215	1386.4275	1511.2	613.05
881.2653	1388.2802	1509.8	614.15
881.4092	1390.132	1490.1	593.9
881.553	1391.9832	1485.25	587.4
881.6968	1393.8336	1477.95	577.8
881.8406	1395.6832	1465.6	565.65
881.9844	1397.5322	1460.8	562.85
882.1282	1399.3803	1451.3	551.65
882.272	1401.2278	1443.15	546.05
882.4158	1403.0745	1439.2	543.3
882.5595	1404.9204	1430.2	536.35
882.7033	1406.7656	1423.5	527.2
882.847	1408.6101	1426.7	529.7
882.9908	1410.4538	1421.75	525.2
883.1345	1412.2968	1414.4	515.55
883.2782	1414.139	1413.8	518.55
883.4219	1415.9805	1426.6	531.7
883.5656	1417.8213	1441.1	537.55
883.7092	1419.6613	1449.25	555
883.8529	1421.5006	1479.5	582.1
883.9965	1423.3391	1510.6	612.7
884.1402	1425.1769	1556.45	658.75
884.2838	1427.0139	1622.4	726.5
884.4274	1428.8502	1707.3	811.3
884.571	1430.6858	1761.35	864
884.7146	1432.5206	1788.9	893.35
884.8582	1434.3547	1786.2	892.15
885.0018	1436.188	1761.5	867.5
885.1453	1438.0206	1744.1	847.65
885.2889	1439.8524	1730.7	834.65
885.4324	1441.6835	1737.5	839.95
885.5759	1443.5139	1738.25	837.4
885.7194	1445.3435	1745.25	848.35
885.8629	1447.1724	1742.4	849.25
886.0064	1449.0005	1741.35	846.9
886.1499	1450.8279	1730.55	834.85
886.2933	1452.6545	1729.1	834.6
886.4368	1454.4804	1718.05	822.75
886.5802	1456.3056	1724.7	823.1
886.7237	1458.13	1699.3	807.1
886.8671	1459.9536	1685.85	791.6
887.0105	1461.7766	1645.05	747.75
887.1539	1463.5987	1607.7	709.6
887.2972	1465.4202	1574.6	677.3
887.4406	1467.2409	1544.85	649.15
887.584	1469.0608	1510.2	615.3
887.7273	1470.88	1488.85	592.05
887.8706	1472.6984	1459.5	564.7
888.0139	1474.5161	1441.05	541.8
888.1572	1476.3331	1428.05	532.55
888.3005	1478.1493	1424.7	528.85
888.4438	1479.9648	1418.4	520.9
888.5871	1481.7795	1417.35	522.25
888.7303	1483.5935	1418.2	524.5
888.8736	1485.4067	1421.55	525.9
889.0168	1487.2192	1417.25	522.7
889.16	1489.031	1416.9	521.6
889.3032	1490.842	1415.3	521.65
889.4464	1492.6522	1411.1	519.1
889.5896	1494.4618	1408.85	512.9
889.7327	1496.2705	1399.4	503.7
889.8759	1498.0785	1407.05	510.8
890.019	1499.8858	1397.6	502
890.1622	1501.6924	1393.6	499.55
890.3053	1503.4981	1380.3	486.55
890.4484	1505.3032	1375.05	478.8
890.5914	1507.1075	1373.9	478
890.7345	1508.911	1367.1	472.85
890.8776	1510.7138	1355.4	462.55
891.0206	1512.5159	1356.5	461.25
891.1637	1514.3172	1345.1	453.5
891.3067	1516.1178	1346.25	451.05
891.4497	1517.9176	1340.85	442.55
891.5927	1519.7166	1333.7	440.6
891.7357	1521.515	1333.45	431.45
891.8786	1523.3126	1321.9	428.05
892.0216	1525.1094	1321.95	423.95
892.1645	1526.9055	1311.75	419.5
892.3074	1528.7008	1311.05	417.05
892.4503	1530.4954	1315.15	414.9
892.5932	1532.2893	1304.4	413.05
892.7361	1534.0824	1309	411.95
892.879	1535.8747	1304.6	411.75
893.0218	1537.6663	1299.85	405.75
893.1647	1539.4572	1313.15	418.3
893.3075	1541.2473	1302.4	408.7
893.4503	1543.0367	1305.5	413
893.5931	1544.8253	1310.15	413
893.7359	1546.6132	1314.8	420.8
893.8787	1548.4003	1319.25	417.15
894.0214	1550.1867	1330.6	431.4
894.1642	1551.9723	1327.6	428.25
894.3069	1553.7572	1346.25	450.3
894.4496	1555.5414	1361.95	470.65
894.5923	1557.3247	1379.95	483.85
894.735	1559.1074	1409.65	517.45
894.8777	1560.8893	1450.55	558.85
895.0204	1562.6705	1475.25	584.35
895.163	1564.4509	1500.55	608.45
895.3056	1566.2305	1507.7	617.4
895.4482	1568.0094	1505.05	614.45
895.5908	1569.7876	1501.45	612.7
895.7334	1571.565	1499.65	605.05
895.876	1573.3417	1502.1	610.1
896.0186	1575.1176	1507.85	618.45
896.1611	1576.8928	1512.1	619.85
896.3036	1578.6672	1534.15	645.2
896.4461	1580.4409	1551.3	663.1
896.5886	1582.2138	1588.45	698.05
896.7311	1583.986	1609.85	718.9
896.8736	1585.7575	1648.2	758.45
897.0161	1587.5282	1665.25	777.65
897.1585	1589.2981	1699.45	810.75
897.3009	1591.0673	1710.45	823
897.4433	1592.8358	1714.25	825.5
897.5857	1594.6035	1717.8	824.95
897.7281	1596.3704	1717.35	825.7
897.8705	1598.1366	1694.55	804.65
898.0128	1599.9021	1675.1	787.6
898.1551	1601.6668	1664.65	773
898.2975	1603.4308	1653.8	761.7
898.4398	1605.194	1662.1	767.7
898.5821	1606.9564	1680.5	794.2
898.7243	1608.7182	1737.1	848.6
898.8666	1610.4791	1799	915.1
899.0088	1612.2394	1883.7	998.5
899.1511	1613.9988	1957.7	1072.65
899.2933	1615.7576	2018.7	1132.6
899.4355	1617.5156	2042.75	1148.35
899.5776	1619.2728	2002.1	1111.05
899.7198	1621.0293	1936.75	1046.95
899.862	1622.785	1828.35	937.5
900.0041	1624.54	1720.9	828.5
900.1462	1626.2942	1639.3	752.7
900.2883	1628.0477	1548.15	658.3
900.4304	1629.8005	1481.65	590.4
900.5725	1631.5525	1426.8	538.05
900.7145	1633.3037	1386.2	498.1
900.8566	1635.0542	1350.85	461.3
900.9986	1636.804	1324.85	438.7
901.1406	1638.553	1409.6	413.15
901.2826	1640.3013	1286.15	398.6
901.4245	1642.0488	1269.5	380.75
901.5665	1643.7955	1260.7	374.35
901.7085	1645.5416	1247.05	360.35
901.8504	1647.2868	1235.05	346.9
901.9923	1649.0313	1239.9	350.9
902.1342	1650.7751	1230.9	338.45
902.2761	1652.5181	1226.55	340.6
902.4179	1654.2604	1226.5	340.05
902.5598	1656.0019	1232.05	344.55
902.7016	1657.7427	1245	356.85
902.8434	1659.4828	1261.9	372.35
902.9852	1661.222	1290.3	400.3
903.127	1662.9606	1317.25	428.8
903.2687	1664.6984	1331	441.25
903.4105	1666.4354	1340.75	448
903.5522	1668.1717	1308.25	416.15
903.6939	1669.9072	1273.3	381.9
903.8356	1671.642	1245.6	354.2
903.9773	1673.3761	1214.55	325.75
904.119	1675.1094	1190.25	301.8
904.2606	1676.8419	1175	287.3
904.4022	1678.5737	1158.4	269
904.5439	1680.3048	1159.25	270.8
904.6855	1682.0351	1150.7	262.6
904.827	1683.7646	1142.9	250.55
904.9686	1685.4934	1140.45	252.45
905.1101	1687.2215	1139.85	248.45
905.2517	1688.9488	1125.2	236.55
905.3932	1690.6754	1125.15	236.25
905.5347	1692.4012	1124.55	236.4
905.6761	1694.1263	1122.45	234.05
905.8176	1695.8506	1119.4	230.1
905.9591	1697.5742	1116.35	228.8
906.1005	1699.297	1114.35	226.8
906.2419	1701.0191	1110.65	223.05
906.3833	1702.7404	1106.9	220.15
906.5246	1704.461	1107.85	218.3
906.666	1706.1808	1108.3	221.85
906.8073	1707.8999	1104.7	214.25
906.9487	1709.6182	1103.4	216.6
907.09	1711.3358	1099.4	214.45
907.2313	1713.0527	1099.55	217.55
907.3725	1714.7688	1099.05	208.2
907.5138	1716.4841	1101.45	211.7
907.655	1718.1987	1104.55	212.05
907.7962	1719.9126	1095.15	208.7
907.9374	1721.6257	1097.7	208.3
908.0786	1723.338	1087.7	203.2
908.2198	1725.0496	1092.95	205.35
908.3609	1726.7605	1090.1	201.95
908.502	1728.4706	1088.95	202.6
908.6431	1730.18	1088.95	201.35
908.7842	1731.8886	1086.6	200.95
908.9253	1733.5964	1107	203.5
909.0664	1735.3036	1085.85	196.9
909.2074	1737.0099	1083.9	198.2
909.3484	1738.7156	1084.95	201.25
909.4894	1740.4204	1085.3	194.9
909.6304	1742.1246	1085.6	199.45
909.7714	1743.8279	1080.85	192.9
909.9123	1745.5306	1084.25	198.35
910.0532	1747.2325	1081.15	196.35
910.1941	1748.9336	1081.9	195
910.335	1750.634	1085.3	197.6
910.4759	1752.3336	1081	195.55
910.6168	1754.0325	1080.75	197.45
910.7576	1755.7307	1077.8	191.35
910.8984	1757.4281	1080.45	191.35
911.0392	1759.1247	1088.3	192.65
911.18	1760.8206	1088.4	193.25
911.3208	1762.5158	1081.4	190.9
911.4615	1764.2102	1075.95	188.55
911.6022	1765.9039	1080.9	195.2
911.7429	1767.5968	1076.1	190.35
911.8836	1769.289	1077.95	192.15
912.0243	1770.9804	1081.35	193.1
912.1649	1772.6711	1079.3	189.8
912.3056	1774.361	1075.25	187.3
912.4462	1776.0502	1072.65	183.65
912.5868	1777.7386	1081.05	189.3
912.7274	1779.4263	1075.35	188.8
912.8679	1781.1132	1071.2	185.15
913.0084	1782.7994	1070	183.35
913.149	1784.4849	1065.15	181.5
913.2895	1786.1696	1085.85	179.85
913.4299	1787.8535	1065.75	181.8
913.5704	1789.5367	1063.25	178.95
913.7108	1791.2192	1068	183.4
913.8513	1792.9009	1090.4	178.05
913.9917	1794.5818	1069.65	179.6
914.132	1796.2621	1066.4	179.95
914.2724	1797.9415	1066.65	181.05
914.4128	1799.6202	1064.35	178.35
914.5531	1801.2982	1067.9	179.35
914.6934	1802.9755	1064.85	173.5
914.8337	1804.6519	1060.95	173.3
914.9739	1806.3277	1061.45	178.15
915.1142	1808.0027	1058.05	172.35
915.2544	1809.6769	1056.95	172.05
915.3946	1811.3504	1064.25	177.45
915.5348	1813.0231	1060.85	176.3
915.675	1814.6951	1060.45	174.65
915.8151	1816.3664	1062	173.9
915.9553	1818.0369	1061.45	174.9
916.0954	1819.7067	1057.6	172.25
916.2355	1821.3757	1056.6	168.15
916.3755	1823.044	1061.65	173.75
916.5156	1824.7115	1058.3	172.6
916.6556	1826.3783	1059.65	173.25
916.7956	1828.0443	1057.85	170.6
916.9356	1829.7096	1055.1	167.6
917.0756	1831.3741	1059.1	168.55
917.2155	1833.0379	1055.75	170.65
917.3555	1834.701	1052.05	167.1
917.4954	1836.3633	1054.1	170.1
917.6353	1838.0248	1051.85	166.4
917.7751	1839.6856	1053.1	167.9
917.915	1841.3457	1051.2	164.7
918.0548	1843.005	1054.15	166.2
918.1946	1844.6636	1049.8	164.05
918.3344	1846.3214	1048.9	159.9
918.4742	1847.9785	1049.3	163.65
918.6139	1849.6349	1052.25	163.6
918.7537	1851.2904	1059.75	162.3
918.8934	1852.9453	1058.8	171.15
919.0331	1854.5994	1051.85	162.9
919.1727	1856.2528	1056.05	164.15
919.3124	1857.9054	1048.3	162
919.452	1859.5572	1045.05	160.2
919.5916	1861.2083	1052.8	167.9
919.7312	1862.8587	1051.95	164.75
919.8708	1864.5084	1047.05	160
920.0103	1866.1572	1045.15	155.55
920.1498	1867.8054	1049.55	162.8
920.2893	1869.4528	1047.9	158.7
920.4288	1871.0994	1046.25	158.5
920.5683	1872.7453	1049.6	162.25
920.7077	1874.3905	1052.2	159.15
920.8471	1876.0349	1044.3	158.45
920.9865	1877.6786	1046.85	158.1
921.1259	1879.3215	1047.65	161.55
921.2653	1880.9637	1042.95	152.7
921.4046	1882.6051	1039.05	153.9
921.5439	1884.2458	1044.9	155.4
921.6832	1885.8858	1039.1	154.95
921.8225	1887.525	1041.3	153.6
921.9617	1889.1634	1043.65	156.75
922.101	1890.8011	1043	156.8
922.2402	1892.4381	1043.55	158.4
922.3794	1894.0743	1040.45	153.55
922.5185	1895.7098	1037.25	150.65
922.6577	1897.3446	1041.95	155.75
922.7968	1898.9786	1047.6	156.45
922.9359	1900.6118	1037.5	152
923.075	1902.2443	1037.2	148.8
923.214	1903.8761	1036.15	150
923.3531	1905.5071	1033.25	145.5
923.4921	1907.1374	1038.75	151.95
923.6311	1908.7669	1030.85	145.4
923.77	1910.3957	1034.35	149.15
923.909	1912.0237	1036.7	148.65
924.0479	1913.651	1038.35	150.3
924.1868	1915.2776	1031.6	147.3
924.3257	1916.9034	1035.8	150.45
924.4646	1918.5285	1029.9	146
924.6034	1920.1528	1031.05	142.3
924.7422	1921.7764	1031.9	144.65
924.881	1923.3992	1028.3	141.7
925.0198	1925.0213	1032.95	146.65
925.1586	1926.6427	1030.1	145.4
925.2973	1928.2633	1239.4	145.3
925.436	1929.8832	1033.05	144.8
925.5747	1931.5023	1031.9	145.25
925.7134	1933.1207	1028.3	143.8
925.852	1934.7383	1028.9	143.2
925.9906	1936.3552	1023.6	137.5
926.1292	1937.9714	1027.85	144.05
926.2678	1939.5868	1031.95	142.95
926.4064	1941.2015	1025.5	140.8
926.5449	1942.8154	1026.15	139.25
926.6834	1944.4286	1025.15	136.95
926.8219	1946.041	1046.85	137.85
926.9604	1947.6528	1028.65	134.3
927.0988	1949.2637	1023.3	136.35
927.2372	1950.8739	1025.65	140.2
927.3756	1952.4834	1022.95	136.3
927.514	1954.0921	1020.65	132.85
927.6523	1955.7001	1028.9	140.05
927.7907	1957.3074	1020.25	137.25
927.929	1958.9139	1022.75	138.8
928.0673	1960.5197	1021.35	136.4
928.2055	1962.1247	1018.8	132.8
928.3438	1963.729	1018.1	132.45
928.482	1965.3325	1025.1	135.3
928.6202	1966.9353	1017.7	134.35
928.7584	1968.5374	1017.5	131
928.8965	1970.1387	1022.45	138.45
929.0346	1971.7393	1019.95	135.05
929.1727	1973.3392	1017.2	133.55
929.3108	1974.9383	1013.1	130.75
929.4489	1976.5366	1019.15	136.45
929.5869	1978.1342	1012.85	130.4
929.7249	1979.7311	1014.7	130.2
929.8629	1981.3273	1012	126.1
930.0009	1982.9227	1014.9	130.25
930.1388	1984.5173	1012.2	130.8
930.2767	1986.1112	1010.65	127.35
930.4146	1987.7044	1009.35	128.7
930.5525	1989.2968	1008.5	124.15
930.6904	1990.8885	1012.5	125.45
930.8282	1992.4795	1014.6	132.5
930.966	1994.0697	1008.6	126.95
931.1038	1995.6592	1010.15	128.3
931.2415	1997.2479	1010.35	127.95
931.3793	1998.8359	1008.4	127.2
931.517	2000.4232	1005.05	126.45
931.6547	2002.0097	1005.05	125.9
931.7923	2003.5955	1007.5	128.05
931.93	2005.1805	1012.1	129.85
932.0676	2006.7648	1007.7	127.6
932.2052	2008.3484	1008.4	126.15
932.3427	2009.9312	1007.05	125.4
932.4803	2011.5133	1003.9	125.1
932.6178	2013.0946	1004.65	125.7
932.7553	2014.6752	1009.6	130
932.8928	2016.2551	1004.85	124.55
933.0302	2017.8342	1004.05	124.05
933.1676	2019.4126	1006.4	127.3
933.305	2020.9902	1005.65	128.4
933.4424	2022.5672	1006.9	124.85
933.5798	2024.1433	1005.85	122.8
933.7171	2025.7188	1000.4	122.8
933.8544	2027.2935	1007.45	127.1
933.9917	2028.8674	1003.05	125.55
934.129	2030.4406	1002.75	125.45
934.2662	2032.0131	1000.85	123.1
934.4034	2033.5849	1004.4	123.05
934.5406	2035.1559	1003.15	125.65
934.6778	2036.7261	1002.4	122.05
934.8149	2038.2957	1002	120.6
934.952	2039.8645	1002.95	121
935.0891	2041.4325	1008.5	122.25
935.2262	2042.9998	999.1	119.35
935.3632	2044.5664	1003.85	122.8
935.5002	2046.1323	1000.65	120.65
935.6372	2047.6974	999.4	120.9
935.7742	2049.2617	1002.9	122.9
935.9111	2050.8254	1006.45	121
936.048	2052.3883	1000.25	120.3
936.1849	2053.9504	1000.75	122.4
936.3218	2055.5118	1002.05	119.2
936.4586	2057.0725	1002.8	117.15
936.5955	2058.6325	997.4	118.65
936.7323	2060.1917	1001.9	124.95
936.869	2061.7502	999.65	116.15
937.0058	2063.3079	996.8	120.2
937.1425	2064.8649	1003.95	120.55
937.2792	2066.4212	1000.85	122.9
937.4159	2067.9767	1001.75	122.65
937.5525	2069.5315	997.6	117.9
937.6891	2071.0856	997.85	117.3
937.8257	2072.6389	1002.6	123.05
937.9623	2074.1915	994.75	117.7
938.0989	2075.7433	1000.75	119.4
938.2354	2077.2945	997.95	119.25
938.3719	2078.8448	1003.1	125
938.5084	2080.3945	1000.35	119.7
938.6448	2081.9434	997.15	117.25
938.7812	2083.4916	1000.65	118.15
938.9176	2085.039	1001.7	115.75
939.054	2086.5857	1004.15	120.25
939.1903	2088.1317	1002.15	119.35
939.3267	2089.677	1000.05	115.5
939.463	2091.2215	1001.5	117.4
939.5992	2092.7652	1004.25	121.4
939.7355	2094.3083	1003.05	119.85
939.8717	2095.8506	999.45	117.5
940.0079	2097.3921	999.3	118.75
940.1441	2098.933	996.9	114.25
940.2802	2100.4731	997.7	116.15
940.4163	2102.0124	1017.15	118.75
940.5524	2103.5511	1000.3	120.6
940.6885	2105.089	998.5	117.1
940.8245	2106.6261	999.65	117.9
940.9606	2108.1626	996.8	115.8
941.0965	2109.6983	1026.9	117
941.2325	2111.2332	1001.9	118.9
941.3684	2112.7675	999.75	115.65
941.5044	2114.301	1003.15	118
941.6403	2115.8337	998	114.8
941.7761	2117.3657	994.6	112.2
941.912	2118.897	998.2	115.1
942.0478	2120.4276	1008.35	120.25
942.1835	2121.9575	999.1	116.7
942.3193	2123.4866	1000.6	116.2
942.455	2125.0149	1001	116.6
942.5907	2126.5426	990.8	110.7
942.7264	2128.0695	998.9	114.85
942.8621	2129.5956	995.25	117.8
942.9977	2131.1211	996.7	110.9
943.1333	2132.6458	991.75	111.6
943.2689	2134.1698	997.6	114.75
943.4044	2135.693	999.8	114.75
943.54	2137.2155	1000.7	116.45
943.6755	2138.7373	996.75	115.7
943.8109	2140.2584	991.4	111.8
943.9464	2141.7787	997.35	112.65
944.0818	2143.2983	987.65	110.95
944.2172	2144.8171	993.15	115.15
944.3526	2146.3353	995.55	115.65
944.4879	2147.8527	993.8	113.35
944.6232	2149.3693	997.6	115.5
944.7585	2150.8853	998.3	113.65
944.8938	2152.4005	996.75	115.75
945.029	2153.9149	996.55	114.5
945.1642	2155.4287	994.7	112.25
945.2994	2156.9417	992.95	108.9
945.4346	2158.454	994	113.3
945.5697	2159.9655	992	112.15
945.7048	2161.4764	991.3	110.7
945.8399	2162.9865	992.5	111.85
945.9749	2164.4958	992.5	111.25
946.1099	2166.0045	993.05	109.15
946.2449	2167.5124	991.85	112.1
946.3799	2169.0195	989.75	108.85
946.5148	2170.526	992.45	109.45
946.6498	2172.0317	992.5	112.4
946.7846	2173.5367	990.1	106.9
946.9195	2175.0409	991.1	113.1
947.0543	2176.5445	988.9	107.15
947.1891	2178.0473	992.75	109.45
947.3239	2179.5494	995.75	109.85
947.4587	2181.0507	990.7	107.8
947.5934	2182.5513	989.95	108.25
947.7281	2184.0512	993	108.4
947.8628	2185.5504	992.15	111.4
947.9974	2187.0488	989.2	109.7
948.132	2188.5465	990	112.15
948.2666	2190.0435	986.55	105.5
948.4012	2191.5397	989.9	109.05
948.5357	2193.0353	988.75	106.7
948.6702	2194.5301	993.65	110.35
948.8047	2196.0241	991	108.3
948.9392	2197.5175	993.25	108.1
949.0736	2199.0101	993.3	107.5
949.208	2200.502	990.05	110.8
949.3424	2201.9931	985.7	107.2
949.4767	2203.4835	986.45	105.8
949.611	2204.9733	1007.35	109.7
949.7453	2206.4622	986.7	108.75
949.8796	2207.9505	987.45	105.7
950.0138	2209.438	981.85	103.9
950.148	2210.9248	984.1	104.6
950.2822	2212.4109	986.6	105.7
950.4164	2213.8962	988.05	105.45
950.5505	2215.3809	988.4	104.45
950.6846	2216.8648	986.15	102.9
950.8186	2218.3479	988.7	102.7
950.9527	2219.8304	991.8	105.35
951.0867	2221.3121	987.1	102.1
951.2207	2222.7931	982.55	101
951.3546	2224.2733	984.8	103.6
951.4886	2225.7529	982.25	101.2
951.6225	2227.2317	986.15	103.4
951.7563	2228.7098	984.8	108.15
951.8902	2230.1872	977.5	97.55
952.024	2231.6638	981.2	100.9
952.1578	2233.1397	984.8	98.95
952.2916	2234.6149	979.85	99.9
952.4253	2236.0894	978.45	96.55
952.559	2237.5632	992.15	101.15
952.6927	2239.0362	985.15	103.4
952.8263	2240.5085	979.65	99.7
952.9599	2241.9801	980.8	99.1
953.0935	2243.4509	981.55	101.9
953.2271	2244.921	982.55	100.1
953.3606	2246.3904	980.1	96.75
953.4941	2247.8591	979.65	101.35
953.6276	2249.3271	979.55	96.65
953.7611	2250.7943	978.05	95.5
953.8945	2252.2608	977.9	96.15
954.0279	2253.7266	977.5	95.05
954.1612	2255.1917	976.05	93.95
954.2946	2256.656	979.5	99
954.4279	2258.1197	976.6	97.8
954.5612	2259.5826	978.45	95.5
954.6944	2261.0447	977.2	95.75
954.8276	2262.5062	978.65	95.05
954.9608	2263.9669	976.6	92.45
955.094	2265.4269	976.45	94.2
955.2271	2266.8862	975.8	94.75
955.3602	2268.3448	974.5	92.5
955.4933	2269.8026	973.2	94.2
955.6264	2271.2598	972.75	91.35
955.7594	2272.7162	971.2	92.35
955.8924	2274.1719	976.05	95.8
956.0253	2275.6268	979.25	97.4
956.1583	2277.0811	975.95	92.9
956.2912	2278.5346	974.75	94.65
956.4241	2279.9874	974.3	93.65
956.5569	2281.4395	974.4	97.05
956.6897	2282.8908	980.95	94.3
956.8225	2284.3414	978.2	96.3
956.9553	2285.7914	970.75	90.75
957.088	2287.2406	977.5	96.05
957.2207	2288.689	978.5	98.35
957.3534	2290.1368	977.6	93.95
957.486	2291.5838	978.65	94.45
957.6186	2293.0302	971.75	88.55
957.7512	2294.4758	975.5	92.35
957.8838	2295.9206	975.65	90.65
958.0163	2297.3648	973.55	91.6
958.1488	2298.8082	972.7	90.7
958.2813	2300.251	972.6	91.65
958.4137	2301.693	977.9	92.7
958.5461	2303.1343	974.65	92.6
958.6785	2304.5748	968.65	86.95
958.8108	2306.0147	965.55	84.55
958.9432	2307.4538	970.15	88.1
959.0754	2308.8922	969.4	91.7
959.2077	2310.3299	971.65	88.7
959.3399	2311.7669	969.65	89.25
959.4721	2313.2031	971.7	90
959.6043	2314.6387	972.95	90.65
959.7365	2316.0735	969	88.2
959.8686	2317.5076	969.3	88.3
960.0006	2318.941	969.05	88.1
960.1327	2320.3737	975.9	93.05
960.2647	2321.8056	975.4	90.15
960.3967	2323.2369	972.65	91.05
960.5287	2324.6674	976.8	93.65
960.6606	2326.0972	973.9	91.8
960.7925	2327.5263	977.4	95.8
960.9244	2328.9547	981.3	100.95
961.0562	2330.3823	979.55	96.75
961.1881	2331.8092	976.85	90.45
961.3198	2333.2355	971.95	91.25
961.4516	2334.661	965.25	80.85
961.5833	2336.0858	972.8	88.95
961.715	2337.5098	967.35	85.65
961.8467	2338.9332	969.3	86.65
961.9783	2340.3558	967.05	81.85
962.1099	2341.7778	964.65	84.9
962.2415	2343.199	966	83.9
962.373	2344.6195	966.5	85.3
962.5045	2346.0393	963.65	84.4
962.636	2347.4583	967.35	85.1
962.7675	2348.8767	966.6	83.8
962.8989	2350.2943	968.25	85.45
963.0303	2351.7113	969.3	85.35
963.1617	2353.1275	965.4	82.35
963.293	2354.543	988.75	80.85
963.4243	2355.9578	966	83.05
963.5556	2357.3718	963.3	83.15
963.6868	2358.7852	968.2	83.7
963.818	2360.1978	965.9	86.7
963.9492	2361.6098	965.35	80.55
964.0803	2363.021	967.5	82.65
964.2114	2364.4315	967.6	86.35
964.3425	2365.8413	968.65	80.5
964.4736	2367.2504	964.25	83.1
964.6046	2368.6587	965.4	84.25
964.7356	2370.0664	963.75	80.05
964.8666	2371.4733	967.5	84.1
964.9975	2372.8795	966.1	84.4
965.1284	2374.285	962.3	80.1
965.2593	2375.6899	960	78
965.3901	2377.0939	962.2	79.2
965.5209	2378.4973	960.65	76.25
965.6517	2379.9	961.25	78.1
965.7825	2381.3019	965.4	83.8
965.9132	2382.7032	962.6	81.8
966.0439	2384.1037	957.2	77.05
966.1745	2385.5035	960.6	79.15
966.3051	2386.9027	961	81.75
966.4357	2388.3011	963.95	79.6
966.5663	2389.6987	960.95	77.65
966.6968	2391.0957	961.75	79.6
966.8273	2392.492	960.5	77.15
966.9578	2393.8876	959.5	77.5
967.0882	2395.2824	960.45	76.25
967.2186	2396.6765	957.15	75.3
967.349	2398.07	961.9	79.55
967.4793	2399.4627	962.45	79.4
967.6097	2400.8547	961.45	75.55
967.7399	2402.246	968.3	77.55
967.8702	2403.6366	954.9	71.1
968.0004	2405.0265	958	75.7
968.1306	2406.4156	962.2	74.4
968.2607	2407.8041	960.95	74.65
968.3909	2409.1918	962.45	74.45
968.521	2410.5789	956.7	72.55
968.651	2411.9652	960.2	74.3
968.781	2413.3508	957.15	73.25
968.911	2414.7358	959.75	76.1
969.041	2416.12	957.9	77.2
969.1709	2417.5035	953.7	70.6
969.3008	2418.8863	955.55	70.15
969.4307	2420.2684	955.35	71.3
969.5606	2421.6497	953.2	68.1
969.6904	2423.0304	954.2	74.8
969.8201	2424.4104	956.55	73.55
969.9499	2425.7896	961.8	73.65
970.0796	2427.1682	952.1	69.3
970.2093	2428.546	954.25	69.15
970.3389	2429.9232	955	70.55
970.4685	2431.2996	955.1	73.15
970.5981	2432.6753	956.7	73
970.7277	2434.0503	956.05	73.25
970.8572	2435.4246	953.15	69.8
970.9867	2436.7982	954.85	68.7
971.1161	2438.1711	950.45	67.4
971.2456	2439.5433	955.2	71.1
971.375	2440.9148	953.75	69.45
971.5043	2442.2856	954	72.8
971.6336	2443.6557	952.45	67.25
971.7629	2445.025	949.3	65.35
971.8922	2446.3937	951.4	69.5
972.0214	2447.7617	954.5	69.3
972.1506	2449.1289	949.35	66.15
972.2798	2450.4955	955.8	68.15
972.4089	2451.8613	950.2	68.25
972.538	2453.2265	950.45	68.85
972.6671	2454.5909	950.9	68.5
972.7961	2455.9546	952.3	69.6
972.9251	2457.3177	949.45	64.55
973.0541	2458.68	952.1	65.6
973.1831	2460.0416	954.8	71.55
973.312	2461.4025	948.7	66.05
973.4408	2462.7627	961.3	67.45
973.5697	2464.1222	946.4	68.6
973.6985	2465.4811	947.65	65.35
973.8273	2466.8392	949.7	66.05
973.956	2468.1966	954.05	68.15
974.0847	2469.5533	951.7	66.2
974.2134	2470.9093	945.8	61.95
974.3421	2472.2645	953.1	67.05
974.4707	2473.6191	948.85	68.75
974.5993	2474.973	949.35	66.35
974.7278	2476.3262	950.6	66.7
974.8563	2477.6787	945.55	62.45
974.9848	2479.0305	946.35	65.3
975.1132	2480.3816	949.65	65.45
975.2417	2481.7319	948.7	65.8
975.37	2483.0816	948.95	62.6
975.4984	2484.4306	951.45	68.6
975.6267	2485.7789	951.5	69.35
975.755	2487.1264	950.75	65.6
975.8833	2488.4733	947.45	63.55
976.0115	2489.8195	955.65	66.75
976.1397	2491.165	952.9	66.75
976.2678	2492.5097	948.8	66.65
976.3959	2493.8538	943.55	62.5
976.524	2495.1972	947.45	63.9
976.6521	2496.5398	945.7	62.75
976.7801	2497.8818	948.15	61.8
976.9081	2499.2231	944.4	60.5
977.036	2500.5637	948.2	62.3
977.164	2501.9035	949.75	63.75
977.2918	2503.2427	950.05	62.85
977.4197	2504.5812	944.35	61.65
977.5475	2505.919	949.1	64.1
977.6753	2507.256	942.9	59.65
977.8031	2508.5924	945.45	63.2
977.9308	2509.9281	949.65	60.7
978.0585	2511.2631	946.85	63.4
978.1861	2512.5974	942.2	59.55
978.3137	2513.9309	941.45	60
978.4413	2515.2638	972.2	64
978.5689	2516.596	943.2	62.4
978.6964	2517.9275	943.25	58.6
978.8239	2519.2583	945.2	61.2
978.9513	2520.5884	946.6	62.05
979.0788	2521.9178	941.4	59.2
979.2062	2523.2465	940.45	59.65
979.3335	2524.5745	940.75	59.7
979.4608	2525.9018	941.1	58.8
979.5881	2527.2284	938.65	59.45
979.7154	2528.5543	940.05	58.7
979.8426	2529.8796	944.65	60.85
979.9698	2531.2041	940.3	58.65
980.0969	2532.5279	939.85	58.9
980.224	2533.851	941.15	60.4
980.3511	2535.1735	940.7	58.95
980.4781	2536.4952	944.75	60.9
980.6052	2537.8163	942.05	59.6
980.7321	2539.1366	941.8	57.5
980.8591	2540.4562	941	55.7
980.986	2541.7752	939.6	55.9
981.1129	2543.0935	945.4	61.95
981.2397	2544.411	939.2	55.35
981.3665	2545.7279	940.75	58.05
981.4933	2547.0441	938.25	53.9
981.62	2548.3596	945.1	59.6
981.7467	2549.6744	939.8	59.95
981.8734	2550.9885	946.65	57
982.0001	2552.3019	938.2	57.1
982.1267	2553.6146	937.55	55.6
982.2532	2554.9266	940.75	56.25
982.3798	2556.2379	940.6	55.1
982.5063	2557.5485	937.95	56.45
982.6327	2558.8585	946.05	56.7
982.7592	2560.1677	942.75	55.1
982.8856	2561.4762	940.55	57.9
983.0119	2562.7841	941.75	54.6
983.1383	2564.0913	938.55	57.6
983.2646	2565.3977	938.4	56.6
983.3908	2566.7035	939.1	56.3
983.517	2568.0086	938.3	52
983.6432	2569.313	939.95	56.45
983.7694	2570.6167	940.05	54.65
983.8955	2571.9197	933.95	52.05
984.0216	2573.222	941.65	54.85
984.1476	2574.5236	938.2	53.45
984.2737	2575.8246	939.7	56.15
984.3996	2577.1248	939.75	56.6
984.5256	2578.4244	935.75	52.8
984.6515	2579.7232	938.65	56.6
984.7774	2581.0214	963.7	53.6
984.9032	2582.3189	939.5	59.05
985.029	2583.6157	941	55.75
985.1548	2584.9118	936.2	55.75
985.2806	2586.2072	936.45	56.65
985.4063	2587.5019	935.85	55.4
985.5319	2588.7959	939.6	57.7
985.6576	2590.0893	940.7	53.95
985.7832	2591.3819	939.25	57.85
985.9087	2592.6739	938.2	56.3
986.0343	2593.9652	938.3	54.6
986.1597	2595.2557	939.05	57.6
986.2852	2596.5456	940.45	56.3
986.4106	2597.8348	937.05	55.35
986.536	2599.1234	936.9	55.35
986.6614	2600.4112	939.25	56
986.7867	2601.6983	942.05	55.45
986.912	2602.9848	938.3	55.65
987.0372	2604.2705	943.55	52.45
987.1624	2605.5556	934.2	50.95
987.2876	2606.84	937.1	56.15
987.4128	2608.1237	936.5	54.25
987.5379	2609.4067	934.1	52.1
987.6629	2610.689	943.3	51.65
987.788	2611.9707	939.75	53.15
987.913	2613.2516	939	52.7
988.0379	2614.5319	935.25	54.05
988.1629	2615.8115	936.25	51.25
988.2878	2617.0903	936.95	54.65
988.4126	2618.3685	936.15	52.25
988.5375	2619.6461	931.95	48.8
988.6622	2620.9229	933.75	52.55
988.787	2622.199	937.4	55.1
988.9117	2623.4745	931.95	50.85
989.0364	2624.7493	931.25	49.95
989.161	2626.0234	932.3	51.4
989.2857	2627.2968	933.15	51.45
989.4102	2628.5695	935.6	49.6
989.5348	2629.8415	931.3	50.5
989.6593	2631.1128	935.7	50.6
989.7837	2632.3835	931.8	48.95
989.9082	2633.6535	932.2	50.7
990.0326	2634.9228	931.15	49.55
990.1569	2636.1914	931.45	51
990.2812	2637.4593	936.7	50.25
990.4055	2638.7265	931.3	48.2
990.5298	2639.9931	926.65	44.85
990.654	2641.259	930.05	49.65
990.7782	2642.5242	931.9	49.8
990.9023	2643.7887	932.85	51
991.0264	2645.0525	928.15	44.5
991.1505	2646.3156	931.9	48.05
991.2745	2647.5781	926.9	43.7
991.3985	2648.8398	931.8	49.85
991.5225	2650.1009	938.85	47.4
991.6464	2651.3613	926.75	45.35
991.7703	2652.6211	928.15	47.4
991.8942	2653.8801	927.3	48.25
992.018	2655.1385	931	46.45
992.1418	2656.3961	928.45	46
992.2655	2657.6531	927.75	45.45
992.3892	2658.9094	925.25	45.25
992.5129	2660.1651	925.9	43.25
992.6366	2661.42	926.65	44.8
992.7602	2662.6743	927.45	45.45
992.8837	2663.9279	926.3	46.3
993.0073	2665.1808	929.75	47.15
993.1307	2666.433	929.45	46.45
993.2542	2667.6846	926.65	44.15
993.3776	2668.9354	933.7	48.5
993.501	2670.1856	929.25	46.25
993.6244	2671.4351	927.75	45.2
993.7477	2672.6839	928.45	46.8
993.8709	2673.9321	929.55	47.55
993.9942	2675.1795	928.95	46.6
994.1174	2676.4263	931.65	51.85
994.2405	2677.6724	929.2	47.65
994.3637	2678.9179	930.2	49.7
994.4868	2680.1626	928.3	47.9
994.6098	2681.4067	927.95	46.4
994.7328	2682.6501	928.5	47.25
994.8558	2683.8928	927.4	44.95
994.9788	2685.1348	927.2	47
995.1017	2686.3761	927.8	47.35
995.2245	2687.6168	925.9	47.3
995.3474	2688.8568	927.65	45.55
995.4702	2690.0961	924.15	43.4
995.5929	2691.3348	927.95	46.2
995.7156	2692.5727	927.55	46.35
995.8383	2693.81	924.85	41.45
995.961	2695.0466	924.9	45.6
996.0836	2696.2826	927.15	44.6
996.2062	2697.5178	928.7	45.4
996.3287	2698.7524	923.7	43.4
996.4512	2699.9863	925.6	42.3
996.5737	2701.2195	924.25	45
996.6961	2702.452	928	45.35
996.8185	2703.6839	926.25	44.05
996.9408	2704.9151	926.65	45.15
997.0631	2706.1456	928.15	44.95
997.1854	2707.3755	926.65	44.5
997.3077	2708.6046	928.95	46
997.4299	2709.8331	929.8	46.7
997.552	2711.0609	924.85	43.3
997.6742	2712.2881	930.2	47.9
997.7963	2713.5145	931.65	49.1
997.9183	2714.7403	928.85	49.85
998.0403	2715.9654	930.8	51.7
998.1623	2717.1899	947.35	50.85
998.2842	2718.4136	929.6	49.1
998.4062	2719.6367	929.6	50.65
998.528	2720.8591	939.8	51.85
998.6498	2722.0809	934.45	53.55
998.7716	2723.3019	936.35	52.95
998.8934	2724.5223	936.7	54.45
999.0151	2725.7421	937.85	56.2
999.1368	2726.9611	935.8	52.2
999.2584	2728.1795	936.8	50.05
999.38	2729.3972	928.25	47.95
999.5016	2730.6142	935.2	47.95
999.6231	2731.8306	931.55	50.55
999.7446	2733.0462	931.4	49.65
999.8661	2734.2612	932.45	47.1
999.9875	2735.4756	924.7	42.9
1000.1089	2736.6892	924.35	42.75
1000.2302	2737.9022	925.1	45.4
1000.3515	2739.1145	923	42
1000.4728	2740.3262	932.75	43.65
1000.594	2741.5372	920.65	41.05
1000.7152	2742.7475	922.85	42.4
1000.8363	2743.9571	927.65	43
1000.9575	2745.1661	926.9	40.8
1001.0785	2746.3744	922.75	40.7
1001.1996	2747.582	921.55	41.7
1001.3206	2748.7889	922.7	41.1
1001.4415	2749.9952	918.1	37.7
1001.5625	2751.2008	920.9	40.25
1001.6833	2752.4057	923.25	40.8
1001.8042	2753.61	919	38.35
1001.925	2754.8136	921.55	39.9
1002.0458	2756.0165	917.2	36.05
1002.1665	2757.2188	917.6	38.4
1002.2872	2758.4204	917.05	36.5
1002.4078	2759.6213	917.8	34.4
1002.5285	2760.8215	921.95	36.55
1002.649	2762.0211	919.5	37
1002.7696	2763.22	921.85	38.1
1002.8901	2764.4182	919.5	37.75
1003.0106	2765.6158	919.45	40.25
1003.131	2766.8127	918.35	39
1003.2514	2768.009	918.1	38.05
1003.3717	2769.2045	917.2	33.75
1003.492	2770.3994	919.1	39.8
1003.6123	2771.5936	917.15	36.4
1003.7325	2772.7872	914.15	34.3
1003.8527	2773.9801	918.15	35.45
1003.9729	2775.1723	931.85	32.75
1004.093	2776.3639	913.65	34.6
1004.2131	2777.5548	917.3	35.2
1004.3331	2778.745	916.65	35.9
1004.4531	2779.9346	913.9	33.4
1004.5731	2781.1235	914.7	34.95
1004.693	2782.3117	916.8	36.15
1004.8129	2783.4992	915.5	35.7
1004.9328	2784.6861	911.25	31.15
1005.0526	2785.8723	916.15	34.9
1005.1723	2787.0579	914.85	32.9
1005.2921	2788.2428	917.8	36.95
1005.4118	2789.427	913.25	34.45
1005.5314	2790.6106	914.3	33.25
1005.651	2791.7935	916.25	34.6
1005.7706	2792.9757	915.05	35.95
1005.8902	2794.1573	918.3	35.6
1006.0097	2795.3382	916.35	36.05
1006.1291	2796.5184	916.7	37.5
1006.2485	2797.698	915.7	35.1
1006.3679	2798.8769	915.5	34.25
1006.4873	2800.0551	919.2	40.4
1006.6066	2801.2327	919.7	35.95
1006.7258	2802.4096	915.1	34.85
1006.8451	2803.5859	918.85	35.65
1006.9642	2804.7615	920.65	40.55
1007.0834	2805.9364	916.95	40.65
1007.2025	2807.1106	918.9	39.1
1007.3216	2808.2842	922.25	40.65
1007.4406	2809.4572	922.8	40.6
1007.5596	2810.6294	920.75	40.3
1007.6785	2811.801	919.65	42.2
1007.7975	2812.972	923.35	42.65
1007.9163	2814.1423	925.45	45.5
1008.0352	2815.3119	926.45	47.3
1008.154	2816.4808	927.1	47.8
1008.2727	2817.6491	934.7	53
1008.3914	2818.8167	935.2	56.7
1008.5101	2819.9837	940.5	55.1
1008.6288	2821.15	940.95	59.2
1008.7474	2822.3157	947.45	69.3
1008.8659	2823.4807	951.75	71.5
1008.9844	2824.645	959.25	78.4
1009.1029	2825.8086	966.75	88.25
1009.2214	2826.9716	968.4	90.1
1009.3398	2828.134	978.45	98.9
1009.4581	2829.2957	984.1	103.9
1009.5764	2830.4567	986.65	110.35
1009.6947	2831.617	992.1	111.15
1009.813	2832.7767	994.75	113.55
1009.9312	2833.9358	995.1	117.6
1010.0493	2835.0941	995.75	115
1010.1675	2836.2519	991.55	112.15
1010.2855	2837.4089	988.05	107.35
1010.4036	2838.5653	985.25	104.65
1010.5216	2839.7211	983.4	106.65
1010.6396	2840.8761	981.2	101.6
1010.7575	2842.0306	974.65	97.55
1010.8754	2843.1843	974.8	94.05
1010.9932	2844.3374	975.05	95.1
1011.111	2845.4899	978.15	98.5
1011.2288	2846.6417	985.65	107.55
1011.3465	2847.7928	984.3	105.4
1011.4642	2848.9433	983	104.45
1011.5818	2850.0931	986.7	106.45
1011.6995	2851.2422	988.2	106.55
1011.817	2852.3907	985.8	106.55
1011.9345	2853.5385	992.1	110
1012.052	2854.6857	1015.5	110.75
1012.1695	2855.8323	990.9	112
1012.2869	2856.9781	995.6	117.55
1012.4042	2858.1233	996.3	116.4
1012.5216	2859.2679	997.3	118.95
1012.6389	2860.4118	1003.45	122.35
1012.7561	2861.555	1012.45	127.9
1012.8733	2862.6976	1006.85	125.1
1012.9905	2863.8395	1007	129.85
1013.1076	2864.9808	1008.15	128.2
1013.2247	2866.1214	1012.2	132.4
1013.3417	2867.2614	1012.8	134.85
1013.4587	2868.4007	1015.25	135.05
1013.5757	2869.5393	1016.35	134.7
1013.6926	2870.6773	1018.85	135.95
1013.8095	2871.8146	1019.85	136.4
1013.9263	2872.9513	1022.45	141.35
1014.0431	2874.0874	1019.55	139.3
1014.1599	2875.2227	1023.95	145.65
1014.2766	2876.3574	1021.4	140.85
1014.3933	2877.4915	1023.85	145.55
1014.51	2878.6249	1027.6	149.95
1014.6266	2879.7577	1026.95	146.25
1014.7431	2880.8898	1038.9	147.6
1014.8596	2882.0212	1032.85	156.1
1014.9761	2883.152	1037.9	157.85
1015.0925	2884.2821	1031.7	155
1015.2089	2885.4116	1034	155.65
1015.3253	2886.5405	1038.1	160.3
1015.4416	2887.6686	1044.2	162.65
1015.5579	2888.7962	1042.3	167.15
1015.6741	2889.923	1035.45	157.45
1015.7903	2891.0493	1040.4	164.15
1015.9065	2892.1748	1039.05	160.35
1016.0226	2893.2997	1037.6	158.3
1016.1387	2894.424	1037.4	157.3
1016.2547	2895.5476	1042.9	165.9
1016.3707	2896.6706	1039.75	161.6
1016.4866	2897.7929	1042.45	163.75
1016.6025	2898.9145	1035.4	154.75
1016.7184	2900.0355	1040.45	161.85
1016.8342	2901.1559	1041.6	162.7
1016.95	2902.2756	1042.15	159.2
1017.0658	2903.3946	1037.25	159.2
1017.1815	2904.513	1038.9	156.1
1017.2971	2905.6308	1036.35	158.5
1017.4127	2906.7479	1039	157.75
1017.5283	2907.8643	1042.2	160.65
1017.6439	2908.9801	1036.05	157.75
1017.7594	2910.0953	1040.85	160.4
1017.8748	2911.2098	1038.55	156.4
1017.9902	2912.3236	1049.65	164.1
1018.1056	2913.4368	1045.55	163.6
1018.2209	2914.5494	1039.35	160.85
1018.3362	2915.6613	1038.8	152.05
1018.4515	2916.7725	1034.95	154.7
1018.5667	2917.8831	1030.95	149.6
1018.6819	2918.9931	1026.45	144.35
1018.797	2920.1024	1026.35	146.45
1018.9121	2921.211	1028.95	149.5
1019.0271	2922.319	1024.5	142.55
1019.1421	2923.4264	1023.3	144.25
1019.2571	2924.5331	1019.7	140.15
1019.372	2925.6391	1017.35	142
1019.4869	2926.7445	1015.5	138.65
1019.6017	2927.8493	1019.8	141.4
1019.7165	2928.9534	1019.7	142.05
1019.8313	2930.0569	1025.55	143.55
1019.946	2931.1597	1023.8	143.55
1020.0606	2932.2619	1025.6	146.2
1020.1753	2933.3634	1025.35	146.35
1020.2899	2934.4643	1036.5	149.85
1020.4044	2935.5645	1031	145.15
1020.5189	2936.6641	1028.65	147.15
1020.6334	2937.763	1028.05	152.35
1020.7478	2938.8613	1025.3	145.95
1020.8622	2939.959	1029.55	147.8
1020.9765	2941.056	1020.9	146.15
1021.0908	2942.1523	1019	138.8
1021.2051	2943.248	1010.4	130.25
1021.3193	2944.3431	1003.45	125.1
1021.4334	2945.4375	997.5	119.5
1021.5476	2946.5313	990.15	113.45
1021.6617	2947.6244	984.05	106.3
1021.7757	2948.7169	979.85	98.85
1021.8897	2949.8087	973.3	95.05
1022.0037	2950.8999	967.8	87.6
1022.1176	2951.9904	965.5	87.45
1022.2315	2953.0803	963	83.8
1022.3453	2954.1696	961.35	83.65
1022.4591	2955.2582	951.55	73.25
1022.5728	2956.3462	953.65	75.35
1022.6865	2957.4335	955.2	76.2
1022.8002	2958.5202	955.25	75.55
1022.9138	2959.6062	949.05	71.05
1023.0274	2960.6916	953.05	74.9
1023.141	2961.7764	947.75	68.05
1023.2545	2962.8605	952.35	71.7
1023.3679	2963.9439	950.95	73.05
1023.4813	2965.0267	950.8	71.65
1023.5947	2966.1089	972.65	69.6
1023.708	2967.1905	950.95	72.45
1023.8213	2968.2714	948.7	69.5
1023.9346	2969.3516	946.8	69.3
1024.0478	2970.4312	957.1	69.95
1024.1609	2971.5102	949.45	72.1
1024.274	2972.5885	943.1	65.25
1024.3871	2973.6662	953.75	71.3
1024.5002	2974.7432	947.2	71.2
1024.6132	2975.8196	949.65	72
1024.7261	2976.8954	944.3	68.45
1024.839	2977.9705	949.6	70.95
1024.9519	2979.045	947.6	71.35
1025.0647	2980.1188	946.1	69.75
1025.1775	2981.192	948.6	75.05
1025.2902	2982.2645	947.95	69.55
1025.4029	2983.3364	945.4	66.45
1025.5156	2984.4077	943.7	66.3
1025.6282	2985.4783	945.35	59.25
1025.7407	2986.5483	940	62.85
1025.8532	2987.6177	938.85	61
1025.9657	2988.6864	937.65	59.25
1026.0782	2989.7545	934.65	56.85
1026.1906	2990.8219	928.7	52.45
1026.3029	2991.8887	931.3	50.9
1026.4152	2992.9548	927.55	49.15
1026.5275	2994.0204	922.55	42.95
1026.6397	2995.0852	923.75	45.5
1026.7519	2996.1495	920.8	37.55
1026.864	2997.2131	917.75	41.05
1026.9761	2998.276	915.6	34.95
1027.0882	2999.3383	913.75	33.85
1027.2002	3000.4	914.05	35.4
1027.3122	3001.4611	911.55	34.05
1027.4241	3002.5215	910.6	33.9
1027.536	3003.5812	908.4	32.3
1027.6478	3004.6404	908.1	29.85
1027.7596	3005.6989	910.25	31
1027.8714	3006.7567	905.1	26.6
1027.9831	3007.8139	939.6	31.2
1028.0947	3008.8705	905.4	28
1028.2064	3009.9264	906.6	25.65
1028.3179	3010.9818	902.65	23.2
1028.4295	3012.0364	901.85	23.1
1028.541	3013.0905	904	25.05
1028.6524	3014.1439	902.45	26.15
1028.7638	3015.1966	900.15	21.75
1028.8752	3016.2487	904.9	27.25
1028.9865	3017.3002	906.65	26.75
1029.0978	3018.3511	900.85	23.9
1029.209	3019.4013	901.15	23.35
1029.3202	3020.4509	900.75	23.2
1029.4314	3021.4998	901.6	23.1
1029.5425	3022.5481	901.35	23.85
1029.6535	3023.5958	897.75	19.7
1029.7645	3024.6428	900.85	20.65
1029.8755	3025.6892	902.2	25.5
1029.9864	3026.735	902.35	24.55
1030.0973	3027.7802	899.35	21.1
1030.2082	3028.8247	901.35	23.35
1030.319	3029.8685	900.3	22.8
1030.4297	3030.9118	898.2	20.55
1030.5404	3031.9544	897.5	21
1030.6511	3032.9963	899.35	22
1030.7617	3034.0376	899.8	22.65
1030.8723	3035.0783	905	25.65
1030.9829	3036.1184	901.85	21.35
1031.0934	3037.1578	898.35	20.95
1031.2038	3038.1966	902.7	21.6
1031.3142	3039.2348	898.95	23.35
1031.4246	3040.2723	909.5	24.05
1031.5349	3041.3092	897.3	22.65
1031.6452	3042.3455	899.15	21
1031.7554	3043.3811	898.25	20.55
1031.8656	3044.4161	899.55	21.4
1031.9758	3045.4505	897.95	21
1032.0859	3046.4842	899.35	22.4
1032.1959	3047.5173	900.4	24.8
1032.3059	3048.5498	900.05	21.5
1032.4159	3049.5816	901.15	24.2
1032.5258	3050.6128	900.5	21.85
1032.6357	3051.6434	899.65	19.9
1032.7455	3052.6734	902.4	23.75
1032.8553	3053.7027	900.05	23.8
1032.9651	3054.7314	899.6	22.9
1033.0748	3055.7594	900.6	26.8
1033.1845	3056.7868	901.65	24.7
1033.2941	3057.8136	901.45	23.3
1033.4037	3058.8398	898.25	21.4
1033.5132	3059.8653	901	22.7
1033.6227	3060.8902	900.25	24.45
1033.7321	3061.9145	902.15	23.45
1033.8415	3062.9381	902.2	23.45
1033.9509	3063.9612	917.6	25.05
1034.0602	3064.9835	901.15	21.9
1034.1694	3066.0053	904.75	25.75
1034.2787	3067.0264	899.6	22.55
1034.3878	3068.0469	899.85	18.8
1034.497	3069.0668	905.2	25.2
1034.6061	3070.086	898.55	21.1
1034.7151	3071.1046	901.1	24.5
1034.8241	3072.1226	901.35	22.45
1034.9331	3073.1399	901.4	24.75
1035.042	3074.1567	899.7	21.9
1035.1508	3075.1727	901	19.75
1035.2597	3076.1882	897.6	19.85
1035.3684	3077.203	900.2	22.75
1035.4772	3078.2173	900.3	20.65
1035.5859	3079.2308	900.5	21.45
1035.6945	3080.2438	899.05	21.3
1035.8031	3081.2561	897.2	21.1
1035.9117	3082.2678	900.5	23.35
1036.0202	3083.2789	893.5	16.6
1036.1286	3084.2893	896.2	20.8
1036.2371	3085.2991	895.4	18.7
1036.3454	3086.3083	900.1	20.3
1036.4538	3087.3169	896.55	16.7
1036.562	3088.3248	896.2	16.35
1036.6703	3089.3321	892.5	14.75
1036.7785	3090.3388	894.65	18.8
1036.8866	3091.3449	893.3	16.8
1036.9948	3092.3503	897.5	17.35
1037.1028	3093.3551	892.4	16.85
1037.2108	3094.3593	891.15	14.75
1037.3188	3095.3629	891.2	14.8
1037.4267	3096.3658	894.2	15.5
1037.5346	3097.3681	891.85	13.95
1037.6425	3098.3698	895.6	17.2
1037.7503	3099.3708	891.15	13.45
1037.858	3100.3713	891.15	14.3
1037.9657	3101.3711	891.3	15.2
1038.0734	3102.3702	1029.75	12.8
1038.181	3103.3688	893.5	13.3
1038.2886	3104.3667	892.5	16.1
1038.3961	3105.364	891.5	14.7
1038.5036	3106.3607	892.8	13.7
1038.611	3107.3568	892.55	14.55
1038.7184	3108.3522	888.5	12.45
1038.8257	3109.347	892.1	16.35
1038.933	3110.3412	893.4	14.6
1039.0403	3111.3348	889.95	13.25
1039.1475	3112.3277	890.35	12.9
1039.2547	3113.32	888.4	11.8
1039.3618	3114.3117	890.6	11.8
1039.4689	3115.3028	889.6	13.35
1039.5759	3116.2932	890	11.45
1039.6829	3117.2831	894.2	10.7
1039.7898	3118.2723	892.3	15.25
1039.8967	3119.2608	889.7	12.25
1040.0035	3120.2488	889.05	11.9
1040.1103	3121.2361	887.95	9.8
1040.2171	3122.2229	887.75	9.25
1040.3238	3123.209	889.9	13.95
1040.4305	3124.1944	888.3	13.5
1040.5371	3125.1793	891.7	14.75
1040.6437	3126.1635	889.65	11.95
1040.7502	3127.1471	886.7	9.85
1040.8567	3128.1301	886.95	10.4
1040.9631	3129.1125	887.25	11.4
1041.0695	3130.0942	888.2	10.65
1041.1759	3131.0753	896.55	11.7
1041.2822	3132.0558	892.05	13.95
1041.3884	3133.0357	889.55	10.85
1041.4946	3134.015	888.15	12.5
1041.6008	3134.9936	888.8	9.35
1041.7069	3135.9716	906.6	9
1041.813	3136.949	887.35	10.9
1041.919	3137.9258	904.85	8.6
1042.025	3138.902	892.1	8.7
1042.1309	3139.8775	886.75	9.4
1042.2368	3140.8524	885.15	6.05
1042.3427	3141.8267	887.6	9.65
1042.4485	3142.8004	887.45	10.35
1042.5542	3143.7735	891.6	8.7
1042.6599	3144.7459	887.3	9.15
1042.7656	3145.7178	887.75	8.6
1042.8712	3146.689	884.75	9.2
1042.9768	3147.6596	886.8	6.45
1043.0823	3148.6295	886.25	7.65
1043.1878	3149.5989	886.5	7.25
1043.2932	3150.5676	883.75	7.4
1043.3986	3151.5357	884.2	8.05
1043.5039	3152.5032	883.95	8.6
1043.6092	3153.4701	884.75	8.55
1043.7145	3154.4364	888.9	9.8
1043.8197	3155.402	885.75	11.1
1043.9248	3156.367	887.8	10.75
1044.03	3157.3315	929.5	6.35
1044.135	3158.2952	888.4	11.9
1044.24	3159.2584	885.8	9
1044.345	3160.221	886.05	7.3
1044.4499	3161.1829	884.25	5.6
1044.5548	3162.1442	884.75	7.95
1044.6596	3163.105	884.3	5.8
1044.7644	3164.065	885.1	7.6
1044.8692	3165.0245	888.4	8.55
1044.9739	3165.9834	883.45	7
1045.0785	3166.9416	883.45	5.65
1045.1831	3167.8993	884.7	7.05
1045.2877	3168.8563	884.75	6.9
1045.3922	3169.8127	884.7	9.1
1045.4966	3170.7684	884.6	9.25
1045.6011	3171.7236	885.5	5.95
1045.7054	3172.6782	884.45	6.5
1045.8098	3173.6321	884.1	6.05
1045.914	3174.5854	887.65	5.75
1046.0183	3175.5381	885	8.45
1046.1224	3176.4902	883.9	6.05
1046.2266	3177.4417	884.1	7.8
1046.3307	3178.3926	883.9	10
1046.4347	3179.3428	881.6	4.85
1046.5387	3180.2924	882.6	7.1
1046.6427	3181.2415	884.85	6.9
1046.7466	3182.1899	886.05	6.85
1046.8504	3183.1377	882.55	6.75
1046.9542	3184.0848	885	4.65
1047.058	3185.0314	884.6	6.25
1047.1617	3185.9773	885.85	8.65
1047.2654	3186.9227	885.85	10.05
1047.369	3187.8674	884.05	6.05
1047.4726	3188.8115	889.55	6.8
1047.5761	3189.755	884.95	10.25
1047.6796	3190.6979	882.15	7.3
1047.783	3191.6402	883.9	10.65
1047.8864	3192.5818	882.1	6.4
1047.9898	3193.5229	897.2	7
1048.0931	3194.4633	884.35	7.35
1048.1963	3195.4031	885.9	8
1048.2995	3196.3423	882.45	5.2
1048.4027	3197.2809	883.95	7.3
1048.5058	3198.2189	883.4	7.85
1048.6089	3199.1563	889.2	6.2
1048.7119	3200.0931	883.2	8.6
1048.8148	3201.0292	880.9	4.6
1048.9178	3201.9648	882.05	4.1
1049.0206	3202.8997	888.45	8
1049.1235	3203.834	884.45	6.15
1049.2262	3204.7677	883.7	6.9
1049.329	3205.7008	883.15	4.3
1049.4317	3206.6333	881.5	4.8
1049.5343	3207.5652	882.35	3.1
1049.6369	3208.4964	883.95	6.4
1049.7394	3209.4271	881.35	5.95
1049.8419	3210.3571	883.15	5.55
1049.9444	3211.2865	882.1	4.15
1050.0468	3212.2154	883.2	7.6
1050.1491	3213.1436	885.65	4.8
1050.2514	3214.0712	890.85	9.9
1050.3537	3214.9982	882.45	4.65
1050.4559	3215.9246	883.5	6.75
1050.5581	3216.8503	881.1	6.9
1050.6602	3217.7755	883.05	6.4
1050.7623	3218.7001	883.5	6.6
1050.8643	3219.624	882.25	6.25
1050.9663	3220.5473	882.2	5.55
1051.0682	3221.4701	883.25	8.05
1051.1701	3222.3922	884.35	5.45
1051.2719	3223.3137	881.55	5.8
1051.3737	3224.2346	882.55	4.35
1051.4754	3225.1549	880.6	5
1051.5771	3226.0746	884.55	9.9
1051.6788	3226.9937	883.95	6.65
1051.7804	3227.9121	880.25	3.4
1051.8819	3228.83	884.4	7.3
1051.9834	3229.7473	881.6	5.9
1052.0849	3230.6639	882.45	6.85
1052.1863	3231.5799	880.8	3.9
1052.2876	3232.4954	882.1	3.75
1052.3889	3233.4102	880.45	4.4
1052.4902	3234.3244	881.2	2.3
1052.5914	3235.238	882.5	6.9
1052.6926	3236.151	906.65	6.25
1052.7937	3237.0634	880.85	6.4
1052.8948	3237.9752	881.15	4.95
1052.9958	3238.8864	881.4	4.65
1053.0968	3239.797	881.05	4.7
1053.1977	3240.7069	883.95	6.3
1053.2986	3241.6163	881.05	-0.5
1053.3994	3242.5251	882.3	7.3
1053.5002	3243.4332	879.9	3.75
1053.6009	3244.3408	883.7	7.2
1053.7016	3245.2477	883.25	7.8
1053.8022	3246.154	882.65	5.65
1053.9028	3247.0598	880.8	1.8
1054.0034	3247.9649	881.45	4.65
1054.1039	3248.8694	881.1	4.7
1054.2043	3249.7733	880.35	3.65
1054.3047	3250.6766	882.05	3.5
1054.4051	3251.5793	882.7	5.1
1054.5054	3252.4814	879.8	3.1
1054.6056	3253.3829	879.15	3.45
1054.7058	3254.2838	881.35	5.55
1054.806	3255.1841	879.35	3.2
1054.9061	3256.0838	880.25	3.95
1055.0061	3256.9829	879	2.75
1055.1062	3257.8814	884.9	6.95
1055.2061	3258.7792	883.6	3.65
1055.306	3259.6765	883.1	5.8
1055.4059	3260.5731	879.8	3.25
1055.5057	3261.4692	881.55	4.3
1055.6055	3262.3647	880.95	3.15
1055.7052	3263.2595	880.2	4.35
1055.8049	3264.1538	877.45	-0.85
1055.9045	3265.0474	880.1	2.45
1056.0041	3265.9404	878.75	4.7
1056.1036	3266.8329	879.25	2.85
1056.2031	3267.7247	891.95	4.75
1056.3025	3268.616	878.3	1.55
1056.4019	3269.5066	881.65	6.25
1056.5013	3270.3966	882.2	2.2
1056.6005	3271.286	878.95	3.8
