Software Version:	3.9.2.0
Unit SN:	10000200
Spectrometer SN:	6960
Date:	3/8/2024 1:30:26 PM
Data Line Index:	25
Spectral Points:	2048
Integration time (ms):	125
Averages:	20
Delay (ms):	30000
Sequence Number:	1
Processing:	dark subtract
Laser Power (mW):	300
Laser Current (mA):	822
Laser Diode Temp (C):	25
Laser Case Temp (C):	26.3
System Temp (C):	26.3
Spectrometer Temp (C):	24.2
CCD Temp (C):	0.005
Secondary Temp (C):	20.008
Heatsink Temp (C):	20.833
CCDPCB Temp (C):	35.651
SecondaryPCB Temp (C):	30.793

Wavelength	RamanShift	Raw Counts	Dark Subtracted
787.061	30.1047	452.35	44.2
787.2016	32.3739	450.75	41.45
787.3422	34.6426	455.35	45.5
787.4828	36.9109	464.35	54.65
787.6235	39.1787	469.45	56.1
787.7642	41.4461	480.15	63.85
787.9049	43.7131	487.45	65.25
788.0456	45.9796	495.25	69.6
788.1863	48.2456	504.45	77.65
788.3271	50.5112	515.45	82.55
788.4679	52.7764	521.8	87.95
788.6087	55.0411	532.25	92.8
788.7496	57.3054	540.7	94.6
788.8904	59.5692	552.05	105
789.0313	61.8326	561.65	113
789.1722	64.0955	572.5	120.25
789.3132	66.3579	587.45	130.1
789.4541	68.6199	605.15	142.15
789.5951	70.8815	637.2	168.9
789.7361	73.1426	713.65	241.4
789.8771	75.4032	904.25	430.15
790.0181	77.6634	1377.75	896.7
790.1592	79.9231	2497.7	2010.6
790.3003	82.1824	4895.6	4390.6
790.4414	84.4412	9219.85	8683.05
790.5825	86.6995	15182	14607.5
790.7237	88.9574	20964.3	20351.75
790.8648	91.2148	24993.45	24353.75
791.006	93.4717	26852.4	26202.85
791.1472	95.7282	27167.05	26505.9
791.2885	97.9842	26978.85	26315.65
791.4297	100.2398	26384.85	25721.45
791.571	102.4949	25698.2	25030.75
791.7123	104.7495	24894.8	24228.45
791.8536	107.0036	24070.1	23398.85
791.9949	109.2573	23288.85	22622.3
792.1363	111.5105	22502.9	21828.9
792.2777	113.7632	21807.25	21133.85
792.4191	116.0154	21165.35	20477.3
792.5605	118.2672	20717.9	20041.75
792.7019	120.5185	20243.45	19557.35
792.8434	122.7693	19876.9	19192.85
792.9849	125.0197	19582.55	18893.3
793.1264	127.2696	19285.35	18592.9
793.2679	129.519	19114.9	18416.65
793.4094	131.7679	18866.7	18165.9
793.551	134.0163	18665.1	17965.35
793.6926	136.2642	18421.75	17716.2
793.8342	138.5117	18183	17473.35
793.9758	140.7587	17899.75	17193.75
794.1175	143.0052	17657.35	16945.1
794.2591	145.2512	17371.15	16660.2
794.4008	147.4967	17135.25	16423.05
794.5425	149.7417	16944.35	16231.75
794.6842	151.9863	16797.95	16076.3
794.826	154.2304	16752.65	16027.25
794.9677	156.4739	16601.6	15870.2
795.1095	158.717	16517.55	15784.65
795.2513	160.9596	16367.9	15629.9
795.3931	163.2017	16121.25	15385.95
795.535	165.4433	15784	15044.7
795.6768	167.6844	15447.5	14701.7
795.8187	169.925	15150.9	14409.55
795.9606	172.1651	14770.4	14025.05
796.1025	174.4047	14494.55	13745.7
796.2445	176.6439	14224.35	13477.65
796.3864	178.8825	14011.55	13255.9
796.5284	181.1206	13820.85	13061
796.6704	183.3582	13682.05	12920.85
796.8124	185.5954	13561.95	12799.4
796.9544	187.832	13462.9	12694.8
797.0965	190.0681	13401.2	12630.3
797.2386	192.3037	13425.3	12650.2
797.3806	194.5388	13387.45	12613.2
797.5228	196.7734	13438.7	12660.3
797.6649	199.0075	13486.6	12706
797.807	201.2411	13616.1	12833.6
797.9492	203.4742	13691.3	12908.8
798.0914	205.7068	13822.2	13037.2
798.2336	207.9389	13927.45	13135.35
798.3758	210.1704	14049.75	13265.15
798.518	212.4015	14211.7	13441
798.6603	214.632	14349.6	13585.95
798.8025	216.862	14524.5	13762.85
798.9448	219.0915	14675.2	13906.15
799.0871	221.3205	14832.8	14060.3
799.2294	223.549	15053.4	14288.5
799.3718	225.777	15289.45	14521.8
799.5141	228.0044	15610.45	14836.35
799.6565	230.2314	15982.25	15207.35
799.7989	232.4578	16386.75	15610.2
799.9413	234.6837	16678.6	15898.15
800.0837	236.909	16844.8	16061.85
800.2262	239.1339	16876.85	16064.75
800.3687	241.3582	16654.7	15858.75
800.5111	243.582	16402.3	15575.25
800.6536	245.8053	16114.9	15300.3
800.7961	248.0281	15797.15	14988.15
800.9387	250.2503	15623.65	14811.7
801.0812	252.472	15490.95	14676.55
801.2238	254.6932	15486.15	14674.45
801.3664	256.9139	15432.4	14617.3
801.509	259.134	15496.25	14676.35
801.6516	261.3536	15523.3	14709.4
801.7942	263.5727	15663.15	14841.9
801.9369	265.7912	15686.45	14863.9
802.0795	268.0092	15728.1	14909.25
802.2222	270.2267	15742.4	14922.2
802.3649	272.4436	15722.65	14901.7
802.5076	274.6601	15688.75	14859.45
802.6504	276.8759	15609	14782.55
802.7931	279.0913	15535.5	14708.35
802.9359	281.3061	15478.85	14650.25
803.0787	283.5204	15498.75	14664.25
803.2215	285.7341	15547.65	14708.45
803.3643	287.9473	15659.35	14812.4
803.5071	290.16	15850.9	15011.25
803.6499	292.3721	16132	15299.2
803.7928	294.5837	16512.45	15677.15
803.9357	296.7947	16807.7	15973.3
804.0786	299.0052	17037.8	16204.1
804.2215	301.2152	16929.55	16092.5
804.3644	303.4246	16595.15	15760.2
804.5074	305.6334	16114.15	15281.05
804.6503	307.8418	15593.25	14756.35
804.7933	310.0495	15133.55	14295.75
804.9363	312.2568	14832.6	13993.05
805.0793	314.4635	14559.7	13715.6
805.2223	316.6696	14419.3	13573.1
805.3653	318.8752	14342.65	13490.25
805.5084	321.0802	14377.05	13533.35
805.6514	323.2847	14458.35	13607.1
805.7945	325.4887	14503.8	13652.25
805.9376	327.692	14449.8	13599.8
806.0807	329.8949	14376.25	13525.25
806.2238	332.0972	14120.3	13264.8
806.367	334.2989	13825.95	12967.4
806.5101	336.5001	13555.85	12699.9
806.6533	338.7007	13326.7	12469.65
806.7965	340.9008	13208.6	12349.05
806.9397	343.1003	13112.7	12256.95
807.0829	345.2992	13026.2	12167.3
807.2261	347.4976	12964.65	12104.05
807.3693	349.6955	12945.4	12074.95
807.5126	351.8927	13029.45	12160.5
807.6559	354.0895	12983.25	12105.4
807.7991	356.2856	12981.8	12112.25
807.9424	358.4812	12975.05	12106.35
808.0857	360.6763	13020.05	12147.55
808.2291	362.8707	12980.7	12108.5
808.3724	365.0646	13009.65	12138.85
808.5158	367.258	13021.75	12148
808.6591	369.4508	13050.9	12171.2
808.8025	371.643	13172.9	12295.5
808.9459	373.8346	13183.9	12302.6
809.0893	376.0257	13191.6	12308.2
809.2327	378.2162	13113.95	12233.4
809.3762	380.4062	13039.15	12157.75
809.5196	382.5956	12874.55	11991.65
809.6631	384.7844	12750.35	11877
809.8066	386.9726	12658.7	11785.95
809.9501	389.1603	12586.25	11718.25
810.0936	391.3474	12544.3	11641.6
810.2371	393.5339	12568.05	11687.85
810.3806	395.7199	12507	11633.65
810.5241	397.9052	12521.75	11648.95
810.6677	400.09	12556.95	11685.05
810.8113	402.2743	12659.65	11785.2
810.9548	404.4579	12705.5	11828.95
811.0984	406.641	12887.7	12010.75
811.2421	408.8235	13098.05	12219.6
811.3857	411.0054	13362.45	12483.4
811.5293	413.1868	13747.25	12865.05
811.673	415.3675	14022.45	13134.15
811.8166	417.5477	14189.55	13303.15
811.9603	419.7273	14219.65	13330.8
812.104	421.9064	14116.4	13223.05
812.2477	424.0848	14007.65	13117.2
812.3914	426.2627	13799.95	12910.05
812.5351	428.4399	13543.55	12657.6
812.6788	430.6166	13196.95	12301.9
812.8226	432.7928	12824.95	11929.3
812.9663	434.9683	12506.4	11613.5
813.1101	437.1432	12251.7	11362
813.2539	439.3176	12092.2	11208.9
813.3977	441.4914	11969.95	11089.5
813.5415	443.6645	11960.4	11073.8
813.6853	445.8371	11906.75	11016.4
813.8291	448.0091	11872.4	10982.3
813.973	450.1806	11838.7	10949.95
814.1168	452.3514	11801.4	10916.6
814.2607	454.5216	11822	10922.15
814.4046	456.6913	11763	10872.85
814.5485	458.8603	11798.45	10910.55
814.6924	461.0288	11890.8	11006.75
814.8363	463.1967	11866.85	10988.6
814.9802	465.3639	11940.3	11055.05
815.1241	467.5306	12016.8	11128.05
815.2681	469.6967	12139.7	11255.8
815.412	471.8622	12260.95	11378.7
815.556	474.0271	12384.55	11499.75
815.7	476.1914	12449.1	11555.65
815.844	478.3551	12452.55	11559.95
815.988	480.5182	12433.8	11548.3
816.132	482.6807	12460.45	11582.45
816.276	484.8426	12574.55	11701.35
816.4201	487.0039	12858.75	11979.85
816.5641	489.1647	13250.65	12360.65
816.7082	491.3248	13657.25	12767.05
816.8522	493.4843	13824.2	12937.7
816.9963	495.6432	13801.95	12916.3
817.1404	497.8015	13699.3	12798.8
817.2845	499.9592	13684.25	12782.65
817.4286	502.1163	13590.85	12689.65
817.5727	504.2728	13345.45	12454.75
817.7168	506.4287	13024.35	12141.7
817.861	508.5839	12614.6	11729.9
818.0051	510.7386	12333.7	11442.6
818.1493	512.8927	12153.4	11253.8
818.2935	515.0461	12080.85	11182.75
818.4377	517.199	12029.9	11124.8
818.5818	519.3512	12066.7	11162.05
818.726	521.5029	12208.85	11301.45
818.8703	523.6539	12297.25	11395.55
819.0145	525.8043	12362.15	11457.95
819.1587	527.9541	12377.65	11475
819.303	530.1033	12337.5	11435.6
819.4472	532.2519	12311.8	11410
819.5915	534.3999	12375.35	11469.7
819.7357	536.5472	12612.8	11706.35
819.88	538.694	13002	12102.45
820.0243	540.8401	13530.6	12627.45
820.1686	542.9856	13971	13060.25
820.3129	545.1305	14117.5	13193.8
820.4572	547.2748	13975.7	13054.95
820.6016	549.4185	13650.1	12728.45
820.7459	551.5615	13331.5	12412.9
820.8902	553.704	13227.3	12309.35
821.0346	555.8458	13182.95	12271.6
821.1789	557.987	13278.7	12365.65
821.3233	560.1276	13300.2	12388.3
821.4677	562.2675	13396.2	12483.1
821.6121	564.4069	13528.15	12615.3
821.7565	566.5456	13644	12733.2
821.9009	568.6837	13600.95	12693.5
822.0453	570.8212	13294.8	12386.95
822.1897	572.958	12916.2	12005.9
822.3342	575.0942	12538.5	11628.5
822.4786	577.2299	12289.1	11385.45
822.6231	579.3648	12184.6	11292.2
822.7675	581.4992	12265.9	11382.55
822.912	583.6329	12425.15	11545.95
823.0565	585.766	12615.5	11727.6
823.201	587.8985	12800.85	11903.35
823.3454	590.0304	12840.9	11911.1
823.4899	592.1616	12747.85	11829.05
823.6345	594.2922	12630.5	11711.95
823.779	596.4222	12482.35	11562.1
823.9235	598.5515	12293.05	11371.85
824.068	600.6802	12131.05	11211.15
824.2126	602.8083	11958.1	11043.6
824.3571	604.9358	11913.35	10999.15
824.5017	607.0626	11866.3	10948.55
824.6462	609.1888	11845.85	10921.45
824.7908	611.3144	11859.85	10934.5
824.9354	613.4393	11797.1	10871.85
825.08	615.5636	11752.15	10823.35
825.2246	617.6873	11673.25	10754.55
825.3692	619.8103	11604.25	10677.95
825.5138	621.9327	11515.8	10595
825.6584	624.0544	11412.8	10496.95
825.803	626.1756	11345.4	10427.25
825.9477	628.2961	11314.75	10392.55
826.0923	630.4159	11235.3	10309.6
826.237	632.5351	11225.4	10301.4
826.3816	634.6537	11200.65	10269.8
826.5263	636.7716	11164.65	10235.45
826.6709	638.8889	11150	10220
826.8156	641.0056	11162.2	10229.9
826.9603	643.1216	11147.95	10214.25
827.105	645.237	11186.25	10256.9
827.2497	647.3518	11111.65	10192.65
827.3944	649.4659	11121.75	10205.5
827.5391	651.5793	11083.4	10167.1
827.6838	653.6922	11088.6	10169.15
827.8285	655.8043	11078.4	10158.3
827.9733	657.9159	11078	10153.8
828.118	660.0268	11030.5	10105.1
828.2627	662.137	10967.65	10041.8
828.4075	664.2466	10952	10022.05
828.5522	666.3556	10938.25	10011.45
828.697	668.4639	10927.2	10000
828.8418	670.5716	10931.05	10010.35
828.9865	672.6786	10993.25	10067.75
829.1313	674.785	11044.45	10114.5
829.2761	676.8907	11082.15	10155.8
829.4209	678.9958	11162.1	10238.65
829.5657	681.1002	11117.4	10186.7
829.7105	683.204	11098.35	10160.45
829.8553	685.3072	11080.2	10145.95
830.0001	687.4097	10984.85	10054.05
830.1449	689.5115	10982.85	10048.3
830.2898	691.6127	10944.5	10015.95
830.4346	693.7132	10872.05	9944.9
830.5794	695.8131	10856.1	9920.8
830.7243	697.9123	10846.05	9912.45
830.8691	700.0109	10833.1	9895.95
831.014	702.1089	10819.95	9884.4
831.1588	704.2061	10826	9888.9
831.3037	706.3028	10845.65	9907.05
831.4486	708.3987	10907.4	9974.6
831.5935	710.4941	10981.25	10049.3
831.7383	712.5887	11113.6	10181.2
831.8832	714.6827	11363.95	10428.3
832.0281	716.7761	11670.85	10743.05
832.173	718.8688	11988.6	11055.15
832.3179	720.9608	12167.5	11226.25
832.4628	723.0522	12237.6	11294.9
832.6077	725.1429	12114.9	11176.7
832.7527	727.233	11926.45	10988.25
832.8976	729.3224	11720.75	10778.9
833.0425	731.4112	11492.6	10556
833.1874	733.4993	11323.55	10385.4
833.3324	735.5867	11156.7	10220
833.4773	737.6735	11018	10081.2
833.6222	739.7596	10949.45	10008.75
833.7672	741.845	10850.9	9915.95
833.9122	743.9298	10811.35	9873.25
834.0571	746.014	10838.1	9902.25
834.2021	748.0974	10859.45	9917.4
834.347	750.1802	10848.8	9904.05
834.492	752.2624	10832.4	9888.95
834.637	754.3439	10893.9	9950.65
834.782	756.4247	10992.95	10039.4
834.9269	758.5048	11088.65	10142.7
835.0719	760.5843	11338.35	10398.85
835.2169	762.6631	11693.95	10748.35
835.3619	764.7413	12162.3	11221.95
835.5069	766.8188	12785.15	11844
835.6519	768.8956	13303.85	12362.3
835.7969	770.9718	13578.85	12635.95
835.9419	773.0473	13459.6	12516.35
836.0869	775.1221	13147.8	12207.6
836.232	777.1962	12787.2	11846.75
836.377	779.2697	12617.85	11672.6
836.522	781.3426	12679.75	11722.55
836.667	783.4147	12859.85	11914.2
836.8121	785.4862	13142.65	12198.3
836.9571	787.557	13143.65	12198.65
837.1021	789.6271	12792.8	11845.65
837.2472	791.6966	12202.15	11253.2
837.3922	793.7654	11654.15	10708
837.5373	795.8335	11295.85	10346.6
837.6823	797.901	11072.1	10129.2
837.8274	799.9678	10986.65	10039.05
837.9724	802.0339	10971.85	10024.3
838.1175	804.0993	11031.95	10076.05
838.2626	806.1641	10994.95	10042.75
838.4076	808.2282	10920.9	9975.7
838.5527	810.2916	10859.7	9912.75
838.6978	812.3544	10778.4	9835.4
838.8428	814.4164	10702.95	9756.8
838.9879	816.4778	10702.8	9751.9
839.133	818.5385	10710.65	9760.45
839.2781	820.5986	10798.7	9849.05
839.4232	822.658	10947.45	10000.55
839.5682	824.7166	11088.3	10143.45
839.7133	826.7747	11388.3	10434.85
839.8584	828.832	11701.05	10750.7
840.0035	830.8886	11888.1	10933.45
840.1486	832.9446	12013.75	11061.45
840.2937	834.9999	12016.2	11066.25
840.4388	837.0545	11940.7	10987.05
840.5839	839.1085	11818.2	10868.9
840.729	841.1618	11741.8	10784.85
840.8741	843.2143	11666.25	10716.3
841.0192	845.2662	11564.4	10610.55
841.1643	847.3175	11500.9	10549.5
841.3095	849.368	11394.4	10445.5
841.4546	851.4179	11267.2	10316.4
841.5997	853.467	11126.75	10176.2
841.7448	855.5155	11040.95	10090.85
841.8899	857.5633	10940.6	9989.3
842.0351	859.6105	10873	9919.75
842.1802	861.6569	10809.05	9856.05
842.3253	863.7027	10741.9	9786.3
842.4704	865.7478	10723.6	9765.85
842.6156	867.7922	10736.3	9782.7
842.7607	869.8359	10735.9	9780.45
842.9058	871.8789	10826.6	9871.8
843.0509	873.9212	10994.25	10008.6
843.1961	875.9629	11104.15	10148.7
843.3412	878.0039	11285.8	10331.95
843.4863	880.0441	11391.85	10439.95
843.6315	882.0837	11385.85	10432.2
843.7766	884.1226	11326.8	10370.15
843.9218	886.1609	11259.8	10308.2
844.0669	888.1984	11196.15	10243.05
844.212	890.2352	11196.4	10244.1
844.3572	892.2714	11218	10264.7
844.5023	894.3069	11184.55	10230.25
844.6475	896.3416	11106.75	10155.65
844.7926	898.3757	11051.35	10095.85
844.9377	900.4091	11025.45	10068.35
845.0829	902.4418	11033.4	10071.45
845.228	904.4739	11079.8	10116.6
845.3732	906.5052	11059.9	10100.85
845.5183	908.5358	10967	10009.05
845.6635	910.5658	10856.25	9896.85
845.8086	912.595	10640.45	9682.85
845.9538	914.6236	10483.85	9528
846.0989	916.6515	10437.15	9479.05
846.2441	918.6786	10397.8	9437.25
846.3892	920.7051	10412.1	9453.25
846.5344	922.7309	10522.6	9565.1
846.6795	924.756	10608.2	9653.55
846.8246	926.7804	10701.55	9743.75
846.9698	928.8041	10695.75	9734.6
847.1149	930.8272	10708.5	9749.95
847.2601	932.8495	10682	9724.35
847.4052	934.8711	10626.35	9667.4
847.5504	936.892	10531.6	9572.5
847.6955	938.9123	10406.1	9447.55
847.8407	940.9318	10301.45	9349.85
847.9858	942.9506	10233.15	9276.3
848.131	944.9688	10163.95	9205.6
848.2761	946.9862	10092.4	9139.55
848.4213	949.003	9995.2	9035.1
848.5664	951.019	9982.35	9024.2
848.7115	953.0344	9992.45	9037.9
848.8567	955.0491	10020.6	9063.4
849.0018	957.063	10081.8	9124.1
849.147	959.0763	10181.15	9226.95
849.2921	961.0888	10245.6	9287.7
849.4373	963.1007	10300.35	9348.1
849.5824	965.1119	10357.8	9417.25
849.7275	967.1223	10369.25	9431.9
849.8727	969.1321	10388.75	9448.3
850.0178	971.1412	10416.1	9467.75
850.1629	973.1495	10405.55	9453.75
850.3081	975.1572	10473.5	9472.7
850.4532	977.1641	10486.6	9527.8
850.5983	979.1704	10446.5	9488.15
850.7435	981.1759	10445.35	9484.75
850.8886	983.1808	10505.4	9544.5
851.0337	985.1849	10581.65	9612.9
851.1788	987.1884	10718.2	9761.2
851.324	989.1911	10861.35	9905.95
851.4691	991.1932	10987.45	10033.3
851.6142	993.1945	11026.35	10069.1
851.7593	995.1951	10999.15	10045.15
851.9045	997.1951	10987.65	10022.75
852.0496	999.1943	10905.6	9946.3
852.1947	1001.1928	10856.9	9899.3
852.3398	1003.1906	10878.85	9922
852.4849	1005.1877	10974.5	10019.4
852.63	1007.1841	10968.45	10008.65
852.7751	1009.1798	10931.4	9973.65
852.9202	1011.1748	10779.3	9823.3
853.0653	1013.1691	10597.9	9644.25
853.2104	1015.1627	10397.25	9441
853.3555	1017.1556	10198.4	9246.5
853.5006	1019.1477	10110.35	9158.1
853.6457	1021.1392	9998.9	9050.9
853.7908	1023.1299	9981.75	9037
853.9359	1025.12	10014.75	9076.75
854.081	1027.1093	10092.85	9166.7
854.2261	1029.0979	10176.6	9249
854.3712	1031.0859	10251.65	9319.75
854.5163	1033.0731	10266.05	9324.15
854.6613	1035.0596	10205.05	9258.4
854.8064	1037.0454	10064.8	9114.6
854.9515	1039.0304	9974.4	9019.4
855.0965	1041.0148	9851.95	8901.65
855.2416	1042.9985	9773.2	8819.55
855.3867	1044.9814	9731.5	8780.6
855.5317	1046.9636	9679.3	8725.45
855.6768	1048.9452	9668.9	8719.35
855.8219	1050.926	9700.5	8747.65
855.9669	1052.9061	9690.9	8739.85
856.112	1054.8855	9710.6	8757.35
856.257	1056.8642	9746.9	8792
856.4021	1058.8421	9803.3	8846.95
856.5471	1060.8194	9838.15	8882.55
856.6921	1062.7959	9885.25	8928.55
856.8372	1064.7717	9924.55	8966.5
856.9822	1066.7469	9974.1	9019.55
857.1272	1068.7213	9989.9	9035.25
857.2723	1070.695	9986.35	9033.15
857.4173	1072.6679	9956.8	9003
857.5623	1074.6402	9912.9	8957.1
857.7073	1076.6117	9892.1	8931.05
857.8523	1078.5826	9839.7	8885.65
857.9973	1080.5527	9849.9	8894.8
858.1423	1082.5221	9889.1	8936.45
858.2873	1084.4908	10017.95	9065.35
858.4323	1086.4587	10185.4	9230.95
858.5773	1088.426	10300.15	9343.6
858.7223	1090.3925	10323.1	9364.4
858.8673	1092.3584	10293.05	9340.65
859.0123	1094.3235	10192	9240.55
859.1573	1096.2879	10148.9	9198.4
859.3022	1098.2515	10177.1	9223.1
859.4472	1100.2145	10277.8	9325.3
859.5922	1102.1767	10406.95	9453.7
859.7371	1104.1382	10559.75	9607.75
859.8821	1106.099	10798.35	9843
860.027	1108.0591	11012.6	10060.65
860.172	1110.0185	11158.4	10204.05
860.3169	1111.9771	11200.6	10246.85
860.4619	1113.9351	11020.75	10067.55
860.6068	1115.8923	10746.55	9797.35
860.7517	1117.8488	10513.6	9559.4
860.8967	1119.8045	10284.6	9333.05
861.0416	1121.7596	10167.4	9217.85
861.1865	1123.7139	10077.5	9127.65
861.3314	1125.6675	10085.05	9133.6
861.4763	1127.6204	10120.25	9171.1
861.6212	1129.5726	10104.25	9155.2
861.7661	1131.524	10090.5	9135.55
861.911	1133.4748	10043.35	9091.55
862.0559	1135.4248	9994.8	9039.55
862.2008	1137.3741	9920.4	8969.75
862.3457	1139.3226	9873.7	8919.55
862.4905	1141.2705	9797.5	8842.85
862.6354	1143.2176	9723.45	8767.05
862.7803	1145.164	9721.6	8767.75
862.9251	1147.1097	9731.7	8778.2
863.07	1149.0546	9690.35	8735.1
863.2148	1150.9989	9613.7	8660.75
863.3597	1152.9424	9489.3	8534.85
863.5045	1154.8852	9346.65	8391.25
863.6493	1156.8272	9282.05	8330.25
863.7942	1158.7686	9220.7	8262.55
863.939	1160.7092	9201.7	8248.65
864.0838	1162.6491	9196.3	8242.35
864.2286	1164.5883	9302.4	8351.9
864.3734	1166.5267	9383.15	8429.75
864.5182	1168.4644	9521.55	8571.55
864.663	1170.4014	9733.9	8784.85
864.8078	1172.3377	9970.85	9022.7
864.9526	1174.2732	10204.75	9257.7
865.0974	1176.2081	10502.15	9548.7
865.2421	1178.1421	10800.85	9849.05
865.3869	1180.0755	11090.65	10140.85
865.5317	1182.0082	11275.75	10327.55
865.6764	1183.9401	11319.15	10370.3
865.8212	1185.8713	11177.4	10233.1
865.9659	1187.8017	10924.55	9990.15
866.1106	1189.7315	10660	9733.3
866.2554	1191.6605	10342.55	9416.75
866.4001	1193.5888	10140.5	9209.35
866.5448	1195.5163	10033.85	9089.35
866.6895	1197.4432	9958.6	9008.65
866.8342	1199.3693	9915.95	8973.8
866.9789	1201.2947	9883.8	8936.4
867.1236	1203.2193	9875.75	8927
867.2683	1205.1432	9877.75	8927.2
867.413	1207.0664	9895.6	8949.35
867.5576	1208.9889	9927.85	8974.75
867.7023	1210.9106	9939.4	8991.55
867.847	1212.8316	10003	9054.55
867.9916	1214.7519	10063.95	9108.65
868.1363	1216.6715	10064.25	9115.95
868.2809	1218.5903	10078.2	9133.9
868.4255	1220.5084	10113.35	9166.05
868.5701	1222.4257	10126.2	9181
868.7148	1224.3424	10121.6	9177.75
868.8594	1226.2583	10175.85	9228.9
869.004	1228.1735	10287.8	9342.5
869.1486	1230.0879	10375.9	9429.5
869.2932	1232.0016	10518.35	9573.55
869.4377	1233.9146	10561.2	9610.7
869.5823	1235.8269	10486.3	9537.9
869.7269	1237.7384	10394.9	9448.95
869.8715	1239.6492	10228.45	9282.15
870.016	1241.5592	10146.3	9200.55
870.1606	1243.4686	10086.95	9141.45
870.3051	1245.3772	10111.3	9166.9
870.4496	1247.285	10140.65	9195.05
870.5941	1249.1922	10156.1	9208.4
870.7387	1251.0986	10184.3	9240.1
870.8832	1253.0042	10188.1	9243.4
871.0277	1254.9092	10250	9307.15
871.1722	1256.8134	10329.55	9387.8
871.3167	1258.7169	10471.4	9527.25
871.4611	1260.6196	10647.05	9703.95
871.6056	1262.5216	10872.5	9927.45
871.7501	1264.4229	11057.3	10113.1
871.8945	1266.3234	11213.9	10272.05
872.039	1268.2232	11293.6	10347.65
872.1834	1270.1223	11308.85	10361.5
872.3278	1272.0207	11312.55	10369.15
872.4723	1273.9183	11285.35	10335.2
872.6167	1275.8151	11234.85	10292.3
872.7611	1277.7113	11150.7	10205.7
872.9055	1279.6067	11083	10140.35
873.0499	1281.5014	11076.9	10130.5
873.1943	1283.3953	11133.3	10190.2
873.3386	1285.2885	11248.75	10307.1
873.483	1287.181	11400.1	10459.4
873.6274	1289.0727	11562.45	10619.25
873.7717	1290.9637	11689.6	10747.55
873.9161	1292.854	11831.8	10888.15
874.0604	1294.7435	11930.2	10987
874.2047	1296.6323	12064.55	11120.05
874.349	1298.5204	12193	11246
874.4933	1300.4077	12341.25	11394.6
874.6376	1302.2943	12393	11449.6
874.7819	1304.1802	12349.05	11406.6
874.9262	1306.0653	12167.4	11221.65
875.0705	1307.9497	11918.4	10972.35
875.2147	1309.8333	11688.6	10748.65
875.359	1311.7162	11552.95	10607.6
875.5032	1313.5984	11495.65	10551.7
875.6475	1315.4798	11509.4	10564.95
875.7917	1317.3605	11568.55	10612.4
875.9359	1319.2405	11574.45	10626.8
876.0801	1321.1197	11471.8	10523.35
876.2243	1322.9982	11312.95	10364.7
876.3685	1324.876	11193.2	10248.7
876.5127	1326.753	11073.35	10132.45
876.6569	1328.6293	11003.45	10056.6
876.801	1330.5048	10956.75	10008.8
876.9452	1332.3796	10896.3	9953.2
877.0893	1334.2537	10868.35	9897.5
877.2335	1336.127	10801.35	9858.85
877.3776	1337.9996	10789.35	9846.65
877.5217	1339.8714	10770.25	9824.35
877.6658	1341.7426	10759.9	9770.65
877.8099	1343.6129	10741.1	9795.5
877.954	1345.4826	10727.75	9784.7
878.0981	1347.3515	10671.5	9722.05
878.2422	1349.2196	10639.6	9693.3
878.3862	1351.087	10679.55	9732.75
878.5303	1352.9537	10719.15	9775.95
878.6743	1354.8197	10831.7	9885.1
878.8184	1356.6849	10994.45	10047.85
878.9624	1358.5493	11125.85	10181.6
879.1064	1360.4131	11175.35	10233.65
879.2504	1362.276	11193	10248.2
879.3944	1364.1383	11110.9	10168.7
879.5384	1365.9998	10894.25	9944.8
879.6823	1367.8606	10546.85	9603.8
879.8263	1369.7206	10251	9305.5
879.9702	1371.5799	9995.55	9051.5
880.1142	1373.4384	9797.6	8855.95
880.2581	1375.2962	9637.35	8689.75
880.402	1377.1533	9355.7	8411.7
880.5459	1379.0096	9032.9	8092.7
880.6898	1380.8652	8745.15	7806.9
880.8337	1382.7201	8492.45	7551.3
880.9776	1384.5742	8240.25	7298.4
881.1215	1386.4275	8107.3	7163.95
881.2653	1388.2802	7983	7041.65
881.4092	1390.132	7864.6	6922.95
881.553	1391.9832	7815.45	6874.55
881.6968	1393.8336	7714.35	6768.85
881.8406	1395.6832	7675.7	6732.45
881.9844	1397.5322	7653.45	6712.5
882.1282	1399.3803	7638.3	6690.7
882.272	1401.2278	7622.6	6685.1
882.4158	1403.0745	7610	6667.8
882.5595	1404.9204	7588.4	6647.45
882.7033	1406.7656	7628.05	6685.65
882.847	1408.6101	7638.25	6697.4
882.9908	1410.4538	7669.65	6728.45
883.1345	1412.2968	7718.25	6777.55
883.2782	1414.139	7771.75	6829.9
883.4219	1415.9805	7850.85	6907.45
883.5656	1417.8213	7961.45	7017.3
883.7092	1419.6613	8063.05	7125.15
883.8529	1421.5006	8234.75	7293.7
883.9965	1423.3391	8470.45	7529.45
884.1402	1425.1769	8782.85	7843.95
884.2838	1427.0139	9237.75	8297.2
884.4274	1428.8502	9813.7	8874.55
884.571	1430.6858	10357.6	9417.1
884.7146	1432.5206	10784.8	9849.8
884.8582	1434.3547	11026.8	10089.05
885.0018	1436.188	11055.7	10115.45
885.1453	1438.0206	10957.65	10015.85
885.2889	1439.8524	10798.8	9860.85
885.4324	1441.6835	10713.15	9772.5
885.5759	1443.5139	10598.15	9655.45
885.7194	1445.3435	10525.6	9588.35
885.8629	1447.1724	10501.7	9564.5
886.0064	1449.0005	10422.35	9488.1
886.1499	1450.8279	10314.9	9376.85
886.2933	1452.6545	10295.85	9359.55
886.4368	1454.4804	10313	9378.4
886.5802	1456.3056	10327.55	9384.9
886.7237	1458.13	10225.7	9286.4
886.8671	1459.9536	10053.7	9117.75
887.0105	1461.7766	9720.9	8781.2
887.1539	1463.5987	9352.7	8413.5
887.2972	1465.4202	8981	8042.65
887.4406	1467.2409	8633.7	7693.9
887.584	1469.0608	8347.95	7410.1
887.7273	1470.88	8080.2	7143.6
887.8706	1472.6984	7848.1	6910.6
888.0139	1474.5161	7651.45	6712.85
888.1572	1476.3331	7506.3	6569.8
888.3005	1478.1493	7406.4	6468.75
888.4438	1479.9648	7291.65	6354.65
888.5871	1481.7795	7204.85	6265.65
888.7303	1483.5935	7133.25	6194.65
888.8736	1485.4067	7076.85	6137.6
889.0168	1487.2192	7024	6087.35
889.16	1489.031	6964.7	6023.8
889.3032	1490.842	6937.55	5998.2
889.4464	1492.6522	6898	5959.75
889.5896	1494.4618	6886	5944.85
889.7327	1496.2705	6847.4	5910.2
889.8759	1498.0785	6842.15	5902.8
890.019	1499.8858	6788.7	5850.9
890.1622	1501.6924	6741.2	5806.65
890.3053	1503.4981	6727.35	5792.8
890.4484	1505.3032	6703.15	5766.2
890.5914	1507.1075	6660.5	5722.45
890.7345	1508.911	6636	5699.5
890.8776	1510.7138	6588.9	5652.6
891.0206	1512.5159	6545.95	5607.6
891.1637	1514.3172	6505.45	5568.95
891.3067	1516.1178	6477.5	5541.4
891.4497	1517.9176	6471.85	5536.15
891.5927	1519.7166	6404.3	5468.5
891.7357	1521.515	6390.5	5450.7
891.8786	1523.3126	6369.25	5436.25
892.0216	1525.1094	6330.8	5395.6
892.1645	1526.9055	6301.95	5370.65
892.3074	1528.7008	6304.45	5371.45
892.4503	1530.4954	6263.65	5331
892.5932	1532.2893	6255	5325.85
892.7361	1534.0824	6224.85	5293.15
892.879	1535.8747	6215.5	5285.25
893.0218	1537.6663	6214.75	5286.1
893.1647	1539.4572	6199.45	5269.85
893.3075	1541.2473	6182.45	5251.8
893.4503	1543.0367	6167.65	5239.65
893.5931	1544.8253	6181.5	5250.4
893.7359	1546.6132	6195.1	5261.2
893.8787	1548.4003	6213.3	5272.05
894.0214	1550.1867	6247.85	5309.7
894.1642	1551.9723	6285.35	5352.2
894.3069	1553.7572	6323.95	5396.2
894.4496	1555.5414	6394.35	5469.7
894.5923	1557.3247	6481.3	5557.1
894.735	1559.1074	6587.3	5666.9
894.8777	1560.8893	6687.65	5762.55
895.0204	1562.6705	6753	5829.25
895.163	1564.4509	6833.15	5913.7
895.3056	1566.2305	6876.25	5959.85
895.4482	1568.0094	6962.8	6044.7
895.5908	1569.7876	6977.35	6058.4
895.7334	1571.565	6987.05	6064.8
895.876	1573.3417	6992.1	6070.9
896.0186	1575.1176	6990.25	6069.4
896.1611	1576.8928	6935.65	6019.55
896.3036	1578.6672	6897.65	5983.25
896.4461	1580.4409	6819.95	5909.85
896.5886	1582.2138	6738.1	5820.75
896.7311	1583.986	6683.9	5765.05
896.8736	1585.7575	6622.4	5702.1
897.0161	1587.5282	6609.05	5695.7
897.1585	1589.2981	6616.6	5703.7
897.3009	1591.0673	6627.55	5716.15
897.4433	1592.8358	6677.05	5765.1
897.5857	1594.6035	6680.55	5763.3
897.7281	1596.3704	6729.45	5810.65
897.8705	1598.1366	6782.2	5867.5
898.0128	1599.9021	6850.25	5934.45
898.1551	1601.6668	6931.55	6011.65
898.2975	1603.4308	7022	6102
898.4398	1605.194	7141	6221.8
898.5821	1606.9564	7305.6	6397.35
898.7243	1608.7182	7453.35	6547.5
898.8666	1610.4791	7656.65	6753.5
899.0088	1612.2394	7829.65	6929.4
899.1511	1613.9988	8064.15	7159.35
899.2933	1615.7576	8305.15	7395.85
899.4355	1617.5156	8504.25	7587.6
899.5776	1619.2728	8659.85	7740.9
899.7198	1621.0293	8724.6	7809.25
899.862	1622.785	8693.9	7777.9
900.0041	1624.54	8577.75	7669.85
900.1462	1626.2942	8380.55	7471.55
900.2883	1628.0477	8105.2	7196.1
900.4304	1629.8005	7862.45	6950.85
900.5725	1631.5525	7630.6	6721.75
900.7145	1633.3037	7440.35	6531.35
900.8566	1635.0542	7312.1	6407.1
900.9986	1636.804	7186.5	6279.1
901.1406	1638.553	7184.45	6214.25
901.2826	1640.3013	7103.9	6194
901.4245	1642.0488	7096.45	6188.1
901.5665	1643.7955	7120.75	6214.35
901.7085	1645.5416	7189.1	6283.5
901.8504	1647.2868	7283.8	6375.1
901.9923	1649.0313	7367.5	6456.1
902.1342	1650.7751	7545.25	6631.4
902.2761	1652.5181	7709.35	6803.1
902.4179	1654.2604	7883.25	6975.95
902.5598	1656.0019	8132.65	7226.7
902.7016	1657.7427	8431.1	7526.15
902.8434	1659.4828	8725.15	7817.1
902.9852	1661.222	8877	7967.05
903.127	1662.9606	8892.25	7979.9
903.2687	1664.6984	8637.35	7725.55
903.4105	1666.4354	8237.15	7325
903.5522	1668.1717	7728.2	6816.95
903.6939	1669.9072	7196.1	6283.2
903.8356	1671.642	6770.35	5856
903.9773	1673.3761	6415.4	5506.1
904.119	1675.1094	6120.3	5210.75
904.2606	1676.8419	5875.1	4966.2
904.4022	1678.5737	5729.3	4818.7
904.5439	1680.3048	5582.25	4672.4
904.6855	1682.0351	5467.25	4557.55
904.827	1683.7646	5370.8	4458.2
904.9686	1685.4934	5312.6	4403.6
905.1101	1687.2215	5246.35	4337.3
905.2517	1688.9488	5162.65	4256.75
905.3932	1690.6754	5127.2	4221.6
905.5347	1692.4012	5104.7	4196.55
905.6761	1694.1263	5054.9	4144.7
905.8176	1695.8506	5035	4127.7
905.9591	1697.5742	5012.1	4106.4
906.1005	1699.297	4973.2	4070.6
906.2419	1701.0191	4906.1	4005.1
906.3833	1702.7404	4898.6	3997.2
906.5246	1704.461	4861.5	3955.4
906.666	1706.1808	4830.7	3924.15
906.8073	1707.8999	4822.05	3917.8
906.9487	1709.6182	4794.15	3893.25
907.09	1711.3358	4779.85	3878.9
907.2313	1713.0527	4758.4	3859.2
907.3725	1714.7688	4714.55	3808.5
907.5138	1716.4841	4713.3	3806.2
907.655	1718.1987	4692.85	3785.3
907.7962	1719.9126	4676.95	3777.25
907.9374	1721.6257	4655.6	3754.9
908.0786	1723.338	4640.6	3743.15
908.2198	1725.0496	4625.45	3724.3
908.3609	1726.7605	4619.8	3718.15
908.502	1728.4706	4584.95	3683.55
908.6431	1730.18	4567.5	3667.35
908.7842	1731.8886	4550.2	3653.85
908.9253	1733.5964	4574.15	3655.45
909.0664	1735.3036	4542.65	3641.05
909.2074	1737.0099	4527.15	3630.55
909.3484	1738.7156	4492.35	3597.3
909.4894	1740.4204	4463.8	3564.6
909.6304	1742.1246	4462.2	3561.45
909.7714	1743.8279	4438.55	3539.05
909.9123	1745.5306	4432.2	3534.2
910.0532	1747.2325	4407.95	3509.05
910.1941	1748.9336	4398.55	3497.25
910.335	1750.634	4361.65	3458.1
910.4759	1752.3336	4362.7	3465.2
910.6168	1754.0325	4334.7	3440.8
910.7576	1755.7307	4333.9	3434.75
910.8984	1757.4281	4338.85	3437.9
911.0392	1759.1247	4338.25	3429.65
911.18	1760.8206	4333.1	3425.25
911.3208	1762.5158	4321.5	3415.4
911.4615	1764.2102	4281.1	3379.15
911.6022	1765.9039	4254.8	3356.9
911.7429	1767.5968	4261.7	3367.8
911.8836	1769.289	4241.45	3344.85
912.0243	1770.9804	4250.55	3352.85
912.1649	1772.6711	4231.85	3329.85
912.3056	1774.361	4241.9	3339.55
912.4462	1776.0502	4227.8	3325.95
912.5868	1777.7386	4224.7	3323
912.7274	1779.4263	4189.65	3291.55
912.8679	1781.1132	4197.55	3303.3
913.0084	1782.7994	4176.7	3279.25
913.149	1784.4849	4169.85	3275.9
913.2895	1786.1696	4180	3265.65
913.4299	1787.8535	4151.95	3259.2
913.5704	1789.5367	4134.8	3239.35
913.7108	1791.2192	4130.3	3236.2
913.8513	1792.9009	4144.55	3222.3
913.9917	1794.5818	4125.5	3223.2
914.132	1796.2621	4121.5	3224.9
914.2724	1797.9415	4104	3203.55
914.4128	1799.6202	4084.15	3183.85
914.5531	1801.2982	4076.55	3178.35
914.6934	1802.9755	4083.35	3181.95
914.8337	1804.6519	4070.4	3173.05
914.9739	1806.3277	4032.1	3133.9
915.1142	1808.0027	4032.2	3139.6
915.2544	1809.6769	4019.05	3126.55
915.3946	1811.3504	4031.45	3138.1
915.5348	1813.0231	4015.4	3123.35
915.675	1814.6951	3999.15	3105.05
915.8151	1816.3664	4016.55	3116.75
915.9553	1818.0369	4019.2	3120.7
916.0954	1819.7067	3981.55	3083.1
916.2355	1821.3757	3987	3088.35
916.3755	1823.044	3974.05	3074.9
916.5156	1824.7115	3973.75	3072.75
916.6556	1826.3783	3952.65	3054.75
916.7956	1828.0443	3951.35	3052.8
916.9356	1829.7096	3949.1	3049.6
917.0756	1831.3741	3941.15	3041.2
917.2155	1833.0379	3921.05	3027.15
917.3555	1834.701	3911.3	3016.4
917.4954	1836.3633	3902.25	3011.5
917.6353	1838.0248	3889.7	2994.95
917.7751	1839.6856	3899.3	3004.7
917.915	1841.3457	3886.05	2988.5
918.0548	1843.005	3881.5	2983.25
918.1946	1844.6636	3877.85	2981.05
918.3344	1846.3214	3870.25	2972.15
918.4742	1847.9785	3852.2	2957.4
918.6139	1849.6349	3857.45	2957.6
918.7537	1851.2904	3878.4	2967.5
918.8934	1852.9453	3845.65	2948.15
919.0331	1854.5994	3830.5	2930.4
919.1727	1856.2528	3840.1	2937.15
919.3124	1857.9054	3828.95	2931
919.452	1859.5572	3814.8	2919.1
919.5916	1861.2083	3818.45	2919.25
919.7312	1862.8587	3822.65	2925.6
919.8708	1864.5084	3813.5	2912.65
920.0103	1866.1572	3799.5	2901.75
920.1498	1867.8054	3781.6	2883.3
920.2893	1869.4528	3785.15	2883.35
920.4288	1871.0994	3782.65	2882.95
920.5683	1872.7453	3776.55	2877.95
920.7077	1874.3905	3764.35	2848.6
920.8471	1876.0349	3751.15	2851.7
920.9865	1877.6786	3734	2834.3
921.1259	1879.3215	3730.35	2831.3
921.2653	1880.9637	3709.7	2810.55
921.4046	1882.6051	3709.1	2814.45
921.5439	1884.2458	3707.15	2808.55
921.6832	1885.8858	3695.5	2800.65
921.8225	1887.525	3702.65	2802.1
921.9617	1889.1634	3676.3	2778.85
922.101	1890.8011	3688.25	2789.05
922.2402	1892.4381	3676.5	2780.9
922.3794	1894.0743	3661.9	2764.6
922.5185	1895.7098	3654.3	2754.65
922.6577	1897.3446	3650.55	2753.25
922.7968	1898.9786	3646.35	2746.85
922.9359	1900.6118	3636.3	2740.9
923.075	1902.2443	3622	2725.45
923.214	1903.8761	3608.05	2714.2
923.3531	1905.5071	3600.1	2703.2
923.4921	1907.1374	3583	2688.05
923.6311	1908.7669	3585.3	2689.25
923.77	1910.3957	3584.2	2684.65
923.909	1912.0237	3578.3	2681.3
924.0479	1913.651	3566.85	2669.4
924.1868	1915.2776	3550.55	2655.45
924.3257	1916.9034	3529.75	2634.55
924.4646	1918.5285	3516.7	2622.15
924.6034	1920.1528	3505.5	2612.6
924.7422	1921.7764	3516.7	2621.4
924.881	1923.3992	3494.95	2600.55
925.0198	1925.0213	3488.4	2593.8
925.1586	1926.6427	3481.4	2585.95
925.2973	1928.2633	3652.05	2548.7
925.436	1929.8832	3505.25	2606.8
925.5747	1931.5023	3463.15	2566.8
925.7134	1933.1207	3443	2548.5
925.852	1934.7383	3434.15	2539.95
925.9906	1936.3552	3422.75	2530.15
926.1292	1937.9714	3419.1	2524.45
926.2678	1939.5868	3412.1	2514.05
926.4064	1941.2015	3400.9	2502.9
926.5449	1942.8154	3380.4	2483.75
926.6834	1944.4286	3387.85	2491
926.8219	1946.041	3391.5	2477.55
926.9604	1947.6528	3372.5	2470
927.0988	1949.2637	3358.35	2464.3
927.2372	1950.8739	3345.3	2449.45
927.3756	1952.4834	3333.65	2437.55
927.514	1954.0921	3323.35	2429.5
927.6523	1955.7001	3322.1	2420.8
927.7907	1957.3074	3312.2	2420.35
927.929	1958.9139	3303.45	2411.35
928.0673	1960.5197	3310.85	2417.65
928.2055	1962.1247	3282.65	2390.45
928.3438	1963.729	3277.65	2387.3
928.482	1965.3325	3254.25	2357.3
928.6202	1966.9353	3253.7	2362.4
928.7584	1968.5374	3239.1	2346.8
928.8965	1970.1387	3227.45	2334.8
929.0346	1971.7393	3226.3	2335.25
929.1727	1973.3392	3216.9	2326.05
929.3108	1974.9383	3210.5	2321.2
929.4489	1976.5366	3200.6	2310.05
929.5869	1978.1342	3177.45	2289.65
929.7249	1979.7311	3191.25	2299.85
929.8629	1981.3273	3195.7	2304.9
930.0009	1982.9227	3174.3	2282.3
930.1388	1984.5173	3163.4	2275.7
930.2767	1986.1112	3151.25	2261.5
930.4146	1987.7044	3153.05	2264.8
930.5525	1989.2968	3139.55	2250.15
930.6904	1990.8885	3143	2253.75
930.8282	1992.4795	3141.5	2253.5
930.966	1994.0697	3130.6	2244.6
931.1038	1995.6592	3113.7	2225.85
931.2415	1997.2479	3113.35	2222.65
931.3793	1998.8359	3106	2220.2
931.517	2000.4232	3090.65	2207.15
931.6547	2002.0097	3078.6	2198.05
931.7923	2003.5955	3065.65	2181.05
931.93	2005.1805	3081.25	2194.95
932.0676	2006.7648	3080.4	2194.3
932.2052	2008.3484	3064.1	2178.95
932.3427	2009.9312	3056.55	2171.25
932.4803	2011.5133	3050.6	2169.15
932.6178	2013.0946	3053.35	2169.05
932.7553	2014.6752	3043.15	2160.65
932.8928	2016.2551	3046.45	2159.8
933.0302	2017.8342	3019.8	2135.7
933.1676	2019.4126	3014.3	2131.25
933.305	2020.9902	3009.95	2129.65
933.4424	2022.5672	3007.25	2124.7
933.5798	2024.1433	3001.3	2114.65
933.7171	2025.7188	2993.3	2113.45
933.8544	2027.2935	2969.9	2087
933.9917	2028.8674	2963.35	2081.2
934.129	2030.4406	2983.15	2104.45
934.2662	2032.0131	2946.7	2067
934.4034	2033.5849	2930.6	2044.05
934.5406	2035.1559	2958.8	2077.45
934.6778	2036.7261	2953.55	2068.15
934.8149	2038.2957	2947.25	2062.3
934.952	2039.8645	2930.5	2042.85
935.0891	2041.4325	2932.8	2045.15
935.2262	2042.9998	2923.55	2038.5
935.3632	2044.5664	2917.45	2033.3
935.5002	2046.1323	2904.75	2023.3
935.6372	2047.6974	2897.75	2016.9
935.7742	2049.2617	2901.65	2021.8
935.9111	2050.8254	2932.55	2016.05
936.048	2052.3883	2908.6	2022
936.1849	2053.9504	2887.3	2001.1
936.3218	2055.5118	2884.65	1995.75
936.4586	2057.0725	2879.95	1991.9
936.5955	2058.6325	2870.3	1986.1
936.7323	2060.1917	2872.65	1988.05
936.869	2061.7502	2867.15	1982.8
937.0058	2063.3079	2858.65	1975.85
937.1425	2064.8649	2840.85	1955.8
937.2792	2066.4212	2848.9	1963.8
937.4159	2067.9767	2837.65	1951.65
937.5525	2069.5315	2816.65	1932.55
937.6891	2071.0856	2822.15	1938
937.8257	2072.6389	2807.5	1922.6
937.9623	2074.1915	2802.25	1921.85
938.0989	2075.7433	2785.95	1900.95
938.2354	2077.2945	2790.25	1906.25
938.3719	2078.8448	2776.5	1888.75
938.5084	2080.3945	2773.1	1884.3
938.6448	2081.9434	2770.9	1883.45
938.7812	2083.4916	2767.55	1876.65
938.9176	2085.039	2762.65	1869.55
939.054	2086.5857	2762.9	1865.95
939.1903	2088.1317	2739.95	1843.45
939.3267	2089.677	2755.3	1861.75
939.463	2091.2215	2745.3	1853.65
939.5992	2092.7652	2746	1852.75
939.7355	2094.3083	2748.45	1855
939.8717	2095.8506	2733.35	1841.85
940.0079	2097.3921	2736.4	1846.05
940.1441	2098.933	2713.85	1827.55
940.2802	2100.4731	2715.7	1825.75
940.4163	2102.0124	2720.45	1821.75
940.5524	2103.5511	2716.8	1827.25
940.6885	2105.089	2708.65	1818.05
940.8245	2106.6261	2706.15	1815.25
940.9606	2108.1626	2695.55	1808.1
941.0965	2109.6983	2717.3	1800.5
941.2325	2111.2332	2686	1794.9
941.3684	2112.7675	2672.15	1782.85
941.5044	2114.301	2674.6	1781.6
941.6403	2115.8337	2688.85	1798
941.7761	2117.3657	2674.75	1784.4
941.912	2118.897	2669.65	1779.75
942.0478	2120.4276	2679.7	1783.2
942.1835	2121.9575	2653.6	1762.7
942.3193	2123.4866	2669.1	1772.85
942.455	2125.0149	2650.75	1758.65
942.5907	2126.5426	2630.4	1742.7
942.7264	2128.0695	2630.25	1742.5
942.8621	2129.5956	2609.6	1726.45
942.9977	2131.1211	2616.2	1726.55
943.1333	2132.6458	2613.75	1725.65
943.2689	2134.1698	2604.75	1713.75
943.4044	2135.693	2607.7	1710.4
943.54	2137.2155	2618.8	1722.75
943.6755	2138.7373	2598.45	1707.5
943.8109	2140.2584	2593.6	1708.55
943.9464	2141.7787	2583.6	1696.6
944.0818	2143.2983	2584.55	1701.9
944.2172	2144.8171	2578.8	1697.35
944.3526	2146.3353	2563.15	1675.65
944.4879	2147.8527	2562.1	1675.9
944.6232	2149.3693	2572.85	1684.55
944.7585	2150.8853	2561.85	1671.5
944.8938	2152.4005	2556.3	1664.05
945.029	2153.9149	2554.6	1661.95
945.1642	2155.4287	2539.95	1648.05
945.2994	2156.9417	2542.25	1651.95
945.4346	2158.454	2529.35	1638.6
945.5697	2159.9655	2520.95	1636.4
945.7048	2161.4764	2531.2	1644.9
945.8399	2162.9865	2517.95	1630.65
945.9749	2164.4958	2525.4	1638.6
946.1099	2166.0045	2503.85	1614.1
946.2449	2167.5124	2504.2	1615.65
946.3799	2169.0195	2508.1	1618.55
946.5148	2170.526	2505.65	1612.8
946.6498	2172.0317	2500.75	1611.65
946.7846	2173.5367	2493.55	1604.1
946.9195	2175.0409	2487.95	1600.4
947.0543	2176.5445	2481.35	1591.95
947.1891	2178.0473	2488.1	1594.75
947.3239	2179.5494	2479.4	1585.5
947.4587	2181.0507	2468.1	1576.7
947.5934	2182.5513	2474.9	1585.25
947.7281	2184.0512	2465.9	1574.2
947.8628	2185.5504	2457.6	1568.5
947.9974	2187.0488	2435.6	1549.95
948.132	2188.5465	2451.3	1566.85
948.2666	2190.0435	2440.15	1552.6
948.4012	2191.5397	2434.8	1544.25
948.5357	2193.0353	2440	1548.9
948.6702	2194.5301	2432.75	1537.85
948.8047	2196.0241	2423.1	1527.5
948.9392	2197.5175	2434.55	1539.5
949.0736	2199.0101	2420.65	1523.25
949.208	2200.502	2406.35	1516.2
949.3424	2201.9931	2392.8	1505.55
949.4767	2203.4835	2391.15	1503.05
949.611	2204.9733	2396.25	1502.25
949.7453	2206.4622	2381.15	1495.85
949.8796	2207.9505	2373.25	1484
950.0138	2209.438	2367.55	1484.55
950.148	2210.9248	2371.55	1481.35
950.2822	2212.4109	2366.45	1480.65
950.4164	2213.8962	2364.4	1468.4
950.5505	2215.3809	2357	1461.2
950.6846	2216.8648	2356.45	1461.2
950.8186	2218.3479	2361.8	1458.9
950.9527	2219.8304	2351.85	1451.65
951.0867	2221.3121	2338.9	1440.3
951.2207	2222.7931	2343.95	1449.4
951.3546	2224.2733	2333.9	1442.7
951.4886	2225.7529	2324.55	1432.15
951.6225	2227.2317	2314.4	1423.3
951.7563	2228.7098	2309.65	1422.35
951.8902	2230.1872	2300.9	1415.4
952.024	2231.6638	2303.6	1417.65
952.1578	2233.1397	2297.45	1405.65
952.2916	2234.6149	2290.05	1403.35
952.4253	2236.0894	2293	1404.5
952.559	2237.5632	2293.55	1392.05
952.6927	2239.0362	2267.1	1377.2
952.8263	2240.5085	2275.15	1387.65
952.9599	2241.9801	2267.5	1375.8
953.0935	2243.4509	2272.45	1381.55
953.2271	2244.921	2271	1376.9
953.3606	2246.3904	2254.85	1358.75
953.4941	2247.8591	2249.2	1356.2
953.6276	2249.3271	2248.6	1356.25
953.7611	2250.7943	2243.55	1348.9
953.8945	2252.2608	2239.2	1345.3
954.0279	2253.7266	2230.85	1338.65
954.1612	2255.1917	2245.2	1353.55
954.2946	2256.656	2225.1	1331.75
954.4279	2258.1197	2214.45	1327.65
954.5612	2259.5826	2218	1327.35
954.6944	2261.0447	2214.75	1323.45
954.8276	2262.5062	2212.8	1319.45
954.9608	2263.9669	2209.65	1316
955.094	2265.4269	2201.9	1310.6
955.2271	2266.8862	2203.4	1311.3
955.3602	2268.3448	2198.1	1310.9
955.4933	2269.8026	2193.1	1304.55
955.6264	2271.2598	2194.3	1305.4
955.7594	2272.7162	2184.3	1295.3
955.8924	2274.1719	2181.65	1292.05
956.0253	2275.6268	2183.5	1291.6
956.1583	2277.0811	2184.95	1293.45
956.2912	2278.5346	2164.3	1274.6
956.4241	2279.9874	2176.05	1288.75
956.5569	2281.4395	2159.95	1275.1
956.6897	2282.8908	2169.25	1274.4
956.8225	2284.3414	2171.8	1281.4
956.9553	2285.7914	2154.35	1265.2
957.088	2287.2406	2154.7	1261.45
957.2207	2288.689	2158.15	1263.65
957.3534	2290.1368	2162.85	1265.5
957.486	2291.5838	2154.95	1256.85
957.6186	2293.0302	2153.2	1252.3
957.7512	2294.4758	2139.3	1243.9
957.8838	2295.9206	2129.75	1236.85
958.0163	2297.3648	2125.95	1237.45
958.1488	2298.8082	2143	1251.95
958.2813	2300.251	2134.95	1241.5
958.4137	2301.693	2108.95	1212.7
958.5461	2303.1343	2121.95	1226.95
958.6785	2304.5748	2114.2	1223.8
958.8108	2306.0147	2103.6	1213.4
958.9432	2307.4538	2110.7	1221.8
959.0754	2308.8922	2093.9	1206.75
959.2077	2310.3299	2091	1204.3
959.3399	2311.7669	2089.55	1199.45
959.4721	2313.2031	2094.75	1203.65
959.6043	2314.6387	2084.9	1193.4
959.7365	2316.0735	2085.7	1193
959.8686	2317.5076	2074.2	1182.1
960.0006	2318.941	2083.45	1190.75
960.1327	2320.3737	2069.8	1175.2
960.2647	2321.8056	2072.9	1175.9
960.3967	2323.2369	2065.35	1174.55
960.5287	2324.6674	2060.65	1167.9
960.6606	2326.0972	2060.45	1168.5
960.7925	2327.5263	2055.45	1161.95
960.9244	2328.9547	2056.2	1163.35
961.0562	2330.3823	2060.2	1163.5
961.1881	2331.8092	2061.4	1164.5
961.3198	2333.2355	2036.9	1142.45
961.4516	2334.661	2054.2	1159.95
961.5833	2336.0858	2045.55	1152.25
961.715	2337.5098	2032.7	1140.35
961.8467	2338.9332	2036.45	1144.05
961.9783	2340.3558	2025.8	1131.65
962.1099	2341.7778	2035.15	1143.7
962.2415	2343.199	2021.15	1129.2
962.373	2344.6195	2016.2	1123.75
962.5045	2346.0393	2009.8	1121.6
962.636	2347.4583	2018.75	1127.9
962.7675	2348.8767	2015.9	1122.4
962.8989	2350.2943	2018.4	1123.25
963.0303	2351.7113	2012.55	1118.3
963.1617	2353.1275	2015.3	1119.9
963.293	2354.543	2017	1115.2
963.4243	2355.9578	2004.4	1110.6
963.5556	2357.3718	1989.8	1099.25
963.6868	2358.7852	1987	1095.4
963.818	2360.1978	1981.25	1092.6
963.9492	2361.6098	1980.15	1087.65
964.0803	2363.021	1980.2	1086.05
964.2114	2364.4315	1980.8	1091.1
964.3425	2365.8413	1975.85	1082.5
964.4736	2367.2504	1967.6	1077.65
964.6046	2368.6587	1960.6	1073.15
964.7356	2370.0664	1958.7	1071.05
964.8666	2371.4733	1961.95	1072.35
964.9975	2372.8795	1950.85	1061.75
965.1284	2374.285	1953.25	1063.15
965.2593	2375.6899	1951.9	1063.4
965.3901	2377.0939	1942.7	1055
965.5209	2378.4973	1937.95	1048.9
965.6517	2379.9	1932.65	1043.15
965.7825	2381.3019	1931.6	1042.9
965.9132	2382.7032	1927.2	1039.8
966.0439	2384.1037	1921.55	1039.3
966.1745	2385.5035	1922.65	1037.85
966.3051	2386.9027	1912.2	1027.5
966.4357	2388.3011	1915.1	1028.25
966.5663	2389.6987	1910.25	1025.15
966.6968	2391.0957	1904.8	1019
966.8273	2392.492	1904.2	1018.4
966.9578	2393.8876	1889.05	1000.75
967.0882	2395.2824	1888.25	1003
967.2186	2396.6765	1885.8	996.25
967.349	2398.07	1889.1	999.15
967.4793	2399.4627	1883.55	993.3
967.6097	2400.8547	1881.35	993.4
967.7399	2402.246	1875.9	983.85
967.8702	2403.6366	1869.15	981.95
968.0004	2405.0265	1868.5	982.55
968.1306	2406.4156	1867.15	977
968.2607	2407.8041	1864.85	977
968.3909	2409.1918	1853.55	964.3
968.521	2410.5789	1862.65	973.45
968.651	2411.9652	1859.3	964.65
968.781	2413.3508	1852.25	964.2
968.911	2414.7358	1849.35	961.2
969.041	2416.12	1847.05	960.25
969.1709	2417.5035	1852.35	966.6
969.3008	2418.8863	1843.15	954.85
969.4307	2420.2684	1840.2	950.45
969.5606	2421.6497	1837.8	949.95
969.6904	2423.0304	1829.25	942.05
969.8201	2424.4104	1828.95	939.85
969.9499	2425.7896	1825.8	935.45
970.0796	2427.1682	1820.45	933.6
970.2093	2428.546	1829.05	940.5
970.3389	2429.9232	1819.15	928.65
970.4685	2431.2996	1815.45	927
970.5981	2432.6753	1820.95	930.55
970.7277	2434.0503	1815.75	924.7
970.8572	2435.4246	1805.05	916.5
970.9867	2436.7982	1801.4	911.45
971.1161	2438.1711	1811.5	922.45
971.2456	2439.5433	1806.2	917.4
971.375	2440.9148	1798.05	904.4
971.5043	2442.2856	1787.65	900.25
971.6336	2443.6557	1783.35	892.5
971.7629	2445.025	1782.7	893.8
971.8922	2446.3937	1798.85	908.5
972.0214	2447.7617	1777.6	886.9
972.1506	2449.1289	1781	891.25
972.2798	2450.4955	1778.1	887.15
972.4089	2451.8613	1774.8	888.05
972.538	2453.2265	1775.95	889.8
972.6671	2454.5909	1768.2	879.2
972.7961	2455.9546	1764.05	876.8
972.9251	2457.3177	1767.45	881.1
973.0541	2458.68	1771.35	882.4
973.1831	2460.0416	1758.9	869.95
973.312	2461.4025	1767.1	877.9
973.4408	2462.7627	1759.6	860.35
973.5697	2464.1222	1751.2	866.25
973.6985	2465.4811	1748.75	862.25
973.8273	2466.8392	1747.25	860.95
973.956	2468.1966	1754.65	866.05
974.0847	2469.5533	1755.75	865.9
974.2134	2470.9093	1748.35	858.7
974.3421	2472.2645	1744.45	855.65
974.4707	2473.6191	1739.95	851.85
974.5993	2474.973	1739.25	849.2
974.7278	2476.3262	1743.05	851.85
974.8563	2477.6787	1728.45	839.25
974.9848	2479.0305	1729.9	842.75
975.1132	2480.3816	1729.2	838.7
975.2417	2481.7319	1730.75	842.65
975.37	2483.0816	1729.65	838.75
975.4984	2484.4306	1726.3	837.15
975.6267	2485.7789	1715.1	827.25
975.755	2487.1264	1718.55	829.8
975.8833	2488.4733	1710.25	824.5
976.0115	2489.8195	1722.45	818.05
976.1397	2491.165	1705.15	812.6
976.2678	2492.5097	1703.8	812.25
976.3959	2493.8538	1693.4	805.8
976.524	2495.1972	1696.35	808.5
976.6521	2496.5398	1694.8	804.9
976.7801	2497.8818	1693.4	801.7
976.9081	2499.2231	1682.45	794.25
977.036	2500.5637	1690.85	797.45
977.164	2501.9035	1689.5	798.1
977.2918	2503.2427	1690.9	796.6
977.4197	2504.5812	1685.85	797.1
977.5475	2505.919	1678.65	786.35
977.6753	2507.256	1683.8	794.4
977.8031	2508.5924	1674.65	786.7
977.9308	2509.9281	1680.2	785.8
978.0585	2511.2631	1671.3	784.8
978.1861	2512.5974	1665.2	778.95
978.3137	2513.9309	1666.45	778.75
978.4413	2515.2638	1693.95	778.05
978.5689	2516.596	1664.35	776.85
978.6964	2517.9275	1662.2	770.4
978.8239	2519.2583	1658.45	769.6
978.9513	2520.5884	1649.6	756.4
979.0788	2521.9178	1653.1	765.85
979.2062	2523.2465	1648.75	762.7
979.3335	2524.5745	1649.05	761.2
979.4608	2525.9018	1648.7	761.1
979.5881	2527.2284	1641.1	752.9
979.7154	2528.5543	1643.25	755.65
979.8426	2529.8796	1640.4	752.9
979.9698	2531.2041	1644.95	758.85
980.0969	2532.5279	1631	744.55
980.224	2533.851	1644.1	752.85
980.3511	2535.1735	1642.5	752.6
980.4781	2536.4952	1633	744.1
980.6052	2537.8163	1628.65	736.1
980.7321	2539.1366	1635.7	747.5
980.8591	2540.4562	1629.3	735.8
980.986	2541.7752	1622.6	733.35
981.1129	2543.0935	1630.5	740.4
981.2397	2544.411	1632.3	740.6
981.3665	2545.7279	1621.15	732.35
981.4933	2547.0441	1612.15	723.5
981.62	2548.3596	1621	728.4
981.7467	2549.6744	1625.55	736.15
981.8734	2550.9885	1622.2	728.35
982.0001	2552.3019	1617.85	730.3
982.1267	2553.6146	1616.65	725.15
982.2532	2554.9266	1608.75	717.7
982.3798	2556.2379	1608.65	719.5
982.5063	2557.5485	1602.8	715.9
982.6327	2558.8585	1608.35	711.9
982.7592	2560.1677	1616.65	724.7
982.8856	2561.4762	1598.35	708.15
983.0119	2562.7841	1604.55	713.3
983.1383	2564.0913	1602.25	710.9
983.2646	2565.3977	1597.75	711.25
983.3908	2566.7035	1593.35	702.15
983.517	2568.0086	1597.4	705.3
983.6432	2569.313	1593.4	701.95
983.7694	2570.6167	1591.1	695.7
983.8955	2571.9197	1588.35	697.3
984.0216	2573.222	1594.1	701.35
984.1476	2574.5236	1591.05	700.45
984.2737	2575.8246	1596.5	704.3
984.3996	2577.1248	1587.6	695.7
984.5256	2578.4244	1587.25	698.5
984.6515	2579.7232	1586.05	696.5
984.7774	2581.0214	1610.05	693.2
984.9032	2582.3189	1586.8	697.7
985.029	2583.6157	1588.05	697.15
985.1548	2584.9118	1590.95	698.7
985.2806	2586.2072	1587.6	698.75
985.4063	2587.5019	1591.65	702.75
985.5319	2588.7959	1587.6	693.15
985.6576	2590.0893	1587.95	695.9
985.7832	2591.3819	1593.3	705.9
985.9087	2592.6739	1584.45	694.65
986.0343	2593.9652	1588.95	697.7
986.1597	2595.2557	1581.6	692.6
986.2852	2596.5456	1590.3	698.25
986.4106	2597.8348	1584.95	695.65
986.536	2599.1234	1580.9	693.15
986.6614	2600.4112	1578.9	690.25
986.7867	2601.6983	1594	701.3
986.912	2602.9848	1577.35	686.5
987.0372	2604.2705	1593.45	697
987.1624	2605.5556	1580.85	690.25
987.2876	2606.84	1582.5	692.25
987.4128	2608.1237	1573.25	683.5
987.5379	2609.4067	1573.75	684.25
987.6629	2610.689	1577.5	681.1
987.788	2611.9707	1577.7	684.8
987.913	2613.2516	1569.85	675.2
988.0379	2614.5319	1556.6	668.2
988.1629	2615.8115	1556.6	668.9
988.2878	2617.0903	1557.15	664.25
988.4126	2618.3685	1553.35	662.55
988.5375	2619.6461	1557	665.95
988.6622	2620.9229	1552.6	664.4
988.787	2622.199	1551.6	662.3
988.9117	2623.4745	1550.2	659.45
989.0364	2624.7493	1550.1	661.7
989.161	2626.0234	1550.9	662.25
989.2857	2627.2968	1547.15	657.3
989.4102	2628.5695	1546.9	658.4
989.5348	2629.8415	1539.65	652.55
989.6593	2631.1128	1537.3	648.15
989.7837	2632.3835	1548.8	659.2
989.9082	2633.6535	1546.9	659.5
990.0326	2634.9228	1539.3	650.3
990.1569	2636.1914	1535.35	646.8
990.2812	2637.4593	1536.6	647.65
990.4055	2638.7265	1531.6	642.2
990.5298	2639.9931	1531	645.15
990.654	2641.259	1531.55	641.95
990.7782	2642.5242	1534.75	645.25
990.9023	2643.7887	1528.15	639.55
991.0264	2645.0525	1529.7	640.5
991.1505	2646.3156	1525.25	633.9
991.2745	2647.5781	1520.7	634.25
991.3985	2648.8398	1518.1	629.05
991.5225	2650.1009	1524.95	627.45
991.6464	2651.3613	1515.45	628.65
991.7703	2652.6211	1513.45	626.55
991.8942	2653.8801	1514.35	629.3
992.018	2655.1385	1511.4	620.1
992.1418	2656.3961	1512.3	625.15
992.2655	2657.6531	1506.65	618.25
992.3892	2658.9094	1513.15	625.7
992.5129	2660.1651	1508.6	619.1
992.6366	2661.42	1517.65	628.1
992.7602	2662.6743	1515.6	627
992.8837	2663.9279	1522.1	634.45
993.0073	2665.1808	1518.3	628.7
993.1307	2666.433	1513.55	624.95
993.2542	2667.6846	1521.85	634.25
993.3776	2668.9354	1518.15	628.6
993.501	2670.1856	1523.8	634.55
993.6244	2671.4351	1522.1	634
993.7477	2672.6839	1522	632.85
993.8709	2673.9321	1522.4	636.25
993.9942	2675.1795	1530.15	641.7
994.1174	2676.4263	1525.55	636.5
994.2405	2677.6724	1526.25	639.45
994.3637	2678.9179	1530.35	642.4
994.4868	2680.1626	1524.05	636.3
994.6098	2681.4067	1530.15	642.9
994.7328	2682.6501	1530.95	643.4
994.8558	2683.8928	1531.7	643.6
994.9788	2685.1348	1520.4	631.9
995.1017	2686.3761	1517.9	630.6
995.2245	2687.6168	1520.55	633.75
995.3474	2688.8568	1513.6	626.6
995.4702	2690.0961	1507.95	620.4
995.5929	2691.3348	1500.6	610.95
995.7156	2692.5727	1502	614.8
995.8383	2693.81	1497.85	610.4
995.961	2695.0466	1495.5	607.55
996.0836	2696.2826	1493.9	602.85
996.2062	2697.5178	1504.35	613.2
996.3287	2698.7524	1498.65	608.9
996.4512	2699.9863	1495.45	605.95
996.5737	2701.2195	1508.4	621.2
996.6961	2702.452	1514.5	625.85
996.8185	2703.6839	1504.25	614.1
996.9408	2704.9151	1505.15	619.05
997.0631	2706.1456	1511.45	625.2
997.1854	2707.3755	1520.7	632.1
997.3077	2708.6046	1530.75	639.65
997.4299	2709.8331	1540.6	652.55
997.552	2711.0609	1537.15	647.9
997.6742	2712.2881	1542.4	654.65
997.7963	2713.5145	1559.45	666.75
997.9183	2714.7403	1557.95	671.25
998.0403	2715.9654	1573.85	685
998.1623	2717.1899	1597.65	694.9
998.2842	2718.4136	1589.65	702.9
998.4062	2719.6367	1607.8	722.8
998.528	2720.8591	1619.6	721.95
998.6498	2722.0809	1634.7	748.55
998.7716	2723.3019	1637.35	746.75
998.8934	2724.5223	1640.3	752.45
999.0151	2725.7421	1649.75	760.05
999.1368	2726.9611	1652.55	763.65
999.2584	2728.1795	1656.4	765.1
999.38	2729.3972	1632.65	745.25
999.5016	2730.6142	1641.05	741.15
999.6231	2731.8306	1614.05	723.5
999.7446	2733.0462	1601.2	712.45
999.8661	2734.2612	1585.65	695.4
999.9875	2735.4756	1570.2	681.5
1000.1089	2736.6892	1548.4	659.5
1000.2302	2737.9022	1535.1	649.6
1000.3515	2739.1145	1526.95	639.7
1000.4728	2740.3262	1516.4	621.6
1000.594	2741.5372	1497.9	612.1
1000.7152	2742.7475	1488.6	599.05
1000.8363	2743.9571	1482.5	595.7
1000.9575	2745.1661	1477.15	586.15
1001.0785	2746.3744	1459.8	573.85
1001.1996	2747.582	1453.4	568.45
1001.3206	2748.7889	1443.5	554.35
1001.4415	2749.9952	1434.7	548.7
1001.5625	2751.2008	1433.75	546.15
1001.6833	2752.4057	1433.5	545
1001.8042	2753.61	1427.9	540.35
1001.925	2754.8136	1420.65	533.4
1002.0458	2756.0165	1419.35	533.65
1002.1665	2757.2188	1422.55	536.1
1002.2872	2758.4204	1416.1	529.25
1002.4078	2759.6213	1418.8	530.7
1002.5285	2760.8215	1418.2	527.35
1002.649	2762.0211	1417.15	529.95
1002.7696	2763.22	1414.3	524.25
1002.8901	2764.4182	1416.6	529.75
1003.0106	2765.6158	1416.9	531.95
1003.131	2766.8127	1409.4	521.35
1003.2514	2768.009	1403.25	515.8
1003.3717	2769.2045	1401.75	513
1003.492	2770.3994	1411.15	521.5
1003.6123	2771.5936	1394.05	505.9
1003.7325	2772.7872	1390.3	506.8
1003.8527	2773.9801	1395.4	509.05
1003.9729	2775.1723	1410.75	507.65
1004.093	2776.3639	1389.45	504.65
1004.2131	2777.5548	1391.75	503.95
1004.3331	2778.745	1389.05	502.55
1004.4531	2779.9346	1394.7	507.15
1004.5731	2781.1235	1391.4	505.55
1004.693	2782.3117	1392.65	508
1004.8129	2783.4992	1397.8	514.75
1004.9328	2784.6861	1408.05	522.15
1005.0526	2785.8723	1402.55	516.45
1005.1723	2787.0579	1409.15	524.2
1005.2921	2788.2428	1419.6	534.6
1005.4118	2789.427	1426.55	542.25
1005.5314	2790.6106	1431.7	546.5
1005.651	2791.7935	1443.3	556.85
1005.7706	2792.9757	1448.9	564.8
1005.8902	2794.1573	1460	571.9
1006.0097	2795.3382	1475.9	591.3
1006.1291	2796.5184	1481.3	597.15
1006.2485	2797.698	1493.45	607.05
1006.3679	2798.8769	1511.8	627.3
1006.4873	2800.0551	1520.75	635.25
1006.6066	2801.2327	1546.05	659.6
1006.7258	2802.4096	1563.35	677.9
1006.8451	2803.5859	1575.55	688.05
1006.9642	2804.7615	1592.35	705.75
1007.0834	2805.9364	1617.85	732.9
1007.2025	2807.1106	1647.3	763.6
1007.3216	2808.2842	1667.2	779.75
1007.4406	2809.4572	1703.2	816.9
1007.5596	2810.6294	1726.4	838.9
1007.6785	2811.801	1763.2	878.25
1007.7975	2812.972	1813.7	929.35
1007.9163	2814.1423	1851.75	966.05
1008.0352	2815.3119	1886.85	1002.45
1008.154	2816.4808	1938.7	1055.55
1008.2727	2817.6491	1983.55	1097.7
1008.3914	2818.8167	2034.5	1151.85
1008.5101	2819.9837	2092.65	1202.95
1008.6288	2821.15	2138.7	1253.7
1008.7474	2822.3157	2188.5	1303.8
1008.8659	2823.4807	2245.5	1358.85
1008.9844	2824.645	2295.55	1409.2
1009.1029	2825.8086	2324.2	1438.85
1009.2214	2826.9716	2381.05	1495.35
1009.3398	2828.134	2435.45	1553.85
1009.4581	2829.2957	2462.35	1579.65
1009.5764	2830.4567	2491.4	1607.9
1009.6947	2831.617	2511.55	1627.4
1009.813	2832.7767	2528.3	1643.55
1009.9312	2833.9358	2534.6	1649.85
1010.0493	2835.0941	2521.8	1634.9
1010.1675	2836.2519	2500.95	1618.75
1010.2855	2837.4089	2497.45	1612.9
1010.4036	2838.5653	2490.45	1604.85
1010.5216	2839.7211	2487	1604.75
1010.6396	2840.8761	2499.95	1615.05
1010.7575	2842.0306	2504.95	1621.35
1010.8754	2843.1843	2536.1	1652.6
1010.9932	2844.3374	2592.25	1709.85
1011.111	2845.4899	2636.15	1752.15
1011.2288	2846.6417	2697.6	1812.55
1011.3465	2847.7928	2768.15	1884.65
1011.4642	2848.9433	2844.4	1962.05
1011.5818	2850.0931	2908.95	2026.15
1011.6995	2851.2422	2990.2	2103.4
1011.817	2852.3907	3052.45	2168.9
1011.9345	2853.5385	3121.2	2233.85
1012.052	2854.6857	3171.45	2277.3
1012.1695	2855.8323	3223.8	2339.7
1012.2869	2856.9781	3267.75	2384.75
1012.4042	2858.1233	3309.75	2425.55
1012.5216	2859.2679	3347	2463.6
1012.6389	2860.4118	3412.15	2528.2
1012.7561	2861.555	3437.85	2546.1
1012.8733	2862.6976	3486.25	2601.05
1012.9905	2863.8395	3501.9	2617.35
1013.1076	2864.9808	3538.75	2655.6
1013.2247	2866.1214	3560.75	2678.4
1013.3417	2867.2614	3574.45	2690.85
1013.4587	2868.4007	3596.75	2712.2
1013.5757	2869.5393	3607.25	2723.9
1013.6926	2870.6773	3613.15	2726.35
1013.8095	2871.8146	3632.85	2745.6
1013.9263	2872.9513	3614.2	2725.35
1014.0431	2874.0874	3623.6	2737.05
1014.1599	2875.2227	3615.95	2731.2
1014.2766	2876.3574	3604.2	2720.55
1014.3933	2877.4915	3561.45	2678.05
1014.51	2878.6249	3542.4	2660.95
1014.6266	2879.7577	3521.55	2637.1
1014.7431	2880.8898	3525.3	2631.5
1014.8596	2882.0212	3491.9	2607.8
1014.9761	2883.152	3482.3	2598.95
1015.0925	2884.2821	3472	2587.9
1015.2089	2885.4116	3469.7	2586.75
1015.3253	2886.5405	3456.4	2574.35
1015.4416	2887.6686	3458.4	2570.95
1015.5579	2888.7962	3469.1	2588.95
1015.6741	2889.923	3470.8	2590.6
1015.7903	2891.0493	3476.25	2594.8
1015.9065	2892.1748	3502.5	2618.7
1016.0226	2893.2997	3520.7	2634.4
1016.1387	2894.424	3522.9	2640
1016.2547	2895.5476	3543.55	2662.4
1016.3707	2896.6706	3565.9	2683.75
1016.4866	2897.7929	3599.8	2716.9
1016.6025	2898.9145	3622.7	2737.55
1016.7184	2900.0355	3648.05	2765.95
1016.8342	2901.1559	3674.7	2791.2
1016.95	2902.2756	3716.1	2836.25
1017.0658	2903.3946	3747.05	2864.45
1017.1815	2904.513	3779.15	2892.9
1017.2971	2905.6308	3805.65	2923.05
1017.4127	2906.7479	3835.65	2951.9
1017.5283	2907.8643	3852.2	2967.45
1017.6439	2908.9801	3873.65	2992.2
1017.7594	2910.0953	3861.75	2980.75
1017.8748	2911.2098	3880.15	2995.45
1017.9902	2912.3236	3854.75	2963.7
1018.1056	2913.4368	3844.65	2959.6
1018.2209	2914.5494	3830.8	2948
1018.3362	2915.6613	3810.45	2922.5
1018.4515	2916.7725	3778.75	2892.25
1018.5667	2917.8831	3770.3	2886.9
1018.6819	2918.9931	3720.4	2835.8
1018.797	2920.1024	3688	2803.9
1018.9121	2921.211	3676.5	2793.15
1019.0271	2922.319	3648.65	2766.8
1019.1421	2923.4264	3645.7	2764.7
1019.2571	2924.5331	3622.7	2740.25
1019.372	2925.6391	3613.3	2733.2
1019.4869	2926.7445	3621.75	2739.3
1019.6017	2927.8493	3589.6	2707.1
1019.7165	2928.9534	3598.6	2717.9
1019.8313	2930.0569	3610.65	2725.8
1019.946	2931.1597	3603.4	2719.05
1020.0606	2932.2619	3589	2707.85
1020.1753	2933.3634	3591.75	2709.7
1020.2899	2934.4643	3592.5	2704.6
1020.4044	2935.5645	3559.6	2671.5
1020.5189	2936.6641	3546.35	2660.4
1020.6334	2937.763	3495.15	2612.75
1020.7478	2938.8613	3463.45	2580.25
1020.8622	2939.959	3390.4	2499.75
1020.9765	2941.056	3320.35	2437.45
1021.0908	2942.1523	3255.2	2369.65
1021.2051	2943.248	3174.3	2291
1021.3193	2944.3431	3082.55	2203.25
1021.4334	2945.4375	2986.9	2105.2
1021.5476	2946.5313	2875.85	1994.35
1021.6617	2947.6244	2777.3	1897.4
1021.7757	2948.7169	2679.25	1797.25
1021.8897	2949.8087	2587.85	1704.5
1022.0037	2950.8999	2495.35	1612.45
1022.1176	2951.9904	2420.95	1539.55
1022.2315	2953.0803	2342.3	1461.65
1022.3453	2954.1696	2293.25	1410.75
1022.4591	2955.2582	2234.85	1352.2
1022.5728	2956.3462	2183.45	1302
1022.6865	2957.4335	2151.3	1268.65
1022.8002	2958.5202	2115.6	1231.95
1022.9138	2959.6062	2093.5	1213.2
1023.0274	2960.6916	2071.3	1188.35
1023.141	2961.7764	2045.75	1161.55
1023.2545	2962.8605	2033.3	1149.15
1023.3679	2963.9439	2020.8	1139.8
1023.4813	2965.0267	2004.65	1123.05
1023.5947	2966.1089	2012.9	1108.45
1023.708	2967.1905	2004	1122.5
1023.8213	2968.2714	2007.4	1128.05
1023.9346	2969.3516	1987.55	1104.95
1024.0478	2970.4312	2006.2	1116.35
1024.1609	2971.5102	1989.95	1109.85
1024.274	2972.5885	1981.9	1100.1
1024.3871	2973.6662	2002.9	1117.35
1024.5002	2974.7432	2003.25	1120.55
1024.6132	2975.8196	1987.05	1106.55
1024.7261	2976.8954	1981.55	1100.25
1024.839	2977.9705	1970.25	1089.85
1024.9519	2979.045	1949.7	1068.5
1025.0647	2980.1188	1943.5	1062.3
1025.1775	2981.192	1924.5	1046.3
1025.2902	2982.2645	1905.2	1022.2
1025.4029	2983.3364	1880.35	999.2
1025.5156	2984.4077	1846.25	966.4
1025.6282	2985.4783	1827.15	940.1
1025.7407	2986.5483	1788.45	907.2
1025.8532	2987.6177	1761	879.4
1025.9657	2988.6864	1731.6	849.6
1026.0782	2989.7545	1695.15	813.75
1026.1906	2990.8219	1658.7	776.4
1026.3029	2991.8887	1632.35	750.05
1026.4152	2992.9548	1591.7	711.4
1026.5275	2994.0204	1561.65	681.7
1026.6397	2995.0852	1539	658.35
1026.7519	2996.1495	1509.55	628.85
1026.864	2997.2131	1489.5	608.2
1026.9761	2998.276	1470.25	589.45
1027.0882	2999.3383	1446.1	563.6
1027.2002	3000.4	1431.15	549.2
1027.3122	3001.4611	1409.7	528.3
1027.4241	3002.5215	1399.75	518.8
1027.536	3003.5812	1378.9	496.7
1027.6478	3004.6404	1375.4	495.15
1027.7596	3005.6989	1361.85	478.95
1027.8714	3006.7567	1349.3	469.2
1027.9831	3007.8139	1372.05	457.7
1028.0947	3008.8705	1335.4	455.4
1028.2064	3009.9264	1325.45	440.35
1028.3179	3010.9818	1316.5	437.55
1028.4295	3012.0364	1317.75	435.7
1028.541	3013.0905	1315.85	436.6
1028.6524	3014.1439	1304.55	423.15
1028.7638	3015.1966	1310.85	429.85
1028.8752	3016.2487	1305.95	425.55
1028.9865	3017.3002	1308.8	420.1
1029.0978	3018.3511	1302.2	422.65
1029.209	3019.4013	1302.25	420.35
1029.3202	3020.4509	1302.5	421.15
1029.4314	3021.4998	1297.75	416.15
1029.5425	3022.5481	1303.45	423.8
1029.6535	3023.5958	1296.4	415.2
1029.7645	3024.6428	1294	412.85
1029.8755	3025.6892	1290	410.55
1029.9864	3026.735	1301.3	420.2
1030.0973	3027.7802	1305.95	424.9
1030.2082	3028.8247	1307.2	427.5
1030.319	3029.8685	1300.3	420.1
1030.4297	3030.9118	1305.4	422.45
1030.5404	3031.9544	1304.3	422.8
1030.6511	3032.9963	1308.2	428.8
1030.7617	3034.0376	1317.7	435.85
1030.8723	3035.0783	1318.45	434.65
1030.9829	3036.1184	1330.1	449.1
1031.0934	3037.1578	1327.6	447.85
1031.2038	3038.1966	1331.95	449.05
1031.3142	3039.2348	1326.95	447.1
1031.4246	3040.2723	1339.1	453.15
1031.5349	3041.3092	1327.3	449.95
1031.6452	3042.3455	1332	451.4
1031.7554	3043.3811	1329.1	446.65
1031.8656	3044.4161	1321.3	440.65
1031.9758	3045.4505	1319.8	441.2
1032.0859	3046.4842	1310.1	429.2
1032.1959	3047.5173	1309.25	428.95
1032.3059	3048.5498	1311.3	429.9
1032.4159	3049.5816	1296.85	415.8
1032.5258	3050.6128	1296.1	413.65
1032.6357	3051.6434	1286.8	405
1032.7455	3052.6734	1288.5	407
1032.8553	3053.7027	1281.2	402.75
1032.9651	3054.7314	1271.45	390.85
1033.0748	3055.7594	1269.8	390
1033.1845	3056.7868	1261.35	379.6
1033.2941	3057.8136	1260.35	379.15
1033.4037	3058.8398	1254	375.4
1033.5132	3059.8653	1253.75	373.6
1033.6227	3060.8902	1247.35	367.35
1033.7321	3061.9145	1243.55	363.2
1033.8415	3062.9381	1246.3	364.95
1033.9509	3063.9612	1249.05	353.95
1034.0602	3064.9835	1233.6	353.7
1034.1694	3066.0053	1220.2	336.25
1034.2787	3067.0264	1220.6	339.45
1034.3878	3068.0469	1218.7	338.5
1034.497	3069.0668	1210.4	327.35
1034.6061	3070.086	1205.25	325.9
1034.7151	3071.1046	1197.5	317.7
1034.8241	3072.1226	1188.8	306.65
1034.9331	3073.1399	1182.2	301.8
1035.042	3074.1567	1176.65	299.6
1035.1508	3075.1727	1163.25	281.1
1035.2597	3076.1882	1153.05	275.4
1035.3684	3077.203	1147.1	266.55
1035.4772	3078.2173	1146.75	264.75
1035.5859	3079.2308	1138.9	255.65
1035.6945	3080.2438	1128.8	245.75
1035.8031	3081.2561	1122.75	243.2
1035.9117	3082.2678	1114.45	233.15
1036.0202	3083.2789	1104.9	223.45
1036.1286	3084.2893	1099.9	221.15
1036.2371	3085.2991	1094.85	215.05
1036.3454	3086.3083	1090.45	203.3
1036.4538	3087.3169	1087.25	206.65
1036.562	3088.3248	1086.5	205.7
1036.6703	3089.3321	1083.05	199.2
1036.7785	3090.3388	1072.05	193.95
1036.8866	3091.3449	1073	192.6
1036.9948	3092.3503	1076.35	196.05
1037.1028	3093.3551	1064.4	186.6
1037.2108	3094.3593	1059.8	182.25
1037.3188	3095.3629	1056.7	176.7
1037.4267	3096.3658	1057.75	177.95
1037.5346	3097.3681	1052.35	173
1037.6425	3098.3698	1052.5	170.4
1037.7503	3099.3708	1054.75	168.95
1037.858	3100.3713	1043.7	165.2
1037.9657	3101.3711	1046.1	166.8
1038.0734	3102.3702	1178.7	166.05
1038.181	3103.3688	1040.3	159.15
1038.2886	3104.3667	1032.55	154.8
1038.3961	3105.364	1037.15	157.75
1038.5036	3106.3607	1032.75	150.45
1038.611	3107.3568	1031.5	150.55
1038.7184	3108.3522	1029.25	151.7
1038.8257	3109.347	1030.6	150.35
1038.933	3110.3412	1023.55	140.75
1039.0403	3111.3348	1024.65	147.05
1039.1475	3112.3277	1021.75	141.75
1039.2547	3113.32	1021.8	142
1039.3618	3114.3117	1020.75	140.85
1039.4689	3115.3028	1018.35	138.4
1039.5759	3116.2932	1016.75	135.2
1039.6829	3117.2831	1025.2	139.7
1039.7898	3118.2723	1010.35	130.7
1039.8967	3119.2608	1011.5	132.5
1040.0035	3120.2488	1012.55	133.45
1040.1103	3121.2361	1009.2	128.05
1040.2171	3122.2229	1007.15	129.3
1040.3238	3123.209	1007.55	128.4
1040.4305	3124.1944	1001.95	123.85
1040.5371	3125.1793	1004.8	124.4
1040.6437	3126.1635	1004.9	125.55
1040.7502	3127.1471	1001.8	122.65
1040.8567	3128.1301	1002.85	123.25
1040.9631	3129.1125	998.3	119.35
1041.0695	3130.0942	996.85	118.7
1041.1759	3131.0753	1010.05	122.15
1041.2822	3132.0558	1000.55	119.45
1041.3884	3133.0357	998.25	119.9
1041.4946	3134.015	996.5	118.8
1041.6008	3134.9936	994.8	115.6
1041.7069	3135.9716	1013.75	114.8
1041.813	3136.949	994.05	114
1041.919	3137.9258	1007.3	109.6
1042.025	3138.902	996.35	111.2
1042.1309	3139.8775	988.35	111.65
1042.2368	3140.8524	990.25	111.15
1042.3427	3141.8267	989.1	108.8
1042.4485	3142.8004	986.25	106.2
1042.5542	3143.7735	997.3	113.3
1042.6599	3144.7459	983.8	103.6
1042.7656	3145.7178	982.4	102.75
1042.8712	3146.689	978.85	103.05
1042.9768	3147.6596	985.8	104
1043.0823	3148.6295	980.3	99.3
1043.1878	3149.5989	981.45	102.4
1043.2932	3150.5676	979.3	103.5
1043.3986	3151.5357	979.05	103.9
1043.5039	3152.5032	978.15	102
1043.6092	3153.4701	976.05	97.2
1043.7145	3154.4364	978.5	97.75
1043.8197	3155.402	973.7	94.05
1043.9248	3156.367	976.95	97
1044.03	3157.3315	1008.75	98.45
1044.135	3158.2952	972.6	93.8
1044.24	3159.2584	970.6	94.6
1044.345	3160.221	969.1	89.9
1044.4499	3161.1829	970.6	93.25
1044.5548	3162.1442	967.25	89.45
1044.6596	3163.105	968.15	89.25
1044.7644	3164.065	969.6	92.45
1044.8692	3165.0245	968.15	87.9
1044.9739	3165.9834	965.7	89.8
1045.0785	3166.9416	969.45	91.5
1045.1831	3167.8993	965.4	86.85
1045.2877	3168.8563	965.7	86.2
1045.3922	3169.8127	966.05	88.25
1045.4966	3170.7684	965.2	86.25
1045.6011	3171.7236	963.5	83.1
1045.7054	3172.6782	961.85	83.85
1045.8098	3173.6321	963	83.95
1045.914	3174.5854	964.9	81.4
1046.0183	3175.5381	961.1	82.65
1046.1224	3176.4902	960.2	82.35
1046.2266	3177.4417	962.45	84.65
1046.3307	3178.3926	962.7	85.75
1046.4347	3179.3428	961.25	84.1
1046.5387	3180.2924	956.5	80.3
1046.6427	3181.2415	962.25	83.25
1046.7466	3182.1899	957.8	79.65
1046.8504	3183.1377	955.25	78.3
1046.9542	3184.0848	960.3	78.35
1047.058	3185.0314	954.55	75.7
1047.1617	3185.9773	954.4	78.1
1047.2654	3186.9227	955.35	75.4
1047.369	3187.8674	953.9	80.15
1047.4726	3188.8115	957.35	74.8
1047.5761	3189.755	951.6	73.75
1047.6796	3190.6979	953.25	74.25
1047.783	3191.6402	950.75	73.15
1047.8864	3192.5818	951.2	74.6
1047.9898	3193.5229	969.7	72.85
1048.0931	3194.4633	950.55	71.7
1048.1963	3195.4031	950.45	71.55
1048.2995	3196.3423	950.1	69.65
1048.4027	3197.2809	946.4	68.8
1048.5058	3198.2189	949.85	70.15
1048.6089	3199.1563	954.9	70.35
1048.7119	3200.0931	948.85	74.1
1048.8148	3201.0292	948.9	69.1
1048.9178	3201.9648	948.45	71.6
1049.0206	3202.8997	951.15	69.35
1049.1235	3203.834	943	63.95
1049.2262	3204.7677	945.35	68.05
1049.329	3205.7008	948.95	68.25
1049.4317	3206.6333	945.55	70.6
1049.5343	3207.5652	944	64.6
1049.6369	3208.4964	944.8	63.15
1049.7394	3209.4271	944.5	66.65
1049.8419	3210.3571	940.45	60.8
1049.9444	3211.2865	947.8	69.15
1050.0468	3212.2154	944.15	66.2
1050.1491	3213.1436	944.6	63.45
1050.2514	3214.0712	948.45	64.65
1050.3537	3214.9982	942.95	62.65
1050.4559	3215.9246	940.5	62.2
1050.5581	3216.8503	937.7	61.5
1050.6602	3217.7755	941.9	61.85
1050.7623	3218.7001	940.65	63.55
1050.8643	3219.624	940.5	62.2
1050.9663	3220.5473	941.55	65.05
1051.0682	3221.4701	943.55	66.6
1051.1701	3222.3922	939.15	58.5
1051.2719	3223.3137	941.35	65.1
1051.3737	3224.2346	939.35	61.35
1051.4754	3225.1549	937.3	59.6
1051.5771	3226.0746	935.05	56.05
1051.6788	3226.9937	938.8	60.65
1051.7804	3227.9121	933.9	57.75
1051.8819	3228.83	938.95	61
1051.9834	3229.7473	937.45	57.85
1052.0849	3230.6639	935.8	59.05
1052.1863	3231.5799	938.25	58.65
1052.2876	3232.4954	937.1	59.35
1052.3889	3233.4102	936.8	61.45
1052.4902	3234.3244	935.05	55.75
1052.5914	3235.238	935.8	58.15
1052.6926	3236.151	955.9	54.15
1052.7937	3237.0634	933.8	58.95
1052.8948	3237.9752	933.65	56.65
1052.9958	3238.8864	934.55	54.3
1053.0968	3239.797	933.75	56
1053.1977	3240.7069	935.6	57.8
1053.2986	3241.6163	931.55	52.95
1053.3994	3242.5251	930.75	56.95
1053.5002	3243.4332	929.95	51.65
1053.6009	3244.3408	931.1	52.9
1053.7016	3245.2477	930.85	54.3
1053.8022	3246.154	931.7	54.35
1053.9028	3247.0598	929.3	51.8
1054.0034	3247.9649	931.85	53.95
1054.1039	3248.8694	929.15	53.3
1054.2043	3249.7733	928.25	52.05
1054.3047	3250.6766	927.8	49.35
1054.4051	3251.5793	928.55	50.9
1054.5054	3252.4814	928.8	52.8
1054.6056	3253.3829	923.75	47
1054.7058	3254.2838	924.35	48.4
1054.806	3255.1841	921.45	44.45
1054.9061	3256.0838	926.6	48.9
1055.0061	3256.9829	925.15	47.3
1055.1062	3257.8814	925.9	45.95
1055.2061	3258.7792	923.4	45.25
1055.306	3259.6765	923.3	44.15
1055.4059	3260.5731	921.75	45.2
1055.5057	3261.4692	920.9	43.7
1055.6055	3262.3647	922.45	46.15
1055.7052	3263.2595	918.85	41.2
1055.8049	3264.1538	919.35	42
1055.9045	3265.0474	918.75	43.5
1056.0041	3265.9404	917.05	41.1
1056.1036	3266.8329	915.6	40.05
1056.2031	3267.7247	928.45	41.65
1056.3025	3268.616	913.85	39.9
1056.4019	3269.5066	914.7	40.9
1056.5013	3270.3966	915.7	37.95
1056.6005	3271.286	910.9	38.2
