Software Version:	3.9.2.0
Unit SN:	10000200
Spectrometer SN:	6960
Date:	3/8/2024 12:54:58 PM
Data Line Index:	25
Spectral Points:	2048
Integration time (ms):	125
Averages:	20
Delay (ms):	30000
Sequence Number:	1
Processing:	dark subtract
Laser Power (mW):	295
Laser Current (mA):	823
Laser Diode Temp (C):	25
Laser Case Temp (C):	26.1
System Temp (C):	26.1
Spectrometer Temp (C):	23.9
CCD Temp (C):	0.009
Secondary Temp (C):	20.006
Heatsink Temp (C):	20.377
CCDPCB Temp (C):	36.229
SecondaryPCB Temp (C):	30.015

Wavelength	RamanShift	Raw Counts	Dark Subtracted
787.061	30.1047	455.95	47.45
787.2016	32.3739	454.15	48.1
787.3422	34.6426	461.5	53.8
787.4828	36.9109	468.5	59.45
787.6235	39.1787	475.65	61.95
787.7642	41.4461	481.3	63.75
787.9049	43.7131	491.9	70.8
788.0456	45.9796	499.7	74.4
788.1863	48.2456	509.65	80.25
788.3271	50.5112	518.4	86.7
788.4679	52.7764	528.3	93.45
788.6087	55.0411	537	98.35
788.7496	57.3054	550	105.3
788.8904	59.5692	557.6	108.55
789.0313	61.8326	568.45	120.6
789.1722	64.0955	582.05	129.2
789.3132	66.3579	599.65	143.2
789.4541	68.6199	611.7	148
789.5951	70.8815	655.95	189.25
789.7361	73.1426	734.8	264
789.8771	75.4032	947.35	474
790.0181	77.6634	1458.7	980.2
790.1592	79.9231	2666.7	2177
790.3003	82.1824	5299.35	4789.55
790.4414	84.4412	9958.4	9414.85
790.5825	86.6995	16368.4	15780.25
790.7237	88.9574	22540.1	21917.3
790.8648	91.2148	26743.45	26095.55
791.006	93.4717	28600.55	27933.5
791.1472	95.7282	28862.3	28187.5
791.2885	97.9842	28516.7	27832.25
791.4297	100.2398	27798.15	27113.9
791.571	102.4949	26988.9	26300.25
791.7123	104.7495	26030.4	25338.7
791.8536	107.0036	25121.1	24430.85
791.9949	109.2573	24291.7	23605.65
792.1363	111.5105	23494.2	22799.5
792.2777	113.7632	22776.1	22083
792.4191	116.0154	22185.25	21483.7
792.5605	118.2672	21759.7	21054.7
792.7019	120.5185	21327.1	20625.8
792.8434	122.7693	20958.85	20252.5
792.9849	125.0197	20685.9	19978.8
793.1264	127.2696	20418.45	19709.65
793.2679	129.519	20199.05	19483.7
793.4094	131.7679	19934.15	19211.4
793.551	134.0163	19649.8	18930.35
793.6926	136.2642	19308.05	18585.25
793.8342	138.5117	19003.55	18271.15
793.9758	140.7587	18646.45	17912.85
794.1175	143.0052	18320.4	17585.3
794.2591	145.2512	17958.5	17229.2
794.4008	147.4967	17669.7	16937.7
794.5425	149.7417	17446.95	16718.35
794.6842	151.9863	17256.75	16517
794.826	154.2304	17140.55	16392.4
794.9677	156.4739	16987.85	16237.35
795.1095	158.717	16890.35	16138.55
795.2513	160.9596	16708	15955.2
795.3931	163.2017	16464.9	15705.85
795.535	165.4433	16145.4	15383.6
795.6768	167.6844	15802.2	15041.45
795.8187	169.925	15491	14730.65
795.9606	172.1651	15114.95	14355.7
796.1025	174.4047	14840.2	14073.95
796.2445	176.6439	14567.95	13800.9
796.3864	178.8825	14356.25	13583.25
796.5284	181.1206	14209.6	13430.4
796.6704	183.3582	14065.2	13280.95
796.8124	185.5954	13947.5	13170.45
796.9544	187.832	13864.3	13079.15
797.0965	190.0681	13838.35	13048.65
797.2386	192.3037	13838.8	13046.2
797.3806	194.5388	13801.8	13006.15
797.5228	196.7734	13894.4	13096.35
797.6649	199.0075	13947.15	13145.4
797.807	201.2411	14065.15	13263.25
797.9492	203.4742	14143.9	13343.6
798.0914	205.7068	14303.5	13497.7
798.2336	207.9389	14421.45	13618.45
798.3758	210.1704	14556.35	13754.85
798.518	212.4015	14683.25	13895.6
798.6603	214.632	14847.1	14064.6
798.8025	216.862	14971.9	14190.15
798.9448	219.0915	15090.05	14306.4
799.0871	221.3205	15274.25	14484.75
799.2294	223.549	15356.85	14574.05
799.3718	225.777	15511.75	14726.2
799.5141	228.0044	15679.1	14886.9
799.6565	230.2314	15909.85	15113.95
799.7989	232.4578	16111.3	15317.1
799.9413	234.6837	16281.75	15484.75
800.0837	236.909	16369.45	15563.25
800.2262	239.1339	16433.45	15600.2
800.3687	241.3582	16306.45	15486.5
800.5111	243.582	16160.35	15313.7
800.6536	245.8053	16000.15	15167.25
800.7961	248.0281	15852.45	15029.95
800.9387	250.2503	15781.4	14948.2
801.0812	252.472	15804.3	14968.5
801.2238	254.6932	15905.1	15072.85
801.3664	256.9139	15944.35	15106.05
801.509	259.134	16095.95	15257.35
801.6516	261.3536	16267.7	15433.95
801.7942	263.5727	16554	15713.5
801.9369	265.7912	16757.6	15918.25
802.0795	268.0092	17025.95	16186.35
802.2222	270.2267	17137.95	16306.7
802.3649	272.4436	17219.8	16376.3
802.5076	274.6601	17233.8	16387.35
802.6504	276.8759	17130.75	16287.7
802.7931	279.0913	17044.2	16203.5
802.9359	281.3061	16913.7	16070.4
803.0787	283.5204	16893.1	16041.25
803.2215	285.7341	16896.6	16047.1
803.3643	287.9473	16942.6	16079.45
803.5071	290.16	17034.35	16180.5
803.6499	292.3721	17184.45	16335.75
803.7928	294.5837	17475.35	16620.55
803.9357	296.7947	17715.15	16864.25
804.0786	299.0052	17892.65	17040.8
804.2215	301.2152	17823.3	16967.85
804.3644	303.4246	17608.1	16756.15
804.5074	305.6334	17215.4	16366.1
804.6503	307.8418	16775.15	15925.25
804.7933	310.0495	16348.65	15490.25
804.9363	312.2568	15958.6	15099.9
805.0793	314.4635	15599.05	14740.3
805.2223	316.6696	15349.4	14491.8
805.3653	318.8752	15137.05	14265.75
805.5084	321.0802	15077.5	14214.15
805.6514	323.2847	15144.65	14274.1
805.7945	325.4887	15183	14312.8
805.9376	327.692	15153	14288.4
806.0807	329.8949	15096.8	14226.65
806.2238	332.0972	14882.65	14008.75
806.367	334.2989	14623.25	13751.45
806.5101	336.5001	14359.1	13484.8
806.6533	338.7007	14206.15	13330.6
806.7965	340.9008	14023.05	13152.3
806.9397	343.1003	13878.3	12997.4
807.0829	345.2992	13801.35	12923.65
807.2261	347.4976	13720.85	12842.2
807.3693	349.6955	13638.85	12754.95
807.5126	351.8927	13640.55	12756.1
807.6559	354.0895	13575.1	12680
807.7991	356.2856	13580.85	12695.65
807.9424	358.4812	13499.45	12614.15
808.0857	360.6763	13544.95	12654.8
808.2291	362.8707	13534.5	12645.4
808.3724	365.0646	13566.45	12674.3
808.5158	367.258	13602.65	12712.1
808.6591	369.4508	13634.15	12739.9
808.8025	371.643	13780.1	12883.5
808.9459	373.8346	13861.4	12964.6
809.0893	376.0257	13912	13012.6
809.2327	378.2162	13919.65	13023.75
809.3762	380.4062	13868.15	12971.7
809.5196	382.5956	13728.3	12838
809.6631	384.7844	13649.95	12763.1
809.8066	386.9726	13498.4	12613.55
809.9501	389.1603	13425.1	12539.1
810.0936	391.3474	13365.65	12455.6
810.2371	393.5339	13339	12445.15
810.3806	395.7199	13313.7	12425.6
810.5241	397.9052	13345.05	12450.35
810.6677	400.09	13423.3	12536.1
810.8113	402.2743	13526.2	12635.9
810.9548	404.4579	13712.65	12822.55
811.0984	406.641	13907.7	13011.9
811.2421	408.8235	14074.25	13186.85
811.3857	411.0054	14278.6	13383.45
811.5293	413.1868	14555.1	13648.8
811.673	415.3675	14671.3	13765.4
811.8166	417.5477	14739.05	13833.5
811.9603	419.7273	14696.85	13791.6
812.104	421.9064	14625.25	13717.65
812.2477	424.0848	14541.5	13638.5
812.3914	426.2627	14364.75	13462.75
812.5351	428.4399	14125.85	13221.5
812.6788	430.6166	13824.45	12918.3
812.8226	432.7928	13438.35	12529.55
812.9663	434.9683	13143.8	12237.75
813.1101	437.1432	12909.5	12004.85
813.2539	439.3176	12723.65	11828.65
813.3977	441.4914	12599.8	11709.4
813.5415	443.6645	12578.95	11679.4
813.6853	445.8371	12515.15	11611.9
813.8291	448.0091	12491.5	11588.2
813.973	450.1806	12448.65	11549.45
814.1168	452.3514	12428.4	11530.05
814.2607	454.5216	12465.9	11555.65
814.4046	456.6913	12417.65	11514.2
814.5485	458.8603	12472.5	11570
814.6924	461.0288	12521.5	11624.3
814.8363	463.1967	12521.05	11623.85
814.9802	465.3639	12566.35	11669.9
815.1241	467.5306	12572.7	11671.25
815.2681	469.6967	12618.1	11719.3
815.412	471.8622	12665.15	11767.1
815.556	474.0271	12757.85	11861.4
815.7	476.1914	12796.65	11887.55
815.844	478.3551	12805.95	11903.3
815.988	480.5182	12831.35	11932.5
816.132	482.6807	12939.45	12049.65
816.276	484.8426	13076.05	12191.95
816.4201	487.0039	13416.85	12523.4
816.5641	489.1647	13778.5	12876.95
816.7082	491.3248	14156	13250.55
816.8522	493.4843	14278.5	13377.8
816.9963	495.6432	14282.7	13384.25
817.1404	497.8015	14139.85	13230.55
817.2845	499.9592	14052.35	13134.05
817.4286	502.1163	13905.75	12988.85
817.5727	504.2728	13571.05	12664
817.7168	506.4287	13291.05	12396.4
817.861	508.5839	12925.35	12031.2
818.0051	510.7386	12724	11822
818.1493	512.8927	12624	11710.45
818.2935	515.0461	12575.8	11662.4
818.4377	517.199	12615.85	11702.5
818.5818	519.3512	12764.95	11853.1
818.726	521.5029	12977.8	12062.55
818.8703	523.6539	13209.4	12300.05
819.0145	525.8043	13274.9	12359.95
819.1587	527.9541	13248.05	12332.75
819.303	530.1033	13067.4	12152.4
819.4472	532.2519	12979	12066.9
819.5915	534.3999	12970.5	12055.3
819.7357	536.5472	13068.8	12157.55
819.88	538.694	13332.55	12424.75
820.0243	540.8401	13705.95	12792.85
820.1686	542.9856	14014.8	13090.15
820.3129	545.1305	14075	13146.35
820.4572	547.2748	13982.4	13050.25
820.6016	549.4185	13743.9	12810.15
820.7459	551.5615	13573.8	12642
820.8902	553.704	13544.5	12617
821.0346	555.8458	13557.6	12633.25
821.1789	557.987	13725.65	12801.1
821.3233	560.1276	13915.1	12989.4
821.4677	562.2675	14214.95	13285.05
821.6121	564.4069	14617.35	13687.3
821.7565	566.5456	14987.35	14063.2
821.9009	568.6837	15073.15	14146.7
822.0453	570.8212	14703.8	13780.45
822.1897	572.958	14092.6	13171.1
822.3342	575.0942	13529.1	12609.95
822.4786	577.2299	13150.6	12234.2
822.6231	579.3648	12946.2	12041.75
822.7675	581.4992	12886.45	11988.95
822.912	583.6329	13001.9	12108.15
823.0565	585.766	13212.75	12312.3
823.201	587.8985	13344.1	12439.6
823.3454	590.0304	13406.7	12466.75
823.4899	592.1616	13377.5	12450.55
823.6345	594.2922	13248.8	12319.15
823.779	596.4222	13066.6	12134.05
823.9235	598.5515	12869	11936.35
824.068	600.6802	12671.55	11745.45
824.2126	602.8083	12518	11593.05
824.3571	604.9358	12505.8	11578.55
824.5017	607.0626	12518.85	11586.45
824.6462	609.1888	12578.85	11642.4
824.7908	611.3144	12692	11753.7
824.9354	613.4393	12773.35	11838.35
825.08	615.5636	12838.95	11903.1
825.2246	617.6873	12805.95	11873.8
825.3692	619.8103	12740.45	11804.6
825.5138	621.9327	12556.55	11621.95
825.6584	624.0544	12421.25	11492.2
825.803	626.1756	12260.05	11332.5
825.9477	628.2961	12111.7	11178.4
826.0923	630.4159	12037	11101.95
826.237	632.5351	12021.3	11083.05
826.3816	634.6537	11983.75	11046.9
826.5263	636.7716	11987.9	11045.45
826.6709	638.8889	12031.35	11085.7
826.8156	641.0056	12002.9	11054.4
826.9603	643.1216	12009.3	11065.25
827.105	645.237	11979.55	11037.9
827.2497	647.3518	11913.15	10979
827.3944	649.4659	11874.05	10947.2
827.5391	651.5793	11830.6	10906.4
827.6838	653.6922	11792.45	10861.1
827.8285	655.8043	11790.75	10856.8
827.9733	657.9159	11783.4	10852.1
828.118	660.0268	11743.5	10816.2
828.2627	662.137	11721.4	10785.75
828.4075	664.2466	11731.2	10789.6
828.5522	666.3556	11728.65	10788.95
828.697	668.4639	11681.6	10745.55
828.8418	670.5716	11659.85	10732.9
828.9865	672.6786	11683.95	10747.7
829.1313	674.785	11652.3	10709.95
829.2761	676.8907	11616.3	10677.9
829.4209	678.9958	11652.5	10716.1
829.5657	681.1002	11637.8	10699.15
829.7105	683.204	11648.65	10701.9
829.8553	685.3072	11611.4	10666.1
830.0001	687.4097	11574.05	10632.05
830.1449	689.5115	11552.1	10603.75
830.2898	691.6127	11552.2	10614.65
830.4346	693.7132	11502.3	10569.3
830.5794	695.8131	11532.4	10581.7
830.7243	697.9123	11542.95	10597.5
830.8691	700.0109	11532.6	10582.55
831.014	702.1089	11574.2	10630.2
831.1588	704.2061	11608.5	10665.2
831.3037	706.3028	11660.65	10716.5
831.4486	708.3987	11724.95	10777
831.5935	710.4941	11750.8	10803.8
831.7383	712.5887	11812.35	10865.45
831.8832	714.6827	11925.7	10977.45
832.0281	716.7761	12146.85	11207.55
832.173	718.8688	12371.85	11431.35
832.3179	720.9608	12528.9	11579.7
832.4628	723.0522	12634.8	11680.25
832.6077	725.1429	12640.3	11689
832.7527	727.233	12645.15	11695.4
832.8976	729.3224	12644.25	11698.95
833.0425	731.4112	12525.3	11582.1
833.1874	733.4993	12354.65	11409
833.3324	735.5867	12168.15	11224.35
833.4773	737.6735	11964.3	11016.35
833.6222	739.7596	11814.65	10867
833.7672	741.845	11691.4	10744.45
833.9122	743.9298	11649.2	10701.15
834.0571	746.014	11566.9	10614.65
834.2021	748.0974	11553.7	10598.7
834.347	750.1802	11549.2	10594.35
834.492	752.2624	11564.45	10609.3
834.637	754.3439	11626.25	10671.2
834.782	756.4247	11731.4	10774.95
834.9269	758.5048	11912.65	10963.9
835.0719	760.5843	12194.45	11238.9
835.2169	762.6631	12588.25	11634.75
835.3619	764.7413	13138.55	12189.95
835.5069	766.8188	13841.4	12887.9
835.6519	768.8956	14408.75	13453.1
835.7969	770.9718	14778.25	13827.75
835.9419	773.0473	14704.55	13751.25
836.0869	775.1221	14446.2	13492.9
836.232	777.1962	14145.1	13193.05
836.377	779.2697	13989.2	13034.05
836.522	781.3426	14036.65	13070.9
836.667	783.4147	14168.65	13214.55
836.8121	785.4862	14309.85	13355
836.9571	787.557	14171.65	13219.05
837.1021	789.6271	13733.4	12777.15
837.2472	791.6966	13154.1	12198.1
837.3922	793.7654	12523.7	11572.05
837.5373	795.8335	12132.35	11179.55
837.6823	797.901	11833.55	10878.5
837.8274	799.9678	11671.5	10710.9
837.9724	802.0339	11632.2	10676.1
838.1175	804.0993	11617	10648.45
838.2626	806.1641	11526.1	10571.55
838.4076	808.2282	11460.05	10502.85
838.5527	810.2916	11394.55	10440.15
838.6978	812.3544	11317.5	10365.3
838.8428	814.4164	11247.05	10293.9
838.9879	816.4778	11293.1	10331.75
839.133	818.5385	11315.1	10357.45
839.2781	820.5986	11453.6	10492.75
839.4232	822.658	11678.55	10719.3
839.5682	824.7166	11955.85	10997.55
839.7133	826.7747	12427.2	11468.15
839.8584	828.832	12897.15	11940.55
840.0035	830.8886	13232.3	12270.15
840.1486	832.9446	13398.05	12440.35
840.2937	834.9999	13282.85	12325.15
840.4388	837.0545	13057.7	12093.85
840.5839	839.1085	12779.8	11822.9
840.729	841.1618	12517.3	11554.35
840.8741	843.2143	12310.65	11351.2
841.0192	845.2662	12114.65	11155
841.1643	847.3175	12030.5	11070.35
841.3095	849.368	11890.4	10933.7
841.4546	851.4179	11802.2	10841.75
841.5997	853.467	11704.7	10745.75
841.7448	855.5155	11596.95	10638
841.8899	857.5633	11538.05	10576.05
842.0351	859.6105	11428.3	10468.45
842.1802	861.6569	11357.25	10394.85
842.3253	863.7027	11288.1	10322.9
842.4704	865.7478	11238.9	10276.95
842.6156	867.7922	11213.8	10253.45
842.7607	869.8359	11209.6	10246.45
842.9058	871.8789	11267.9	10301.15
843.0509	873.9212	11401.35	10408.25
843.1961	875.9629	11462.05	10497.55
843.3412	878.0039	11607.8	10647.05
843.4863	880.0441	11705.1	10748.85
843.6315	882.0837	11758.15	10796.5
843.7766	884.1226	11746.55	10782.05
843.9218	886.1609	11772.15	10814.6
844.0669	888.1984	11832.25	10867.9
844.212	890.2352	11929.75	10969.4
844.3572	892.2714	11956.1	10988.75
844.5023	894.3069	11926.15	10965.1
844.6475	896.3416	11752.75	10791.65
844.7926	898.3757	11659.2	10698.65
844.9377	900.4091	11576.25	10610.7
845.0829	902.4418	11567.95	10601.65
845.228	904.4739	11565.45	10596.05
845.3732	906.5052	11608.4	10640.9
845.5183	908.5358	11567.65	10601.85
845.6635	910.5658	11424.25	10455.4
845.8086	912.595	11232.8	10265.95
845.9538	914.6236	10997.55	10031.05
846.0989	916.6515	10899.4	9938.7
846.2441	918.6786	10842.25	9876.05
846.3892	920.7051	10852.05	9884.45
846.5344	922.7309	10910.75	9941.9
846.6795	924.756	10945.9	9979.4
846.8246	926.7804	10996.2	10032.4
846.9698	928.8041	11008.15	10039.65
847.1149	930.8272	11036.2	10072.45
847.2601	932.8495	11030.5	10065.7
847.4052	934.8711	11037	10069.2
847.5504	936.892	10959.95	9995.95
847.6955	938.9123	10927.2	9962.2
847.8407	940.9318	10923.6	9956.85
847.9858	942.9506	10898.45	9932.6
848.131	944.9688	10794.9	9831
848.2761	946.9862	10705.55	9740.45
848.4213	949.003	10583.05	9616.9
848.5664	951.019	10534.55	9568.1
848.7115	953.0344	10481.2	9517.75
848.8567	955.0491	10463.75	9499.6
849.0018	957.063	10530.65	9560.65
849.147	959.0763	10613.75	9651.45
849.2921	961.0888	10639.4	9676.15
849.4373	963.1007	10715.65	9753.5
849.5824	965.1119	10715.35	9761.8
849.7275	967.1223	10720.2	9772.5
849.8727	969.1321	10709.45	9761.5
850.0178	971.1412	10710.45	9753.75
850.1629	973.1495	10720.65	9759.45
850.3081	975.1572	10779.2	9772.55
850.4532	977.1641	10757.35	9793.6
850.5983	979.1704	10712	9745.6
850.7435	981.1759	10712.4	9742.3
850.8886	983.1808	10724.6	9759.35
851.0337	985.1849	10775.2	9801.75
851.1788	987.1884	10854.05	9888.55
851.324	989.1911	10955.85	9991.8
851.4691	991.1932	11040	10077.55
851.6142	993.1945	11083.15	10124.15
851.7593	995.1951	11034.1	10072.15
851.9045	997.1951	11031.25	10059.9
852.0496	999.1943	10974.45	10005.45
852.1947	1001.1928	10975.2	10012.2
852.3398	1003.1906	10991.15	10027.25
852.4849	1005.1877	11113.75	10146.8
852.63	1007.1841	11141.65	10177.75
852.7751	1009.1798	11132.35	10167.45
852.9202	1011.1748	11047.4	10082
853.0653	1013.1691	10881.1	9915.3
853.2104	1015.1627	10681.95	9718.5
853.3555	1017.1556	10483.2	9523.4
853.5006	1019.1477	10348.5	9389.1
853.6457	1021.1392	10263.85	9310.65
853.7908	1023.1299	10202.75	9251.25
853.9359	1025.12	10200.7	9258.85
854.081	1027.1093	10285.65	9354.8
854.2261	1029.0979	10393.9	9467.35
854.3712	1031.0859	10480	9547.15
854.5163	1033.0731	10520.45	9572.6
854.6613	1035.0596	10481.35	9529.9
854.8064	1037.0454	10353.5	9396.2
854.9515	1039.0304	10270.2	9312.65
855.0965	1041.0148	10150.15	9188.25
855.2416	1042.9985	10032.8	9071.3
855.3867	1044.9814	10015	9055.1
855.5317	1046.9636	9942.15	8982.35
855.6768	1048.9452	9960.35	9005.05
855.8219	1050.926	9974.75	9013.75
855.9669	1052.9061	9995.5	9035.35
856.112	1054.8855	10008.8	9044.8
856.257	1056.8642	10048.35	9086
856.4021	1058.8421	10102.35	9137.8
856.5471	1060.8194	10159.1	9195.25
856.6921	1062.7959	10164.05	9202.1
856.8372	1064.7717	10238.7	9279.5
856.9822	1066.7469	10296.45	9335.1
857.1272	1068.7213	10375.3	9412.85
857.2723	1070.695	10431.95	9471.85
857.4173	1072.6679	10438.45	9477.5
857.5623	1074.6402	10459.25	9499.65
857.7073	1076.6117	10430.3	9463.3
857.8523	1078.5826	10339.6	9379.05
857.9973	1080.5527	10232.7	9267.85
858.1423	1082.5221	10160.3	9198.55
858.2873	1084.4908	10177.85	9222.35
858.4323	1086.4587	10232.2	9272.25
858.5773	1088.426	10306.8	9345.9
858.7223	1090.3925	10332.75	9365.1
858.8673	1092.3584	10360.7	9396.8
859.0123	1094.3235	10316.45	9356.3
859.1573	1096.2879	10360.2	9400.05
859.3022	1098.2515	10478.45	9518.35
859.4472	1100.2145	10614.3	9655.65
859.5922	1102.1767	10773.35	9810.9
859.7371	1104.1382	10987.25	10027.05
859.8821	1106.099	11264.35	10302.9
860.027	1108.0591	11489.15	10526.9
860.172	1110.0185	11623.2	10663.4
860.3169	1111.9771	11705.05	10745
860.4619	1113.9351	11588.95	10629.35
860.6068	1115.8923	11400.8	10444.2
860.7517	1117.8488	11242.75	10281.45
860.8967	1119.8045	11026.1	10066.3
861.0416	1121.7596	10913.95	9953.15
861.1865	1123.7139	10779.35	9824.7
861.3314	1125.6675	10745.1	9786.65
861.4763	1127.6204	10788.85	9832.4
861.6212	1129.5726	10768.75	9807.35
861.7661	1131.524	10663.45	9701.95
861.911	1133.4748	10550.45	9590.8
862.0559	1135.4248	10399.05	9440.4
862.2008	1137.3741	10281.1	9322.95
862.3457	1139.3226	10202.45	9245.3
862.4905	1141.2705	10134.2	9172.55
862.6354	1143.2176	10031.6	9067.25
862.7803	1145.164	9998.7	9034.45
862.9251	1147.1097	9939.05	8978.45
863.07	1149.0546	9854.55	8892.7
863.2148	1150.9989	9776.8	8814.6
863.3597	1152.9424	9656.35	8699.2
863.5045	1154.8852	9580.15	8621.25
863.6493	1156.8272	9511.1	8553.35
863.7942	1158.7686	9516.45	8550.5
863.939	1160.7092	9506.15	8546.7
864.0838	1162.6491	9563.4	8604.15
864.2286	1164.5883	9675.5	8718.2
864.3734	1166.5267	9776.3	8820.1
864.5182	1168.4644	9930.25	8971.4
864.663	1170.4014	10116.55	9157.35
864.8078	1172.3377	10376.75	9421.75
864.9526	1174.2732	10674.4	9722.25
865.0974	1176.2081	11055.9	10099.85
865.2421	1178.1421	11512	10549.35
865.3869	1180.0755	12007.45	11049.85
865.5317	1182.0082	12331.6	11375.65
865.6764	1183.9401	12466.05	11510.5
865.8212	1185.8713	12330.85	11381.05
865.9659	1187.8017	12036.4	11098.3
866.1106	1189.7315	11656.65	10722.8
866.2554	1191.6605	11301.35	10370.9
866.4001	1193.5888	11013.7	10073.45
866.5448	1195.5163	10869.5	9923.7
866.6895	1197.4432	10794.6	9843.55
866.8342	1199.3693	10724.9	9773.9
866.9789	1201.2947	10692.2	9730.75
867.1236	1203.2193	10664.7	9708.45
867.2683	1205.1432	10673.85	9719.65
867.413	1207.0664	10635.75	9684.65
867.5576	1208.9889	10628.4	9671.8
867.7023	1210.9106	10632.65	9679.2
867.847	1212.8316	10635.2	9679.4
867.9916	1214.7519	10670.3	9710.4
868.1363	1216.6715	10685.65	9736.2
868.2809	1218.5903	10756.7	9801.85
868.4255	1220.5084	10826.1	9873.55
868.5701	1222.4257	10916.6	9966.5
868.7148	1224.3424	10949.5	10001.4
868.8594	1226.2583	11039.3	10088.35
869.004	1228.1735	11164.35	10210.4
869.1486	1230.0879	11303.3	10349.25
869.2932	1232.0016	11490.45	10536.5
869.4377	1233.9146	11593.3	10637
869.5823	1235.8269	11582	10630.65
869.7269	1237.7384	11525.35	10574.7
869.8715	1239.6492	11387.45	10437
870.016	1241.5592	11353.65	10403.5
870.1606	1243.4686	11349.55	10397.95
870.3051	1245.3772	11499.9	10545.1
870.4496	1247.285	11658.55	10706.5
870.5941	1249.1922	11819.65	10866.7
870.7387	1251.0986	11931.5	10978.2
870.8832	1253.0042	11978.2	11023.9
871.0277	1254.9092	12090.75	11139.6
871.1722	1256.8134	12199.05	11253.55
871.3167	1258.7169	12329.6	11379.65
871.4611	1260.6196	12484.2	11532.6
871.6056	1262.5216	12733.6	11783.6
871.7501	1264.4229	12904.75	11959.65
871.8945	1266.3234	13147.4	12197.3
872.039	1268.2232	13253.6	12302.45
872.1834	1270.1223	13303.2	12349.55
872.3278	1272.0207	13369.2	12415.65
872.4723	1273.9183	13338.55	12378.6
872.6167	1275.8151	13239.2	12287.5
872.7611	1277.7113	13246.95	12298.45
872.9055	1279.6067	13257.7	12310.4
873.0499	1281.5014	13472.35	12522.15
873.1943	1283.3953	13756.65	12803.8
873.3386	1285.2885	14195.85	13248.55
873.483	1287.181	14588.45	13638.9
873.6274	1289.0727	15011.25	14063.7
873.7717	1290.9637	15280.3	14333.35
873.9161	1292.854	15505.5	14553.65
874.0604	1294.7435	15537.2	14588.2
874.2047	1296.6323	15471.15	14521.45
874.349	1298.5204	15390.35	14438.9
874.4933	1300.4077	15286.3	14331.35
874.6376	1302.2943	15096.85	14146
874.7819	1304.1802	14870.95	13919.85
874.9262	1306.0653	14480.1	13526
875.0705	1307.9497	14034.5	13084.05
875.2147	1309.8333	13668.35	12718.65
875.359	1311.7162	13385.9	12439.05
875.5032	1313.5984	13181.55	12229.95
875.6475	1315.4798	13125.1	12160.45
875.7917	1317.3605	13059.2	12094.8
875.9359	1319.2405	12939.7	11990.05
876.0801	1321.1197	12692.8	11740.3
876.2243	1322.9982	12434.3	11480.95
876.3685	1324.876	12199.55	11250.75
876.5127	1326.753	11913.8	10963.45
876.6569	1328.6293	11745.15	10793.8
876.801	1330.5048	11660.55	10703.75
876.9452	1332.3796	11494.1	10549.95
877.0893	1334.2537	11408.45	10436.4
877.2335	1336.127	11336.4	10388.3
877.3776	1337.9996	11295.15	10346.2
877.5217	1339.8714	11298.55	10347.6
877.6658	1341.7426	11319.2	10326.8
877.8099	1343.6129	11313.75	10366.8
877.954	1345.4826	11316.5	10365.35
878.0981	1347.3515	11308	10355.45
878.2422	1349.2196	11295.5	10345.75
878.3862	1351.087	11296.55	10348.85
878.5303	1352.9537	11349.4	10397.55
878.6743	1354.8197	11489.5	10536.35
878.8184	1356.6849	11646.35	10696
878.9624	1358.5493	11784.8	10831.85
879.1064	1360.4131	11960.55	11009.8
879.2504	1362.276	12058.15	11109.65
879.3944	1364.1383	12034.85	11089
879.5384	1365.9998	11838.5	10884.65
879.6823	1367.8606	11533.75	10580.35
879.8263	1369.7206	11155.6	10205.2
879.9702	1371.5799	10824.8	9871.75
880.1142	1373.4384	10561.95	9611.95
880.2581	1375.2962	10327.9	9377.05
880.402	1377.1533	10010.95	9066.75
880.5459	1379.0096	9629	8685.05
880.6898	1380.8652	9318.55	8375.3
880.8337	1382.7201	9030.8	8086.25
880.9776	1384.5742	8787.8	7839.8
881.1215	1386.4275	8582.55	7633.25
881.2653	1388.2802	8424.15	7478.05
881.4092	1390.132	8313.85	7363.55
881.553	1391.9832	8272.2	7321.65
881.6968	1393.8336	8165.4	7216.4
881.8406	1395.6832	8108.45	7154.3
881.9844	1397.5322	8050.5	7101.95
882.1282	1399.3803	8031.55	7077.7
882.272	1401.2278	8008.25	7062
882.4158	1403.0745	8008.95	7065.8
882.5595	1404.9204	7988.95	7044.95
882.7033	1406.7656	8017	7073
882.847	1408.6101	8042.75	7095.9
882.9908	1410.4538	8070.65	7123.05
883.1345	1412.2968	8095.4	7146.85
883.2782	1414.139	8148.15	7203.8
883.4219	1415.9805	8237.55	7292.15
883.5656	1417.8213	8291.35	7339.5
883.7092	1419.6613	8400.95	7455.2
883.8529	1421.5006	8552.95	7608.05
883.9965	1423.3391	8772.15	7827.85
884.1402	1425.1769	9049.8	8103.2
884.2838	1427.0139	9487.7	8540.7
884.4274	1428.8502	10044.7	9097.6
884.571	1430.6858	10594.15	9650.7
884.7146	1432.5206	10982.2	10038
884.8582	1434.3547	11218.35	10271.75
885.0018	1436.188	11256.1	10310.4
885.1453	1438.0206	11156.45	10211.7
885.2889	1439.8524	10989.2	10042.8
885.4324	1441.6835	10903.15	9958.85
885.5759	1443.5139	10813	9867.85
885.7194	1445.3435	10699	9755.75
885.8629	1447.1724	10676.05	9734.9
886.0064	1449.0005	10628.6	9684.15
886.1499	1450.8279	10556.45	9611.45
886.2933	1452.6545	10536.9	9596.4
886.4368	1454.4804	10577.85	9636.95
886.5802	1456.3056	10546.5	9598.8
886.7237	1458.13	10459.3	9519.55
886.8671	1459.9536	10326.45	9384.4
887.0105	1461.7766	10060.95	9120.75
887.1539	1463.5987	9706.25	8763.85
887.2972	1465.4202	9358.35	8414.75
887.4406	1467.2409	8996.25	8052.05
887.584	1469.0608	8746.75	7803.95
887.7273	1470.88	8452.85	7511
887.8706	1472.6984	8228.95	7286.95
888.0139	1474.5161	8039.9	7093.55
888.1572	1476.3331	7883.95	6942.55
888.3005	1478.1493	7758.55	6817.45
888.4438	1479.9648	7643.1	6701.25
888.5871	1481.7795	7564.3	6620.8
888.7303	1483.5935	7512.85	6573.2
888.8736	1485.4067	7452.1	6509.1
889.0168	1487.2192	7398.1	6452.95
889.16	1489.031	7360.1	6414.45
889.3032	1490.842	7322.95	6382
889.4464	1492.6522	7282.55	6340.65
889.5896	1494.4618	7241.05	6297.1
889.7327	1496.2705	7210.7	6269.1
889.8759	1498.0785	7169.4	6228.5
890.019	1499.8858	7147.25	6205.2
890.1622	1501.6924	7096	6157.1
890.3053	1503.4981	7076.05	6137.3
890.4484	1505.3032	7025.9	6082.45
890.5914	1507.1075	6974.8	6032.2
890.7345	1508.911	6940.6	5998.35
890.8776	1510.7138	6899.15	5959.05
891.0206	1512.5159	6818.35	5876.8
891.1637	1514.3172	6788	5853.15
891.3067	1516.1178	6757.4	5821
891.4497	1517.9176	6719	5778
891.5927	1519.7166	6686.15	5748.8
891.7357	1521.515	6641.1	5696.9
891.8786	1523.3126	6642.35	5706.4
892.0216	1525.1094	6620.65	5680.65
892.1645	1526.9055	6573.7	5639.35
892.3074	1528.7008	6567.65	5631
892.4503	1530.4954	6524.4	5587.45
892.5932	1532.2893	6527.4	5592.8
892.7361	1534.0824	6489.6	5552.5
892.879	1535.8747	6486.2	5555.4
893.0218	1537.6663	6482.15	5549.65
893.1647	1539.4572	6468.1	5533.75
893.3075	1541.2473	6476.25	5542.6
893.4503	1543.0367	6487.2	5554.75
893.5931	1544.8253	6474.65	5535.05
893.7359	1546.6132	6512.25	5578.45
893.8787	1548.4003	6538.65	5596.35
894.0214	1550.1867	6583.3	5643.6
894.1642	1551.9723	6635.85	5700.3
894.3069	1553.7572	6722.8	5790.2
894.4496	1555.5414	6829.25	5901.7
894.5923	1557.3247	6944.85	6017.25
894.735	1559.1074	7102.15	6176.55
894.8777	1560.8893	7269.7	6342.3
895.0204	1562.6705	7401.5	6477.95
895.163	1564.4509	7530.6	6604.3
895.3056	1566.2305	7590.7	6669
895.4482	1568.0094	7644.9	6724.05
895.5908	1569.7876	7649.4	6725.75
895.7334	1571.565	7625.7	6698.2
895.876	1573.3417	7632.15	6705.9
896.0186	1575.1176	7599.55	6678.5
896.1611	1576.8928	7589.05	6668.75
896.3036	1578.6672	7579.05	6662.9
896.4461	1580.4409	7556.05	6642.4
896.5886	1582.2138	7570.85	6651.3
896.7311	1583.986	7581.85	6661.25
896.8736	1585.7575	7627.75	6706.75
897.0161	1587.5282	7692.25	6775.2
897.1585	1589.2981	7771.05	6856.05
897.3009	1591.0673	7834.5	6918.55
897.4433	1592.8358	7938.5	7024.25
897.5857	1594.6035	8023.6	7103.55
897.7281	1596.3704	8113.85	7190.9
897.8705	1598.1366	8199.8	7281.05
898.0128	1599.9021	8327.15	7412.9
898.1551	1601.6668	8415.75	7499.45
898.2975	1603.4308	8534.1	7612.85
898.4398	1605.194	8707.4	7784.75
898.5821	1606.9564	8882.35	7971.25
898.7243	1608.7182	9119.35	8211.3
898.8666	1610.4791	9419.4	8516.95
899.0088	1612.2394	9682.25	8779.6
899.1511	1613.9988	9972.7	9067.65
899.2933	1615.7576	10286.6	9378.3
899.4355	1617.5156	10479.25	9556.35
899.5776	1619.2728	10569.6	9648.3
899.7198	1621.0293	10549.5	9630.65
899.862	1622.785	10370.05	9450.6
900.0041	1624.54	10075.45	9162
900.1462	1626.2942	9745.15	8833.95
900.2883	1628.0477	9371.35	8458.6
900.4304	1629.8005	9019.55	8105.5
900.5725	1631.5525	8712.95	7801.2
900.7145	1633.3037	8428.55	7518.7
900.8566	1635.0542	8238.1	7330.05
900.9986	1636.804	8087.2	7175.3
901.1406	1638.553	8049.65	7048.75
901.2826	1640.3013	7901.85	6989.95
901.4245	1642.0488	7863.25	6950.2
901.5665	1643.7955	7899.95	6993.65
901.7085	1645.5416	7951.55	7043.8
901.8504	1647.2868	8057.05	7146
901.9923	1649.0313	8148.2	7235.45
902.1342	1650.7751	8302.75	7388.4
902.2761	1652.5181	8467.5	7557.1
902.4179	1654.2604	8640.6	7732.95
902.5598	1656.0019	8880.1	7972.95
902.7016	1657.7427	9128.25	8220.55
902.8434	1659.4828	9418.25	8506.75
902.9852	1661.222	9581.85	8666.6
903.127	1662.9606	9535.75	8624.2
903.2687	1664.6984	9314.3	8397.3
903.4105	1666.4354	8888.7	7970.4
903.5522	1668.1717	8350.85	7431.75
903.6939	1669.9072	7770.45	6854.6
903.8356	1671.642	7289.15	6373.65
903.9773	1673.3761	6893.7	5981.85
904.119	1675.1094	6552.75	5641.45
904.2606	1676.8419	6310	5400.35
904.4022	1678.5737	6109.55	5198.05
904.5439	1680.3048	5948.2	5032.5
904.6855	1682.0351	5807.85	4894.9
904.827	1683.7646	5693.95	4776.75
904.9686	1685.4934	5620.45	4709.65
905.1101	1687.2215	5532.6	4621.65
905.2517	1688.9488	5451.55	4544.85
905.3932	1690.6754	5381.65	4471.5
905.5347	1692.4012	5350.15	4439.5
905.6761	1694.1263	5283.4	4369.25
905.8176	1695.8506	5270.85	4355.25
905.9591	1697.5742	5200.05	4293.85
906.1005	1699.297	5153.15	4246.4
906.2419	1701.0191	5134.05	4229.2
906.3833	1702.7404	5106.15	4201.95
906.5246	1704.461	5057.15	4148.35
906.666	1706.1808	5016.1	4107.85
906.8073	1707.8999	4996.75	4090.9
906.9487	1709.6182	4968.15	4065.75
907.09	1711.3358	4937.7	4036.25
907.2313	1713.0527	4915.1	4017.85
907.3725	1714.7688	4873.2	3966.1
907.5138	1716.4841	4846.9	3940.35
907.655	1718.1987	4837.6	3926.85
907.7962	1719.9126	4822.1	3921.65
907.9374	1721.6257	4796.95	3895.7
908.0786	1723.338	4782	3880.95
908.2198	1725.0496	4763.25	3861.7
908.3609	1726.7605	4764.65	3860.65
908.502	1728.4706	4747.2	3845.35
908.6431	1730.18	4717.65	3816.15
908.7842	1731.8886	4707.9	3808.9
908.9253	1733.5964	4708.65	3788.2
909.0664	1735.3036	4688.8	3781
909.2074	1737.0099	4667.55	3765.45
909.3484	1738.7156	4634.55	3734.65
909.4894	1740.4204	4608.45	3705.4
909.6304	1742.1246	4584.65	3683.15
909.7714	1743.8279	4563.8	3663.1
909.9123	1745.5306	4561.3	3659.5
910.0532	1747.2325	4525.8	3625.55
910.1941	1748.9336	4500.45	3596.9
910.335	1750.634	4472.15	3567
910.4759	1752.3336	4455.75	3555.55
910.6168	1754.0325	4449.35	3554.65
910.7576	1755.7307	4455.7	3559.5
910.8984	1757.4281	4451.2	3550.95
911.0392	1759.1247	4437.45	3523.9
911.18	1760.8206	4429.3	3519.45
911.3208	1762.5158	4432.4	3523.95
911.4615	1764.2102	4400.75	3497.45
911.6022	1765.9039	4380.65	3479.3
911.7429	1767.5968	4374	3475.15
911.8836	1769.289	4353.35	3457.1
912.0243	1770.9804	4352.8	3451.05
912.1649	1772.6711	4351.55	3447.85
912.3056	1774.361	4322.45	3418.8
912.4462	1776.0502	4325.5	3420.9
912.5868	1777.7386	4316.15	3410
912.7274	1779.4263	4301.4	3400.8
912.8679	1781.1132	4303.1	3406.3
913.0084	1782.7994	4294.9	3397.55
913.149	1784.4849	4269.05	3372.95
913.2895	1786.1696	4273.1	3357.8
913.4299	1787.8535	4243.6	3347.7
913.5704	1789.5367	4235.75	3341.6
913.7108	1791.2192	4228.9	3334.95
913.8513	1792.9009	4255.65	3330.85
913.9917	1794.5818	4222.85	3321.05
914.132	1796.2621	4204.4	3302.9
914.2724	1797.9415	4215.1	3311.2
914.4128	1799.6202	4196	3293.25
914.5531	1801.2982	4187.7	3287.15
914.6934	1802.9755	4178.7	3275.35
914.8337	1804.6519	4173.3	3270.65
914.9739	1806.3277	4152.1	3255.45
915.1142	1808.0027	4136.25	3241.3
915.2544	1809.6769	4133.05	3236.85
915.3946	1811.3504	4130.85	3236.95
915.5348	1813.0231	4113.25	3218.45
915.675	1814.6951	4122.3	3227
915.8151	1816.3664	4117.4	3218.9
915.9553	1818.0369	4086.5	3187.3
916.0954	1819.7067	4093.25	3195.25
916.2355	1821.3757	4087.75	3186.85
916.3755	1823.044	4085.9	3184.05
916.5156	1824.7115	4068.15	3164.7
916.6556	1826.3783	4041.95	3141.35
916.7956	1828.0443	4048.4	3151.1
916.9356	1829.7096	4033.75	3132.85
917.0756	1831.3741	4047.2	3144.7
917.2155	1833.0379	4016	3120.05
917.3555	1834.701	4011.6	3116.65
917.4954	1836.3633	3997.4	3102.35
917.6353	1838.0248	4005.2	3109.85
917.7751	1839.6856	4001.55	3102.55
917.915	1841.3457	4003.7	3105
918.0548	1843.005	3991.9	3090.7
918.1946	1844.6636	3993.15	3093.85
918.3344	1846.3214	3990.8	3091.8
918.4742	1847.9785	3970.5	3072.7
918.6139	1849.6349	3961.35	3063.1
918.7537	1851.2904	3964.85	3053.1
918.8934	1852.9453	3952.35	3051.8
919.0331	1854.5994	3939.1	3036.55
919.1727	1856.2528	3947.25	3040.8
919.3124	1857.9054	3935.95	3034.1
919.452	1859.5572	3933.5	3034.7
919.5916	1861.2083	3910	3010.15
919.7312	1862.8587	3914.4	3014.3
919.8708	1864.5084	3908	3005.45
920.0103	1866.1572	3907.5	3006.35
920.1498	1867.8054	3876.35	2972.5
920.2893	1869.4528	3884.1	2980
920.4288	1871.0994	3872.9	2971.05
920.5683	1872.7453	3860.1	2957
920.7077	1874.3905	3859.5	2952.75
920.8471	1876.0349	3855.45	2953.3
920.9865	1877.6786	3852.2	2950.5
921.1259	1879.3215	3841.4	2943.8
921.2653	1880.9637	3833.3	2933.85
921.4046	1882.6051	3830.1	2934.4
921.5439	1884.2458	3814.5	2915.2
921.6832	1885.8858	3817.35	2918.25
921.8225	1887.525	3790.4	2891.7
921.9617	1889.1634	3787	2886.5
922.101	1890.8011	3762.8	2860.65
922.2402	1892.4381	3759.85	2861.7
922.3794	1894.0743	3755.15	2857.85
922.5185	1895.7098	3757.05	2857.7
922.6577	1897.3446	3743	2843.2
922.7968	1898.9786	3731.8	2829.6
922.9359	1900.6118	3731.2	2832.65
923.075	1902.2443	3726.8	2830.35
923.214	1903.8761	3703.1	2805.6
923.3531	1905.5071	3712.5	2811.25
923.4921	1907.1374	3689.9	2791.35
923.6311	1908.7669	3687.05	2789.15
923.77	1910.3957	3686.6	2791
923.909	1912.0237	3671.6	2774
924.0479	1913.651	3653.75	2752
924.1868	1915.2776	3644.35	2749.95
924.3257	1916.9034	3644	2747.95
924.4646	1918.5285	3630.3	2734.65
924.6034	1920.1528	3613.45	2715.15
924.7422	1921.7764	3601.3	2704.9
924.881	1923.3992	3601.85	2703.65
925.0198	1925.0213	3585.95	2688.4
925.1586	1926.6427	3568.45	2669.45
925.2973	1928.2633	3634	2660.75
925.436	1929.8832	3568.6	2668.95
925.5747	1931.5023	3556.35	2659.25
925.7134	1933.1207	3550.4	2653.3
925.852	1934.7383	3538.45	2641.8
925.9906	1936.3552	3527.15	2631.8
926.1292	1937.9714	3521.4	2621.95
926.2678	1939.5868	3501.95	2602.5
926.4064	1941.2015	3494.8	2593.55
926.5449	1942.8154	3490.75	2591.35
926.6834	1944.4286	3471.6	2571.4
926.8219	1946.041	3469.7	2553.55
926.9604	1947.6528	3454.25	2550.5
927.0988	1949.2637	3462.2	2565.9
927.2372	1950.8739	3423.9	2526.7
927.3756	1952.4834	3441.8	2543.7
927.514	1954.0921	3441.25	2542.85
927.6523	1955.7001	3424.65	2524.8
927.7907	1957.3074	3405.65	2513.35
927.929	1958.9139	3399.5	2509.5
928.0673	1960.5197	3409.95	2517.15
928.2055	1962.1247	3380.6	2489.3
928.3438	1963.729	3376.1	2483.95
928.482	1965.3325	3355.6	2456.05
928.6202	1966.9353	3348.3	2456.8
928.7584	1968.5374	3347.25	2453.75
928.8965	1970.1387	3334.75	2439.65
929.0346	1971.7393	3322.85	2429.75
929.1727	1973.3392	3310.6	2417.05
929.3108	1974.9383	3309.55	2418.7
929.4489	1976.5366	3291.25	2401.25
929.5869	1978.1342	3283.25	2394.3
929.7249	1979.7311	3284.7	2393.65
929.8629	1981.3273	3281.9	2391.85
930.0009	1982.9227	3272.25	2381.8
930.1388	1984.5173	3263.9	2376.95
930.2767	1986.1112	3243.9	2355.85
930.4146	1987.7044	3245.3	2356.2
930.5525	1989.2968	3227.4	2335.45
930.6904	1990.8885	3229.75	2336.8
930.8282	1992.4795	3227.75	2340.85
930.966	1994.0697	3220.55	2337.05
931.1038	1995.6592	3204.55	2317.6
931.2415	1997.2479	3196.6	2307.55
931.3793	1998.8359	3199.9	2311.5
931.517	2000.4232	3188.95	2305.9
931.6547	2002.0097	3180.05	2301.4
931.7923	2003.5955	3154.25	2268.6
931.93	2005.1805	3161.65	2275.75
932.0676	2006.7648	3152	2268.85
932.2052	2008.3484	3153	2268.4
932.3427	2009.9312	3145	2258.85
932.4803	2011.5133	3145.7	2264.6
932.6178	2013.0946	3121.85	2239.25
932.7553	2014.6752	3123.5	2240.5
932.8928	2016.2551	3114.6	2227.45
933.0302	2017.8342	3115.25	2230.65
933.1676	2019.4126	3109.25	2226.2
933.305	2020.9902	3108.35	2227.85
933.4424	2022.5672	3097.25	2213.9
933.5798	2024.1433	3097.05	2211
933.7171	2025.7188	3072.15	2191.95
933.8544	2027.2935	3067.9	2185.8
933.9917	2028.8674	3059.7	2180.9
934.129	2030.4406	3062.5	2184.85
934.2662	2032.0131	3028.1	2149.95
934.4034	2033.5849	3046	2163.25
934.5406	2035.1559	3040.85	2161.05
934.6778	2036.7261	3050.95	2165.4
934.8149	2038.2957	3028.85	2141.1
934.952	2039.8645	3036.8	2149.9
935.0891	2041.4325	3042	2151.3
935.2262	2042.9998	3026.9	2141.5
935.3632	2044.5664	3015.7	2132.8
935.5002	2046.1323	2998.75	2115.8
935.6372	2047.6974	2978.85	2098.35
935.7742	2049.2617	2982.55	2100.5
935.9111	2050.8254	2998.6	2094.25
936.048	2052.3883	2990.3	2103.05
936.1849	2053.9504	2987.25	2100.5
936.3218	2055.5118	2967.9	2080.15
936.4586	2057.0725	2957.85	2068.55
936.5955	2058.6325	2963.45	2081.25
936.7323	2060.1917	2958.95	2077.6
936.869	2061.7502	2948.2	2062.25
937.0058	2063.3079	2935.1	2054.3
937.1425	2064.8649	2932.2	2047.95
937.2792	2066.4212	2921.95	2037.75
937.4159	2067.9767	2910.7	2025.85
937.5525	2069.5315	2919.3	2035.25
937.6891	2071.0856	2913	2031.4
937.8257	2072.6389	2895.55	2012
937.9623	2074.1915	2904.5	2023.85
938.0989	2075.7433	2885.95	2003.2
938.2354	2077.2945	2872.4	1988.75
938.3719	2078.8448	2878.65	1993.3
938.5084	2080.3945	2851.15	1963.95
938.6448	2081.9434	2870.75	1986.25
938.7812	2083.4916	2869.95	1979.35
938.9176	2085.039	2861.8	1968.95
939.054	2086.5857	2865.7	1969.3
939.1903	2088.1317	2843.5	1947.95
939.3267	2089.677	2841.35	1947.75
939.463	2091.2215	2836.45	1943.4
939.5992	2092.7652	2826.25	1932.2
939.7355	2094.3083	2827.9	1936.2
939.8717	2095.8506	2822.25	1931.25
940.0079	2097.3921	2809.35	1921.35
940.1441	2098.933	2810.15	1921.55
940.2802	2100.4731	2790.25	1898.3
940.4163	2102.0124	2813.2	1903.9
940.5524	2103.5511	2807.4	1915.95
940.6885	2105.089	2797.2	1906.4
940.8245	2106.6261	2795.05	1907.4
940.9606	2108.1626	2786.75	1896.85
941.0965	2109.6983	2804.2	1887.9
941.2325	2111.2332	2780.7	1893.25
941.3684	2112.7675	2759.45	1867.4
941.5044	2114.301	2758.8	1866
941.6403	2115.8337	2770.5	1880.5
941.7761	2117.3657	2756.45	1866.8
941.912	2118.897	2757.9	1866.5
942.0478	2120.4276	2762.05	1866.2
942.1835	2121.9575	2736.65	1845.3
942.3193	2123.4866	2741.65	1847.75
942.455	2125.0149	2736.55	1845.6
942.5907	2126.5426	2719.55	1835.15
942.7264	2128.0695	2714.25	1826.65
942.8621	2129.5956	2708.3	1826.15
942.9977	2131.1211	2714.4	1825.7
943.1333	2132.6458	2691.8	1804.25
943.2689	2134.1698	2698.8	1804.95
943.4044	2135.693	2704.9	1809.25
943.54	2137.2155	2690.85	1795.15
943.6755	2138.7373	2685.15	1795.9
943.8109	2140.2584	2685.7	1801.3
943.9464	2141.7787	2678.65	1791.95
944.0818	2143.2983	2661.85	1783.65
944.2172	2144.8171	2652.65	1771.7
944.3526	2146.3353	2656.95	1772.3
944.4879	2147.8527	2655.2	1769.4
944.6232	2149.3693	2654.7	1763.2
944.7585	2150.8853	2644.9	1753.25
944.8938	2152.4005	2632.65	1740.35
945.029	2153.9149	2636.25	1742.25
945.1642	2155.4287	2636.65	1744.2
945.2994	2156.9417	2618.35	1726.95
945.4346	2158.454	2615.3	1724.8
945.5697	2159.9655	2609.9	1723.05
945.7048	2161.4764	2593.3	1708.55
945.8399	2162.9865	2601.85	1714.85
945.9749	2164.4958	2590.1	1705.75
946.1099	2166.0045	2588.65	1701.25
946.2449	2167.5124	2590.45	1702.05
946.3799	2169.0195	2589.75	1702.25
946.5148	2170.526	2593.9	1700.75
946.6498	2172.0317	2581.95	1691.05
946.7846	2173.5367	2569.65	1680
946.9195	2175.0409	2557.2	1668.85
947.0543	2176.5445	2566.65	1676.2
947.1891	2178.0473	2560.25	1668.5
947.3239	2179.5494	2570.2	1676.25
947.4587	2181.0507	2552.9	1663.55
947.5934	2182.5513	2545.7	1657.4
947.7281	2184.0512	2539.9	1650.4
947.8628	2185.5504	2538.65	1650.2
947.9974	2187.0488	2527.55	1641.9
948.132	2188.5465	2515.75	1629.9
948.2666	2190.0435	2515.65	1628.4
948.4012	2191.5397	2517.05	1625.4
948.5357	2193.0353	2513	1624.35
948.6702	2194.5301	2500.45	1607.95
948.8047	2196.0241	2506.4	1612.65
948.9392	2197.5175	2500.75	1605.2
949.0736	2199.0101	2483.25	1585.6
949.208	2200.502	2482.65	1592.25
949.3424	2201.9931	2479.8	1593
949.4767	2203.4835	2456.8	1572.05
949.611	2204.9733	2485.1	1582.3
949.7453	2206.4622	2460.7	1575.7
949.8796	2207.9505	2459.65	1573.65
950.0138	2209.438	2446.3	1561.05
950.148	2210.9248	2432.75	1548.05
950.2822	2212.4109	2436.7	1550.5
950.4164	2213.8962	2439.85	1545.25
950.5505	2215.3809	2444.8	1546.95
950.6846	2216.8648	2439.75	1544.05
950.8186	2218.3479	2437.3	1538
950.9527	2219.8304	2423.9	1523.4
951.0867	2221.3121	2422.85	1525.6
951.2207	2222.7931	2402.1	1506.5
951.3546	2224.2733	2397.45	1503.1
951.4886	2225.7529	2395.1	1506.4
951.6225	2227.2317	2391.75	1501.5
951.7563	2228.7098	2381.95	1496.5
951.8902	2230.1872	2372.95	1487
952.024	2231.6638	2384.65	1499.85
952.1578	2233.1397	2365.75	1476.6
952.2916	2234.6149	2367.9	1484
952.4253	2236.0894	2353	1464.1
952.559	2237.5632	2371.3	1473.95
952.6927	2239.0362	2350.25	1462.85
952.8263	2240.5085	2351.5	1462.05
952.9599	2241.9801	2343.8	1454.75
953.0935	2243.4509	2336	1444.4
953.2271	2244.921	2349.1	1455.2
953.3606	2246.3904	2330.8	1435.8
953.4941	2247.8591	2323	1430.3
953.6276	2249.3271	2318.5	1425.25
953.7611	2250.7943	2317.15	1425.85
953.8945	2252.2608	2310	1415.6
954.0279	2253.7266	2309.65	1417.55
954.1612	2255.1917	2299	1408.55
954.2946	2256.656	2297.9	1409.9
954.4279	2258.1197	2286.7	1400.6
954.5612	2259.5826	2280.9	1390.1
954.6944	2261.0447	2277.7	1387
954.8276	2262.5062	2276.4	1383.45
954.9608	2263.9669	2289.1	1395.5
955.094	2265.4269	2276.85	1383.65
955.2271	2266.8862	2276.7	1386.4
955.3602	2268.3448	2272.2	1383.15
955.4933	2269.8026	2266.45	1378.85
955.6264	2271.2598	2257.9	1369.7
955.7594	2272.7162	2261.45	1373.65
955.8924	2274.1719	2250.9	1360.7
956.0253	2275.6268	2250.6	1356.3
956.1583	2277.0811	2244.25	1351.65
956.2912	2278.5346	2245.6	1355.85
956.4241	2279.9874	2246.1	1357.3
956.5569	2281.4395	2241.55	1355.55
956.6897	2282.8908	2243.95	1352.25
956.8225	2284.3414	2240.75	1349.7
956.9553	2285.7914	2227.4	1338.35
957.088	2287.2406	2229.95	1335.5
957.2207	2288.689	2231.45	1338.2
957.3534	2290.1368	2229.85	1331
957.486	2291.5838	2229.45	1329.95
957.6186	2293.0302	2218.35	1320.55
957.7512	2294.4758	2211.2	1315.5
957.8838	2295.9206	2202.15	1306.85
958.0163	2297.3648	2204.1	1315.95
958.1488	2298.8082	2197.1	1307.05
958.2813	2300.251	2187.6	1296.9
958.4137	2301.693	2195.2	1299.4
958.5461	2303.1343	2197.4	1302.9
958.6785	2304.5748	2184.55	1293.25
958.8108	2306.0147	2170.05	1282.15
958.9432	2307.4538	2176.7	1286.3
959.0754	2308.8922	2166.15	1282.7
959.2077	2310.3299	2170.1	1283.1
959.3399	2311.7669	2162.05	1275.75
959.4721	2313.2031	2165.15	1273.55
959.6043	2314.6387	2153.75	1262
959.7365	2316.0735	2144.9	1256.4
959.8686	2317.5076	2146.4	1254.8
960.0006	2318.941	2152.4	1261.35
960.1327	2320.3737	2147.8	1252.55
960.2647	2321.8056	2146.35	1250.9
960.3967	2323.2369	2139.4	1246.85
960.5287	2324.6674	2135.3	1242.85
960.6606	2326.0972	2117.9	1225.35
960.7925	2327.5263	2129.1	1237.4
960.9244	2328.9547	2120.5	1227.1
961.0562	2330.3823	2127.2	1232.95
961.1881	2331.8092	2132.95	1233.25
961.3198	2333.2355	2105.15	1210.55
961.4516	2334.661	2103.3	1208.4
961.5833	2336.0858	2111.5	1216.1
961.715	2337.5098	2102.05	1210.9
961.8467	2338.9332	2105.65	1214
961.9783	2340.3558	2099.3	1205.3
962.1099	2341.7778	2085.65	1196.95
962.2415	2343.199	2086.75	1194.3
962.373	2344.6195	2087.6	1196.8
962.5045	2346.0393	2079.4	1188.1
962.636	2347.4583	2084.45	1192.25
962.7675	2348.8767	2077.6	1185.3
962.8989	2350.2943	2080.2	1186.6
963.0303	2351.7113	2083.25	1188.25
963.1617	2353.1275	2079.95	1182.7
963.293	2354.543	2082.15	1179.05
963.4243	2355.9578	2070.7	1176
963.5556	2357.3718	2062.15	1171.65
963.6868	2358.7852	2055.45	1162.5
963.818	2360.1978	2040.95	1151.5
963.9492	2361.6098	2047.1	1158.05
964.0803	2363.021	2048.9	1153.85
964.2114	2364.4315	2045.95	1155.4
964.3425	2365.8413	2044.05	1152.1
964.4736	2367.2504	2028.8	1141.15
964.6046	2368.6587	2021.5	1133.2
964.7356	2370.0664	2026.95	1137.85
964.8666	2371.4733	2020.25	1130.6
964.9975	2372.8795	2034.65	1144.45
965.1284	2374.285	2027.3	1139.85
965.2593	2375.6899	2004.9	1113.3
965.3901	2377.0939	2013	1122.4
965.5209	2378.4973	2004.15	1111.6
965.6517	2379.9	2004.3	1114.95
965.7825	2381.3019	1999	1109.3
965.9132	2382.7032	1994.5	1105.75
966.0439	2384.1037	1989.6	1102.8
966.1745	2385.5035	1977.35	1091.6
966.3051	2386.9027	1985	1097.7
966.4357	2388.3011	1984.7	1092.5
966.5663	2389.6987	1969.65	1079.8
966.6968	2391.0957	1974.3	1087.95
966.8273	2392.492	1962.4	1076.2
966.9578	2393.8876	1965.65	1079.1
967.0882	2395.2824	1956.2	1066.35
967.2186	2396.6765	1951.3	1062.8
967.349	2398.07	1953.25	1061.9
967.4793	2399.4627	1949.75	1058.15
967.6097	2400.8547	1951.25	1057.2
967.7399	2402.246	1948.5	1052.1
967.8702	2403.6366	1932.4	1041.45
968.0004	2405.0265	1933.4	1046.05
968.1306	2406.4156	1939.2	1046.3
968.2607	2407.8041	1933.75	1040.05
968.3909	2409.1918	1932.1	1041.3
968.521	2410.5789	1932.4	1043.1
968.651	2411.9652	1919.95	1025.65
968.781	2413.3508	1910.1	1020.55
968.911	2414.7358	1912.5	1020.4
969.041	2416.12	1912.5	1022.6
969.1709	2417.5035	1910.95	1020.3
969.3008	2418.8863	1899.25	1008.35
969.4307	2420.2684	1904.7	1012.75
969.5606	2421.6497	1904.4	1011.3
969.6904	2423.0304	1881.5	991.35
969.8201	2424.4104	1891.2	1000.75
969.9499	2425.7896	1892.85	999.65
970.0796	2427.1682	1885.6	995.6
970.2093	2428.546	1889.45	998.25
970.3389	2429.9232	1883.9	991.7
970.4685	2431.2996	1872.5	980.75
970.5981	2432.6753	1876.9	984.9
970.7277	2434.0503	1878.25	985
970.8572	2435.4246	1876.75	988
970.9867	2436.7982	1867.45	972
971.1161	2438.1711	1857	966.7
971.2456	2439.5433	1859.05	967.15
971.375	2440.9148	1863.7	969.8
971.5043	2442.2856	1842.25	951.95
971.6336	2443.6557	1848	954.15
971.7629	2445.025	1842.75	953.2
971.8922	2446.3937	1835.8	943.3
972.0214	2447.7617	1846.25	953.75
972.1506	2449.1289	1842.75	951.95
972.2798	2450.4955	1830.6	935.5
972.4089	2451.8613	1825	937.4
972.538	2453.2265	1837.75	947.9
972.6671	2454.5909	1835.75	943.15
972.7961	2455.9546	1824.45	933.15
972.9251	2457.3177	1823.8	934.3
973.0541	2458.68	1822.35	927.1
973.1831	2460.0416	1817.2	926.45
973.312	2461.4025	1813.15	920.95
973.4408	2462.7627	1815.95	917.15
973.5697	2464.1222	1815.3	929.4
973.6985	2465.4811	1806.2	918.8
973.8273	2466.8392	1813.65	924.3
973.956	2468.1966	1807.7	916.5
974.0847	2469.5533	1809.65	917.8
974.2134	2470.9093	1808.55	918.1
974.3421	2472.2645	1805.45	916.35
974.4707	2473.6191	1793.05	904.35
974.5993	2474.973	1794.25	902.5
974.7278	2476.3262	1790.45	900.15
974.8563	2477.6787	1788.15	899.25
974.9848	2479.0305	1789.2	901.05
975.1132	2480.3816	1787.8	895.1
975.2417	2481.7319	1786.6	897.65
975.37	2483.0816	1786.35	896.9
975.4984	2484.4306	1780.4	890.5
975.6267	2485.7789	1762.25	874.25
975.755	2487.1264	1765.8	874.9
975.8833	2488.4733	1758.7	869.5
976.0115	2489.8195	1772.25	875.4
976.1397	2491.165	1758.5	865.9
976.2678	2492.5097	1755.95	866.1
976.3959	2493.8538	1757.75	871.3
976.524	2495.1972	1755.65	865.8
976.6521	2496.5398	1757	864.8
976.7801	2497.8818	1754.6	862.3
976.9081	2499.2231	1752	860.2
977.036	2500.5637	1745.9	855.55
977.164	2501.9035	1734.6	842.4
977.2918	2503.2427	1741.85	845.8
977.4197	2504.5812	1737.95	846.95
977.5475	2505.919	1740.95	851.25
977.6753	2507.256	1731	840.3
977.8031	2508.5924	1724.9	836.5
977.9308	2509.9281	1734.75	838.25
978.0585	2511.2631	1723.2	832.1
978.1861	2512.5974	1726.75	838.65
978.3137	2513.9309	1718.05	828.1
978.4413	2515.2638	1747.05	830.7
978.5689	2516.596	1713.65	825.1
978.6964	2517.9275	1711.35	820.65
978.8239	2519.2583	1718.75	828.7
978.9513	2520.5884	1706.9	816.75
979.0788	2521.9178	1707.8	819.1
979.2062	2523.2465	1697.45	808.6
979.3335	2524.5745	1698.4	812.35
979.4608	2525.9018	1696.3	804.4
979.5881	2527.2284	1690.95	801
979.7154	2528.5543	1694.5	804.95
979.8426	2529.8796	1688.1	798.8
979.9698	2531.2041	1693.05	801.9
980.0969	2532.5279	1694.9	805.65
980.224	2533.851	1695.1	804.45
980.3511	2535.1735	1684.15	795.4
980.4781	2536.4952	1683.7	793.75
980.6052	2537.8163	1687.05	795.2
980.7321	2539.1366	1685.15	796.55
980.8591	2540.4562	1684.4	791.5
980.986	2541.7752	1682.1	791.6
981.1129	2543.0935	1676.8	783.45
981.2397	2544.411	1674.45	782
981.3665	2545.7279	1680.45	792.4
981.4933	2547.0441	1676	786.55
981.62	2548.3596	1671.5	778.55
981.7467	2549.6744	1674.25	783
981.8734	2550.9885	1669.2	775.8
982.0001	2552.3019	1672.15	782.05
982.1267	2553.6146	1665.7	774.05
982.2532	2554.9266	1653.8	762.4
982.3798	2556.2379	1662.45	771.85
982.5063	2557.5485	1658.65	770.2
982.6327	2558.8585	1664.5	769.15
982.7592	2560.1677	1660.6	764.9
982.8856	2561.4762	1662.45	769.6
983.0119	2562.7841	1660.25	766.7
983.1383	2564.0913	1645.2	756.25
983.2646	2565.3977	1649.95	758.8
983.3908	2566.7035	1655.85	766.1
983.517	2568.0086	1649.1	757.45
983.6432	2569.313	1645.9	756.7
983.7694	2570.6167	1653.25	758.65
983.8955	2571.9197	1641.75	749.55
984.0216	2573.222	1650.65	757
984.1476	2574.5236	1641.4	750.25
984.2737	2575.8246	1646.35	755.3
984.3996	2577.1248	1641.9	747.85
984.5256	2578.4244	1640.05	751.25
984.6515	2579.7232	1637.8	747.55
984.7774	2581.0214	1664.8	748.2
984.9032	2582.3189	1632.75	741.1
985.029	2583.6157	1638.35	743.45
985.1548	2584.9118	1638.05	748.4
985.2806	2586.2072	1640.35	750.7
985.4063	2587.5019	1634.15	744.65
985.5319	2588.7959	1628.95	736.4
985.6576	2590.0893	1632	737.95
985.7832	2591.3819	1641.7	753.25
985.9087	2592.6739	1628.35	738.05
986.0343	2593.9652	1638.3	747.3
986.1597	2595.2557	1637.25	748.45
986.2852	2596.5456	1631.9	740.15
986.4106	2597.8348	1621.55	731.9
986.536	2599.1234	1623.35	733.85
986.6614	2600.4112	1634.9	746.05
986.7867	2601.6983	1631.1	739.55
986.912	2602.9848	1624.9	734.6
987.0372	2604.2705	1630.55	736.6
987.1624	2605.5556	1624.5	733.95
987.2876	2606.84	1616.8	728.3
987.4128	2608.1237	1618	729.4
987.5379	2609.4067	1620.95	733.35
987.6629	2610.689	1627.55	728.75
987.788	2611.9707	1616	724.1
987.913	2613.2516	1615.25	720.35
988.0379	2614.5319	1602.35	715.25
988.1629	2615.8115	1603.4	711.6
988.2878	2617.0903	1598.8	708.6
988.4126	2618.3685	1591.2	702.7
988.5375	2619.6461	1591.6	702.9
988.6622	2620.9229	1601.55	714.85
988.787	2622.199	1590.95	701.65
988.9117	2623.4745	1593.75	703.55
989.0364	2624.7493	1592.6	703.9
989.161	2626.0234	1587.4	697.95
989.2857	2627.2968	1583.05	693.85
989.4102	2628.5695	1584.5	695.35
989.5348	2629.8415	1581.7	693.75
989.6593	2631.1128	1582.45	694.65
989.7837	2632.3835	1577.9	690.4
989.9082	2633.6535	1584.65	698
990.0326	2634.9228	1572	685.15
990.1569	2636.1914	1575.55	687
990.2812	2637.4593	1570.8	680.8
990.4055	2638.7265	1569.05	679.65
990.5298	2639.9931	1569.45	681.65
990.654	2641.259	1569.35	680.3
990.7782	2642.5242	1561	672.55
990.9023	2643.7887	1565.35	678.35
991.0264	2645.0525	1566.5	676.55
991.1505	2646.3156	1558.85	669.65
991.2745	2647.5781	1558.45	671.55
991.3985	2648.8398	1549.55	663.1
991.5225	2650.1009	1588.6	663.6
991.6464	2651.3613	1548.95	659.8
991.7703	2652.6211	1547.05	659.55
991.8942	2653.8801	1550.05	661
992.018	2655.1385	1542.9	652.75
992.1418	2656.3961	1549.8	662.15
992.2655	2657.6531	1546.15	658.15
992.3892	2658.9094	1541.75	653.55
992.5129	2660.1651	1547.4	662.2
992.6366	2661.42	1548.55	661.8
992.7602	2662.6743	1553.1	666.55
992.8837	2663.9279	1553.05	665.75
993.0073	2665.1808	1555.75	666.1
993.1307	2666.433	1557.2	667.45
993.2542	2667.6846	1548.1	660.15
993.3776	2668.9354	1562.15	670.75
993.501	2670.1856	1559.25	671.6
993.6244	2671.4351	1555.75	669.35
993.7477	2672.6839	1560.45	673.5
993.8709	2673.9321	1560.05	671.15
993.9942	2675.1795	1558.25	670.05
994.1174	2676.4263	1562.4	674.85
994.2405	2677.6724	1564.45	677.85
994.3637	2678.9179	1561	673.25
994.4868	2680.1626	1558.4	673.15
994.6098	2681.4067	1565.95	677.4
994.7328	2682.6501	1559.1	670.65
994.8558	2683.8928	1563.5	675.9
994.9788	2685.1348	1555.45	669.55
995.1017	2686.3761	1549.7	660.3
995.2245	2687.6168	1544.85	657.1
995.3474	2688.8568	1538.25	653
995.4702	2690.0961	1535.1	646.1
995.5929	2691.3348	1536.65	649.05
995.7156	2692.5727	1530.65	643.9
995.8383	2693.81	1532.8	645.25
995.961	2695.0466	1526.4	641.1
996.0836	2696.2826	1525.9	637.4
996.2062	2697.5178	1548.3	641.3
996.3287	2698.7524	1523.95	638.25
996.4512	2699.9863	1530.8	641.15
996.5737	2701.2195	1528.75	644.1
996.6961	2702.452	1538.25	648.7
996.8185	2703.6839	1538.7	650.85
996.9408	2704.9151	1544.3	657.9
997.0631	2706.1456	1546.55	658.65
997.1854	2707.3755	1549.75	661.9
997.3077	2708.6046	1557.65	667.7
997.4299	2709.8331	1559.3	672.35
997.552	2711.0609	1564.1	675.35
997.6742	2712.2881	1571.55	685.45
997.7963	2713.5145	1580.65	691.6
997.9183	2714.7403	1587.35	700.05
998.0403	2715.9654	1596.65	708.5
998.1623	2717.1899	1615.55	712.45
998.2842	2718.4136	1616	728.6
998.4062	2719.6367	1626.5	741.15
998.528	2720.8591	1648.5	754.95
998.6498	2722.0809	1651.5	763.9
998.7716	2723.3019	1670.55	780.75
998.8934	2724.5223	1671.1	784.8
999.0151	2725.7421	1678.45	791.8
999.1368	2726.9611	1676.9	787.05
999.2584	2728.1795	1674.9	782.45
999.38	2729.3972	1666	780.45
999.5016	2730.6142	1670.65	770.5
999.6231	2731.8306	1639.8	750.5
999.7446	2733.0462	1627.65	741.75
999.8661	2734.2612	1614.55	723
999.9875	2735.4756	1599.1	712.75
1000.1089	2736.6892	1583.75	697.65
1000.2302	2737.9022	1565.75	681.1
1000.3515	2739.1145	1545.95	658.7
1000.4728	2740.3262	1540.95	648.9
1000.594	2741.5372	1525.55	638.7
1000.7152	2742.7475	1514.6	626.8
1000.8363	2743.9571	1513.05	627.7
1000.9575	2745.1661	1502.3	611.8
1001.0785	2746.3744	1491.95	605
1001.1996	2747.582	1480.3	595.2
1001.3206	2748.7889	1469.8	581.75
1001.4415	2749.9952	1476.65	591
1001.5625	2751.2008	1465.4	576.55
1001.6833	2752.4057	1463.1	575.6
1001.8042	2753.61	1461.55	573.9
1001.925	2754.8136	1452.95	566.3
1002.0458	2756.0165	1447	562.35
1002.1665	2757.2188	1445.6	560.75
1002.2872	2758.4204	1449.9	563.9
1002.4078	2759.6213	1450.1	560.95
1002.5285	2760.8215	1448.65	560.4
1002.649	2762.0211	1454.15	567.9
1002.7696	2763.22	1447.35	558.2
1002.8901	2764.4182	1443.4	557.75
1003.0106	2765.6158	1441.75	555.85
1003.131	2766.8127	1433.05	546.7
1003.2514	2768.009	1435.05	550.2
1003.3717	2769.2045	1424.55	538.9
1003.492	2770.3994	1423.4	534.7
1003.6123	2771.5936	1426.1	538.1
1003.7325	2772.7872	1416.25	531.2
1003.8527	2773.9801	1419.7	533.7
1003.9729	2775.1723	1425.75	526.55
1004.093	2776.3639	1414.8	530.75
1004.2131	2777.5548	1414.95	529.2
1004.3331	2778.745	1414.5	529.55
1004.4531	2779.9346	1405.25	522.05
1004.5731	2781.1235	1419.85	534.85
1004.693	2782.3117	1410.1	526.75
1004.8129	2783.4992	1427.55	543.45
1004.9328	2784.6861	1419.45	536.2
1005.0526	2785.8723	1426.1	539.8
1005.1723	2787.0579	1425.65	540.85
1005.2921	2788.2428	1437.65	554.25
1005.4118	2789.427	1437.95	553.8
1005.5314	2790.6106	1444.5	561.35
1005.651	2791.7935	1445.25	560.95
1005.7706	2792.9757	1455.55	571.6
1005.8902	2794.1573	1466.85	579.5
1006.0097	2795.3382	1470.65	587.35
1006.1291	2796.5184	1482.15	598.45
1006.2485	2797.698	1494.5	609.75
1006.3679	2798.8769	1506.9	623.5
1006.4873	2800.0551	1520.4	635.55
1006.6066	2801.2327	1531.6	645.25
1006.7258	2802.4096	1540.4	658.4
1006.8451	2803.5859	1557.45	673
1006.9642	2804.7615	1578.5	692.8
1007.0834	2805.9364	1594.25	710
1007.2025	2807.1106	1618.9	735.05
1007.3216	2808.2842	1637.7	752.9
1007.4406	2809.4572	1670	786.95
1007.5596	2810.6294	1699.45	814.3
1007.6785	2811.801	1732.25	848.55
1007.7975	2812.972	1766.55	882.7
1007.9163	2814.1423	1811.05	926.7
1008.0352	2815.3119	1851.45	966.15
1008.154	2816.4808	1892.85	1010.5
1008.2727	2817.6491	1941.5	1059.45
1008.3914	2818.8167	1993.15	1110.75
1008.5101	2819.9837	2058.3	1171.75
1008.6288	2821.15	2094.7	1208.9
1008.7474	2822.3157	2152.35	1270
1008.8659	2823.4807	2212.15	1328.3
1008.9844	2824.645	2275.75	1393
1009.1029	2825.8086	2321	1437.35
1009.2214	2826.9716	2379.05	1496.45
1009.3398	2828.134	2435.3	1552.4
1009.4581	2829.2957	2465.55	1581.15
1009.5764	2830.4567	2518.65	1637.35
1009.6947	2831.617	2527.6	1645.1
1009.813	2832.7767	2551.4	1668.35
1009.9312	2833.9358	2547.8	1665.7
1010.0493	2835.0941	2530.5	1648.25
1010.1675	2836.2519	2531.55	1649.5
1010.2855	2837.4089	2514.95	1631.35
1010.4036	2838.5653	2495.1	1610.65
1010.5216	2839.7211	2490.9	1610.8
1010.6396	2840.8761	2497.75	1612.75
1010.7575	2842.0306	2497.15	1615.85
1010.8754	2843.1843	2520	1639.05
1010.9932	2844.3374	2547.05	1664.3
1011.111	2845.4899	2595.15	1711.6
1011.2288	2846.6417	2641.9	1760.65
1011.3465	2847.7928	2706.2	1824
1011.4642	2848.9433	2780.65	1898.55
1011.5818	2850.0931	2850	1968.1
1011.6995	2851.2422	2901.75	2015.65
1011.817	2852.3907	2956.85	2072.75
1011.9345	2853.5385	3016.65	2132.55
1012.052	2854.6857	3094.5	2186.6
1012.1695	2855.8323	3117.7	2234.8
1012.2869	2856.9781	3161.95	2278.25
1012.4042	2858.1233	3212.9	2330.4
1012.5216	2859.2679	3276.95	2395.3
1012.6389	2860.4118	3314.4	2431.9
1012.7561	2861.555	3361.7	2476.1
1012.8733	2862.6976	3397.55	2511.95
1012.9905	2863.8395	3452.8	2567.6
1013.1076	2864.9808	3463.15	2581
1013.2247	2866.1214	3480.5	2599.3
1013.3417	2867.2614	3516.45	2633.55
1013.4587	2868.4007	3523.7	2639.6
1013.5757	2869.5393	3540.5	2655.4
1013.6926	2870.6773	3553.75	2668
1013.8095	2871.8146	3562.85	2677.6
1013.9263	2872.9513	3571.5	2686.15
1014.0431	2874.0874	3554.6	2669.45
1014.1599	2875.2227	3545	2661.75
1014.2766	2876.3574	3523.2	2639.15
1014.3933	2877.4915	3506.8	2624.6
1014.51	2878.6249	3470.3	2588.95
1014.6266	2879.7577	3462.55	2579.7
1014.7431	2880.8898	3444.2	2553.1
1014.8596	2882.0212	3408.25	2527.05
1014.9761	2883.152	3406.15	2525.55
1015.0925	2884.2821	3376.9	2496.5
1015.2089	2885.4116	3383.95	2501.85
1015.3253	2886.5405	3407.8	2524.25
1015.4416	2887.6686	3414.6	2529.9
1015.5579	2888.7962	3393.4	2514.3
1015.6741	2889.923	3415.45	2533.05
1015.7903	2891.0493	3429.7	2549.05
1015.9065	2892.1748	3432.7	2551
1016.0226	2893.2997	3435.75	2554.45
1016.1387	2894.424	3458.8	2578.8
1016.2547	2895.5476	3473.45	2591.5
1016.3707	2896.6706	3497.05	2617.8
1016.4866	2897.7929	3514.2	2633.35
1016.6025	2898.9145	3542.6	2659.1
1016.7184	2900.0355	3574	2692.3
1016.8342	2901.1559	3596.85	2714
1016.95	2902.2756	3620.3	2733.8
1017.0658	2903.3946	3654.2	2770.75
1017.1815	2904.513	3696.25	2810.05
1017.2971	2905.6308	3721.2	2841.4
1017.4127	2906.7479	3743.1	2858.9
1017.5283	2907.8643	3759.95	2879.95
1017.6439	2908.9801	3756.35	2873.55
1017.7594	2910.0953	3792.6	2910.45
1017.8748	2911.2098	3788.25	2905
1017.9902	2912.3236	3767.5	2877.7
1018.1056	2913.4368	3761.5	2875.1
1018.2209	2914.5494	3745.25	2865.25
1018.3362	2915.6613	3715.6	2827.15
1018.4515	2916.7725	3683.15	2800.45
1018.5667	2917.8831	3661.8	2780.9
1018.6819	2918.9931	3636.7	2753.6
1018.797	2920.1024	3589.35	2707.55
1018.9121	2921.211	3572.35	2691.55
1019.0271	2922.319	3554.55	2674.15
1019.1421	2923.4264	3549.45	2670.45
1019.2571	2924.5331	3518.05	2638
1019.372	2925.6391	3517.15	2635.85
1019.4869	2926.7445	3515.55	2638.3
1019.6017	2927.8493	3530.2	2648.6
1019.7165	2928.9534	3536.5	2654.8
1019.8313	2930.0569	3532.65	2648
1019.946	2931.1597	3539.25	2659.85
1020.0606	2932.2619	3536.2	2656.2
1020.1753	2933.3634	3526.6	2645.75
1020.2899	2934.4643	3547.75	2660.95
1020.4044	2935.5645	3529.6	2640.7
1020.5189	2936.6641	3513.8	2630
1020.6334	2937.763	3459.4	2579.1
1020.7478	2938.8613	3429.4	2549.3
1020.8622	2939.959	3398.1	2512.25
1020.9765	2941.056	3315.05	2436.95
1021.0908	2942.1523	3253.8	2371.95
1021.2051	2943.248	3169.9	2288.55
1021.3193	2944.3431	3085.55	2206.3
1021.4334	2945.4375	2987.65	2107.8
1021.5476	2946.5313	2896.3	2017.35
1021.6617	2947.6244	2789.55	1909.4
1021.7757	2948.7169	2700.4	1816.2
1021.8897	2949.8087	2604.9	1725.85
1022.0037	2950.8999	2503.85	1624.1
1022.1176	2951.9904	2429.9	1552.75
1022.2315	2953.0803	2364.8	1484.6
1022.3453	2954.1696	2302.3	1422.85
1022.4591	2955.2582	2250.15	1370
1022.5728	2956.3462	2206.35	1325.95
1022.6865	2957.4335	2160.85	1278.4
1022.8002	2958.5202	2131.65	1250
1022.9138	2959.6062	2108.4	1227.6
1023.0274	2960.6916	2075.25	1195.25
1023.141	2961.7764	2058.6	1176.95
1023.2545	2962.8605	2021.9	1141.15
1023.3679	2963.9439	2019.95	1139.5
1023.4813	2965.0267	2009.1	1127.5
1023.5947	2966.1089	2028.9	1128.35
1023.708	2967.1905	1994.85	1114.45
1023.8213	2968.2714	1998.15	1117.25
1023.9346	2969.3516	1995.9	1114.05
1024.0478	2970.4312	2009.95	1120.7
1024.1609	2971.5102	2001.85	1121.75
1024.274	2972.5885	2003.4	1126.25
1024.3871	2973.6662	2017.35	1132.3
1024.5002	2974.7432	2007.9	1131.3
1024.6132	2975.8196	1998.85	1119
1024.7261	2976.8954	1998.6	1119.8
1024.839	2977.9705	1981.1	1100.7
1024.9519	2979.045	1963.65	1086.8
1025.0647	2980.1188	1961.65	1082.6
1025.1775	2981.192	1943.15	1066.4
1025.2902	2982.2645	1927.65	1046
1025.4029	2983.3364	1902.75	1020.7
1025.5156	2984.4077	1865.1	986.4
1025.6282	2985.4783	1853.35	969.45
1025.7407	2986.5483	1820.55	939.45
1025.8532	2987.6177	1786.25	906.5
1025.9657	2988.6864	1751.3	871.9
1026.0782	2989.7545	1718.3	837.5
1026.1906	2990.8219	1687.8	809.25
1026.3029	2991.8887	1659.45	775.9
1026.4152	2992.9548	1632.45	754.4
1026.5275	2994.0204	1585.65	707.4
1026.6397	2995.0852	1567.9	688.85
1026.7519	2996.1495	1544.35	663.4
1026.864	2997.2131	1509.9	631.75
1026.9761	2998.276	1485.65	607.1
1027.0882	2999.3383	1469.3	590.25
1027.2002	3000.4	1452.55	572.45
1027.3122	3001.4611	1436.45	557.75
1027.4241	3002.5215	1410.5	529.9
1027.536	3003.5812	1399.25	518.9
1027.6478	3004.6404	1385.45	505.8
1027.7596	3005.6989	1367.15	485.9
1027.8714	3006.7567	1358.7	478.8
1027.9831	3007.8139	1385.6	477.35
1028.0947	3008.8705	1339.1	460.9
1028.2064	3009.9264	1339.15	456.95
1028.3179	3010.9818	1325.2	445.65
1028.4295	3012.0364	1316.15	437.1
1028.541	3013.0905	1313.7	435.25
1028.6524	3014.1439	1306.5	426.95
1028.7638	3015.1966	1303.05	424.05
1028.8752	3016.2487	1306.8	427.1
1028.9865	3017.3002	1300.2	412.3
1029.0978	3018.3511	1293	414.5
1029.209	3019.4013	1291.25	411.6
1029.3202	3020.4509	1291.1	412.85
1029.4314	3021.4998	1287.85	409.15
1029.5425	3022.5481	1287.1	408.7
1029.6535	3023.5958	1284.7	407.5
1029.7645	3024.6428	1285.7	405.55
1029.8755	3025.6892	1280.45	404.45
1029.9864	3026.735	1282.95	403.25
1030.0973	3027.7802	1281.3	401.05
1030.2082	3028.8247	1280.8	401.45
1030.319	3029.8685	1280.1	399.4
1030.4297	3030.9118	1284	404.7
1030.5404	3031.9544	1286.55	409.05
1030.6511	3032.9963	1290.9	411.1
1030.7617	3034.0376	1291	412.75
1030.8723	3035.0783	1300.45	420.7
1030.9829	3036.1184	1297.25	417.85
1031.0934	3037.1578	1295	418.1
1031.2038	3038.1966	1302.05	419.75
1031.3142	3039.2348	1300.45	423
1031.4246	3040.2723	1311.95	423.2
1031.5349	3041.3092	1299.5	421.05
1031.6452	3042.3455	1295.55	418.25
1031.7554	3043.3811	1306.45	427.2
1031.8656	3044.4161	1290.25	412.3
1031.9758	3045.4505	1297.95	419.45
1032.0859	3046.4842	1292.7	413.75
1032.1959	3047.5173	1282.3	404.95
1032.3059	3048.5498	1286.55	407.2
1032.4159	3049.5816	1283.25	404.3
1032.5258	3050.6128	1282.65	403.75
1032.6357	3051.6434	1271.4	391.2
1032.7455	3052.6734	1269.2	391.25
1032.8553	3053.7027	1273.85	394.35
1032.9651	3054.7314	1263	384.8
1033.0748	3055.7594	1259.7	383.4
1033.1845	3056.7868	1257	378.95
1033.2941	3057.8136	1256.45	379.45
1033.4037	3058.8398	1246.05	370.45
1033.5132	3059.8653	1247.6	369.15
1033.6227	3060.8902	1244.4	366.85
1033.7321	3061.9145	1241.15	362.25
1033.8415	3062.9381	1244.5	365.45
1033.9509	3063.9612	1254.95	361.05
1034.0602	3064.9835	1235.85	359.15
1034.1694	3066.0053	1232.9	353.15
1034.2787	3067.0264	1229.25	351.15
1034.3878	3068.0469	1221.5	342.55
1034.497	3069.0668	1220.8	341.75
1034.6061	3070.086	1210.2	334.45
1034.7151	3071.1046	1203.7	326.7
1034.8241	3072.1226	1196.15	317.4
1034.9331	3073.1399	1192.45	313.3
1035.042	3074.1567	1184.5	306.35
1035.1508	3075.1727	1182	300.1
1035.2597	3076.1882	1170.45	292.35
1035.3684	3077.203	1161.65	282.25
1035.4772	3078.2173	1162.2	281.85
1035.5859	3079.2308	1155.6	275.3
1035.6945	3080.2438	1148.2	268.65
1035.8031	3081.2561	1141.25	263.55
1035.9117	3082.2678	1130.5	253.35
1036.0202	3083.2789	1126.6	248.85
1036.1286	3084.2893	1118.8	240.55
1036.2371	3085.2991	1115.35	234.9
1036.3454	3086.3083	1113.6	230.95
1036.4538	3087.3169	1107.3	228.9
1036.562	3088.3248	1105.5	226.4
1036.6703	3089.3321	1099.55	221.45
1036.7785	3090.3388	1095.45	218.2
1036.8866	3091.3449	1091.15	214.35
1036.9948	3092.3503	1089.1	209
1037.1028	3093.3551	1082.3	207.15
1037.2108	3094.3593	1083.75	206.2
1037.3188	3095.3629	1075.4	200.65
1037.4267	3096.3658	1073.9	194.4
1037.5346	3097.3681	1071.05	191.55
1037.6425	3098.3698	1071.85	192.75
1037.7503	3099.3708	1073.65	191.3
1037.858	3100.3713	1064.05	185.4
1037.9657	3101.3711	1061.25	182.75
1038.0734	3102.3702	1175.65	183.65
1038.181	3103.3688	1054.25	175.55
1038.2886	3104.3667	1052.75	176.5
1038.3961	3105.364	1052.05	173.3
1038.5036	3106.3607	1051.15	173.55
1038.611	3107.3568	1046.7	168.75
1038.7184	3108.3522	1043.3	166.85
1038.8257	3109.347	1047.85	170.35
1038.933	3110.3412	1047.1	167.7
1039.0403	3111.3348	1041.9	165.85
1039.1475	3112.3277	1037.85	162.1
1039.2547	3113.32	1035.85	160.4
1039.3618	3114.3117	1034.05	156.8
1039.4689	3115.3028	1035.35	156.2
1039.5759	3116.2932	1037.4	158
1039.6829	3117.2831	1035.5	151.3
1039.7898	3118.2723	1033.35	155.75
1039.8967	3119.2608	1028	150.15
1040.0035	3120.2488	1023.35	146.35
1040.1103	3121.2361	1023.9	146.4
1040.2171	3122.2229	1018.15	142.85
1040.3238	3123.209	1021.2	142.45
1040.4305	3124.1944	1020.25	143.75
1040.5371	3125.1793	1018.3	137.65
1040.6437	3126.1635	1015.75	138.85
1040.7502	3127.1471	1015.65	137.7
1040.8567	3128.1301	1014.55	138.7
1040.9631	3129.1125	1011.4	134.6
1041.0695	3130.0942	1012.3	134.6
1041.1759	3131.0753	1016.5	129
1041.2822	3132.0558	1016	136.3
1041.3884	3133.0357	1011.35	133.55
1041.4946	3134.015	1007	129.4
1041.6008	3134.9936	1006.1	126.65
1041.7069	3135.9716	1026.8	126.2
1041.813	3136.949	1002	124.3
1041.919	3137.9258	1021.2	127.05
1042.025	3138.902	1005.45	123.65
1042.1309	3139.8775	1001.7	124.15
1042.2368	3140.8524	1001.95	122.85
1042.3427	3141.8267	1000.15	119.7
1042.4485	3142.8004	997.45	120.15
1042.5542	3143.7735	1002.5	119.5
1042.6599	3144.7459	997.15	117.7
1042.7656	3145.7178	992.1	116.05
1042.8712	3146.689	989.7	112.05
1042.9768	3147.6596	993.35	113.75
1043.0823	3148.6295	989.1	112.9
1043.1878	3149.5989	991.5	115.2
1043.2932	3150.5676	989.1	111
1043.3986	3151.5357	992.1	117.5
1043.5039	3152.5032	987.8	111.05
1043.6092	3153.4701	987.6	114.1
1043.7145	3154.4364	987.8	109.25
1043.8197	3155.402	984	108.7
1043.9248	3156.367	984.8	105.7
1044.03	3157.3315	1020.05	107.15
1044.135	3158.2952	981.85	104.2
1044.24	3159.2584	980.7	105.65
1044.345	3160.221	981.65	104.6
1044.4499	3161.1829	981.95	103.55
1044.5548	3162.1442	981.35	102.35
1044.6596	3163.105	981.05	102.25
1044.7644	3164.065	978.55	101.9
1044.8692	3165.0245	980.95	100.1
1044.9739	3165.9834	977.3	102.9
1045.0785	3166.9416	974.6	97
1045.1831	3167.8993	977.95	103.75
1045.2877	3168.8563	975.3	97.55
1045.3922	3169.8127	974.9	98.9
1045.4966	3170.7684	972.45	97.45
1045.6011	3171.7236	972.6	95.8
1045.7054	3172.6782	974.25	96.15
1045.8098	3173.6321	972.1	94.1
1045.914	3174.5854	979.6	97.2
1046.0183	3175.5381	969.85	93.35
1046.1224	3176.4902	969.55	93.35
1046.2266	3177.4417	969.95	94.1
1046.3307	3178.3926	966.35	90.9
1046.4347	3179.3428	963.85	87.15
1046.5387	3180.2924	966.45	92
1046.6427	3181.2415	966.85	89.55
1046.7466	3182.1899	967.7	90.35
1046.8504	3183.1377	963.65	86.3
1046.9542	3184.0848	966.5	87.25
1047.058	3185.0314	961.45	85.85
1047.1617	3185.9773	963.15	86.85
1047.2654	3186.9227	965	88.3
1047.369	3187.8674	963.8	85.75
1047.4726	3188.8115	965.25	83.95
1047.5761	3189.755	957.75	81.05
1047.6796	3190.6979	962.5	86.15
1047.783	3191.6402	961.1	87.15
1047.8864	3192.5818	960.6	85.95
1047.9898	3193.5229	966.65	83.8
1048.0931	3194.4633	959.7	82.9
1048.1963	3195.4031	958.85	82.45
1048.2995	3196.3423	958.2	82.25
1048.4027	3197.2809	956.25	79.55
1048.5058	3198.2189	958.8	82.65
1048.6089	3199.1563	963.15	81.15
1048.7119	3200.0931	956.05	81.3
1048.8148	3201.0292	953.55	77.9
1048.9178	3201.9648	953	78.7
1049.0206	3202.8997	960.35	82.6
1049.1235	3203.834	954	78.55
1049.2262	3204.7677	950.9	73.7
1049.329	3205.7008	954.35	75.9
1049.4317	3206.6333	953.7	77.4
1049.5343	3207.5652	955.5	79
1049.6369	3208.4964	955.95	79.5
1049.7394	3209.4271	951.9	77.05
1049.8419	3210.3571	953.95	77.35
1049.9444	3211.2865	952.35	77.25
1050.0468	3212.2154	952.65	75.7
1050.1491	3213.1436	953.45	75.65
1050.2514	3214.0712	957.5	75
1050.3537	3214.9982	947.8	73.2
1050.4559	3215.9246	950.4	73.05
1050.5581	3216.8503	948.15	70.1
1050.6602	3217.7755	947.5	70.25
1050.7623	3218.7001	944.35	68.45
1050.8643	3219.624	945.95	72.55
1050.9663	3220.5473	944.95	68.3
1051.0682	3221.4701	944.6	66.7
1051.1701	3222.3922	949.9	71.8
1051.2719	3223.3137	943.75	68.8
1051.3737	3224.2346	945.3	69.2
1051.4754	3225.1549	943.4	68.3
1051.5771	3226.0746	940.65	64.4
1051.6788	3226.9937	944.95	68.5
1051.7804	3227.9121	942.9	68.35
1051.8819	3228.83	941.45	64.95
1051.9834	3229.7473	941.2	65.5
1052.0849	3230.6639	943.65	68.55
1052.1863	3231.5799	941.95	65.95
1052.2876	3232.4954	943.8	66.8
1052.3889	3233.4102	944.35	69.05
1052.4902	3234.3244	940	61.75
1052.5914	3235.238	943.35	68.1
1052.6926	3236.151	960.65	61
1052.7937	3237.0634	935.85	60.95
1052.8948	3237.9752	938.8	62.9
1052.9958	3238.8864	938	62.15
1053.0968	3239.797	937.55	63.55
1053.1977	3240.7069	943.55	67.05
1053.2986	3241.6163	939.3	62.55
1053.3994	3242.5251	936.3	62.6
1053.5002	3243.4332	932.75	58.25
1053.6009	3244.3408	935.75	59.35
1053.7016	3245.2477	934.8	57.6
1053.8022	3246.154	934.55	58.4
1053.9028	3247.0598	936.85	59.85
1054.0034	3247.9649	934.1	57.3
1054.1039	3248.8694	932.8	57.2
1054.2043	3249.7733	933.65	58.55
1054.3047	3250.6766	932.1	56.85
1054.4051	3251.5793	931.95	55.7
1054.5054	3252.4814	929.45	52.8
1054.6056	3253.3829	930.45	55.8
1054.7058	3254.2838	928.85	55.5
1054.806	3255.1841	926.8	51.9
1054.9061	3256.0838	931.05	56.4
1055.0061	3256.9829	926.35	53.75
1055.1062	3257.8814	930.4	54.35
1055.2061	3258.7792	928.8	52.05
1055.306	3259.6765	928.1	51.1
1055.4059	3260.5731	926.2	49.8
1055.5057	3261.4692	926.55	50.05
1055.6055	3262.3647	926.65	51.2
1055.7052	3263.2595	923.2	47.5
1055.8049	3264.1538	922.9	47.75
1055.9045	3265.0474	923.35	48.1
1056.0041	3265.9404	920.75	47.95
1056.1036	3266.8329	921.5	48.1
1056.2031	3267.7247	931.4	47
1056.3025	3268.616	918.5	43.9
1056.4019	3269.5066	917.6	42.55
1056.5013	3270.3966	918.75	42.1
1056.6005	3271.286	912.85	38.55
