Software Version:	3.9.2.0
Unit SN:	10000200
Spectrometer SN:	6960
Date:	3/8/2024 1:45:26 PM
Data Line Index:	25
Spectral Points:	2048
Integration time (ms):	125
Averages:	20
Delay (ms):	30000
Sequence Number:	1
Processing:	dark subtract
Laser Power (mW):	300
Laser Current (mA):	823
Laser Diode Temp (C):	25.1
Laser Case Temp (C):	26.3
System Temp (C):	26.3
Spectrometer Temp (C):	24.1
CCD Temp (C):	0.005
Secondary Temp (C):	20.006
Heatsink Temp (C):	21.327
CCDPCB Temp (C):	36.162
SecondaryPCB Temp (C):	31.016

Wavelength	RamanShift	Raw Counts	Dark Subtracted
787.061	30.1047	467.9	58.65
787.2016	32.3739	473.2	66.25
787.3422	34.6426	476	66.3
787.4828	36.9109	481.85	70.05
787.6235	39.1787	492.2	80.1
787.7642	41.4461	503.4	84.65
787.9049	43.7131	510.15	87.45
788.0456	45.9796	517.55	96.85
788.1863	48.2456	526.3	97.65
788.3271	50.5112	541.55	110.3
788.4679	52.7764	552.4	118.65
788.6087	55.0411	562.4	120.4
788.7496	57.3054	574.9	130.45
788.8904	59.5692	586	138.45
789.0313	61.8326	598.25	149.4
789.1722	64.0955	607.95	154.95
789.3132	66.3579	629.8	172
789.4541	68.6199	645.55	183.45
789.5951	70.8815	689.85	223.95
789.7361	73.1426	771.95	301.35
789.8771	75.4032	993.15	518.85
790.0181	77.6634	1533.25	1053.1
790.1592	79.9231	2805.25	2317.7
790.3003	82.1824	5583.05	5080.15
790.4414	84.4412	10598.15	10065.7
790.5825	86.6995	17571.95	16996.45
790.7237	88.9574	24366.35	23762.4
790.8648	91.2148	29071.2	28444.65
791.006	93.4717	31271.6	30626.55
791.1472	95.7282	31819.2	31167.5
791.2885	97.9842	31813.6	31157.65
791.4297	100.2398	31346.05	30689.65
791.571	102.4949	30728.1	30067.6
791.7123	104.7495	30015.25	29347.9
791.8536	107.0036	29205.6	28543.7
791.9949	109.2573	28475.55	27813.8
792.1363	111.5105	27782.45	27114.65
792.2777	113.7632	27124.8	26458.2
792.4191	116.0154	26524.6	25848.7
792.5605	118.2672	26135.3	25464.95
792.7019	120.5185	25663.9	24985.8
792.8434	122.7693	25370.25	24692.5
792.9849	125.0197	25073	24391.8
793.1264	127.2696	24808.65	24123.9
793.2679	129.519	24678.1	23986.9
793.4094	131.7679	24475.35	23781.95
793.551	134.0163	24364.95	23667.05
793.6926	136.2642	24206.65	23505.9
793.8342	138.5117	24030.1	23327.05
793.9758	140.7587	23755.65	23052.6
794.1175	143.0052	23590.3	22884.55
794.2591	145.2512	23358.2	22649.15
794.4008	147.4967	23138.6	22434.3
794.5425	149.7417	22990.15	22282.35
794.6842	151.9863	22892.75	22175.05
794.826	154.2304	22802.2	22085.65
794.9677	156.4739	22689.05	21963.2
795.1095	158.717	22649.95	21923.65
795.2513	160.9596	22495.9	21770.3
795.3931	163.2017	22237.65	21510.2
795.535	165.4433	21981.5	21250.2
795.6768	167.6844	21686.8	20952.45
795.8187	169.925	21395.55	20664
795.9606	172.1651	21031.4	20294.85
796.1025	174.4047	20771.7	20032.55
796.2445	176.6439	20560.35	19823.35
796.3864	178.8825	20342.1	19596.25
796.5284	181.1206	20177.1	19421.1
796.6704	183.3582	20046.05	19291.6
796.8124	185.5954	19920.15	19160.45
796.9544	187.832	19881.15	19122.2
797.0965	190.0681	19870.6	19105.5
797.2386	192.3037	19893.05	19127.4
797.3806	194.5388	19898.3	19127.65
797.5228	196.7734	19989.35	19218.6
797.6649	199.0075	20108.55	19335.1
797.807	201.2411	20252.95	19478.1
797.9492	203.4742	20372.35	19597.75
798.0914	205.7068	20513.9	19731.05
798.2336	207.9389	20649.85	19863.85
798.3758	210.1704	20820.2	20044.5
798.518	212.4015	20941.7	20180.15
798.6603	214.632	21125.85	20365.5
798.8025	216.862	21330.75	20573.35
798.9448	219.0915	21499.35	20737.5
799.0871	221.3205	21708.7	20946.45
799.2294	223.549	22007.1	21248.65
799.3718	225.777	22324.9	21564.45
799.5141	228.0044	22658.9	21891.7
799.6565	230.2314	23138.5	22371.1
799.7989	232.4578	23523.85	22755.45
799.9413	234.6837	23871.05	23090.1
800.0837	236.909	24115.6	23334.1
800.2262	239.1339	24093.2	23288.45
800.3687	241.3582	23916.7	23121.65
800.5111	243.582	23645.15	22823.2
800.6536	245.8053	23331.25	22524.65
800.7961	248.0281	23076.9	22273.65
800.9387	250.2503	22818.3	22012.35
801.0812	252.472	22718.6	21907.6
801.2238	254.6932	22714.95	21908.7
801.3664	256.9139	22640.5	21836.7
801.509	259.134	22703.95	21890.6
801.6516	261.3536	22763.6	21952.7
801.7942	263.5727	22810.2	21998
801.9369	265.7912	22800.45	21984.4
802.0795	268.0092	22911.05	22098.95
802.2222	270.2267	22892.15	22080.55
802.3649	272.4436	22905.6	22094.5
802.5076	274.6601	22869.15	22044
802.6504	276.8759	22786.25	21969.15
802.7931	279.0913	22777.1	21959.55
802.9359	281.3061	22737.05	21915.05
803.0787	283.5204	22779.05	21953.9
803.2215	285.7341	22906.15	22076.6
803.3643	287.9473	23054.5	22216.6
803.5071	290.16	23281.95	22450.2
803.6499	292.3721	23617.05	22791.7
803.7928	294.5837	24019.85	23194.05
803.9357	296.7947	24404.35	23578
804.0786	299.0052	24568.6	23741.6
804.2215	301.2152	24429.6	23596.9
804.3644	303.4246	24141.45	23317.9
804.5074	305.6334	23655.6	22829.35
804.6503	307.8418	23107.5	22278.9
804.7933	310.0495	22733.25	21901.35
804.9363	312.2568	22465.9	21635.45
805.0793	314.4635	22204.95	21368.5
805.2223	316.6696	22149.1	21310.35
805.3653	318.8752	22104.85	21260.25
805.5084	321.0802	22126.45	21284.6
805.6514	323.2847	22230.05	21387.8
805.7945	325.4887	22289.85	21445.05
805.9376	327.692	22235.7	21393.05
806.0807	329.8949	22178.1	21334.95
806.2238	332.0972	21919.85	21075.3
806.367	334.2989	21703.5	20855
806.5101	336.5001	21397.05	20548.6
806.6533	338.7007	21207.35	20358.9
806.7965	340.9008	21144.5	20293.45
806.9397	343.1003	21059.8	20206.4
807.0829	345.2992	21011.15	20159.45
807.2261	347.4976	21002.6	20147.15
807.3693	349.6955	21044.05	20186.05
807.5126	351.8927	21107.35	20247.9
807.6559	354.0895	21090	20219.45
807.7991	356.2856	21150.3	20288.85
807.9424	358.4812	21134.95	20274.75
808.0857	360.6763	21197.85	20333.55
808.2291	362.8707	21175.6	20312.85
808.3724	365.0646	21261.45	20394.3
808.5158	367.258	21295	20432.95
808.6591	369.4508	21341	20468.8
808.8025	371.643	21443.15	20571.05
808.9459	373.8346	21393.2	20521.85
809.0893	376.0257	21412.45	20536.4
809.2327	378.2162	21351.95	20476.35
809.3762	380.4062	21278.55	20404.75
809.5196	382.5956	21119.8	20247.3
809.6631	384.7844	21077.85	20214.15
809.8066	386.9726	20962.9	20100.25
809.9501	389.1603	20881.2	20018.05
810.0936	391.3474	20924.8	20026.7
810.2371	393.5339	20919.4	20049.45
810.3806	395.7199	20841.05	19976.65
810.5241	397.9052	20869.35	20004.3
810.6677	400.09	20893.25	20027.9
810.8113	402.2743	21030.25	20163.55
810.9548	404.4579	21071.1	20204.1
811.0984	406.641	21276.35	20411.8
811.2421	408.8235	21549.8	20678.5
811.3857	411.0054	21826.65	20955.4
811.5293	413.1868	22264.35	21388.9
811.673	415.3675	22567.25	21689.9
811.8166	417.5477	22752.75	21870.65
811.9603	419.7273	22774	21893.15
812.104	421.9064	22695.9	21811.05
812.2477	424.0848	22588.1	21711.45
812.3914	426.2627	22378.9	21496.5
812.5351	428.4399	22107.3	21226.8
812.6788	430.6166	21801.85	20917.5
812.8226	432.7928	21398.15	20509
812.9663	434.9683	21106.15	20223.05
813.1101	437.1432	20912.45	20032
813.2539	439.3176	20736.55	19858.35
813.3977	441.4914	20637.15	19763.3
813.5415	443.6645	20644.65	19770.45
813.6853	445.8371	20524.75	19641.2
813.8291	448.0091	20503.05	19619.75
813.973	450.1806	20476.9	19599
814.1168	452.3514	20404.8	19523.8
814.2607	454.5216	20446.8	19553.7
814.4046	456.6913	20408.65	19524.55
814.5485	458.8603	20447	19564.8
814.6924	461.0288	20533.05	19655.7
814.8363	463.1967	20517.8	19642.45
814.9802	465.3639	20670.5	19791.5
815.1241	467.5306	20745.75	19863.95
815.2681	469.6967	20887.25	20011.85
815.412	471.8622	21003.5	20129.85
815.556	474.0271	21178.8	20298.8
815.7	476.1914	21255.4	20367.6
815.844	478.3551	21278.35	20390
815.988	480.5182	21277.3	20397.1
816.132	482.6807	21286.85	20415.75
816.276	484.8426	21440.3	20572
816.4201	487.0039	21749.65	20876.35
816.5641	489.1647	22178.4	21296.4
816.7082	491.3248	22579	21695.85
816.8522	493.4843	22764.15	21885.65
816.9963	495.6432	22775.25	21896.25
817.1404	497.8015	22665.8	21773.05
817.2845	499.9592	22709.55	21816.35
817.4286	502.1163	22637.5	21741.55
817.5727	504.2728	22369.35	21482.25
817.7168	506.4287	22131.05	21253.7
817.861	508.5839	21690.5	20812
818.0051	510.7386	21407.05	20523
818.1493	512.8927	21261.2	20371.85
818.2935	515.0461	21221.75	20328.05
818.4377	517.199	21186.5	20292.65
818.5818	519.3512	21213.1	20316.95
818.726	521.5029	21339.95	20445.05
818.8703	523.6539	21453.65	20559.2
819.0145	525.8043	21484.3	20590.55
819.1587	527.9541	21494.45	20598.05
819.303	530.1033	21500.25	20608.15
819.4472	532.2519	21487.05	20592.35
819.5915	534.3999	21627.6	20729.05
819.7357	536.5472	21885.45	20994.2
819.88	538.694	22393.5	21502.7
820.0243	540.8401	22935.75	22042.55
820.1686	542.9856	23429.7	22522.15
820.3129	545.1305	23549.3	22636.5
820.4572	547.2748	23481.85	22565.75
820.6016	549.4185	23113	22200.75
820.7459	551.5615	22766.6	21854.05
820.8902	553.704	22699.25	21788.95
821.0346	555.8458	22637.7	21732
821.1789	557.987	22724.55	21822.2
821.3233	560.1276	22750	21842.3
821.4677	562.2675	22828.75	21922.65
821.6121	564.4069	22908.65	22000.55
821.7565	566.5456	22945.65	22040.35
821.9009	568.6837	22872.2	21973.5
822.0453	570.8212	22596.85	21691.55
822.1897	572.958	22244.35	21338.1
822.3342	575.0942	21951.35	21049.8
822.4786	577.2299	21743.6	20845.15
822.6231	579.3648	21641.8	20754.15
822.7675	581.4992	21705.5	20828.95
822.912	583.6329	21900.55	21024.05
823.0565	585.766	22154.05	21271.9
823.201	587.8985	22282.1	21394.6
823.3454	590.0304	22298.95	21381.1
823.4899	592.1616	22216.9	21311.5
823.6345	594.2922	22120.65	21211.05
823.779	596.4222	21968.4	21053.2
823.9235	598.5515	21821.95	20907.5
824.068	600.6802	21663.45	20749.75
824.2126	602.8083	21467.9	20559.05
824.3571	604.9358	21452.3	20542.85
824.5017	607.0626	21406.2	20494.9
824.6462	609.1888	21385.9	20467.25
824.7908	611.3144	21405.25	20489.65
824.9354	613.4393	21284.65	20367.7
825.08	615.5636	21216.15	20298.45
825.2246	617.6873	21184.2	20266.55
825.3692	619.8103	21131.5	20209.95
825.5138	621.9327	21079.95	20162.7
825.6584	624.0544	21010.1	20100.1
825.803	626.1756	20967.35	20056
825.9477	628.2961	20925.45	20012.15
826.0923	630.4159	20881.95	19964.35
826.237	632.5351	20887.1	19970.2
826.3816	634.6537	20833.45	19911.9
826.5263	636.7716	20856.75	19934.75
826.6709	638.8889	20869.65	19945.55
826.8156	641.0056	20932.7	20009.7
826.9603	643.1216	20900.7	19977.35
827.105	645.237	20961.6	20040.5
827.2497	647.3518	20937.95	20028.5
827.3944	649.4659	20983.9	20072.6
827.5391	651.5793	20946.55	20039.2
827.6838	653.6922	20944.65	20035.9
827.8285	655.8043	20958.15	20046.05
827.9733	657.9159	20974.95	20057.55
828.118	660.0268	20895.75	19978.9
828.2627	662.137	20859.9	19941.85
828.4075	664.2466	20852.05	19925.35
828.5522	666.3556	20865.75	19940.75
828.697	668.4639	20825.05	19903.75
828.8418	670.5716	20898.8	19985.85
828.9865	672.6786	20978.25	20057.6
829.1313	674.785	21004.55	20081
829.2761	676.8907	21063.9	20141.05
829.4209	678.9958	21138.85	20221.2
829.5657	681.1002	21126.05	20204.15
829.7105	683.204	21133.5	20208.6
829.8553	685.3072	21101.8	20172.6
830.0001	687.4097	21041.75	20120.5
830.1449	689.5115	21061.8	20134.7
830.2898	691.6127	20980.1	20058.8
830.4346	693.7132	20931.3	20015.2
830.5794	695.8131	20929.05	19991.4
830.7243	697.9123	20951.1	20022.8
830.8691	700.0109	20943	20013
831.014	702.1089	20939.9	20012.4
831.1588	704.2061	20932.75	20007
831.3037	706.3028	21001.9	20069.95
831.4486	708.3987	21064.15	20137.2
831.5935	710.4941	21142.2	20215.1
831.7383	712.5887	21317.2	20395.65
831.8832	714.6827	21593.9	20666.95
832.0281	716.7761	21914.6	20991.4
832.173	718.8688	22280	21354.45
832.3179	720.9608	22471.8	21541.2
832.4628	723.0522	22558.2	21623.35
832.6077	725.1429	22384.8	21452.75
832.7527	727.233	22180.45	21251.65
832.8976	729.3224	22000.85	21072.2
833.0425	731.4112	21693.1	20763.3
833.1874	733.4993	21557.15	20626.65
833.3324	735.5867	21365	20437.35
833.4773	737.6735	21310.45	20379
833.6222	739.7596	21201.6	20269.95
833.7672	741.845	21143.2	20214.5
833.9122	743.9298	21124.3	20192.5
834.0571	746.014	21134.55	20206.35
834.2021	748.0974	21174.05	20235.75
834.347	750.1802	21140.1	20205.05
834.492	752.2624	21179.45	20246.55
834.637	754.3439	21263.2	20324.3
834.782	756.4247	21316.5	20371.95
834.9269	758.5048	21394.65	20456.35
835.0719	760.5843	21648.35	20710.45
835.2169	762.6631	21988.05	21051.7
835.3619	764.7413	22436.6	21498.15
835.5069	766.8188	23026.8	22091.35
835.6519	768.8956	23459.55	22520.6
835.7969	770.9718	23793.45	22858.25
835.9419	773.0473	23604.95	22673.25
836.0869	775.1221	23308.85	22373.6
836.232	777.1962	22965.75	22031.2
836.377	779.2697	22779	21840.65
836.522	781.3426	22888.1	21931.3
836.667	783.4147	23066.9	22127.5
836.8121	785.4862	23359.4	22424.95
836.9571	787.557	23365.45	22429.7
837.1021	789.6271	23037.85	22093.75
837.2472	791.6966	22502.2	21564.65
837.3922	793.7654	21952.6	21015.85
837.5373	795.8335	21666.55	20729.75
837.6823	797.901	21474.45	20536.85
837.8274	799.9678	21397.1	20458.8
837.9724	802.0339	21428.8	20491.95
838.1175	804.0993	21512.85	20561.9
838.2626	806.1641	21437.45	20498.45
838.4076	808.2282	21407.8	20470.5
838.5527	810.2916	21335.6	20394.65
838.6978	812.3544	21235.65	20299.05
838.8428	814.4164	21187.4	20250.95
838.9879	816.4778	21245.6	20304.75
839.133	818.5385	21221.05	20277
839.2781	820.5986	21291.9	20347.6
839.4232	822.658	21428.5	20479.8
839.5682	824.7166	21570.9	20631.9
839.7133	826.7747	21865.2	20921.9
839.8584	828.832	22119.35	21174.1
840.0035	830.8886	22239.45	21295.85
840.1486	832.9446	22389.55	21443.35
840.2937	834.9999	22383	21443.1
840.4388	837.0545	22415.35	21469.05
840.5839	839.1085	22374.45	21427.65
840.729	841.1618	22307.55	21357.75
840.8741	843.2143	22256.35	21312.7
841.0192	845.2662	22146.35	21207.05
841.1643	847.3175	22099.05	21154.1
841.3095	849.368	21984.65	21038.95
841.4546	851.4179	21915.8	20968.65
841.5997	853.467	21732	20791.25
841.7448	855.5155	21663.2	20720.3
841.8899	857.5633	21590.2	20646.75
842.0351	859.6105	21461.9	20518.25
842.1802	861.6569	21422.4	20477
842.3253	863.7027	21379.1	20430.15
842.4704	865.7478	21370.6	20426.2
842.6156	867.7922	21406.1	20459.35
842.7607	869.8359	21453.55	20508.1
842.9058	871.8789	21565.65	20618.45
843.0509	873.9212	21754.95	20779.55
843.1961	875.9629	21879.85	20930.3
843.3412	878.0039	22046	21102.7
843.4863	880.0441	22156.1	21212.55
843.6315	882.0837	22220.6	21277.9
843.7766	884.1226	22163.35	21219.4
843.9218	886.1609	22081.4	21139.15
844.0669	888.1984	22009.7	21065.5
844.212	890.2352	22086.55	21143.9
844.3572	892.2714	22019.8	21067.55
844.5023	894.3069	22044.4	21098.25
844.6475	896.3416	21940.6	20997.45
844.7926	898.3757	21885.15	20937.35
844.9377	900.4091	21925.1	20976.15
845.0829	902.4418	21891.25	20939.4
845.228	904.4739	21932.3	20979.2
845.3732	906.5052	21965.35	21013.5
845.5183	908.5358	21852.3	20905.7
845.6635	910.5658	21725.5	20774.95
845.8086	912.595	21556.85	20605.3
845.9538	914.6236	21370.75	20422.55
846.0989	916.6515	21368.15	20418.5
846.2441	918.6786	21304.1	20354.15
846.3892	920.7051	21434.05	20480.85
846.5344	922.7309	21548.95	20601.55
846.6795	924.756	21613.75	20671.75
846.8246	926.7804	21730.9	20783.4
846.9698	928.8041	21661.65	20713.8
847.1149	930.8272	21706.9	20757.15
847.2601	932.8495	21586.35	20635.55
847.4052	934.8711	21569.6	20622.3
847.5504	936.892	21383.4	20433.55
847.6955	938.9123	21265.65	20311.6
847.8407	940.9318	21209.65	20260.2
847.9858	942.9506	21065.1	20119.75
848.131	944.9688	20951.95	20006.5
848.2761	946.9862	20941.8	19989.7
848.4213	949.003	20851.3	19901.95
848.5664	951.019	20834.8	19883
848.7115	953.0344	20852.85	19904.25
848.8567	955.0491	20871.6	19923.05
849.0018	957.063	20993.4	20042.1
849.147	959.0763	21122.9	20173
849.2921	961.0888	21136.75	20188.25
849.4373	963.1007	21261.25	20311.85
849.5824	965.1119	21307.95	20368.6
849.7275	967.1223	21385.35	20453.2
849.8727	969.1321	21336.25	20405.5
850.0178	971.1412	21386.3	20446.4
850.1629	973.1495	21400.6	20454.45
850.3081	975.1572	21435.8	20434.5
850.4532	977.1641	21493.05	20542.75
850.5983	979.1704	21474.7	20524
850.7435	981.1759	21475.05	20522
850.8886	983.1808	21530.75	20581
851.0337	985.1849	21585.25	20626.65
851.1788	987.1884	21733.1	20782.05
851.324	989.1911	21889.7	20939
851.4691	991.1932	22006.05	21058.1
851.6142	993.1945	21998.95	21054
851.7593	995.1951	21950.65	21003.7
851.9045	997.1951	21963.95	21008.85
852.0496	999.1943	21866.55	20917.65
852.1947	1001.1928	21821	20871.9
852.3398	1003.1906	21766.45	20814.7
852.4849	1005.1877	21875.2	20924.55
852.63	1007.1841	21830.35	20881.4
852.7751	1009.1798	21762.9	20813.1
852.9202	1011.1748	21584.7	20637.15
853.0653	1013.1691	21382.45	20433.55
853.2104	1015.1627	21155.25	20206.25
853.3555	1017.1556	20932.15	19987.95
853.5006	1019.1477	20858.1	19911.55
853.6457	1021.1392	20729.4	19790.8
853.7908	1023.1299	20711.4	19771.15
853.9359	1025.12	20723.65	19789.1
854.081	1027.1093	20739.3	19819.25
854.2261	1029.0979	20852.15	19933.15
854.3712	1031.0859	20870	19944.75
854.5163	1033.0731	20866.2	19933.6
854.6613	1035.0596	20816.75	19881.65
854.8064	1037.0454	20642.15	19699.9
854.9515	1039.0304	20519.2	19574.45
855.0965	1041.0148	20368	19422.75
855.2416	1042.9985	20291.15	19347.3
855.3867	1044.9814	20306.55	19360.6
855.5317	1046.9636	20193.8	19250.9
855.6768	1048.9452	20149.75	19207.65
855.8219	1050.926	20191.6	19246.45
855.9669	1052.9061	20210.9	19263.65
856.112	1054.8855	20224	19281.8
856.257	1056.8642	20264.5	19317.7
856.4021	1058.8421	20327.05	19376.3
856.5471	1060.8194	20311.5	19365.35
856.6921	1062.7959	20339.25	19393.15
856.8372	1064.7717	20368.6	19418.75
856.9822	1066.7469	20412.35	19464.15
857.1272	1068.7213	20385.3	19435
857.2723	1070.695	20434.6	19483.9
857.4173	1072.6679	20354.55	19411.3
857.5623	1074.6402	20320.9	19374.2
857.7073	1076.6117	20334.5	19380.1
857.8523	1078.5826	20324.75	19379.55
857.9973	1080.5527	20313.85	19361.45
858.1423	1082.5221	20359.75	19414.2
858.2873	1084.4908	20516.9	19571.25
858.4323	1086.4587	20646.85	19702.95
858.5773	1088.426	20768.1	19819.45
858.7223	1090.3925	20762.45	19810.15
858.8673	1092.3584	20765.15	19819.85
859.0123	1094.3235	20599.6	19657.3
859.1573	1096.2879	20569.85	19623.85
859.3022	1098.2515	20536.65	19592.2
859.4472	1100.2145	20607.5	19662
859.5922	1102.1767	20727.15	19777
859.7371	1104.1382	20913.15	19968.7
859.8821	1106.099	21099.25	20151.7
860.027	1108.0591	21281.85	20336.65
860.172	1110.0185	21436.4	20487.1
860.3169	1111.9771	21451.45	20506.85
860.4619	1113.9351	21243.75	20298.45
860.6068	1115.8923	20975.05	20029.65
860.7517	1117.8488	20735	19786.2
860.8967	1119.8045	20409.45	19466.55
861.0416	1121.7596	20313.55	19369.25
861.1865	1123.7139	20219.75	19274.25
861.3314	1125.6675	20211.85	19268.95
861.4763	1127.6204	20328.45	19386.15
861.6212	1129.5726	20262.75	19319.45
861.7661	1131.524	20237.25	19291.75
861.911	1133.4748	20253.2	19303.85
862.0559	1135.4248	20177.3	19232.05
862.2008	1137.3741	20149.6	19204.35
862.3457	1139.3226	20100.4	19153.9
862.4905	1141.2705	20055.7	19109.1
862.6354	1143.2176	19958.3	19010.45
862.7803	1145.164	19964.45	19016.1
862.9251	1147.1097	19964.05	19014.25
863.07	1149.0546	19942.7	18995.15
863.2148	1150.9989	19852.3	18906.1
863.3597	1152.9424	19760.9	18817.8
863.5045	1154.8852	19596.1	18651.2
863.6493	1156.8272	19505.15	18566.55
863.7942	1158.7686	19485.15	18531.4
863.939	1160.7092	19383.95	18433.85
864.0838	1162.6491	19363.25	18413.15
864.2286	1164.5883	19500.4	18553.3
864.3734	1166.5267	19561.4	18613.4
864.5182	1168.4644	19692.3	18745.55
864.663	1170.4014	19873.8	18929.3
864.8078	1172.3377	20111.6	19169.15
864.9526	1174.2732	20377.45	19437.8
865.0974	1176.2081	20630.4	19687.45
865.2421	1178.1421	20891.9	19942.25
865.3869	1180.0755	21190.4	20248.95
865.5317	1182.0082	21249.3	20310.25
865.6764	1183.9401	21298.55	20355.25
865.8212	1185.8713	21136.45	20198.85
865.9659	1187.8017	20850.1	19921.3
866.1106	1189.7315	20605.65	19685
866.2554	1191.6605	20284.35	19358.1
866.4001	1193.5888	20058.65	19133.05
866.5448	1195.5163	19980.85	19046.4
866.6895	1197.4432	19874.85	18934.6
866.8342	1199.3693	19831.05	18892.35
866.9789	1201.2947	19796.8	18855
867.1236	1203.2193	19739.7	18797
867.2683	1205.1432	19761.3	18820.45
867.413	1207.0664	19765.75	18823.35
867.5576	1208.9889	19759.05	18816.5
867.7023	1210.9106	19751.15	18809.6
867.847	1212.8316	19806.2	18866.2
867.9916	1214.7519	19795.75	18845.25
868.1363	1216.6715	19812.65	18873
868.2809	1218.5903	19841.95	18900.85
868.4255	1220.5084	19810.25	18869.75
868.5701	1222.4257	19818.85	18877.95
868.7148	1224.3424	19756.05	18819.4
868.8594	1226.2583	19816.6	18874.75
869.004	1228.1735	19882.95	18944.1
869.1486	1230.0879	19977.55	19035.45
869.2932	1232.0016	20060.45	19118.15
869.4377	1233.9146	20089.55	19146.85
869.5823	1235.8269	20014.7	19074.8
869.7269	1237.7384	19916.6	18977.9
869.8715	1239.6492	19693.9	18756.25
870.016	1241.5592	19569.9	18627.55
870.1606	1243.4686	19479.55	18535.6
870.3051	1245.3772	19496.2	18558.3
870.4496	1247.285	19470.3	18530.35
870.5941	1249.1922	19497.8	18557.55
870.7387	1251.0986	19523.9	18586
870.8832	1253.0042	19463.4	18526.55
871.0277	1254.9092	19481.35	18543
871.1722	1256.8134	19575.3	18637.35
871.3167	1258.7169	19721.35	18781.45
871.4611	1260.6196	19878	18938.7
871.6056	1262.5216	20102.55	19161.7
871.7501	1264.4229	20273	19333.15
871.8945	1266.3234	20354.65	19417.45
872.039	1268.2232	20465	19526.95
872.1834	1270.1223	20451.25	19513
872.3278	1272.0207	20429.25	19488.4
872.4723	1273.9183	20413.15	19467.05
872.6167	1275.8151	20316.25	19376.9
872.7611	1277.7113	20245.4	19306.3
872.9055	1279.6067	20123.4	19186.25
873.0499	1281.5014	20039.35	19102.4
873.1943	1283.3953	20062.2	19122.75
873.3386	1285.2885	20130.3	19196
873.483	1287.181	20225.95	19289.05
873.6274	1289.0727	20350.1	19414
873.7717	1290.9637	20388.65	19450.5
873.9161	1292.854	20559.95	19620
874.0604	1294.7435	20630.2	19693.35
874.2047	1296.6323	20793.35	19857.35
874.349	1298.5204	20939.9	19997.7
874.4933	1300.4077	21131.1	20191.8
874.6376	1302.2943	21236.45	20300.4
874.7819	1304.1802	21253.1	20317.85
874.9262	1306.0653	21012.75	20072.25
875.0705	1307.9497	20829.45	19893.95
875.2147	1309.8333	20658.6	19721.1
875.359	1311.7162	20523.55	19584.85
875.5032	1313.5984	20520.25	19578.8
875.6475	1315.4798	20532.1	19585.3
875.7917	1317.3605	20573.15	19627.8
875.9359	1319.2405	20603.3	19662.7
876.0801	1321.1197	20510.9	19568.85
876.2243	1322.9982	20363.85	19422.8
876.3685	1324.876	20323	19384.15
876.5127	1326.753	20148.3	19205.25
876.6569	1328.6293	20148	19205.8
876.801	1330.5048	20130	19188.5
876.9452	1332.3796	20031.35	19096.7
877.0893	1334.2537	20024.95	19061.7
877.2335	1336.127	19938.8	18998.25
877.3776	1337.9996	19890.25	18951.8
877.5217	1339.8714	19864.1	18923.95
877.6658	1341.7426	19804.05	18822.55
877.8099	1343.6129	19790.45	18854.25
877.954	1345.4826	19764.2	18825.25
878.0981	1347.3515	19735.1	18796.9
878.2422	1349.2196	19699.8	18760.6
878.3862	1351.087	19751.55	18811.2
878.5303	1352.9537	19752.25	18810.6
878.6743	1354.8197	19868.5	18929.2
878.8184	1356.6849	20016.7	19076.8
878.9624	1358.5493	20060.2	19120.5
879.1064	1360.4131	20116.3	19179.15
879.2504	1362.276	20092.4	19157.05
879.3944	1364.1383	19947.75	19012.2
879.5384	1365.9998	19681.85	18739.1
879.6823	1367.8606	19343.5	18403.6
879.8263	1369.7206	19081.45	18143.2
879.9702	1371.5799	18783.4	17841.25
880.1142	1373.4384	18594.9	17656.7
880.2581	1375.2962	18489.9	17552.45
880.402	1377.1533	18161.4	17225.95
880.5459	1379.0096	17844.35	16911.05
880.6898	1380.8652	17502.75	16572.55
880.8337	1382.7201	17243.85	16312.9
880.9776	1384.5742	16979.15	16045
881.1215	1386.4275	16824.9	15887.65
881.2653	1388.2802	16631.3	15693.95
881.4092	1390.132	16510.6	15572.65
881.553	1391.9832	16464.9	15524.15
881.6968	1393.8336	16352.55	15413.8
881.8406	1395.6832	16320.95	15384.65
881.9844	1397.5322	16211.65	15277.85
882.1282	1399.3803	16200.6	15259.9
882.272	1401.2278	16075.25	15137.55
882.4158	1403.0745	16067.6	15136
882.5595	1404.9204	16044.3	15112.55
882.7033	1406.7656	16036.3	15100.4
882.847	1408.6101	16061.65	15125.55
882.9908	1410.4538	16057	15120.55
883.1345	1412.2968	16084.55	15148.65
883.2782	1414.139	16063.3	15127
883.4219	1415.9805	16170.2	15233.9
883.5656	1417.8213	16212	15270.1
883.7092	1419.6613	16292.15	15360.2
883.8529	1421.5006	16467.1	15531.45
883.9965	1423.3391	16649.15	15714.45
884.1402	1425.1769	16956.25	16023.75
884.2838	1427.0139	17411.85	16474.85
884.4274	1428.8502	17990.25	17055.4
884.571	1430.6858	18541.7	17608.8
884.7146	1432.5206	18862.85	17931.35
884.8582	1434.3547	19098.9	18166.35
885.0018	1436.188	19169.15	18235.4
885.1453	1438.0206	19063.8	18130.1
885.2889	1439.8524	18874.65	17941.55
885.4324	1441.6835	18740.95	17807
885.5759	1443.5139	18656.35	17720.2
885.7194	1445.3435	18510.55	17577.9
885.8629	1447.1724	18495.4	17565.8
886.0064	1449.0005	18433.5	17502.2
886.1499	1450.8279	18333.6	17402.4
886.2933	1452.6545	18268.6	17336.4
886.4368	1454.4804	18314.8	17381.4
886.5802	1456.3056	18305.25	17364.75
886.7237	1458.13	18155.9	17227.65
886.8671	1459.9536	17983.6	17051.95
887.0105	1461.7766	17636.1	16702.2
887.1539	1463.5987	17228.45	16293.95
887.2972	1465.4202	16836.75	15904.75
887.4406	1467.2409	16437.7	15507.4
887.584	1469.0608	16192.95	15263
887.7273	1470.88	15908.8	14976.9
887.8706	1472.6984	15688.85	14758.4
888.0139	1474.5161	15437.15	14501.4
888.1572	1476.3331	15290.7	14359.35
888.3005	1478.1493	15161.8	14229.15
888.4438	1479.9648	15077.75	14145.3
888.5871	1481.7795	14926.45	13992.35
888.7303	1483.5935	14888.65	13956.25
888.8736	1485.4067	14818.7	13886.15
889.0168	1487.2192	14762.65	13833.1
889.16	1489.031	14688	13755.75
889.3032	1490.842	14638.6	13708.05
889.4464	1492.6522	14579.75	13648.3
889.5896	1494.4618	14532.05	13595.75
889.7327	1496.2705	14509.15	13578.55
889.8759	1498.0785	14458.75	13530.75
890.019	1499.8858	14411.05	13478.9
890.1622	1501.6924	14376.15	13447.05
890.3053	1503.4981	14321.55	13390.9
890.4484	1505.3032	14284.4	13353.85
890.5914	1507.1075	14231.75	13302.25
890.7345	1508.911	14204.15	13273.9
890.8776	1510.7138	14165	13235.65
891.0206	1512.5159	14075.75	13144.2
891.1637	1514.3172	14005.85	13075.5
891.3067	1516.1178	13987.15	13058.75
891.4497	1517.9176	13930.85	12999.3
891.5927	1519.7166	13885.9	12955.9
891.7357	1521.515	13828.45	12895.05
891.8786	1523.3126	13771.9	12842.85
892.0216	1525.1094	13735.1	12806.2
892.1645	1526.9055	13702.7	12776.9
892.3074	1528.7008	13639	12711.2
892.4503	1530.4954	13555.85	12628.55
892.5932	1532.2893	13533.65	12607.6
892.7361	1534.0824	13486.4	12554.8
892.879	1535.8747	13491.4	12569.35
893.0218	1537.6663	13435.7	12510.25
893.1647	1539.4572	13414.45	12488.25
893.3075	1541.2473	13390.6	12466.1
893.4503	1543.0367	13358.35	12434.5
893.5931	1544.8253	13311.35	12379.95
893.7359	1546.6132	13323	12391.85
893.8787	1548.4003	13289.5	12357.05
894.0214	1550.1867	13308.55	12376.85
894.1642	1551.9723	13314.5	12387.5
894.3069	1553.7572	13344	12421.8
894.4496	1555.5414	13363	12440.05
894.5923	1557.3247	13410.35	12492.75
894.735	1559.1074	13466.65	12550.8
894.8777	1560.8893	13558.05	12639.4
895.0204	1562.6705	13621.5	12702.15
895.163	1564.4509	13673.2	12756.85
895.3056	1566.2305	13688.4	12774.15
895.4482	1568.0094	13760.4	12845.6
895.5908	1569.7876	13806.25	12890.6
895.7334	1571.565	13791.7	12875.55
895.876	1573.3417	13787.15	12868.85
896.0186	1575.1176	13760.25	12844.3
896.1611	1576.8928	13743.5	12830.1
896.3036	1578.6672	13590.35	12680.45
896.4461	1580.4409	13468.15	12562.7
896.5886	1582.2138	13411.35	12498.7
896.7311	1583.986	13290.65	12377.45
896.8736	1585.7575	13245.35	12332.4
897.0161	1587.5282	13161.35	12252.9
897.1585	1589.2981	13139.95	12231
897.3009	1591.0673	13067.4	12160.9
897.4433	1592.8358	13086.45	12176.95
897.5857	1594.6035	13123.7	12210.4
897.7281	1596.3704	13088.85	12174.45
897.8705	1598.1366	13113.2	12201.05
898.0128	1599.9021	13159.4	12245.95
898.1551	1601.6668	13215.8	12301.95
898.2975	1603.4308	13267.75	12353.45
898.4398	1605.194	13371.1	12454.55
898.5821	1606.9564	13470.2	12566.65
898.7243	1608.7182	13590.45	12688.3
898.8666	1610.4791	13767.95	12869.05
899.0088	1612.2394	13918.6	13021.2
899.1511	1613.9988	14104.4	13204.75
899.2933	1615.7576	14306.7	13401.55
899.4355	1617.5156	14487.3	13570.55
899.5776	1619.2728	14689.55	13775.75
899.7198	1621.0293	14762.8	13852.5
899.862	1622.785	14768.55	13856.65
900.0041	1624.54	14604.5	13698.4
900.1462	1626.2942	14445.25	13540.75
900.2883	1628.0477	14162.1	13254.2
900.4304	1629.8005	13926.8	13018.45
900.5725	1631.5525	13674.2	12768.05
900.7145	1633.3037	13472.65	12568.4
900.8566	1635.0542	13308.45	12406.25
900.9986	1636.804	13169.7	12264.85
901.1406	1638.553	13178.4	12202.7
901.2826	1640.3013	13082.05	12175.45
901.4245	1642.0488	13031.9	12127.4
901.5665	1643.7955	13037.25	12136.5
901.7085	1645.5416	13098.95	12196.6
901.8504	1647.2868	13189.05	12285
901.9923	1649.0313	13226.85	12320.45
902.1342	1650.7751	13374	12466.45
902.2761	1652.5181	13499.05	12595.8
902.4179	1654.2604	13671.65	12769.3
902.5598	1656.0019	13945.4	13045.05
902.7016	1657.7427	14236.9	13333.95
902.8434	1659.4828	14519.55	13614.3
902.9852	1661.222	14635.6	13729.55
903.127	1662.9606	14650.35	13742.55
903.2687	1664.6984	14410.95	13503.6
903.4105	1666.4354	14004.8	13094.25
903.5522	1668.1717	13468.35	12559.75
903.6939	1669.9072	12946.3	12036.8
903.8356	1671.642	12546.3	11634.6
903.9773	1673.3761	12180.65	11272.1
904.119	1675.1094	11883.05	10978.85
904.2606	1676.8419	11645.4	10741.65
904.4022	1678.5737	11423.45	10519.15
904.5439	1680.3048	11276.3	10369.4
904.6855	1682.0351	11138.45	10231.5
904.827	1683.7646	11017.05	10108.2
904.9686	1685.4934	10931.95	10026.9
905.1101	1687.2215	10849.8	9947.5
905.2517	1688.9488	10754.85	9854.85
905.3932	1690.6754	10684.4	9780.1
905.5347	1692.4012	10678.55	9774.75
905.6761	1694.1263	10604.6	9700.05
905.8176	1695.8506	10546.25	9639.85
905.9591	1697.5742	10508.9	9605.2
906.1005	1699.297	10456.45	9557.15
906.2419	1701.0191	10386.45	9491.65
906.3833	1702.7404	10354.95	9457.1
906.5246	1704.461	10289.3	9388.85
906.666	1706.1808	10247.8	9345.75
906.8073	1707.8999	10210.8	9310.65
906.9487	1709.6182	10184.5	9287.5
907.09	1711.3358	10111.1	9215.3
907.2313	1713.0527	10091.7	9196.6
907.3725	1714.7688	10075.9	9173.5
907.5138	1716.4841	10007.25	9106.7
907.655	1718.1987	9991.85	9087.05
907.7962	1719.9126	9946.85	9050.85
907.9374	1721.6257	9919.65	9023.6
908.0786	1723.338	9882.8	8987.85
908.2198	1725.0496	9833.4	8935.45
908.3609	1726.7605	9793.75	8894.8
908.502	1728.4706	9762.5	8864.15
908.6431	1730.18	9701.95	8805.65
908.7842	1731.8886	9687.05	8791.8
908.9253	1733.5964	9671.1	8755.85
909.0664	1735.3036	9643.9	8743.55
909.2074	1737.0099	9627.7	8730.35
909.3484	1738.7156	9603.75	8707.65
909.4894	1740.4204	9536.85	8639.05
909.6304	1742.1246	9483.15	8583.35
909.7714	1743.8279	9474.85	8576.95
909.9123	1745.5306	9453.7	8558.25
910.0532	1747.2325	9431.75	8534.9
910.1941	1748.9336	9390.7	8494.7
910.335	1750.634	9349.95	8449.7
910.4759	1752.3336	9325.25	8426.95
910.6168	1754.0325	9319.85	8426.9
910.7576	1755.7307	9309.95	8417.4
910.8984	1757.4281	9282.95	8387.25
911.0392	1759.1247	9270.75	8364.7
911.18	1760.8206	9229.35	8323.05
911.3208	1762.5158	9215.7	8311.55
911.4615	1764.2102	9192.4	8297.45
911.6022	1765.9039	9141.3	8244.7
911.7429	1767.5968	9119.3	8224.35
911.8836	1769.289	9088.95	8196.95
912.0243	1770.9804	9075.05	8177.05
912.1649	1772.6711	9075.4	8176.55
912.3056	1774.361	9041.15	8142.15
912.4462	1776.0502	9025.75	8126.9
912.5868	1777.7386	9005	8103.3
912.7274	1779.4263	8977.6	8081.05
912.8679	1781.1132	8958.6	8066.85
913.0084	1782.7994	8915.85	8021.25
913.149	1784.4849	8917.75	8025.1
913.2895	1786.1696	8880.7	7983.1
913.4299	1787.8535	8854.65	7963.05
913.5704	1789.5367	8850.55	7959.9
913.7108	1791.2192	8837.3	7946.25
913.8513	1792.9009	8812.85	7892.85
913.9917	1794.5818	8776.4	7878.45
914.132	1796.2621	8741.4	7845.3
914.2724	1797.9415	8739.05	7842.95
914.4128	1799.6202	8718.15	7823.1
914.5531	1801.2982	8706.4	7809.8
914.6934	1802.9755	8689.8	7791.75
914.8337	1804.6519	8648.85	7754
914.9739	1806.3277	8627.75	7736.8
915.1142	1808.0027	8580.2	7690.55
915.2544	1809.6769	8583.95	7692.7
915.3946	1811.3504	8559.85	7670.6
915.5348	1813.0231	8515.75	7623.1
915.675	1814.6951	8520.4	7628.15
915.8151	1816.3664	8506.65	7611.5
915.9553	1818.0369	8475	7579.65
916.0954	1819.7067	8453.95	7561.1
916.2355	1821.3757	8441.05	7542.1
916.3755	1823.044	8431.8	7537
916.5156	1824.7115	8419.85	7524.05
916.6556	1826.3783	8348.3	7452.65
916.7956	1828.0443	8326.45	7431.6
916.9356	1829.7096	8315.3	7418.25
917.0756	1831.3741	8330.15	7430.95
917.2155	1833.0379	8289.9	7398.85
917.3555	1834.701	8278.15	7384.3
917.4954	1836.3633	8266.1	7374.95
917.6353	1838.0248	8243.8	7350.65
917.7751	1839.6856	8239.75	7346.1
917.915	1841.3457	8221.85	7329.1
918.0548	1843.005	8192.75	7296.9
918.1946	1844.6636	8161.05	7267.85
918.3344	1846.3214	8160.55	7267.9
918.4742	1847.9785	8167.4	7273.85
918.6139	1849.6349	8126.9	7230.6
918.7537	1851.2904	8116.85	7210.8
918.8934	1852.9453	8107.9	7212.3
919.0331	1854.5994	8085.1	7187.15
919.1727	1856.2528	8086.2	7186.1
919.3124	1857.9054	8046.35	7152.3
919.452	1859.5572	8049.05	7155
919.5916	1861.2083	8033.8	7137.85
919.7312	1862.8587	8021.55	7124.75
919.8708	1864.5084	8014.65	7116.7
920.0103	1866.1572	7958.4	7061.3
920.1498	1867.8054	7936.7	7039.55
920.2893	1869.4528	7928.4	7029.4
920.4288	1871.0994	7919.4	7023.6
920.5683	1872.7453	7908.65	7009.85
920.7077	1874.3905	7879.95	6968.3
920.8471	1876.0349	7836.55	6941.65
920.9865	1877.6786	7852.25	6956.4
921.1259	1879.3215	7839.25	6944.6
921.2653	1880.9637	7811.4	6917.15
921.4046	1882.6051	7801.95	6910.45
921.5439	1884.2458	7773.15	6875.3
921.6832	1885.8858	7725.4	6832.05
921.8225	1887.525	7715.7	6820.2
921.9617	1889.1634	7700.8	6806.6
922.101	1890.8011	7663.05	6767.8
922.2402	1892.4381	7649.05	6752.95
922.3794	1894.0743	7628.7	6733
922.5185	1895.7098	7605.45	6712.35
922.6577	1897.3446	7600.5	6707.8
922.7968	1898.9786	7601.85	6706.55
922.9359	1900.6118	7584.45	6691.65
923.075	1902.2443	7527.1	6632.85
923.214	1903.8761	7533.3	6638.9
923.3531	1905.5071	7480.4	6585.55
923.4921	1907.1374	7457.95	6563.4
923.6311	1908.7669	7468.6	6576.5
923.77	1910.3957	7443.3	6550.4
923.909	1912.0237	7403.55	6510.85
924.0479	1913.651	7389.1	6495.8
924.1868	1915.2776	7388.3	6494.3
924.3257	1916.9034	7349.85	6457.35
924.4646	1918.5285	7308.65	6417.2
924.6034	1920.1528	7284.8	6395.25
924.7422	1921.7764	7277.7	6385.35
924.881	1923.3992	7233.9	6342.65
925.0198	1925.0213	7189.65	6297
925.1586	1926.6427	7178.55	6284.55
925.2973	1928.2633	7245.15	6260.1
925.436	1929.8832	7155.25	6259.4
925.5747	1931.5023	7117.6	6227.45
925.7134	1933.1207	7133.3	6240.95
925.852	1934.7383	7106.75	6212.8
925.9906	1936.3552	7076	6184.8
926.1292	1937.9714	7037.85	6147.75
926.2678	1939.5868	7008.7	6115.25
926.4064	1941.2015	6975.75	6080.3
926.5449	1942.8154	6951.1	6055.7
926.6834	1944.4286	6932.85	6039.15
926.8219	1946.041	6931.95	6017.8
926.9604	1947.6528	6875.45	5975.55
927.0988	1949.2637	6865.6	5973.95
927.2372	1950.8739	6839.75	5947.7
927.3756	1952.4834	6816.05	5921.05
927.514	1954.0921	6839	5947.05
927.6523	1955.7001	6808.25	5912.65
927.7907	1957.3074	6767.55	5879.5
927.929	1958.9139	6733.15	5845.45
928.0673	1960.5197	6730.9	5842.25
928.2055	1962.1247	6698.9	5806.35
928.3438	1963.729	6672.2	5782.45
928.482	1965.3325	6638.4	5747.85
928.6202	1966.9353	6628.25	5743.75
928.7584	1968.5374	6600.15	5709.5
928.8965	1970.1387	6579.25	5688.5
929.0346	1971.7393	6576.45	5687.2
929.1727	1973.3392	6536.9	5646.95
929.3108	1974.9383	6509.9	5622.45
929.4489	1976.5366	6480.65	5592.55
929.5869	1978.1342	6490.5	5601.95
929.7249	1979.7311	6468.45	5580.65
929.8629	1981.3273	6440.35	5554.5
930.0009	1982.9227	6424.5	5535.9
930.1388	1984.5173	6405.65	5518.6
930.2767	1986.1112	6381.85	5496.2
930.4146	1987.7044	6367.8	5481.2
930.5525	1989.2968	6335.65	5447.9
930.6904	1990.8885	6334.6	5445.8
930.8282	1992.4795	6314.75	5429.85
930.966	1994.0697	6310.6	5427.5
931.1038	1995.6592	6296.85	5410.75
931.2415	1997.2479	6287.6	5402.85
931.3793	1998.8359	6242.95	5357.15
931.517	2000.4232	6219.7	5337.05
931.6547	2002.0097	6201.3	5321.25
931.7923	2003.5955	6173.2	5291.05
931.93	2005.1805	6174.8	5290.7
932.0676	2006.7648	6164.35	5283.65
932.2052	2008.3484	6138.4	5255.65
932.3427	2009.9312	6146	5262.1
932.4803	2011.5133	6115.2	5235.95
932.6178	2013.0946	6083.6	5201.6
932.7553	2014.6752	6078.65	5195.25
932.8928	2016.2551	6071.1	5185.9
933.0302	2017.8342	6027.35	5143.3
933.1676	2019.4126	6024.1	5143.85
933.305	2020.9902	5993.1	5114.7
933.4424	2022.5672	5999.2	5117.35
933.5798	2024.1433	5984.5	5099.9
933.7171	2025.7188	5962.9	5085.1
933.8544	2027.2935	5949.25	5069.15
933.9917	2028.8674	5918.35	5039.05
934.129	2030.4406	5926.85	5048
934.2662	2032.0131	5883.95	5005.45
934.4034	2033.5849	5861.4	4980.55
934.5406	2035.1559	5868.15	4989.3
934.6778	2036.7261	5837.75	4953.8
934.8149	2038.2957	5830.55	4945.8
934.952	2039.8645	5805.5	4918.65
935.0891	2041.4325	5831.25	4943.65
935.2262	2042.9998	5784.55	4902.15
935.3632	2044.5664	5793.9	4911.35
935.5002	2046.1323	5760.3	4879.5
935.6372	2047.6974	5748.75	4868.7
935.7742	2049.2617	5748.6	4869.65
935.9111	2050.8254	5751.7	4847.5
936.048	2052.3883	5732.35	4846.55
936.1849	2053.9504	5707.6	4821.85
936.3218	2055.5118	5699.95	4816.2
936.4586	2057.0725	5663.05	4777.7
936.5955	2058.6325	5646.4	4761.4
936.7323	2060.1917	5651.3	4768.9
936.869	2061.7502	5610.6	4727.75
937.0058	2063.3079	5599.1	4720.1
937.1425	2064.8649	5585	4702.55
937.2792	2066.4212	5594.15	4711.7
937.4159	2067.9767	5562.9	4680.85
937.5525	2069.5315	5522.45	4637.8
937.6891	2071.0856	5520.7	4636.65
937.8257	2072.6389	5514.1	4630.85
937.9623	2074.1915	5463.2	4586.1
938.0989	2075.7433	5472.5	4586.55
938.2354	2077.2945	5439.2	4559.05
938.3719	2078.8448	5421.45	4534.3
938.5084	2080.3945	5422.1	4536.4
938.6448	2081.9434	5410.45	4525.8
938.7812	2083.4916	5392.4	4507.35
938.9176	2085.039	5398.3	4506.25
939.054	2086.5857	5377.25	4484.4
939.1903	2088.1317	5361.8	4468.8
939.3267	2089.677	5353.8	4460.05
939.463	2091.2215	5319.15	4428.65
939.5992	2092.7652	5319.85	4427.35
939.7355	2094.3083	5303.75	4412.8
939.8717	2095.8506	5281.05	4393.7
940.0079	2097.3921	5274.7	4389.1
940.1441	2098.933	5264.3	4376.25
940.2802	2100.4731	5265.05	4378.25
940.4163	2102.0124	5255.7	4360.55
940.5524	2103.5511	5245.05	4356.6
940.6885	2105.089	5227.2	4338.4
940.8245	2106.6261	5213.4	4328
940.9606	2108.1626	5195.45	4307.25
941.0965	2109.6983	5212	4294.5
941.2325	2111.2332	5193.8	4306.35
941.3684	2112.7675	5162.8	4275.65
941.5044	2114.301	5154.35	4264.35
941.6403	2115.8337	5167.75	4279.05
941.7761	2117.3657	5129.3	4241.1
941.912	2118.897	5142.8	4251.95
942.0478	2120.4276	5111.6	4215.2
942.1835	2121.9575	5072.55	4183.1
942.3193	2123.4866	5098.75	4196.15
942.455	2125.0149	5078.55	4186.65
942.5907	2126.5426	5039.45	4155.2
942.7264	2128.0695	5032.85	4147.1
942.8621	2129.5956	5021.65	4141.45
942.9977	2131.1211	5011.5	4124.85
943.1333	2132.6458	5006.1	4119.45
943.2689	2134.1698	4992.7	4102.25
943.4044	2135.693	4981.75	4086.7
943.54	2137.2155	4970.65	4078.55
943.6755	2138.7373	4962.3	4073.9
943.8109	2140.2584	4957.55	4073.9
943.9464	2141.7787	4936.8	4048.95
944.0818	2143.2983	4921.65	4040.8
944.2172	2144.8171	4888.8	4009.65
944.3526	2146.3353	4893	4007.35
944.4879	2147.8527	4858.75	3974.8
944.6232	2149.3693	4887.35	3999.75
944.7585	2150.8853	4855.05	3968.15
944.8938	2152.4005	4840.25	3951.9
945.029	2153.9149	4819.9	3929.7
945.1642	2155.4287	4808.6	3919
945.2994	2156.9417	4801.15	3911.35
945.4346	2158.454	4790	3901.85
945.5697	2159.9655	4775.5	3889.75
945.7048	2161.4764	4778.75	3894.65
945.8399	2162.9865	4743.45	3857.8
945.9749	2164.4958	4739.85	3854.25
946.1099	2166.0045	4734.25	3850.2
946.2449	2167.5124	4752.65	3866.9
946.3799	2169.0195	4714.1	3826.8
946.5148	2170.526	4719.2	3831.75
946.6498	2172.0317	4692.15	3803.5
946.7846	2173.5367	4674.55	3786.95
946.9195	2175.0409	4664.85	3778.65
947.0543	2176.5445	4661.15	3773.5
947.1891	2178.0473	4658.6	3770.45
947.3239	2179.5494	4624.3	3731.9
947.4587	2181.0507	4621.15	3733.35
947.5934	2182.5513	4606.4	3719.6
947.7281	2184.0512	4594.75	3705.75
947.8628	2185.5504	4588.2	3700.4
947.9974	2187.0488	4567.4	3682.65
948.132	2188.5465	4541	3655.6
948.2666	2190.0435	4537.25	3648.3
948.4012	2191.5397	4535.75	3648.5
948.5357	2193.0353	4521.45	3633
948.6702	2194.5301	4515.15	3624.65
948.8047	2196.0241	4498.8	3604.4
948.9392	2197.5175	4493.85	3600.75
949.0736	2199.0101	4473.8	3581.2
949.208	2200.502	4444.1	3555.35
949.3424	2201.9931	4417.8	3533.65
949.4767	2203.4835	4424.9	3538.45
949.611	2204.9733	4431.35	3541.8
949.7453	2206.4622	4412.3	3527.05
949.8796	2207.9505	4376.7	3490.05
950.0138	2209.438	4371.5	3490.3
950.148	2210.9248	4357.65	3473.2
950.2822	2212.4109	4341.2	3453.75
950.4164	2213.8962	4339.55	3448.35
950.5505	2215.3809	4327.3	3435.05
950.6846	2216.8648	4332.3	3438.65
950.8186	2218.3479	4324.95	3426.6
950.9527	2219.8304	4311.3	3413.7
951.0867	2221.3121	4297.05	3398.55
951.2207	2222.7931	4286.7	3393.5
951.3546	2224.2733	4255.75	3364.9
951.4886	2225.7529	4243.1	3353.1
951.6225	2227.2317	4232.2	3341
951.7563	2228.7098	4240.7	3355.75
951.8902	2230.1872	4201.6	3317.55
952.024	2231.6638	4195.25	3311.95
952.1578	2233.1397	4192.2	3305.65
952.2916	2234.6149	4186.95	3303.1
952.4253	2236.0894	4167.65	3279.9
952.559	2237.5632	4165.45	3267.95
952.6927	2239.0362	4139.15	3252.25
952.8263	2240.5085	4151.4	3264.5
952.9599	2241.9801	4128.7	3238.3
953.0935	2243.4509	4107.1	3216.7
953.2271	2244.921	4098.95	3205.7
953.3606	2246.3904	4083.95	3190.05
953.4941	2247.8591	4088.6	3198.9
953.6276	2249.3271	4058.65	3168.9
953.7611	2250.7943	4067.1	3177.8
953.8945	2252.2608	4042.7	3152.2
954.0279	2253.7266	4035.45	3145
954.1612	2255.1917	4027.25	3139.1
954.2946	2256.656	4016.45	3130.1
954.4279	2258.1197	3997.55	3113
954.5612	2259.5826	3991.7	3100.8
954.6944	2261.0447	3990.95	3099.95
954.8276	2262.5062	3958.8	3067.6
954.9608	2263.9669	3976.3	3083.2
955.094	2265.4269	3946.95	3057
955.2271	2266.8862	3936.35	3048.25
955.3602	2268.3448	3938.95	3050.8
955.4933	2269.8026	3930.55	3045.2
955.6264	2271.2598	3923.95	3037.25
955.7594	2272.7162	3915.4	3028.7
955.8924	2274.1719	3898.6	3006.3
956.0253	2275.6268	3890.1	2997.8
956.1583	2277.0811	3894.05	3004.7
956.2912	2278.5346	3887.3	3000.1
956.4241	2279.9874	3874.3	2988
956.5569	2281.4395	3857.75	2974.25
956.6897	2282.8908	3863.5	2969
956.8225	2284.3414	3844.7	2953.55
956.9553	2285.7914	3828.2	2941.5
957.088	2287.2406	3823.7	2932.25
957.2207	2288.689	3823.4	2930.85
957.3534	2290.1368	3809.3	2913.05
957.486	2291.5838	3809.65	2914.35
957.6186	2293.0302	3798.2	2902.5
957.7512	2294.4758	3785.1	2892.65
957.8838	2295.9206	3766.75	2873.1
958.0163	2297.3648	3762.95	2875.55
958.1488	2298.8082	3753.45	2864.2
958.2813	2300.251	3746.25	2854.45
958.4137	2301.693	3740.3	2846.75
958.5461	2303.1343	3732.6	2838.35
958.6785	2304.5748	3711.2	2821.7
958.8108	2306.0147	3715.65	2828.7
958.9432	2307.4538	3700.8	2811.9
959.0754	2308.8922	3675.8	2792.55
959.2077	2310.3299	3670.1	2784.1
959.3399	2311.7669	3674.1	2786.35
959.4721	2313.2031	3661.4	2772.7
959.6043	2314.6387	3658.45	2767.8
959.7365	2316.0735	3629.8	2740.65
959.8686	2317.5076	3644.6	2754.85
960.0006	2318.941	3620.2	2730.7
960.1327	2320.3737	3630.3	2738.2
960.2647	2321.8056	3616.55	2722.75
960.3967	2323.2369	3611.4	2718.55
960.5287	2324.6674	3596.05	2704.35
960.6606	2326.0972	3579	2687.8
960.7925	2327.5263	3566.35	2678.15
960.9244	2328.9547	3569.75	2679.2
961.0562	2330.3823	3572.55	2679.95
961.1881	2331.8092	3564.65	2667.9
961.3198	2333.2355	3542.5	2647.55
961.4516	2334.661	3539.35	2647.3
961.5833	2336.0858	3531.85	2636.05
961.715	2337.5098	3523.9	2633.9
961.8467	2338.9332	3507.15	2615.95
961.9783	2340.3558	3506.55	2615.8
962.1099	2341.7778	3495.85	2606.9
962.2415	2343.199	3480.45	2592.05
962.373	2344.6195	3476.15	2587.9
962.5045	2346.0393	3477.5	2589.6
962.636	2347.4583	3479.9	2589.85
962.7675	2348.8767	3470.75	2579.55
962.8989	2350.2943	3463.95	2570.7
963.0303	2351.7113	3457.7	2565.8
963.1617	2353.1275	3456.85	2562.85
963.293	2354.543	3437.55	2537.05
963.4243	2355.9578	3418.95	2527.75
963.5556	2357.3718	3395.6	2508.05
963.6868	2358.7852	3392.85	2501.85
963.818	2360.1978	3398.5	2509.9
963.9492	2361.6098	3382.3	2495.95
964.0803	2363.021	3381.75	2489.15
964.2114	2364.4315	3369.95	2481.45
964.3425	2365.8413	3365.9	2477.85
964.4736	2367.2504	3352.25	2466.25
964.6046	2368.6587	3332.6	2444.1
964.7356	2370.0664	3328.2	2442.5
964.8666	2371.4733	3320.85	2433
964.9975	2372.8795	3314.05	2427.6
965.1284	2374.285	3305.5	2416.75
965.2593	2375.6899	3282.1	2396.4
965.3901	2377.0939	3288.1	2401.2
965.5209	2378.4973	3283.7	2398.9
965.6517	2379.9	3263.2	2374.75
965.7825	2381.3019	3251.85	2365.6
965.9132	2382.7032	3232.5	2347.5
966.0439	2384.1037	3233	2348.45
966.1745	2385.5035	3238.1	2356.15
966.3051	2386.9027	3217.5	2332.8
966.4357	2388.3011	3219.3	2329.7
966.5663	2389.6987	3221.4	2336.1
966.6968	2391.0957	3203.55	2319.7
966.8273	2392.492	3181.25	2297.4
966.9578	2393.8876	3176.3	2293.5
967.0882	2395.2824	3158.4	2275.8
967.2186	2396.6765	3170.9	2287.7
967.349	2398.07	3152.6	2268.2
967.4793	2399.4627	3154.7	2267.75
967.6097	2400.8547	3125.9	2236.9
967.7399	2402.246	3136.05	2245.2
967.8702	2403.6366	3108.6	2221.9
968.0004	2405.0265	3104.45	2220.2
968.1306	2406.4156	3106	2217.35
968.2607	2407.8041	3102.75	2214.35
968.3909	2409.1918	3090.4	2205.65
968.521	2410.5789	3078	2191.95
968.651	2411.9652	3063.15	2175.4
968.781	2413.3508	3055.25	2170.05
968.911	2414.7358	3048.55	2161.25
969.041	2416.12	3048.1	2161.25
969.1709	2417.5035	3051	2165.45
969.3008	2418.8863	3037.75	2150.95
969.4307	2420.2684	3023.5	2138.15
969.5606	2421.6497	3007	2118.4
969.6904	2423.0304	3007.95	2122.6
969.8201	2424.4104	3004.1	2118.85
969.9499	2425.7896	2991.05	2102.7
970.0796	2427.1682	2977.95	2091.2
970.2093	2428.546	2982	2095.35
970.3389	2429.9232	2973.95	2086.05
970.4685	2431.2996	2965.4	2077.65
970.5981	2432.6753	2961.05	2076.1
970.7277	2434.0503	2962.5	2078.35
970.8572	2435.4246	2947.05	2060.55
970.9867	2436.7982	2928.45	2038.05
971.1161	2438.1711	2926.95	2039.7
971.2456	2439.5433	2915.9	2027.25
971.375	2440.9148	2915.95	2023.85
971.5043	2442.2856	2898.25	2011.1
971.6336	2443.6557	2901.65	2013.6
971.7629	2445.025	2879.15	1992.95
971.8922	2446.3937	2882.35	1993.15
972.0214	2447.7617	2877.35	1994.7
972.1506	2449.1289	2876.15	1987.95
972.2798	2450.4955	2865.85	1974.95
972.4089	2451.8613	2844.65	1957.65
972.538	2453.2265	2862.2	1975.5
972.6671	2454.5909	2849.95	1962.85
972.7961	2455.9546	2846.8	1960.35
972.9251	2457.3177	2846.05	1960.15
973.0541	2458.68	2843.05	1955.25
973.1831	2460.0416	2831.25	1943.6
973.312	2461.4025	2829.6	1941.95
973.4408	2462.7627	2838.65	1939.35
973.5697	2464.1222	2812.25	1926.2
973.6985	2465.4811	2806.45	1918.5
973.8273	2466.8392	2800.3	1914.4
973.956	2468.1966	2795.6	1907.95
974.0847	2469.5533	2798.65	1910.3
974.2134	2470.9093	2790.55	1903.15
974.3421	2472.2645	2799.9	1914.2
974.4707	2473.6191	2772.9	1886.45
974.5993	2474.973	2764.3	1878.9
974.7278	2476.3262	2765.85	1877.5
974.8563	2477.6787	2755.2	1868.95
974.9848	2479.0305	2745.55	1857.15
975.1132	2480.3816	2753	1863.85
975.2417	2481.7319	2728.65	1840.9
975.37	2483.0816	2725.3	1836.45
975.4984	2484.4306	2732.8	1844.4
975.6267	2485.7789	2713.05	1827.15
975.755	2487.1264	2697.45	1812.5
975.8833	2488.4733	2696.95	1812.4
976.0115	2489.8195	2688.3	1795.6
976.1397	2491.165	2691.25	1801.2
976.2678	2492.5097	2691.1	1804.4
976.3959	2493.8538	2666.35	1780.65
976.524	2495.1972	2659.4	1772.35
976.6521	2496.5398	2660.55	1771.95
976.7801	2497.8818	2650.3	1761.1
976.9081	2499.2231	2637.15	1748.65
977.036	2500.5637	2643.9	1753.25
977.164	2501.9035	2634.45	1747
977.2918	2503.2427	2624.1	1732
977.4197	2504.5812	2616.65	1729.3
977.5475	2505.919	2618.8	1729.65
977.6753	2507.256	2614.9	1726.9
977.8031	2508.5924	2600.1	1714.05
977.9308	2509.9281	2597.35	1704.7
978.0585	2511.2631	2594.6	1708.4
978.1861	2512.5974	2593.15	1709.05
978.3137	2513.9309	2580.25	1692.8
978.4413	2515.2638	2613.15	1698.65
978.5689	2516.596	2569.05	1681.45
978.6964	2517.9275	2568.55	1680.6
978.8239	2519.2583	2564.6	1675.85
978.9513	2520.5884	2546.75	1657.95
979.0788	2521.9178	2537.9	1650.15
979.2062	2523.2465	2537	1651.6
979.3335	2524.5745	2524.9	1639
979.4608	2525.9018	2532.85	1645.65
979.5881	2527.2284	2523	1639.05
979.7154	2528.5543	2516.1	1629.4
979.8426	2529.8796	2526.75	1636.65
979.9698	2531.2041	2524.2	1636.85
980.0969	2532.5279	2500.95	1615.65
980.224	2533.851	2502	1617.8
980.3511	2535.1735	2495.35	1608.2
980.4781	2536.4952	2506	1620.5
980.6052	2537.8163	2488	1598.9
980.7321	2539.1366	2491.5	1603.35
980.8591	2540.4562	2484.6	1594.2
980.986	2541.7752	2476.8	1591.05
981.1129	2543.0935	2469.95	1582.9
981.2397	2544.411	2475.25	1586.55
981.3665	2545.7279	2473.05	1584.15
981.4933	2547.0441	2461.2	1574.45
981.62	2548.3596	2462	1572
981.7467	2549.6744	2453.65	1566.05
981.8734	2550.9885	2457.4	1561.9
982.0001	2552.3019	2434.8	1547.85
982.1267	2553.6146	2447	1558.4
982.2532	2554.9266	2429.9	1544.2
982.3798	2556.2379	2409.9	1521.25
982.5063	2557.5485	2428.8	1542.2
982.6327	2558.8585	2424.9	1530.1
982.7592	2560.1677	2428.2	1535.65
982.8856	2561.4762	2426.65	1537.45
983.0119	2562.7841	2411.5	1519.7
983.1383	2564.0913	2406.5	1518.95
983.2646	2565.3977	2401.7	1513.45
983.3908	2566.7035	2407.3	1518.6
983.517	2568.0086	2405	1517.25
983.6432	2569.313	2405.15	1515.7
983.7694	2570.6167	2391.65	1498.95
983.8955	2571.9197	2384.95	1496.2
984.0216	2573.222	2389.5	1497.7
984.1476	2574.5236	2385.9	1497.75
984.2737	2575.8246	2374.2	1484.35
984.3996	2577.1248	2379.45	1490.55
984.5256	2578.4244	2369	1480.6
984.6515	2579.7232	2356.9	1469.55
984.7774	2581.0214	2399.5	1487
984.9032	2582.3189	2368.55	1482.4
985.029	2583.6157	2375.65	1483.55
985.1548	2584.9118	2360.25	1469.8
985.2806	2586.2072	2343.95	1457.55
985.4063	2587.5019	2352.4	1464.3
985.5319	2588.7959	2357.25	1468.15
985.6576	2590.0893	2351.85	1463.1
985.7832	2591.3819	2344.6	1455.8
985.9087	2592.6739	2331.25	1443
986.0343	2593.9652	2335.2	1445.7
986.1597	2595.2557	2331.65	1443.55
986.2852	2596.5456	2343.3	1453.8
986.4106	2597.8348	2330.05	1443.9
986.536	2599.1234	2325.35	1437.65
986.6614	2600.4112	2325.85	1437.2
986.7867	2601.6983	2322.05	1432.1
986.912	2602.9848	2311.85	1421.5
987.0372	2604.2705	2309.8	1415.25
987.1624	2605.5556	2306.45	1417.7
987.2876	2606.84	2295.4	1406.35
987.4128	2608.1237	2299.3	1412.4
987.5379	2609.4067	2287.7	1401.15
987.6629	2610.689	2298.7	1401.45
987.788	2611.9707	2284.4	1393.7
987.913	2613.2516	2285.15	1394.4
988.0379	2614.5319	2267.45	1378.95
988.1629	2615.8115	2257.85	1371.25
988.2878	2617.0903	2260.55	1370.35
988.4126	2618.3685	2251.9	1363.3
988.5375	2619.6461	2247.45	1360.7
988.6622	2620.9229	2252.2	1365.95
988.787	2622.199	2242.5	1355.8
988.9117	2623.4745	2226.95	1339.3
989.0364	2624.7493	2227.5	1340
989.161	2626.0234	2233.8	1346.1
989.2857	2627.2968	2230.2	1340.1
989.4102	2628.5695	2216.95	1328.4
989.5348	2629.8415	2206.7	1319.05
989.6593	2631.1128	2215	1326.6
989.7837	2632.3835	2204.85	1317.7
989.9082	2633.6535	2207.8	1320.7
990.0326	2634.9228	2205.3	1317.4
990.1569	2636.1914	2203.1	1315.4
990.2812	2637.4593	2192.6	1303.85
990.4055	2638.7265	2184.4	1294.2
990.5298	2639.9931	2180.55	1294.6
990.654	2641.259	2182.15	1293.25
990.7782	2642.5242	2168.1	1280.05
990.9023	2643.7887	2173.1	1286.95
991.0264	2645.0525	2164	1277.55
991.1505	2646.3156	2169.8	1283.9
991.2745	2647.5781	2152.75	1265.9
991.3985	2648.8398	2148.5	1260.75
991.5225	2650.1009	2156.7	1260
991.6464	2651.3613	2148.3	1259.7
991.7703	2652.6211	2138.95	1252.25
991.8942	2653.8801	2132.85	1247.35
992.018	2655.1385	2129.55	1241.65
992.1418	2656.3961	2124.2	1238.15
992.2655	2657.6531	2124.75	1238.2
992.3892	2658.9094	2128	1242.15
992.5129	2660.1651	2120.6	1235.95
992.6366	2661.42	2130.05	1242.4
992.7602	2662.6743	2120.7	1233.25
992.8837	2663.9279	2131.9	1246
993.0073	2665.1808	2115.7	1228
993.1307	2666.433	2118.45	1230.9
993.2542	2667.6846	2112.85	1223.7
993.3776	2668.9354	2117.1	1226.5
993.501	2670.1856	2113.05	1224.35
993.6244	2671.4351	2116.5	1229.55
993.7477	2672.6839	2112.7	1223.75
993.8709	2673.9321	2110.35	1224.85
993.9942	2675.1795	2114.15	1226.75
994.1174	2676.4263	2117.1	1233.15
994.2405	2677.6724	2107.15	1219.85
994.3637	2678.9179	2111.05	1223.25
994.4868	2680.1626	2111.4	1225.5
994.6098	2681.4067	2107.55	1218.1
994.7328	2682.6501	2097.25	1209.15
994.8558	2683.8928	2100.9	1212.2
994.9788	2685.1348	2097.35	1210.6
995.1017	2686.3761	2087.15	1202.45
995.2245	2687.6168	2087.6	1200.05
995.3474	2688.8568	2074.45	1187.35
995.4702	2690.0961	2068.2	1181.55
995.5929	2691.3348	2063.25	1176.15
995.7156	2692.5727	2053.95	1166.85
995.8383	2693.81	2047.45	1160.7
995.961	2695.0466	2054.3	1168.7
996.0836	2696.2826	2053.8	1166.55
996.2062	2697.5178	2056.8	1150.05
996.3287	2698.7524	2036.15	1150.1
996.4512	2699.9863	2043.75	1157
996.5737	2701.2195	2036.7	1152.15
996.6961	2702.452	2049.7	1163.85
996.8185	2703.6839	2051.05	1162.75
996.9408	2704.9151	2049.6	1163.05
997.0631	2706.1456	2053.75	1167.7
997.1854	2707.3755	2045.65	1158.45
997.3077	2708.6046	2047.65	1157.3
997.4299	2709.8331	2068.9	1180.6
997.552	2711.0609	2060.2	1172.45
997.6742	2712.2881	2073.1	1188.75
997.7963	2713.5145	2071.9	1185.25
997.9183	2714.7403	2081.7	1195.75
998.0403	2715.9654	2083.9	1195.05
998.1623	2717.1899	2105.7	1207.6
998.2842	2718.4136	2111.55	1224.15
998.4062	2719.6367	2113.25	1226.85
998.528	2720.8591	2131.85	1235.7
998.6498	2722.0809	2125.15	1235.4
998.7716	2723.3019	2144.95	1255.8
998.8934	2724.5223	2147.4	1259.5
999.0151	2725.7421	2135.3	1249.5
999.1368	2726.9611	2144.6	1255.7
999.2584	2728.1795	2138.15	1248
999.38	2729.3972	2122.1	1237.3
999.5016	2730.6142	2119.65	1221.4
999.6231	2731.8306	2096.25	1206.8
999.7446	2733.0462	2081.75	1193.25
999.8661	2734.2612	2063.15	1170.9
999.9875	2735.4756	2042.65	1154.4
1000.1089	2736.6892	2026.35	1139.55
1000.2302	2737.9022	2002.65	1118.2
1000.3515	2739.1145	1993	1107.4
1000.4728	2740.3262	1991.8	1098.9
1000.594	2741.5372	1961.6	1077.95
1000.7152	2742.7475	1953.45	1067
1000.8363	2743.9571	1949.55	1063.1
1000.9575	2745.1661	1920.45	1029.25
1001.0785	2746.3744	1921.55	1035.45
1001.1996	2747.582	1913.3	1028.9
1001.3206	2748.7889	1893.45	1006.15
1001.4415	2749.9952	1895.25	1010.65
1001.5625	2751.2008	1892.15	1008.4
1001.6833	2752.4057	1877.75	990.65
1001.8042	2753.61	1863.75	976.5
1001.925	2754.8136	1868.35	981.9
1002.0458	2756.0165	1868.7	981.45
1002.1665	2757.2188	1861.55	977.75
1002.2872	2758.4204	1866.5	984
1002.4078	2759.6213	1855.85	968.15
1002.5285	2760.8215	1856.7	969.25
1002.649	2762.0211	1853.1	965.85
1002.7696	2763.22	1842.1	952.15
1002.8901	2764.4182	1845.7	958.85
1003.0106	2765.6158	1836.65	951.55
1003.131	2766.8127	1834.25	947.3
1003.2514	2768.009	1838.55	954.9
1003.3717	2769.2045	1822.65	936.7
1003.492	2770.3994	1822.95	935.2
1003.6123	2771.5936	1812	923.2
1003.7325	2772.7872	1811.85	926.25
1003.8527	2773.9801	1805.2	918.8
1003.9729	2775.1723	1820.35	919.05
1004.093	2776.3639	1813.15	929.15
1004.2131	2777.5548	1803.1	916.4
1004.3331	2778.745	1803.75	918.15
1004.4531	2779.9346	1801.4	918.7
1004.5731	2781.1235	1793.15	908.25
1004.693	2782.3117	1801	918.1
1004.8129	2783.4992	1799.75	916.35
1004.9328	2784.6861	1806.45	923.5
1005.0526	2785.8723	1805.5	919.1
1005.1723	2787.0579	1808.8	922.95
1005.2921	2788.2428	1811.4	927.05
1005.4118	2789.427	1816.4	933.6
1005.5314	2790.6106	1820.2	936.55
1005.651	2791.7935	1841.55	955.2
1005.7706	2792.9757	1847.9	965.3
1005.8902	2794.1573	1856.15	970.05
1006.0097	2795.3382	1868.8	984.35
1006.1291	2796.5184	1871.8	987.5
1006.2485	2797.698	1886.95	999.1
1006.3679	2798.8769	1896.65	1012.75
1006.4873	2800.0551	1901.45	1016.8
1006.6066	2801.2327	1918.2	1032.6
1006.7258	2802.4096	1938.55	1055.35
1006.8451	2803.5859	1955.35	1070.5
1006.9642	2804.7615	1978.4	1094.95
1007.0834	2805.9364	1998.3	1113.5
1007.2025	2807.1106	2021.25	1137.65
1007.3216	2808.2842	2045.25	1161.9
1007.4406	2809.4572	2079.95	1195.15
1007.5596	2810.6294	2109.15	1223.8
1007.6785	2811.801	2152.7	1270.35
1007.7975	2812.972	2187.1	1302.75
1007.9163	2814.1423	2225.9	1342.45
1008.0352	2815.3119	2275.2	1390.2
1008.154	2816.4808	2313.7	1430.05
1008.2727	2817.6491	2357.2	1472.6
1008.3914	2818.8167	2402.45	1520.15
1008.5101	2819.9837	2460.5	1571.85
1008.6288	2821.15	2503.45	1620.8
1008.7474	2822.3157	2540.15	1657.4
1008.8659	2823.4807	2603.95	1719.85
1008.9844	2824.645	2651.8	1766.9
1009.1029	2825.8086	2691.4	1808
1009.2214	2826.9716	2722.95	1838.05
1009.3398	2828.134	2770.2	1885.75
1009.4581	2829.2957	2820.1	1935.8
1009.5764	2830.4567	2832.45	1951
1009.6947	2831.617	2857.55	1972.7
1009.813	2832.7767	2876.95	1994.3
1009.9312	2833.9358	2864.85	1981.65
1010.0493	2835.0941	2862.6	1977.4
1010.1675	2836.2519	2841.85	1958.5
1010.2855	2837.4089	2840.05	1955.3
1010.4036	2838.5653	2832	1950.1
1010.5216	2839.7211	2827.45	1944.9
1010.6396	2840.8761	2845	1958.2
1010.7575	2842.0306	2866	1983.15
1010.8754	2843.1843	2888.45	2004.05
1010.9932	2844.3374	2927.25	2043.3
1011.111	2845.4899	2982	2097.2
1011.2288	2846.6417	3047.6	2164.3
1011.3465	2847.7928	3113.85	2231.25
1011.4642	2848.9433	3192.1	2310.4
1011.5818	2850.0931	3259.6	2377
1011.6995	2851.2422	3337.9	2454.45
1011.817	2852.3907	3411	2527.85
1011.9345	2853.5385	3453	2568.55
1012.052	2854.6857	3530.2	2617.15
1012.1695	2855.8323	3578.6	2695.9
1012.2869	2856.9781	3619.65	2736.2
1012.4042	2858.1233	3651.3	2769.45
1012.5216	2859.2679	3706.3	2824.55
1012.6389	2860.4118	3748.95	2867.1
1012.7561	2861.555	3776.8	2890.75
1012.8733	2862.6976	3834.1	2950.65
1012.9905	2863.8395	3849.75	2967.9
1013.1076	2864.9808	3870.05	2987.5
1013.2247	2866.1214	3888.65	3007.6
1013.3417	2867.2614	3904.15	3020
1013.4587	2868.4007	3925.65	3042.5
1013.5757	2869.5393	3937.55	3050
1013.6926	2870.6773	3958	3072.75
1013.8095	2871.8146	3962.45	3074.4
1013.9263	2872.9513	3971.3	3083.85
1014.0431	2874.0874	3968.95	3086.25
1014.1599	2875.2227	3948.2	3064.4
1014.2766	2876.3574	3918.35	3036.15
1014.3933	2877.4915	3884.95	3003.4
1014.51	2878.6249	3862.6	2979.65
1014.6266	2879.7577	3851.85	2967.6
1014.7431	2880.8898	3830.3	2936.2
1014.8596	2882.0212	3796.15	2914.25
1014.9761	2883.152	3788.4	2906.8
1015.0925	2884.2821	3772.35	2891.95
1015.2089	2885.4116	3759.3	2877.35
1015.3253	2886.5405	3781.65	2898.75
1015.4416	2887.6686	3765.7	2879.1
1015.5579	2888.7962	3782.35	2900.7
1015.6741	2889.923	3792	2908.75
1015.7903	2891.0493	3790.25	2908.65
1015.9065	2892.1748	3796.45	2914.05
1016.0226	2893.2997	3798.1	2914.9
1016.1387	2894.424	3830.9	2953.05
1016.2547	2895.5476	3848.35	2968.45
1016.3707	2896.6706	3859.9	2979.55
1016.4866	2897.7929	3891.8	3007.4
1016.6025	2898.9145	3915.35	3033.35
1016.7184	2900.0355	3937.35	3054.15
1016.8342	2901.1559	3984.65	3102.65
1016.95	2902.2756	4011.15	3129.8
1017.0658	2903.3946	4034	3152.9
1017.1815	2904.513	4066.8	3180.15
1017.2971	2905.6308	4084.05	3201.3
1017.4127	2906.7479	4110.2	3226.65
1017.5283	2907.8643	4137.8	3254.4
1017.6439	2908.9801	4143.35	3261.45
1017.7594	2910.0953	4165.65	3281.1
1017.8748	2911.2098	4159.35	3274.25
1017.9902	2912.3236	4143.65	3254.1
1018.1056	2913.4368	4147.15	3262.45
1018.2209	2914.5494	4113.05	3232.35
1018.3362	2915.6613	4089.9	3204.55
1018.4515	2916.7725	4042.2	3155.45
1018.5667	2917.8831	4026.55	3143.1
1018.6819	2918.9931	3998.6	3113.9
1018.797	2920.1024	3960.2	3076.9
1018.9121	2921.211	3946.25	3062.95
1019.0271	2922.319	3928.5	3046.15
1019.1421	2923.4264	3909.25	3029.75
1019.2571	2924.5331	3883.95	3004.55
1019.372	2925.6391	3887.55	3007.05
1019.4869	2926.7445	3865	2985.8
1019.6017	2927.8493	3862.95	2981.4
1019.7165	2928.9534	3859.2	2977.45
1019.8313	2930.0569	3858.55	2974.55
1019.946	2931.1597	3858.9	2978.05
1020.0606	2932.2619	3851.7	2971.15
1020.1753	2933.3634	3836.2	2954.1
1020.2899	2934.4643	3833.2	2944.95
1020.4044	2935.5645	3817.15	2927.95
1020.5189	2936.6641	3792.5	2906.05
1020.6334	2937.763	3754.95	2873.75
1020.7478	2938.8613	3691.6	2810.05
1020.8622	2939.959	3640.7	2752.95
1020.9765	2941.056	3566.8	2686.6
1021.0908	2942.1523	3491.75	2611
1021.2051	2943.248	3402	2520.65
1021.3193	2944.3431	3308.15	2428.6
1021.4334	2945.4375	3201.4	2317.8
1021.5476	2946.5313	3102.3	2222.65
1021.6617	2947.6244	2995	2111.85
1021.7757	2948.7169	2899.9	2018.05
1021.8897	2949.8087	2811.6	1930.6
1022.0037	2950.8999	2722.05	1839.45
1022.1176	2951.9904	2630.5	1748.5
1022.2315	2953.0803	2553.25	1670.25
1022.3453	2954.1696	2498.85	1617.3
1022.4591	2955.2582	2445.6	1564.3
1022.5728	2956.3462	2397.55	1515.5
1022.6865	2957.4335	2362.95	1480.05
1022.8002	2958.5202	2320.85	1438.4
1022.9138	2959.6062	2294	1414.9
1023.0274	2960.6916	2263.55	1381.9
1023.141	2961.7764	2244.7	1362.8
1023.2545	2962.8605	2230.6	1347.85
1023.3679	2963.9439	2218.65	1338.5
1023.4813	2965.0267	2205.55	1323.85
1023.5947	2966.1089	2222.4	1320.65
1023.708	2967.1905	2198.7	1318.8
1023.8213	2968.2714	2191.2	1310.9
1023.9346	2969.3516	2187.5	1306.9
1024.0478	2970.4312	2190.55	1302.85
1024.1609	2971.5102	2185.6	1305.9
1024.274	2972.5885	2183.05	1302.55
1024.3871	2973.6662	2193.3	1308.5
1024.5002	2974.7432	2190.8	1309.35
1024.6132	2975.8196	2181.9	1300.5
1024.7261	2976.8954	2177.65	1298.75
1024.839	2977.9705	2159.2	1277.7
1024.9519	2979.045	2142.4	1261
1025.0647	2980.1188	2133.8	1253.15
1025.1775	2981.192	2101.2	1221.15
1025.2902	2982.2645	2088.15	1208.05
1025.4029	2983.3364	2050.5	1169.8
1025.5156	2984.4077	2026.4	1146.4
1025.6282	2985.4783	2002.6	1114.9
1025.7407	2986.5483	1967.7	1089.3
1025.8532	2987.6177	1927.75	1049.4
1025.9657	2988.6864	1903	1022.85
1026.0782	2989.7545	1868.2	985.45
1026.1906	2990.8219	1824.8	945.2
1026.3029	2991.8887	1790.75	908.4
1026.4152	2992.9548	1759.55	880.05
1026.5275	2994.0204	1731.25	850.55
1026.6397	2995.0852	1709.75	829.75
1026.7519	2996.1495	1686.35	805.6
1026.864	2997.2131	1652.2	772.8
1026.9761	2998.276	1629.65	748.65
1027.0882	2999.3383	1619.5	738.4
1027.2002	3000.4	1591.55	711.2
1027.3122	3001.4611	1572.85	690.85
1027.4241	3002.5215	1560	677.7
1027.536	3003.5812	1549.3	667.95
1027.6478	3004.6404	1530.1	648.9
1027.7596	3005.6989	1526.05	641.65
1027.8714	3006.7567	1509.9	628.5
1027.9831	3007.8139	1530.55	619
1028.0947	3008.8705	1497.7	617.7
1028.2064	3009.9264	1494	609.8
1028.3179	3010.9818	1482	602.1
1028.4295	3012.0364	1479.3	597.6
1028.541	3013.0905	1483.95	604.3
1028.6524	3014.1439	1470.85	591.1
1028.7638	3015.1966	1459.9	579.6
1028.8752	3016.2487	1452.45	575.35
1028.9865	3017.3002	1459.2	576.15
1029.0978	3018.3511	1462.2	582.8
1029.209	3019.4013	1459.4	578.6
1029.3202	3020.4509	1459.75	579.4
1029.4314	3021.4998	1452.95	571.1
1029.5425	3022.5481	1450.65	570.6
1029.6535	3023.5958	1452	571.9
1029.7645	3024.6428	1454.85	573.3
1029.8755	3025.6892	1451.05	571.75
1029.9864	3026.735	1451.1	571.45
1030.0973	3027.7802	1457.7	578.9
1030.2082	3028.8247	1456.65	575.55
1030.319	3029.8685	1451.65	570.25
1030.4297	3030.9118	1455.3	572.95
1030.5404	3031.9544	1460.5	582.4
1030.6511	3032.9963	1457.25	576.8
1030.7617	3034.0376	1468.4	589.9
1030.8723	3035.0783	1465.4	582.7
1030.9829	3036.1184	1480.8	600.05
1031.0934	3037.1578	1471	591.85
1031.2038	3038.1966	1473.9	592.55
1031.3142	3039.2348	1474.95	594.9
1031.4246	3040.2723	1482.55	592.55
1031.5349	3041.3092	1477.1	598.1
1031.6452	3042.3455	1471.7	591.85
1031.7554	3043.3811	1467.9	588.3
1031.8656	3044.4161	1468.2	588.55
1031.9758	3045.4505	1462.2	582.15
1032.0859	3046.4842	1458.85	577.85
1032.1959	3047.5173	1449.2	571.7
1032.3059	3048.5498	1444.7	564.05
1032.4159	3049.5816	1444.4	564.95
1032.5258	3050.6128	1431.6	551.55
1032.6357	3051.6434	1430.9	550.95
1032.7455	3052.6734	1423.75	543.6
1032.8553	3053.7027	1409.05	529.95
1032.9651	3054.7314	1412.3	533.3
1033.0748	3055.7594	1400.1	522.1
1033.1845	3056.7868	1403.25	525.05
1033.2941	3057.8136	1401.35	522.55
1033.4037	3058.8398	1390.15	511.95
1033.5132	3059.8653	1384.7	505.55
1033.6227	3060.8902	1376.75	498.35
1033.7321	3061.9145	1370.7	494.2
1033.8415	3062.9381	1366.85	488.4
1033.9509	3063.9612	1374.65	480.2
1034.0602	3064.9835	1362.4	485.05
1034.1694	3066.0053	1355.5	472.75
1034.2787	3067.0264	1347.6	468.6
1034.3878	3068.0469	1338.6	459.3
1034.497	3069.0668	1332.75	452.3
1034.6061	3070.086	1327.65	449.85
1034.7151	3071.1046	1314.7	435.1
1034.8241	3072.1226	1307.5	426.45
1034.9331	3073.1399	1294.5	414.75
1035.042	3074.1567	1289.45	409.95
1035.1508	3075.1727	1283.05	402.15
1035.2597	3076.1882	1268.2	390.3
1035.3684	3077.203	1267.7	387.9
1035.4772	3078.2173	1261.05	381.6
1035.5859	3079.2308	1251.55	367.3
1035.6945	3080.2438	1243.75	362.8
1035.8031	3081.2561	1233.05	353.15
1035.9117	3082.2678	1225.4	345.75
1036.0202	3083.2789	1218.7	337.55
1036.1286	3084.2893	1216.4	338.65
1036.2371	3085.2991	1210.75	331.95
1036.3454	3086.3083	1208.1	324.3
1036.4538	3087.3169	1199.3	319.35
1036.562	3088.3248	1193.65	313.55
1036.6703	3089.3321	1184.85	305.15
1036.7785	3090.3388	1181.9	302.85
1036.8866	3091.3449	1175.75	295.7
1036.9948	3092.3503	1177.8	295.65
1037.1028	3093.3551	1167.7	287.95
1037.2108	3094.3593	1166.15	290.65
1037.3188	3095.3629	1166.1	286.9
1037.4267	3096.3658	1160.35	279.8
1037.5346	3097.3681	1157.55	279.1
1037.6425	3098.3698	1159.6	280.4
1037.7503	3099.3708	1149.15	269.6
1037.858	3100.3713	1149.3	270.65
1037.9657	3101.3711	1143	264.65
1038.0734	3102.3702	1276.4	256.6
1038.181	3103.3688	1144.05	262.55
1038.2886	3104.3667	1131.3	253.45
1038.3961	3105.364	1130.45	252.4
1038.5036	3106.3607	1133.2	254.45
1038.611	3107.3568	1128.6	248.7
1038.7184	3108.3522	1127.65	248.8
1038.8257	3109.347	1124.45	243.8
1038.933	3110.3412	1130.9	248.25
1039.0403	3111.3348	1115.8	236.55
1039.1475	3112.3277	1117.4	238.55
1039.2547	3113.32	1112.6	235.95
1039.3618	3114.3117	1115.3	235.7
1039.4689	3115.3028	1117.1	238.5
1039.5759	3116.2932	1112.95	234.25
1039.6829	3117.2831	1115.35	229.15
1039.7898	3118.2723	1111.1	234.8
1039.8967	3119.2608	1101.75	221.7
1040.0035	3120.2488	1104	224.3
1040.1103	3121.2361	1101.85	223.5
1040.2171	3122.2229	1096.5	218.35
1040.3238	3123.209	1101.05	222.15
1040.4305	3124.1944	1096.25	219.7
1040.5371	3125.1793	1088.4	208.4
1040.6437	3126.1635	1086.8	208.7
1040.7502	3127.1471	1089	210.15
1040.8567	3128.1301	1088.05	211.95
1040.9631	3129.1125	1084.95	206.65
1041.0695	3130.0942	1086.7	208
1041.1759	3131.0753	1092.3	207.05
1041.2822	3132.0558	1087.6	207.2
1041.3884	3133.0357	1085.05	204.4
1041.4946	3134.015	1080.15	200.1
1041.6008	3134.9936	1079.5	198.15
1041.7069	3135.9716	1097.05	196.45
1041.813	3136.949	1075.85	197
1041.919	3137.9258	1089.7	193.55
1042.025	3138.902	1082.35	198.6
1042.1309	3139.8775	1072.95	193.9
1042.2368	3140.8524	1070.4	193.75
1042.3427	3141.8267	1066.4	184.4
1042.4485	3142.8004	1067.6	188.8
1042.5542	3143.7735	1073.9	189.5
1042.6599	3144.7459	1071.75	194.5
1042.7656	3145.7178	1064.45	184.55
1042.8712	3146.689	1061.45	183.95
1042.9768	3147.6596	1064.55	182.95
1043.0823	3148.6295	1062.95	183.5
1043.1878	3149.5989	1060.55	185.35
1043.2932	3150.5676	1059.6	183.55
1043.3986	3151.5357	1054	178.1
1043.5039	3152.5032	1052.9	173.9
1043.6092	3153.4701	1052.15	176.1
1043.7145	3154.4364	1052.3	171.4
1043.8197	3155.402	1051.6	174.75
1043.9248	3156.367	1053.95	174.25
1044.03	3157.3315	1070.95	164.85
1044.135	3158.2952	1052.35	174.25
1044.24	3159.2584	1043.5	166.2
1044.345	3160.221	1042.1	162.1
1044.4499	3161.1829	1050.5	171.3
1044.5548	3162.1442	1040.25	163.05
1044.6596	3163.105	1040.5	162.75
1044.7644	3164.065	1038.15	160
1044.8692	3165.0245	1042.2	161.55
1044.9739	3165.9834	1037	158.95
1045.0785	3166.9416	1033.75	157.1
1045.1831	3167.8993	1037.85	161.05
1045.2877	3168.8563	1036.8	157.6
1045.3922	3169.8127	1033.2	155.55
1045.4966	3170.7684	1031.3	152.6
1045.6011	3171.7236	1032.9	156.6
1045.7054	3172.6782	1028.95	153.5
1045.8098	3173.6321	1033.35	157.1
1045.914	3174.5854	1034.35	150.7
1046.0183	3175.5381	1029.25	150.3
1046.1224	3176.4902	1026.6	149
1046.2266	3177.4417	1023.05	145.4
1046.3307	3178.3926	1024	148.4
1046.4347	3179.3428	1024.2	148.2
1046.5387	3180.2924	1017.25	141.05
1046.6427	3181.2415	1024.2	146.5
1046.7466	3182.1899	1022.95	146.85
1046.8504	3183.1377	1020.65	143.4
1046.9542	3184.0848	1024.05	144.9
1047.058	3185.0314	1014.85	136.6
1047.1617	3185.9773	1016.8	138.7
1047.2654	3186.9227	1017.75	139.65
1047.369	3187.8674	1015.3	136.55
1047.4726	3188.8115	1017.2	135.75
1047.5761	3189.755	1011.8	134.1
1047.6796	3190.6979	1012.85	135.25
1047.783	3191.6402	1011.2	134.25
1047.8864	3192.5818	1012.6	134.75
1047.9898	3193.5229	1012.95	128.9
1048.0931	3194.4633	1017.15	141.85
1048.1963	3195.4031	1012.3	134.75
1048.2995	3196.3423	1014.65	138
1048.4027	3197.2809	1010.85	131.3
1048.5058	3198.2189	1005.75	127.35
1048.6089	3199.1563	1013.8	129.05
1048.7119	3200.0931	1004.2	128
1048.8148	3201.0292	1005.25	130.8
1048.9178	3201.9648	1009.15	131.8
1049.0206	3202.8997	1006.1	126.65
1049.1235	3203.834	1004.4	127.7
1049.2262	3204.7677	1002.05	124.6
1049.329	3205.7008	1003.85	125.7
1049.4317	3206.6333	998.75	122.05
1049.5343	3207.5652	1001.4	122
1049.6369	3208.4964	997.8	121.3
1049.7394	3209.4271	999.9	122.65
1049.8419	3210.3571	996.85	121.3
1049.9444	3211.2865	999.8	120.75
1050.0468	3212.2154	1000.7	121.2
1050.1491	3213.1436	1002.5	124.5
1050.2514	3214.0712	1002.15	118.6
1050.3537	3214.9982	991.7	113.5
1050.4559	3215.9246	995.45	119.1
1050.5581	3216.8503	996.8	119.85
1050.6602	3217.7755	992.4	115.8
1050.7623	3218.7001	993.25	116.85
1050.8643	3219.624	990	113.9
1050.9663	3220.5473	992.75	116.05
1051.0682	3221.4701	992.05	112.3
1051.1701	3222.3922	991.8	115.2
1051.2719	3223.3137	984.8	106.9
1051.3737	3224.2346	990.6	114.55
1051.4754	3225.1549	989.3	113.4
1051.5771	3226.0746	988.85	112.4
1051.6788	3226.9937	987.4	110.4
1051.7804	3227.9121	984.25	107.25
1051.8819	3228.83	986.4	111.2
1051.9834	3229.7473	986.85	111.25
1052.0849	3230.6639	985.8	109.15
1052.1863	3231.5799	984.25	108.05
1052.2876	3232.4954	982.8	105.25
1052.3889	3233.4102	984.45	108.05
1052.4902	3234.3244	982.15	105.1
1052.5914	3235.238	979	103.1
1052.6926	3236.151	1009.5	109.95
1052.7937	3237.0634	981.5	103.65
1052.8948	3237.9752	978.6	101.5
1052.9958	3238.8864	978.7	103
1053.0968	3239.797	977.45	99.85
1053.1977	3240.7069	977.55	101.85
1053.2986	3241.6163	976.5	99.55
1053.3994	3242.5251	973.45	98.1
1053.5002	3243.4332	975.3	100.2
1053.6009	3244.3408	975.05	98.15
1053.7016	3245.2477	973.65	96.1
1053.8022	3246.154	974.35	97.7
1053.9028	3247.0598	978.1	99.9
1054.0034	3247.9649	973.15	98.05
1054.1039	3248.8694	972.05	94.6
1054.2043	3249.7733	971.05	95.85
1054.3047	3250.6766	967.75	90.7
1054.4051	3251.5793	970.95	95.8
1054.5054	3252.4814	967.95	90.7
1054.6056	3253.3829	966.3	89.15
1054.7058	3254.2838	964.3	88.6
1054.806	3255.1841	965.85	89.25
1054.9061	3256.0838	966.9	87.55
1055.0061	3256.9829	966.45	90.5
1055.1062	3257.8814	965.9	87.85
1055.2061	3258.7792	965.9	89.7
1055.306	3259.6765	963.15	88.05
1055.4059	3260.5731	959.85	84.45
1055.5057	3261.4692	959.8	85.3
1055.6055	3262.3647	955.65	78.75
1055.7052	3263.2595	955.55	78.85
1055.8049	3264.1538	953.2	77.3
1055.9045	3265.0474	954	74.7
1056.0041	3265.9404	953.9	77.4
1056.1036	3266.8329	951.05	75.95
1056.2031	3267.7247	958.5	73.3
1056.3025	3268.616	947.3	74.15
1056.4019	3269.5066	948.2	72.25
1056.5013	3270.3966	943.45	64.45
1056.6005	3271.286	939.5	65.1
