Software Version:	3.9.2.0
Unit SN:	10000200
Spectrometer SN:	6960
Date:	3/8/2024 1:09:57 PM
Data Line Index:	25
Spectral Points:	2048
Integration time (ms):	125
Averages:	20
Delay (ms):	30000
Sequence Number:	1
Processing:	dark subtract
Laser Power (mW):	300
Laser Current (mA):	823
Laser Diode Temp (C):	25
Laser Case Temp (C):	26.2
System Temp (C):	26.1
Spectrometer Temp (C):	24
CCD Temp (C):	0.008
Secondary Temp (C):	20.011
Heatsink Temp (C):	20.622
CCDPCB Temp (C):	36.051
SecondaryPCB Temp (C):	30.693

Wavelength	RamanShift	Raw Counts	Dark Subtracted
787.061	30.1047	455.85	46.95
787.2016	32.3739	457.35	50.5
787.3422	34.6426	459.4	52.25
787.4828	36.9109	465.45	55.9
787.6235	39.1787	476.9	63.7
787.7642	41.4461	484.35	65.8
787.9049	43.7131	494.75	73.85
788.0456	45.9796	498.9	73.45
788.1863	48.2456	512.6	84.6
788.3271	50.5112	522.7	89.65
788.4679	52.7764	531.05	94.55
788.6087	55.0411	541.05	100.35
788.7496	57.3054	556.35	108.85
788.8904	59.5692	558.4	110.55
789.0313	61.8326	572.65	122.3
789.1722	64.0955	580.6	128.95
789.3132	66.3579	599.25	140.75
789.4541	68.6199	620.15	157.4
789.5951	70.8815	653.9	188.05
789.7361	73.1426	734.55	264.65
789.8771	75.4032	946.15	470.05
790.0181	77.6634	1450.8	971.9
790.1592	79.9231	2648.05	2158.9
790.3003	82.1824	5205.1	4697.4
790.4414	84.4412	9805.8	9266.35
790.5825	86.6995	16196.1	15612.9
790.7237	88.9574	22388.9	21771.75
790.8648	91.2148	26636.35	25999.05
791.006	93.4717	28573.9	27914.9
791.1472	95.7282	28915.55	28250.25
791.2885	97.9842	28742.35	28070.15
791.4297	100.2398	28050.35	27377.45
791.571	102.4949	27322.95	26644.95
791.7123	104.7495	26452.35	25774.35
791.8536	107.0036	25622	24947.7
791.9949	109.2573	24777.65	24100.35
792.1363	111.5105	24037.85	23355.4
792.2777	113.7632	23356.45	22671.9
792.4191	116.0154	22796	22102.15
792.5605	118.2672	22346.85	21654.95
792.7019	120.5185	21916.35	21223.5
792.8434	122.7693	21595.95	20906.9
792.9849	125.0197	21292	20596.55
793.1264	127.2696	20988.05	20291.45
793.2679	129.519	20827.35	20125.4
793.4094	131.7679	20569.2	19859.5
793.551	134.0163	20380.2	19665.5
793.6926	136.2642	20095.95	19388
793.8342	138.5117	19806.25	19084.6
793.9758	140.7587	19474.75	18757.25
794.1175	143.0052	19207.2	18481.8
794.2591	145.2512	18935.5	18215.35
794.4008	147.4967	18671.25	17953.85
794.5425	149.7417	18474.2	17752.45
794.6842	151.9863	18331.2	17603.7
794.826	154.2304	18248.75	17516.6
794.9677	156.4739	18077.7	17339.6
795.1095	158.717	18001.6	17260.35
795.2513	160.9596	17803.1	17058.55
795.3931	163.2017	17568.75	16824.95
795.535	165.4433	17284	16537.5
795.6768	167.6844	16949.9	16202.1
795.8187	169.925	16636.15	15884.9
795.9606	172.1651	16272.3	15519.85
796.1025	174.4047	16004.1	15252.6
796.2445	176.6439	15733.3	14977.9
796.3864	178.8825	15520.7	14759.3
796.5284	181.1206	15381.05	14618.9
796.6704	183.3582	15221.9	14448.65
796.8124	185.5954	15115.15	14343.3
796.9544	187.832	15045.4	14272.1
797.0965	190.0681	15014.05	14233.55
797.2386	192.3037	15015.2	14233.4
797.3806	194.5388	15020.3	14236.8
797.5228	196.7734	15078.55	14290.15
797.6649	199.0075	15124.85	14335.55
797.807	201.2411	15237.3	14449.45
797.9492	203.4742	15356.85	14570.15
798.0914	205.7068	15505.25	14709.75
798.2336	207.9389	15588.55	14791.25
798.3758	210.1704	15772.55	14985
798.518	212.4015	15877.6	15095
798.6603	214.632	16040.35	15269.4
798.8025	216.862	16215.6	15444.65
798.9448	219.0915	16345.3	15569
799.0871	221.3205	16501.6	15723.25
799.2294	223.549	16716.5	15945.45
799.3718	225.777	16932.65	16160.05
799.5141	228.0044	17155.95	16380.7
799.6565	230.2314	17465.1	16683.5
799.7989	232.4578	17744.25	16959.35
799.9413	234.6837	17985.4	17196.35
800.0837	236.909	18160.4	17363.65
800.2262	239.1339	18144.5	17321.05
800.3687	241.3582	18009.2	17200.4
800.5111	243.582	17814.4	16980.3
800.6536	245.8053	17594.05	16770.1
800.7961	248.0281	17374.85	16559.25
800.9387	250.2503	17257.6	16439.5
801.0812	252.472	17205.6	16383.5
801.2238	254.6932	17246.25	16421.5
801.3664	256.9139	17262.25	16437.1
801.509	259.134	17366.65	16537.05
801.6516	261.3536	17500.55	16674.95
801.7942	263.5727	17690.75	16867.65
801.9369	265.7912	17773.8	16944.25
802.0795	268.0092	17928.9	17100.45
802.2222	270.2267	18028.05	17199.65
802.3649	272.4436	18056.85	17230.75
802.5076	274.6601	18036	17198.05
802.6504	276.8759	17940.5	17112.35
802.7931	279.0913	17870.6	17035.7
802.9359	281.3061	17776.1	16939.2
803.0787	283.5204	17785.7	16943.7
803.2215	285.7341	17802.5	16959.4
803.3643	287.9473	17899.45	17044.55
803.5071	290.16	18055.8	17212.55
803.6499	292.3721	18299.25	17457.1
803.7928	294.5837	18625.95	17783
803.9357	296.7947	18900.6	18057.1
804.0786	299.0052	19121.9	18280.95
804.2215	301.2152	19034.85	18192.2
804.3644	303.4246	18716.1	17876.85
804.5074	305.6334	18250.9	17412.55
804.6503	307.8418	17785.35	16940.95
804.7933	310.0495	17395.65	16552.6
804.9363	312.2568	17014.35	16170.75
805.0793	314.4635	16747	15895.5
805.2223	316.6696	16545	15692.2
805.3653	318.8752	16437.95	15577.45
805.5084	321.0802	16411.55	15561
805.6514	323.2847	16503.85	15644.95
805.7945	325.4887	16539.05	15681
805.9376	327.692	16490.6	15634.95
806.0807	329.8949	16422.6	15565.7
806.2238	332.0972	16188.3	15330.25
806.367	334.2989	15930.15	15062.7
806.5101	336.5001	15684.8	14821.1
806.6533	338.7007	15462.85	14599.55
806.7965	340.9008	15337.35	14473.3
806.9397	343.1003	15193.95	14327.9
807.0829	345.2992	15119.6	14250.7
807.2261	347.4976	15084	14213
807.3693	349.6955	15039.7	14165.65
807.5126	351.8927	15080.6	14205.8
807.6559	354.0895	15028.2	14143.15
807.7991	356.2856	15026.05	14153.25
807.9424	358.4812	15025.85	14149.4
808.0857	360.6763	15065.4	14187.85
808.2291	362.8707	15083.25	14203.65
808.3724	365.0646	15134.85	14255.35
808.5158	367.258	15142.95	14260
808.6591	369.4508	15197	14313.6
808.8025	371.643	15301.75	14416.35
808.9459	373.8346	15339.25	14449.25
809.0893	376.0257	15374.1	14481.95
809.2327	378.2162	15332.15	14448.8
809.3762	380.4062	15264.35	14371.8
809.5196	382.5956	15131.8	14247
809.6631	384.7844	15049	14171.95
809.8066	386.9726	14915.35	14040.6
809.9501	389.1603	14880.7	14003.05
810.0936	391.3474	14842.35	13930.15
810.2371	393.5339	14807.2	13925.35
810.3806	395.7199	14751.4	13876.25
810.5241	397.9052	14778.45	13898.8
810.6677	400.09	14835.75	13952.65
810.8113	402.2743	14973.25	14092.4
810.9548	404.4579	15065.2	14183
811.0984	406.641	15250.05	14367.3
811.2421	408.8235	15452.6	14569.15
811.3857	411.0054	15692.5	14805.15
811.5293	413.1868	16012.6	15116.4
811.673	415.3675	16231.4	15340.9
811.8166	417.5477	16369.25	15475.2
811.9603	419.7273	16353.7	15457.35
812.104	421.9064	16286.4	15386.5
812.2477	424.0848	16197.8	15307.6
812.3914	426.2627	15991.35	15101.35
812.5351	428.4399	15725.3	14831.6
812.6788	430.6166	15364.35	14465.25
812.8226	432.7928	15041.7	14142.75
812.9663	434.9683	14709	13814.1
813.1101	437.1432	14463.15	13565.55
813.2539	439.3176	14305.25	13414.5
813.3977	441.4914	14220.55	13337.25
813.5415	443.6645	14193.15	13304.35
813.6853	445.8371	14137.9	13241.95
813.8291	448.0091	14076.7	13179.5
813.973	450.1806	14051.2	13156.6
814.1168	452.3514	14050.2	13156.35
814.2607	454.5216	14084.15	13185.95
814.4046	456.6913	14030.45	13134.7
814.5485	458.8603	14050.8	13155.65
814.6924	461.0288	14131.4	13240.45
814.8363	463.1967	14118.15	13235.75
814.9802	465.3639	14215.3	13325.25
815.1241	467.5306	14273.1	13383.1
815.2681	469.6967	14344.9	13455.9
815.412	471.8622	14403.95	13515.6
815.556	474.0271	14534.45	13644.15
815.7	476.1914	14605.2	13706.35
815.844	478.3551	14604.85	13709.4
815.988	480.5182	14639.5	13746.4
816.132	482.6807	14654.6	13769.7
816.276	484.8426	14846.25	13968.35
816.4201	487.0039	15108.3	14222.95
816.5641	489.1647	15547.45	14656.15
816.7082	491.3248	15925.35	15027.9
816.8522	493.4843	16074.8	15185.75
816.9963	495.6432	16039.45	15149.6
817.1404	497.8015	15924.55	15026.7
817.2845	499.9592	15915.45	15004.1
817.4286	502.1163	15774.35	14866.25
817.5727	504.2728	15501.6	14603.8
817.7168	506.4287	15201.75	14316.2
817.861	508.5839	14831.45	13942.6
818.0051	510.7386	14576.1	13679.6
818.1493	512.8927	14439.05	13532
818.2935	515.0461	14371.9	13469.25
818.4377	517.199	14376.2	13467.55
818.5818	519.3512	14472.95	13564.8
818.726	521.5029	14651.25	13742.7
818.8703	523.6539	14814.65	13908.65
819.0145	525.8043	14909.6	14006.85
819.1587	527.9541	14862.85	13955.1
819.303	530.1033	14761.1	13855.55
819.4472	532.2519	14714.25	13806.95
819.5915	534.3999	14752.6	13843.7
819.7357	536.5472	14960.6	14055.85
819.88	538.694	15268.65	14369.1
820.0243	540.8401	15751.45	14842.45
820.1686	542.9856	16118.35	15193.35
820.3129	545.1305	16212.35	15286.3
820.4572	547.2748	16098.7	15173.95
820.6016	549.4185	15841.25	14913.7
820.7459	551.5615	15574.95	14652.25
820.8902	553.704	15506	14580.15
821.0346	555.8458	15479.55	14561.9
821.1789	557.987	15611.8	14698.9
821.3233	560.1276	15728.1	14810.05
821.4677	562.2675	15933.9	15016.15
821.6121	564.4069	16215	15294.5
821.7565	566.5456	16450.75	15534.85
821.9009	568.6837	16461.55	15549.75
822.0453	570.8212	16117.15	15204.25
822.1897	572.958	15590.85	14671.85
822.3342	575.0942	15174.95	14264.2
822.4786	577.2299	14838.25	13931.15
822.6231	579.3648	14729.4	13836.9
822.7675	581.4992	14721.75	13839.5
822.912	583.6329	14896.15	14011.2
823.0565	585.766	15125.45	14235.45
823.201	587.8985	15281.2	14383.25
823.3454	590.0304	15255.15	14322
823.4899	592.1616	15205.8	14286.2
823.6345	594.2922	15106.25	14182.85
823.779	596.4222	14919.95	13995.35
823.9235	598.5515	14713.35	13787.25
824.068	600.6802	14571.15	13643.95
824.2126	602.8083	14391.8	13473.95
824.3571	604.9358	14377.1	13453
824.5017	607.0626	14333.1	13407.85
824.6462	609.1888	14418.2	13489.05
824.7908	611.3144	14473.5	13541.05
824.9354	613.4393	14467.7	13538.85
825.08	615.5636	14448.15	13516.45
825.2246	617.6873	14432.45	13500.45
825.3692	619.8103	14383.65	13456.45
825.5138	621.9327	14232	13306.1
825.6584	624.0544	14110.3	13186.45
825.803	626.1756	14029.15	13107.35
825.9477	628.2961	13929.35	13003.5
826.0923	630.4159	13856.85	12929.3
826.237	632.5351	13807.9	12877.7
826.3816	634.6537	13807.15	12880.6
826.5263	636.7716	13797.25	12864.25
826.6709	638.8889	13804.35	12868.85
826.8156	641.0056	13830.3	12892.05
826.9603	643.1216	13815.6	12877.95
827.105	645.237	13859.15	12925.6
827.2497	647.3518	13737.7	12819.65
827.3944	649.4659	13774.75	12853.3
827.5391	651.5793	13739.45	12821.15
827.6838	653.6922	13740.5	12816.9
827.8285	655.8043	13723.15	12798.5
827.9733	657.9159	13703.75	12777.25
828.118	660.0268	13673.95	12747.75
828.2627	662.137	13650.6	12717.4
828.4075	664.2466	13628.5	12691.95
828.5522	666.3556	13626.3	12690.85
828.697	668.4639	13577.55	12647.3
828.8418	670.5716	13585.6	12663.05
828.9865	672.6786	13618.85	12689.6
829.1313	674.785	13614.25	12681.3
829.2761	676.8907	13672.9	12741.55
829.4209	678.9958	13694	12771.1
829.5657	681.1002	13683.35	12749.8
829.7105	683.204	13680	12738.9
829.8553	685.3072	13646.5	12709.15
830.0001	687.4097	13598.75	12659.75
830.1449	689.5115	13584.05	12646.75
830.2898	691.6127	13569.2	12635.7
830.4346	693.7132	13526.2	12599.45
830.5794	695.8131	13512.4	12577.15
830.7243	697.9123	13549.35	12611.6
830.8691	700.0109	13544.6	12603.1
831.014	702.1089	13540.15	12604.2
831.1588	704.2061	13558.3	12624.45
831.3037	706.3028	13607.85	12668.6
831.4486	708.3987	13661.6	12720.2
831.5935	710.4941	13709.2	12768.65
831.7383	712.5887	13814.05	12880.7
831.8832	714.6827	14011.9	13071.8
832.0281	716.7761	14237.9	13306.45
832.173	718.8688	14550.55	13610.95
832.3179	720.9608	14742.8	13801.15
832.4628	723.0522	14818.15	13869.45
832.6077	725.1429	14715.4	13772.25
832.7527	727.233	14629.8	13688.65
832.8976	729.3224	14549.25	13610.85
833.0425	731.4112	14387.45	13447.95
833.1874	733.4993	14228.95	13287.05
833.3324	735.5867	14027.65	13088.85
833.4773	737.6735	13871.8	12929.95
833.6222	739.7596	13773.35	12829
833.7672	741.845	13641	12700.9
833.9122	743.9298	13589.5	12647.45
834.0571	746.014	13597.75	12655
834.2021	748.0974	13610.65	12659.3
834.347	750.1802	13597.7	12645.15
834.492	752.2624	13622.95	12672.25
834.637	754.3439	13656.4	12707.8
834.782	756.4247	13748.6	12793.95
834.9269	758.5048	13895.1	12951.35
835.0719	760.5843	14158.8	13212.25
835.2169	762.6631	14534.7	13588.1
835.3619	764.7413	15083.7	14138.9
835.5069	766.8188	15721.85	14773.85
835.6519	768.8956	16231.25	15283.35
835.7969	770.9718	16549.35	15604.55
835.9419	773.0473	16414.9	15469.45
836.0869	775.1221	16153.8	15208.05
836.232	777.1962	15791.3	14844.15
836.377	779.2697	15650.85	14698.35
836.522	781.3426	15728.7	14768.55
836.667	783.4147	15883.2	14932.2
836.8121	785.4862	16079.45	15129.95
836.9571	787.557	16002.85	15050.25
837.1021	789.6271	15609.1	14658.65
837.2472	791.6966	15014.25	14066
837.3922	793.7654	14438.15	13487.25
837.5373	795.8335	14105.95	13158.3
837.6823	797.901	13868.3	12918.9
837.8274	799.9678	13748.75	12796.25
837.9724	802.0339	13706.75	12756.65
838.1175	804.0993	13747.55	12780.3
838.2626	806.1641	13697.2	12746.2
838.4076	808.2282	13617.9	12665.65
838.5527	810.2916	13549.9	12594.35
838.6978	812.3544	13475	12531.35
838.8428	814.4164	13379.35	12434.2
838.9879	816.4778	13442.5	12485.6
839.133	818.5385	13451.4	12499.5
839.2781	820.5986	13555.5	12601.25
839.4232	822.658	13746.6	12791.95
839.5682	824.7166	13974.8	13023.9
839.7133	826.7747	14343.4	13394.65
839.8584	828.832	14681.05	13728.35
840.0035	830.8886	14976.55	14022.5
840.1486	832.9446	15124.8	14169.5
840.2937	834.9999	15077.25	14124.95
840.4388	837.0545	14927.1	13968.8
840.5839	839.1085	14748.1	13794.2
840.729	841.1618	14589.5	13631.55
840.8741	843.2143	14464.75	13508.4
841.0192	845.2662	14304.95	13353.65
841.1643	847.3175	14205.95	13249.7
841.3095	849.368	14060.85	13104
841.4546	851.4179	13999.5	13040.65
841.5997	853.467	13866.25	12910.9
841.7448	855.5155	13794.3	12841.05
841.8899	857.5633	13708.55	12755.35
842.0351	859.6105	13595.25	12637.45
842.1802	861.6569	13525.3	12567.8
842.3253	863.7027	13485	12525.4
842.4704	865.7478	13445.55	12491.35
842.6156	867.7922	13456.9	12498.95
842.7607	869.8359	13478.85	12521.2
842.9058	871.8789	13508.35	12551.6
843.0509	873.9212	13701.15	12712.85
843.1961	875.9629	13779.55	12820.55
843.3412	878.0039	13946	12989.3
843.4863	880.0441	14037.9	13084.2
843.6315	882.0837	14076.25	13123.35
843.7766	884.1226	14030.05	13068.9
843.9218	886.1609	14030.4	13076.3
844.0669	888.1984	14042.65	13087.2
844.212	890.2352	14114.5	13157.7
844.3572	892.2714	14116.15	13160
844.5023	894.3069	14066.7	13110
844.6475	896.3416	13950.3	12990.45
844.7926	898.3757	13842.3	12882.1
844.9377	900.4091	13813.3	12851.05
845.0829	902.4418	13812.55	12848.5
845.228	904.4739	13823.8	12860.7
845.3732	906.5052	13880.9	12922.95
845.5183	908.5358	13770.8	12813.8
845.6635	910.5658	13661.3	12700.35
845.8086	912.595	13485.95	12531.35
845.9538	914.6236	13317.4	12358.5
846.0989	916.6515	13209.75	12249.65
846.2441	918.6786	13146.05	12185.5
846.3892	920.7051	13198.55	12234.8
846.5344	922.7309	13319.9	12354.75
846.6795	924.756	13311.15	12354.4
846.8246	926.7804	13448.2	12486.95
846.9698	928.8041	13391.8	12432
847.1149	930.8272	13455.9	12490.95
847.2601	932.8495	13387.15	12427.25
847.4052	934.8711	13364.4	12403.6
847.5504	936.892	13245.8	12286.4
847.6955	938.9123	13158	12195.25
847.8407	940.9318	13148.75	12185.15
847.9858	942.9506	13087.8	12127.95
848.131	944.9688	13003.1	12044.85
848.2761	946.9862	12925.7	11966.95
848.4213	949.003	12798.65	11838.6
848.5664	951.019	12765.8	11805.7
848.7115	953.0344	12738.15	11776.95
848.8567	955.0491	12747.75	11786.2
849.0018	957.063	12834.35	11874.55
849.147	959.0763	12951.6	11994.6
849.2921	961.0888	12942.85	11981.55
849.4373	963.1007	13022.05	12068.75
849.5824	965.1119	13071.95	12123.05
849.7275	967.1223	13082.4	12139.4
849.8727	969.1321	13078.25	12136.4
850.0178	971.1412	13112.85	12162.2
850.1629	973.1495	13123.65	12167.6
850.3081	975.1572	13194.5	12190.25
850.4532	977.1641	13180.75	12223.95
850.5983	979.1704	13142.3	12186.05
850.7435	981.1759	13126.35	12162.05
850.8886	983.1808	13194.15	12231.85
851.0337	985.1849	13205.5	12235
851.1788	987.1884	13334.2	12371.75
851.324	989.1911	13490.4	12531
851.4691	991.1932	13587.15	12630.4
851.6142	993.1945	13612.3	12654.1
851.7593	995.1951	13536.45	12577.15
851.9045	997.1951	13546	12579.15
852.0496	999.1943	13473.45	12515.15
852.1947	1001.1928	13444.9	12488.5
852.3398	1003.1906	13474.2	12516.9
852.4849	1005.1877	13571.35	12616.65
852.63	1007.1841	13594.9	12633.05
852.7751	1009.1798	13552.55	12596.05
852.9202	1011.1748	13440.05	12481.6
853.0653	1013.1691	13237.9	12278.5
853.2104	1015.1627	13037.6	12077.75
853.3555	1017.1556	12831.2	11872.2
853.5006	1019.1477	12696.7	11741.1
853.6457	1021.1392	12592.95	11646.25
853.7908	1023.1299	12605.75	11659.25
853.9359	1025.12	12611.55	11674.5
854.081	1027.1093	12649.45	11722.8
854.2261	1029.0979	12731.4	11807.25
854.3712	1031.0859	12809.95	11880
854.5163	1033.0731	12854.3	11908.9
854.6613	1035.0596	12795.15	11849.65
854.8064	1037.0454	12662.95	11708.95
854.9515	1039.0304	12570.65	11618.7
855.0965	1041.0148	12447.5	11488.5
855.2416	1042.9985	12357.15	11401.5
855.3867	1044.9814	12333.8	11378.2
855.5317	1046.9636	12254.7	11296.25
855.6768	1048.9452	12245.2	11288.85
855.8219	1050.926	12276	11323.65
855.9669	1052.9061	12258.65	11300.9
856.112	1054.8855	12284.25	11327.85
856.257	1056.8642	12335.3	11381.05
856.4021	1058.8421	12409.45	11446.6
856.5471	1060.8194	12416.8	11456.75
856.6921	1062.7959	12455.75	11500.25
856.8372	1064.7717	12482.65	11525.9
856.9822	1066.7469	12532.65	11573.35
857.1272	1068.7213	12592.8	11633.8
857.2723	1070.695	12625.7	11672.95
857.4173	1072.6679	12584.95	11628.1
857.5623	1074.6402	12589.35	11634.75
857.7073	1076.6117	12571.85	11608
857.8523	1078.5826	12513.55	11554.25
857.9973	1080.5527	12417.3	11460.25
858.1423	1082.5221	12443.15	11486.7
858.2873	1084.4908	12532.55	11577.5
858.4323	1086.4587	12636.8	11687.5
858.5773	1088.426	12724.55	11770.65
858.7223	1090.3925	12725.3	11766.95
858.8673	1092.3584	12701.55	11744.3
859.0123	1094.3235	12652.65	11695.65
859.1573	1096.2879	12676.6	11718.95
859.3022	1098.2515	12741.65	11785.35
859.4472	1100.2145	12833.35	11878.8
859.5922	1102.1767	12987.75	12033.55
859.7371	1104.1382	13154.8	12201.9
859.8821	1106.099	13434.9	12481
860.027	1108.0591	13630.65	12675.6
860.172	1110.0185	13782.4	12824.35
860.3169	1111.9771	13826.6	12872.65
860.4619	1113.9351	13681.4	12726.5
860.6068	1115.8923	13474.35	12521.25
860.7517	1117.8488	13244.1	12284.7
860.8967	1119.8045	12996.65	12040.15
861.0416	1121.7596	12883.75	11928.7
861.1865	1123.7139	12788.35	11834.4
861.3314	1125.6675	12787.65	11833.4
861.4763	1127.6204	12825.6	11874
861.6212	1129.5726	12808.95	11851.15
861.7661	1131.524	12776.75	11820.2
861.911	1133.4748	12683.9	11727.45
862.0559	1135.4248	12560.95	11602.15
862.2008	1137.3741	12475.6	11522.25
862.3457	1139.3226	12368.45	11416.1
862.4905	1141.2705	12345	11391.6
862.6354	1143.2176	12263.85	11303.5
862.7803	1145.164	12219.05	11260.75
862.9251	1147.1097	12203.65	11246.65
863.07	1149.0546	12165.1	11208.15
863.2148	1150.9989	12080.85	11126.55
863.3597	1152.9424	11943.2	10984.9
863.5045	1154.8852	11830.35	10872.6
863.6493	1156.8272	11761.9	10808.25
863.7942	1158.7686	11752.4	10790.35
863.939	1160.7092	11756.2	10799.35
864.0838	1162.6491	11745.15	10787.35
864.2286	1164.5883	11849.1	10894.7
864.3734	1166.5267	11960.7	11005.95
864.5182	1168.4644	12102.85	11149
864.663	1170.4014	12249.3	11292.95
864.8078	1172.3377	12527.2	11576.9
864.9526	1174.2732	12794.85	11842.4
865.0974	1176.2081	13158.35	12206.4
865.2421	1178.1421	13510.75	12553.95
865.3869	1180.0755	13875.6	12924.15
865.5317	1182.0082	14091.8	13138.7
865.6764	1183.9401	14234.85	13284.3
865.8212	1185.8713	14104.05	13159.2
865.9659	1187.8017	13826.75	12889.15
866.1106	1189.7315	13502.15	12574.1
866.2554	1191.6605	13155	12225.7
866.4001	1193.5888	12897.05	11960.9
866.5448	1195.5163	12807.9	11862.15
866.6895	1197.4432	12718	11770.25
866.8342	1199.3693	12644.4	11693.15
866.9789	1201.2947	12615.95	11662.95
867.1236	1203.2193	12597.5	11648.85
867.2683	1205.1432	12637.55	11689.65
867.413	1207.0664	12595.9	11651.45
867.5576	1208.9889	12602.15	11649.7
867.7023	1210.9106	12616.15	11664.15
867.847	1212.8316	12622.4	11674.9
867.9916	1214.7519	12667.25	11709.25
868.1363	1216.6715	12693.55	11744.25
868.2809	1218.5903	12736	11786.45
868.4255	1220.5084	12745.2	11797.1
868.5701	1222.4257	12816.8	11867.3
868.7148	1224.3424	12781.1	11834.65
868.8594	1226.2583	12887.95	11937.3
869.004	1228.1735	12996.4	12048.75
869.1486	1230.0879	13105.15	12154.8
869.2932	1232.0016	13242.65	12295.7
869.4377	1233.9146	13311.85	12361
869.5823	1235.8269	13281.85	12333
869.7269	1237.7384	13184.9	12235.4
869.8715	1239.6492	13014.4	12066.8
870.016	1241.5592	12963.9	12016.1
870.1606	1243.4686	12907.15	11958.25
870.3051	1245.3772	13003.3	12051.9
870.4496	1247.285	13075.45	12127.95
870.5941	1249.1922	13164.7	12215.5
870.7387	1251.0986	13215.75	12266.7
870.8832	1253.0042	13228.9	12280.5
871.0277	1254.9092	13293.8	12346.15
871.1722	1256.8134	13385.65	12439.8
871.3167	1258.7169	13518.15	12570.75
871.4611	1260.6196	13689.9	12746.7
871.6056	1262.5216	13926.55	12979.3
871.7501	1264.4229	14102.35	13157.9
871.8945	1266.3234	14286.25	13339.55
872.039	1268.2232	14388.05	13436.7
872.1834	1270.1223	14429.6	13481.65
872.3278	1272.0207	14430.4	13483.45
872.4723	1273.9183	14396.05	13440.85
872.6167	1275.8151	14322.15	13372.95
872.7611	1277.7113	14281.6	13333.45
872.9055	1279.6067	14256.75	13311.1
873.0499	1281.5014	14329.25	13382.75
873.1943	1283.3953	14534.7	13583.9
873.3386	1285.2885	14740.35	13796.1
873.483	1287.181	15037.15	14091
873.6274	1289.0727	15304.45	14362.3
873.7717	1290.9637	15483.9	14535.85
873.9161	1292.854	15666.95	14724.3
874.0604	1294.7435	15685.7	14739.35
874.2047	1296.6323	15735.1	14789.75
874.349	1298.5204	15752.95	14805.4
874.4933	1300.4077	15769	14819.8
874.6376	1302.2943	15750.35	14803.35
874.7819	1304.1802	15625.7	14678.2
874.9262	1306.0653	15330.95	14382.8
875.0705	1307.9497	14986.65	14039.45
875.2147	1309.8333	14708.35	13764.4
875.359	1311.7162	14514.55	13568.75
875.5032	1313.5984	14417.75	13466.1
875.6475	1315.4798	14365.45	13408.85
875.7917	1317.3605	14346.3	13383.15
875.9359	1319.2405	14305.5	13360.05
876.0801	1321.1197	14164.4	13215.9
876.2243	1322.9982	13937.9	12988.9
876.3685	1324.876	13731.3	12784.95
876.5127	1326.753	13583.55	12636.2
876.6569	1328.6293	13475.15	12528.75
876.801	1330.5048	13391.95	12440.35
876.9452	1332.3796	13262.65	12313.45
877.0893	1334.2537	13262.45	12292.5
877.2335	1336.127	13182.35	12233.95
877.3776	1337.9996	13127.65	12182.75
877.5217	1339.8714	13147.05	12201.55
877.6658	1341.7426	13132.2	12143
877.8099	1343.6129	13128.85	12181.75
877.954	1345.4826	13088.65	12141.8
878.0981	1347.3515	13110.85	12160.3
878.2422	1349.2196	13054.9	12108.05
878.3862	1351.087	13086.35	12138.8
878.5303	1352.9537	13123.75	12175.7
878.6743	1354.8197	13240.75	12293.3
878.8184	1356.6849	13418.9	12469.5
878.9624	1358.5493	13528.75	12581
879.1064	1360.4131	13644.5	12698.7
879.2504	1362.276	13688.55	12744.15
879.3944	1364.1383	13620.6	12675.05
879.5384	1365.9998	13410.85	12460.95
879.6823	1367.8606	13078.2	12131.5
879.8263	1369.7206	12716.35	11770.05
879.9702	1371.5799	12425.1	11479.1
880.1142	1373.4384	12178.65	11231.9
880.2581	1375.2962	12002.55	11059.95
880.402	1377.1533	11701.25	10756.7
880.5459	1379.0096	11353.1	10414.4
880.6898	1380.8652	11039.3	10099.65
880.8337	1382.7201	10783.7	9845.95
880.9776	1384.5742	10534.3	9592.3
881.1215	1386.4275	10322.8	9378.95
881.2653	1388.2802	10169.8	9225.9
881.4092	1390.132	10071.95	9125.85
881.553	1391.9832	10026.05	9078.3
881.6968	1393.8336	9927.35	8979.65
881.8406	1395.6832	9880	8935.55
881.9844	1397.5322	9828.55	8884.05
882.1282	1399.3803	9822.95	8873.55
882.272	1401.2278	9778.8	8833.5
882.4158	1403.0745	9791.35	8849.3
882.5595	1404.9204	9745.45	8802.3
882.7033	1406.7656	9789.65	8846.7
882.847	1408.6101	9790.3	8845.85
882.9908	1410.4538	9804.9	8860.9
883.1345	1412.2968	9843.4	8900.8
883.2782	1414.139	9890.5	8946.35
883.4219	1415.9805	9983.95	9042.1
883.5656	1417.8213	10023.65	9078.1
883.7092	1419.6613	10132.05	9189.75
883.8529	1421.5006	10301.65	9360.25
883.9965	1423.3391	10530.85	9588.6
884.1402	1425.1769	10796.55	9856.1
884.2838	1427.0139	11259.15	10316.45
884.4274	1428.8502	11810.75	10869.75
884.571	1430.6858	12360.9	11420.45
884.7146	1432.5206	12750.4	11810.6
884.8582	1434.3547	12982.85	12037.15
885.0018	1436.188	12991.65	12049.5
885.1453	1438.0206	12922.1	11979.5
885.2889	1439.8524	12736.9	11793.2
885.4324	1441.6835	12606.05	11666.55
885.5759	1443.5139	12501	11554
885.7194	1445.3435	12437.8	11498.5
885.8629	1447.1724	12402.65	11463.65
886.0064	1449.0005	12343.15	11403.15
886.1499	1450.8279	12257.65	11318.6
886.2933	1452.6545	12245	11306.9
886.4368	1454.4804	12270.85	11332.45
886.5802	1456.3056	12230.65	11288.7
886.7237	1458.13	12171.15	11236.3
886.8671	1459.9536	11972.3	11032.7
887.0105	1461.7766	11670.85	10731.55
887.1539	1463.5987	11307.65	10367.55
887.2972	1465.4202	10940.2	9999.35
887.4406	1467.2409	10620.2	9678.25
887.584	1469.0608	10319.15	9381.9
887.7273	1470.88	10062.1	9121.9
887.8706	1472.6984	9825.75	8886.6
888.0139	1474.5161	9611.95	8667.1
888.1572	1476.3331	9462.1	8523.9
888.3005	1478.1493	9337	8396.1
888.4438	1479.9648	9232.65	8291.75
888.5871	1481.7795	9161.1	8221.65
888.7303	1483.5935	9106.9	8168.45
888.8736	1485.4067	9026	8085.1
889.0168	1487.2192	8981.25	8039.75
889.16	1489.031	8942.85	8003.7
889.3032	1490.842	8898.5	7959.1
889.4464	1492.6522	8840	7901.95
889.5896	1494.4618	8822.1	7879.65
889.7327	1496.2705	8785.45	7845.25
889.8759	1498.0785	8730.6	7793.85
890.019	1499.8858	8701.45	7761.25
890.1622	1501.6924	8680.45	7745.45
890.3053	1503.4981	8634.9	7697.5
890.4484	1505.3032	8593.95	7654.2
890.5914	1507.1075	8575.65	7635.4
890.7345	1508.911	8540.85	7604
890.8776	1510.7138	8477.7	7540.4
891.0206	1512.5159	8423.55	7487.85
891.1637	1514.3172	8383.1	7448.75
891.3067	1516.1178	8329.1	7395.9
891.4497	1517.9176	8316.3	7376.8
891.5927	1519.7166	8260.65	7324.35
891.7357	1521.515	8216.05	7273.9
891.8786	1523.3126	8198	7264.05
892.0216	1525.1094	8151.25	7214.2
892.1645	1526.9055	8145.15	7210.5
892.3074	1528.7008	8106.45	7175.3
892.4503	1530.4954	8068.2	7135.7
892.5932	1532.2893	8041.05	7111.05
892.7361	1534.0824	8013.25	7079.65
892.879	1535.8747	8016.65	7085.95
893.0218	1537.6663	8014.85	7084.3
893.1647	1539.4572	7960.7	7028.45
893.3075	1541.2473	7974.65	7045.7
893.4503	1543.0367	7975.4	7045.1
893.5931	1544.8253	7962.45	7025.4
893.7359	1546.6132	7968.65	7034.9
893.8787	1548.4003	7998.5	7057.8
894.0214	1550.1867	8044	7107.05
894.1642	1551.9723	8070.15	7136.8
894.3069	1553.7572	8151.85	7223.05
894.4496	1555.5414	8216.5	7292.75
894.5923	1557.3247	8320.05	7396.35
894.735	1559.1074	8430.2	7509
894.8777	1560.8893	8532.55	7610
895.0204	1562.6705	8642	7718
895.163	1564.4509	8748.6	7827.5
895.3056	1566.2305	8798.15	7877.95
895.4482	1568.0094	8855.2	7936.75
895.5908	1569.7876	8843.3	7922
895.7334	1571.565	8853.4	7929.05
895.876	1573.3417	8835.65	7912.25
896.0186	1575.1176	8827.95	7907.7
896.1611	1576.8928	8817.1	7898.65
896.3036	1578.6672	8762.55	7849.9
896.4461	1580.4409	8692.65	7782.1
896.5886	1582.2138	8671.35	7756.25
896.7311	1583.986	8640	7720.65
896.8736	1585.7575	8629.4	7709.6
897.0161	1587.5282	8652.7	7735.9
897.1585	1589.2981	8664.25	7750.45
897.3009	1591.0673	8687.5	7775.45
897.4433	1592.8358	8742.8	7830.4
897.5857	1594.6035	8802.1	7881.5
897.7281	1596.3704	8896.45	7978
897.8705	1598.1366	8926.6	8007.05
898.0128	1599.9021	9017.8	8104.55
898.1551	1601.6668	9064.7	8149
898.2975	1603.4308	9202.25	8287.55
898.4398	1605.194	9345.45	8425.15
898.5821	1606.9564	9497.8	8586.2
898.7243	1608.7182	9727.7	8817.95
898.8666	1610.4791	9915.3	9014.25
899.0088	1612.2394	10160.75	9259.6
899.1511	1613.9988	10406.25	9502.55
899.2933	1615.7576	10658	9747.8
899.4355	1617.5156	10828.35	9909.25
899.5776	1619.2728	10964.95	10045.7
899.7198	1621.0293	10975.5	10059.7
899.862	1622.785	10870.6	9953.9
900.0041	1624.54	10680	9767.45
900.1462	1626.2942	10413.95	9508.05
900.2883	1628.0477	10101.2	9189.35
900.4304	1629.8005	9819.4	8910.4
900.5725	1631.5525	9547.9	8640.25
900.7145	1633.3037	9348.25	8439.8
900.8566	1635.0542	9182.8	8277.05
900.9986	1636.804	9030.6	8120.15
901.1406	1638.553	9008.45	8009.05
901.2826	1640.3013	8918.05	8008.75
901.4245	1642.0488	8889.05	7977.85
901.5665	1643.7955	8932.5	8029.75
901.7085	1645.5416	8960.35	8054.4
901.8504	1647.2868	9091.4	8182.1
901.9923	1649.0313	9182.05	8272.6
902.1342	1650.7751	9311.55	8400.15
902.2761	1652.5181	9502.6	8595.7
902.4179	1654.2604	9674	8766.6
902.5598	1656.0019	9899.1	8992.35
902.7016	1657.7427	10158.9	9252.05
902.8434	1659.4828	10447.75	9536.85
902.9852	1661.222	10585.4	9675.2
903.127	1662.9606	10554.7	9644.8
903.2687	1664.6984	10318.7	9407.2
903.4105	1666.4354	9901.9	8987.1
903.5522	1668.1717	9371.2	8455.8
903.6939	1669.9072	8832.5	7920.35
903.8356	1671.642	8346	7430.1
903.9773	1673.3761	7976.1	7064.9
904.119	1675.1094	7652.5	6742.9
904.2606	1676.8419	7400.55	6492.75
904.4022	1678.5737	7212.6	6303.9
904.5439	1680.3048	7091.35	6180.6
904.6855	1682.0351	6938.75	6030
904.827	1683.7646	6820.5	5906.75
904.9686	1685.4934	6749.1	5839.4
905.1101	1687.2215	6671.1	5763.9
905.2517	1688.9488	6584.8	5677.1
905.3932	1690.6754	6553.85	5650.45
905.5347	1692.4012	6519.4	5610.6
905.6761	1694.1263	6476.45	5565.95
905.8176	1695.8506	6418.35	5508.15
905.9591	1697.5742	6366.15	5461.3
906.1005	1699.297	6346.75	5444.6
906.2419	1701.0191	6285.6	5384.05
906.3833	1702.7404	6234.1	5332.65
906.5246	1704.461	6205.4	5299.75
906.666	1706.1808	6170.75	5262.3
906.8073	1707.8999	6145.3	5239.65
906.9487	1709.6182	6126.05	5225.5
907.09	1711.3358	6101.35	5201.3
907.2313	1713.0527	6053.15	5154.75
907.3725	1714.7688	6035.55	5131.4
907.5138	1716.4841	6000.6	5096.9
907.655	1718.1987	5979.4	5070.7
907.7962	1719.9126	5945.95	5043.35
907.9374	1721.6257	5927.95	5028.9
908.0786	1723.338	5919.7	5022.5
908.2198	1725.0496	5905.95	5007.25
908.3609	1726.7605	5898.2	4994.8
908.502	1728.4706	5872.65	4969.1
908.6431	1730.18	5824.95	4924.85
908.7842	1731.8886	5802.15	4906.2
908.9253	1733.5964	5802.1	4881.95
909.0664	1735.3036	5784.7	4881.05
909.2074	1737.0099	5762.4	4862.55
909.3484	1738.7156	5728.85	4832.15
909.4894	1740.4204	5681	4779.65
909.6304	1742.1246	5676.1	4773
909.7714	1743.8279	5666	4766.25
909.9123	1745.5306	5641.35	4744.95
910.0532	1747.2325	5605.05	4709.45
910.1941	1748.9336	5587.6	4688.45
910.335	1750.634	5565.45	4663.85
910.4759	1752.3336	5553.2	4654.75
910.6168	1754.0325	5542.6	4647.1
910.7576	1755.7307	5517.95	4621.4
910.8984	1757.4281	5515.2	4615.65
911.0392	1759.1247	5520.05	4610.75
911.18	1760.8206	5489.45	4583.65
911.3208	1762.5158	5498.8	4594.25
911.4615	1764.2102	5453.25	4555.55
911.6022	1765.9039	5445.95	4548.7
911.7429	1767.5968	5418.65	4523.4
911.8836	1769.289	5424.5	4527.7
912.0243	1770.9804	5407.05	4506.1
912.1649	1772.6711	5418.3	4513.85
912.3056	1774.361	5393.3	4490.6
912.4462	1776.0502	5365.4	4461.25
912.5868	1777.7386	5349.5	4444.3
912.7274	1779.4263	5333.6	4433.4
912.8679	1781.1132	5346.35	4449.95
913.0084	1782.7994	5326.8	4433.2
913.149	1784.4849	5290.65	4400.1
913.2895	1786.1696	5287.65	4384.8
913.4299	1787.8535	5284.7	4391.85
913.5704	1789.5367	5260.25	4365.4
913.7108	1791.2192	5261.8	4367
913.8513	1792.9009	5232.85	4308.95
913.9917	1794.5818	5222.8	4321.3
914.132	1796.2621	5218.35	4319.4
914.2724	1797.9415	5194.85	4296.1
914.4128	1799.6202	5201.25	4301.15
914.5531	1801.2982	5191.15	4292.15
914.6934	1802.9755	5170.05	4267.55
914.8337	1804.6519	5177.2	4280.55
914.9739	1806.3277	5153.1	4256.9
915.1142	1808.0027	5119.7	4227.7
915.2544	1809.6769	5112.8	4221.45
915.3946	1811.3504	5098.55	4205.95
915.5348	1813.0231	5095.6	4203.85
915.675	1814.6951	5085.45	4193.6
915.8151	1816.3664	5074.7	4174.45
915.9553	1818.0369	5078.15	4182.2
916.0954	1819.7067	5053.45	4158
916.2355	1821.3757	5039.7	4139.5
916.3755	1823.044	5043.35	4144
916.5156	1824.7115	5022.55	4123.65
916.6556	1826.3783	5011.55	4111.9
916.7956	1828.0443	4982.9	4085.45
916.9356	1829.7096	4994.6	4095.75
917.0756	1831.3741	4989.4	4089.85
917.2155	1833.0379	4980.15	4086.8
917.3555	1834.701	4956.35	4063.8
917.4954	1836.3633	4961.6	4067.2
917.6353	1838.0248	4964.65	4071.95
917.7751	1839.6856	4940.25	4044.4
917.915	1841.3457	4932	4036
918.0548	1843.005	4916.5	4019.05
918.1946	1844.6636	4905	4008.75
918.3344	1846.3214	4902.3	4006.65
918.4742	1847.9785	4896.5	4001.7
918.6139	1849.6349	4908.6	4011.65
918.7537	1851.2904	4896.2	3988
918.8934	1852.9453	4862.45	3959.9
919.0331	1854.5994	4848.45	3946.65
919.1727	1856.2528	4852.9	3946.05
919.3124	1857.9054	4837.1	3939.85
919.452	1859.5572	4838.2	3943.4
919.5916	1861.2083	4831.2	3933.45
919.7312	1862.8587	4815.7	3920.2
919.8708	1864.5084	4803.85	3905.2
920.0103	1866.1572	4785.35	3886.65
920.1498	1867.8054	4788.7	3887.6
920.2893	1869.4528	4779.55	3878.75
920.4288	1871.0994	4756.9	3857.6
920.5683	1872.7453	4743.35	3843.65
920.7077	1874.3905	4760.1	3842.8
920.8471	1876.0349	4721.85	3823.15
920.9865	1877.6786	4719.2	3820.4
921.1259	1879.3215	4719.9	3822.95
921.2653	1880.9637	4700.1	3802.45
921.4046	1882.6051	4689.05	3793.1
921.5439	1884.2458	4692.15	3795.65
921.6832	1885.8858	4664.5	3768.85
921.8225	1887.525	4652	3753.4
921.9617	1889.1634	4642.45	3744.3
922.101	1890.8011	4627.35	3727.75
922.2402	1892.4381	4630.8	3733.35
922.3794	1894.0743	4642.1	3743.55
922.5185	1895.7098	4628.6	3730.9
922.6577	1897.3446	4595.2	3697.7
922.7968	1898.9786	4598.7	3698.4
922.9359	1900.6118	4587.35	3691.45
923.075	1902.2443	4555.15	3657.5
923.214	1903.8761	4551.75	3655.65
923.3531	1905.5071	4534.35	3636
923.4921	1907.1374	4530.7	3633.05
923.6311	1908.7669	4539.35	3644.75
923.77	1910.3957	4523.65	3629.9
923.909	1912.0237	4502	3607
924.0479	1913.651	4483.1	3585.65
924.1868	1915.2776	4477.25	3582.8
924.3257	1916.9034	4466.85	3571.6
924.4646	1918.5285	4445.55	3548.6
924.6034	1920.1528	4423.85	3526.55
924.7422	1921.7764	4432.1	3537.55
924.881	1923.3992	4401.45	3506.5
925.0198	1925.0213	4369.7	3474.75
925.1586	1926.6427	4370	3474.65
925.2973	1928.2633	4537.2	3435.15
925.436	1929.8832	4392.3	3493.55
925.5747	1931.5023	4358.15	3461.05
925.7134	1933.1207	4343.55	3448.1
925.852	1934.7383	4326.75	3431.95
925.9906	1936.3552	4320.45	3428.05
926.1292	1937.9714	4294.05	3402.15
926.2678	1939.5868	4292.65	3397.05
926.4064	1941.2015	4260.4	3361.2
926.5449	1942.8154	4263.35	3367.15
926.6834	1944.4286	4239.6	3342
926.8219	1946.041	4239.6	3326.5
926.9604	1947.6528	4213	3312.15
927.0988	1949.2637	4203.05	3310.85
927.2372	1950.8739	4184.65	3289.3
927.3756	1952.4834	4181.65	3287
927.514	1954.0921	4187.15	3291
927.6523	1955.7001	4164.5	3266.1
927.7907	1957.3074	4168.55	3278.65
927.929	1958.9139	4131.7	3239.1
928.0673	1960.5197	4130.2	3239.35
928.2055	1962.1247	4123.05	3232.15
928.3438	1963.729	4098.25	3207.15
928.482	1965.3325	4088.8	3191.85
928.6202	1966.9353	4063.55	3172.9
928.7584	1968.5374	4069.75	3177.15
928.8965	1970.1387	4057	3164.55
929.0346	1971.7393	4039.95	3148.75
929.1727	1973.3392	4033.85	3143.65
929.3108	1974.9383	4031	3143.95
929.4489	1976.5366	3998.6	3110.4
929.5869	1978.1342	4005.1	3117.7
929.7249	1979.7311	3990.05	3100.95
929.8629	1981.3273	3962.95	3073.7
930.0009	1982.9227	3970.65	3081.25
930.1388	1984.5173	3939.25	3050.7
930.2767	1986.1112	3938.2	3050.95
930.4146	1987.7044	3924.25	3038.55
930.5525	1989.2968	3938.55	3048.5
930.6904	1990.8885	3916	3026.25
930.8282	1992.4795	3897.6	3008.7
930.966	1994.0697	3884.95	2999.8
931.1038	1995.6592	3883.4	2996.1
931.2415	1997.2479	3880.25	2993
931.3793	1998.8359	3887	3001.4
931.517	2000.4232	3853.45	2971.7
931.6547	2002.0097	3835.9	2955.95
931.7923	2003.5955	3824.65	2940.35
931.93	2005.1805	3827.65	2944.05
932.0676	2006.7648	3829.15	2944.35
932.2052	2008.3484	3823.2	2939
932.3427	2009.9312	3816.55	2934.25
932.4803	2011.5133	3803.55	2922.3
932.6178	2013.0946	3791.15	2908.8
932.7553	2014.6752	3772.15	2888.4
932.8928	2016.2551	3766	2879.4
933.0302	2017.8342	3755.45	2872.7
933.1676	2019.4126	3742.95	2861.3
933.305	2020.9902	3738.3	2858.8
933.4424	2022.5672	3730.45	2849.05
933.5798	2024.1433	3722.45	2836.45
933.7171	2025.7188	3704.95	2826.95
933.8544	2027.2935	3709.05	2826.95
933.9917	2028.8674	3686.45	2806.35
934.129	2030.4406	3683.4	2805.1
934.2662	2032.0131	3661.1	2785.75
934.4034	2033.5849	3672.8	2790.85
934.5406	2035.1559	3646.8	2768.75
934.6778	2036.7261	3654.95	2769.75
934.8149	2038.2957	3645.45	2760.2
934.952	2039.8645	3659.3	2772.55
935.0891	2041.4325	3637.4	2748.65
935.2262	2042.9998	3627.55	2743.65
935.3632	2044.5664	3613.95	2730.25
935.5002	2046.1323	3616.05	2736.35
935.6372	2047.6974	3591.1	2711
935.7742	2049.2617	3594.9	2715.25
935.9111	2050.8254	3618.7	2714.15
936.048	2052.3883	3590.65	2706.25
936.1849	2053.9504	3580.75	2694.45
936.3218	2055.5118	3573	2688.35
936.4586	2057.0725	3552.3	2664.05
936.5955	2058.6325	3547.25	2665.35
936.7323	2060.1917	3535.5	2654.75
936.869	2061.7502	3545.15	2662.3
937.0058	2063.3079	3520	2640.35
937.1425	2064.8649	3519.25	2635.2
937.2792	2066.4212	3514.4	2629.15
937.4159	2067.9767	3502.25	2618.55
937.5525	2069.5315	3499.25	2615.8
937.6891	2071.0856	3484.95	2601.95
937.8257	2072.6389	3475.9	2591.4
937.9623	2074.1915	3446.7	2566.85
938.0989	2075.7433	3436.15	2553.8
938.2354	2077.2945	3430.3	2549.4
938.3719	2078.8448	3427.5	2544.3
938.5084	2080.3945	3420	2534.9
938.6448	2081.9434	3419.3	2535.6
938.7812	2083.4916	3409.75	2521.1
938.9176	2085.039	3408.25	2515.25
939.054	2086.5857	3391.1	2497.4
939.1903	2088.1317	3402.1	2508.7
939.3267	2089.677	3393.55	2501.8
939.463	2091.2215	3393.55	2502.15
939.5992	2092.7652	3377.9	2483.25
939.7355	2094.3083	3368.1	2476.6
939.8717	2095.8506	3370.5	2481.55
940.0079	2097.3921	3363.2	2477.75
940.1441	2098.933	3348.55	2459.8
940.2802	2100.4731	3342.05	2453.35
940.4163	2102.0124	3357.4	2463.95
940.5524	2103.5511	3326.85	2437.2
940.6885	2105.089	3336.7	2444.1
940.8245	2106.6261	3318	2431
940.9606	2108.1626	3312.75	2423.8
941.0965	2109.6983	3324.7	2409.8
941.2325	2111.2332	3296.65	2405.8
941.3684	2112.7675	3295.05	2405.3
941.5044	2114.301	3284.45	2393.05
941.6403	2115.8337	3296.45	2406.9
941.7761	2117.3657	3272.15	2382.8
941.912	2118.897	3277.1	2386.6
942.0478	2120.4276	3268.1	2372.15
942.1835	2121.9575	3239.8	2349.1
942.3193	2123.4866	3261.6	2369.7
942.455	2125.0149	3240.25	2348.3
942.5907	2126.5426	3233.95	2346.9
942.7264	2128.0695	3215.05	2329.65
942.8621	2129.5956	3212.35	2331.4
942.9977	2131.1211	3210.7	2321.1
943.1333	2132.6458	3208.8	2324.5
943.2689	2134.1698	3205.85	2313.95
943.4044	2135.693	3200	2305.5
943.54	2137.2155	3200	2305.05
943.6755	2138.7373	3188.35	2299.2
943.8109	2140.2584	3162.65	2279.6
943.9464	2141.7787	3157.7	2270.7
944.0818	2143.2983	3151.25	2271.75
944.2172	2144.8171	3141.25	2262.25
944.3526	2146.3353	3143.35	2255.9
944.4879	2147.8527	3127.3	2245.25
944.6232	2149.3693	3138.95	2249.35
944.7585	2150.8853	3128.9	2236.75
944.8938	2152.4005	3112.55	2222.2
945.029	2153.9149	3117.8	2226.2
945.1642	2155.4287	3105.35	2215.1
945.2994	2156.9417	3097.7	2207.9
945.4346	2158.454	3092.75	2204.85
945.5697	2159.9655	3076.35	2193.4
945.7048	2161.4764	3086.25	2199.9
945.8399	2162.9865	3058.9	2175.5
945.9749	2164.4958	3052	2167.05
946.1099	2166.0045	3051.95	2166.15
946.2449	2167.5124	3057.55	2171.9
946.3799	2169.0195	3055.25	2168.35
946.5148	2170.526	3049.3	2161.05
946.6498	2172.0317	3045.6	2157.6
946.7846	2173.5367	3047	2158.3
946.9195	2175.0409	3024.1	2137.05
947.0543	2176.5445	3023.65	2136.2
947.1891	2178.0473	3017.55	2124.25
947.3239	2179.5494	3008.4	2117.65
947.4587	2181.0507	2995.95	2106.65
947.5934	2182.5513	3005.8	2117.2
947.7281	2184.0512	2995.05	2106.7
947.8628	2185.5504	2991.05	2103.35
947.9974	2187.0488	2972.7	2087.65
948.132	2188.5465	2960.2	2076.05
948.2666	2190.0435	2955.5	2069.3
948.4012	2191.5397	2954.7	2064.75
948.5357	2193.0353	2959.85	2068.55
948.6702	2194.5301	2938.9	2045.45
948.8047	2196.0241	2938.15	2045.05
948.9392	2197.5175	2930.35	2032.7
949.0736	2199.0101	2922.35	2025.95
949.208	2200.502	2910.9	2023
949.3424	2201.9931	2895.35	2008.1
949.4767	2203.4835	2888.95	2000.6
949.611	2204.9733	2904.45	2012.05
949.7453	2206.4622	2884.45	1999.45
949.8796	2207.9505	2871.4	1986.35
950.0138	2209.438	2858.75	1978.15
950.148	2210.9248	2844.55	1957.45
950.2822	2212.4109	2857.75	1973.15
950.4164	2213.8962	2852	1957.6
950.5505	2215.3809	2852.2	1958.2
950.6846	2216.8648	2847.15	1950.4
950.8186	2218.3479	2844.95	1944.95
950.9527	2219.8304	2831.7	1930.65
951.0867	2221.3121	2831.25	1932.55
951.2207	2222.7931	2821.15	1930.75
951.3546	2224.2733	2810	1916.3
951.4886	2225.7529	2797.5	1909.6
951.6225	2227.2317	2800.95	1911.25
951.7563	2228.7098	2794.55	1911.75
951.8902	2230.1872	2775.55	1890.35
952.024	2231.6638	2781.7	1896.45
952.1578	2233.1397	2771.1	1880.55
952.2916	2234.6149	2754.55	1870.45
952.4253	2236.0894	2751	1862.2
952.559	2237.5632	2758.65	1861
952.6927	2239.0362	2743.7	1854
952.8263	2240.5085	2735.45	1850.15
952.9599	2241.9801	2732.9	1844.3
953.0935	2243.4509	2715.2	1823.7
953.2271	2244.921	2710.7	1817
953.3606	2246.3904	2719.4	1825.55
953.4941	2247.8591	2711.05	1819.85
953.6276	2249.3271	2704.85	1814.3
953.7611	2250.7943	2694.85	1803.2
953.8945	2252.2608	2696.25	1802.15
954.0279	2253.7266	2682.2	1793.15
954.1612	2255.1917	2680.9	1791.9
954.2946	2256.656	2660.75	1774.95
954.4279	2258.1197	2655.3	1769.15
954.5612	2259.5826	2666.55	1778.35
954.6944	2261.0447	2649.3	1759.15
954.8276	2262.5062	2656.9	1766.4
954.9608	2263.9669	2637	1745.2
955.094	2265.4269	2640.15	1749
955.2271	2266.8862	2640.4	1751
955.3602	2268.3448	2633.4	1746.05
955.4933	2269.8026	2625.4	1738.5
955.6264	2271.2598	2621.95	1733.7
955.7594	2272.7162	2612	1723.95
955.8924	2274.1719	2615.2	1722.3
956.0253	2275.6268	2604.65	1713.65
956.1583	2277.0811	2609.55	1717.8
956.2912	2278.5346	2599.95	1711
956.4241	2279.9874	2584.8	1697.6
956.5569	2281.4395	2589.45	1704.9
956.6897	2282.8908	2580.15	1687.5
956.8225	2284.3414	2591.25	1700.55
956.9553	2285.7914	2581.55	1692.85
957.088	2287.2406	2580.65	1688.2
957.2207	2288.689	2574.75	1683.25
957.3534	2290.1368	2574.75	1680.25
957.486	2291.5838	2565.4	1668.3
957.6186	2293.0302	2552.55	1652.8
957.7512	2294.4758	2551.35	1658.25
957.8838	2295.9206	2537	1643.3
958.0163	2297.3648	2545.75	1656
958.1488	2298.8082	2535.75	1647.3
958.2813	2300.251	2521.75	1630.95
958.4137	2301.693	2535.05	1639.1
958.5461	2303.1343	2527.45	1632.5
958.6785	2304.5748	2518.85	1630.35
958.8108	2306.0147	2499.75	1612.4
958.9432	2307.4538	2509.3	1620.65
959.0754	2308.8922	2497.75	1612.7
959.2077	2310.3299	2494.15	1606.95
959.3399	2311.7669	2487.8	1599.15
959.4721	2313.2031	2482.1	1591
959.6043	2314.6387	2484.7	1593.85
959.7365	2316.0735	2481.25	1591.15
959.8686	2317.5076	2472.1	1581.55
960.0006	2318.941	2466.2	1574.7
960.1327	2320.3737	2459.45	1565.6
960.2647	2321.8056	2454.1	1561.1
960.3967	2323.2369	2451.1	1557
960.5287	2324.6674	2452.15	1559.5
960.6606	2326.0972	2446.95	1555.1
960.7925	2327.5263	2448.2	1556.1
960.9244	2328.9547	2432.45	1539.85
961.0562	2330.3823	2430.35	1536.3
961.1881	2331.8092	2442.15	1546.25
961.3198	2333.2355	2425.85	1532.6
961.4516	2334.661	2412.9	1520.1
961.5833	2336.0858	2403.1	1510.95
961.715	2337.5098	2397.35	1505.25
961.8467	2338.9332	2394.9	1505.5
961.9783	2340.3558	2402.45	1508.4
962.1099	2341.7778	2385.75	1497.35
962.2415	2343.199	2386.2	1495.35
962.373	2344.6195	2385.4	1497.3
962.5045	2346.0393	2386	1498.75
962.636	2347.4583	2387.15	1496.15
962.7675	2348.8767	2374.65	1482.75
962.8989	2350.2943	2375.1	1480.55
963.0303	2351.7113	2379.3	1485.6
963.1617	2353.1275	2376.35	1480.6
963.293	2354.543	2371.3	1470.35
963.4243	2355.9578	2375.2	1483.45
963.5556	2357.3718	2344.85	1456.15
963.6868	2358.7852	2336.15	1446.1
963.818	2360.1978	2349.8	1459.9
963.9492	2361.6098	2334.9	1445.9
964.0803	2363.021	2335.8	1444.1
964.2114	2364.4315	2324.1	1434.2
964.3425	2365.8413	2324.5	1433.45
964.4736	2367.2504	2316.6	1429.35
964.6046	2368.6587	2303.35	1418.15
964.7356	2370.0664	2303.4	1415.4
964.8666	2371.4733	2305.15	1415.45
964.9975	2372.8795	2290.95	1400.4
965.1284	2374.285	2301.25	1412.4
965.2593	2375.6899	2293.6	1404.2
965.3901	2377.0939	2275.8	1387.8
965.5209	2378.4973	2271.15	1384.55
965.6517	2379.9	2275.4	1385.95
965.7825	2381.3019	2264.2	1377.5
965.9132	2382.7032	2269.35	1383.75
966.0439	2384.1037	2249.55	1364.55
966.1745	2385.5035	2245.8	1360.9
966.3051	2386.9027	2247.75	1364.55
966.4357	2388.3011	2251.8	1362.5
966.5663	2389.6987	2234.7	1348.5
966.6968	2391.0957	2238.05	1353
966.8273	2392.492	2223.45	1338.95
966.9578	2393.8876	2217.9	1332.65
967.0882	2395.2824	2218.7	1333.25
967.2186	2396.6765	2219.75	1332.75
967.349	2398.07	2208.05	1321.3
967.4793	2399.4627	2205	1315.95
967.6097	2400.8547	2197.55	1307.95
967.7399	2402.246	2196.45	1302.85
967.8702	2403.6366	2197.95	1308
968.0004	2405.0265	2185.25	1298.05
968.1306	2406.4156	2186.9	1297.65
968.2607	2407.8041	2186.5	1294.6
968.3909	2409.1918	2182.1	1290.15
968.521	2410.5789	2165.35	1277.45
968.651	2411.9652	2169.15	1279.3
968.781	2413.3508	2163.75	1277.45
968.911	2414.7358	2155.75	1268.1
969.041	2416.12	2149.4	1262.15
969.1709	2417.5035	2145.6	1258
969.3008	2418.8863	2142.55	1255.5
969.4307	2420.2684	2140.5	1250.55
969.5606	2421.6497	2144.05	1255.3
969.6904	2423.0304	2136.4	1250.3
969.8201	2424.4104	2128.85	1239.9
969.9499	2425.7896	2125.2	1236.35
970.0796	2427.1682	2124	1237.5
970.2093	2428.546	2112.85	1224.15
970.3389	2429.9232	2113.05	1221.55
970.4685	2431.2996	2109.2	1218.65
970.5981	2432.6753	2098.25	1209.45
970.7277	2434.0503	2105.9	1219.1
970.8572	2435.4246	2097.5	1210.75
970.9867	2436.7982	2095.85	1204.45
971.1161	2438.1711	2101.75	1214
971.2456	2439.5433	2083.6	1193.65
971.375	2440.9148	2093.2	1199.8
971.5043	2442.2856	2065.75	1179.35
971.6336	2443.6557	2074.45	1184.55
971.7629	2445.025	2075.1	1187.2
971.8922	2446.3937	2060.65	1171.2
972.0214	2447.7617	2065.55	1176.35
972.1506	2449.1289	2073.05	1184.9
972.2798	2450.4955	2067	1176
972.4089	2451.8613	2047.1	1161.15
972.538	2453.2265	2054.75	1166.05
972.6671	2454.5909	2048.65	1159.95
972.7961	2455.9546	2053.85	1167.6
972.9251	2457.3177	2041.6	1154.05
973.0541	2458.68	2044.7	1156.8
973.1831	2460.0416	2039.5	1152.4
973.312	2461.4025	2037.1	1148.65
973.4408	2462.7627	2032.5	1135.05
973.5697	2464.1222	2016.25	1129.85
973.6985	2465.4811	2018.1	1132.85
973.8273	2466.8392	2017.15	1130.15
973.956	2468.1966	2014.95	1126.45
974.0847	2469.5533	2021.6	1133.95
974.2134	2470.9093	2020.4	1131
974.3421	2472.2645	2011.5	1121.45
974.4707	2473.6191	2009.55	1123.65
974.5993	2474.973	2011.8	1124.9
974.7278	2476.3262	2005.65	1116.05
974.8563	2477.6787	2007.55	1117.95
974.9848	2479.0305	1992.55	1105.65
975.1132	2480.3816	1997.7	1109.85
975.2417	2481.7319	1996.5	1108.1
975.37	2483.0816	1986.95	1098.05
975.4984	2484.4306	1976.9	1087.1
975.6267	2485.7789	1978.85	1092.95
975.755	2487.1264	1969.85	1082.5
975.8833	2488.4733	1960.35	1074.3
976.0115	2489.8195	1970	1076.85
976.1397	2491.165	1955.75	1065.35
976.2678	2492.5097	1945.8	1057.8
976.3959	2493.8538	1949.35	1061.25
976.524	2495.1972	1935.15	1047.45
976.6521	2496.5398	1933	1044.35
976.7801	2497.8818	1953.4	1064.3
976.9081	2499.2231	1933.8	1042.25
977.036	2500.5637	1928.95	1040.3
977.164	2501.9035	1927.9	1034.75
977.2918	2503.2427	1933.95	1043.2
977.4197	2504.5812	1918.05	1029.55
977.5475	2505.919	1921.85	1031.1
977.6753	2507.256	1917.15	1028.65
977.8031	2508.5924	1916.1	1028.65
977.9308	2509.9281	1920.1	1027.3
978.0585	2511.2631	1911.75	1023.9
978.1861	2512.5974	1901.2	1015.7
978.3137	2513.9309	1899.3	1011
978.4413	2515.2638	1920.4	1005.7
978.5689	2516.596	1896.4	1008.5
978.6964	2517.9275	1889.35	997.45
978.8239	2519.2583	1895	1007.5
978.9513	2520.5884	1892.5	1002.7
979.0788	2521.9178	1888.45	999.6
979.2062	2523.2465	1878.9	994.55
979.3335	2524.5745	1874.05	987.2
979.4608	2525.9018	1867.3	979.1
979.5881	2527.2284	1870.45	981.8
979.7154	2528.5543	1865.1	978.85
979.8426	2529.8796	1861.05	972.4
979.9698	2531.2041	1854.3	964.45
980.0969	2532.5279	1862.6	975.3
980.224	2533.851	1862.1	976.05
980.3511	2535.1735	1865.55	977
980.4781	2536.4952	1856.1	967.65
980.6052	2537.8163	1851.35	960.75
980.7321	2539.1366	1854.6	967.4
980.8591	2540.4562	1845.05	954.45
980.986	2541.7752	1848.4	958.2
981.1129	2543.0935	1847.5	956.7
981.2397	2544.411	1844.4	954.45
981.3665	2545.7279	1840.55	953.35
981.4933	2547.0441	1847.6	958.5
981.62	2548.3596	1850.85	959.25
981.7467	2549.6744	1834.8	943.75
981.8734	2550.9885	1841.7	949.2
982.0001	2552.3019	1837.2	947.95
982.1267	2553.6146	1832.7	944
982.2532	2554.9266	1821.6	933.55
982.3798	2556.2379	1820.9	931.55
982.5063	2557.5485	1822.65	933.5
982.6327	2558.8585	1813.1	915.3
982.7592	2560.1677	1829.4	934.95
982.8856	2561.4762	1828.2	938.85
983.0119	2562.7841	1819	925.7
983.1383	2564.0913	1810.8	924.55
983.2646	2565.3977	1805.45	918.75
983.3908	2566.7035	1805.8	917.2
983.517	2568.0086	1803.5	913.5
983.6432	2569.313	1801.3	910.9
983.7694	2570.6167	1813.05	919
983.8955	2571.9197	1793	903.9
984.0216	2573.222	1802.05	910.25
984.1476	2574.5236	1800.7	910.55
984.2737	2575.8246	1794.7	904.2
984.3996	2577.1248	1792.9	903.7
984.5256	2578.4244	1787.95	899.2
984.6515	2579.7232	1791.35	904.3
984.7774	2581.0214	1812.45	895.5
984.9032	2582.3189	1795.25	909.35
985.029	2583.6157	1790.05	896.55
985.1548	2584.9118	1799.95	910.45
985.2806	2586.2072	1792.3	903.35
985.4063	2587.5019	1786.6	898.1
985.5319	2588.7959	1770.2	880.95
985.6576	2590.0893	1793.95	903.7
985.7832	2591.3819	1786.4	897.8
985.9087	2592.6739	1783.1	894.25
986.0343	2593.9652	1780.3	890.15
986.1597	2595.2557	1780.2	891.2
986.2852	2596.5456	1780.7	890.9
986.4106	2597.8348	1779.7	889.05
986.536	2599.1234	1769.7	879.85
986.6614	2600.4112	1779.95	890.95
986.7867	2601.6983	1776.1	884.85
986.912	2602.9848	1766.55	876.45
987.0372	2604.2705	1775	879.35
987.1624	2605.5556	1775.05	885.4
987.2876	2606.84	1766.25	878.75
987.4128	2608.1237	1762.8	872.4
987.5379	2609.4067	1753.65	866.55
987.6629	2610.689	1763.8	866.7
987.788	2611.9707	1755.3	865.05
987.913	2613.2516	1746.65	854.6
988.0379	2614.5319	1745.1	856.3
988.1629	2615.8115	1743.6	854.6
988.2878	2617.0903	1736.65	846.5
988.4126	2618.3685	1732.55	843.45
988.5375	2619.6461	1734.6	846.8
988.6622	2620.9229	1727.25	839.9
988.787	2622.199	1727.55	839.3
988.9117	2623.4745	1723.55	834.75
989.0364	2624.7493	1715.25	826.4
989.161	2626.0234	1721.95	835.25
989.2857	2627.2968	1724.8	839.2
989.4102	2628.5695	1712.8	823.15
989.5348	2629.8415	1723.95	836.9
989.6593	2631.1128	1715.85	826.75
989.7837	2632.3835	1719.85	831.2
989.9082	2633.6535	1710.6	823.5
990.0326	2634.9228	1711.85	822.65
990.1569	2636.1914	1706.6	822.15
990.2812	2637.4593	1705.5	816.5
990.4055	2638.7265	1705.5	817.15
990.5298	2639.9931	1697.85	809.45
990.654	2641.259	1704.9	815.8
990.7782	2642.5242	1698.65	811.45
990.9023	2643.7887	1708.4	821.15
991.0264	2645.0525	1689.05	801.75
991.1505	2646.3156	1686.9	799.35
991.2745	2647.5781	1682.7	796.3
991.3985	2648.8398	1682.7	796.35
991.5225	2650.1009	1707.85	783.4
991.6464	2651.3613	1674.95	788.15
991.7703	2652.6211	1672.9	786.4
991.8942	2653.8801	1676.6	791.3
992.018	2655.1385	1672.7	781.3
992.1418	2656.3961	1670.05	781.9
992.2655	2657.6531	1673	785.25
992.3892	2658.9094	1674.85	787.35
992.5129	2660.1651	1668.75	782.3
992.6366	2661.42	1675.2	787.25
992.7602	2662.6743	1680	792.4
992.8837	2663.9279	1677.1	789.25
993.0073	2665.1808	1673.6	786.8
993.1307	2666.433	1676.2	789.15
993.2542	2667.6846	1669.7	784.1
993.3776	2668.9354	1672.8	782.3
993.501	2670.1856	1677.5	788.8
993.6244	2671.4351	1668.95	784.15
993.7477	2672.6839	1684.1	794.9
993.8709	2673.9321	1678.2	791.7
993.9942	2675.1795	1679.2	790.55
994.1174	2676.4263	1682.5	795.25
994.2405	2677.6724	1683.4	798.55
994.3637	2678.9179	1677.7	789.85
994.4868	2680.1626	1683.95	797.25
994.6098	2681.4067	1676.55	789.85
994.7328	2682.6501	1683.8	795.7
994.8558	2683.8928	1666.15	779.85
994.9788	2685.1348	1660.7	774.55
995.1017	2686.3761	1657.35	770.95
995.2245	2687.6168	1663	776.4
995.3474	2688.8568	1648.55	760.25
995.4702	2690.0961	1642	755.7
995.5929	2691.3348	1640.85	754.3
995.7156	2692.5727	1643.65	758.3
995.8383	2693.81	1635.55	749.75
995.961	2695.0466	1636.85	752.05
996.0836	2696.2826	1641.45	751.2
996.2062	2697.5178	1660.5	753.25
996.3287	2698.7524	1642.9	753.95
996.4512	2699.9863	1646.2	757.3
996.5737	2701.2195	1632.3	747.85
996.6961	2702.452	1648.45	760.15
996.8185	2703.6839	1647.1	759.95
996.9408	2704.9151	1651.8	768.25
997.0631	2706.1456	1649.65	761.5
997.1854	2707.3755	1655.15	768.55
997.3077	2708.6046	1671	781.75
997.4299	2709.8331	1668.4	781
997.552	2711.0609	1668.15	782.55
997.6742	2712.2881	1677.85	790.95
997.7963	2713.5145	1689.4	801.55
997.9183	2714.7403	1690.8	805.7
998.0403	2715.9654	1701.45	815.85
998.1623	2717.1899	1725.5	828.1
998.2842	2718.4136	1717.25	831.6
998.4062	2719.6367	1731.35	845.4
998.528	2720.8591	1744.65	850.7
998.6498	2722.0809	1756.7	868.4
998.7716	2723.3019	1760.9	870.65
998.8934	2724.5223	1767.7	880.75
999.0151	2725.7421	1770.7	883.35
999.1368	2726.9611	1779.8	892.75
999.2584	2728.1795	1777.9	887.35
999.38	2729.3972	1767.95	884.2
999.5016	2730.6142	1757.9	860.85
999.6231	2731.8306	1733.8	845.15
999.7446	2733.0462	1714.9	827.1
999.8661	2734.2612	1708.65	816.4
999.9875	2735.4756	1699.4	812.2
1000.1089	2736.6892	1675.2	789.2
1000.2302	2737.9022	1650.7	767
1000.3515	2739.1145	1647.75	763.7
1000.4728	2740.3262	1643.3	750.35
1000.594	2741.5372	1617.45	733.15
1000.7152	2742.7475	1601.1	714.1
1000.8363	2743.9571	1593.4	705.7
1000.9575	2745.1661	1593.45	703.7
1001.0785	2746.3744	1581.7	694.05
1001.1996	2747.582	1567.9	683.9
1001.3206	2748.7889	1565.85	679.2
1001.4415	2749.9952	1557.25	671.85
1001.5625	2751.2008	1540.5	655.85
1001.6833	2752.4057	1551.1	663.8
1001.8042	2753.61	1544.95	657.8
1001.925	2754.8136	1542.65	656.4
1002.0458	2756.0165	1538.6	655.9
1002.1665	2757.2188	1531.25	647.85
1002.2872	2758.4204	1529.65	644.25
1002.4078	2759.6213	1532.25	644.35
1002.5285	2760.8215	1533.85	644.65
1002.649	2762.0211	1533.7	646.65
1002.7696	2763.22	1528.2	639.05
1002.8901	2764.4182	1517.35	629.35
1003.0106	2765.6158	1530.05	646.2
1003.131	2766.8127	1521.25	636.85
1003.2514	2768.009	1514.25	630.95
1003.3717	2769.2045	1513.25	627.85
1003.492	2770.3994	1516.25	627.55
1003.6123	2771.5936	1504.25	620.7
1003.7325	2772.7872	1501.4	619.05
1003.8527	2773.9801	1500.35	614.05
1003.9729	2775.1723	1514.5	612.25
1004.093	2776.3639	1492.35	608.1
1004.2131	2777.5548	1501.35	614
1004.3331	2778.745	1492.9	607.85
1004.4531	2779.9346	1497.85	614.05
1004.5731	2781.1235	1494.2	609.15
1004.693	2782.3117	1497.35	615.45
1004.8129	2783.4992	1499.4	615.25
1004.9328	2784.6861	1499.8	616.35
1005.0526	2785.8723	1509.35	624.3
1005.1723	2787.0579	1512.55	626.65
1005.2921	2788.2428	1515.8	631.65
1005.4118	2789.427	1522.8	638.9
1005.5314	2790.6106	1522.55	636.35
1005.651	2791.7935	1535.6	650.9
1005.7706	2792.9757	1537.3	653.25
1005.8902	2794.1573	1556.2	671.3
1006.0097	2795.3382	1561.05	676.7
1006.1291	2796.5184	1571.3	689.3
1006.2485	2797.698	1584.6	699.5
1006.3679	2798.8769	1596.5	715.6
1006.4873	2800.0551	1614.5	728.6
1006.6066	2801.2327	1628.2	741.55
1006.7258	2802.4096	1643.1	761.65
1006.8451	2803.5859	1655	770.75
1006.9642	2804.7615	1677.4	793.6
1007.0834	2805.9364	1699.95	818.6
1007.2025	2807.1106	1715.15	832.35
1007.3216	2808.2842	1733.8	851.5
1007.4406	2809.4572	1771.25	887.4
1007.5596	2810.6294	1798.9	914.05
1007.6785	2811.801	1837.6	955.9
1007.7975	2812.972	1877.45	994.25
1007.9163	2814.1423	1912.8	1029.2
1008.0352	2815.3119	1952.8	1066.75
1008.154	2816.4808	1996.15	1113.95
1008.2727	2817.6491	2048.75	1165.95
1008.3914	2818.8167	2083.1	1200.85
1008.5101	2819.9837	2146.55	1260.65
1008.6288	2821.15	2193.05	1309.05
1008.7474	2822.3157	2245.65	1365.6
1008.8659	2823.4807	2307.45	1422.95
1008.9844	2824.645	2349.9	1465.6
1009.1029	2825.8086	2410.8	1526.5
1009.2214	2826.9716	2456.8	1573.9
1009.3398	2828.134	2495.5	1613.6
1009.4581	2829.2957	2547.7	1664.05
1009.5764	2830.4567	2570.8	1688.2
1009.6947	2831.617	2597.1	1712.9
1009.813	2832.7767	2604.2	1722.55
1009.9312	2833.9358	2597.1	1714.4
1010.0493	2835.0941	2598.95	1714.3
1010.1675	2836.2519	2588.9	1706.25
1010.2855	2837.4089	2571.05	1687.55
1010.4036	2838.5653	2561.95	1679.15
1010.5216	2839.7211	2563.95	1682.85
1010.6396	2840.8761	2569.75	1686.5
1010.7575	2842.0306	2577.75	1695.4
1010.8754	2843.1843	2603.4	1720.5
1010.9932	2844.3374	2640.15	1758.5
1011.111	2845.4899	2700.55	1815.2
1011.2288	2846.6417	2753.7	1871.6
1011.3465	2847.7928	2822.1	1939.85
1011.4642	2848.9433	2886.1	2002.65
1011.5818	2850.0931	2938.9	2055.95
1011.6995	2851.2422	3019.85	2135.6
1011.817	2852.3907	3076.75	2193.95
1011.9345	2853.5385	3132.55	2250.4
1012.052	2854.6857	3200.05	2305.95
1012.1695	2855.8323	3231.4	2349.7
1012.2869	2856.9781	3283.85	2401.55
1012.4042	2858.1233	3332.6	2450.25
1012.5216	2859.2679	3369.75	2487.2
1012.6389	2860.4118	3419.55	2538.95
1012.7561	2861.555	3484.35	2595.95
1012.8733	2862.6976	3518.2	2635.2
1012.9905	2863.8395	3529.8	2648.8
1013.1076	2864.9808	3554.3	2674
1013.2247	2866.1214	3587.3	2704.6
1013.3417	2867.2614	3598.25	2717.85
1013.4587	2868.4007	3613.65	2731
1013.5757	2869.5393	3635.4	2750.35
1013.6926	2870.6773	3644	2757.7
1013.8095	2871.8146	3670.7	2784.85
1013.9263	2872.9513	3670.5	2784.5
1014.0431	2874.0874	3643.85	2763
1014.1599	2875.2227	3650.1	2766.05
1014.2766	2876.3574	3618.25	2735.95
1014.3933	2877.4915	3605.65	2723.6
1014.51	2878.6249	3573.8	2690.6
1014.6266	2879.7577	3553.45	2668.95
1014.7431	2880.8898	3537.25	2645.95
1014.8596	2882.0212	3531.9	2651.3
1014.9761	2883.152	3507.45	2625.15
1015.0925	2884.2821	3495.8	2613.85
1015.2089	2885.4116	3489.5	2608.4
1015.3253	2886.5405	3479.05	2598.65
1015.4416	2887.6686	3493.65	2610.6
1015.5579	2888.7962	3486.1	2606.5
1015.6741	2889.923	3495.4	2613.95
1015.7903	2891.0493	3511	2632.15
1015.9065	2892.1748	3528.7	2646.75
1016.0226	2893.2997	3527.95	2647.1
1016.1387	2894.424	3544.5	2662.8
1016.2547	2895.5476	3570.3	2688.75
1016.3707	2896.6706	3589.45	2708.9
1016.4866	2897.7929	3607.65	2725.4
1016.6025	2898.9145	3633.8	2751.7
1016.7184	2900.0355	3666.8	2785.6
1016.8342	2901.1559	3696.3	2813.95
1016.95	2902.2756	3720.6	2839.95
1017.0658	2903.3946	3761.1	2881
1017.1815	2904.513	3791.45	2905.85
1017.2971	2905.6308	3814.55	2934.15
1017.4127	2906.7479	3833.35	2951.5
1017.5283	2907.8643	3858.15	2975.7
1017.6439	2908.9801	3861.35	2979.85
1017.7594	2910.0953	3879.9	2999.55
1017.8748	2911.2098	3878.4	2994.55
1017.9902	2912.3236	3869.75	2980.7
1018.1056	2913.4368	3862.6	2976.8
1018.2209	2914.5494	3856.75	2975.9
1018.3362	2915.6613	3818.25	2930.1
1018.4515	2916.7725	3799.9	2918.15
1018.5667	2917.8831	3746.9	2864.6
1018.6819	2918.9931	3725.85	2841.95
1018.797	2920.1024	3692.2	2812.05
1018.9121	2921.211	3671.9	2789.55
1019.0271	2922.319	3659.2	2779.5
1019.1421	2923.4264	3629.8	2750.1
1019.2571	2924.5331	3626.45	2745.4
1019.372	2925.6391	3616.75	2737.6
1019.4869	2926.7445	3625.55	2746.85
1019.6017	2927.8493	3619.45	2737.05
1019.7165	2928.9534	3616.5	2735.4
1019.8313	2930.0569	3626.8	2742.7
1019.946	2931.1597	3616.05	2736.3
1020.0606	2932.2619	3607.55	2727.95
1020.1753	2933.3634	3613.3	2734.35
1020.2899	2934.4643	3606.1	2717.4
1020.4044	2935.5645	3598.45	2710.35
1020.5189	2936.6641	3559.15	2674.6
1020.6334	2937.763	3524.3	2644.15
1020.7478	2938.8613	3468.65	2586.95
1020.8622	2939.959	3442.35	2557
1020.9765	2941.056	3368.4	2489.35
1021.0908	2942.1523	3286.85	2403.9
1021.2051	2943.248	3217.9	2337.75
1021.3193	2944.3431	3117.5	2238.7
1021.4334	2945.4375	3024.4	2141.75
1021.5476	2946.5313	2930.55	2050.9
1021.6617	2947.6244	2816.65	1937.55
1021.7757	2948.7169	2724.25	1844.35
1021.8897	2949.8087	2639.4	1758.8
1022.0037	2950.8999	2534.9	1655.2
1022.1176	2951.9904	2472.35	1592.2
1022.2315	2953.0803	2403.95	1522.75
1022.3453	2954.1696	2333.6	1454.6
1022.4591	2955.2582	2278.15	1397.15
1022.5728	2956.3462	2244.1	1365.7
1022.6865	2957.4335	2197.8	1317.9
1022.8002	2958.5202	2163.35	1280.6
1022.9138	2959.6062	2133.75	1252.45
1023.0274	2960.6916	2110.15	1231.75
1023.141	2961.7764	2098.75	1218
1023.2545	2962.8605	2071	1190.5
1023.3679	2963.9439	2065.55	1186.6
1023.4813	2965.0267	2054.2	1173.25
1023.5947	2966.1089	2067.8	1166.3
1023.708	2967.1905	2036.2	1157.65
1023.8213	2968.2714	2030.65	1152.15
1023.9346	2969.3516	2043.85	1164.4
1024.0478	2970.4312	2035.8	1147.9
1024.1609	2971.5102	2036.3	1156.85
1024.274	2972.5885	2036.7	1158.05
1024.3871	2973.6662	2045.6	1160.45
1024.5002	2974.7432	2044.8	1164.85
1024.6132	2975.8196	2030.5	1151.2
1024.7261	2976.8954	2028.45	1148.5
1024.839	2977.9705	2005.9	1127.8
1024.9519	2979.045	1999.65	1119.9
1025.0647	2980.1188	1981.3	1100.35
1025.1775	2981.192	1965.15	1086.7
1025.2902	2982.2645	1947.25	1065.65
1025.4029	2983.3364	1921.65	1043.7
1025.5156	2984.4077	1894.85	1016.05
1025.6282	2985.4783	1880.95	995.95
1025.7407	2986.5483	1839.85	963.9
1025.8532	2987.6177	1806.6	927.15
1025.9657	2988.6864	1772.3	893.95
1026.0782	2989.7545	1740.35	860.65
1026.1906	2990.8219	1701.75	821
1026.3029	2991.8887	1679.3	797.15
1026.4152	2992.9548	1641.2	760.2
1026.5275	2994.0204	1618.3	740.55
1026.6397	2995.0852	1579.55	700.8
1026.7519	2996.1495	1561.45	680.05
1026.864	2997.2131	1537.45	658.5
1026.9761	2998.276	1512.6	632.55
1027.0882	2999.3383	1492.15	612.05
1027.2002	3000.4	1477.4	598.05
1027.3122	3001.4611	1452.45	572.2
1027.4241	3002.5215	1448.35	569.8
1027.536	3003.5812	1417.15	536.35
1027.6478	3004.6404	1414.1	534.4
1027.7596	3005.6989	1401.4	521.3
1027.8714	3006.7567	1389.85	511.7
1027.9831	3007.8139	1401.6	493.75
1028.0947	3008.8705	1375.25	496.9
1028.2064	3009.9264	1362	478.7
1028.3179	3010.9818	1365	487.65
1028.4295	3012.0364	1354	473.45
1028.541	3013.0905	1340.5	461.5
1028.6524	3014.1439	1343.9	464.15
1028.7638	3015.1966	1338.4	460
1028.8752	3016.2487	1338.1	459.55
1028.9865	3017.3002	1342.25	455.5
1029.0978	3018.3511	1325.85	449.3
1029.209	3019.4013	1321.25	442.8
1029.3202	3020.4509	1324.05	446.05
1029.4314	3021.4998	1326.95	449.7
1029.5425	3022.5481	1322.65	445.35
1029.6535	3023.5958	1327.15	449.2
1029.7645	3024.6428	1328	446.9
1029.8755	3025.6892	1320.9	444.95
1029.9864	3026.735	1323.3	444.45
1030.0973	3027.7802	1328.4	449.35
1030.2082	3028.8247	1322.95	443.5
1030.319	3029.8685	1325.25	446.5
1030.4297	3030.9118	1327.15	446.55
1030.5404	3031.9544	1327.85	449.55
1030.6511	3032.9963	1332.55	452.95
1030.7617	3034.0376	1335.35	457.65
1030.8723	3035.0783	1340.25	458.55
1030.9829	3036.1184	1342.7	460.6
1031.0934	3037.1578	1341.95	463.45
1031.2038	3038.1966	1346.6	467.65
1031.3142	3039.2348	1340.75	464.25
1031.4246	3040.2723	1352.5	465.2
1031.5349	3041.3092	1345.6	469.45
1031.6452	3042.3455	1343.35	465.8
1031.7554	3043.3811	1343.3	463.15
1031.8656	3044.4161	1342.6	464.65
1031.9758	3045.4505	1341.9	464.25
1032.0859	3046.4842	1340.5	460.75
1032.1959	3047.5173	1331.15	456.25
1032.3059	3048.5498	1321.35	442.65
1032.4159	3049.5816	1319.4	441.5
1032.5258	3050.6128	1311.1	430.7
1032.6357	3051.6434	1316.5	436.8
1032.7455	3052.6734	1307.65	426.45
1032.8553	3053.7027	1299.6	420.45
1032.9651	3054.7314	1297.25	417.7
1033.0748	3055.7594	1293	416.7
1033.1845	3056.7868	1288.45	410.75
1033.2941	3057.8136	1285.85	407.1
1033.4037	3058.8398	1283.95	406.45
1033.5132	3059.8653	1282.4	402.9
1033.6227	3060.8902	1269.75	392.85
1033.7321	3061.9145	1274.3	396.4
1033.8415	3062.9381	1270.45	393.25
1033.9509	3063.9612	1280.3	385.95
1034.0602	3064.9835	1260.4	382.25
1034.1694	3066.0053	1259.65	377.7
1034.2787	3067.0264	1248.55	370.6
1034.3878	3068.0469	1246.85	367.65
1034.497	3069.0668	1241.65	360.05
1034.6061	3070.086	1234.65	354.75
1034.7151	3071.1046	1223.3	346.25
1034.8241	3072.1226	1220.95	339.7
1034.9331	3073.1399	1212.15	335.1
1035.042	3074.1567	1203.95	327.85
1035.1508	3075.1727	1203.5	322.2
1035.2597	3076.1882	1190.55	312.9
1035.3684	3077.203	1174.7	297.15
1035.4772	3078.2173	1171.7	291
1035.5859	3079.2308	1178.7	296.95
1035.6945	3080.2438	1161.65	281.75
1035.8031	3081.2561	1152.3	274.85
1035.9117	3082.2678	1154.75	276.4
1036.0202	3083.2789	1142.85	265.3
1036.1286	3084.2893	1138.3	262.4
1036.2371	3085.2991	1130.15	252.4
1036.3454	3086.3083	1127.85	246.6
1036.4538	3087.3169	1122.3	242.7
1036.562	3088.3248	1120.35	240.8
1036.6703	3089.3321	1114.85	236.9
1036.7785	3090.3388	1107.7	228.4
1036.8866	3091.3449	1101.7	226.5
1036.9948	3092.3503	1105.2	224.9
1037.1028	3093.3551	1094.5	218.6
1037.2108	3094.3593	1089.35	211.45
1037.3188	3095.3629	1089.75	212.4
1037.4267	3096.3658	1088.8	210.55
1037.5346	3097.3681	1084.6	207.6
1037.6425	3098.3698	1084.25	205.25
1037.7503	3099.3708	1084.7	201.2
1037.858	3100.3713	1075.5	196.6
1037.9657	3101.3711	1075.75	197.45
1038.0734	3102.3702	1206.4	194.45
1038.181	3103.3688	1075.8	197.9
1038.2886	3104.3667	1066.35	189.6
1038.3961	3105.364	1067.45	189.8
1038.5036	3106.3607	1063.15	183.55
1038.611	3107.3568	1064.8	186.35
1038.7184	3108.3522	1057.3	179.5
1038.8257	3109.347	1057	181.85
1038.933	3110.3412	1062.15	179.15
1039.0403	3111.3348	1053.1	176.25
1039.1475	3112.3277	1048.9	171.25
1039.2547	3113.32	1050.35	172.15
1039.3618	3114.3117	1048.55	171.8
1039.4689	3115.3028	1044.45	167.55
1039.5759	3116.2932	1041.7	162.2
1039.6829	3117.2831	1046.3	165.7
1039.7898	3118.2723	1043.85	167.6
1039.8967	3119.2608	1037.05	160.1
1040.0035	3120.2488	1038.2	161.45
1040.1103	3121.2361	1034.3	156.25
1040.2171	3122.2229	1034.85	158.45
1040.3238	3123.209	1032.45	153.45
1040.4305	3124.1944	1031.7	153.95
1040.5371	3125.1793	1030.45	151.55
1040.6437	3126.1635	1031.45	154.1
1040.7502	3127.1471	1027.65	151.1
1040.8567	3128.1301	1027.35	150.35
1040.9631	3129.1125	1026.5	148.45
1041.0695	3130.0942	1025	146.4
1041.1759	3131.0753	1031.3	146.95
1041.2822	3132.0558	1022.55	144.35
1041.3884	3133.0357	1021.3	144.1
1041.4946	3134.015	1022	143.55
1041.6008	3134.9936	1017.95	138.85
1041.7069	3135.9716	1038.15	139.15
1041.813	3136.949	1012.75	134.2
1041.919	3137.9258	1032.15	138.15
1042.025	3138.902	1020.4	138.45
1042.1309	3139.8775	1013.95	139.45
1042.2368	3140.8524	1012.35	135.75
1042.3427	3141.8267	1012.05	133.3
1042.4485	3142.8004	1012.6	135.65
1042.5542	3143.7735	1015.85	133.25
1042.6599	3144.7459	1007.3	128.95
1042.7656	3145.7178	1006.15	126.9
1042.8712	3146.689	1004.65	128.8
1042.9768	3147.6596	1010.45	130.25
1043.0823	3148.6295	1002.3	124.95
1043.1878	3149.5989	1003.25	125.7
1043.2932	3150.5676	1001.4	123.7
1043.3986	3151.5357	998.55	124.95
1043.5039	3152.5032	997.1	120.35
1043.6092	3153.4701	1000.3	123.1
1043.7145	3154.4364	1003.7	124.7
1043.8197	3155.402	998.35	119.55
1043.9248	3156.367	1001.9	123.8
1044.03	3157.3315	1027.4	119.7
1044.135	3158.2952	991.05	115.45
1044.24	3159.2584	993.8	117
1044.345	3160.221	993.4	115.15
1044.4499	3161.1829	991.1	115.25
1044.5548	3162.1442	992.3	116.05
1044.6596	3163.105	990.15	112
1044.7644	3164.065	990.75	114.3
1044.8692	3165.0245	996.95	116.6
1044.9739	3165.9834	986.45	113.3
1045.0785	3166.9416	987.8	109
1045.1831	3167.8993	985.35	110.25
1045.2877	3168.8563	983.95	108.7
1045.3922	3169.8127	983.9	108.55
1045.4966	3170.7684	983.05	107.45
1045.6011	3171.7236	981.2	103.35
1045.7054	3172.6782	982	104.3
1045.8098	3173.6321	982.85	108
1045.914	3174.5854	985.35	104.35
1046.0183	3175.5381	978.3	102.05
1046.1224	3176.4902	978.15	101.9
1046.2266	3177.4417	975.65	100
1046.3307	3178.3926	980.15	104.85
1046.4347	3179.3428	978.4	101.95
1046.5387	3180.2924	976.2	99.9
1046.6427	3181.2415	976.45	100.95
1046.7466	3182.1899	979.2	100.1
1046.8504	3183.1377	975.55	99.25
1046.9542	3184.0848	975.55	95.05
1047.058	3185.0314	971.9	93.05
1047.1617	3185.9773	971.85	95.55
1047.2654	3186.9227	978.4	100.4
1047.369	3187.8674	974.3	99.4
1047.4726	3188.8115	976	94.35
1047.5761	3189.755	969.1	92.55
1047.6796	3190.6979	970.3	95.5
1047.783	3191.6402	971.05	96.2
1047.8864	3192.5818	971.05	95.45
1047.9898	3193.5229	988.25	93.55
1048.0931	3194.4633	968.5	93
1048.1963	3195.4031	967.35	91.5
1048.2995	3196.3423	964.85	88.1
1048.4027	3197.2809	965.35	89.15
1048.5058	3198.2189	966.9	90.35
1048.6089	3199.1563	971.15	89.85
1048.7119	3200.0931	968.35	92.05
1048.8148	3201.0292	961.15	85.85
1048.9178	3201.9648	966.8	92.35
1049.0206	3202.8997	964.4	86.05
1049.1235	3203.834	962.85	87.75
1049.2262	3204.7677	959.75	84.55
1049.329	3205.7008	960.3	82.6
1049.4317	3206.6333	956.7	82.6
1049.5343	3207.5652	962.8	84.3
1049.6369	3208.4964	962.8	86.4
1049.7394	3209.4271	957.35	83.65
1049.8419	3210.3571	956.9	80.9
1049.9444	3211.2865	961.1	85.5
1050.0468	3212.2154	958.65	81.3
1050.1491	3213.1436	958.6	81.95
1050.2514	3214.0712	963.3	82.05
1050.3537	3214.9982	956.15	79.6
1050.4559	3215.9246	953.65	77.3
1050.5581	3216.8503	957	81.05
1050.6602	3217.7755	960.05	83.2
1050.7623	3218.7001	956.75	81.3
1050.8643	3219.624	952.8	74.95
1050.9663	3220.5473	953.1	77.15
1051.0682	3221.4701	956.85	79.55
1051.1701	3222.3922	952.95	76.4
1051.2719	3223.3137	950.5	73.4
1051.3737	3224.2346	953.85	78.25
1051.4754	3225.1549	951.1	73.95
1051.5771	3226.0746	953.65	79.35
1051.6788	3226.9937	952.8	76.25
1051.7804	3227.9121	947	73.25
1051.8819	3228.83	948.6	73.2
1051.9834	3229.7473	948.7	72.75
1052.0849	3230.6639	951.4	75.2
1052.1863	3231.5799	949.75	74.7
1052.2876	3232.4954	950.15	72.7
1052.3889	3233.4102	950.2	72.35
1052.4902	3234.3244	947.2	71.05
1052.5914	3235.238	948.1	72.2
1052.6926	3236.151	968.95	69.5
1052.7937	3237.0634	947.2	72.45
1052.8948	3237.9752	948.3	71.55
1052.9958	3238.8864	942.85	65.4
1053.0968	3239.797	943.1	67.2
1053.1977	3240.7069	947.25	71.35
1053.2986	3241.6163	946.8	69.3
1053.3994	3242.5251	939.35	64.6
1053.5002	3243.4332	941.25	67.25
1053.6009	3244.3408	945.4	70.3
1053.7016	3245.2477	939.8	65.3
1053.8022	3246.154	940.3	62.95
1053.9028	3247.0598	939.85	62.45
1054.0034	3247.9649	940	63.2
1054.1039	3248.8694	941	64.75
1054.2043	3249.7733	938.5	63.05
1054.3047	3250.6766	939	65.65
1054.4051	3251.5793	938.95	62.55
1054.5054	3252.4814	938.25	63.7
1054.6056	3253.3829	935.5	60.9
1054.7058	3254.2838	935.15	57.9
1054.806	3255.1841	936.7	61.75
1054.9061	3256.0838	935.85	59.75
1055.0061	3256.9829	934.5	59.55
1055.1062	3257.8814	933.05	56
1055.2061	3258.7792	936.35	58
1055.306	3259.6765	935.2	56.85
1055.4059	3260.5731	932.95	58.25
1055.5057	3261.4692	929.65	53.15
1055.6055	3262.3647	931.05	57.15
1055.7052	3263.2595	932	56.05
1055.8049	3264.1538	929.4	58.55
1055.9045	3265.0474	930.95	57.55
1056.0041	3265.9404	925.65	50.65
1056.1036	3266.8329	926.05	52.7
1056.2031	3267.7247	935.15	48.15
1056.3025	3268.616	924.85	52.25
1056.4019	3269.5066	921.65	44.35
1056.5013	3270.3966	919.65	44.3
1056.6005	3271.286	916.25	42.2
