Software Version:	3.9.2.0
Unit SN:	10000200
Spectrometer SN:	6960
Date:	3/8/2024 12:17:58 PM
Data Line Index:	25
Spectral Points:	2048
Integration time (ms):	125
Averages:	20
Delay (ms):	30000
Sequence Number:	1
Processing:	dark subtract
Laser Power (mW):	300
Laser Current (mA):	822
Laser Diode Temp (C):	25.1
Laser Case Temp (C):	25.7
System Temp (C):	25.7
Spectrometer Temp (C):	23.5
CCD Temp (C):	0.005
Secondary Temp (C):	20.007
Heatsink Temp (C):	20.59
CCDPCB Temp (C):	35.74
SecondaryPCB Temp (C):	28.893

Wavelength	RamanShift	Raw Counts	Dark Subtracted
787.061	30.1047	422.4	15.45
787.2016	32.3739	421.85	17.05
787.3422	34.6426	424.8	16.35
787.4828	36.9109	427.65	19.1
787.6235	39.1787	434	19.95
787.7642	41.4461	439.7	22.75
787.9049	43.7131	445.35	23.15
788.0456	45.9796	449.85	25.25
788.1863	48.2456	455.65	25.7
788.3271	50.5112	461.45	29.85
788.4679	52.7764	466.65	31.45
788.6087	55.0411	472.35	30.85
788.7496	57.3054	479.15	32
788.8904	59.5692	481.9	33.45
789.0313	61.8326	486.45	37.95
789.1722	64.0955	491.75	39.05
789.3132	66.3579	502.9	44.65
789.4541	68.6199	513.45	50.05
789.5951	70.8815	532.35	65.65
789.7361	73.1426	565.7	96.1
789.8771	75.4032	650	176.9
790.0181	77.6634	850.3	372.75
790.1592	79.9231	1317.85	834.8
790.3003	82.1824	2303.85	1809.6
790.4414	84.4412	4003.9	3487.4
790.5825	86.6995	6265.45	5728.05
790.7237	88.9574	8381.55	7822.75
790.8648	91.2148	9797.3	9224.35
791.006	93.4717	10380.5	9802.6
791.1472	95.7282	10402.15	9816.45
791.2885	97.9842	10257.6	9667.5
791.4297	100.2398	9930.75	9337.15
791.571	102.4949	9595.2	9000.95
791.7123	104.7495	9214.95	8619.45
791.8536	107.0036	8835.25	8236.8
791.9949	109.2573	8528.95	7928.4
792.1363	111.5105	8229.35	7626.95
792.2777	113.7632	7945.9	7341.55
792.4191	116.0154	7749.7	7135.8
792.5605	118.2672	7597.85	6990.05
792.7019	120.5185	7423.9	6814.15
792.8434	122.7693	7314.35	6701.6
792.9849	125.0197	7225.65	6610
793.1264	127.2696	7118.65	6495.75
793.2679	129.519	7032.2	6408.95
793.4094	131.7679	6926.1	6298.7
793.551	134.0163	6815.9	6189.3
793.6926	136.2642	6672	6040.05
793.8342	138.5117	6548.25	5904
793.9758	140.7587	6361.45	5724.05
794.1175	143.0052	6228.35	5588.8
794.2591	145.2512	6075.05	5435.6
794.4008	147.4967	5949.65	5310.2
794.5425	149.7417	5843.9	5200.7
794.6842	151.9863	5770.3	5121.05
794.826	154.2304	5742.8	5088.8
794.9677	156.4739	5671.1	5012.6
795.1095	158.717	5637.7	4979.15
795.2513	160.9596	5583.3	4919.1
795.3931	163.2017	5490.45	4824.2
795.535	165.4433	5371.2	4704.15
795.6768	167.6844	5272.25	4605.25
795.8187	169.925	5149.35	4480.2
795.9606	172.1651	5011.3	4336.35
796.1025	174.4047	4915.2	4236.05
796.2445	176.6439	4815.65	4135.75
796.3864	178.8825	4750.7	4065.65
796.5284	181.1206	4689.1	4002.8
796.6704	183.3582	4644.3	3951.85
796.8124	185.5954	4613.85	3919.8
796.9544	187.832	4575.5	3881.15
797.0965	190.0681	4591.6	3896.45
797.2386	192.3037	4577.95	3873.9
797.3806	194.5388	4569.35	3864.65
797.5228	196.7734	4580.35	3874.2
797.6649	199.0075	4615.75	3904.95
797.807	201.2411	4654.85	3943.4
797.9492	203.4742	4694.2	3983.05
798.0914	205.7068	4746.3	4030.05
798.2336	207.9389	4787.5	4072.35
798.3758	210.1704	4837.05	4128.2
798.518	212.4015	4881.75	4178.4
798.6603	214.632	4912.1	4216.7
798.8025	216.862	4955.15	4262.55
798.9448	219.0915	4978.1	4280.75
799.0871	221.3205	5019.1	4321.5
799.2294	223.549	5035.55	4344.2
799.3718	225.777	5049.1	4352.2
799.5141	228.0044	5062.2	4365.1
799.6565	230.2314	5105	4401.4
799.7989	232.4578	5083.35	4377.1
799.9413	234.6837	5127.9	4413.55
800.0837	236.909	5135.3	4416.1
800.2262	239.1339	5167.25	4427
800.3687	241.3582	5136.95	4408.3
800.5111	243.582	5133.35	4377.5
800.6536	245.8053	5108.45	4364.15
800.7961	248.0281	5080.45	4340.45
800.9387	250.2503	5116.75	4373.4
801.0812	252.472	5140.45	4397.8
801.2238	254.6932	5222.35	4476.6
801.3664	256.9139	5265.3	4520
801.509	259.134	5336.05	4584.6
801.6516	261.3536	5444.05	4694.6
801.7942	263.5727	5582.4	4831.75
801.9369	265.7912	5695.7	4946.35
802.0795	268.0092	5833.15	5086.35
802.2222	270.2267	5928.5	5180.8
802.3649	272.4436	5989.2	5236.75
802.5076	274.6601	6019.4	5257.5
802.6504	276.8759	5999.05	5240.4
802.7931	279.0913	5974.95	5220.75
802.9359	281.3061	5900.65	5139.65
803.0787	283.5204	5877	5115.1
803.2215	285.7341	5869.1	5103.35
803.3643	287.9473	5882.5	5116.05
803.5071	290.16	5888	5116.95
803.6499	292.3721	5893.05	5130.85
803.7928	294.5837	5935.5	5171.5
803.9357	296.7947	5992.85	5231
804.0786	299.0052	6059.35	5294.2
804.2215	301.2152	6057.45	5290.2
804.3644	303.4246	6021.8	5256.2
804.5074	305.6334	5905.9	5141.4
804.6503	307.8418	5779.8	5010
804.7933	310.0495	5642.5	4873.8
804.9363	312.2568	5488	4717.45
805.0793	314.4635	5330.2	4555.6
805.2223	316.6696	5188.2	4412.1
805.3653	318.8752	5093.75	4308.75
805.5084	321.0802	5051.8	4271.7
805.6514	323.2847	5032.4	4252.85
805.7945	325.4887	5054.15	4275.5
805.9376	327.692	5063.55	4280.6
806.0807	329.8949	5043	4259.8
806.2238	332.0972	4979.7	4195
806.367	334.2989	4912.15	4124
806.5101	336.5001	4854.7	4061
806.6533	338.7007	4765.8	3980
806.7965	340.9008	4719.85	3930.7
806.9397	343.1003	4633.7	3842.35
807.0829	345.2992	4586.55	3794.65
807.2261	347.4976	4522.25	3728.9
807.3693	349.6955	4495.5	3696.6
807.5126	351.8927	4486.35	3684.95
807.6559	354.0895	4459.4	3652.25
807.7991	356.2856	4431.5	3630.8
807.9424	358.4812	4415.85	3616.4
808.0857	360.6763	4408.65	3605.55
808.2291	362.8707	4382.55	3576.3
808.3724	365.0646	4424.45	3616.8
808.5158	367.258	4429	3627.1
808.6591	369.4508	4464.95	3651.6
808.8025	371.643	4516.1	3704
808.9459	373.8346	4559.6	3747.1
809.0893	376.0257	4602.05	3786.2
809.2327	378.2162	4630.65	3813.9
809.3762	380.4062	4626.95	3815.05
809.5196	382.5956	4596.05	3783.7
809.6631	384.7844	4538	3728.65
809.8066	386.9726	4500.4	3691.35
809.9501	389.1603	4480.45	3675.35
810.0936	391.3474	4460.15	3620.8
810.2371	393.5339	4425.35	3614.95
810.3806	395.7199	4419.4	3613.35
810.5241	397.9052	4431.75	3623.8
810.6677	400.09	4472.4	3664.5
810.8113	402.2743	4545.85	3739.35
810.9548	404.4579	4611.5	3805.05
811.0984	406.641	4706.95	3896
811.2421	408.8235	4761.4	3947.85
811.3857	411.0054	4827.55	4013.25
811.5293	413.1868	4920.55	4100.7
811.673	415.3675	4955.85	4134.25
811.8166	417.5477	4939.25	4116.65
811.9603	419.7273	4857.45	4033.1
812.104	421.9064	4808.7	3976.9
812.2477	424.0848	4770.05	3941.2
812.3914	426.2627	4711.75	3886.85
812.5351	428.4399	4637.75	3809.4
812.6788	430.6166	4507.05	3675.2
812.8226	432.7928	4393.85	3566.5
812.9663	434.9683	4267.3	3436.4
813.1101	437.1432	4185.85	3354
813.2539	439.3176	4124	3297
813.3977	441.4914	4072.7	3246.6
813.5415	443.6645	4085.15	3257.8
813.6853	445.8371	4061.95	3232.4
813.8291	448.0091	4066.3	3239.7
813.973	450.1806	4056.15	3228.95
814.1168	452.3514	4033.25	3204.4
814.2607	454.5216	4078.15	3239.05
814.4046	456.6913	4069.15	3235.15
814.5485	458.8603	4094.4	3262.4
814.6924	461.0288	4087.4	3259.15
814.8363	463.1967	4072.25	3242.9
814.9802	465.3639	4082.05	3248.95
815.1241	467.5306	4081.9	3248
815.2681	469.6967	4066.65	3234.85
815.412	471.8622	4039.75	3208.75
815.556	474.0271	4066.9	3234.95
815.7	476.1914	4087.25	3250.35
815.844	478.3551	4088.2	3255.5
815.988	480.5182	4114.65	3281.3
816.132	482.6807	4143.5	3313.8
816.276	484.8426	4204.3	3375.1
816.4201	487.0039	4337.9	3505.35
816.5641	489.1647	4476.6	3641.2
816.7082	491.3248	4601.85	3763.55
816.8522	493.4843	4618.2	3780.8
816.9963	495.6432	4594.9	3757.8
817.1404	497.8015	4550.05	3707.75
817.2845	499.9592	4505.4	3660.15
817.4286	502.1163	4413.6	3568.35
817.5727	504.2728	4291.1	3449.95
817.7168	506.4287	4180.65	3345.8
817.861	508.5839	4099.15	3261.05
818.0051	510.7386	4033.2	3194.25
818.1493	512.8927	4011.85	3164.9
818.2935	515.0461	4016.2	3169.3
818.4377	517.199	4048.9	3204.6
818.5818	519.3512	4124.15	3277.55
818.726	521.5029	4245.95	3396.45
818.8703	523.6539	4361	3513.6
819.0145	525.8043	4408.6	3558.2
819.1587	527.9541	4372.2	3521.1
819.303	530.1033	4284.15	3432.4
819.4472	532.2519	4204.8	3355.75
819.5915	534.3999	4164.65	3314
819.7357	536.5472	4169.7	3317.15
819.88	538.694	4215.4	3366.4
820.0243	540.8401	4292.6	3438.95
820.1686	542.9856	4351.05	3493.55
820.3129	545.1305	4357.8	3497.5
820.4572	547.2748	4333.85	3475.1
820.6016	549.4185	4287.5	3425.2
820.7459	551.5615	4262.95	3404.4
820.8902	553.704	4261.7	3405.05
821.0346	555.8458	4314.85	3458.6
821.1789	557.987	4392.95	3540.3
821.3233	560.1276	4482.95	3629.15
821.4677	562.2675	4660.6	3805.1
821.6121	564.4069	4890.95	4035.8
821.7565	566.5456	5080.3	4224
821.9009	568.6837	5168.85	4311.6
822.0453	570.8212	5021.8	4166.6
822.1897	572.958	4756.25	3897.9
822.3342	575.0942	4490.95	3635.95
822.4786	577.2299	4310.35	3459.05
822.6231	579.3648	4202.75	3354.3
822.7675	581.4992	4153.6	3308.95
822.912	583.6329	4181.55	3338.1
823.0565	585.766	4246.8	3400.85
823.201	587.8985	4297.45	3446.85
823.3454	590.0304	4344.25	3462.65
823.4899	592.1616	4337.1	3474.2
823.6345	594.2922	4288.7	3424.85
823.779	596.4222	4219.55	3354.4
823.9235	598.5515	4137.15	3268.35
824.068	600.6802	4079.15	3218.5
824.2126	602.8083	4023.4	3158.7
824.3571	604.9358	4017.55	3153
824.5017	607.0626	4033.05	3167.4
824.6462	609.1888	4082.95	3215.95
824.7908	611.3144	4157.6	3289.05
824.9354	613.4393	4212	3345.95
825.08	615.5636	4287.65	3420.1
825.2246	617.6873	4324.8	3458.25
825.3692	619.8103	4271	3400.65
825.5138	621.9327	4205.45	3335.3
825.6584	624.0544	4107.75	3241.3
825.803	626.1756	4030.2	3165.85
825.9477	628.2961	3958.8	3091.7
826.0923	630.4159	3924.2	3055.35
826.237	632.5351	3931.65	3060.55
826.3816	634.6537	3910.9	3038.3
826.5263	636.7716	3924.65	3053.7
826.6709	638.8889	3940.15	3065.1
826.8156	641.0056	3950.5	3075.3
826.9603	643.1216	3932.55	3057.05
827.105	645.237	3924.75	3050.05
827.2497	647.3518	3876.7	3004.1
827.3944	649.4659	3850.5	2983.25
827.5391	651.5793	3822.8	2956.35
827.6838	653.6922	3812.55	2941.95
827.8285	655.8043	3803.4	2934.75
827.9733	657.9159	3802.4	2930.75
828.118	660.0268	3799.05	2929.35
828.2627	662.137	3798.15	2927.75
828.4075	664.2466	3819.45	2942.15
828.5522	666.3556	3809.9	2934.2
828.697	668.4639	3787.05	2915.45
828.8418	670.5716	3766.6	2894.85
828.9865	672.6786	3753.85	2877.75
829.1313	674.785	3718.25	2841.05
829.2761	676.8907	3704.5	2826.25
829.4209	678.9958	3684.8	2811.15
829.5657	681.1002	3690.3	2812.3
829.7105	683.204	3688.9	2803.4
829.8553	685.3072	3691.65	2810.7
830.0001	687.4097	3690.15	2811.8
830.1449	689.5115	3691.4	2809.5
830.2898	691.6127	3664.85	2788.05
830.4346	693.7132	3680.8	2806.95
830.5794	695.8131	3697.7	2800.8
830.7243	697.9123	3702.85	2818.95
830.8691	700.0109	3729.3	2848.95
831.014	702.1089	3741.8	2862.6
831.1588	704.2061	3763.15	2883.3
831.3037	706.3028	3800.05	2914.6
831.4486	708.3987	3805.65	2923
831.5935	710.4941	3818.55	2937.5
831.7383	712.5887	3829.4	2946.6
831.8832	714.6827	3839.75	2953
832.0281	716.7761	3845.5	2965.5
832.173	718.8688	3899.7	3017.5
832.3179	720.9608	3959.05	3071.7
832.4628	723.0522	4024.15	3134.7
832.6077	725.1429	4038.35	3155
832.7527	727.233	4118.85	3233.25
832.8976	729.3224	4168.1	3282.7
833.0425	731.4112	4158.95	3274.45
833.1874	733.4993	4108.3	3221.9
833.3324	735.5867	4023	3138.65
833.4773	737.6735	3943.6	3054.6
833.6222	739.7596	3871.95	2981.75
833.7672	741.845	3818	2931.55
833.9122	743.9298	3792.75	2907
834.0571	746.014	3779.75	2894.55
834.2021	748.0974	3786.8	2895.35
834.347	750.1802	3787.6	2897.3
834.492	752.2624	3784.1	2896.7
834.637	754.3439	3793.25	2904.25
834.782	756.4247	3829.15	2930.35
834.9269	758.5048	3878.75	2985.6
835.0719	760.5843	4005.15	3111.05
835.2169	762.6631	4143.5	3253.25
835.3619	764.7413	4347.75	3459.8
835.5069	766.8188	4603.9	3712.35
835.6519	768.8956	4858.05	3968.95
835.7969	770.9718	5009.6	4120.25
835.9419	773.0473	5016.85	4123.65
836.0869	775.1221	4929.1	4037.5
836.232	777.1962	4828.4	3937.2
836.377	779.2697	4837.9	3944.25
836.522	781.3426	4854	3944.1
836.667	783.4147	4894.9	4002.4
836.8121	785.4862	4902.2	4011.55
836.9571	787.557	4805.8	3911.65
837.1021	789.6271	4615.5	3723.75
837.2472	791.6966	4377.4	3486.3
837.3922	793.7654	4137.75	3242.75
837.5373	795.8335	3974.05	3083.25
837.6823	797.901	3845.6	2956.2
837.8274	799.9678	3785.95	2890.05
837.9724	802.0339	3743.9	2848.7
838.1175	804.0993	3736.25	2832.7
838.2626	806.1641	3692.85	2799.15
838.4076	808.2282	3661	2765.5
838.5527	810.2916	3645.2	2750.7
838.6978	812.3544	3601.95	2710
838.8428	814.4164	3589.25	2696
838.9879	816.4778	3608.25	2712.35
839.133	818.5385	3634.7	2739.15
839.2781	820.5986	3684.7	2789.85
839.4232	822.658	3791.45	2893.25
839.5682	824.7166	3931.05	3034.55
839.7133	826.7747	4149.1	3253
839.8584	828.832	4358.9	3460.6
840.0035	830.8886	4554.95	3657.55
840.1486	832.9446	4621.75	3724.2
840.2937	834.9999	4550.4	3656.9
840.4388	837.0545	4402.7	3503.6
840.5839	839.1085	4260.55	3362.75
840.729	841.1618	4133.4	3231.95
840.8741	843.2143	4005.05	3106.7
841.0192	845.2662	3916.9	3020.8
841.1643	847.3175	3863.75	2965.8
841.3095	849.368	3819.1	2916.95
841.4546	851.4179	3797.1	2899.9
841.5997	853.467	3764.4	2867.95
841.7448	855.5155	3751.75	2851.95
841.8899	857.5633	3717.1	2817.95
842.0351	859.6105	3679.75	2780.2
842.1802	861.6569	3667.95	2769.1
842.3253	863.7027	3636.35	2734.85
842.4704	865.7478	3608.85	2709.85
842.6156	867.7922	3601.25	2700.25
842.7607	869.8359	3572.35	2672.7
842.9058	871.8789	3573.05	2670.15
843.0509	873.9212	3625.2	2690.3
843.1961	875.9629	3624.3	2722.45
843.3412	878.0039	3658	2762.05
843.4863	880.0441	3681.55	2780.85
843.6315	882.0837	3713.8	2812.15
843.7766	884.1226	3738.9	2836.9
843.9218	886.1609	3761.1	2860.1
844.0669	888.1984	3821.5	2921.95
844.212	890.2352	3888.2	2988.45
844.3572	892.2714	3920.45	3017.75
844.5023	894.3069	3894	2991
844.6475	896.3416	3834.7	2933.05
844.7926	898.3757	3785.2	2882.4
844.9377	900.4091	3721.65	2818.15
845.0829	902.4418	3711.5	2805
845.228	904.4739	3734.75	2827.15
845.3732	906.5052	3747.55	2842.3
845.5183	908.5358	3753.75	2847.35
845.6635	910.5658	3711.95	2806.35
845.8086	912.595	3624.55	2721.5
845.9538	914.6236	3545.05	2642.4
846.0989	916.6515	3491.05	2584.2
846.2441	918.6786	3436.1	2532.3
846.3892	920.7051	3419.9	2516.6
846.5344	922.7309	3445.6	2544.9
846.6795	924.756	3452	2547.05
846.8246	926.7804	3453.6	2547
846.9698	928.8041	3476.2	2570.4
847.1149	930.8272	3500.25	2591.85
847.2601	932.8495	3499.7	2594.1
847.4052	934.8711	3503	2598.4
847.5504	936.892	3497.85	2594.2
847.6955	938.9123	3503.45	2598.3
847.8407	940.9318	3523.6	2619.35
847.9858	942.9506	3535.6	2629.5
848.131	944.9688	3526.5	2622.05
848.2761	946.9862	3488.4	2582.6
848.4213	949.003	3431.55	2526.15
848.5664	951.019	3394.05	2489.75
848.7115	953.0344	3373.75	2468.6
848.8567	955.0491	3346.25	2438.75
849.0018	957.063	3347.25	2442.05
849.147	959.0763	3372	2468.85
849.2921	961.0888	3380.1	2472.75
849.4373	963.1007	3390.9	2486.95
849.5824	965.1119	3406.25	2504.65
849.7275	967.1223	3406.7	2509.6
849.8727	969.1321	3376.55	2481.15
850.0178	971.1412	3376.65	2474.9
850.1629	973.1495	3367.05	2464.4
850.3081	975.1572	3403.2	2464.45
850.4532	977.1641	3379.95	2473.4
850.5983	979.1704	3388.45	2481.15
850.7435	981.1759	3368.3	2460.05
850.8886	983.1808	3362.35	2457.55
851.0337	985.1849	3378.85	2462.95
851.1788	987.1884	3384.5	2476.95
851.324	989.1911	3396.65	2490.15
851.4691	991.1932	3415.35	2508.05
851.6142	993.1945	3417.5	2510.95
851.7593	995.1951	3418.9	2514.3
851.9045	997.1951	3425.75	2511.05
852.0496	999.1943	3403.7	2499.2
852.1947	1001.1928	3402.35	2493.5
852.3398	1003.1906	3433.35	2527.6
852.4849	1005.1877	3490.15	2583.8
852.63	1007.1841	3518.45	2613
852.7751	1009.1798	3541.5	2636.95
852.9202	1011.1748	3515.3	2609.7
853.0653	1013.1691	3466.3	2557.3
853.2104	1015.1627	3415.85	2508.4
853.3555	1017.1556	3322.75	2416.6
853.5006	1019.1477	3286.4	2382.45
853.6457	1021.1392	3257.75	2357.85
853.7908	1023.1299	3218.65	2316.55
853.9359	1025.12	3233.2	2334.2
854.081	1027.1093	3251.45	2360.35
854.2261	1029.0979	3295.7	2405.35
854.3712	1031.0859	3336.25	2442.55
854.5163	1033.0731	3350.6	2450.1
854.6613	1035.0596	3351.7	2449
854.8064	1037.0454	3318.95	2413.9
854.9515	1039.0304	3281.8	2376.5
855.0965	1041.0148	3244.65	2340.9
855.2416	1042.9985	3208.8	2303.3
855.3867	1044.9814	3179.25	2275.8
855.5317	1046.9636	3183.7	2278.35
855.6768	1048.9452	3172.9	2267.8
855.8219	1050.926	3195	2290.45
855.9669	1052.9061	3197.85	2291
856.112	1054.8855	3209.4	2305.35
856.257	1056.8642	3227.95	2322.25
856.4021	1058.8421	3264.85	2358.05
856.5471	1060.8194	3274	2364.65
856.6921	1062.7959	3274.55	2367.65
856.8372	1064.7717	3294.2	2384
856.9822	1066.7469	3346.4	2439.5
857.1272	1068.7213	3370.65	2461.15
857.2723	1070.695	3398.65	2492.65
857.4173	1072.6679	3430.85	2524.5
857.5623	1074.6402	3441.6	2533
857.7073	1076.6117	3441.1	2525.4
857.8523	1078.5826	3374.2	2467.05
857.9973	1080.5527	3320.2	2407.5
858.1423	1082.5221	3273.8	2367.4
858.2873	1084.4908	3251.3	2343.3
858.4323	1086.4587	3239.1	2332.95
858.5773	1088.426	3226.25	2320.3
858.7223	1090.3925	3247.85	2337.3
858.8673	1092.3584	3257.35	2351
859.0123	1094.3235	3279.25	2371.55
859.1573	1096.2879	3318.65	2410.3
859.3022	1098.2515	3379.45	2471.25
859.4472	1100.2145	3461.85	2554.6
859.5922	1102.1767	3527.8	2618.4
859.7371	1104.1382	3614.7	2710.05
859.8821	1106.099	3731.35	2826.75
860.027	1108.0591	3805.15	2898.7
860.172	1110.0185	3868.5	2958.8
860.3169	1111.9771	3900.35	2994.05
860.4619	1113.9351	3871.8	2964.85
860.6068	1115.8923	3847.65	2941.5
860.7517	1117.8488	3823.1	2913.5
860.8967	1119.8045	3759.25	2850.95
861.0416	1121.7596	3700	2796.15
861.1865	1123.7139	3653.35	2747.1
861.3314	1125.6675	3609	2701.7
861.4763	1127.6204	3625.15	2717.85
861.6212	1129.5726	3601.35	2693.45
861.7661	1131.524	3580.2	2672.4
861.911	1133.4748	3513	2606.3
862.0559	1135.4248	3428.65	2522.1
862.2008	1137.3741	3360.95	2455.45
862.3457	1139.3226	3326.55	2418.3
862.4905	1141.2705	3294.65	2388.3
862.6354	1143.2176	3280.95	2368.95
862.7803	1145.164	3256.25	2346.4
862.9251	1147.1097	3214	2306.5
863.07	1149.0546	3171.95	2261.95
863.2148	1150.9989	3134.7	2225.75
863.3597	1152.9424	3108.8	2200.15
863.5045	1154.8852	3064.95	2156
863.6493	1156.8272	3060.6	2154.6
863.7942	1158.7686	3084.5	2167.05
863.939	1160.7092	3092.35	2182.5
864.0838	1162.6491	3098.55	2189.75
864.2286	1164.5883	3142.05	2232.4
864.3734	1166.5267	3195.55	2286.15
864.5182	1168.4644	3261.55	2351.25
864.663	1170.4014	3343.6	2431.2
864.8078	1172.3377	3423.55	2520.5
864.9526	1174.2732	3541.55	2635.4
865.0974	1176.2081	3721.05	2815.1
865.2421	1178.1421	3936.25	3024.35
865.3869	1180.0755	4154.8	3247.75
865.5317	1182.0082	4332.55	3426.25
865.6764	1183.9401	4391.25	3487.1
865.8212	1185.8713	4322.4	3420.35
865.9659	1187.8017	4171.35	3272.7
866.1106	1189.7315	3996.85	3101.45
866.2554	1191.6605	3827.45	2932.25
866.4001	1193.5888	3712.9	2811.2
866.5448	1195.5163	3642.1	2739.85
866.6895	1197.4432	3617.35	2710.1
866.8342	1199.3693	3601	2695.3
866.9789	1201.2947	3574.85	2667.65
867.1236	1203.2193	3551.55	2647.95
867.2683	1205.1432	3557.95	2652.95
867.413	1207.0664	3531.9	2625.15
867.5576	1208.9889	3533.3	2626.8
867.7023	1210.9106	3524.7	2619.25
867.847	1212.8316	3523.6	2620.65
867.9916	1214.7519	3557.75	2641.9
868.1363	1216.6715	3561.45	2658.25
868.2809	1218.5903	3584.35	2678.75
868.4255	1220.5084	3634.8	2730
868.5701	1222.4257	3682.25	2780.5
868.7148	1224.3424	3712.95	2810.1
868.8594	1226.2583	3781.5	2872.6
869.004	1228.1735	3835.5	2930.55
869.1486	1230.0879	3905.3	3000.9
869.2932	1232.0016	3988.5	3084.6
869.4377	1233.9146	4051.85	3144.25
869.5823	1235.8269	4090.9	3186.75
869.7269	1237.7384	4092.35	3189.55
869.8715	1239.6492	4060.25	3157.4
870.016	1241.5592	4060.15	3155.05
870.1606	1243.4686	4105.15	3201.5
870.3051	1245.3772	4190.65	3284.65
870.4496	1247.285	4309.85	3404.3
870.5941	1249.1922	4431.4	3527.35
870.7387	1251.0986	4506.95	3604.85
870.8832	1253.0042	4565.55	3662.45
871.0277	1254.9092	4631.55	3727.45
871.1722	1256.8134	4663.9	3762.15
871.3167	1258.7169	4723.4	3816.25
871.4611	1260.6196	4767.65	3865
871.6056	1262.5216	4846	3939.55
871.7501	1264.4229	4909	4005.4
871.8945	1266.3234	4984.35	4080.6
872.039	1268.2232	5060.45	4152.8
872.1834	1270.1223	5075.8	4169.3
872.3278	1272.0207	5096.4	4192
872.4723	1273.9183	5104.15	4190.7
872.6167	1275.8151	5062.9	4159.05
872.7611	1277.7113	5078.5	4172.6
872.9055	1279.6067	5122.85	4219.15
873.0499	1281.5014	5275.2	4367.8
873.1943	1283.3953	5474.45	4569.05
873.3386	1285.2885	5738.65	4835.8
873.483	1287.181	6022.05	5120.3
873.6274	1289.0727	6262.35	5357.45
873.7717	1290.9637	6411.7	5507.3
873.9161	1292.854	6533.3	5630.95
874.0604	1294.7435	6497.2	5591.8
874.2047	1296.6323	6429.75	5526.85
874.349	1298.5204	6311.8	5405.9
874.4933	1300.4077	6183.3	5281.95
874.6376	1302.2943	6011.75	5107.4
874.7819	1304.1802	5850.6	4946.75
874.9262	1306.0653	5639.25	4733.65
875.0705	1307.9497	5427.5	4522.35
875.2147	1309.8333	5243.9	4339.65
875.359	1311.7162	5068.95	4161.6
875.5032	1313.5984	4973.55	4065.1
875.6475	1315.4798	4902.1	3988.95
875.7917	1317.3605	4844.3	3923.3
875.9359	1319.2405	4794.8	3887.85
876.0801	1321.1197	4688.85	3780.95
876.2243	1322.9982	4537.7	3624.95
876.3685	1324.876	4408.45	3503.7
876.5127	1326.753	4249.2	3344.35
876.6569	1328.6293	4162.4	3255.8
876.801	1330.5048	4068	3160.85
876.9452	1332.3796	3982.85	3080.4
877.0893	1334.2537	3958.95	3029.25
877.2335	1336.127	3884.85	2979.95
877.3776	1337.9996	3856.9	2951.15
877.5217	1339.8714	3850.9	2944.2
877.6658	1341.7426	3904.45	2954.65
877.8099	1343.6129	3879.85	2973.7
877.954	1345.4826	3863.15	2959.75
878.0981	1347.3515	3850.65	2942.6
878.2422	1349.2196	3843.8	2937.75
878.3862	1351.087	3875.25	2971.85
878.5303	1352.9537	3890	2984.15
878.6743	1354.8197	3906.4	3000.45
878.8184	1356.6849	3981.75	3076.25
878.9624	1358.5493	4041.9	3138.45
879.1064	1360.4131	4125.15	3221.4
879.2504	1362.276	4208.1	3304.3
879.3944	1364.1383	4235	3331.95
879.5384	1365.9998	4182.55	3271.2
879.6823	1367.8606	4055.75	3150.2
879.8263	1369.7206	3923.85	3017.95
879.9702	1371.5799	3815.4	2907.15
880.1142	1373.4384	3709.65	2804.95
880.2581	1375.2962	3610.15	2706.15
880.402	1377.1533	3486.65	2583.25
880.5459	1379.0096	3360.65	2459.1
880.6898	1380.8652	3224.55	2323.05
880.8337	1382.7201	3119.2	2215.85
880.9776	1384.5742	3034.75	2131.75
881.1215	1386.4275	2976.5	2070.8
881.2653	1388.2802	2923.95	2020.15
881.4092	1390.132	2882.75	1977.05
881.553	1391.9832	2872.65	1965.85
881.6968	1393.8336	2837.5	1933.5
881.8406	1395.6832	2807	1901.2
881.9844	1397.5322	2790.7	1884.15
882.1282	1399.3803	2783.95	1873.65
882.272	1401.2278	2772.3	1869.8
882.4158	1403.0745	2767.45	1864.25
882.5595	1404.9204	2758.85	1858.25
882.7033	1406.7656	2762.7	1857.75
882.847	1408.6101	2756.5	1853.35
882.9908	1410.4538	2771.85	1869.2
883.1345	1412.2968	2793.9	1890
883.2782	1414.139	2812.4	1907.55
883.4219	1415.9805	2830.4	1926.65
883.5656	1417.8213	2862.1	1952.3
883.7092	1419.6613	2900.25	1997.15
883.8529	1421.5006	2948.65	2045.15
883.9965	1423.3391	3028.55	2122.9
884.1402	1425.1769	3132.15	2229.9
884.2838	1427.0139	3281.2	2376.85
884.4274	1428.8502	3467.35	2563.7
884.571	1430.6858	3676.15	2771.85
884.7146	1432.5206	3796.45	2894.95
884.8582	1434.3547	3875.2	2972.25
885.0018	1436.188	3885.7	2981.15
885.1453	1438.0206	3852.3	2948.7
885.2889	1439.8524	3785.65	2881.2
885.4324	1441.6835	3749.5	2844.4
885.5759	1443.5139	3713.3	2806.65
885.7194	1445.3435	3682.7	2777.45
885.8629	1447.1724	3678.55	2776.05
886.0064	1449.0005	3689.6	2787.65
886.1499	1450.8279	3658.55	2756.2
886.2933	1452.6545	3654.9	2755.4
886.4368	1454.4804	3670.6	2771.9
886.5802	1456.3056	3678.85	2773.2
886.7237	1458.13	3645.6	2745.4
886.8671	1459.9536	3596.7	2696.5
887.0105	1461.7766	3498.15	2596.05
887.1539	1463.5987	3385	2482.4
887.2972	1465.4202	3274.75	2371.65
887.4406	1467.2409	3159.4	2256.85
887.584	1469.0608	3058.9	2157.6
887.7273	1470.88	2970.55	2068.15
887.8706	1472.6984	2886.7	1985.75
888.0139	1474.5161	2811.9	1907.05
888.1572	1476.3331	2763.25	1861
888.3005	1478.1493	2734.25	1829.75
888.4438	1479.9648	2695.9	1793.95
888.5871	1481.7795	2676.15	1774.3
888.7303	1483.5935	2659.65	1759.75
888.8736	1485.4067	2649.4	1748.05
889.0168	1487.2192	2638.45	1737.05
889.16	1489.031	2623.65	1720.95
889.3032	1490.842	2618.8	1718.45
889.4464	1492.6522	2609.1	1708.2
889.5896	1494.4618	2595.45	1695.05
889.7327	1496.2705	2582.85	1680.8
889.8759	1498.0785	2559	1658.05
890.019	1499.8858	2547.15	1647
890.1622	1501.6924	2534.4	1632.9
890.3053	1503.4981	2511.55	1609.45
890.4484	1505.3032	2492.3	1594
890.5914	1507.1075	2478.95	1578.4
890.7345	1508.911	2468.6	1567.1
890.8776	1510.7138	2441.15	1540.75
891.0206	1512.5159	2424.05	1523.9
891.1637	1514.3172	2415.45	1516.7
891.3067	1516.1178	2388.4	1490.1
891.4497	1517.9176	2395.35	1492.05
891.5927	1519.7166	2378.9	1481.15
891.7357	1521.515	2367.65	1460.9
891.8786	1523.3126	2356.7	1457.3
892.0216	1525.1094	2353.05	1452.85
892.1645	1526.9055	2338.45	1440.5
892.3074	1528.7008	2342.3	1445.7
892.4503	1530.4954	2334.55	1434.15
892.5932	1532.2893	2334.15	1437.9
892.7361	1534.0824	2328.1	1426.85
892.879	1535.8747	2315.05	1415.1
893.0218	1537.6663	2323.3	1426.95
893.1647	1539.4572	2316.5	1418.1
893.3075	1541.2473	2327.3	1429.9
893.4503	1543.0367	2323.8	1429.95
893.5931	1544.8253	2342.75	1441.45
893.7359	1546.6132	2352.25	1452.95
893.8787	1548.4003	2373.25	1464.9
894.0214	1550.1867	2393.65	1487.55
894.1642	1551.9723	2411.85	1511.55
894.3069	1553.7572	2458.55	1561.25
894.4496	1555.5414	2519.25	1623.45
894.5923	1557.3247	2573.75	1677.3
894.735	1559.1074	2647.2	1752.85
894.8777	1560.8893	2711.15	1815.7
895.0204	1562.6705	2783.6	1888.65
895.163	1564.4509	2847.65	1953
895.3056	1566.2305	2857.75	1964.1
895.4482	1568.0094	2883.3	1991.6
895.5908	1569.7876	2887.65	1995.45
895.7334	1571.565	2882.85	1988.45
895.876	1573.3417	2873.6	1978.7
896.0186	1575.1176	2884.35	1990.9
896.1611	1576.8928	2879.45	1986.55
896.3036	1578.6672	2897.35	2008.35
896.4461	1580.4409	2920.05	2032.6
896.5886	1582.2138	2954.75	2062.9
896.7311	1583.986	2994.75	2101.95
896.8736	1585.7575	3047.5	2155
897.0161	1587.5282	3094.4	2205.8
897.1585	1589.2981	3145.2	2257.2
897.3009	1591.0673	3189.35	2299.05
897.4433	1592.8358	3246.3	2359.65
897.5857	1594.6035	3310.2	2415.8
897.7281	1596.3704	3354.75	2460.5
897.8705	1598.1366	3383.45	2491.5
898.0128	1599.9021	3422.4	2533.55
898.1551	1601.6668	3445.9	2553.95
898.2975	1603.4308	3506.35	2614.7
898.4398	1605.194	3570.35	2673.95
898.5821	1606.9564	3646.45	2758.8
898.7243	1608.7182	3760.8	2870.55
898.8666	1610.4791	3889.9	3004.7
899.0088	1612.2394	4015.55	3130.3
899.1511	1613.9988	4155.5	3270.05
899.2933	1615.7576	4284.25	3398.05
899.4355	1617.5156	4380.15	3484.25
899.5776	1619.2728	4389.65	3497.05
899.7198	1621.0293	4315.9	3424.55
899.862	1622.785	4210.75	3317.5
900.0041	1624.54	4038.5	3148.1
900.1462	1626.2942	3863.25	2975.5
900.2883	1628.0477	3668.45	2779.3
900.4304	1629.8005	3513.8	2623.1
900.5725	1631.5525	3364.55	2478.2
900.7145	1633.3037	3232.45	2346.8
900.8566	1635.0542	3135.2	2247.2
900.9986	1636.804	3047	2160.9
901.1406	1638.553	3050.65	2094.25
901.2826	1640.3013	2953.3	2064.95
901.4245	1642.0488	2925.25	2038.45
901.5665	1643.7955	2917.85	2031.45
901.7085	1645.5416	2934.8	2048.35
901.8504	1647.2868	2971.5	2085.55
901.9923	1649.0313	3000.95	2115.4
902.1342	1650.7751	3047.95	2158.55
902.2761	1652.5181	3094.65	2207.15
902.4179	1654.2604	3139.65	2252.7
902.5598	1656.0019	3232.4	2345.2
902.7016	1657.7427	3319	2432.45
902.8434	1659.4828	3407.1	2521.2
902.9852	1661.222	3480.45	2590.9
903.127	1662.9606	3456.5	2568.6
903.2687	1664.6984	3392.25	2503.75
903.4105	1666.4354	3250.05	2359.45
903.5522	1668.1717	3060.5	2175.15
903.6939	1669.9072	2849.65	1960.95
903.8356	1671.642	2684.8	1794
903.9773	1673.3761	2542.5	1654.3
904.119	1675.1094	2427.15	1539.45
904.2606	1676.8419	2346.4	1459.05
904.4022	1678.5737	2268.75	1381.2
904.5439	1680.3048	2220.05	1331
904.6855	1682.0351	2163.05	1275.65
904.827	1683.7646	2134.45	1244.3
904.9686	1685.4934	2104.1	1216.95
905.1101	1687.2215	2074.35	1184.75
905.2517	1688.9488	2041.95	1157.05
905.3932	1690.6754	2019.75	1132.15
905.5347	1692.4012	2004.95	1120.25
905.6761	1694.1263	1985.35	1097.75
905.8176	1695.8506	1971.65	1084.3
905.9591	1697.5742	1964.35	1079
906.1005	1699.297	1945.85	1060.2
906.2419	1701.0191	1935.65	1050.25
906.3833	1702.7404	1924.6	1041.8
906.5246	1704.461	1904.15	1015.8
906.666	1706.1808	1900.65	1015.5
906.8073	1707.8999	1890.25	1005.3
906.9487	1709.6182	1872.45	988.1
907.09	1711.3358	1862.1	978.4
907.2313	1713.0527	1856.85	974.45
907.3725	1714.7688	1851.9	962.85
907.5138	1716.4841	1843.45	956.15
907.655	1718.1987	1839.7	948.75
907.7962	1719.9126	1833.4	949.35
907.9374	1721.6257	1834.1	948.5
908.0786	1723.338	1818.6	933.55
908.2198	1725.0496	1821.2	937.3
908.3609	1726.7605	1812.2	927.45
908.502	1728.4706	1816.15	932.4
908.6431	1730.18	1798.25	911.55
908.7842	1731.8886	1796.55	911.7
908.9253	1733.5964	1811.75	907.5
909.0664	1735.3036	1791	901.55
909.2074	1737.0099	1787.9	904.05
909.3484	1738.7156	1783.4	899.5
909.4894	1740.4204	1776.9	889.1
909.6304	1742.1246	1767.1	884.25
909.7714	1743.8279	1769.2	883.4
909.9123	1745.5306	1750.85	868.05
910.0532	1747.2325	1746.6	862.9
910.1941	1748.9336	1737.15	853.3
910.335	1750.634	1740.35	855.15
910.4759	1752.3336	1731.2	846.45
910.6168	1754.0325	1726.1	842.45
910.7576	1755.7307	1725.5	842.6
910.8984	1757.4281	1733.55	849.2
911.0392	1759.1247	1727.7	835.05
911.18	1760.8206	1725.5	836
911.3208	1762.5158	1719.25	830.9
911.4615	1764.2102	1716.7	835
911.6022	1765.9039	1706.55	822.7
911.7429	1767.5968	1705.6	823.1
911.8836	1769.289	1697.4	814.9
912.0243	1770.9804	1704.75	817.8
912.1649	1772.6711	1701.3	813.3
912.3056	1774.361	1697.4	811.2
912.4462	1776.0502	1697.4	812.5
912.5868	1777.7386	1694.5	806.3
912.7274	1779.4263	1684.85	799.5
912.8679	1781.1132	1684.1	802.55
913.0084	1782.7994	1680.2	795.5
913.149	1784.4849	1685.7	804.8
913.2895	1786.1696	1707.7	807
913.4299	1787.8535	1681.6	798
913.5704	1789.5367	1668.45	785.7
913.7108	1791.2192	1676.4	793
913.8513	1792.9009	1690.85	781.75
913.9917	1794.5818	1673.5	786.05
914.132	1796.2621	1663.4	781.9
914.2724	1797.9415	1662.15	778.25
914.4128	1799.6202	1664.5	780.55
914.5531	1801.2982	1652.35	768.45
914.6934	1802.9755	1662.35	777
914.8337	1804.6519	1654.15	768.1
914.9739	1806.3277	1648.95	768
915.1142	1808.0027	1643.9	762.75
915.2544	1809.6769	1644.5	761.65
915.3946	1811.3504	1643.95	760.6
915.5348	1813.0231	1636.35	755.65
915.675	1814.6951	1641.6	762.4
915.8151	1816.3664	1634.2	749.25
915.9553	1818.0369	1633.8	751.75
916.0954	1819.7067	1632.2	748.85
916.2355	1821.3757	1632.65	748.1
916.3755	1823.044	1634.25	750.6
916.5156	1824.7115	1632.5	748.75
916.6556	1826.3783	1624.4	742.1
916.7956	1828.0443	1625.15	742.05
916.9356	1829.7096	1628.65	742.4
917.0756	1831.3741	1619.9	732.95
917.2155	1833.0379	1618.55	737.1
917.3555	1834.701	1611.1	729.1
917.4954	1836.3633	1623.95	738.75
917.6353	1838.0248	1617.25	731.9
917.7751	1839.6856	1618.2	735.15
917.915	1841.3457	1613.6	730.45
918.0548	1843.005	1613.45	729.4
918.1946	1844.6636	1609.55	727
918.3344	1846.3214	1611.15	727.65
918.4742	1847.9785	1604.5	721.95
918.6139	1849.6349	1615.4	730.75
918.7537	1851.2904	1619.5	726.45
918.8934	1852.9453	1608.05	725.1
919.0331	1854.5994	1593.25	706.75
919.1727	1856.2528	1606.1	718.4
919.3124	1857.9054	1605.8	720.75
919.452	1859.5572	1597.7	715.15
919.5916	1861.2083	1597.35	712.15
919.7312	1862.8587	1593.35	711.95
919.8708	1864.5084	1589.55	706.85
920.0103	1866.1572	1576.1	692.65
920.1498	1867.8054	1588.7	705.2
920.2893	1869.4528	1589.1	706.25
920.4288	1871.0994	1587.45	705.3
920.5683	1872.7453	1585.15	702.05
920.7077	1874.3905	1591.8	701.75
920.8471	1876.0349	1580.8	697.2
920.9865	1877.6786	1578.1	693.3
921.1259	1879.3215	1577.2	692
921.2653	1880.9637	1582.9	698.55
921.4046	1882.6051	1571.15	688.15
921.5439	1884.2458	1568.95	683.45
921.6832	1885.8858	1564.45	681
921.8225	1887.525	1570.5	685.2
921.9617	1889.1634	1565.55	684.2
922.101	1890.8011	1555.6	672.6
922.2402	1892.4381	1562.35	680.55
922.3794	1894.0743	1566.2	682.8
922.5185	1895.7098	1551.35	668.15
922.6577	1897.3446	1556.8	672.85
922.7968	1898.9786	1560.85	674.15
922.9359	1900.6118	1549.15	666.4
923.075	1902.2443	1551.7	666.6
923.214	1903.8761	1535.9	651.85
923.3531	1905.5071	1543.1	658.8
923.4921	1907.1374	1539.9	656.95
923.6311	1908.7669	1541.85	658.8
923.77	1910.3957	1534.85	651.45
923.909	1912.0237	1539.2	655.05
924.0479	1913.651	1532.75	649.05
924.1868	1915.2776	1527.1	645.05
924.3257	1916.9034	1526.9	645.3
924.4646	1918.5285	1523.5	640.7
924.6034	1920.1528	1522.75	640.35
924.7422	1921.7764	1523.9	640.65
924.881	1923.3992	1514.5	632.2
925.0198	1925.0213	1516.65	632.15
925.1586	1926.6427	1515.95	635.35
925.2973	1928.2633	1594.2	626.05
925.436	1929.8832	1517.5	631.35
925.5747	1931.5023	1509.15	626.5
925.7134	1933.1207	1504.15	620.65
925.852	1934.7383	1507.7	624.1
925.9906	1936.3552	1502.15	618
926.1292	1937.9714	1504.2	621.9
926.2678	1939.5868	1500.05	616.25
926.4064	1941.2015	1497.5	613.6
926.5449	1942.8154	1498.95	615.75
926.6834	1944.4286	1492.95	608
926.8219	1946.041	1510.65	603.4
926.9604	1947.6528	1486.7	599.25
927.0988	1949.2637	1474.75	591.6
927.2372	1950.8739	1481.8	598.7
927.3756	1952.4834	1483.9	600.45
927.514	1954.0921	1475.25	592.3
927.6523	1955.7001	1479.15	591.65
927.7907	1957.3074	1473.7	591.25
927.929	1958.9139	1474.1	592.75
928.0673	1960.5197	1471.1	588.1
928.2055	1962.1247	1465.45	583.5
928.3438	1963.729	1468	586.55
928.482	1965.3325	1463.3	577.2
928.6202	1966.9353	1464.55	584.95
928.7584	1968.5374	1462.5	580.5
928.8965	1970.1387	1456.4	574.45
929.0346	1971.7393	1455.05	573.95
929.1727	1973.3392	1452.9	569.05
929.3108	1974.9383	1443.15	562.8
929.4489	1976.5366	1448.95	566.8
929.5869	1978.1342	1448.25	568.8
929.7249	1979.7311	1442.3	561.15
929.8629	1981.3273	1438.4	555.95
930.0009	1982.9227	1444.85	564.25
930.1388	1984.5173	1446.5	564
930.2767	1986.1112	1439.3	559.85
930.4146	1987.7044	1434.7	554.95
930.5525	1989.2968	1439.45	556.75
930.6904	1990.8885	1444	560.75
930.8282	1992.4795	1435.9	555.3
930.966	1994.0697	1426.3	545.1
931.1038	1995.6592	1427.85	547.85
931.2415	1997.2479	1431.35	550.1
931.3793	1998.8359	1426.45	546.4
931.517	2000.4232	1424.35	548.3
931.6547	2002.0097	1419.8	543.65
931.7923	2003.5955	1424.35	544.6
931.93	2005.1805	1418.5	536.95
932.0676	2006.7648	1415.35	536.5
932.2052	2008.3484	1414.65	538.1
932.3427	2009.9312	1413.25	531.55
932.4803	2011.5133	1412.55	537.7
932.6178	2013.0946	1411.7	533.95
932.7553	2014.6752	1409.7	531.95
932.8928	2016.2551	1416.7	536.6
933.0302	2017.8342	1409.25	529.6
933.1676	2019.4126	1409.25	533.75
933.305	2020.9902	1399.05	522.4
933.4424	2022.5672	1401.9	522.1
933.5798	2024.1433	1404.4	524.35
933.7171	2025.7188	1395.45	518.15
933.8544	2027.2935	1394.35	517.05
933.9917	2028.8674	1393.6	516
934.129	2030.4406	1393.95	517.2
934.2662	2032.0131	1392.15	516.3
934.4034	2033.5849	1395.55	511.45
934.5406	2035.1559	1398	521.3
934.6778	2036.7261	1389.35	512.05
934.8149	2038.2957	1388.45	508.5
934.952	2039.8645	1385.05	505.35
935.0891	2041.4325	1393.8	511.4
935.2262	2042.9998	1381.75	503.8
935.3632	2044.5664	1382.05	500.85
935.5002	2046.1323	1380.65	503
935.6372	2047.6974	1379.6	502.2
935.7742	2049.2617	1378.2	499.8
935.9111	2050.8254	1392.1	510.55
936.048	2052.3883	1376.4	497.5
936.1849	2053.9504	1379	498.25
936.3218	2055.5118	1378.05	496.5
936.4586	2057.0725	1367.85	483.8
936.5955	2058.6325	1375.2	498.55
936.7323	2060.1917	1372.45	493.85
936.869	2061.7502	1366.5	484.5
937.0058	2063.3079	1364.85	489.1
937.1425	2064.8649	1373.25	491.15
937.2792	2066.4212	1369.15	489.3
937.4159	2067.9767	1367.5	490.85
937.5525	2069.5315	1366.15	486.9
937.6891	2071.0856	1356.75	478.8
937.8257	2072.6389	1352.8	474.75
937.9623	2074.1915	1350.05	474.75
938.0989	2075.7433	1354.95	474.1
938.2354	2077.2945	1349.65	471.35
938.3719	2078.8448	1354.9	477.05
938.5084	2080.3945	1354.65	473.8
938.6448	2081.9434	1352.9	474.25
938.7812	2083.4916	1354.75	473.1
938.9176	2085.039	1349.8	466.4
939.054	2086.5857	1350.45	467.4
939.1903	2088.1317	1352.45	469.1
939.3267	2089.677	1348.4	466
939.463	2091.2215	1345.05	462
939.5992	2092.7652	1350.75	465.45
939.7355	2094.3083	1341.45	459.3
939.8717	2095.8506	1341.3	463.75
940.0079	2097.3921	1340.95	461.95
940.1441	2098.933	1337.25	458.4
940.2802	2100.4731	1334.9	454.9
940.4163	2102.0124	1354.1	455.15
940.5524	2103.5511	1331.9	452
940.6885	2105.089	1336.35	454.45
940.8245	2106.6261	1343.2	462.35
940.9606	2108.1626	1336.6	455.85
941.0965	2109.6983	1360.65	451.7
941.2325	2111.2332	1333.25	452.35
941.3684	2112.7675	1336.15	452.15
941.5044	2114.301	1329	445.3
941.6403	2115.8337	1330.5	448.3
941.7761	2117.3657	1330.55	449.95
941.912	2118.897	1328.85	446.3
942.0478	2120.4276	1334.6	447.95
942.1835	2121.9575	1324.9	443.4
942.3193	2123.4866	1325.1	442.5
942.455	2125.0149	1320.55	434.35
942.5907	2126.5426	1320.5	441
942.7264	2128.0695	1319.55	437.25
942.8621	2129.5956	1312.65	436.15
942.9977	2131.1211	1318.8	435.7
943.1333	2132.6458	1314.2	435.1
943.2689	2134.1698	1314.4	433.6
943.4044	2135.693	1321.6	435.9
943.54	2137.2155	1317.6	433.1
943.6755	2138.7373	1312.1	428.15
943.8109	2140.2584	1309.35	427.55
943.9464	2141.7787	1312.25	425.3
944.0818	2143.2983	1308.9	430.3
944.2172	2144.8171	1305.85	426.95
944.3526	2146.3353	1305.95	427.15
944.4879	2147.8527	1306.5	427.05
944.6232	2149.3693	1305.7	425.9
944.7585	2150.8853	1299	418.1
944.8938	2152.4005	1301.3	419.6
945.029	2153.9149	1305.25	423.9
945.1642	2155.4287	1301.95	417.9
945.2994	2156.9417	1293.55	410.5
945.4346	2158.454	1297.3	414.65
945.5697	2159.9655	1292.15	411.15
945.7048	2161.4764	1290.75	411.55
945.8399	2162.9865	1288.9	407.65
945.9749	2164.4958	1292.75	413.05
946.1099	2166.0045	1286.2	404.65
946.2449	2167.5124	1290.15	412
946.3799	2169.0195	1294.25	413.05
946.5148	2170.526	1287.65	407.45
946.6498	2172.0317	1284.85	402.4
946.7846	2173.5367	1279.8	399.15
946.9195	2175.0409	1287.65	405.85
947.0543	2176.5445	1286.95	406.1
947.1891	2178.0473	1287.15	405.7
947.3239	2179.5494	1285.85	400.4
947.4587	2181.0507	1279.85	400.25
947.5934	2182.5513	1277.55	397.45
947.7281	2184.0512	1277.65	397.7
947.8628	2185.5504	1278.25	398.1
947.9974	2187.0488	1280.65	401.45
948.132	2188.5465	1275.3	398.15
948.2666	2190.0435	1275.3	393.35
948.4012	2191.5397	1275.4	393.35
948.5357	2193.0353	1276.6	394.9
948.6702	2194.5301	1271.65	388.25
948.8047	2196.0241	1276.25	391.2
948.9392	2197.5175	1271.4	386.1
949.0736	2199.0101	1270.9	384.3
949.208	2200.502	1266.4	384.65
949.3424	2201.9931	1266.9	386.45
949.4767	2203.4835	1262.35	382.05
949.611	2204.9733	1277.75	379.8
949.7453	2206.4622	1258.5	380.35
949.8796	2207.9505	1259.9	377.6
950.0138	2209.438	1254.5	378.65
950.148	2210.9248	1255.7	374
950.2822	2212.4109	1257.7	375.35
950.4164	2213.8962	1256.35	373.35
950.5505	2215.3809	1256.75	371.95
950.6846	2216.8648	1260.75	376.35
950.8186	2218.3479	1265	377.55
950.9527	2219.8304	1259.3	369.4
951.0867	2221.3121	1258	373.45
951.2207	2222.7931	1246.4	362.1
951.3546	2224.2733	1247.5	364.95
951.4886	2225.7529	1249.05	367.85
951.6225	2227.2317	1244.85	361
951.7563	2228.7098	1243.05	365.75
951.8902	2230.1872	1244.2	362.35
952.024	2231.6638	1238.5	359.3
952.1578	2233.1397	1242.9	356
952.2916	2234.6149	1236.35	359.45
952.4253	2236.0894	1239.1	359.45
952.559	2237.5632	1242.4	351.15
952.6927	2239.0362	1234.15	353.45
952.8263	2240.5085	1235.65	353
952.9599	2241.9801	1241.9	360.2
953.0935	2243.4509	1234.15	353.45
953.2271	2244.921	1237.9	354.75
953.3606	2246.3904	1232.35	347.15
953.4941	2247.8591	1234.65	353.1
953.6276	2249.3271	1226.7	343.2
953.7611	2250.7943	1229	345.15
953.8945	2252.2608	1230.2	345.6
954.0279	2253.7266	1227.25	345.6
954.1612	2255.1917	1225.2	343.2
954.2946	2256.656	1221.95	339.45
954.4279	2258.1197	1213.8	333.75
954.5612	2259.5826	1224.3	341.45
954.6944	2261.0447	1226.15	341
954.8276	2262.5062	1222.15	340.45
954.9608	2263.9669	1219.85	337.65
955.094	2265.4269	1219.45	337.2
955.2271	2266.8862	1221	339.1
955.3602	2268.3448	1220.85	339.55
955.4933	2269.8026	1215.6	335.35
955.6264	2271.2598	1215.3	334.1
955.7594	2272.7162	1214.45	334.2
955.8924	2274.1719	1214.8	332.8
956.0253	2275.6268	1210.15	327.05
956.1583	2277.0811	1218.45	335.6
956.2912	2278.5346	1215	333.4
956.4241	2279.9874	1213.75	333.1
956.5569	2281.4395	1213.7	333.85
956.6897	2282.8908	1212.2	326.2
956.8225	2284.3414	1210.55	327.35
956.9553	2285.7914	1208.2	325.55
957.088	2287.2406	1212.65	329.55
957.2207	2288.689	1210.75	327.55
957.3534	2290.1368	1210.1	323.55
957.486	2291.5838	1211.55	325.5
957.6186	2293.0302	1207.7	320.95
957.7512	2294.4758	1207.15	323.2
957.8838	2295.9206	1206.1	322
958.0163	2297.3648	1204.85	320.85
958.1488	2298.8082	1204.75	323
958.2813	2300.251	1201.1	317.95
958.4137	2301.693	1205.65	319.75
958.5461	2303.1343	1200.9	315.25
958.6785	2304.5748	1197	314.55
958.8108	2306.0147	1193	311.25
958.9432	2307.4538	1199.5	316.9
959.0754	2308.8922	1196.75	316.95
959.2077	2310.3299	1193.45	314.05
959.3399	2311.7669	1192.3	312.15
959.4721	2313.2031	1195.2	313.65
959.6043	2314.6387	1193.5	310.05
959.7365	2316.0735	1188.3	306.45
959.8686	2317.5076	1193.1	310.55
960.0006	2318.941	1195.3	312.25
960.1327	2320.3737	1196.9	312.2
960.2647	2321.8056	1189.95	303.6
960.3967	2323.2369	1187.05	305.7
960.5287	2324.6674	1194.9	311.35
960.6606	2326.0972	1194.2	309.25
960.7925	2327.5263	1184.5	303.3
960.9244	2328.9547	1187.7	302.7
961.0562	2330.3823	1192.3	308.4
961.1881	2331.8092	1193.65	307.6
961.3198	2333.2355	1188.3	303.65
961.4516	2334.661	1184.45	300.05
961.5833	2336.0858	1184.65	300.55
961.715	2337.5098	1185.55	303.2
961.8467	2338.9332	1179.4	297.4
961.9783	2340.3558	1185.55	300
962.1099	2341.7778	1181	298.8
962.2415	2343.199	1176.05	292.25
962.373	2344.6195	1173.15	291.35
962.5045	2346.0393	1175.25	292.6
962.636	2347.4583	1179.4	296
962.7675	2348.8767	1177.55	294.2
962.8989	2350.2943	1176.65	293.05
963.0303	2351.7113	1176	291.1
963.1617	2353.1275	1178	291.75
963.293	2354.543	1200.3	291.85
963.4243	2355.9578	1176	289.85
963.5556	2357.3718	1170.4	287.45
963.6868	2358.7852	1167.75	283
963.818	2360.1978	1173.8	290.75
963.9492	2361.6098	1177.05	296.45
964.0803	2363.021	1170.75	285.2
964.2114	2364.4315	1167.1	282.05
964.3425	2365.8413	1172.95	290.85
964.4736	2367.2504	1170.35	290.8
964.6046	2368.6587	1164.35	285.2
964.7356	2370.0664	1163.4	279.6
964.8666	2371.4733	1164.4	283
964.9975	2372.8795	1162	279.75
965.1284	2374.285	1167.1	284.05
965.2593	2375.6899	1158.35	277
965.3901	2377.0939	1157.45	274.25
965.5209	2378.4973	1160.45	278.95
965.6517	2379.9	1156.4	273.2
965.7825	2381.3019	1159.3	277
965.9132	2382.7032	1152.95	272.55
966.0439	2384.1037	1155.9	274.2
966.1745	2385.5035	1156.45	275.75
966.3051	2386.9027	1155.1	273.5
966.4357	2388.3011	1160.25	277
966.5663	2389.6987	1152.5	270.55
966.6968	2391.0957	1153.9	272.3
966.8273	2392.492	1150.75	269.15
966.9578	2393.8876	1151.45	269.75
967.0882	2395.2824	1155.8	273.95
967.2186	2396.6765	1147.75	266.3
967.349	2398.07	1145.5	262.85
967.4793	2399.4627	1151.85	268.8
967.6097	2400.8547	1149.55	265.05
967.7399	2402.246	1151.1	262.15
967.8702	2403.6366	1143.4	259.45
968.0004	2405.0265	1146.05	265.55
968.1306	2406.4156	1144.8	259.4
968.2607	2407.8041	1141.1	255.15
968.3909	2409.1918	1141.85	258.4
968.521	2410.5789	1142	258.25
968.651	2411.9652	1142.75	256.4
968.781	2413.3508	1139	256.05
968.911	2414.7358	1139.85	254.7
969.041	2416.12	1136.2	254.35
969.1709	2417.5035	1140.05	258.4
969.3008	2418.8863	1142.3	256.3
969.4307	2420.2684	1144.1	263.25
969.5606	2421.6497	1135.35	253.4
969.6904	2423.0304	1134.7	253.3
969.8201	2424.4104	1137.55	254.85
969.9499	2425.7896	1140.6	251.3
970.0796	2427.1682	1135	252.4
970.2093	2428.546	1134.85	251.15
970.3389	2429.9232	1133.2	248.55
970.4685	2431.2996	1125.35	242.8
970.5981	2432.6753	1131.55	248.4
970.7277	2434.0503	1127.3	244.15
970.8572	2435.4246	1127.5	247
970.9867	2436.7982	1130.6	244.55
971.1161	2438.1711	1127	246.9
971.2456	2439.5433	1131.55	246.95
971.375	2440.9148	1131.55	243.6
971.5043	2442.2856	1128.05	245.25
971.6336	2443.6557	1124.4	242.85
971.7629	2445.025	1125.5	243.35
971.8922	2446.3937	1122.9	240.5
972.0214	2447.7617	1119.95	236.75
972.1506	2449.1289	1114.9	233.5
972.2798	2450.4955	1126.4	241.85
972.4089	2451.8613	1117.1	235.7
972.538	2453.2265	1116.6	234.5
972.6671	2454.5909	1125.7	241.45
972.7961	2455.9546	1118.3	236.75
972.9251	2457.3177	1119.15	235.6
973.0541	2458.68	1124.5	240.35
973.1831	2460.0416	1115.55	232.2
973.312	2461.4025	1115.75	232.75
973.4408	2462.7627	1126	234.55
973.5697	2464.1222	1113.4	233.3
973.6985	2465.4811	1117.55	235.45
973.8273	2466.8392	1114.2	233.15
973.956	2468.1966	1122.9	236.4
974.0847	2469.5533	1116.6	234.45
974.2134	2470.9093	1119.05	236
974.3421	2472.2645	1115.55	231.5
974.4707	2473.6191	1113.65	231.95
974.5993	2474.973	1109.45	225.55
974.7278	2476.3262	1112.25	228.1
974.8563	2477.6787	1115.4	235.85
974.9848	2479.0305	1111.35	229.05
975.1132	2480.3816	1111.8	227.85
975.2417	2481.7319	1109.2	226.35
975.37	2483.0816	1113.75	232.15
975.4984	2484.4306	1113.9	232.1
975.6267	2485.7789	1106	225.25
975.755	2487.1264	1106.25	222.15
975.8833	2488.4733	1105.3	223.8
976.0115	2489.8195	1124.65	226.3
976.1397	2491.165	1109.55	224.3
976.2678	2492.5097	1111.75	227.25
976.3959	2493.8538	1103.55	222.6
976.524	2495.1972	1099.4	215.85
976.6521	2496.5398	1106.65	223.85
976.7801	2497.8818	1101.95	216.6
976.9081	2499.2231	1098.65	216
977.036	2500.5637	1105.2	221.6
977.164	2501.9035	1099.95	217.85
977.2918	2503.2427	1099.55	215.65
977.4197	2504.5812	1099.2	216.8
977.5475	2505.919	1100.7	215.4
977.6753	2507.256	1100.75	215.9
977.8031	2508.5924	1095.95	213.1
977.9308	2509.9281	1104.2	217.9
978.0585	2511.2631	1092.2	210.45
978.1861	2512.5974	1092.35	211.55
978.3137	2513.9309	1093.95	210.5
978.4413	2515.2638	1122	208.45
978.5689	2516.596	1094.4	212
978.6964	2517.9275	1098.45	214.35
978.8239	2519.2583	1093.85	208.15
978.9513	2520.5884	1094.65	209.95
979.0788	2521.9178	1090.15	206.45
979.2062	2523.2465	1093.55	212.7
979.3335	2524.5745	1090.95	208.3
979.4608	2525.9018	1089.75	207.45
979.5881	2527.2284	1090.25	209.05
979.7154	2528.5543	1087.9	206.4
979.8426	2529.8796	1088.55	206.8
979.9698	2531.2041	1091	210.3
980.0969	2532.5279	1091.5	211.45
980.224	2533.851	1090.6	207.85
980.3511	2535.1735	1085.7	203.95
980.4781	2536.4952	1089.35	207.5
980.6052	2537.8163	1087.55	202.75
980.7321	2539.1366	1084.6	201.85
980.8591	2540.4562	1090.75	207.3
980.986	2541.7752	1088.8	206.7
981.1129	2543.0935	1086.95	202.7
981.2397	2544.411	1087.4	203.25
981.3665	2545.7279	1089.65	206.9
981.4933	2547.0441	1086.7	204.45
981.62	2548.3596	1093.15	206.55
981.7467	2549.6744	1086.95	206.5
981.8734	2550.9885	1091.65	201.25
982.0001	2552.3019	1086.4	205.2
982.1267	2553.6146	1085.75	202.25
982.2532	2554.9266	1085.75	203.3
982.3798	2556.2379	1085.4	198.35
982.5063	2557.5485	1082.1	199.95
982.6327	2558.8585	1090.35	200.45
982.7592	2560.1677	1089.55	202.95
982.8856	2561.4762	1085.75	203.95
983.0119	2562.7841	1083.5	198.05
983.1383	2564.0913	1083.15	201.3
983.2646	2565.3977	1083.7	200.75
983.3908	2566.7035	1083.85	203.55
983.517	2568.0086	1084.05	200.45
983.6432	2569.313	1084.75	200.05
983.7694	2570.6167	1087.8	200.95
983.8955	2571.9197	1078.25	197.4
984.0216	2573.222	1088.65	203.15
984.1476	2574.5236	1078.85	196.1
984.2737	2575.8246	1080.3	194.45
984.3996	2577.1248	1080.75	195.45
984.5256	2578.4244	1081.3	200.4
984.6515	2579.7232	1078.8	196.85
984.7774	2581.0214	1106.8	194.75
984.9032	2582.3189	1075.5	193.65
985.029	2583.6157	1084.1	198.7
985.1548	2584.9118	1078.5	196.75
985.2806	2586.2072	1080.4	198.55
985.4063	2587.5019	1077.9	196.55
985.5319	2588.7959	1079.65	195.55
985.6576	2590.0893	1086	202
985.7832	2591.3819	1078.35	195.25
985.9087	2592.6739	1077.85	197.6
986.0343	2593.9652	1079.75	196.45
986.1597	2595.2557	1078.35	195.95
986.2852	2596.5456	1080.6	197.55
986.4106	2597.8348	1078.1	197.3
986.536	2599.1234	1081.9	200.65
986.6614	2600.4112	1080.3	199.2
986.7867	2601.6983	1084.9	201.75
986.912	2602.9848	1075.15	193.85
987.0372	2604.2705	1084.8	198.05
987.1624	2605.5556	1077.9	196.95
987.2876	2606.84	1074.9	192.35
987.4128	2608.1237	1082.3	198.4
987.5379	2609.4067	1078.8	197.15
987.6629	2610.689	1084.55	194
987.788	2611.9707	1076.55	194.6
987.913	2613.2516	1076.05	190.2
988.0379	2614.5319	1073.3	193.5
988.1629	2615.8115	1071.7	190.55
988.2878	2617.0903	1075	192.05
988.4126	2618.3685	1066.65	186.95
988.5375	2619.6461	1074.9	193.55
988.6622	2620.9229	1063.9	183.2
988.787	2622.199	1073.75	192.15
988.9117	2623.4745	1068.9	186.4
989.0364	2624.7493	1071.5	190.8
989.161	2626.0234	1067.4	187.65
989.2857	2627.2968	1065.2	183.35
989.4102	2628.5695	1067.8	186.45
989.5348	2629.8415	1065.95	186.35
989.6593	2631.1128	1066.25	184.7
989.7837	2632.3835	1066.25	186.75
989.9082	2633.6535	1063.85	184.75
990.0326	2634.9228	1065.6	186.05
990.1569	2636.1914	1066.95	185.85
990.2812	2637.4593	1069.05	188.7
990.4055	2638.7265	1064.5	185
990.5298	2639.9931	1063.55	183.65
990.654	2641.259	1061.85	178.45
990.7782	2642.5242	1063.8	181.6
990.9023	2643.7887	1060	178.9
991.0264	2645.0525	1058.3	178
991.1505	2646.3156	1058.8	176.45
991.2745	2647.5781	1059.55	178.75
991.3985	2648.8398	1058.3	179.8
991.5225	2650.1009	1094.15	174.25
991.6464	2651.3613	1061.7	180.25
991.7703	2652.6211	1055.75	175.55
991.8942	2653.8801	1060.6	182.1
992.018	2655.1385	1058.5	175.55
992.1418	2656.3961	1056.7	175.5
992.2655	2657.6531	1057.45	178.2
992.3892	2658.9094	1059.05	178.35
992.5129	2660.1651	1060.6	180.8
992.6366	2661.42	1056.45	175.55
992.7602	2662.6743	1064.05	184.2
992.8837	2663.9279	1062.05	181.85
993.0073	2665.1808	1062.25	178.8
993.1307	2666.433	1067.35	183.85
993.2542	2667.6846	1062.9	184.65
993.3776	2668.9354	1071.65	186.95
993.501	2670.1856	1059.65	178.9
993.6244	2671.4351	1062.5	182.25
993.7477	2672.6839	1063.05	182.05
993.8709	2673.9321	1059.85	180.45
993.9942	2675.1795	1062.7	182.05
994.1174	2676.4263	1068.35	189.05
994.2405	2677.6724	1066.6	185.8
994.3637	2678.9179	1061.8	181.5
994.4868	2680.1626	1064.1	183.55
994.6098	2681.4067	1062.35	181.8
994.7328	2682.6501	1066.95	186.6
994.8558	2683.8928	1058.6	177.85
994.9788	2685.1348	1062.55	183.85
995.1017	2686.3761	1061.45	183.35
995.2245	2687.6168	1059.5	178.75
995.3474	2688.8568	1062.25	181.15
995.4702	2690.0961	1055.4	174.85
995.5929	2691.3348	1057.95	177.65
995.7156	2692.5727	1052.2	173.65
995.8383	2693.81	1056.2	176.65
995.961	2695.0466	1057.25	178.05
996.0836	2696.2826	1058.4	177.75
996.2062	2697.5178	1074.6	175.05
996.3287	2698.7524	1055.15	175.85
996.4512	2699.9863	1063.55	180.35
996.5737	2701.2195	1053.6	174.8
996.6961	2702.452	1061.15	178.55
996.8185	2703.6839	1063.95	183.45
996.9408	2704.9151	1065.05	184.95
997.0631	2706.1456	1064.85	183.55
997.1854	2707.3755	1062.5	181.2
997.3077	2708.6046	1072.15	188.05
997.4299	2709.8331	1069.15	187.55
997.552	2711.0609	1070.85	191.7
997.6742	2712.2881	1069.7	188.45
997.7963	2713.5145	1084.1	200.85
997.9183	2714.7403	1080.4	199.8
998.0403	2715.9654	1082.65	201.3
998.1623	2717.1899	1098.95	202.75
998.2842	2718.4136	1089.4	210.6
998.4062	2719.6367	1090.15	209.7
998.528	2720.8591	1105.85	219.7
998.6498	2722.0809	1106.3	226.35
998.7716	2723.3019	1106.5	222.55
998.8934	2724.5223	1111.75	231.6
999.0151	2725.7421	1112.8	231.6
999.1368	2726.9611	1109.95	225.7
999.2584	2728.1795	1108	225.5
999.38	2729.3972	1104.35	224.7
999.5016	2730.6142	1106.3	219.6
999.6231	2731.8306	1098.95	218.75
999.7446	2733.0462	1091.05	210.6
999.8661	2734.2612	1088.65	204.65
999.9875	2735.4756	1085.15	203.2
1000.1089	2736.6892	1077.4	196.45
1000.2302	2737.9022	1076.85	197.2
1000.3515	2739.1145	1071.4	192.5
1000.4728	2740.3262	1071.65	182.95
1000.594	2741.5372	1061.85	182.6
1000.7152	2742.7475	1057.8	176.35
1000.8363	2743.9571	1054.7	174.25
1000.9575	2745.1661	1055.5	171.5
1001.0785	2746.3744	1049.8	169.9
1001.1996	2747.582	1050.3	170.4
1001.3206	2748.7889	1043.15	161.25
1001.4415	2749.9952	1043.05	164.8
1001.5625	2751.2008	1044.15	163.65
1001.6833	2752.4057	1040.35	160
1001.8042	2753.61	1039.65	159.8
1001.925	2754.8136	1038	158.5
1002.0458	2756.0165	1036.3	155.55
1002.1665	2757.2188	1035.65	156.45
1002.2872	2758.4204	1032.6	153.55
1002.4078	2759.6213	1038.35	156.25
1002.5285	2760.8215	1041.25	157.2
1002.649	2762.0211	1040.6	160
1002.7696	2763.22	1037.85	155.75
1002.8901	2764.4182	1031.05	150.7
1003.0106	2765.6158	1036.6	156.15
1003.131	2766.8127	1033.8	153.85
1003.2514	2768.009	1033.05	155.95
1003.3717	2769.2045	1031.5	151.55
1003.492	2770.3994	1031.8	152.4
1003.6123	2771.5936	1036.75	155.35
1003.7325	2772.7872	1033.25	157.4
1003.8527	2773.9801	1028.2	147.25
1003.9729	2775.1723	1046	147.4
1004.093	2776.3639	1027.55	147.85
1004.2131	2777.5548	1029.55	149.5
1004.3331	2778.745	1025.4	143.8
1004.4531	2779.9346	1021.7	143.55
1004.5731	2781.1235	1031.05	150.2
1004.693	2782.3117	1025.05	148.3
1004.8129	2783.4992	1025.5	148.7
1004.9328	2784.6861	1033.25	153.5
1005.0526	2785.8723	1032.7	153.75
1005.1723	2787.0579	1031.95	151.85
1005.2921	2788.2428	1035.4	153.35
1005.4118	2789.427	1034.95	159
1005.5314	2790.6106	1033.55	152.5
1005.651	2791.7935	1037.8	156.85
1005.7706	2792.9757	1038.5	160.2
1005.8902	2794.1573	1041.5	160.85
1006.0097	2795.3382	1044	167.1
1006.1291	2796.5184	1048.1	171.35
1006.2485	2797.698	1049.15	168.2
1006.3679	2798.8769	1051.65	171.25
1006.4873	2800.0551	1051.3	171.35
1006.6066	2801.2327	1059.45	177
1006.7258	2802.4096	1064.1	186.2
1006.8451	2803.5859	1065.2	186.85
1006.9642	2804.7615	1077.3	199.7
1007.0834	2805.9364	1075.65	197.4
1007.2025	2807.1106	1085.95	207.9
1007.3216	2808.2842	1093.8	214.75
1007.4406	2809.4572	1104.35	227.35
1007.5596	2810.6294	1113.05	232.15
1007.6785	2811.801	1118.4	240.85
1007.7975	2812.972	1129	251.35
1007.9163	2814.1423	1147.55	266.65
1008.0352	2815.3119	1165.25	285.7
1008.154	2816.4808	1175.7	298.85
1008.2727	2817.6491	1194.7	314.9
1008.3914	2818.8167	1206.05	328.85
1008.5101	2819.9837	1235.05	350.65
1008.6288	2821.15	1247.3	369.25
1008.7474	2822.3157	1266	388.45
1008.8659	2823.4807	1289.2	409.15
1008.9844	2824.645	1310.7	431.2
1009.1029	2825.8086	1330.8	452.75
1009.2214	2826.9716	1349.5	472.6
1009.3398	2828.134	1367.4	489.7
1009.4581	2829.2957	1389.5	511.55
1009.5764	2830.4567	1393.15	515.35
1009.6947	2831.617	1413.85	534.65
1009.813	2832.7767	1411.85	533.7
1009.9312	2833.9358	1410.4	530.95
1010.0493	2835.0941	1410	528.15
1010.1675	2836.2519	1407.75	528.8
1010.2855	2837.4089	1396.85	518.95
1010.4036	2838.5653	1390.85	511.4
1010.5216	2839.7211	1383.05	506.75
1010.6396	2840.8761	1385.15	503.35
1010.7575	2842.0306	1381.7	506.85
1010.8754	2843.1843	1385.75	508.75
1010.9932	2844.3374	1397.45	517.4
1011.111	2845.4899	1411.2	531.6
1011.2288	2846.6417	1428.1	550.45
1011.3465	2847.7928	1445.5	567.45
1011.4642	2848.9433	1471.4	593.05
1011.5818	2850.0931	1478.65	600
1011.6995	2851.2422	1498.05	616.75
1011.817	2852.3907	1518.2	639.1
1011.9345	2853.5385	1543.3	664.9
1012.052	2854.6857	1571.8	665.2
1012.1695	2855.8323	1565.25	688.1
1012.2869	2856.9781	1581.95	701.95
1012.4042	2858.1233	1604	726.25
1012.5216	2859.2679	1622.25	743.7
1012.6389	2860.4118	1637.15	759.7
1012.7561	2861.555	1658.1	774
1012.8733	2862.6976	1665.4	787.2
1012.9905	2863.8395	1682	805
1013.1076	2864.9808	1694.5	816.4
1013.2247	2866.1214	1698.15	818.55
1013.3417	2867.2614	1715.55	835.85
1013.4587	2868.4007	1716.2	835.4
1013.5757	2869.5393	1716.3	835.4
1013.6926	2870.6773	1723.65	843.25
1013.8095	2871.8146	1728.35	848.05
1013.9263	2872.9513	1719.6	837.8
1014.0431	2874.0874	1722.05	845.8
1014.1599	2875.2227	1722.05	842.85
1014.2766	2876.3574	1714.45	835.7
1014.3933	2877.4915	1698.5	820.6
1014.51	2878.6249	1696.75	820.1
1014.6266	2879.7577	1680.65	800.4
1014.7431	2880.8898	1687.05	799.8
1014.8596	2882.0212	1678.95	802.95
1014.9761	2883.152	1670.45	790.8
1015.0925	2884.2821	1660.8	781.7
1015.2089	2885.4116	1668.65	789.55
1015.3253	2886.5405	1668.35	791.6
1015.4416	2887.6686	1682.3	801.8
1015.5579	2888.7962	1678.4	805.2
1015.6741	2889.923	1678.2	801.6
1015.7903	2891.0493	1676.65	797.6
1015.9065	2892.1748	1681.95	805.75
1016.0226	2893.2997	1688.2	809.5
1016.1387	2894.424	1689.3	812.7
1016.2547	2895.5476	1698.35	820.65
1016.3707	2896.6706	1706.25	830.1
1016.4866	2897.7929	1714.35	833.9
1016.6025	2898.9145	1718.5	841.6
1016.7184	2900.0355	1726	850.4
1016.8342	2901.1559	1730.9	852.5
1016.95	2902.2756	1741.6	863.85
1017.0658	2903.3946	1753.5	877
1017.1815	2904.513	1766.95	885
1017.2971	2905.6308	1766.45	889.95
1017.4127	2906.7479	1772.4	891.3
1017.5283	2907.8643	1785.9	906.2
1017.6439	2908.9801	1787.4	911.65
1017.7594	2910.0953	1799.5	921.5
1017.8748	2911.2098	1802.75	921.3
1017.9902	2912.3236	1799.15	914.3
1018.1056	2913.4368	1793.25	914.5
1018.2209	2914.5494	1776.55	899.55
1018.3362	2915.6613	1774.8	891.55
1018.4515	2916.7725	1765.95	886.45
1018.5667	2917.8831	1751.55	871.55
1018.6819	2918.9931	1740.85	858.65
1018.797	2920.1024	1727.2	850.5
1018.9121	2921.211	1725.2	847.45
1019.0271	2922.319	1712.6	834.7
1019.1421	2923.4264	1710.65	834.85
1019.2571	2924.5331	1704.85	827.4
1019.372	2925.6391	1711.3	834.05
1019.4869	2926.7445	1712.7	836.2
1019.6017	2927.8493	1706.05	827.25
1019.7165	2928.9534	1716.25	839.25
1019.8313	2930.0569	1727.7	845.65
1019.946	2931.1597	1721.6	843.15
1020.0606	2932.2619	1722.95	845.5
1020.1753	2933.3634	1720.95	844.65
1020.2899	2934.4643	1738.1	853.4
1020.4044	2935.5645	1725.45	842.65
1020.5189	2936.6641	1725.15	844.5
1020.6334	2937.763	1708.85	832.35
1020.7478	2938.8613	1715.55	836.5
1020.8622	2939.959	1692.95	809.65
1020.9765	2941.056	1666.45	789.5
1021.0908	2942.1523	1645.7	766.9
1021.2051	2943.248	1613.8	733.4
1021.3193	2944.3431	1585.85	711.7
1021.4334	2945.4375	1553.85	677
1021.5476	2946.5313	1527.35	652.6
1021.6617	2947.6244	1488.2	610.15
1021.7757	2948.7169	1460.75	584.6
1021.8897	2949.8087	1429.5	551.35
1022.0037	2950.8999	1399.75	520.65
1022.1176	2951.9904	1369.95	491.25
1022.2315	2953.0803	1356.85	477.25
1022.3453	2954.1696	1335.15	458.85
1022.4591	2955.2582	1318.4	442.7
1022.5728	2956.3462	1304.4	429.1
1022.6865	2957.4335	1284.2	406
1022.8002	2958.5202	1276.85	395.8
1022.9138	2959.6062	1266.7	388.05
1023.0274	2960.6916	1255.75	379.8
1023.141	2961.7764	1257.2	380.05
1023.2545	2962.8605	1246.55	369.15
1023.3679	2963.9439	1244.75	366.3
1023.4813	2965.0267	1239.55	362
1023.5947	2966.1089	1261.95	363.35
1023.708	2967.1905	1236.85	361.85
1023.8213	2968.2714	1240.8	364
1023.9346	2969.3516	1237.2	360.65
1024.0478	2970.4312	1241.95	355.9
1024.1609	2971.5102	1236.95	360.85
1024.274	2972.5885	1239.85	362.75
1024.3871	2973.6662	1248.25	365.95
1024.5002	2974.7432	1242.55	366
1024.6132	2975.8196	1242.9	366.1
1024.7261	2976.8954	1237.4	362.75
1024.839	2977.9705	1239.45	362.95
1024.9519	2979.045	1236	359.45
1025.0647	2980.1188	1228.95	351.85
1025.1775	2981.192	1218.5	342.95
1025.2902	2982.2645	1217.65	340.05
1025.4029	2983.3364	1212.5	333.9
1025.5156	2984.4077	1208.95	331.75
1025.6282	2985.4783	1200.7	317.35
1025.7407	2986.5483	1186.75	311.5
1025.8532	2987.6177	1173.75	296.95
1025.9657	2988.6864	1167.95	290.1
1026.0782	2989.7545	1155.15	275.85
1026.1906	2990.8219	1142.7	266.85
1026.3029	2991.8887	1132.2	251.5
1026.4152	2992.9548	1125.45	249.45
1026.5275	2994.0204	1108.85	233.45
1026.6397	2995.0852	1100.9	224.2
1026.7519	2996.1495	1090.9	213.4
1026.864	2997.2131	1078.4	201
1026.9761	2998.276	1073.2	197.4
1027.0882	2999.3383	1066.6	191.3
1027.2002	3000.4	1058.5	180.15
1027.3122	3001.4611	1051.9	174.15
1027.4241	3002.5215	1048.55	171.45
1027.536	3003.5812	1038.55	158.95
1027.6478	3004.6404	1035.45	157.85
1027.7596	3005.6989	1036	157.55
1027.8714	3006.7567	1025.5	147.5
1027.9831	3007.8139	1049	144.35
1028.0947	3008.8705	1017.35	140.45
1028.2064	3009.9264	1019	142.05
1028.3179	3010.9818	1015.75	140.7
1028.4295	3012.0364	1012.5	134.5
1028.541	3013.0905	1006.5	129.7
1028.6524	3014.1439	1007.1	131.2
1028.7638	3015.1966	1000.35	125.2
1028.8752	3016.2487	1002.8	125.9
1028.9865	3017.3002	1004	122.3
1029.0978	3018.3511	998.4	122.6
1029.209	3019.4013	995.9	117.55
1029.3202	3020.4509	999.7	123.4
1029.4314	3021.4998	998.3	120.45
1029.5425	3022.5481	998.4	120.35
1029.6535	3023.5958	996.9	119.6
1029.7645	3024.6428	998.9	121.35
1029.8755	3025.6892	994.35	118.1
1029.9864	3026.735	996.05	121.25
1030.0973	3027.7802	997.6	121.8
1030.2082	3028.8247	994.2	118.6
1030.319	3029.8685	992.4	116.05
1030.4297	3030.9118	996.05	117.2
1030.5404	3031.9544	994.95	117.4
1030.6511	3032.9963	998.65	121.15
1030.7617	3034.0376	991.9	118.5
1030.8723	3035.0783	998.55	118.55
1030.9829	3036.1184	996.6	120.8
1031.0934	3037.1578	995.3	118.35
1031.2038	3038.1966	998.95	121.65
1031.3142	3039.2348	995.8	121.55
1031.4246	3040.2723	1005.4	120.5
1031.5349	3041.3092	999.05	122.7
1031.6452	3042.3455	1000.35	123.35
1031.7554	3043.3811	997.35	119.85
1031.8656	3044.4161	997.9	123.1
1031.9758	3045.4505	998.9	123
1032.0859	3046.4842	995.15	117.6
1032.1959	3047.5173	997.7	124.4
1032.3059	3048.5498	997.9	121.45
1032.4159	3049.5816	997.1	122.2
1032.5258	3050.6128	993.5	117.05
1032.6357	3051.6434	998.55	119.95
1032.7455	3052.6734	996.2	117.9
1032.8553	3053.7027	995.3	117.55
1032.9651	3054.7314	993.7	117.15
1033.0748	3055.7594	990.85	113.7
1033.1845	3056.7868	991.7	112.7
1033.2941	3057.8136	992.5	116.35
1033.4037	3058.8398	989.25	114.05
1033.5132	3059.8653	989.85	114.2
1033.6227	3060.8902	989.05	111.8
1033.7321	3061.9145	988.3	111
1033.8415	3062.9381	990	114.35
1033.9509	3063.9612	1002.8	110.55
1034.0602	3064.9835	988.45	113
1034.1694	3066.0053	982.4	101.95
1034.2787	3067.0264	984.2	106.3
1034.3878	3068.0469	985.7	107.95
1034.497	3069.0668	982.75	104.3
1034.6061	3070.086	981.55	103.6
1034.7151	3071.1046	981	104.55
1034.8241	3072.1226	980.5	102.55
1034.9331	3073.1399	976.75	103.65
1035.042	3074.1567	975.55	98.4
1035.1508	3075.1727	975.3	98.75
1035.2597	3076.1882	967.45	91.45
1035.3684	3077.203	967.15	90.8
1035.4772	3078.2173	965.95	88.45
1035.5859	3079.2308	966.45	85.4
1035.6945	3080.2438	965.7	85.15
1035.8031	3081.2561	964	86.9
1035.9117	3082.2678	961.55	85.7
1036.0202	3083.2789	955.05	78.55
1036.1286	3084.2893	954.7	78.05
1036.2371	3085.2991	953	77.35
1036.3454	3086.3083	957.45	76.7
1036.4538	3087.3169	952.7	74.8
1036.562	3088.3248	948.4	69.9
1036.6703	3089.3321	948.2	70.35
1036.7785	3090.3388	945.15	69.8
1036.8866	3091.3449	941.8	66.55
1036.9948	3092.3503	946.2	68
1037.1028	3093.3551	940.9	66.8
1037.2108	3094.3593	941.95	67.35
1037.3188	3095.3629	940.45	65
1037.4267	3096.3658	940.55	63.2
1037.5346	3097.3681	941.3	65.55
1037.6425	3098.3698	940.8	61.75
1037.7503	3099.3708	941.9	59.15
1037.858	3100.3713	935.85	60.1
1037.9657	3101.3711	935.7	60.25
1038.0734	3102.3702	1048.6	55.1
1038.181	3103.3688	932.35	56.45
1038.2886	3104.3667	931.45	56.55
1038.3961	3105.364	930.1	53.2
1038.5036	3106.3607	933.35	54.95
1038.611	3107.3568	931.75	54.55
1038.7184	3108.3522	929.25	52.1
1038.8257	3109.347	929.95	55.4
1038.933	3110.3412	930.2	48.2
1039.0403	3111.3348	926.8	50.65
1039.1475	3112.3277	926.65	50.35
1039.2547	3113.32	926.85	52.3
1039.3618	3114.3117	928.7	51.05
1039.4689	3115.3028	925.65	50.55
1039.5759	3116.2932	926.7	47.35
1039.6829	3117.2831	929.4	46.45
1039.7898	3118.2723	921.45	46.8
1039.8967	3119.2608	921.9	46.4
1040.0035	3120.2488	923.9	46.9
1040.1103	3121.2361	921.6	44.7
1040.2171	3122.2229	921.7	45.4
1040.3238	3123.209	920.8	43.8
1040.4305	3124.1944	919.45	44.3
1040.5371	3125.1793	921.25	43
1040.6437	3126.1635	920.55	46.15
1040.7502	3127.1471	916.15	40.7
1040.8567	3128.1301	917.55	41.1
1040.9631	3129.1125	916.95	42.75
1041.0695	3130.0942	919	43.3
1041.1759	3131.0753	926.4	42.85
1041.2822	3132.0558	920.25	43.1
1041.3884	3133.0357	917.2	38.9
1041.4946	3134.015	915.7	39.85
1041.6008	3134.9936	916.85	39.5
1041.7069	3135.9716	933.2	35.25
1041.813	3136.949	916.7	41.05
1041.919	3137.9258	932.55	36.15
1042.025	3138.902	923.35	44.05
1042.1309	3139.8775	916.25	39.25
1042.2368	3140.8524	913.4	37.25
1042.3427	3141.8267	915.2	36.6
1042.4485	3142.8004	916.15	39.05
1042.5542	3143.7735	920.75	38.4
1042.6599	3144.7459	913.05	36.75
1042.7656	3145.7178	912.3	37.1
1042.8712	3146.689	911.9	37.55
1042.9768	3147.6596	913	34.2
1043.0823	3148.6295	913.6	37.9
1043.1878	3149.5989	912.3	37.8
1043.2932	3150.5676	909.65	35.6
1043.3986	3151.5357	909	34.2
1043.5039	3152.5032	910.75	34.7
1043.6092	3153.4701	911.5	35.35
1043.7145	3154.4364	915.3	37.65
1043.8197	3155.402	908.15	33.35
1043.9248	3156.367	909.05	32.45
1044.03	3157.3315	947.25	35.9
1044.135	3158.2952	907.15	31.55
1044.24	3159.2584	910	36.1
1044.345	3160.221	910.6	32.2
1044.4499	3161.1829	909.2	32.65
1044.5548	3162.1442	906.65	28.3
1044.6596	3163.105	908.1	32.3
1044.7644	3164.065	906.9	29.8
1044.8692	3165.0245	910.9	31.95
1044.9739	3165.9834	907.4	34.15
1045.0785	3166.9416	906.25	29.3
1045.1831	3167.8993	904.95	28.85
1045.2877	3168.8563	906.9	31.3
1045.3922	3169.8127	907.15	32.2
1045.4966	3170.7684	908.3	30.95
1045.6011	3171.7236	908.3	28.7
1045.7054	3172.6782	905.4	28.25
1045.8098	3173.6321	905.4	26.6
1045.914	3174.5854	912.05	30.4
1046.0183	3175.5381	905	30.5
1046.1224	3176.4902	904.4	28.8
1046.2266	3177.4417	906.35	31.3
1046.3307	3178.3926	903.7	29.1
1046.4347	3179.3428	904.3	29.35
1046.5387	3180.2924	902.8	27.8
1046.6427	3181.2415	904.95	28.35
1046.7466	3182.1899	904.45	27.9
1046.8504	3183.1377	903.05	29.2
1046.9542	3184.0848	908.1	26.75
1047.058	3185.0314	903.05	28.35
1047.1617	3185.9773	902.8	25.15
1047.2654	3186.9227	902.35	27.25
1047.369	3187.8674	904.35	28.75
1047.4726	3188.8115	908.05	28.05
1047.5761	3189.755	902.15	28
1047.6796	3190.6979	901.95	25.15
1047.783	3191.6402	902.6	27.4
1047.8864	3192.5818	903.1	28.7
1047.9898	3193.5229	914.45	25.3
1048.0931	3194.4633	902.15	28.5
1048.1963	3195.4031	902.2	23.2
1048.2995	3196.3423	900.8	23.3
1048.4027	3197.2809	902.35	27.15
1048.5058	3198.2189	900.4	23.35
1048.6089	3199.1563	915.85	24.15
1048.7119	3200.0931	900.9	26.45
1048.8148	3201.0292	899.4	23.85
1048.9178	3201.9648	898.8	22.2
1049.0206	3202.8997	902.65	22.85
1049.1235	3203.834	901.95	27.45
1049.2262	3204.7677	898.95	23.65
1049.329	3205.7008	904.05	26.35
1049.4317	3206.6333	898.95	26.45
1049.5343	3207.5652	901.2	23.15
1049.6369	3208.4964	898.55	23.65
1049.7394	3209.4271	898.6	23
1049.8419	3210.3571	899.25	25.65
1049.9444	3211.2865	901.85	25.35
1050.0468	3212.2154	900	21.55
1050.1491	3213.1436	902.85	22.8
1050.2514	3214.0712	903.9	22.85
1050.3537	3214.9982	898.05	20.55
1050.4559	3215.9246	897.95	23.15
1050.5581	3216.8503	898.35	23.35
1050.6602	3217.7755	896.85	21.8
1050.7623	3218.7001	896.3	21.15
1050.8643	3219.624	897.85	23.45
1050.9663	3220.5473	899.1	23.15
1051.0682	3221.4701	900.05	22.45
1051.1701	3222.3922	899	21
1051.2719	3223.3137	896.45	21.55
1051.3737	3224.2346	899.6	22.65
1051.4754	3225.1549	896.35	21.05
1051.5771	3226.0746	896.35	22.4
1051.6788	3226.9937	896.3	19.1
1051.7804	3227.9121	896.1	20.25
1051.8819	3228.83	895.1	19.9
1051.9834	3229.7473	896.5	21.95
1052.0849	3230.6639	895.75	21.35
1052.1863	3231.5799	895.6	21.3
1052.2876	3232.4954	896.95	21.3
1052.3889	3233.4102	896.3	21.95
1052.4902	3234.3244	897.9	20.55
1052.5914	3235.238	894.8	19.7
1052.6926	3236.151	919.1	21.3
1052.7937	3237.0634	893.9	18.9
1052.8948	3237.9752	894.85	17.95
1052.9958	3238.8864	896.6	19.55
1053.0968	3239.797	894.3	17.2
1053.1977	3240.7069	897.5	20.6
1053.2986	3241.6163	896.75	19.45
1053.3994	3242.5251	893.9	19.25
1053.5002	3243.4332	893.85	18.65
1053.6009	3244.3408	895.05	19.75
1053.7016	3245.2477	894.6	19.95
1053.8022	3246.154	895.25	17.75
1053.9028	3247.0598	894.35	19.75
1054.0034	3247.9649	893.45	16.4
1054.1039	3248.8694	893.8	18.7
1054.2043	3249.7733	893.65	18.55
1054.3047	3250.6766	893.05	16.4
1054.4051	3251.5793	894.95	20.05
1054.5054	3252.4814	892	16.4
1054.6056	3253.3829	894.25	18.2
1054.7058	3254.2838	893.05	19.3
1054.806	3255.1841	892.65	18.15
1054.9061	3256.0838	892.05	15.75
1055.0061	3256.9829	891.4	15.95
1055.1062	3257.8814	895.95	20.65
1055.2061	3258.7792	893.7	16.55
1055.306	3259.6765	894.7	18.15
1055.4059	3260.5731	888.6	10.6
1055.5057	3261.4692	890.6	14.4
1055.6055	3262.3647	890.1	13.7
1055.7052	3263.2595	891.8	17.95
1055.8049	3264.1538	889.2	14.15
1055.9045	3265.0474	892.55	16.1
1056.0041	3265.9404	890.25	14.55
1056.1036	3266.8329	889.05	15.3
1056.2031	3267.7247	901.65	16
1056.3025	3268.616	884.85	10.45
1056.4019	3269.5066	890.2	14.85
1056.5013	3270.3966	888.3	9.25
1056.6005	3271.286	885.3	12.65
