Software Version:	3.9.2.0
Unit SN:	10000200
Spectrometer SN:	6960
Date:	3/8/2024 1:20:12 PM
Data Line Index:	25
Spectral Points:	2048
Integration time (ms):	125
Averages:	20
Delay (ms):	30000
Sequence Number:	1
Processing:	dark subtract
Laser Power (mW):	300
Laser Current (mA):	823
Laser Diode Temp (C):	25.1
Laser Case Temp (C):	26.1
System Temp (C):	26.1
Spectrometer Temp (C):	24
CCD Temp (C):	0.012
Secondary Temp (C):	20.01
Heatsink Temp (C):	21.163
CCDPCB Temp (C):	36.04
SecondaryPCB Temp (C):	31.116

Wavelength	RamanShift	Raw Counts	Dark Subtracted
787.061	30.1047	451.05	43.95
787.2016	32.3739	454	48.6
787.3422	34.6426	456.85	49.15
787.4828	36.9109	461.95	53.85
787.6235	39.1787	469.1	53.7
787.7642	41.4461	482.05	64.2
787.9049	43.7131	491.1	70.2
788.0456	45.9796	497.2	73.45
788.1863	48.2456	506.5	80.65
788.3271	50.5112	516.05	84.3
788.4679	52.7764	523.85	88.8
788.6087	55.0411	530.6	91.75
788.7496	57.3054	546.65	101.5
788.8904	59.5692	554	108.1
789.0313	61.8326	560.8	110.6
789.1722	64.0955	576.5	124.35
789.3132	66.3579	591.8	133.9
789.4541	68.6199	609.85	146.8
789.5951	70.8815	647.05	178.95
789.7361	73.1426	721.05	250.8
789.8771	75.4032	919.25	444.85
790.0181	77.6634	1404.15	925.5
790.1592	79.9231	2539.5	2051.1
790.3003	82.1824	4975.55	4468.35
790.4414	84.4412	9359	8820.05
790.5825	86.6995	15369.7	14791.5
790.7237	88.9574	21239.95	20622.9
790.8648	91.2148	25274.3	24637.45
791.006	93.4717	27163.55	26509.9
791.1472	95.7282	27467.3	26806.45
791.2885	97.9842	27274.25	26610.25
791.4297	100.2398	26645.9	25977.45
791.571	102.4949	25943.55	25273.7
791.7123	104.7495	25121.1	24443.6
791.8536	107.0036	24264.85	23589.4
791.9949	109.2573	23528.65	22852.85
792.1363	111.5105	22774.1	22095.5
792.2777	113.7632	22037.25	21357
792.4191	116.0154	21465.25	20774.8
792.5605	118.2672	21042.35	20358.15
792.7019	120.5185	20583.25	19900.05
792.8434	122.7693	20246.85	19558.05
792.9849	125.0197	19920.2	19225.3
793.1264	127.2696	19619.15	18921.65
793.2679	129.519	19467.5	18764.65
793.4094	131.7679	19239.3	18537.4
793.551	134.0163	19036.2	18332.3
793.6926	136.2642	18769.5	18063.35
793.8342	138.5117	18518.6	17809.95
793.9758	140.7587	18234.3	17518
794.1175	143.0052	17941.65	17225.85
794.2591	145.2512	17718.55	17001
794.4008	147.4967	17443.1	16729.1
794.5425	149.7417	17231.75	16514.6
794.6842	151.9863	17106.75	16382.4
794.826	154.2304	17023.2	16291.7
794.9677	156.4739	16899.25	16164
795.1095	158.717	16814.2	16082.6
795.2513	160.9596	16637.75	15898.55
795.3931	163.2017	16409.35	15665.9
795.535	165.4433	16105.9	15360.8
795.6768	167.6844	15774.05	15026.65
795.8187	169.925	15438	14686.3
795.9606	172.1651	15071.65	14322.55
796.1025	174.4047	14839.9	14092.55
796.2445	176.6439	14561.25	13807.05
796.3864	178.8825	14335.05	13579.2
796.5284	181.1206	14180	13413.95
796.6704	183.3582	14024.5	13254.8
796.8124	185.5954	13928.55	13161.5
796.9544	187.832	13834	13061.6
797.0965	190.0681	13838.8	13060.15
797.2386	192.3037	13799.55	13025.35
797.3806	194.5388	13802.85	13023.95
797.5228	196.7734	13838.15	13054.25
797.6649	199.0075	13899.95	13114
797.807	201.2411	14029.45	13240.9
797.9492	203.4742	14079.2	13290.9
798.0914	205.7068	14243.3	13448.7
798.2336	207.9389	14359.45	13567.7
798.3758	210.1704	14455.8	13668.2
798.518	212.4015	14586.9	13811.65
798.6603	214.632	14757.6	13990.85
798.8025	216.862	14898.8	14132.95
798.9448	219.0915	15058.6	14283.35
799.0871	221.3205	15233.65	14461.8
799.2294	223.549	15420.85	14652.5
799.3718	225.777	15660.75	14888.8
799.5141	228.0044	15929	15151.35
799.6565	230.2314	16269.45	15486.9
799.7989	232.4578	16598.55	15813.55
799.9413	234.6837	16865.85	16074.7
800.0837	236.909	17061.3	16263.95
800.2262	239.1339	17043.7	16224.15
800.3687	241.3582	16873.6	16070.05
800.5111	243.582	16646.95	15816.35
800.6536	245.8053	16370.45	15549.25
800.7961	248.0281	16150.35	15337.1
800.9387	250.2503	15944.65	15124.85
801.0812	252.472	15877.9	15055.6
801.2238	254.6932	15891.05	15074.95
801.3664	256.9139	15889.3	15067.8
801.509	259.134	15954.45	15128.05
801.6516	261.3536	16032.4	15209.65
801.7942	263.5727	16167.35	15338.7
801.9369	265.7912	16245.45	15422.05
802.0795	268.0092	16366.2	15544.35
802.2222	270.2267	16377.05	15550.05
802.3649	272.4436	16406.25	15579.15
802.5076	274.6601	16389.15	15551.85
802.6504	276.8759	16285.4	15457.55
802.7931	279.0913	16214	15385.05
802.9359	281.3061	16108.9	15276.1
803.0787	283.5204	16125.05	15285.35
803.2215	285.7341	16197.4	15354.7
803.3643	287.9473	16251.2	15400.35
803.5071	290.16	16431.6	15589.6
803.6499	292.3721	16683.1	15844.65
803.7928	294.5837	17021.3	16187.45
803.9357	296.7947	17342.1	16503.05
804.0786	299.0052	17545.9	16705.95
804.2215	301.2152	17447.3	16605.4
804.3644	303.4246	17168.1	16334.6
804.5074	305.6334	16634.05	15801.2
804.6503	307.8418	16186.6	15344.4
804.7933	310.0495	15767.6	14923.75
804.9363	312.2568	15425.95	14576.55
805.0793	314.4635	15195.35	14348.3
805.2223	316.6696	15006.15	14157.2
805.3653	318.8752	14906.6	14051.55
805.5084	321.0802	14911.45	14060.75
805.6514	323.2847	15013.7	14159.35
805.7945	325.4887	15025.2	14171.85
805.9376	327.692	14977	14122.15
806.0807	329.8949	14889.6	14029.9
806.2238	332.0972	14670.6	13812.3
806.367	334.2989	14412.6	13552.9
806.5101	336.5001	14135.4	13274.7
806.6533	338.7007	13951	13089.5
806.7965	340.9008	13840.5	12975.7
806.9397	343.1003	13674.7	12810
807.0829	345.2992	13608.15	12743.3
807.2261	347.4976	13572.6	12710.05
807.3693	349.6955	13541.2	12672.95
807.5126	351.8927	13598.35	12728.55
807.6559	354.0895	13571.95	12688.75
807.7991	356.2856	13573.95	12699.2
807.9424	358.4812	13537.05	12664.75
808.0857	360.6763	13581.25	12707.55
808.2291	362.8707	13556.6	12684.45
808.3724	365.0646	13600.3	12716.85
808.5158	367.258	13627.95	12746
808.6591	369.4508	13681	12798.2
808.8025	371.643	13786.5	12907.8
808.9459	373.8346	13799.7	12914.45
809.0893	376.0257	13799.55	12916.25
809.2327	378.2162	13746.75	12867
809.3762	380.4062	13699.95	12815.25
809.5196	382.5956	13559.65	12682.25
809.6631	384.7844	13458.6	12579
809.8066	386.9726	13340.5	12464.6
809.9501	389.1603	13274.6	12400.1
810.0936	391.3474	13226.7	12319.15
810.2371	393.5339	13208.1	12326.45
810.3806	395.7199	13175.55	12297.2
810.5241	397.9052	13191.2	12315.95
810.6677	400.09	13216.6	12337.55
810.8113	402.2743	13312.05	12437.65
810.9548	404.4579	13411.75	12535.6
811.0984	406.641	13590.65	12709.35
811.2421	408.8235	13791.15	12910.7
811.3857	411.0054	14076.55	13190.3
811.5293	413.1868	14413.3	13522.4
811.673	415.3675	14636.65	13746.35
811.8166	417.5477	14773.8	13883.5
811.9603	419.7273	14801.3	13909.3
812.104	421.9064	14695.95	13800.65
812.2477	424.0848	14630.85	13742.6
812.3914	426.2627	14413.5	13522.4
812.5351	428.4399	14160.15	13268.45
812.6788	430.6166	13826.4	12930.7
812.8226	432.7928	13475.5	12577.15
812.9663	434.9683	13162.45	12271
813.1101	437.1432	12933.7	12045.25
813.2539	439.3176	12778.7	11896.2
813.3977	441.4914	12656.15	11772.6
813.5415	443.6645	12621.15	11734.45
813.6853	445.8371	12555.8	11665.95
813.8291	448.0091	12531.25	11635.35
813.973	450.1806	12492.6	11599.75
814.1168	452.3514	12468.65	11579.15
814.2607	454.5216	12505.8	11606.05
814.4046	456.6913	12465.45	11570.35
814.5485	458.8603	12502.65	11614.5
814.6924	461.0288	12555.95	11670.2
814.8363	463.1967	12545.9	11660.05
814.9802	465.3639	12649.55	11760.15
815.1241	467.5306	12697.55	11808.3
815.2681	469.6967	12787.35	11902.65
815.412	471.8622	12913.9	12028.9
815.556	474.0271	13018.95	12126.5
815.7	476.1914	13109.65	12212.25
815.844	478.3551	13073.4	12179.8
815.988	480.5182	13054.45	12162.4
816.132	482.6807	13091.45	12210.7
816.276	484.8426	13245.3	12369.2
816.4201	487.0039	13525.85	12640.5
816.5641	489.1647	13958.05	13068.15
816.7082	491.3248	14291.7	13396.05
816.8522	493.4843	14488.2	13596.05
816.9963	495.6432	14461.95	13572.55
817.1404	497.8015	14350.35	13446.65
817.2845	499.9592	14352.7	13443.05
817.4286	502.1163	14219.25	13317.45
817.5727	504.2728	13942.85	13045.25
817.7168	506.4287	13655.8	12771
817.861	508.5839	13265.75	12378
818.0051	510.7386	12998.55	12106.4
818.1493	512.8927	12855.85	11952
818.2935	515.0461	12771.1	11868.2
818.4377	517.199	12762.95	11861.1
818.5818	519.3512	12833.3	11926.6
818.726	521.5029	12961.8	12057
818.8703	523.6539	13104.25	12202.9
819.0145	525.8043	13155.4	12251.75
819.1587	527.9541	13166.65	12256.9
819.303	530.1033	13104.45	12198.3
819.4472	532.2519	13042.6	12139.3
819.5915	534.3999	13109.55	12201.15
819.7357	536.5472	13313.2	12409.75
819.88	538.694	13673.6	12770.65
820.0243	540.8401	14155	13248.2
820.1686	542.9856	14571.2	13656.65
820.3129	545.1305	14694.9	13772.95
820.4572	547.2748	14570.45	13644.7
820.6016	549.4185	14273.9	13348
820.7459	551.5615	13984.6	13061.2
820.8902	553.704	13891.75	12970.75
821.0346	555.8458	13906.85	12992.55
821.1789	557.987	13978.2	13067.5
821.3233	560.1276	14045.3	13131.15
821.4677	562.2675	14189.4	13274.1
821.6121	564.4069	14392.2	13471.25
821.7565	566.5456	14543.15	13631.25
821.9009	568.6837	14539.75	13631.4
822.0453	570.8212	14220.7	13308.35
822.1897	572.958	13785	12871.85
822.3342	575.0942	13362.85	12449.8
822.4786	577.2299	13114.95	12209.6
822.6231	579.3648	13024	12132.1
822.7675	581.4992	13032.3	12150.35
822.912	583.6329	13182.05	12301.5
823.0565	585.766	13406.25	12516.8
823.201	587.8985	13530.45	12633.75
823.3454	590.0304	13573.55	12639.65
823.4899	592.1616	13520.25	12604.2
823.6345	594.2922	13408.45	12493.05
823.779	596.4222	13250.95	12329.3
823.9235	598.5515	13064.4	12141.15
824.068	600.6802	12892.8	11971.3
824.2126	602.8083	12714.1	11794.9
824.3571	604.9358	12690.75	11771.5
824.5017	607.0626	12656.05	11731.8
824.6462	609.1888	12676.95	11746.7
824.7908	611.3144	12709.4	11784.5
824.9354	613.4393	12664.6	11738.9
825.08	615.5636	12653.2	11728.05
825.2246	617.6873	12598.15	11672.4
825.3692	619.8103	12548.25	11618.75
825.5138	621.9327	12420	11494.75
825.6584	624.0544	12292.9	11370.45
825.803	626.1756	12232.05	11314.25
825.9477	628.2961	12168.5	11244.35
826.0923	630.4159	12098.6	11175.5
826.237	632.5351	12086.25	11164.75
826.3816	634.6537	12026.35	11095.5
826.5263	636.7716	11991.2	11058.6
826.6709	638.8889	12005.4	11071.3
826.8156	641.0056	12068.8	11134.2
826.9603	643.1216	12032.65	11096.8
827.105	645.237	12053.85	11129.65
827.2497	647.3518	12008.45	11087.05
827.3944	649.4659	12006.05	11088.65
827.5391	651.5793	11982.15	11061.25
827.6838	653.6922	11959.75	11041.45
827.8285	655.8043	11942.7	11020.15
827.9733	657.9159	11924.5	10998.8
828.118	660.0268	11890.7	10966.45
828.2627	662.137	11854.85	10930.35
828.4075	664.2466	11855.8	10921.2
828.5522	666.3556	11861.8	10931.9
828.697	668.4639	11805.2	10878.2
828.8418	670.5716	11829.7	10907.2
828.9865	672.6786	11855.65	10932.6
829.1313	674.785	11901.2	10968.95
829.2761	676.8907	11933.45	11004.1
829.4209	678.9958	11978	11051.7
829.5657	681.1002	11962.95	11030.75
829.7105	683.204	11945.45	11004.65
829.8553	685.3072	11913.95	10977.35
830.0001	687.4097	11868.05	10934.45
830.1449	689.5115	11851.15	10914.55
830.2898	691.6127	11806.45	10878.9
830.4346	693.7132	11764	10835.95
830.5794	695.8131	11732.35	10789.95
830.7243	697.9123	11754	10813.05
830.8691	700.0109	11758.15	10817.05
831.014	702.1089	11749.55	10813.15
831.1588	704.2061	11772.45	10839.85
831.3037	706.3028	11781.25	10843.25
831.4486	708.3987	11830.65	10893.4
831.5935	710.4941	11897	10962.95
831.7383	712.5887	12023.65	11091.45
831.8832	714.6827	12258.6	11321.4
832.0281	716.7761	12535.8	11607.85
832.173	718.8688	12800.6	11867.05
832.3179	720.9608	13008.3	12070.65
832.4628	723.0522	13107.8	12160.3
832.6077	725.1429	12961.15	12017.2
832.7527	727.233	12819.85	11881.75
832.8976	729.3224	12680.9	11739.9
833.0425	731.4112	12500	11563
833.1874	733.4993	12319.5	11379.2
833.3324	735.5867	12127.7	11189.05
833.4773	737.6735	12013.6	11074.3
833.6222	739.7596	11926.9	10989.85
833.7672	741.845	11843.5	10905.2
833.9122	743.9298	11790	10851.2
834.0571	746.014	11770.75	10827.7
834.2021	748.0974	11767.9	10820.95
834.347	750.1802	11766.05	10819.2
834.492	752.2624	11805	10860.65
834.637	754.3439	11844.8	10896.5
834.782	756.4247	11934.2	10978.95
834.9269	758.5048	12057.65	11109.7
835.0719	760.5843	12317.7	11371.4
835.2169	762.6631	12675.4	11724.35
835.3619	764.7413	13159.35	12216.8
835.5069	766.8188	13728.55	12782.05
835.6519	768.8956	14251.4	13304.55
835.7969	770.9718	14552	13608.6
835.9419	773.0473	14440.9	13494.15
836.0869	775.1221	14169.2	13223.95
836.232	777.1962	13828.1	12883.9
836.377	779.2697	13673.55	12723.4
836.522	781.3426	13705.8	12748.05
836.667	783.4147	13878.05	12927
836.8121	785.4862	14126.5	13179.4
836.9571	787.557	14072.6	13126.7
837.1021	789.6271	13711.3	12761.75
837.2472	791.6966	13167.85	12220.5
837.3922	793.7654	12609.9	11662.25
837.5373	795.8335	12268.3	11323.35
837.6823	797.901	12042.1	11098.05
837.8274	799.9678	11978.7	11026.8
837.9724	802.0339	11933.95	10985.85
838.1175	804.0993	11953.15	10992.95
838.2626	806.1641	11927.4	10975.25
838.4076	808.2282	11853.9	10904.95
838.5527	810.2916	11759.4	10808.55
838.6978	812.3544	11668	10721.1
838.8428	814.4164	11608.35	10662.25
838.9879	816.4778	11634.2	10679.75
839.133	818.5385	11624.25	10676.05
839.2781	820.5986	11730.15	10776.55
839.4232	822.658	11878.25	10928
839.5682	824.7166	12113.9	11165.3
839.7133	826.7747	12424.05	11477.75
839.8584	828.832	12717.9	11767.6
840.0035	830.8886	12953.25	11999.6
840.1486	832.9446	13086.45	12134.5
840.2937	834.9999	13047.3	12096.4
840.4388	837.0545	12984.6	12029.3
840.5839	839.1085	12865.6	11913.05
840.729	841.1618	12729.55	11774.55
840.8741	843.2143	12625.5	11673.9
841.0192	845.2662	12501.45	11548
841.1643	847.3175	12413.9	11465.6
841.3095	849.368	12279.3	11329
841.4546	851.4179	12197.7	11243.15
841.5997	853.467	12079.85	11127.45
841.7448	855.5155	11984.05	11032.65
841.8899	857.5633	11894.65	10942.35
842.0351	859.6105	11782.6	10828.85
842.1802	861.6569	11717.7	10765.15
842.3253	863.7027	11662.85	10709.5
842.4704	865.7478	11659.45	10703.25
842.6156	867.7922	11617.8	10663.95
842.7607	869.8359	11634.2	10677.7
842.9058	871.8789	11750.15	10792.05
843.0509	873.9212	11934.25	10946.8
843.1961	875.9629	12009.4	11055.95
843.3412	878.0039	12153.05	11198.9
843.4863	880.0441	12267.4	11316.5
843.6315	882.0837	12312.75	11357.2
843.7766	884.1226	12248.85	11293.1
843.9218	886.1609	12214.9	11261.8
844.0669	888.1984	12169.4	11216.1
844.212	890.2352	12191.2	11237.55
844.3572	892.2714	12218.85	11259.15
844.5023	894.3069	12181.75	11223
844.6475	896.3416	12095.25	11142.25
844.7926	898.3757	12018.05	11061.95
844.9377	900.4091	11986.65	11031.8
845.0829	902.4418	12000.85	11036.7
845.228	904.4739	12005.9	11046.85
845.3732	906.5052	12034.2	11074.45
845.5183	908.5358	11947.3	10989.75
845.6635	910.5658	11823.75	10864.3
845.8086	912.595	11653.35	10694.15
845.9538	914.6236	11476.15	10519.05
846.0989	916.6515	11398.5	10440.6
846.2441	918.6786	11370.9	10408.95
846.3892	920.7051	11399.9	10440.5
846.5344	922.7309	11495.05	10535.35
846.6795	924.756	11547.45	10589.85
846.8246	926.7804	11633.75	10676.35
846.9698	928.8041	11598.2	10637.2
847.1149	930.8272	11664.4	10705.6
847.2601	932.8495	11597.55	10642.1
847.4052	934.8711	11582.9	10623.2
847.5504	936.892	11470.4	10510.85
847.6955	938.9123	11375.85	10419.45
847.8407	940.9318	11316.5	10357.3
847.9858	942.9506	11216.05	10257.5
848.131	944.9688	11147.6	10191.45
848.2761	946.9862	11087.05	10128.6
848.4213	949.003	11001.9	10043.35
848.5664	951.019	10975.85	10020.25
848.7115	953.0344	10945.45	9991.45
848.8567	955.0491	10991.45	10031.45
849.0018	957.063	11051.9	10090.65
849.147	959.0763	11153.35	10196.65
849.2921	961.0888	11198.1	10238.95
849.4373	963.1007	11248.2	10294.2
849.5824	965.1119	11299.1	10353.25
849.7275	967.1223	11317.85	10377.95
849.8727	969.1321	11336.2	10395.85
850.0178	971.1412	11340.95	10393.6
850.1629	973.1495	11374.2	10418.55
850.3081	975.1572	11454.15	10445.4
850.4532	977.1641	11448.7	10493.9
850.5983	979.1704	11427.6	10468.25
850.7435	981.1759	11382.55	10419.15
850.8886	983.1808	11446.2	10489.9
851.0337	985.1849	11513.9	10542.7
851.1788	987.1884	11608.9	10650.15
851.324	989.1911	11772.8	10816
851.4691	991.1932	11882.7	10928.1
851.6142	993.1945	11916.05	10958.15
851.7593	995.1951	11841.2	10885
851.9045	997.1951	11836.1	10871.85
852.0496	999.1943	11770.45	10815.65
852.1947	1001.1928	11756.75	10798.4
852.3398	1003.1906	11768.25	10808.95
852.4849	1005.1877	11869.7	10908.6
852.63	1007.1841	11868.6	10907.3
852.7751	1009.1798	11839.85	10881.8
852.9202	1011.1748	11693.15	10734.95
853.0653	1013.1691	11502.5	10545.4
853.2104	1015.1627	11330.15	10374.55
853.3555	1017.1556	11129.1	10174.4
853.5006	1019.1477	11016.55	10062
853.6457	1021.1392	10937.5	9990.3
853.7908	1023.1299	10904.2	9962.65
853.9359	1025.12	10929.55	9994.05
854.081	1027.1093	10970.6	10045.15
854.2261	1029.0979	11076.15	10153.05
854.3712	1031.0859	11165.6	10238
854.5163	1033.0731	11196.3	10254.9
854.6613	1035.0596	11112.85	10165.85
854.8064	1037.0454	10984.85	10037.85
854.9515	1039.0304	10910.45	9955.4
855.0965	1041.0148	10770.3	9819.85
855.2416	1042.9985	10698.45	9741.65
855.3867	1044.9814	10668.45	9713.35
855.5317	1046.9636	10610.8	9657.65
855.6768	1048.9452	10588.9	9640.1
855.8219	1050.926	10647.6	9696.2
855.9669	1052.9061	10619	9662.45
856.112	1054.8855	10632.15	9676.75
856.257	1056.8642	10668.2	9714
856.4021	1058.8421	10743.5	9786.8
856.5471	1060.8194	10745.15	9789.85
856.6921	1062.7959	10812.7	9855.5
856.8372	1064.7717	10836.45	9877.55
856.9822	1066.7469	10864.4	9909.2
857.1272	1068.7213	10926.9	9968.1
857.2723	1070.695	10948.75	9995.6
857.4173	1072.6679	10920.35	9963.8
857.5623	1074.6402	10881.95	9926.25
857.7073	1076.6117	10840.6	9879.5
857.8523	1078.5826	10825.7	9871.15
857.9973	1080.5527	10793.2	9833.75
858.1423	1082.5221	10793.25	9840.1
858.2873	1084.4908	10894.75	9941.5
858.4323	1086.4587	11031.95	10077.3
858.5773	1088.426	11141.15	10187.05
858.7223	1090.3925	11151.5	10190.8
858.8673	1092.3584	11146.3	10192.05
859.0123	1094.3235	11072.25	10119.35
859.1573	1096.2879	11057.6	10104.35
859.3022	1098.2515	11100.9	10147.8
859.4472	1100.2145	11191.75	10236.6
859.5922	1102.1767	11328.65	10372.35
859.7371	1104.1382	11496.2	10543.35
859.8821	1106.099	11755.05	10801.4
860.027	1108.0591	11929.7	10980.3
860.172	1110.0185	12075.6	11121.7
860.3169	1111.9771	12140.8	11187.85
860.4619	1113.9351	11955.95	11003.5
860.6068	1115.8923	11727.8	10773.5
860.7517	1117.8488	11492.05	10537.05
860.8967	1119.8045	11261.45	10308.75
861.0416	1121.7596	11132.05	10180.2
861.1865	1123.7139	11051.2	10103.85
861.3314	1125.6675	11059.25	10110.05
861.4763	1127.6204	11123.35	10171.15
861.6212	1129.5726	11082.35	10130.25
861.7661	1131.524	11023.6	10071.85
861.911	1133.4748	10970.1	10016.2
862.0559	1135.4248	10906.9	9956.15
862.2008	1137.3741	10854.4	9901.9
862.3457	1139.3226	10799.3	9846.05
862.4905	1141.2705	10742.95	9791.05
862.6354	1143.2176	10624.55	9664.9
862.7803	1145.164	10641.4	9684.6
862.9251	1147.1097	10627.6	9671.35
863.07	1149.0546	10564	9609.35
863.2148	1150.9989	10484.5	9531.95
863.3597	1152.9424	10376.25	9423.95
863.5045	1154.8852	10255.4	9302.4
863.6493	1156.8272	10154.6	9203.3
863.7942	1158.7686	10169.7	9208.15
863.939	1160.7092	10112.65	9158.55
864.0838	1162.6491	10132.5	9176.15
864.2286	1164.5883	10225.2	9272.65
864.3734	1166.5267	10287.35	9334.5
864.5182	1168.4644	10443.7	9494
864.663	1170.4014	10639.3	9688.1
864.8078	1172.3377	10872.1	9922.05
864.9526	1174.2732	11124.2	10177.65
865.0974	1176.2081	11456.45	10504.6
865.2421	1178.1421	11789.25	10834.3
865.3869	1180.0755	12092	11142.7
865.5317	1182.0082	12284.3	11337.2
865.6764	1183.9401	12350.75	11402.35
865.8212	1185.8713	12229.55	11287.75
865.9659	1187.8017	11974.3	11041.45
866.1106	1189.7315	11697.4	10771.15
866.2554	1191.6605	11379.35	10451
866.4001	1193.5888	11173.9	10239.95
866.5448	1195.5163	11027.4	10086.75
866.6895	1197.4432	10954.5	10005.1
866.8342	1199.3693	10917.1	9969.65
866.9789	1201.2947	10921.8	9970.5
867.1236	1203.2193	10889.25	9938.9
867.2683	1205.1432	10904.9	9956.45
867.413	1207.0664	10910.5	9965.55
867.5576	1208.9889	10896.7	9943.25
867.7023	1210.9106	10911.4	9956.35
867.847	1212.8316	10936.4	9986.15
867.9916	1214.7519	11020.95	10061
868.1363	1216.6715	11027.9	10081.1
868.2809	1218.5903	11029.95	10080.9
868.4255	1220.5084	11053.3	10107.85
868.5701	1222.4257	11117.3	10172.65
868.7148	1224.3424	11087.65	10143.5
868.8594	1226.2583	11149.55	10200.3
869.004	1228.1735	11258.4	10313.05
869.1486	1230.0879	11356.2	10410.2
869.2932	1232.0016	11498.3	10550.5
869.4377	1233.9146	11522.25	10572.05
869.5823	1235.8269	11498.55	10552.35
869.7269	1237.7384	11427.05	10482.2
869.8715	1239.6492	11268.4	10319.35
870.016	1241.5592	11158.4	10213.4
870.1606	1243.4686	11147.4	10199.35
870.3051	1245.3772	11192.85	10243.45
870.4496	1247.285	11241.8	10293.05
870.5941	1249.1922	11293.1	10343.05
870.7387	1251.0986	11319.8	10376.15
870.8832	1253.0042	11338.05	10392.8
871.0277	1254.9092	11395.6	10448.15
871.1722	1256.8134	11460.1	10517.4
871.3167	1258.7169	11590.65	10644.75
871.4611	1260.6196	11753.9	10810.85
871.6056	1262.5216	11988.25	11040.75
871.7501	1264.4229	12147.3	11207.4
871.8945	1266.3234	12325.4	11379.75
872.039	1268.2232	12437.55	11490.35
872.1834	1270.1223	12450.5	11502.35
872.3278	1272.0207	12460.3	11513.2
872.4723	1273.9183	12426	11474.8
872.6167	1275.8151	12352.15	11404.25
872.7611	1277.7113	12319	11377.45
872.9055	1279.6067	12275.45	11332.95
873.0499	1281.5014	12288.35	11340.6
873.1943	1283.3953	12375.7	11429.65
873.3386	1285.2885	12562.1	11615.75
873.483	1287.181	12750.05	11806.05
873.6274	1289.0727	12988.1	12047.45
873.7717	1290.9637	13133.35	12190.9
873.9161	1292.854	13283.5	12338.15
874.0604	1294.7435	13336.9	12391.3
874.2047	1296.6323	13431.75	12489.35
874.349	1298.5204	13524.9	12577.65
874.4933	1300.4077	13584.85	12637.95
874.6376	1302.2943	13611.25	12667.75
874.7819	1304.1802	13551.2	12608.65
874.9262	1306.0653	13291.95	12346.4
875.0705	1307.9497	13028.95	12085.55
875.2147	1309.8333	12772.1	11829.75
875.359	1311.7162	12628.7	11686.1
875.5032	1313.5984	12554.8	11607.05
875.6475	1315.4798	12540.75	11597.05
875.7917	1317.3605	12575.3	11617.25
875.9359	1319.2405	12533.75	11584.1
876.0801	1321.1197	12427.8	11479.65
876.2243	1322.9982	12234.75	11285.15
876.3685	1324.876	12132.8	11190.95
876.5127	1326.753	11979.85	11039.1
876.6569	1328.6293	11885.95	10939
876.801	1330.5048	11827.5	10881.8
876.9452	1332.3796	11710.1	10763
877.0893	1334.2537	11694.2	10724.35
877.2335	1336.127	11612.45	10670.4
877.3776	1337.9996	11591.4	10646.3
877.5217	1339.8714	11574.65	10627.1
877.6658	1341.7426	11615.55	10625.6
877.8099	1343.6129	11580.6	10635.25
877.954	1345.4826	11569.55	10621.85
878.0981	1347.3515	11555.3	10608.45
878.2422	1349.2196	11538.95	10591.45
878.3862	1351.087	11558.1	10611.1
878.5303	1352.9537	11575.65	10626.25
878.6743	1354.8197	11711.3	10764.35
878.8184	1356.6849	11863.4	10920.2
878.9624	1358.5493	11987.4	11042.95
879.1064	1360.4131	12085.45	11142.25
879.2504	1362.276	12102	11156.9
879.3944	1364.1383	11999.5	11055.2
879.5384	1365.9998	11786.45	10836.85
879.6823	1367.8606	11493.8	10548.05
879.8263	1369.7206	11156.15	10209.85
879.9702	1371.5799	10890.5	9944
880.1142	1373.4384	10666.6	9720.75
880.2581	1375.2962	10479.8	9536.15
880.402	1377.1533	10223.55	9281.5
880.5459	1379.0096	9883.05	8944.3
880.6898	1380.8652	9603.5	8665.4
880.8337	1382.7201	9316.25	8375.55
880.9776	1384.5742	9102.2	8160.4
881.1215	1386.4275	8937.95	7995.55
881.2653	1388.2802	8793.35	7852.3
881.4092	1390.132	8684.05	7738.85
881.553	1391.9832	8629.05	7684.05
881.6968	1393.8336	8543.85	7601.05
881.8406	1395.6832	8525	7579.25
881.9844	1397.5322	8460.1	7519.8
882.1282	1399.3803	8453.7	7504.6
882.272	1401.2278	8410.4	7471.65
882.4158	1403.0745	8435.05	7498.65
882.5595	1404.9204	8399.7	7459.2
882.7033	1406.7656	8421.4	7480.75
882.847	1408.6101	8432.55	7488.4
882.9908	1410.4538	8448.9	7508.15
883.1345	1412.2968	8505.15	7562.3
883.2782	1414.139	8545.1	7601.95
883.4219	1415.9805	8638.5	7694.25
883.5656	1417.8213	8734.45	7787.05
883.7092	1419.6613	8808.9	7871.9
883.8529	1421.5006	8988	8049.35
883.9965	1423.3391	9212.45	8273.25
884.1402	1425.1769	9520.35	8577.05
884.2838	1427.0139	9948.15	9007.5
884.4274	1428.8502	10504.9	9566.4
884.571	1430.6858	11053.75	10113.75
884.7146	1432.5206	11451.05	10510.45
884.8582	1434.3547	11689.05	10751.05
885.0018	1436.188	11690.85	10753.25
885.1453	1438.0206	11605.95	10664.85
885.2889	1439.8524	11462.3	10522.75
885.4324	1441.6835	11386.1	10447.5
885.5759	1443.5139	11269.2	10328.95
885.7194	1445.3435	11188.55	10250.65
885.8629	1447.1724	11134.45	10195.25
886.0064	1449.0005	11096.65	10157.6
886.1499	1450.8279	11008.95	10071.75
886.2933	1452.6545	10966.75	10028.3
886.4368	1454.4804	10999.1	10063.5
886.5802	1456.3056	10982.5	10037.9
886.7237	1458.13	10903	9969.2
886.8671	1459.9536	10703.25	9766.75
887.0105	1461.7766	10402.1	9462.95
887.1539	1463.5987	10016.05	9076.7
887.2972	1465.4202	9656.85	8716.65
887.4406	1467.2409	9328.55	8388.8
887.584	1469.0608	9049.35	8110.75
887.7273	1470.88	8799.9	7858.8
887.8706	1472.6984	8558.3	7622.95
888.0139	1474.5161	8387.7	7450
888.1572	1476.3331	8228.05	7292.8
888.3005	1478.1493	8080.5	7142.4
888.4438	1479.9648	8008.8	7069
888.5871	1481.7795	7919.65	6979.55
888.7303	1483.5935	7854.65	6915.3
888.8736	1485.4067	7784	6846.7
889.0168	1487.2192	7747.6	6809.65
889.16	1489.031	7700.15	6759.35
889.3032	1490.842	7664.1	6728.9
889.4464	1492.6522	7617.95	6679.65
889.5896	1494.4618	7592.5	6656.5
889.7327	1496.2705	7561.35	6625.3
889.8759	1498.0785	7533.3	6594.95
890.019	1499.8858	7497.2	6557.55
890.1622	1501.6924	7440	6504.85
890.3053	1503.4981	7439	6504.7
890.4484	1505.3032	7399.6	6462.55
890.5914	1507.1075	7365.1	6431.3
890.7345	1508.911	7320.5	6384.2
890.8776	1510.7138	7313.55	6379.25
891.0206	1512.5159	7254.95	6317.05
891.1637	1514.3172	7196.35	6263.05
891.3067	1516.1178	7144.45	6211.45
891.4497	1517.9176	7133	6196.45
891.5927	1519.7166	7101.8	6165.3
891.7357	1521.515	7076.45	6135.75
891.8786	1523.3126	7060.3	6127.7
892.0216	1525.1094	7008.7	6074.45
892.1645	1526.9055	6981.85	6049.9
892.3074	1528.7008	6954.25	6021
892.4503	1530.4954	6918.6	5984.95
892.5932	1532.2893	6920.8	5992.15
892.7361	1534.0824	6887.55	5955.3
892.879	1535.8747	6891.8	5966.35
893.0218	1537.6663	6859.65	5929.9
893.1647	1539.4572	6859	5928.75
893.3075	1541.2473	6861.1	5934.7
893.4503	1543.0367	6874.2	5947.75
893.5931	1544.8253	6846.95	5912.1
893.7359	1546.6132	6887.2	5953
893.8787	1548.4003	6877.85	5935.55
894.0214	1550.1867	6896.3	5958.35
894.1642	1551.9723	6953.3	6020.85
894.3069	1553.7572	6999.45	6074.2
894.4496	1555.5414	7060.25	6132.85
894.5923	1557.3247	7134.55	6210.55
894.735	1559.1074	7229.3	6306.3
894.8777	1560.8893	7357.3	6435.05
895.0204	1562.6705	7447.4	6524
895.163	1564.4509	7553.75	6633.95
895.3056	1566.2305	7614	6696.65
895.4482	1568.0094	7667.25	6750.1
895.5908	1569.7876	7683.2	6763.25
895.7334	1571.565	7686	6764.4
895.876	1573.3417	7674.15	6754.75
896.0186	1575.1176	7673.05	6750.65
896.1611	1576.8928	7635.75	6719.45
896.3036	1578.6672	7579.85	6671.65
896.4461	1580.4409	7498.1	6589.65
896.5886	1582.2138	7465.2	6548.55
896.7311	1583.986	7375.7	6456.05
896.8736	1585.7575	7403.05	6486.85
897.0161	1587.5282	7366.1	6454
897.1585	1589.2981	7368.6	6457.5
897.3009	1591.0673	7389.6	6479
897.4433	1592.8358	7464.65	6550.7
897.5857	1594.6035	7478.75	6562.7
897.7281	1596.3704	7544.55	6626.55
897.8705	1598.1366	7607.35	6693.3
898.0128	1599.9021	7657.9	6743.5
898.1551	1601.6668	7730.35	6812.2
898.2975	1603.4308	7833.3	6916.75
898.4398	1605.194	7967.5	7048.15
898.5821	1606.9564	8127.45	7218.1
898.7243	1608.7182	8289.1	7383.7
898.8666	1610.4791	8470.15	7569.65
899.0088	1612.2394	8693.05	7794.6
899.1511	1613.9988	8924	8022.25
899.2933	1615.7576	9174.05	8266.35
899.4355	1617.5156	9369	8451.4
899.5776	1619.2728	9522.2	8605.05
899.7198	1621.0293	9550.95	8635.35
899.862	1622.785	9496.45	8584.15
900.0041	1624.54	9343.35	8434.9
900.1462	1626.2942	9129.6	8224.3
900.2883	1628.0477	8855.4	7943.3
900.4304	1629.8005	8597.9	7689.1
900.5725	1631.5525	8340.55	7432.95
900.7145	1633.3037	8144.9	7241.5
900.8566	1635.0542	8001.6	7094.6
900.9986	1636.804	7862.85	6955.2
901.1406	1638.553	7877.6	6900.05
901.2826	1640.3013	7768.45	6860.45
901.4245	1642.0488	7762.7	6856.1
901.5665	1643.7955	7807.1	6905.65
901.7085	1645.5416	7869.7	6965.3
901.8504	1647.2868	7942.25	7036.95
901.9923	1649.0313	8046.65	7138.4
902.1342	1650.7751	8193.55	7283.15
902.2761	1652.5181	8356.95	7453.35
902.4179	1654.2604	8535.4	7629.75
902.5598	1656.0019	8777	7874.3
902.7016	1657.7427	9031.9	8123.8
902.8434	1659.4828	9335.65	8428.6
902.9852	1661.222	9473.6	8563.75
903.127	1662.9606	9429.4	8523.25
903.2687	1664.6984	9230.95	8320.85
903.4105	1666.4354	8803.55	7889.35
903.5522	1668.1717	8304.05	7388.85
903.6939	1669.9072	7783.9	6872.35
903.8356	1671.642	7345.4	6431.6
903.9773	1673.3761	6979.85	6070.25
904.119	1675.1094	6678.6	5770.3
904.2606	1676.8419	6436.95	5532.15
904.4022	1678.5737	6277.7	5367.7
904.5439	1680.3048	6123.9	5213.85
904.6855	1682.0351	6019	5109.35
904.827	1683.7646	5915.8	5003.2
904.9686	1685.4934	5842.15	4935.4
905.1101	1687.2215	5770.85	4863.5
905.2517	1688.9488	5705.35	4801
905.3932	1690.6754	5668.05	4764.4
905.5347	1692.4012	5634.05	4727.2
905.6761	1694.1263	5569	4663.2
905.8176	1695.8506	5541.6	4636.8
905.9591	1697.5742	5517.25	4614.25
906.1005	1699.297	5494.95	4593.7
906.2419	1701.0191	5434.65	4534.35
906.3833	1702.7404	5401.95	4502.85
906.5246	1704.461	5355.55	4451.55
906.666	1706.1808	5334.8	4429.65
906.8073	1707.8999	5313.6	4411.1
906.9487	1709.6182	5283.1	4383.9
907.09	1711.3358	5267.3	4370.05
907.2313	1713.0527	5233.15	4337.1
907.3725	1714.7688	5218.1	4314.1
907.5138	1716.4841	5182.4	4278.75
907.655	1718.1987	5188.15	4280
907.7962	1719.9126	5150.65	4252.65
907.9374	1721.6257	5112.95	4213.75
908.0786	1723.338	5104	4206.35
908.2198	1725.0496	5102.05	4202.75
908.3609	1726.7605	5078.3	4177.35
908.502	1728.4706	5053.7	4155.2
908.6431	1730.18	5033.35	4135.7
908.7842	1731.8886	5024.3	4128.65
908.9253	1733.5964	5039.05	4121.3
909.0664	1735.3036	4997.45	4096.55
909.2074	1737.0099	4977	4079.7
909.3484	1738.7156	4942.6	4046.05
909.4894	1740.4204	4918.75	4018.5
909.6304	1742.1246	4907.75	4005.45
909.7714	1743.8279	4892.6	3996.3
909.9123	1745.5306	4888.5	3994.5
910.0532	1747.2325	4844.15	3949.95
910.1941	1748.9336	4820.5	3924.15
910.335	1750.634	4822	3918.85
910.4759	1752.3336	4804	3908.2
910.6168	1754.0325	4786.4	3892.6
910.7576	1755.7307	4784.4	3890.7
910.8984	1757.4281	4756.5	3861.1
911.0392	1759.1247	4776.95	3871.2
911.18	1760.8206	4749.45	3848.2
911.3208	1762.5158	4737.1	3832.4
911.4615	1764.2102	4726	3827.15
911.6022	1765.9039	4702.9	3807.95
911.7429	1767.5968	4695	3799.5
911.8836	1769.289	4681.25	3784.6
912.0243	1770.9804	4676.25	3775.35
912.1649	1772.6711	4690.9	3791.55
912.3056	1774.361	4660.95	3761.35
912.4462	1776.0502	4635.5	3736.6
912.5868	1777.7386	4626.55	3725.45
912.7274	1779.4263	4627.3	3730.7
912.8679	1781.1132	4610.6	3717.8
913.0084	1782.7994	4611.95	3718.75
913.149	1784.4849	4579.15	3685.4
913.2895	1786.1696	4590.25	3690.8
913.4299	1787.8535	4573.8	3683.4
913.5704	1789.5367	4543.75	3653.25
913.7108	1791.2192	4547.35	3656.15
913.8513	1792.9009	4558.6	3636.1
913.9917	1794.5818	4530.35	3629.6
914.132	1796.2621	4520.8	3623.75
914.2724	1797.9415	4519.3	3621.1
914.4128	1799.6202	4513.15	3615.75
914.5531	1801.2982	4503.45	3607.3
914.6934	1802.9755	4494.1	3592.3
914.8337	1804.6519	4471.6	3574
914.9739	1806.3277	4449.8	3554.85
915.1142	1808.0027	4438.05	3545.55
915.2544	1809.6769	4426.3	3536.4
915.3946	1811.3504	4416.75	3527.55
915.5348	1813.0231	4415.25	3525.45
915.675	1814.6951	4398.55	3506.3
915.8151	1816.3664	4412.6	3517.2
915.9553	1818.0369	4410.35	3514.05
916.0954	1819.7067	4391.75	3497.3
916.2355	1821.3757	4370.5	3470.35
916.3755	1823.044	4374.45	3476.6
916.5156	1824.7115	4353.05	3454.4
916.6556	1826.3783	4352.15	3457.35
916.7956	1828.0443	4310.9	3415.4
916.9356	1829.7096	4328.45	3431.75
917.0756	1831.3741	4330.45	3433.1
917.2155	1833.0379	4322.8	3429.7
917.3555	1834.701	4301.5	3406.05
917.4954	1836.3633	4298.05	3405.05
917.6353	1838.0248	4273.55	3380.85
917.7751	1839.6856	4285.3	3391.05
917.915	1841.3457	4288.2	3392.55
918.0548	1843.005	4268	3371.4
918.1946	1844.6636	4250.6	3355.25
918.3344	1846.3214	4244.4	3350.6
918.4742	1847.9785	4246.85	3352.9
918.6139	1849.6349	4241.45	3344.45
918.7537	1851.2904	4260.7	3353.5
918.8934	1852.9453	4226.35	3328.3
919.0331	1854.5994	4226.85	3327.25
919.1727	1856.2528	4220.6	3320.7
919.3124	1857.9054	4197.4	3300.35
919.452	1859.5572	4209.8	3315.75
919.5916	1861.2083	4191.55	3295.4
919.7312	1862.8587	4197.05	3301.8
919.8708	1864.5084	4182.7	3283.5
920.0103	1866.1572	4190.9	3293.45
920.1498	1867.8054	4150.6	3253.65
920.2893	1869.4528	4140.9	3241
920.4288	1871.0994	4135.35	3238.95
920.5683	1872.7453	4137.9	3238.8
920.7077	1874.3905	4130.5	3217
920.8471	1876.0349	4108.3	3212.15
920.9865	1877.6786	4100.75	3203.2
921.1259	1879.3215	4119.95	3224.85
921.2653	1880.9637	4095.05	3197.5
921.4046	1882.6051	4083.95	3189
921.5439	1884.2458	4055.55	3157.55
921.6832	1885.8858	4054.65	3159.55
921.8225	1887.525	4059.8	3166.6
921.9617	1889.1634	4047	3152.65
922.101	1890.8011	4026.25	3127.7
922.2402	1892.4381	4012.65	3116.2
922.3794	1894.0743	4017.35	3122.15
922.5185	1895.7098	4001.2	3105.75
922.6577	1897.3446	3995.55	3100.75
922.7968	1898.9786	4002.3	3104.3
922.9359	1900.6118	3994.2	3102.25
923.075	1902.2443	3965.85	3070.1
923.214	1903.8761	3986.55	3091.95
923.3531	1905.5071	3944.05	3047.75
923.4921	1907.1374	3919.55	3024.3
923.6311	1908.7669	3941.95	3048.65
923.77	1910.3957	3930.4	3037
923.909	1912.0237	3896.25	3004.9
924.0479	1913.651	3892	2996.9
924.1868	1915.2776	3888.05	2994.55
924.3257	1916.9034	3878.15	2986.6
924.4646	1918.5285	3874.4	2981.6
924.6034	1920.1528	3860.65	2965.15
924.7422	1921.7764	3849.45	2956.5
924.881	1923.3992	3843.6	2953.45
925.0198	1925.0213	3819.65	2924.85
925.1586	1926.6427	3810.15	2916.2
925.2973	1928.2633	3978.05	2875.25
925.436	1929.8832	3830.9	2933.1
925.5747	1931.5023	3794.9	2901.1
925.7134	1933.1207	3773.45	2880.05
925.852	1934.7383	3773.9	2880.1
925.9906	1936.3552	3744.75	2854.05
926.1292	1937.9714	3756.6	2862.55
926.2678	1939.5868	3735.45	2839.5
926.4064	1941.2015	3726.3	2830.05
926.5449	1942.8154	3713.45	2816.45
926.6834	1944.4286	3709.2	2813.65
926.8219	1946.041	3701.6	2788.6
926.9604	1947.6528	3682.7	2783.7
927.0988	1949.2637	3664.15	2771.1
927.2372	1950.8739	3653.2	2756.4
927.3756	1952.4834	3650.3	2760
927.514	1954.0921	3631.25	2738.25
927.6523	1955.7001	3638.2	2743.15
927.7907	1957.3074	3618.9	2731.25
927.929	1958.9139	3617.45	2728.25
928.0673	1960.5197	3591.25	2699.25
928.2055	1962.1247	3586.9	2697.45
928.3438	1963.729	3572.7	2683.2
928.482	1965.3325	3571.45	2675.65
928.6202	1966.9353	3550.3	2663.1
928.7584	1968.5374	3547.9	2656.8
928.8965	1970.1387	3539.1	2647.65
929.0346	1971.7393	3524.4	2633.2
929.1727	1973.3392	3529.9	2641.6
929.3108	1974.9383	3507.8	2619.85
929.4489	1976.5366	3494.7	2606.2
929.5869	1978.1342	3486.9	2601.9
929.7249	1979.7311	3481.6	2593.95
929.8629	1981.3273	3477.8	2589.5
930.0009	1982.9227	3467.7	2580.2
930.1388	1984.5173	3457	2572.25
930.2767	1986.1112	3444.9	2558.95
930.4146	1987.7044	3447.2	2561.75
930.5525	1989.2968	3426.85	2537.6
930.6904	1990.8885	3434.35	2543.2
930.8282	1992.4795	3406.1	2520.55
930.966	1994.0697	3400.8	2516.2
931.1038	1995.6592	3387.95	2504.25
931.2415	1997.2479	3392.8	2504.6
931.3793	1998.8359	3379.8	2495.2
931.517	2000.4232	3369.25	2489.2
931.6547	2002.0097	3358.65	2479.35
931.7923	2003.5955	3350.65	2467.4
931.93	2005.1805	3352	2470.45
932.0676	2006.7648	3348.45	2466.55
932.2052	2008.3484	3348.9	2466.25
932.3427	2009.9312	3332.15	2449.95
932.4803	2011.5133	3319.7	2440.6
932.6178	2013.0946	3306.5	2426.6
932.7553	2014.6752	3320.25	2436.95
932.8928	2016.2551	3313.95	2429.15
933.0302	2017.8342	3290.3	2406.35
933.1676	2019.4126	3298.35	2415.8
933.305	2020.9902	3276.95	2399.7
933.4424	2022.5672	3267.9	2388
933.5798	2024.1433	3273.25	2387.6
933.7171	2025.7188	3263.4	2386.6
933.8544	2027.2935	3257.05	2375.5
933.9917	2028.8674	3234.4	2356.15
934.129	2030.4406	3232.05	2354.35
934.2662	2032.0131	3221.65	2345.05
934.4034	2033.5849	3227.55	2347.35
934.5406	2035.1559	3204.05	2326
934.6778	2036.7261	3204.1	2321.65
934.8149	2038.2957	3201.25	2318.2
934.952	2039.8645	3196.7	2309.4
935.0891	2041.4325	3194.35	2305.65
935.2262	2042.9998	3184.65	2302.1
935.3632	2044.5664	3174.35	2293.7
935.5002	2046.1323	3156.05	2277.3
935.6372	2047.6974	3151.5	2273.1
935.7742	2049.2617	3145.2	2266.65
935.9111	2050.8254	3179.85	2266.15
936.048	2052.3883	3155.8	2270.85
936.1849	2053.9504	3143.1	2259.2
936.3218	2055.5118	3131.45	2247.95
936.4586	2057.0725	3131.1	2246.45
936.5955	2058.6325	3126.95	2245.15
936.7323	2060.1917	3129.25	2251.25
936.869	2061.7502	3125.35	2243.9
937.0058	2063.3079	3092.2	2212.85
937.1425	2064.8649	3097.95	2216.45
937.2792	2066.4212	3090.75	2208.75
937.4159	2067.9767	3088.4	2204.85
937.5525	2069.5315	3081.25	2197.65
937.6891	2071.0856	3061.7	2180.45
937.8257	2072.6389	3058.85	2175.8
937.9623	2074.1915	3044.2	2167.55
938.0989	2075.7433	3041.75	2159.3
938.2354	2077.2945	3028.9	2148.7
938.3719	2078.8448	3035.95	2151.45
938.5084	2080.3945	3017.45	2134.85
938.6448	2081.9434	3020.45	2136
938.7812	2083.4916	3005.6	2120.5
938.9176	2085.039	2997.05	2106.2
939.054	2086.5857	3002.75	2112.2
939.1903	2088.1317	2992.8	2100.15
939.3267	2089.677	2978.65	2088.8
939.463	2091.2215	2976.15	2084.2
939.5992	2092.7652	2963.75	2068.5
939.7355	2094.3083	2962.7	2072.8
939.8717	2095.8506	2954.25	2066.75
940.0079	2097.3921	2959.2	2074.35
940.1441	2098.933	2948.9	2060.3
940.2802	2100.4731	2938.3	2052.7
940.4163	2102.0124	2959.95	2064.3
940.5524	2103.5511	2937.85	2049.6
940.6885	2105.089	2933.25	2042.5
940.8245	2106.6261	2929.5	2040.9
940.9606	2108.1626	2921.9	2034.8
941.0965	2109.6983	2948.75	2033.5
941.2325	2111.2332	2923.7	2034
941.3684	2112.7675	2907.1	2018.55
941.5044	2114.301	2920.55	2030.3
941.6403	2115.8337	2896.4	2009.05
941.7761	2117.3657	2890.3	2001.45
941.912	2118.897	2887.8	1999.1
942.0478	2120.4276	2889.45	1996.85
942.1835	2121.9575	2871.55	1981.95
942.3193	2123.4866	2872	1981.15
942.455	2125.0149	2862.35	1973.25
942.5907	2126.5426	2841.3	1959.35
942.7264	2128.0695	2840.55	1956.55
942.8621	2129.5956	2841.4	1960.4
942.9977	2131.1211	2848	1962.55
943.1333	2132.6458	2822.05	1935.05
943.2689	2134.1698	2833.9	1945.75
943.4044	2135.693	2828.05	1936.55
943.54	2137.2155	2811.25	1919.05
943.6755	2138.7373	2809.45	1923.7
943.8109	2140.2584	2806.7	1922.85
943.9464	2141.7787	2792.55	1906.6
944.0818	2143.2983	2789.25	1911.2
944.2172	2144.8171	2780.8	1901.2
944.3526	2146.3353	2779.05	1898.2
944.4879	2147.8527	2767.7	1884.1
944.6232	2149.3693	2772.1	1885.9
944.7585	2150.8853	2773.95	1885.95
944.8938	2152.4005	2758.75	1869.45
945.029	2153.9149	2758.8	1870.55
945.1642	2155.4287	2754.45	1864.7
945.2994	2156.9417	2748.4	1862.25
945.4346	2158.454	2751.4	1866.25
945.5697	2159.9655	2725.8	1841.7
945.7048	2161.4764	2728.8	1847.35
945.8399	2162.9865	2713.25	1830.4
945.9749	2164.4958	2710.3	1826.95
946.1099	2166.0045	2705.85	1819.45
946.2449	2167.5124	2712.85	1825.7
946.3799	2169.0195	2697.1	1810.05
946.5148	2170.526	2711.85	1823.95
946.6498	2172.0317	2697.9	1812.15
946.7846	2173.5367	2702.25	1816.1
946.9195	2175.0409	2668.15	1781.65
947.0543	2176.5445	2686.1	1798.45
947.1891	2178.0473	2685.7	1796.8
947.3239	2179.5494	2674.25	1780.5
947.4587	2181.0507	2668.2	1780.1
947.5934	2182.5513	2647.3	1760.45
947.7281	2184.0512	2647.7	1760.5
947.8628	2185.5504	2652.75	1768.15
947.9974	2187.0488	2644.6	1761
948.132	2188.5465	2633.75	1752.5
948.2666	2190.0435	2625	1738.3
948.4012	2191.5397	2627.6	1740.65
948.5357	2193.0353	2619.45	1731.15
948.6702	2194.5301	2617.95	1729
948.8047	2196.0241	2613.2	1719.5
948.9392	2197.5175	2608.65	1717.8
949.0736	2199.0101	2600.4	1706
949.208	2200.502	2590.65	1702.6
949.3424	2201.9931	2573.35	1687.65
949.4767	2203.4835	2577.9	1693.55
949.611	2204.9733	2577.55	1688.45
949.7453	2206.4622	2572.95	1692.35
949.8796	2207.9505	2563.9	1679.5
950.0138	2209.438	2560.85	1681.3
950.148	2210.9248	2543.15	1660.2
950.2822	2212.4109	2543.85	1659.85
950.4164	2213.8962	2543.15	1650.55
950.5505	2215.3809	2533.9	1640.05
950.6846	2216.8648	2528.1	1632.75
950.8186	2218.3479	2529.45	1630.15
950.9527	2219.8304	2525.8	1631.55
951.0867	2221.3121	2517.3	1621.3
951.2207	2222.7931	2512.9	1622.25
951.3546	2224.2733	2509.85	1620.2
951.4886	2225.7529	2500.45	1613.5
951.6225	2227.2317	2498.95	1611.15
951.7563	2228.7098	2486.2	1602.35
951.8902	2230.1872	2483.8	1599.25
952.024	2231.6638	2469.65	1585.35
952.1578	2233.1397	2468.75	1582.1
952.2916	2234.6149	2467.3	1585.2
952.4253	2236.0894	2459.95	1574.6
952.559	2237.5632	2455.05	1560.55
952.6927	2239.0362	2449.2	1562
952.8263	2240.5085	2441.85	1556.7
952.9599	2241.9801	2435.75	1549.8
953.0935	2243.4509	2429.55	1540.1
953.2271	2244.921	2423.55	1535.85
953.3606	2246.3904	2422.85	1526.4
953.4941	2247.8591	2417.2	1526.5
953.6276	2249.3271	2409.9	1522.5
953.7611	2250.7943	2406.25	1514.95
953.8945	2252.2608	2404.3	1513.6
954.0279	2253.7266	2398.7	1508.55
954.1612	2255.1917	2394.3	1504.75
954.2946	2256.656	2393.45	1508.15
954.4279	2258.1197	2376.3	1493.05
954.5612	2259.5826	2371.5	1484.95
954.6944	2261.0447	2369.95	1479.5
954.8276	2262.5062	2367.95	1477.3
954.9608	2263.9669	2367.45	1476.75
955.094	2265.4269	2363.9	1474.1
955.2271	2266.8862	2363	1475.5
955.3602	2268.3448	2357.45	1470.6
955.4933	2269.8026	2346.45	1461.85
955.6264	2271.2598	2352.5	1467.1
955.7594	2272.7162	2341.8	1456.45
955.8924	2274.1719	2336	1446.6
956.0253	2275.6268	2333.15	1442.3
956.1583	2277.0811	2341.75	1451.3
956.2912	2278.5346	2322.5	1434.75
956.4241	2279.9874	2320.2	1434.75
956.5569	2281.4395	2318.95	1435.8
956.6897	2282.8908	2320.9	1429.6
956.8225	2284.3414	2306.35	1416.85
956.9553	2285.7914	2314.9	1429
957.088	2287.2406	2303.45	1410.65
957.2207	2288.689	2305.7	1413.3
957.3534	2290.1368	2308.6	1413.3
957.486	2291.5838	2306.45	1407.25
957.6186	2293.0302	2303.4	1408.75
957.7512	2294.4758	2296.4	1402.8
957.8838	2295.9206	2283.55	1390.15
958.0163	2297.3648	2288.35	1402.1
958.1488	2298.8082	2272.45	1383.9
958.2813	2300.251	2275.2	1387
958.4137	2301.693	2261.15	1368.9
958.5461	2303.1343	2273.3	1382.8
958.6785	2304.5748	2261	1372.4
958.8108	2306.0147	2257.1	1371.4
958.9432	2307.4538	2258.1	1370.9
959.0754	2308.8922	2245.25	1362.05
959.2077	2310.3299	2235.55	1351.3
959.3399	2311.7669	2237.85	1352.15
959.4721	2313.2031	2236.4	1347.55
959.6043	2314.6387	2229.7	1342.95
959.7365	2316.0735	2230.35	1340.85
959.8686	2317.5076	2222	1334.1
960.0006	2318.941	2227.95	1339.05
960.1327	2320.3737	2218.7	1327.05
960.2647	2321.8056	2217.55	1324.35
960.3967	2323.2369	2203.55	1312.45
960.5287	2324.6674	2210.65	1320.85
960.6606	2326.0972	2204.35	1315.35
960.7925	2327.5263	2199.3	1311.1
960.9244	2328.9547	2196.45	1305.7
961.0562	2330.3823	2192.9	1300.9
961.1881	2331.8092	2188.75	1292.7
961.3198	2333.2355	2170.2	1278.85
961.4516	2334.661	2182.45	1292.3
961.5833	2336.0858	2181.3	1289.45
961.715	2337.5098	2172.05	1284.95
961.8467	2338.9332	2167.85	1276.65
961.9783	2340.3558	2158.95	1270.15
962.1099	2341.7778	2152.65	1266.1
962.2415	2343.199	2154.15	1264.4
962.373	2344.6195	2149.1	1262.7
962.5045	2346.0393	2149.5	1260.8
962.636	2347.4583	2151.9	1262.7
962.7675	2348.8767	2153.95	1263.45
962.8989	2350.2943	2149.45	1255.25
963.0303	2351.7113	2144.65	1252.15
963.1617	2353.1275	2141.1	1247.95
963.293	2354.543	2143.9	1247.35
963.4243	2355.9578	2133.5	1243.25
963.5556	2357.3718	2127.7	1240.85
963.6868	2358.7852	2128.2	1241.05
963.818	2360.1978	2112.6	1226
963.9492	2361.6098	2115.35	1228.05
964.0803	2363.021	2113.45	1220.75
964.2114	2364.4315	2109.6	1222.35
964.3425	2365.8413	2101.4	1213.35
964.4736	2367.2504	2089.3	1206
964.6046	2368.6587	2096.6	1210.95
964.7356	2370.0664	2086.85	1201.3
964.8666	2371.4733	2088.6	1200.1
964.9975	2372.8795	2076.5	1187.35
965.1284	2374.285	2067.55	1179.2
965.2593	2375.6899	2067.5	1179.1
965.3901	2377.0939	2063.35	1175.7
965.5209	2378.4973	2066.15	1181.05
965.6517	2379.9	2066.15	1181.35
965.7825	2381.3019	2058.65	1174.35
965.9132	2382.7032	2046.9	1163.4
966.0439	2384.1037	2048.35	1166.05
966.1745	2385.5035	2043.9	1160.5
966.3051	2386.9027	2031.75	1149.8
966.4357	2388.3011	2032.1	1147.05
966.5663	2389.6987	2031.7	1147.35
966.6968	2391.0957	2021.5	1138.3
966.8273	2392.492	2028.2	1145.6
966.9578	2393.8876	2015.65	1130.95
967.0882	2395.2824	2015.45	1128.25
967.2186	2396.6765	1998.9	1114.4
967.349	2398.07	1992.8	1106.05
967.4793	2399.4627	1991.6	1104.1
967.6097	2400.8547	1998.6	1111.2
967.7399	2402.246	2007.3	1115.1
967.8702	2403.6366	1989.75	1104.95
968.0004	2405.0265	1987.2	1102.5
968.1306	2406.4156	1986.7	1098.4
968.2607	2407.8041	1973.15	1085.7
968.3909	2409.1918	1984.25	1095.6
968.521	2410.5789	1974.45	1088.45
968.651	2411.9652	1975.3	1088.3
968.781	2413.3508	1966.25	1080.65
968.911	2414.7358	1958.55	1070.5
969.041	2416.12	1959.4	1073.4
969.1709	2417.5035	1956.45	1071.85
969.3008	2418.8863	1946.95	1061.95
969.4307	2420.2684	1953.35	1068.55
969.5606	2421.6497	1946.85	1061
969.6904	2423.0304	1950	1064.6
969.8201	2424.4104	1933.85	1047.2
969.9499	2425.7896	1943.7	1056.65
970.0796	2427.1682	1928.6	1045.3
970.2093	2428.546	1933.25	1047.7
970.3389	2429.9232	1926.75	1039.05
970.4685	2431.2996	1920.9	1034.7
970.5981	2432.6753	1925.7	1038.75
970.7277	2434.0503	1920.25	1034.65
970.8572	2435.4246	1905.6	1019.75
970.9867	2436.7982	1910.25	1021.3
971.1161	2438.1711	1918.8	1034.85
971.2456	2439.5433	1898.05	1009.25
971.375	2440.9148	1904.4	1013.4
971.5043	2442.2856	1887.8	1001.9
971.6336	2443.6557	1897.45	1010.95
971.7629	2445.025	1894.65	1010.25
971.8922	2446.3937	1886.75	998.05
972.0214	2447.7617	1890	1001.85
972.1506	2449.1289	1876.5	990.95
972.2798	2450.4955	1875.05	987.35
972.4089	2451.8613	1867.4	981.9
972.538	2453.2265	1863.35	981.05
972.6671	2454.5909	1863.55	976.15
972.7961	2455.9546	1865.1	979.4
972.9251	2457.3177	1863.15	977.35
973.0541	2458.68	1861.9	973.75
973.1831	2460.0416	1866.9	981.55
973.312	2461.4025	1857.2	971.55
973.4408	2462.7627	1859.8	963.7
973.5697	2464.1222	1851.15	966.6
973.6985	2465.4811	1847.1	963.15
973.8273	2466.8392	1848.35	963.5
973.956	2468.1966	1853.5	963
974.0847	2469.5533	1855.05	967.45
974.2134	2470.9093	1857	970.35
974.3421	2472.2645	1847.55	958.15
974.4707	2473.6191	1837.45	952.55
974.5993	2474.973	1839.45	953
974.7278	2476.3262	1837.35	949.4
974.8563	2477.6787	1829.25	944.55
974.9848	2479.0305	1823.25	936.65
975.1132	2480.3816	1815.1	928.8
975.2417	2481.7319	1824.95	939.05
975.37	2483.0816	1818.8	931.9
975.4984	2484.4306	1823.65	940.45
975.6267	2485.7789	1808.35	924.45
975.755	2487.1264	1808.05	922.2
975.8833	2488.4733	1793.1	910.35
976.0115	2489.8195	1812.55	920.5
976.1397	2491.165	1792.1	904.65
976.2678	2492.5097	1795.75	909.25
976.3959	2493.8538	1789.35	905.1
976.524	2495.1972	1779.15	891.15
976.6521	2496.5398	1782.45	892.4
976.7801	2497.8818	1791.15	903.75
976.9081	2499.2231	1776.95	892.25
977.036	2500.5637	1777.8	889.45
977.164	2501.9035	1783.05	895.1
977.2918	2503.2427	1775.5	881.7
977.4197	2504.5812	1768.9	881.65
977.5475	2505.919	1766.5	879.85
977.6753	2507.256	1768.25	880.8
977.8031	2508.5924	1748.75	861.55
977.9308	2509.9281	1758.15	866.7
978.0585	2511.2631	1755.9	871.4
978.1861	2512.5974	1754.6	868.85
978.3137	2513.9309	1752.25	865.35
978.4413	2515.2638	1774.85	861.85
978.5689	2516.596	1748.15	863.3
978.6964	2517.9275	1748.4	860.8
978.8239	2519.2583	1742.1	854.25
978.9513	2520.5884	1743.7	856.9
979.0788	2521.9178	1737.45	850.75
979.2062	2523.2465	1726.9	840.1
979.3335	2524.5745	1726.75	843.55
979.4608	2525.9018	1736.95	850.55
979.5881	2527.2284	1722.25	839.7
979.7154	2528.5543	1723.5	839.8
979.8426	2529.8796	1727.95	841.6
979.9698	2531.2041	1724.9	838.9
980.0969	2532.5279	1720.8	836.9
980.224	2533.851	1711.15	827.1
980.3511	2535.1735	1710.15	826.9
980.4781	2536.4952	1716.65	831.15
980.6052	2537.8163	1728.25	839
980.7321	2539.1366	1719.45	832.55
980.8591	2540.4562	1709.75	822.25
980.986	2541.7752	1708.05	820.1
981.1129	2543.0935	1701.8	814.65
981.2397	2544.411	1714.4	826.4
981.3665	2545.7279	1705.2	817.95
981.4933	2547.0441	1704.15	818.15
981.62	2548.3596	1698.65	809.95
981.7467	2549.6744	1688.35	800.3
981.8734	2550.9885	1694.75	806.5
982.0001	2552.3019	1688.85	801.4
982.1267	2553.6146	1684.9	793.85
982.2532	2554.9266	1692.55	804.65
982.3798	2556.2379	1687.55	798.55
982.5063	2557.5485	1683.85	797.85
982.6327	2558.8585	1683.95	790.65
982.7592	2560.1677	1680.45	787.85
982.8856	2561.4762	1676.05	789.3
983.0119	2562.7841	1688.8	798.5
983.1383	2564.0913	1675.15	791.4
983.2646	2565.3977	1679.3	792.95
983.3908	2566.7035	1666.55	780.85
983.517	2568.0086	1676.2	788.35
983.6432	2569.313	1670.3	781.15
983.7694	2570.6167	1660.45	767.4
983.8955	2571.9197	1668.05	782.15
984.0216	2573.222	1668.55	778.05
984.1476	2574.5236	1664.1	775.05
984.2737	2575.8246	1664.45	772.9
984.3996	2577.1248	1663.1	774.1
984.5256	2578.4244	1658.4	773.65
984.6515	2579.7232	1661.15	775.65
984.7774	2581.0214	1679.85	765.85
984.9032	2582.3189	1653.85	768.85
985.029	2583.6157	1666.2	777.2
985.1548	2584.9118	1660.95	772.4
985.2806	2586.2072	1658.4	771.1
985.4063	2587.5019	1654.6	766.35
985.5319	2588.7959	1658.6	770.55
985.6576	2590.0893	1666.55	774.15
985.7832	2591.3819	1658.45	771.2
985.9087	2592.6739	1655.7	769.5
986.0343	2593.9652	1651.15	764
986.1597	2595.2557	1651.15	764.3
986.2852	2596.5456	1656.3	766
986.4106	2597.8348	1649.75	764.5
986.536	2599.1234	1652.75	766.1
986.6614	2600.4112	1656.65	769.55
986.7867	2601.6983	1656.75	766.65
986.912	2602.9848	1650.2	761.35
987.0372	2604.2705	1652.6	758.8
987.1624	2605.5556	1652.05	765
987.2876	2606.84	1639.4	753.45
987.4128	2608.1237	1643.5	756.3
987.5379	2609.4067	1633.7	746.5
987.6629	2610.689	1643.9	748.8
987.788	2611.9707	1634.15	743.75
987.913	2613.2516	1635.1	744.75
988.0379	2614.5319	1624.7	738.3
988.1629	2615.8115	1623.6	735.9
988.2878	2617.0903	1617.8	731.15
988.4126	2618.3685	1612	726.35
988.5375	2619.6461	1611.95	725.25
988.6622	2620.9229	1613.05	728.5
988.787	2622.199	1611.35	722.4
988.9117	2623.4745	1617.2	731.9
989.0364	2624.7493	1604.4	720.05
989.161	2626.0234	1618.8	735.05
989.2857	2627.2968	1612.55	726.1
989.4102	2628.5695	1608.75	720.9
989.5348	2629.8415	1607.65	722.05
989.6593	2631.1128	1600.75	713.6
989.7837	2632.3835	1597.9	712.35
989.9082	2633.6535	1597.1	711.4
990.0326	2634.9228	1599.45	712.95
990.1569	2636.1914	1599.4	713.45
990.2812	2637.4593	1599.35	710.65
990.4055	2638.7265	1591.15	702.8
990.5298	2639.9931	1594.2	707.2
990.654	2641.259	1593.4	705.95
990.7782	2642.5242	1595.95	709.65
990.9023	2643.7887	1583.65	698.5
991.0264	2645.0525	1583.1	699.1
991.1505	2646.3156	1580.8	692.15
991.2745	2647.5781	1579.2	693.25
991.3985	2648.8398	1584.45	699.7
991.5225	2650.1009	1609.15	689.5
991.6464	2651.3613	1573.5	689.5
991.7703	2652.6211	1570.95	685.9
991.8942	2653.8801	1568.35	682.65
992.018	2655.1385	1565.4	678.25
992.1418	2656.3961	1564.75	678.9
992.2655	2657.6531	1572.15	686.35
992.3892	2658.9094	1564.65	679.75
992.5129	2660.1651	1572	686.4
992.6366	2661.42	1570.95	684.45
992.7602	2662.6743	1569.7	684.7
992.8837	2663.9279	1575.7	690.5
993.0073	2665.1808	1576.35	691.25
993.1307	2666.433	1571.9	684.95
993.2542	2667.6846	1572.7	687
993.3776	2668.9354	1578.05	689.2
993.501	2670.1856	1569.75	681
993.6244	2671.4351	1569.15	683.55
993.7477	2672.6839	1581.2	695.85
993.8709	2673.9321	1581.1	697.65
993.9942	2675.1795	1574.25	689
994.1174	2676.4263	1588.5	702.7
994.2405	2677.6724	1579.45	693.55
994.3637	2678.9179	1582.35	697.6
994.4868	2680.1626	1579.5	694.5
994.6098	2681.4067	1574.35	690.25
994.7328	2682.6501	1580.8	697.2
994.8558	2683.8928	1578.15	690.7
994.9788	2685.1348	1573.25	688.8
995.1017	2686.3761	1561.7	675.45
995.2245	2687.6168	1561.25	674.6
995.3474	2688.8568	1566.9	679.7
995.4702	2690.0961	1561.25	677.65
995.5929	2691.3348	1548.75	664.4
995.7156	2692.5727	1553.6	669.5
995.8383	2693.81	1550.3	668
995.961	2695.0466	1552.45	668.05
996.0836	2696.2826	1549.85	664.05
996.2062	2697.5178	1552.4	662.95
996.3287	2698.7524	1547.05	662.6
996.4512	2699.9863	1541.25	654.65
996.5737	2701.2195	1542.4	657.95
996.6961	2702.452	1554.95	668.1
996.8185	2703.6839	1554.85	668.25
996.9408	2704.9151	1557.55	675
997.0631	2706.1456	1563.7	678
997.1854	2707.3755	1569.3	684.3
997.3077	2708.6046	1576.45	689
997.4299	2709.8331	1585.45	701.85
997.552	2711.0609	1589.05	704.8
997.6742	2712.2881	1594.85	711.65
997.7963	2713.5145	1603.35	717.9
997.9183	2714.7403	1604	721.45
998.0403	2715.9654	1615.95	730.45
998.1623	2717.1899	1636.8	738.35
998.2842	2718.4136	1633.8	749.55
998.4062	2719.6367	1651.25	767.85
998.528	2720.8591	1653.45	759.25
998.6498	2722.0809	1669	786.1
998.7716	2723.3019	1668.5	778.9
998.8934	2724.5223	1691.5	806.5
999.0151	2725.7421	1685.85	801.5
999.1368	2726.9611	1691.8	806.3
999.2584	2728.1795	1694.1	806.9
999.38	2729.3972	1677.25	793
999.5016	2730.6142	1671.95	774.05
999.6231	2731.8306	1653.75	767.95
999.7446	2733.0462	1639.75	755.2
999.8661	2734.2612	1623.55	735
999.9875	2735.4756	1615.45	729.65
1000.1089	2736.6892	1594.65	709.35
1000.2302	2737.9022	1577.65	697.15
1000.3515	2739.1145	1564.45	679.35
1000.4728	2740.3262	1562	672.95
1000.594	2741.5372	1533.35	648.75
1000.7152	2742.7475	1528.6	644
1000.8363	2743.9571	1520.2	634.55
1000.9575	2745.1661	1516.2	626.5
1001.0785	2746.3744	1504.1	619.5
1001.1996	2747.582	1497.3	614.05
1001.3206	2748.7889	1489.15	604.1
1001.4415	2749.9952	1481	598.5
1001.5625	2751.2008	1470.7	587.25
1001.6833	2752.4057	1467.85	581.95
1001.8042	2753.61	1468.1	584.95
1001.925	2754.8136	1462	576.75
1002.0458	2756.0165	1466.7	585.75
1002.1665	2757.2188	1454.3	572.5
1002.2872	2758.4204	1458.85	575.15
1002.4078	2759.6213	1462.9	577.95
1002.5285	2760.8215	1465.1	578.95
1002.649	2762.0211	1448.9	561.65
1002.7696	2763.22	1453	565.85
1002.8901	2764.4182	1450.5	566.95
1003.0106	2765.6158	1450.6	567.5
1003.131	2766.8127	1443.35	558.45
1003.2514	2768.009	1435.85	552.6
1003.3717	2769.2045	1446.5	563.2
1003.492	2770.3994	1435.9	552.45
1003.6123	2771.5936	1438.9	557.05
1003.7325	2772.7872	1435.95	554.7
1003.8527	2773.9801	1426.4	541.15
1003.9729	2775.1723	1440.2	537.75
1004.093	2776.3639	1419	537
1004.2131	2777.5548	1422.15	538.4
1004.3331	2778.745	1430.05	545.9
1004.4531	2779.9346	1424	541.85
1004.5731	2781.1235	1435.25	552.55
1004.693	2782.3117	1427.9	546.5
1004.8129	2783.4992	1437.15	556.45
1004.9328	2784.6861	1435.9	553.4
1005.0526	2785.8723	1441.75	560.05
1005.1723	2787.0579	1450.2	568.05
1005.2921	2788.2428	1449.85	566.8
1005.4118	2789.427	1455.55	573.6
1005.5314	2790.6106	1463.25	578.75
1005.651	2791.7935	1475.25	591.85
1005.7706	2792.9757	1478.85	596.2
1005.8902	2794.1573	1494.95	611
1006.0097	2795.3382	1498.25	614.75
1006.1291	2796.5184	1506.15	627.75
1006.2485	2797.698	1534.4	649.3
1006.3679	2798.8769	1535.65	654.45
1006.4873	2800.0551	1554.05	671.65
1006.6066	2801.2327	1567.4	683.05
1006.7258	2802.4096	1579.35	696.8
1006.8451	2803.5859	1599.2	714.8
1006.9642	2804.7615	1615.9	733.45
1007.0834	2805.9364	1633.8	753.3
1007.2025	2807.1106	1655.1	773.8
1007.3216	2808.2842	1690.75	807.05
1007.4406	2809.4572	1718.1	836.2
1007.5596	2810.6294	1741.55	857.75
1007.6785	2811.801	1777.9	896.25
1007.7975	2812.972	1815.95	934.35
1007.9163	2814.1423	1851.9	970.15
1008.0352	2815.3119	1898.95	1016.3
1008.154	2816.4808	1941.95	1061.9
1008.2727	2817.6491	1993.85	1110
1008.3914	2818.8167	2047	1165.8
1008.5101	2819.9837	2100.35	1214.65
1008.6288	2821.15	2138.45	1255.55
1008.7474	2822.3157	2203.35	1322.3
1008.8659	2823.4807	2240.45	1356.2
1008.9844	2824.645	2288.3	1404.2
1009.1029	2825.8086	2349.15	1468.6
1009.2214	2826.9716	2376.95	1496.85
1009.3398	2828.134	2435.1	1554.5
1009.4581	2829.2957	2465.45	1583.45
1009.5764	2830.4567	2508.55	1628.25
1009.6947	2831.617	2520.3	1638.8
1009.813	2832.7767	2530.65	1648.95
1009.9312	2833.9358	2531.75	1652.25
1010.0493	2835.0941	2539.5	1656.5
1010.1675	2836.2519	2510.85	1630.25
1010.2855	2837.4089	2508.65	1624.85
1010.4036	2838.5653	2500.1	1619.25
1010.5216	2839.7211	2485.25	1604.2
1010.6396	2840.8761	2492.05	1610.4
1010.7575	2842.0306	2506.95	1626.65
1010.8754	2843.1843	2540.9	1659.05
1010.9932	2844.3374	2577.25	1695.6
1011.111	2845.4899	2633.95	1751.6
1011.2288	2846.6417	2685.15	1805.15
1011.3465	2847.7928	2755.95	1875.35
1011.4642	2848.9433	2831.15	1952
1011.5818	2850.0931	2903.8	2021.1
1011.6995	2851.2422	2970.05	2088.2
1011.817	2852.3907	3038.35	2156.8
1011.9345	2853.5385	3088.7	2205.7
1012.052	2854.6857	3142.45	2251.8
1012.1695	2855.8323	3200.05	2319.8
1012.2869	2856.9781	3226.6	2346.15
1012.4042	2858.1233	3284.7	2401.3
1012.5216	2859.2679	3319.7	2440.8
1012.6389	2860.4118	3377	2494.8
1012.7561	2861.555	3415.85	2530.6
1012.8733	2862.6976	3439.7	2558.15
1012.9905	2863.8395	3487.6	2610.05
1013.1076	2864.9808	3516.05	2635.3
1013.2247	2866.1214	3516.35	2637.35
1013.3417	2867.2614	3539.6	2657.35
1013.4587	2868.4007	3550.35	2668
1013.5757	2869.5393	3567.65	2686.7
1013.6926	2870.6773	3586.45	2703.3
1013.8095	2871.8146	3600.1	2714.7
1013.9263	2872.9513	3599.4	2714.9
1014.0431	2874.0874	3593.95	2713.85
1014.1599	2875.2227	3591.8	2711.7
1014.2766	2876.3574	3589.25	2708.35
1014.3933	2877.4915	3531.3	2652.1
1014.51	2878.6249	3522.4	2644.05
1014.6266	2879.7577	3504.8	2625.05
1014.7431	2880.8898	3476.75	2585.9
1014.8596	2882.0212	3456.35	2576.75
1014.9761	2883.152	3439.9	2558.2
1015.0925	2884.2821	3438.25	2557.55
1015.2089	2885.4116	3430.7	2549.6
1015.3253	2886.5405	3420.15	2541.75
1015.4416	2887.6686	3439.9	2557.45
1015.5579	2888.7962	3446.6	2568.45
1015.6741	2889.923	3438.45	2557.8
1015.7903	2891.0493	3455.55	2575.5
1015.9065	2892.1748	3479.45	2601.25
1016.0226	2893.2997	3474.7	2593.5
1016.1387	2894.424	3491.85	2613.65
1016.2547	2895.5476	3506.65	2627.05
1016.3707	2896.6706	3528.5	2649.8
1016.4866	2897.7929	3564.8	2684.1
1016.6025	2898.9145	3588.7	2708.6
1016.7184	2900.0355	3611.45	2732.25
1016.8342	2901.1559	3652.65	2770.9
1016.95	2902.2756	3674.3	2795.2
1017.0658	2903.3946	3701.45	2822.45
1017.1815	2904.513	3733.9	2852.6
1017.2971	2905.6308	3759.15	2878.7
1017.4127	2906.7479	3775.8	2895.3
1017.5283	2907.8643	3814.55	2933.85
1017.6439	2908.9801	3819.1	2941.05
1017.7594	2910.0953	3830.95	2951
1017.8748	2911.2098	3829.25	2947.15
1017.9902	2912.3236	3822.45	2931.4
1018.1056	2913.4368	3802.5	2919.8
1018.2209	2914.5494	3782.25	2903.1
1018.3362	2915.6613	3768.75	2883.6
1018.4515	2916.7725	3735.5	2851.95
1018.5667	2917.8831	3703.85	2824.65
1018.6819	2918.9931	3688.85	2806.05
1018.797	2920.1024	3637.75	2757.25
1018.9121	2921.211	3626.9	2748.9
1019.0271	2922.319	3612.45	2732.8
1019.1421	2923.4264	3591.7	2712.3
1019.2571	2924.5331	3574.05	2695.6
1019.372	2925.6391	3585.8	2706.45
1019.4869	2926.7445	3561.25	2683.25
1019.6017	2927.8493	3566.65	2685.65
1019.7165	2928.9534	3575.9	2696.75
1019.8313	2930.0569	3566.6	2683.85
1019.946	2931.1597	3562.55	2680.05
1020.0606	2932.2619	3544.7	2665.65
1020.1753	2933.3634	3548.85	2669.2
1020.2899	2934.4643	3542.1	2656.75
1020.4044	2935.5645	3520.15	2634.2
1020.5189	2936.6641	3497.25	2612.25
1020.6334	2937.763	3470	2591.55
1020.7478	2938.8613	3423.15	2546.05
1020.8622	2939.959	3366.8	2480.4
1020.9765	2941.056	3301.4	2423.3
1021.0908	2942.1523	3249.85	2370.35
1021.2051	2943.248	3170.2	2292.6
1021.3193	2944.3431	3061.3	2183.3
1021.4334	2945.4375	2968.55	2089.75
1021.5476	2946.5313	2877.7	2000.35
1021.6617	2947.6244	2766.7	1886.4
1021.7757	2948.7169	2670.5	1792.15
1021.8897	2949.8087	2579.65	1701.05
1022.0037	2950.8999	2502.5	1621.7
1022.1176	2951.9904	2407.6	1531.2
1022.2315	2953.0803	2341.05	1460.85
1022.3453	2954.1696	2296.2	1416.7
1022.4591	2955.2582	2229.35	1350.35
1022.5728	2956.3462	2189.95	1309.75
1022.6865	2957.4335	2160.75	1280.25
1022.8002	2958.5202	2117.2	1236.75
1022.9138	2959.6062	2092.65	1213.8
1023.0274	2960.6916	2057.75	1179.7
1023.141	2961.7764	2047.75	1169.45
1023.2545	2962.8605	2032.15	1151.9
1023.3679	2963.9439	2017.75	1137.55
1023.4813	2965.0267	2007.5	1127.2
1023.5947	2966.1089	2019.15	1116.7
1023.708	2967.1905	1997.85	1119.25
1023.8213	2968.2714	1987.95	1109.1
1023.9346	2969.3516	1986.15	1106.85
1024.0478	2970.4312	2001.35	1115.25
1024.1609	2971.5102	1987.7	1109.9
1024.274	2972.5885	1989.3	1112.15
1024.3871	2973.6662	1999.95	1116.9
1024.5002	2974.7432	1989.4	1113.65
1024.6132	2975.8196	1990.35	1109.15
1024.7261	2976.8954	1993.45	1116.4
1024.839	2977.9705	1976.8	1097.3
1024.9519	2979.045	1959	1079.45
1025.0647	2980.1188	1939.35	1060.65
1025.1775	2981.192	1928.75	1050.3
1025.2902	2982.2645	1909.6	1031.3
1025.4029	2983.3364	1876.45	998.25
1025.5156	2984.4077	1854.55	976.4
1025.6282	2985.4783	1835.3	952.7
1025.7407	2986.5483	1793.55	916.3
1025.8532	2987.6177	1759.8	881.6
1025.9657	2988.6864	1738.2	860.55
1026.0782	2989.7545	1700.25	819.85
1026.1906	2990.8219	1665.25	787
1026.3029	2991.8887	1647.75	766.75
1026.4152	2992.9548	1610.25	732.05
1026.5275	2994.0204	1578.8	701.85
1026.6397	2995.0852	1544.75	669.15
1026.7519	2996.1495	1522.9	644.8
1026.864	2997.2131	1499.5	621.8
1026.9761	2998.276	1473.5	596.35
1027.0882	2999.3383	1458.25	580.35
1027.2002	3000.4	1440.1	561.05
1027.3122	3001.4611	1415.4	538.7
1027.4241	3002.5215	1407.15	526.85
1027.536	3003.5812	1393.8	515.85
1027.6478	3004.6404	1380.2	502.85
1027.7596	3005.6989	1365.3	485.5
1027.8714	3006.7567	1357.8	479.6
1027.9831	3007.8139	1373.9	468.5
1028.0947	3008.8705	1339.95	461.65
1028.2064	3009.9264	1345.6	463.4
1028.3179	3010.9818	1326.55	450.2
1028.4295	3012.0364	1321.35	442.1
1028.541	3013.0905	1319.5	441.6
1028.6524	3014.1439	1312.8	437.05
1028.7638	3015.1966	1311.05	433.75
1028.8752	3016.2487	1309.45	431.85
1028.9865	3017.3002	1309.8	425.25
1029.0978	3018.3511	1303.6	427.2
1029.209	3019.4013	1309.55	431.8
1029.3202	3020.4509	1311.05	434.2
1029.4314	3021.4998	1301.8	422.1
1029.5425	3022.5481	1303.4	425.75
1029.6535	3023.5958	1299.1	422.75
1029.7645	3024.6428	1305.3	425.5
1029.8755	3025.6892	1301.75	422.25
1029.9864	3026.735	1304.9	427.7
1030.0973	3027.7802	1304.8	427.2
1030.2082	3028.8247	1297.2	420.15
1030.319	3029.8685	1306.05	426.15
1030.4297	3030.9118	1308.4	430.7
1030.5404	3031.9544	1313.6	437.75
1030.6511	3032.9963	1321.95	443.2
1030.7617	3034.0376	1309.9	434.85
1030.8723	3035.0783	1319.25	440.75
1030.9829	3036.1184	1331.55	455.25
1031.0934	3037.1578	1324	447.75
1031.2038	3038.1966	1328.25	449.7
1031.3142	3039.2348	1327.05	448.7
1031.4246	3040.2723	1337.05	450.4
1031.5349	3041.3092	1322.9	445.8
1031.6452	3042.3455	1329.65	453.9
1031.7554	3043.3811	1322.5	444.85
1031.8656	3044.4161	1320.65	441.15
1031.9758	3045.4505	1318.95	443.25
1032.0859	3046.4842	1318	440.3
1032.1959	3047.5173	1308.3	434.15
1032.3059	3048.5498	1301.95	423.6
1032.4159	3049.5816	1305.3	428.15
1032.5258	3050.6128	1296.75	419.2
1032.6357	3051.6434	1292.25	412.4
1032.7455	3052.6734	1284.75	409
1032.8553	3053.7027	1285.6	406.85
1032.9651	3054.7314	1280.2	402.6
1033.0748	3055.7594	1278.45	401.55
1033.1845	3056.7868	1268.35	390.65
1033.2941	3057.8136	1266.95	389.05
1033.4037	3058.8398	1261.9	385.3
1033.5132	3059.8653	1258.2	383.25
1033.6227	3060.8902	1258.25	382.55
1033.7321	3061.9145	1242.8	363.9
1033.8415	3062.9381	1247.95	370.45
1033.9509	3063.9612	1262.7	370.2
1034.0602	3064.9835	1242.1	364.4
1034.1694	3066.0053	1240.3	363.65
1034.2787	3067.0264	1228.9	352
1034.3878	3068.0469	1221.55	343.1
1034.497	3069.0668	1214.6	335.3
1034.6061	3070.086	1213.75	337.15
1034.7151	3071.1046	1201.5	326.65
1034.8241	3072.1226	1202.65	327.1
1034.9331	3073.1399	1189.8	313.65
1035.042	3074.1567	1180.95	303.05
1035.1508	3075.1727	1178.35	301.95
1035.2597	3076.1882	1160.6	282.55
1035.3684	3077.203	1159.95	282
1035.4772	3078.2173	1149.75	269.9
1035.5859	3079.2308	1149.05	269.9
1035.6945	3080.2438	1137.85	260.75
1035.8031	3081.2561	1130.35	254.75
1035.9117	3082.2678	1123.05	246.4
1036.0202	3083.2789	1115.25	238.05
1036.1286	3084.2893	1111.85	235.15
1036.2371	3085.2991	1105.45	227.5
1036.3454	3086.3083	1107.4	226.7
1036.4538	3087.3169	1099.55	222.25
1036.562	3088.3248	1095.25	215.85
1036.6703	3089.3321	1091.55	214.7
1036.7785	3090.3388	1084	208.85
1036.8866	3091.3449	1079.6	202.9
1036.9948	3092.3503	1082.05	204.05
1037.1028	3093.3551	1071.4	195.55
1037.2108	3094.3593	1068.4	194.8
1037.3188	3095.3629	1073.1	197.75
1037.4267	3096.3658	1069.15	191.65
1037.5346	3097.3681	1062.85	185.7
1037.6425	3098.3698	1062.25	181.85
1037.7503	3099.3708	1059.9	182.5
1037.858	3100.3713	1057.95	180.15
1037.9657	3101.3711	1054.9	179.55
1038.0734	3102.3702	1190.2	179.95
1038.181	3103.3688	1049.7	171.75
1038.2886	3104.3667	1046.5	173.65
1038.3961	3105.364	1042.55	165.85
1038.5036	3106.3607	1040.9	162.75
1038.611	3107.3568	1042.85	165.8
1038.7184	3108.3522	1037.5	160.75
1038.8257	3109.347	1038.95	162.85
1038.933	3110.3412	1040.85	158.55
1039.0403	3111.3348	1031.95	157.65
1039.1475	3112.3277	1030.1	153.4
1039.2547	3113.32	1029.35	153.4
1039.3618	3114.3117	1033.8	157.7
1039.4689	3115.3028	1025.3	147.75
1039.5759	3116.2932	1028.05	148.1
1039.6829	3117.2831	1026.25	144.9
1039.7898	3118.2723	1023.35	145.9
1039.8967	3119.2608	1021	145.8
1040.0035	3120.2488	1018.4	141.1
1040.1103	3121.2361	1021.9	146.1
1040.2171	3122.2229	1018.65	141.7
1040.3238	3123.209	1015.4	135.7
1040.4305	3124.1944	1016.05	141.3
1040.5371	3125.1793	1014.95	136.7
1040.6437	3126.1635	1012.15	136.4
1040.7502	3127.1471	1012.1	137.65
1040.8567	3128.1301	1011.45	135.9
1040.9631	3129.1125	1008.1	133.1
1041.0695	3130.0942	1007.95	132
1041.1759	3131.0753	1016.95	132.3
1041.2822	3132.0558	1008.15	129.5
1041.3884	3133.0357	1004.9	127.45
1041.4946	3134.015	1003.2	127.95
1041.6008	3134.9936	1001.8	123.6
1041.7069	3135.9716	1021.05	125.3
1041.813	3136.949	1000.45	125.9
1041.919	3137.9258	1015.9	120.5
1042.025	3138.902	1003	121.75
1042.1309	3139.8775	998.1	123.1
1042.2368	3140.8524	994.7	118.75
1042.3427	3141.8267	998	121.8
1042.4485	3142.8004	995.5	119.25
1042.5542	3143.7735	999.5	117.3
1042.6599	3144.7459	993.45	117.1
1042.7656	3145.7178	994.6	115.65
1042.8712	3146.689	989.75	115.45
1042.9768	3147.6596	987.3	110.25
1043.0823	3148.6295	987.2	110.8
1043.1878	3149.5989	990.35	114.1
1043.2932	3150.5676	988.8	113.7
1043.3986	3151.5357	982.8	109.55
1043.5039	3152.5032	985.1	108.65
1043.6092	3153.4701	982.1	107.8
1043.7145	3154.4364	987.05	107.6
1043.8197	3155.402	983.3	108
1043.9248	3156.367	980.8	101.9
1044.03	3157.3315	1011	100.95
1044.135	3158.2952	980.6	106
1044.24	3159.2584	979.95	104.6
1044.345	3160.221	980.35	103.6
1044.4499	3161.1829	977.5	103.35
1044.5548	3162.1442	974.75	99.45
1044.6596	3163.105	976.15	99.05
1044.7644	3164.065	974.95	98.8
1044.8692	3165.0245	976.9	97.45
1044.9739	3165.9834	973.4	99.4
1045.0785	3166.9416	971.6	96.9
1045.1831	3167.8993	975.45	99.8
1045.2877	3168.8563	975.75	99.7
1045.3922	3169.8127	968.65	93.5
1045.4966	3170.7684	969.45	94.55
1045.6011	3171.7236	972.9	96.4
1045.7054	3172.6782	970.2	95.9
1045.8098	3173.6321	968.05	92.1
1045.914	3174.5854	969.4	87.95
1046.0183	3175.5381	969.2	97.25
1046.1224	3176.4902	969.05	93.45
1046.2266	3177.4417	965.65	91.2
1046.3307	3178.3926	964.55	90.2
1046.4347	3179.3428	963.6	89.75
1046.5387	3180.2924	966.25	91.45
1046.6427	3181.2415	966.1	91.1
1046.7466	3182.1899	965.25	87.2
1046.8504	3183.1377	962.25	86.8
1046.9542	3184.0848	964.25	85.55
1047.058	3185.0314	959.05	83.5
1047.1617	3185.9773	963.2	89.3
1047.2654	3186.9227	964.2	88.4
1047.369	3187.8674	957.75	83.7
1047.4726	3188.8115	961.25	81.55
1047.5761	3189.755	959.15	85.15
1047.6796	3190.6979	956.15	82.4
1047.783	3191.6402	956.25	81.1
1047.8864	3192.5818	957.75	84.15
1047.9898	3193.5229	977.95	87.1
1048.0931	3194.4633	957	82.55
1048.1963	3195.4031	956.7	81.85
1048.2995	3196.3423	955.6	78.45
1048.4027	3197.2809	954.95	79.55
1048.5058	3198.2189	954.85	80.1
1048.6089	3199.1563	961.3	79.55
1048.7119	3200.0931	955.8	81.15
1048.8148	3201.0292	949.7	74.7
1048.9178	3201.9648	952.05	79.3
1049.0206	3202.8997	954.9	78.45
1049.1235	3203.834	952.5	79.6
1049.2262	3204.7677	947.85	72.7
1049.329	3205.7008	951.4	74.3
1049.4317	3206.6333	951.15	78.1
1049.5343	3207.5652	950.35	73.65
1049.6369	3208.4964	950.5	76.3
1049.7394	3209.4271	949.85	75.75
1049.8419	3210.3571	948.35	74.4
1049.9444	3211.2865	951.3	77.05
1050.0468	3212.2154	947.05	70.9
1050.1491	3213.1436	948.6	72.55
1050.2514	3214.0712	952.7	70.6
1050.3537	3214.9982	948.45	74
1050.4559	3215.9246	946.05	71.2
1050.5581	3216.8503	942.3	67.05
1050.6602	3217.7755	944.65	70.6
1050.7623	3218.7001	944.4	68.5
1050.8643	3219.624	947.5	70.8
1050.9663	3220.5473	946.4	72.15
1051.0682	3221.4701	944.6	69
1051.1701	3222.3922	948.5	71.05
1051.2719	3223.3137	944.4	70.35
1051.3737	3224.2346	942.05	65.95
1051.4754	3225.1549	940.95	65.25
1051.5771	3226.0746	942.6	69.1
1051.6788	3226.9937	942.9	66.45
1051.7804	3227.9121	939.6	65
1051.8819	3228.83	940.7	64.3
1051.9834	3229.7473	942.1	68
1052.0849	3230.6639	940.35	64.45
1052.1863	3231.5799	937.9	64.15
1052.2876	3232.4954	938.1	65
1052.3889	3233.4102	940.9	67.25
1052.4902	3234.3244	938	62.25
1052.5914	3235.238	935.7	61.3
1052.6926	3236.151	962.9	63.7
1052.7937	3237.0634	937.35	64.75
1052.8948	3237.9752	939.05	65.1
1052.9958	3238.8864	937	61.7
1053.0968	3239.797	933.75	60.8
1053.1977	3240.7069	938.95	64.1
1053.2986	3241.6163	938.9	62.7
1053.3994	3242.5251	933.4	57.7
1053.5002	3243.4332	931.3	57.45
1053.6009	3244.3408	935.55	61.4
1053.7016	3245.2477	934.6	60.35
1053.8022	3246.154	935.55	61.2
1053.9028	3247.0598	932.7	57.15
1054.0034	3247.9649	930.75	58.25
1054.1039	3248.8694	933.35	58.6
1054.2043	3249.7733	927.1	51.7
1054.3047	3250.6766	931.35	58.55
1054.4051	3251.5793	931.9	57.6
1054.5054	3252.4814	930.25	58
1054.6056	3253.3829	928.4	55.45
1054.7058	3254.2838	926.95	52.45
1054.806	3255.1841	928.85	56.2
1054.9061	3256.0838	925.4	50.7
1055.0061	3256.9829	926.35	53.95
1055.1062	3257.8814	928.05	52.1
1055.2061	3258.7792	929.45	52.6
1055.306	3259.6765	929.6	53.4
1055.4059	3260.5731	924.95	50.3
1055.5057	3261.4692	927.9	53.65
1055.6055	3262.3647	925.2	51.1
1055.7052	3263.2595	921.4	48.4
1055.8049	3264.1538	920.65	45
1055.9045	3265.0474	923.7	50.1
1056.0041	3265.9404	918.9	45.35
1056.1036	3266.8329	916.8	43.6
1056.2031	3267.7247	926.45	43.9
1056.3025	3268.616	918.75	45.65
1056.4019	3269.5066	916.4	43.9
1056.5013	3270.3966	915.7	39.5
1056.6005	3271.286	909.75	38
