Software Version:	3.9.2.0
Unit SN:	10000200
Spectrometer SN:	6960
Date:	3/8/2024 1:58:02 PM
Data Line Index:	25
Spectral Points:	2048
Integration time (ms):	125
Averages:	20
Delay (ms):	30000
Sequence Number:	1
Processing:	dark subtract
Laser Power (mW):	300
Laser Current (mA):	823
Laser Diode Temp (C):	25
Laser Case Temp (C):	26.3
System Temp (C):	26.3
Spectrometer Temp (C):	24.2
CCD Temp (C):	0.01
Secondary Temp (C):	20.008
Heatsink Temp (C):	20.457
CCDPCB Temp (C):	35.951
SecondaryPCB Temp (C):	30.538

Wavelength	RamanShift	Raw Counts	Dark Subtracted
787.061	30.1047	466.65	58.6
787.2016	32.3739	467.15	61.35
787.3422	34.6426	471.75	64.1
787.4828	36.9109	480.55	72.1
787.6235	39.1787	491.25	79.65
787.7642	41.4461	498.65	81.35
787.9049	43.7131	507	86.55
788.0456	45.9796	517.1	94.5
788.1863	48.2456	527.35	99.9
788.3271	50.5112	536.4	103.85
788.4679	52.7764	546.7	111.35
788.6087	55.0411	558.2	118.7
788.7496	57.3054	573.7	129.1
788.8904	59.5692	582.25	136.55
789.0313	61.8326	591.95	144.55
789.1722	64.0955	602.75	151.4
789.3132	66.3579	623.85	166.1
789.4541	68.6199	647.75	186.55
789.5951	70.8815	680.7	214.3
789.7361	73.1426	762.15	293.2
789.8771	75.4032	982.3	510.1
790.0181	77.6634	1523.15	1043.75
790.1592	79.9231	2773.45	2287.45
790.3003	82.1824	5543.6	5040.15
790.4414	84.4412	10481.85	9948.85
790.5825	86.6995	17280.2	16710.35
790.7237	88.9574	23948.8	23344.05
790.8648	91.2148	28553.7	27927.2
791.006	93.4717	30726.05	30082.2
791.1472	95.7282	31258.65	30614.65
791.2885	97.9842	31261.45	30610.95
791.4297	100.2398	30774.75	30123.1
791.571	102.4949	30192.45	29538.55
791.7123	104.7495	29417	28757.6
791.8536	107.0036	28671.05	28009.9
791.9949	109.2573	27921.1	27261.8
792.1363	111.5105	27237.75	26574.2
792.2777	113.7632	26523.3	25860.25
792.4191	116.0154	25951.3	25281.35
792.5605	118.2672	25511.25	24839.55
792.7019	120.5185	25074.7	24401.7
792.8434	122.7693	24767.9	24096.95
792.9849	125.0197	24472.4	23796.2
793.1264	127.2696	24200.7	23521.25
793.2679	129.519	24074.6	23389.55
793.4094	131.7679	23902.1	23212.3
793.551	134.0163	23762.05	23071.3
793.6926	136.2642	23577.05	22881.9
793.8342	138.5117	23384.65	22685.6
793.9758	140.7587	23190.25	22492.8
794.1175	143.0052	22992.2	22292.1
794.2591	145.2512	22750.2	22047.55
794.4008	147.4967	22544.55	21842.8
794.5425	149.7417	22390.65	21684.35
794.6842	151.9863	22300.35	21588.7
794.826	154.2304	22259.95	21544.4
794.9677	156.4739	22100.45	21379.05
795.1095	158.717	22108.45	21389
795.2513	160.9596	21978.85	21250.95
795.3931	163.2017	21741.5	21016.35
795.535	165.4433	21464.65	20736.6
795.6768	167.6844	21140.8	20410.75
795.8187	169.925	20841.2	20107.5
795.9606	172.1651	20458.35	19721.75
796.1025	174.4047	20197.05	19456.9
796.2445	176.6439	19961.65	19227.55
796.3864	178.8825	19767.95	19028.25
796.5284	181.1206	19646.7	18897.6
796.6704	183.3582	19487.3	18733.75
796.8124	185.5954	19370.9	18613.2
796.9544	187.832	19295.35	18536.9
797.0965	190.0681	19293.7	18532.1
797.2386	192.3037	19299.6	18536.5
797.3806	194.5388	19316.15	18550.5
797.5228	196.7734	19363.45	18595.8
797.6649	199.0075	19471.15	18703.2
797.807	201.2411	19610.2	18835
797.9492	203.4742	19718.3	18945.7
798.0914	205.7068	19908.4	19128.2
798.2336	207.9389	20020.05	19244.45
798.3758	210.1704	20186.1	19415.15
798.518	212.4015	20322.4	19568.1
798.6603	214.632	20481.6	19728.65
798.8025	216.862	20688.6	19932.15
798.9448	219.0915	20854.9	20096.95
799.0871	221.3205	21147.15	20389.95
799.2294	223.549	21392.4	20635.55
799.3718	225.777	21715.4	20961.95
799.5141	228.0044	22062.5	21297.15
799.6565	230.2314	22550.2	21780.2
799.7989	232.4578	22971.75	22209.3
799.9413	234.6837	23376.65	22602.65
800.0837	236.909	23582.5	22804.85
800.2262	239.1339	23584.05	22781.9
800.3687	241.3582	23421.65	22635.25
800.5111	243.582	23110.05	22292
800.6536	245.8053	22793.7	21985.6
800.7961	248.0281	22449.2	21648.3
800.9387	250.2503	22236.2	21431.4
801.0812	252.472	22123.95	21323.95
801.2238	254.6932	22083.3	21278.6
801.3664	256.9139	22021	21216.45
801.509	259.134	22030.2	21220.15
801.6516	261.3536	22041.9	21234.25
801.7942	263.5727	22125.9	21317.45
801.9369	265.7912	22054.05	21245
802.0795	268.0092	22105.65	21297.65
802.2222	270.2267	22123.4	21312.55
802.3649	272.4436	22098.6	21285.3
802.5076	274.6601	22102.85	21277.9
802.6504	276.8759	22030.8	21218.05
802.7931	279.0913	21974	21158.5
802.9359	281.3061	21946.85	21125
803.0787	283.5204	22027.3	21205.55
803.2215	285.7341	22163.55	21338.25
803.3643	287.9473	22340.45	21504.2
803.5071	290.16	22573.85	21746.95
803.6499	292.3721	22859.9	22035.5
803.7928	294.5837	23300.35	22474.6
803.9357	296.7947	23648.8	22823.55
804.0786	299.0052	23881.65	23057.45
804.2215	301.2152	23722.15	22893.4
804.3644	303.4246	23444.35	22619.3
804.5074	305.6334	22875.1	22048.15
804.6503	307.8418	22396.85	21567.3
804.7933	310.0495	22058.5	21232.95
804.9363	312.2568	21721.9	20893.45
805.0793	314.4635	21510.1	20670.65
805.2223	316.6696	21442	20610.4
805.3653	318.8752	21379.8	20537.35
805.5084	321.0802	21419.95	20582.55
805.6514	323.2847	21592.3	20752.6
805.7945	325.4887	21650.25	20811.4
805.9376	327.692	21604.9	20762.85
806.0807	329.8949	21487.95	20647.35
806.2238	332.0972	21246.7	20407.4
806.367	334.2989	20983.4	20136.4
806.5101	336.5001	20737.8	19893.1
806.6533	338.7007	20551.1	19703.15
806.7965	340.9008	20443.6	19597.6
806.9397	343.1003	20349.3	19504.35
807.0829	345.2992	20316.3	19467.65
807.2261	347.4976	20331.6	19479.1
807.3693	349.6955	20291.15	19434.75
807.5126	351.8927	20401.7	19547.9
807.6559	354.0895	20384.15	19518.35
807.7991	356.2856	20443.45	19587.45
807.9424	358.4812	20443.3	19588.65
808.0857	360.6763	20477.9	19617.5
808.2291	362.8707	20492.95	19636.75
808.3724	365.0646	20541.9	19673.95
808.5158	367.258	20579.65	19714.35
808.6591	369.4508	20642.6	19774.6
808.8025	371.643	20722.65	19853.25
808.9459	373.8346	20719.2	19847.95
809.0893	376.0257	20691.1	19819.55
809.2327	378.2162	20629.5	19760.25
809.3762	380.4062	20577.55	19704.75
809.5196	382.5956	20404.8	19539.75
809.6631	384.7844	20340.4	19480.4
809.8066	386.9726	20230.6	19373.5
809.9501	389.1603	20182.6	19323.6
810.0936	391.3474	20175.55	19281.35
810.2371	393.5339	20195.25	19329.2
810.3806	395.7199	20112.2	19252.5
810.5241	397.9052	20160.35	19300.8
810.6677	400.09	20178.1	19315.35
810.8113	402.2743	20285.25	19422.65
810.9548	404.4579	20354.1	19488.25
811.0984	406.641	20534.55	19669.85
811.2421	408.8235	20811.1	19947.1
811.3857	411.0054	21099.8	20229
811.5293	413.1868	21543.1	20667.35
811.673	415.3675	21885.35	21007.3
811.8166	417.5477	22138	21258.1
811.9603	419.7273	22157.2	21277.4
812.104	421.9064	22045.15	21161.4
812.2477	424.0848	21944.3	21067.7
812.3914	426.2627	21714.2	20834.05
812.5351	428.4399	21432.9	20554.4
812.6788	430.6166	21099.25	20213.75
812.8226	432.7928	20779.3	19892.95
812.9663	434.9683	20463.3	19585.9
813.1101	437.1432	20254.95	19375
813.2539	439.3176	20083.6	19208.2
813.3977	441.4914	19953.25	19082.2
813.5415	443.6645	19956	19081.6
813.6853	445.8371	19909.25	19030.9
813.8291	448.0091	19849.95	18968.7
813.973	450.1806	19794.15	18918.15
814.1168	452.3514	19764.65	18888.75
814.2607	454.5216	19811.75	18924.75
814.4046	456.6913	19739.65	18860.05
814.5485	458.8603	19803.85	18925.45
814.6924	461.0288	19861.4	18990
814.8363	463.1967	19881.65	19009.85
814.9802	465.3639	20034.05	19157.95
815.1241	467.5306	20111.25	19235.25
815.2681	469.6967	20278.95	19405.05
815.412	471.8622	20424.45	19550.55
815.556	474.0271	20595.6	19723
815.7	476.1914	20660.6	19776.5
815.844	478.3551	20696.8	19815.6
815.988	480.5182	20675.65	19798.5
816.132	482.6807	20682.9	19812
816.276	484.8426	20807.55	19943.7
816.4201	487.0039	21062.6	20188.8
816.5641	489.1647	21492.6	20615.5
816.7082	491.3248	21966.65	21087.2
816.8522	493.4843	22143.55	21269.3
816.9963	495.6432	22136.2	21257.85
817.1404	497.8015	22099.75	21212.6
817.2845	499.9592	22142.75	21247.25
817.4286	502.1163	22090.05	21196.3
817.5727	504.2728	21826.3	20943.65
817.7168	506.4287	21584.1	20709.1
817.861	508.5839	21123.75	20249.1
818.0051	510.7386	20840.55	19960.2
818.1493	512.8927	20655	19769.75
818.2935	515.0461	20600.55	19713.15
818.4377	517.199	20578.95	19684.9
818.5818	519.3512	20590.35	19698.65
818.726	521.5029	20635.75	19743.4
818.8703	523.6539	20732.3	19842.3
819.0145	525.8043	20800.15	19907.65
819.1587	527.9541	20850.05	19954.1
819.303	530.1033	20821.9	19926.05
819.4472	532.2519	20889.4	19996.6
819.5915	534.3999	21022	20131.05
819.7357	536.5472	21289.3	20399.7
819.88	538.694	21778.55	20889.7
820.0243	540.8401	22387.5	21494.6
820.1686	542.9856	22917.9	22017.45
820.3129	545.1305	23067.5	22161.4
820.4572	547.2748	22983.65	22071.1
820.6016	549.4185	22626.75	21713.15
820.7459	551.5615	22259.85	21349.6
820.8902	553.704	22132.45	21226.5
821.0346	555.8458	22111.3	21211.55
821.1789	557.987	22157.35	21259.55
821.3233	560.1276	22128.55	21227.45
821.4677	562.2675	22179.25	21278.3
821.6121	564.4069	22247.25	21342.8
821.7565	566.5456	22279.05	21378.15
821.9009	568.6837	22186.8	21287.1
822.0453	570.8212	21914.65	21014.15
822.1897	572.958	21592.1	20693.4
822.3342	575.0942	21302.95	20405.95
822.4786	577.2299	21111.45	20217.75
822.6231	579.3648	21074.8	20189.35
822.7675	581.4992	21104.8	20229.9
822.912	583.6329	21346.35	20471.95
823.0565	585.766	21587.95	20709.6
823.201	587.8985	21730.35	20841.45
823.3454	590.0304	21747.5	20837.65
823.4899	592.1616	21664.05	20762.15
823.6345	594.2922	21577.6	20672.65
823.779	596.4222	21454.65	20544.75
823.9235	598.5515	21291.7	20383.5
824.068	600.6802	21149.9	20239.65
824.2126	602.8083	20973.75	20072.4
824.3571	604.9358	20957.25	20054.55
824.5017	607.0626	20855.2	19947.25
824.6462	609.1888	20853	19937.8
824.7908	611.3144	20837.6	19918.35
824.9354	613.4393	20746.9	19831.15
825.08	615.5636	20658.8	19745.35
825.2246	617.6873	20575.35	19661.2
825.3692	619.8103	20543.05	19627.2
825.5138	621.9327	20452.5	19543.75
825.6584	624.0544	20430.25	19522.3
825.803	626.1756	20431.45	19526.3
825.9477	628.2961	20407.75	19494.25
826.0923	630.4159	20302.55	19389.9
826.237	632.5351	20304.75	19389.4
826.3816	634.6537	20249.65	19331.55
826.5263	636.7716	20276.35	19354.55
826.6709	638.8889	20342.65	19421.9
826.8156	641.0056	20390.75	19471.3
826.9603	643.1216	20369.4	19448.3
827.105	645.237	20450.6	19533.15
827.2497	647.3518	20414.85	19504.25
827.3944	649.4659	20464.95	19559.8
827.5391	651.5793	20449.5	19546.4
827.6838	653.6922	20433.3	19523.8
827.8285	655.8043	20464.1	19551.75
827.9733	657.9159	20474.1	19560.7
828.118	660.0268	20385.3	19471.65
828.2627	662.137	20365.8	19452.3
828.4075	664.2466	20404.6	19487.4
828.5522	666.3556	20367.95	19447.5
828.697	668.4639	20337.95	19419.85
828.8418	670.5716	20416.15	19505.8
828.9865	672.6786	20513.8	19596.75
829.1313	674.785	20503.05	19583.4
829.2761	676.8907	20587.75	19671.5
829.4209	678.9958	20688	19773.85
829.5657	681.1002	20651.5	19733.9
829.7105	683.204	20688.65	19764.05
829.8553	685.3072	20643.6	19719.9
830.0001	687.4097	20592.3	19672.55
830.1449	689.5115	20573.2	19649
830.2898	691.6127	20532.7	19612.35
830.4346	693.7132	20500.95	19583.25
830.5794	695.8131	20484	19544.95
830.7243	697.9123	20496.75	19570.35
830.8691	700.0109	20449.85	19522.4
831.014	702.1089	20448.9	19526.85
831.1588	704.2061	20487.25	19565.2
831.3037	706.3028	20524.8	19599.6
831.4486	708.3987	20592.95	19668
831.5935	710.4941	20707.45	19781.25
831.7383	712.5887	20900.7	19976.7
831.8832	714.6827	21187.7	20265.5
832.0281	716.7761	21523.4	20601.3
832.173	718.8688	21878.25	20954.75
832.3179	720.9608	22080.75	21148.1
832.4628	723.0522	22205.55	21267.3
832.6077	725.1429	22007.1	21074.15
832.7527	727.233	21758.8	20834
832.8976	729.3224	21549.25	20620.4
833.0425	731.4112	21267.45	20342.2
833.1874	733.4993	21069.3	20140
833.3324	735.5867	20907.35	19982.3
833.4773	737.6735	20860.55	19932.6
833.6222	739.7596	20799.25	19868.85
833.7672	741.845	20745.55	19816.65
833.9122	743.9298	20723.45	19791.65
834.0571	746.014	20758	19834.8
834.2021	748.0974	20731.4	19796
834.347	750.1802	20761.25	19824.8
834.492	752.2624	20772.75	19839.6
834.637	754.3439	20818.35	19884.9
834.782	756.4247	20897.1	19952.95
834.9269	758.5048	21014.25	20081.7
835.0719	760.5843	21237.2	20302.75
835.2169	762.6631	21537.1	20602.6
835.3619	764.7413	21956.25	21019.3
835.5069	766.8188	22571.45	21638.15
835.6519	768.8956	23002.2	22068.15
835.7969	770.9718	23377.85	22446.85
835.9419	773.0473	23222	22288.7
836.0869	775.1221	22908.35	21976.1
836.232	777.1962	22543.9	21612.85
836.377	779.2697	22363.25	21429.9
836.522	781.3426	22414.2	21460.95
836.667	783.4147	22614.1	21680.8
836.8121	785.4862	22971.8	22034.75
836.9571	787.557	23023.75	22087.2
837.1021	789.6271	22688.65	21752.2
837.2472	791.6966	22126.65	21190.05
837.3922	793.7654	21588.75	20654.25
837.5373	795.8335	21304.15	20368.3
837.6823	797.901	21107.65	20170.4
837.8274	799.9678	21052.55	20116.9
837.9724	802.0339	21084.25	20145.75
838.1175	804.0993	21166.4	20220.25
838.2626	806.1641	21165.85	20225
838.4076	808.2282	21124.6	20186.6
838.5527	810.2916	21057.8	20119.25
838.6978	812.3544	20963.25	20028
838.8428	814.4164	20880.3	19946.75
838.9879	816.4778	20922.7	19981.3
839.133	818.5385	20901.9	19962.7
839.2781	820.5986	20986.1	20046.85
839.4232	822.658	21121.55	20179.95
839.5682	824.7166	21215.35	20275.65
839.7133	826.7747	21490.35	20553.25
839.8584	828.832	21752.4	20810.7
840.0035	830.8886	21824	20883.05
840.1486	832.9446	21968.55	21023.95
840.2937	834.9999	22040.15	21101.2
840.4388	837.0545	22060.85	21116.85
840.5839	839.1085	22031.55	21089.4
840.729	841.1618	22023.05	21080.25
840.8741	843.2143	21964.8	21022.85
841.0192	845.2662	21885.75	20946.3
841.1643	847.3175	21858.7	20915.6
841.3095	849.368	21752.6	20810.7
841.4546	851.4179	21635.75	20696.85
841.5997	853.467	21514.05	20571.8
841.7448	855.5155	21465.75	20527.4
841.8899	857.5633	21333.55	20390
842.0351	859.6105	21215	20274.75
842.1802	861.6569	21167.1	20222.9
842.3253	863.7027	21120.25	20173.9
842.4704	865.7478	21144.45	20198.6
842.6156	867.7922	21147.65	20202.95
842.7607	869.8359	21210.7	20268.35
842.9058	871.8789	21355.2	20410.6
843.0509	873.9212	21553.2	20577.25
843.1961	875.9629	21664.55	20721.45
843.3412	878.0039	21854.65	20910.75
843.4863	880.0441	21982.2	21039.9
843.6315	882.0837	22041.25	21100.95
843.7766	884.1226	21944.4	21001
843.9218	886.1609	21827.9	20884.75
844.0669	888.1984	21809.3	20865.95
844.212	890.2352	21822	20878.6
844.3572	892.2714	21811.15	20863.55
844.5023	894.3069	21796.6	20850.35
844.6475	896.3416	21697.9	20756.05
844.7926	898.3757	21684.4	20740.6
844.9377	900.4091	21696	20749
845.0829	902.4418	21708.2	20757.9
845.228	904.4739	21718.35	20769.8
845.3732	906.5052	21722.95	20773.6
845.5183	908.5358	21648.5	20702.1
845.6635	910.5658	21473.55	20525.15
845.8086	912.595	21361	20416.95
845.9538	914.6236	21239.5	20293
846.0989	916.6515	21170.6	20225.7
846.2441	918.6786	21177.65	20227.6
846.3892	920.7051	21246.45	20294.25
846.5344	922.7309	21397.4	20452.05
846.6795	924.756	21458.55	20511.05
846.8246	926.7804	21564.55	20615.55
846.9698	928.8041	21466.05	20516.4
847.1149	930.8272	21550.7	20602.15
847.2601	932.8495	21470.85	20522.5
847.4052	934.8711	21430	20478.35
847.5504	936.892	21278.05	20331.75
847.6955	938.9123	21139.65	20191.2
847.8407	940.9318	21004.1	20058.95
847.9858	942.9506	20910.2	19964.35
848.131	944.9688	20852.1	19908.65
848.2761	946.9862	20776.25	19827.05
848.4213	949.003	20698.25	19751
848.5664	951.019	20693.1	19748.95
848.7115	953.0344	20719.6	19770.4
848.8567	955.0491	20720.85	19775.05
849.0018	957.063	20869.1	19918.4
849.147	959.0763	20990.45	20045.7
849.2921	961.0888	21034.2	20087.45
849.4373	963.1007	21116.3	20173.1
849.5824	965.1119	21154.95	20218.25
849.7275	967.1223	21220.65	20292.75
849.8727	969.1321	21244.35	20311.7
850.0178	971.1412	21284.5	20348.4
850.1629	973.1495	21284.8	20345.85
850.3081	975.1572	21363.15	20369.75
850.4532	977.1641	21399.15	20449.4
850.5983	979.1704	21347.25	20394.6
850.7435	981.1759	21371.3	20421.9
850.8886	983.1808	21470.7	20520.7
851.0337	985.1849	21548.6	20592.35
851.1788	987.1884	21674.7	20722.95
851.324	989.1911	21837.2	20888.55
851.4691	991.1932	21963.4	21019.2
851.6142	993.1945	21979.9	21034.6
851.7593	995.1951	21913	20965.8
851.9045	997.1951	21925.85	20973.35
852.0496	999.1943	21792.05	20844.75
852.1947	1001.1928	21762.4	20810
852.3398	1003.1906	21751.95	20805.9
852.4849	1005.1877	21814.5	20867.85
852.63	1007.1841	21769.6	20826.65
852.7751	1009.1798	21681.3	20738.2
852.9202	1011.1748	21522.2	20576.15
853.0653	1013.1691	21350.75	20403.55
853.2104	1015.1627	21064.65	20121.8
853.3555	1017.1556	20838.1	19894
853.5006	1019.1477	20784	19840.55
853.6457	1021.1392	20674.95	19735.55
853.7908	1023.1299	20644.55	19709.1
853.9359	1025.12	20649.1	19721.65
854.081	1027.1093	20694.8	19777.9
854.2261	1029.0979	20787.05	19873.85
854.3712	1031.0859	20848.55	19928.35
854.5163	1033.0731	20774.6	19840.05
854.6613	1035.0596	20755.35	19818.35
854.8064	1037.0454	20598.25	19658.1
854.9515	1039.0304	20482.05	19540.1
855.0965	1041.0148	20351.1	19410.45
855.2416	1042.9985	20242.05	19295.85
855.3867	1044.9814	20256.2	19312.6
855.5317	1046.9636	20178.9	19236.65
855.6768	1048.9452	20145.55	19204.35
855.8219	1050.926	20160.45	19218.9
855.9669	1052.9061	20186.1	19239.95
856.112	1054.8855	20140.7	19197.3
856.257	1056.8642	20218.6	19274.15
856.4021	1058.8421	20271	19319.4
856.5471	1060.8194	20279.15	19335.05
856.6921	1062.7959	20295.25	19348.7
856.8372	1064.7717	20344.85	19397.85
856.9822	1066.7469	20386.55	19441.75
857.1272	1068.7213	20390.1	19443.05
857.2723	1070.695	20363.4	19419.35
857.4173	1072.6679	20289.7	19344.85
857.5623	1074.6402	20235.3	19291.15
857.7073	1076.6117	20272.85	19322.4
857.8523	1078.5826	20254.95	19306.2
857.9973	1080.5527	20246.25	19295.6
858.1423	1082.5221	20342.7	19396.4
858.2873	1084.4908	20539.1	19593.85
858.4323	1086.4587	20693.65	19751.7
858.5773	1088.426	20845.3	19899.65
858.7223	1090.3925	20801.3	19849.25
858.8673	1092.3584	20783.8	19837.25
859.0123	1094.3235	20633.15	19689.55
859.1573	1096.2879	20575.15	19633.65
859.3022	1098.2515	20556.9	19613.55
859.4472	1100.2145	20621.9	19679.8
859.5922	1102.1767	20695.2	19749.95
859.7371	1104.1382	20866.85	19922.6
859.8821	1106.099	21095.65	20151.3
860.027	1108.0591	21275.75	20333.25
860.172	1110.0185	21407.45	20462.05
860.3169	1111.9771	21421.55	20476.5
860.4619	1113.9351	21194.95	20251.75
860.6068	1115.8923	20937.95	19995.95
860.7517	1117.8488	20642.8	19697.5
860.8967	1119.8045	20362.4	19422.5
861.0416	1121.7596	20251.8	19309.7
861.1865	1123.7139	20160.85	19221.25
861.3314	1125.6675	20166.8	19225.55
861.4763	1127.6204	20239.45	19296.6
861.6212	1129.5726	20216.35	19270.75
861.7661	1131.524	20250.6	19304.9
861.911	1133.4748	20207.7	19265.65
862.0559	1135.4248	20183.65	19240.85
862.2008	1137.3741	20140.7	19196.2
862.3457	1139.3226	20103.85	19160.1
862.4905	1141.2705	20110.25	19166.5
862.6354	1143.2176	19988.65	19039.7
862.7803	1145.164	19970.05	19025.4
862.9251	1147.1097	19943.1	18998.35
863.07	1149.0546	19965.7	19022.8
863.2148	1150.9989	19876.95	18933.15
863.3597	1152.9424	19771.45	18825.8
863.5045	1154.8852	19614.5	18671.15
863.6493	1156.8272	19494.2	18552.2
863.7942	1158.7686	19478.55	18528.3
863.939	1160.7092	19422.95	18477.5
864.0838	1162.6491	19388.15	18443.25
864.2286	1164.5883	19494.35	18553.6
864.3734	1166.5267	19567.1	18623.15
864.5182	1168.4644	19727.15	18785.6
864.663	1170.4014	19904.3	18961.2
864.8078	1172.3377	20133.8	19194.55
864.9526	1174.2732	20397.5	19455.55
865.0974	1176.2081	20640.95	19699.5
865.2421	1178.1421	20848.9	19902.3
865.3869	1180.0755	21088.8	20146.35
865.5317	1182.0082	21172	20231.55
865.6764	1183.9401	21191.7	20250.9
865.8212	1185.8713	21027.35	20095.1
865.9659	1187.8017	20754.7	19827.65
866.1106	1189.7315	20543.65	19623.9
866.2554	1191.6605	20200.15	19283.7
866.4001	1193.5888	19971.25	19046.05
866.5448	1195.5163	19882.75	18946.1
866.6895	1197.4432	19797.2	18858.5
866.8342	1199.3693	19726.35	18789.5
866.9789	1201.2947	19658.15	18714
867.1236	1203.2193	19626.9	18686.6
867.2683	1205.1432	19661.85	18726.15
867.413	1207.0664	19640.65	18704.05
867.5576	1208.9889	19657.55	18717.35
867.7023	1210.9106	19691.9	18751.15
867.847	1212.8316	19726.3	18788.45
867.9916	1214.7519	19816	18868.75
868.1363	1216.6715	19804.8	18864.95
868.2809	1218.5903	19790.4	18851.3
868.4255	1220.5084	19755.45	18815.8
868.5701	1222.4257	19761.85	18824.3
868.7148	1224.3424	19653.45	18719.8
868.8594	1226.2583	19744.4	18804.45
869.004	1228.1735	19841.7	18904.3
869.1486	1230.0879	19910.2	18971.9
869.2932	1232.0016	19991.7	19054.3
869.4377	1233.9146	20018	19079.7
869.5823	1235.8269	19935.2	19001.05
869.7269	1237.7384	19847.1	18909.75
869.8715	1239.6492	19636.65	18698.7
870.016	1241.5592	19520.25	18580.7
870.1606	1243.4686	19410.1	18472.7
870.3051	1245.3772	19398.4	18456.7
870.4496	1247.285	19349.95	18410.8
870.5941	1249.1922	19335.25	18398.15
870.7387	1251.0986	19344.15	18408.35
870.8832	1253.0042	19307.65	18366.75
871.0277	1254.9092	19330.8	18394.25
871.1722	1256.8134	19429	18491.9
871.3167	1258.7169	19554.8	18618.8
871.4611	1260.6196	19678.9	18746.1
871.6056	1262.5216	19880.65	18942.7
871.7501	1264.4229	20044.8	19105.2
871.8945	1266.3234	20221.05	19285.25
872.039	1268.2232	20303.2	19366.65
872.1834	1270.1223	20230.1	19293.1
872.3278	1272.0207	20222.85	19285.4
872.4723	1273.9183	20215.75	19271.8
872.6167	1275.8151	20136.1	19198.75
872.7611	1277.7113	20023.85	19086.85
872.9055	1279.6067	19923.35	18988.55
873.0499	1281.5014	19825.85	18888.8
873.1943	1283.3953	19786.85	18847.65
873.3386	1285.2885	19782.45	18849.1
873.483	1287.181	19832.2	18896.95
873.6274	1289.0727	19989.35	19056.1
873.7717	1290.9637	20027.45	19094.2
873.9161	1292.854	20165.15	19231.45
874.0604	1294.7435	20264.85	19331.4
874.2047	1296.6323	20443.55	19510.7
874.349	1298.5204	20652.35	19714.1
874.4933	1300.4077	20822.1	19887.3
874.6376	1302.2943	20988.4	20052.4
874.7819	1304.1802	21039.35	20107.3
874.9262	1306.0653	20909.55	19971.6
875.0705	1307.9497	20668.25	19735.6
875.2147	1309.8333	20504.25	19572.25
875.359	1311.7162	20386.35	19449.8
875.5032	1313.5984	20410.3	19475.2
875.6475	1315.4798	20405.4	19458.55
875.7917	1317.3605	20464.4	19511.1
875.9359	1319.2405	20520	19582
876.0801	1321.1197	20483.3	19547.3
876.2243	1322.9982	20297.75	19359.8
876.3685	1324.876	20279.6	19346
876.5127	1326.753	20118.05	19179.5
876.6569	1328.6293	20116.4	19178.15
876.801	1330.5048	20090.85	19149.25
876.9452	1332.3796	20041.65	19106.45
877.0893	1334.2537	20035.2	19077.45
877.2335	1336.127	19929.7	18991.55
877.3776	1337.9996	19890.4	18954.65
877.5217	1339.8714	19866.05	18927.15
877.6658	1341.7426	19855.85	18874.2
877.8099	1343.6129	19784.85	18850.55
877.954	1345.4826	19754.9	18817.85
878.0981	1347.3515	19746.85	18807.8
878.2422	1349.2196	19679.5	18740.55
878.3862	1351.087	19696.55	18756.25
878.5303	1352.9537	19722.8	18783.95
878.6743	1354.8197	19797.2	18858.2
878.8184	1356.6849	19980.1	19043.95
878.9624	1358.5493	20042.25	19107.05
879.1064	1360.4131	20057.7	19122.6
879.2504	1362.276	20002.7	19069.95
879.3944	1364.1383	19881.55	18946.7
879.5384	1365.9998	19605.1	18662.55
879.6823	1367.8606	19281.5	18343.25
879.8263	1369.7206	18974	18039.65
879.9702	1371.5799	18745.55	17808.85
880.1142	1373.4384	18562.6	17629
880.2581	1375.2962	18411.15	17476.3
880.402	1377.1533	18112.2	17179.6
880.5459	1379.0096	17774.05	16843.8
880.6898	1380.8652	17490.2	16560.7
880.8337	1382.7201	17217.5	16284.35
880.9776	1384.5742	17012.95	16079.6
881.1215	1386.4275	16770.65	15832.35
881.2653	1388.2802	16627.7	15694.55
881.4092	1390.132	16532.1	15594.75
881.553	1391.9832	16450.4	15514.45
881.6968	1393.8336	16323.8	15388.15
881.8406	1395.6832	16263.45	15327.9
881.9844	1397.5322	16199.75	15267.95
882.1282	1399.3803	16202.6	15264.35
882.272	1401.2278	16109.95	15176.95
882.4158	1403.0745	16073.3	15141.95
882.5595	1404.9204	16038.2	15106.3
882.7033	1406.7656	16044.45	15111.25
882.847	1408.6101	16028.45	15096.75
882.9908	1410.4538	16025.4	15089.2
883.1345	1412.2968	16055.05	15119.85
883.2782	1414.139	16035.7	15101.6
883.4219	1415.9805	16117.55	15185.4
883.5656	1417.8213	16161.65	15222.75
883.7092	1419.6613	16242.55	15310.25
883.8529	1421.5006	16466.8	15534.95
883.9965	1423.3391	16677.25	15743.15
884.1402	1425.1769	16954.45	16020.3
884.2838	1427.0139	17421.1	16485.75
884.4274	1428.8502	17974.1	17038.75
884.571	1430.6858	18527.6	17597.85
884.7146	1432.5206	18924.85	17992.9
884.8582	1434.3547	19118.4	18183.9
885.0018	1436.188	19160.1	18226.25
885.1453	1438.0206	19072.5	18137.65
885.2889	1439.8524	18885.35	17952.7
885.4324	1441.6835	18762.9	17832.25
885.5759	1443.5139	18642.35	17707
885.7194	1445.3435	18589.15	17658.65
885.8629	1447.1724	18555.55	17626.05
886.0064	1449.0005	18447.15	17517.25
886.1499	1450.8279	18324.35	17395.9
886.2933	1452.6545	18291.25	17360.15
886.4368	1454.4804	18326.05	17398.75
886.5802	1456.3056	18305.95	17370.8
886.7237	1458.13	18203.15	17273.9
886.8671	1459.9536	18006.45	17075.8
887.0105	1461.7766	17624.25	16695.7
887.1539	1463.5987	17227.45	16293.8
887.2972	1465.4202	16830.9	15899
887.4406	1467.2409	16429.3	15496.75
887.584	1469.0608	16171.8	15239.15
887.7273	1470.88	15894.7	14963.9
887.8706	1472.6984	15699.7	14768.35
888.0139	1474.5161	15442.3	14507.35
888.1572	1476.3331	15238.7	14307.1
888.3005	1478.1493	15144.95	14212.45
888.4438	1479.9648	15051.35	14120.2
888.5871	1481.7795	14953.7	14022.6
888.7303	1483.5935	14859.05	13928.1
888.8736	1485.4067	14780.45	13849.45
889.0168	1487.2192	14722.1	13793.2
889.16	1489.031	14663.5	13731.8
889.3032	1490.842	14579	13647.55
889.4464	1492.6522	14560.25	13630.1
889.5896	1494.4618	14492.2	13561
889.7327	1496.2705	14486.2	13556.8
889.8759	1498.0785	14416.4	13487.7
890.019	1499.8858	14391.5	13463.1
890.1622	1501.6924	14340.2	13410.6
890.3053	1503.4981	14319.3	13390.45
890.4484	1505.3032	14271.05	13343.8
890.5914	1507.1075	14240.5	13310
890.7345	1508.911	14169.7	13242.95
890.8776	1510.7138	14142.95	13214.25
891.0206	1512.5159	14068.95	13138.45
891.1637	1514.3172	14013.85	13086.55
891.3067	1516.1178	13937.5	13008.35
891.4497	1517.9176	13907.75	12978.5
891.5927	1519.7166	13865.65	12939.6
891.7357	1521.515	13832.3	12899.4
891.8786	1523.3126	13751.2	12823.6
892.0216	1525.1094	13697.4	12767.5
892.1645	1526.9055	13696.55	12769.55
892.3074	1528.7008	13609.7	12684.75
892.4503	1530.4954	13567.5	12642.45
892.5932	1532.2893	13521.1	12601.05
892.7361	1534.0824	13440.15	12512.35
892.879	1535.8747	13412.55	12491.65
893.0218	1537.6663	13422.05	12501.75
893.1647	1539.4572	13362.35	12440.3
893.3075	1541.2473	13368	12446.75
893.4503	1543.0367	13332.85	12412.15
893.5931	1544.8253	13279.6	12353.35
893.7359	1546.6132	13311.55	12383.9
893.8787	1548.4003	13259.85	12325.25
894.0214	1550.1867	13267.5	12338.1
894.1642	1551.9723	13275.95	12351.25
894.3069	1553.7572	13307.7	12387.55
894.4496	1555.5414	13328.95	12409.35
894.5923	1557.3247	13346.95	12428.55
894.735	1559.1074	13403.75	12486.85
894.8777	1560.8893	13470	12554.7
895.0204	1562.6705	13496.75	12582.05
895.163	1564.4509	13563.95	12649.05
895.3056	1566.2305	13623.4	12710.4
895.4482	1568.0094	13695.35	12783.1
895.5908	1569.7876	13694.95	12783.1
895.7334	1571.565	13706.5	12793.5
895.876	1573.3417	13724.45	12807.6
896.0186	1575.1176	13701.35	12788.3
896.1611	1576.8928	13626.05	12713.15
896.3036	1578.6672	13534.95	12630.4
896.4461	1580.4409	13435.75	12530.25
896.5886	1582.2138	13311.25	12400.45
896.7311	1583.986	13188.95	12277.8
896.8736	1585.7575	13136.35	12224.8
897.0161	1587.5282	13064.35	12159.1
897.1585	1589.2981	13015.6	12109.55
897.3009	1591.0673	12953.95	12050
897.4433	1592.8358	12952.85	12045.05
897.5857	1594.6035	12947.15	12032.65
897.7281	1596.3704	12938.3	12024.45
897.8705	1598.1366	12976.75	12065.05
898.0128	1599.9021	13002.25	12092.95
898.1551	1601.6668	13027.45	12118.6
898.2975	1603.4308	13101.5	12187.7
898.4398	1605.194	13181.65	12266.35
898.5821	1606.9564	13269.2	12364.85
898.7243	1608.7182	13424.3	12520.7
898.8666	1610.4791	13563.15	12665.8
899.0088	1612.2394	13696.1	12802.05
899.1511	1613.9988	13865.9	12969.1
899.2933	1615.7576	14061.75	13159.7
899.4355	1617.5156	14269.65	13354.95
899.5776	1619.2728	14427.2	13515.4
899.7198	1621.0293	14552.7	13644.45
899.862	1622.785	14567.65	13658.95
900.0041	1624.54	14393.55	13490.3
900.1462	1626.2942	14231.05	13325.75
900.2883	1628.0477	14003.55	13102.9
900.4304	1629.8005	13709.2	12804.8
900.5725	1631.5525	13512.95	12612.05
900.7145	1633.3037	13310.65	12407.95
900.8566	1635.0542	13164.8	12262.85
900.9986	1636.804	13052.65	12148.75
901.1406	1638.553	13019.75	12056.6
901.2826	1640.3013	12917.7	12013.75
901.4245	1642.0488	12859.45	11954.75
901.5665	1643.7955	12892.4	11992.85
901.7085	1645.5416	12933.9	12033.75
901.8504	1647.2868	12983.5	12082.7
901.9923	1649.0313	13051.65	12145.65
902.1342	1650.7751	13194.7	12289.2
902.2761	1652.5181	13357.05	12455.15
902.4179	1654.2604	13521.75	12622.35
902.5598	1656.0019	13777.4	12879.3
902.7016	1657.7427	14069.75	13169.9
902.8434	1659.4828	14366.1	13462.85
902.9852	1661.222	14555.25	13651.6
903.127	1662.9606	14513.05	13610.9
903.2687	1664.6984	14313.9	13408.3
903.4105	1666.4354	13906.6	12999.5
903.5522	1668.1717	13409.8	12502.05
903.6939	1669.9072	12880.75	11974.6
903.8356	1671.642	12433.75	11526.7
903.9773	1673.3761	12106.2	11200.1
904.119	1675.1094	11773.4	10870.15
904.2606	1676.8419	11514.7	10610.55
904.4022	1678.5737	11327.95	10423.9
904.5439	1680.3048	11193.5	10287.05
904.6855	1682.0351	11061.25	10160
904.827	1683.7646	10972.1	10065.2
904.9686	1685.4934	10889.65	9984.6
905.1101	1687.2215	10793.3	9891.4
905.2517	1688.9488	10717.55	9816.8
905.3932	1690.6754	10653.2	9754.75
905.5347	1692.4012	10614.4	9710.25
905.6761	1694.1263	10525.4	9622.75
905.8176	1695.8506	10496.1	9594.1
905.9591	1697.5742	10453.7	9554.1
906.1005	1699.297	10389.9	9494.65
906.2419	1701.0191	10344.55	9448.85
906.3833	1702.7404	10305.55	9408.25
906.5246	1704.461	10240.45	9338.95
906.666	1706.1808	10221	9320.65
906.8073	1707.8999	10185.5	9288
906.9487	1709.6182	10106.6	9212
907.09	1711.3358	10067.45	9175.65
907.2313	1713.0527	10027.85	9137.25
907.3725	1714.7688	10003.35	9103
907.5138	1716.4841	9948.15	9048.2
907.655	1718.1987	9945.7	9043.4
907.7962	1719.9126	9893.9	9001.05
907.9374	1721.6257	9857.45	8961.4
908.0786	1723.338	9838.25	8945.45
908.2198	1725.0496	9771.2	8876.65
908.3609	1726.7605	9747.1	8850.45
908.502	1728.4706	9712.7	8819.05
908.6431	1730.18	9693.7	8798.85
908.7842	1731.8886	9641.9	8748.15
908.9253	1733.5964	9648.7	8733.85
909.0664	1735.3036	9607.45	8712.45
909.2074	1737.0099	9573.7	8683.05
909.3484	1738.7156	9550.25	8659
909.4894	1740.4204	9503.85	8608
909.6304	1742.1246	9469.45	8572.6
909.7714	1743.8279	9450.65	8556.8
909.9123	1745.5306	9425.3	8534.2
910.0532	1747.2325	9373.25	8482
910.1941	1748.9336	9361.05	8466.45
910.335	1750.634	9288.1	8388.4
910.4759	1752.3336	9277.8	8384.45
910.6168	1754.0325	9255.3	8365.3
910.7576	1755.7307	9212.5	8321.85
910.8984	1757.4281	9240.9	8347.95
911.0392	1759.1247	9215.65	8312.35
911.18	1760.8206	9207.6	8304.75
911.3208	1762.5158	9173.2	8272.05
911.4615	1764.2102	9114.35	8218.45
911.6022	1765.9039	9099.95	8205.9
911.7429	1767.5968	9066.9	8174.4
911.8836	1769.289	9063.95	8172.4
912.0243	1770.9804	9017.6	8122.35
912.1649	1772.6711	9025.55	8130.45
912.3056	1774.361	8977.35	8080
912.4462	1776.0502	8969.65	8073.85
912.5868	1777.7386	8943.7	8045.95
912.7274	1779.4263	8912.95	8019.95
912.8679	1781.1132	8912	8021.2
913.0084	1782.7994	8863.15	7973.45
913.149	1784.4849	8858.45	7968.75
913.2895	1786.1696	8832.75	7935.6
913.4299	1787.8535	8807.8	7920
913.5704	1789.5367	8775.6	7890.1
913.7108	1791.2192	8778.8	7888.75
913.8513	1792.9009	8753.65	7840.1
913.9917	1794.5818	8740.4	7843.5
914.132	1796.2621	8692	7797
914.2724	1797.9415	8675.8	7783.8
914.4128	1799.6202	8678.25	7781.95
914.5531	1801.2982	8634.5	7738.1
914.6934	1802.9755	8629.85	7735.5
914.8337	1804.6519	8612.25	7719.9
914.9739	1806.3277	8571.7	7681.15
915.1142	1808.0027	8528.8	7639.6
915.2544	1809.6769	8525.2	7637.45
915.3946	1811.3504	8468.4	7579.3
915.5348	1813.0231	8463.65	7575.35
915.675	1814.6951	8463.05	7573.5
915.8151	1816.3664	8455.7	7560
915.9553	1818.0369	8446.9	7554.7
916.0954	1819.7067	8409	7518
916.2355	1821.3757	8414.95	7519.4
916.3755	1823.044	8371.35	7477.15
916.5156	1824.7115	8354.55	7459.2
916.6556	1826.3783	8310.4	7420.3
916.7956	1828.0443	8307.15	7416.5
916.9356	1829.7096	8278.65	7384.65
917.0756	1831.3741	8272.65	7378.35
917.2155	1833.0379	8226.15	7335.95
917.3555	1834.701	8222.25	7333.9
917.4954	1836.3633	8222.15	7335
917.6353	1838.0248	8168.75	7280.35
917.7751	1839.6856	8179.1	7287.65
917.915	1841.3457	8145.65	7252.4
918.0548	1843.005	8139.15	7245.8
918.1946	1844.6636	8142.75	7251.95
918.3344	1846.3214	8114.45	7221.6
918.4742	1847.9785	8086.75	7197.5
918.6139	1849.6349	8063.85	7169.3
918.7537	1851.2904	8079.05	7175.05
918.8934	1852.9453	8035.75	7141.9
919.0331	1854.5994	8037.9	7142.8
919.1727	1856.2528	8016.9	7118.6
919.3124	1857.9054	7987.5	7097.35
919.452	1859.5572	8001.05	7112.1
919.5916	1861.2083	7967.05	7076.1
919.7312	1862.8587	7975.7	7083.6
919.8708	1864.5084	7938.25	7042.1
920.0103	1866.1572	7902	7005.5
920.1498	1867.8054	7861.75	6967.3
920.2893	1869.4528	7850.7	6955.9
920.4288	1871.0994	7825.15	6932.35
920.5683	1872.7453	7834.2	6940.95
920.7077	1874.3905	7805.7	6896.9
920.8471	1876.0349	7795.7	6903.85
920.9865	1877.6786	7760.35	6865.65
921.1259	1879.3215	7775.95	6883.25
921.2653	1880.9637	7763.45	6869.35
921.4046	1882.6051	7749.65	6859.5
921.5439	1884.2458	7715.05	6821.5
921.6832	1885.8858	7697.65	6806.45
921.8225	1887.525	7680.4	6789.25
921.9617	1889.1634	7619.35	6726.6
922.101	1890.8011	7619.15	6729.7
922.2402	1892.4381	7598.3	6704.35
922.3794	1894.0743	7596.7	6703.7
922.5185	1895.7098	7563.5	6671.95
922.6577	1897.3446	7568.65	6675.85
922.7968	1898.9786	7559.3	6663.4
922.9359	1900.6118	7517.4	6626.2
923.075	1902.2443	7478.8	6588.8
923.214	1903.8761	7473.3	6581.4
923.3531	1905.5071	7419.35	6529.15
923.4921	1907.1374	7392.85	6501.2
923.6311	1908.7669	7390.85	6499.5
923.77	1910.3957	7373.1	6482.25
923.909	1912.0237	7339.6	6448.05
924.0479	1913.651	7350.5	6457.25
924.1868	1915.2776	7315.55	6427
924.3257	1916.9034	7287.7	6401.15
924.4646	1918.5285	7254.45	6366.85
924.6034	1920.1528	7226.3	6334.2
924.7422	1921.7764	7209.45	6318.15
924.881	1923.3992	7189.6	6298.75
925.0198	1925.0213	7144.3	6254.45
925.1586	1926.6427	7100.05	6210.55
925.2973	1928.2633	7189.1	6199.5
925.436	1929.8832	7098.95	6208.3
925.5747	1931.5023	7056.45	6163.85
925.7134	1933.1207	7039.9	6147.55
925.852	1934.7383	7028.1	6135.55
925.9906	1936.3552	7005.25	6117.85
926.1292	1937.9714	6985.85	6096.85
926.2678	1939.5868	6957.25	6062.95
926.4064	1941.2015	6912.9	6019.1
926.5449	1942.8154	6910.05	6015.9
926.6834	1944.4286	6881.65	5988.95
926.8219	1946.041	6877.15	5961.4
926.9604	1947.6528	6821.4	5926.4
927.0988	1949.2637	6812.9	5923.1
927.2372	1950.8739	6768.65	5879.85
927.3756	1952.4834	6783.2	5893.85
927.514	1954.0921	6760.85	5869.05
927.6523	1955.7001	6727.75	5833
927.7907	1957.3074	6709.9	5823.6
927.929	1958.9139	6652.35	5766.95
928.0673	1960.5197	6660.75	5773.6
928.2055	1962.1247	6632.2	5744.95
928.3438	1963.729	6604.7	5715
928.482	1965.3325	6579.7	5688.55
928.6202	1966.9353	6569.1	5684.3
928.7584	1968.5374	6552.4	5664.3
928.8965	1970.1387	6536.95	5651.15
929.0346	1971.7393	6518.85	5630.3
929.1727	1973.3392	6508.3	5621.8
929.3108	1974.9383	6457.65	5573
929.4489	1976.5366	6415.25	5529.35
929.5869	1978.1342	6426.3	5544.75
929.7249	1979.7311	6417.75	5533.45
929.8629	1981.3273	6397	5512.65
930.0009	1982.9227	6368.8	5483.05
930.1388	1984.5173	6357.4	5474.2
930.2767	1986.1112	6338.8	5457.45
930.4146	1987.7044	6298.25	5414.75
930.5525	1989.2968	6301.7	5417.7
930.6904	1990.8885	6284.35	5397.35
930.8282	1992.4795	6272.25	5389.6
930.966	1994.0697	6240	5358.75
931.1038	1995.6592	6240.95	5359.05
931.2415	1997.2479	6200.25	5316.2
931.3793	1998.8359	6196.5	5316
931.517	2000.4232	6146.65	5265.85
931.6547	2002.0097	6134.65	5258.3
931.7923	2003.5955	6111.8	5231.35
931.93	2005.1805	6104.9	5222.5
932.0676	2006.7648	6116.25	5236.1
932.2052	2008.3484	6061.35	5182
932.3427	2009.9312	6071.45	5191.4
932.4803	2011.5133	6034.2	5159.35
932.6178	2013.0946	6032.1	5153.05
932.7553	2014.6752	6011.05	5132.35
932.8928	2016.2551	5997.4	5115.05
933.0302	2017.8342	5959.15	5077.1
933.1676	2019.4126	5965.05	5084.8
933.305	2020.9902	5940.95	5065.05
933.4424	2022.5672	5933.9	5055.05
933.5798	2024.1433	5914.8	5032.5
933.7171	2025.7188	5894.7	5019.05
933.8544	2027.2935	5894.2	5017.3
933.9917	2028.8674	5862.65	4986.75
934.129	2030.4406	5862.9	4987.5
934.2662	2032.0131	5827.4	4950.2
934.4034	2033.5849	5834.5	4955
934.5406	2035.1559	5805.75	4928.05
934.6778	2036.7261	5782.05	4903.05
934.8149	2038.2957	5763.25	4881.55
934.952	2039.8645	5768.45	4884
935.0891	2041.4325	5758.55	4874.35
935.2262	2042.9998	5740.6	4861.45
935.3632	2044.5664	5723.15	4842.1
935.5002	2046.1323	5702.85	4825.4
935.6372	2047.6974	5704.9	4827.45
935.7742	2049.2617	5699	4819.95
935.9111	2050.8254	5702.9	4802
936.048	2052.3883	5662.9	4780.95
936.1849	2053.9504	5643.6	4764.1
936.3218	2055.5118	5623	4739.2
936.4586	2057.0725	5615.35	4729.75
936.5955	2058.6325	5586.3	4707.75
936.7323	2060.1917	5573.45	4696.1
936.869	2061.7502	5581.85	4700.35
937.0058	2063.3079	5541.6	4665.25
937.1425	2064.8649	5536.65	4655.4
937.2792	2066.4212	5503.75	4621.35
937.4159	2067.9767	5503.95	4625.2
937.5525	2069.5315	5464.6	4584.55
937.6891	2071.0856	5452.2	4571.6
937.8257	2072.6389	5446.05	4565.65
937.9623	2074.1915	5423.55	4547.45
938.0989	2075.7433	5389.95	4510.2
938.2354	2077.2945	5384.15	4505
938.3719	2078.8448	5388.8	4505.95
938.5084	2080.3945	5366.35	4484.35
938.6448	2081.9434	5358	4476.5
938.7812	2083.4916	5331.25	4449.1
938.9176	2085.039	5316.85	4429.95
939.054	2086.5857	5291.3	4402.15
939.1903	2088.1317	5297.45	4409.45
939.3267	2089.677	5288.35	4397.8
939.463	2091.2215	5290.15	4402.55
939.5992	2092.7652	5258.45	4366.55
939.7355	2094.3083	5238.75	4349.6
939.8717	2095.8506	5239	4352.9
940.0079	2097.3921	5229.4	4347.6
940.1441	2098.933	5200.9	4316.05
940.2802	2100.4731	5199.25	4316.3
940.4163	2102.0124	5207.15	4312.6
940.5524	2103.5511	5190.15	4304.1
940.6885	2105.089	5184.85	4300.65
940.8245	2106.6261	5160.15	4276.05
940.9606	2108.1626	5152.05	4269.05
941.0965	2109.6983	5151.55	4238.6
941.2325	2111.2332	5127.8	4242.4
941.3684	2112.7675	5100.3	4211.9
941.5044	2114.301	5079.9	4194.45
941.6403	2115.8337	5087.3	4202.9
941.7761	2117.3657	5063	4177.25
941.912	2118.897	5081.25	4193.3
942.0478	2120.4276	5052.5	4158.4
942.1835	2121.9575	5040.6	4154.4
942.3193	2123.4866	5038.85	4137.6
942.455	2125.0149	5013.15	4124.6
942.5907	2126.5426	4974.3	4091.7
942.7264	2128.0695	4992.6	4107.7
942.8621	2129.5956	4975.2	4097.05
942.9977	2131.1211	4959.8	4074.05
943.1333	2132.6458	4952.15	4071.25
943.2689	2134.1698	4929.5	4043.05
943.4044	2135.693	4938.9	4048.5
943.54	2137.2155	4926.95	4036.5
943.6755	2138.7373	4915.75	4031.7
943.8109	2140.2584	4896.95	4016.4
943.9464	2141.7787	4876.2	3991.3
944.0818	2143.2983	4850.25	3970.7
944.2172	2144.8171	4836.8	3960.35
944.3526	2146.3353	4838.25	3958.5
944.4879	2147.8527	4815.15	3933.95
944.6232	2149.3693	4808.15	3922.9
944.7585	2150.8853	4798.25	3912.95
944.8938	2152.4005	4776.65	3888.8
945.029	2153.9149	4773	3886.1
945.1642	2155.4287	4748.7	3862.3
945.2994	2156.9417	4747.65	3860.6
945.4346	2158.454	4721.6	3837.35
945.5697	2159.9655	4732.3	3849.2
945.7048	2161.4764	4715	3833.1
945.8399	2162.9865	4699.5	3816.3
945.9749	2164.4958	4675.6	3792.55
946.1099	2166.0045	4666.2	3781.45
946.2449	2167.5124	4653.6	3771.4
946.3799	2169.0195	4648.35	3763.15
946.5148	2170.526	4662.45	3776.7
946.6498	2172.0317	4653.8	3770.45
946.7846	2173.5367	4646.5	3762.4
946.9195	2175.0409	4633.7	3748.55
947.0543	2176.5445	4614.1	3729.05
947.1891	2178.0473	4603.6	3714.55
947.3239	2179.5494	4592.5	3701.4
947.4587	2181.0507	4565	3680.3
947.5934	2182.5513	4556.95	3673.65
947.7281	2184.0512	4546.1	3661.1
947.8628	2185.5504	4532.85	3648.45
947.9974	2187.0488	4513.7	3633.2
948.132	2188.5465	4504.55	3621.75
948.2666	2190.0435	4471.8	3586.25
948.4012	2191.5397	4477.55	3591.65
948.5357	2193.0353	4464.1	3578
948.6702	2194.5301	4457.85	3568.75
948.8047	2196.0241	4447.3	3557.6
948.9392	2197.5175	4432.85	3541.1
949.0736	2199.0101	4427.85	3535.4
949.208	2200.502	4398	3512.45
949.3424	2201.9931	4384.75	3501.5
949.4767	2203.4835	4360.25	3475.55
949.611	2204.9733	4368.55	3482.65
949.7453	2206.4622	4365.1	3483.75
949.8796	2207.9505	4339.1	3456.35
950.0138	2209.438	4313.7	3434.2
950.148	2210.9248	4308.65	3427.25
950.2822	2212.4109	4305.9	3421.95
950.4164	2213.8962	4285	3393.05
950.5505	2215.3809	4292.8	3401.85
950.6846	2216.8648	4280.5	3390.75
950.8186	2218.3479	4258.55	3363.5
950.9527	2219.8304	4244.45	3349.2
951.0867	2221.3121	4229	3334.65
951.2207	2222.7931	4217.35	3327.9
951.3546	2224.2733	4216.55	3328.45
951.4886	2225.7529	4183.85	3297.95
951.6225	2227.2317	4174.25	3286.5
951.7563	2228.7098	4180.75	3298.25
951.8902	2230.1872	4147.15	3266.65
952.024	2231.6638	4149.4	3266.05
952.1578	2233.1397	4143.1	3256.1
952.2916	2234.6149	4130.7	3248.9
952.4253	2236.0894	4104.75	3220.75
952.559	2237.5632	4132.2	3237.3
952.6927	2239.0362	4102.45	3216.5
952.8263	2240.5085	4089.55	3206.6
952.9599	2241.9801	4067.7	3182.75
953.0935	2243.4509	4064.15	3175.7
953.2271	2244.921	4053.45	3165.25
953.3606	2246.3904	4036.5	3142.7
953.4941	2247.8591	4016.9	3129.65
953.6276	2249.3271	4014	3127.7
953.7611	2250.7943	4012.5	3123.6
953.8945	2252.2608	3998.05	3110.4
954.0279	2253.7266	3980.55	3090.85
954.1612	2255.1917	3971.75	3086.9
954.2946	2256.656	3963.35	3077.05
954.4279	2258.1197	3952.2	3068.2
954.5612	2259.5826	3944.75	3062.05
954.6944	2261.0447	3942.85	3055.1
954.8276	2262.5062	3922.5	3032.65
954.9608	2263.9669	3915.95	3025.1
955.094	2265.4269	3907.5	3020.4
955.2271	2266.8862	3881.05	2996.55
955.3602	2268.3448	3898.25	3015
955.4933	2269.8026	3889.9	3007.4
955.6264	2271.2598	3859.6	2976.6
955.7594	2272.7162	3844.55	2960.45
955.8924	2274.1719	3849.2	2961.85
956.0253	2275.6268	3852.5	2964.25
956.1583	2277.0811	3842.3	2954
956.2912	2278.5346	3840.3	2954.65
956.4241	2279.9874	3813.2	2928.7
956.5569	2281.4395	3810.35	2927.9
956.6897	2282.8908	3813.15	2923.9
956.8225	2284.3414	3800.05	2913.35
956.9553	2285.7914	3776.9	2891.45
957.088	2287.2406	3791.3	2902.5
957.2207	2288.689	3778.7	2889.65
957.3534	2290.1368	3761.9	2868.75
957.486	2291.5838	3748.55	2855.65
957.6186	2293.0302	3763.95	2871.6
957.7512	2294.4758	3741.45	2851.3
957.8838	2295.9206	3733	2845.15
958.0163	2297.3648	3716	2832.5
958.1488	2298.8082	3718.5	2831.6
958.2813	2300.251	3707.6	2818.4
958.4137	2301.693	3693.85	2802.35
958.5461	2303.1343	3702.6	2816.7
958.6785	2304.5748	3680	2792.05
958.8108	2306.0147	3658.55	2775.1
958.9432	2307.4538	3656.2	2772.1
959.0754	2308.8922	3639.95	2758.3
959.2077	2310.3299	3655.35	2771.55
959.3399	2311.7669	3606.25	2722.45
959.4721	2313.2031	3622.45	2737.15
959.6043	2314.6387	3590	2703.25
959.7365	2316.0735	3589.9	2704
959.8686	2317.5076	3594.55	2705.1
960.0006	2318.941	3599.1	2710.9
960.1327	2320.3737	3579.45	2689.05
960.2647	2321.8056	3568.5	2676.8
960.3967	2323.2369	3564.75	2678.9
960.5287	2324.6674	3558.3	2669.8
960.6606	2326.0972	3537.3	2647.45
960.7925	2327.5263	3529.95	2645.2
960.9244	2328.9547	3528.4	2639.9
961.0562	2330.3823	3535	2644.95
961.1881	2331.8092	3520.25	2629.7
961.3198	2333.2355	3503.9	2613.3
961.4516	2334.661	3496.6	2608.55
961.5833	2336.0858	3495	2603.1
961.715	2337.5098	3481.75	2592.3
961.8467	2338.9332	3477.05	2589.9
961.9783	2340.3558	3463.35	2573.75
962.1099	2341.7778	3463.8	2578.7
962.2415	2343.199	3455	2569.35
962.373	2344.6195	3424.4	2538.05
962.5045	2346.0393	3431.5	2547
962.636	2347.4583	3430.75	2543.6
962.7675	2348.8767	3412.5	2524.1
962.8989	2350.2943	3431.15	2539.15
963.0303	2351.7113	3418.65	2527.5
963.1617	2353.1275	3393.9	2503.65
963.293	2354.543	3405.8	2509.6
963.4243	2355.9578	3392.2	2504.4
963.5556	2357.3718	3369.4	2483.1
963.6868	2358.7852	3355.35	2470
963.818	2360.1978	3356.1	2469.2
963.9492	2361.6098	3349.95	2467.05
964.0803	2363.021	3347.05	2456.5
964.2114	2364.4315	3341.8	2457.15
964.3425	2365.8413	3308.95	2422.85
964.4736	2367.2504	3307.75	2426.05
964.6046	2368.6587	3286.75	2404.9
964.7356	2370.0664	3288.65	2404.95
964.8666	2371.4733	3279.65	2396.6
964.9975	2372.8795	3277.05	2392.05
965.1284	2374.285	3268.1	2382
965.2593	2375.6899	3244.15	2363
965.3901	2377.0939	3237.5	2352.25
965.5209	2378.4973	3240.5	2360.2
965.6517	2379.9	3221.45	2338.75
965.7825	2381.3019	3217.75	2336.15
965.9132	2382.7032	3208.5	2328.65
966.0439	2384.1037	3208.1	2327
966.1745	2385.5035	3197.7	2317.25
966.3051	2386.9027	3190.25	2311.7
966.4357	2388.3011	3171.05	2287.85
966.5663	2389.6987	3163.9	2282.3
966.6968	2391.0957	3153.2	2271.5
966.8273	2392.492	3143.8	2261.25
966.9578	2393.8876	3136.25	2255
967.0882	2395.2824	3123	2240.95
967.2186	2396.6765	3121.9	2241.25
967.349	2398.07	3105.75	2223.1
967.4793	2399.4627	3107.25	2223
967.6097	2400.8547	3104.1	2223.05
967.7399	2402.246	3099.05	2211.85
967.8702	2403.6366	3080.75	2199
968.0004	2405.0265	3064.75	2182.5
968.1306	2406.4156	3057.25	2171.75
968.2607	2407.8041	3051.4	2168.1
968.3909	2409.1918	3052.1	2166.2
968.521	2410.5789	3028.85	2145.5
968.651	2411.9652	3036.1	2149.5
968.781	2413.3508	3018.95	2138
968.911	2414.7358	3013.9	2130.05
969.041	2416.12	2995.9	2116.5
969.1709	2417.5035	3002.85	2121.45
969.3008	2418.8863	2994.6	2111.5
969.4307	2420.2684	2984.4	2102.45
969.5606	2421.6497	2960.85	2077.65
969.6904	2423.0304	2955.6	2073.2
969.8201	2424.4104	2955.5	2071.7
969.9499	2425.7896	2951.8	2067.65
970.0796	2427.1682	2950.9	2067.8
970.2093	2428.546	2944	2061.95
970.3389	2429.9232	2951.2	2067.25
970.4685	2431.2996	2935.6	2054.35
970.5981	2432.6753	2927.05	2042.6
970.7277	2434.0503	2924.2	2042.25
970.8572	2435.4246	2910.6	2027.25
970.9867	2436.7982	2913.85	2025.55
971.1161	2438.1711	2897.1	2013.65
971.2456	2439.5433	2887.15	2002.35
971.375	2440.9148	2876.75	1987.2
971.5043	2442.2856	2867.9	1985.85
971.6336	2443.6557	2861.5	1977.15
971.7629	2445.025	2865.4	1983.5
971.8922	2446.3937	2850.85	1964.95
972.0214	2447.7617	2846.7	1963.65
972.1506	2449.1289	2836.85	1952.9
972.2798	2450.4955	2843.7	1956.35
972.4089	2451.8613	2828.05	1946.7
972.538	2453.2265	2819.3	1936.4
972.6671	2454.5909	2817.25	1933.35
972.7961	2455.9546	2818.05	1935.8
972.9251	2457.3177	2808.95	1925.05
973.0541	2458.68	2798.35	1913.1
973.1831	2460.0416	2795	1910.15
973.312	2461.4025	2801.55	1919.35
973.4408	2462.7627	2814.5	1920.8
973.5697	2464.1222	2779.4	1896.7
973.6985	2465.4811	2767.5	1884.4
973.8273	2466.8392	2769.35	1888.5
973.956	2468.1966	2763.1	1877
974.0847	2469.5533	2772.5	1887.75
974.2134	2470.9093	2759.85	1876.6
974.3421	2472.2645	2750.85	1867.85
974.4707	2473.6191	2743.55	1863
974.5993	2474.973	2725.2	1841.05
974.7278	2476.3262	2729.2	1845.05
974.8563	2477.6787	2712.6	1831.65
974.9848	2479.0305	2712.1	1830.65
975.1132	2480.3816	2715.75	1829.65
975.2417	2481.7319	2703.95	1820.25
975.37	2483.0816	2706.75	1821.85
975.4984	2484.4306	2682.8	1797.3
975.6267	2485.7789	2671.7	1789.25
975.755	2487.1264	2667.1	1783.7
975.8833	2488.4733	2675.55	1792.7
976.0115	2489.8195	2654.55	1765.9
976.1397	2491.165	2657.45	1770.9
976.2678	2492.5097	2651.9	1766.6
976.3959	2493.8538	2630.45	1749
976.524	2495.1972	2625.95	1741
976.6521	2496.5398	2618.4	1730.75
976.7801	2497.8818	2623.3	1736.3
976.9081	2499.2231	2610.6	1724.15
977.036	2500.5637	2611.95	1726.3
977.164	2501.9035	2602.2	1717.05
977.2918	2503.2427	2601.7	1714.65
977.4197	2504.5812	2591.35	1708.45
977.5475	2505.919	2588.8	1700.9
977.6753	2507.256	2581.65	1697.5
977.8031	2508.5924	2567.35	1684.6
977.9308	2509.9281	2573.75	1684.6
978.0585	2511.2631	2564.05	1680.85
978.1861	2512.5974	2560.05	1678.2
978.3137	2513.9309	2555.2	1672.25
978.4413	2515.2638	2570.6	1661.4
978.5689	2516.596	2550.45	1668.35
978.6964	2517.9275	2528.6	1642.9
978.8239	2519.2583	2531.95	1647.95
978.9513	2520.5884	2521.7	1638.45
979.0788	2521.9178	2515.6	1632.45
979.2062	2523.2465	2510.85	1627.45
979.3335	2524.5745	2499.4	1615.55
979.4608	2525.9018	2502.45	1617.45
979.5881	2527.2284	2503.65	1620.5
979.7154	2528.5543	2489.6	1604.8
979.8426	2529.8796	2482.7	1597.1
979.9698	2531.2041	2480.35	1594.75
980.0969	2532.5279	2474.4	1593.05
980.224	2533.851	2477.1	1593.05
980.3511	2535.1735	2466.8	1583.65
980.4781	2536.4952	2459.5	1572.5
980.6052	2537.8163	2460.05	1578
980.7321	2539.1366	2456.45	1571.4
980.8591	2540.4562	2445.4	1561
980.986	2541.7752	2443.75	1558.45
981.1129	2543.0935	2455.7	1571.5
981.2397	2544.411	2440.85	1554.3
981.3665	2545.7279	2438.05	1551.8
981.4933	2547.0441	2428.5	1547.4
981.62	2548.3596	2436.05	1550.1
981.7467	2549.6744	2424.45	1540
981.8734	2550.9885	2419.9	1528.9
982.0001	2552.3019	2412.4	1526.7
982.1267	2553.6146	2422.25	1535.25
982.2532	2554.9266	2409.5	1525.4
982.3798	2556.2379	2400.9	1513.8
982.5063	2557.5485	2403.3	1522
982.6327	2558.8585	2392.4	1502.1
982.7592	2560.1677	2382.7	1494.85
982.8856	2561.4762	2381	1493.2
983.0119	2562.7841	2379	1492.1
983.1383	2564.0913	2381.8	1496.75
983.2646	2565.3977	2380.95	1495.7
983.3908	2566.7035	2362.4	1477.9
983.517	2568.0086	2374.45	1488.8
983.6432	2569.313	2378.6	1493.05
983.7694	2570.6167	2365.75	1478.35
983.8955	2571.9197	2358.95	1475.65
984.0216	2573.222	2361.05	1471.3
984.1476	2574.5236	2347.15	1462.65
984.2737	2575.8246	2353.4	1465.4
984.3996	2577.1248	2346.75	1460.3
984.5256	2578.4244	2343.4	1457.95
984.6515	2579.7232	2342.3	1458.2
984.7774	2581.0214	2360.45	1449.8
984.9032	2582.3189	2328.9	1445.4
985.029	2583.6157	2332.3	1443.45
985.1548	2584.9118	2327.05	1443.05
985.2806	2586.2072	2341.4	1456.35
985.4063	2587.5019	2319.75	1437.75
985.5319	2588.7959	2323.2	1437.7
985.6576	2590.0893	2326.55	1439.4
985.7832	2591.3819	2313.35	1430.2
985.9087	2592.6739	2321.35	1436.05
986.0343	2593.9652	2323.05	1435.55
986.1597	2595.2557	2311	1426.6
986.2852	2596.5456	2316.55	1428.95
986.4106	2597.8348	2308.3	1423.95
986.536	2599.1234	2293.7	1407.8
986.6614	2600.4112	2290.8	1406.75
986.7867	2601.6983	2294.85	1405.4
986.912	2602.9848	2287.5	1404.75
987.0372	2604.2705	2283.4	1393.75
987.1624	2605.5556	2274.9	1392.3
987.2876	2606.84	2275.75	1392.85
987.4128	2608.1237	2272.65	1390.1
987.5379	2609.4067	2268.85	1385.45
987.6629	2610.689	2270.95	1379.5
987.788	2611.9707	2251.25	1363
987.913	2613.2516	2259.25	1370.65
988.0379	2614.5319	2232.55	1350.5
988.1629	2615.8115	2228.45	1342.4
988.2878	2617.0903	2228.25	1342.3
988.4126	2618.3685	2230.55	1347.1
988.5375	2619.6461	2217.65	1333.05
988.6622	2620.9229	2214.05	1328.35
988.787	2622.199	2213.65	1330.45
988.9117	2623.4745	2208.35	1323.45
989.0364	2624.7493	2199.35	1315.5
989.161	2626.0234	2208.5	1325.1
989.2857	2627.2968	2203.8	1317.95
989.4102	2628.5695	2198.9	1313.15
989.5348	2629.8415	2198.1	1313.7
989.6593	2631.1128	2178.85	1292.45
989.7837	2632.3835	2178.2	1294.35
989.9082	2633.6535	2179.35	1296.55
990.0326	2634.9228	2174	1290.85
990.1569	2636.1914	2182.9	1300.1
990.2812	2637.4593	2172	1286.85
990.4055	2638.7265	2162.5	1279.2
990.5298	2639.9931	2158.25	1274.05
990.654	2641.259	2148.55	1261.65
990.7782	2642.5242	2151.95	1267.4
990.9023	2643.7887	2140.75	1258.4
991.0264	2645.0525	2147.7	1263.25
991.1505	2646.3156	2140.8	1257.35
991.2745	2647.5781	2134.85	1250.7
991.3985	2648.8398	2128.6	1243.45
991.5225	2650.1009	2132.4	1239.8
991.6464	2651.3613	2123.2	1240.25
991.7703	2652.6211	2114.6	1232.35
991.8942	2653.8801	2114.85	1231.95
992.018	2655.1385	2112.55	1226.1
992.1418	2656.3961	2116.3	1231.2
992.2655	2657.6531	2116.95	1235.5
992.3892	2658.9094	2109.25	1227.8
992.5129	2660.1651	2094.6	1210.35
992.6366	2661.42	2105.9	1222
992.7602	2662.6743	2103	1219.4
992.8837	2663.9279	2092.95	1209.45
993.0073	2665.1808	2105.25	1219.45
993.1307	2666.433	2101.25	1214.05
993.2542	2667.6846	2101.85	1220.45
993.3776	2668.9354	2098.55	1210.5
993.501	2670.1856	2091.4	1207.3
993.6244	2671.4351	2103.4	1219.35
993.7477	2672.6839	2090.05	1203.4
993.8709	2673.9321	2089.4	1205.95
993.9942	2675.1795	2097.15	1212.3
994.1174	2676.4263	2092.2	1208.55
994.2405	2677.6724	2095.3	1213.4
994.3637	2678.9179	2098.1	1214.2
994.4868	2680.1626	2098.95	1216.35
994.6098	2681.4067	2087.55	1204.45
994.7328	2682.6501	2078.05	1195.05
994.8558	2683.8928	2075.2	1191.4
994.9788	2685.1348	2065.1	1183.05
995.1017	2686.3761	2062.4	1179.95
995.2245	2687.6168	2056.45	1173
995.3474	2688.8568	2054.6	1172.35
995.4702	2690.0961	2051	1165.75
995.5929	2691.3348	2043.05	1161.4
995.7156	2692.5727	2038.15	1154.05
995.8383	2693.81	2027.6	1143.4
995.961	2695.0466	2027.8	1145.75
996.0836	2696.2826	2025.55	1139.75
996.2062	2697.5178	2033.45	1147.6
996.3287	2698.7524	2031.7	1149.9
996.4512	2699.9863	2028.3	1142.5
996.5737	2701.2195	2032.1	1151.2
996.6961	2702.452	2027.15	1144.65
996.8185	2703.6839	2026.55	1142.4
996.9408	2704.9151	2022.5	1142.7
997.0631	2706.1456	2023.3	1139.85
997.1854	2707.3755	2023.5	1139.65
997.3077	2708.6046	2031.2	1144.8
997.4299	2709.8331	2038.45	1154.95
997.552	2711.0609	2040.85	1156.4
997.6742	2712.2881	2047.15	1165.45
997.7963	2713.5145	2062.6	1176.3
997.9183	2714.7403	2064.3	1183.25
998.0403	2715.9654	2072.65	1189.7
998.1623	2717.1899	2088.75	1190.85
998.2842	2718.4136	2088.35	1204.15
998.4062	2719.6367	2084.2	1200.85
998.528	2720.8591	2102.45	1214.15
998.6498	2722.0809	2116	1231.9
998.7716	2723.3019	2126.2	1241.2
998.8934	2724.5223	2127.15	1242.65
999.0151	2725.7421	2119.7	1236.6
999.1368	2726.9611	2125.1	1239.75
999.2584	2728.1795	2114.5	1226.45
999.38	2729.3972	2095.25	1215
999.5016	2730.6142	2107.6	1211.2
999.6231	2731.8306	2079.25	1197
999.7446	2733.0462	2069.55	1186.6
999.8661	2734.2612	2064.45	1177.15
999.9875	2735.4756	2014.9	1130.9
1000.1089	2736.6892	2013.95	1130.8
1000.2302	2737.9022	1993.65	1113
1000.3515	2739.1145	1977.95	1096.15
1000.4728	2740.3262	1959.65	1071
1000.594	2741.5372	1943.6	1059.4
1000.7152	2742.7475	1932.8	1049.95
1000.8363	2743.9571	1923.4	1040.1
1000.9575	2745.1661	1910.95	1024.65
1001.0785	2746.3744	1900.4	1015.3
1001.1996	2747.582	1888.3	1005.75
1001.3206	2748.7889	1882.55	999.85
1001.4415	2749.9952	1879.65	997.4
1001.5625	2751.2008	1864.2	980.85
1001.6833	2752.4057	1861.6	976.6
1001.8042	2753.61	1858.1	975.7
1001.925	2754.8136	1857.65	973.95
1002.0458	2756.0165	1843.85	959.8
1002.1665	2757.2188	1847.85	966.2
1002.2872	2758.4204	1836.15	953.95
1002.4078	2759.6213	1844.95	960.4
1002.5285	2760.8215	1839.55	952.55
1002.649	2762.0211	1831.85	946.75
1002.7696	2763.22	1835.55	950.9
1002.8901	2764.4182	1832	948.6
1003.0106	2765.6158	1824.4	940.75
1003.131	2766.8127	1824.6	940.7
1003.2514	2768.009	1814.65	931.55
1003.3717	2769.2045	1811.95	930.6
1003.492	2770.3994	1812.3	930.8
1003.6123	2771.5936	1795.75	910.6
1003.7325	2772.7872	1796.25	915.4
1003.8527	2773.9801	1789.05	907.85
1003.9729	2775.1723	1802.9	904.25
1004.093	2776.3639	1780.65	899.75
1004.2131	2777.5548	1781.6	897.35
1004.3331	2778.745	1779.7	898.4
1004.4531	2779.9346	1785.35	904.15
1004.5731	2781.1235	1789.15	907.15
1004.693	2782.3117	1785.95	906.3
1004.8129	2783.4992	1782.35	902.1
1004.9328	2784.6861	1783.25	901.35
1005.0526	2785.8723	1787.15	907.25
1005.1723	2787.0579	1801.6	921.8
1005.2921	2788.2428	1795.85	914.45
1005.4118	2789.427	1808.5	928.45
1005.5314	2790.6106	1808.8	928
1005.651	2791.7935	1816.75	935.55
1005.7706	2792.9757	1834.65	953.35
1005.8902	2794.1573	1841.45	959.25
1006.0097	2795.3382	1848.45	966.1
1006.1291	2796.5184	1855.9	976.95
1006.2485	2797.698	1868.85	984.95
1006.3679	2798.8769	1878.45	995.45
1006.4873	2800.0551	1899.55	1018.35
1006.6066	2801.2327	1922.4	1039.5
1006.7258	2802.4096	1929.05	1049.2
1006.8451	2803.5859	1944.4	1063.65
1006.9642	2804.7615	1964.55	1083.6
1007.0834	2805.9364	1982.45	1103.9
1007.2025	2807.1106	2015.8	1133.95
1007.3216	2808.2842	2037.6	1156.05
1007.4406	2809.4572	2062.5	1184.4
1007.5596	2810.6294	2088	1204.85
1007.6785	2811.801	2130.9	1252
1007.7975	2812.972	2171.4	1291.8
1007.9163	2814.1423	2214.85	1333.6
1008.0352	2815.3119	2257.6	1376.9
1008.154	2816.4808	2303.95	1425
1008.2727	2817.6491	2352.45	1471.85
1008.3914	2818.8167	2394.45	1513.75
1008.5101	2819.9837	2443.15	1556.35
1008.6288	2821.15	2495.25	1615.85
1008.7474	2822.3157	2539.4	1659.65
1008.8659	2823.4807	2576.1	1695.25
1008.9844	2824.645	2620.3	1738.8
1009.1029	2825.8086	2669.3	1792.3
1009.2214	2826.9716	2724.8	1845.05
1009.3398	2828.134	2763.45	1884.5
1009.4581	2829.2957	2803.4	1921.45
1009.5764	2830.4567	2828.15	1950.75
1009.6947	2831.617	2845.55	1964.45
1009.813	2832.7767	2856.45	1977.7
1009.9312	2833.9358	2852.9	1974.65
1010.0493	2835.0941	2857	1974.65
1010.1675	2836.2519	2848.3	1966.85
1010.2855	2837.4089	2829.15	1947.3
1010.4036	2838.5653	2822.35	1943.9
1010.5216	2839.7211	2817.85	1937.85
1010.6396	2840.8761	2819.25	1937.55
1010.7575	2842.0306	2843.4	1964.75
1010.8754	2843.1843	2877.6	1996.8
1010.9932	2844.3374	2920.35	2041.8
1011.111	2845.4899	2979.35	2097.35
1011.2288	2846.6417	3038.75	2160
1011.3465	2847.7928	3110.1	2229.8
1011.4642	2848.9433	3188.7	2308.5
1011.5818	2850.0931	3265	2386.25
1011.6995	2851.2422	3329.65	2446.8
1011.817	2852.3907	3401.25	2521
1011.9345	2853.5385	3472.7	2589.95
1012.052	2854.6857	3542.95	2636.85
1012.1695	2855.8323	3571.05	2691.5
1012.2869	2856.9781	3620	2741.15
1012.4042	2858.1233	3655.3	2773.15
1012.5216	2859.2679	3703.75	2824.45
1012.6389	2860.4118	3752.4	2872.25
1012.7561	2861.555	3811.3	2928.1
1012.8733	2862.6976	3826.05	2943.9
1012.9905	2863.8395	3870.1	2990.4
1013.1076	2864.9808	3881.65	3000.35
1013.2247	2866.1214	3900.35	3022.4
1013.3417	2867.2614	3916.35	3036.55
1013.4587	2868.4007	3926.6	3045.2
1013.5757	2869.5393	3923.7	3041.25
1013.6926	2870.6773	3944	3061.7
1013.8095	2871.8146	3960.25	3076.95
1013.9263	2872.9513	3960.8	3077.65
1014.0431	2874.0874	3946.2	3065.3
1014.1599	2875.2227	3943.4	3061.75
1014.2766	2876.3574	3918.4	3038.45
1014.3933	2877.4915	3904.75	3021.7
1014.51	2878.6249	3868	2988.2
1014.6266	2879.7577	3855.7	2975.2
1014.7431	2880.8898	3823.7	2933.7
1014.8596	2882.0212	3817.4	2939.5
1014.9761	2883.152	3796.05	2916.55
1015.0925	2884.2821	3774.45	2895.85
1015.2089	2885.4116	3769.85	2890
1015.3253	2886.5405	3760.25	2883.05
1015.4416	2887.6686	3780.7	2897.8
1015.5579	2888.7962	3786.5	2908.25
1015.6741	2889.923	3779.1	2901.5
1015.7903	2891.0493	3794.35	2917
1015.9065	2892.1748	3809.6	2931.55
1016.0226	2893.2997	3820.2	2941.9
1016.1387	2894.424	3830.65	2952.8
1016.2547	2895.5476	3850.25	2969.2
1016.3707	2896.6706	3864.85	2985.6
1016.4866	2897.7929	3905.95	3026.35
1016.6025	2898.9145	3930.6	3050.3
1016.7184	2900.0355	3953.15	3073.65
1016.8342	2901.1559	3987.2	3108.35
1016.95	2902.2756	4019.85	3143.05
1017.0658	2903.3946	4050.85	3173.25
1017.1815	2904.513	4086.75	3204.9
1017.2971	2905.6308	4105.95	3227.9
1017.4127	2906.7479	4123.5	3241.9
1017.5283	2907.8643	4165.35	3284.4
1017.6439	2908.9801	4176.8	3298.7
1017.7594	2910.0953	4162.5	3284
1017.8748	2911.2098	4173.9	3290.65
1017.9902	2912.3236	4171.6	3284.7
1018.1056	2913.4368	4147.05	3267
1018.2209	2914.5494	4134.2	3252.45
1018.3362	2915.6613	4088.7	3205.75
1018.4515	2916.7725	4054.25	3172.9
1018.5667	2917.8831	4038.2	3158.95
1018.6819	2918.9931	4008.25	3127.05
1018.797	2920.1024	3975.75	3097.4
1018.9121	2921.211	3950.2	3071.45
1019.0271	2922.319	3926.2	3048.6
1019.1421	2923.4264	3913.85	3037.15
1019.2571	2924.5331	3917.8	3039.55
1019.372	2925.6391	3873.15	2996.15
1019.4869	2926.7445	3889.45	3013.65
1019.6017	2927.8493	3889.1	3010.4
1019.7165	2928.9534	3877.2	2999.7
1019.8313	2930.0569	3868.3	2987.15
1019.946	2931.1597	3859.5	2978.55
1020.0606	2932.2619	3851.85	2974.95
1020.1753	2933.3634	3846	2966.25
1020.2899	2934.4643	3833.2	2947.7
1020.4044	2935.5645	3811.25	2927.15
1020.5189	2936.6641	3785.15	2902.2
1020.6334	2937.763	3737.2	2858.65
1020.7478	2938.8613	3691	2816.15
1020.8622	2939.959	3631.9	2750.15
1020.9765	2941.056	3566.2	2690.35
1021.0908	2942.1523	3484.45	2603.85
1021.2051	2943.248	3402.85	2523.65
1021.3193	2944.3431	3291.1	2414.55
1021.4334	2945.4375	3192.5	2313.1
1021.5476	2946.5313	3089.25	2212.9
1021.6617	2947.6244	2993.3	2114.1
1021.7757	2948.7169	2885.5	2007.95
1021.8897	2949.8087	2802.75	1923.25
1022.0037	2950.8999	2704.7	1827.4
1022.1176	2951.9904	2628.85	1750.75
1022.2315	2953.0803	2562.75	1686.05
1022.3453	2954.1696	2492.05	1612.8
1022.4591	2955.2582	2441.2	1564.75
1022.5728	2956.3462	2391.45	1513.65
1022.6865	2957.4335	2356.8	1478.15
1022.8002	2958.5202	2317.2	1436.45
1022.9138	2959.6062	2281.7	1404
1023.0274	2960.6916	2274.85	1397.45
1023.141	2961.7764	2239.2	1359.2
1023.2545	2962.8605	2233	1352.75
1023.3679	2963.9439	2204.65	1327.1
1023.4813	2965.0267	2205.2	1323.65
1023.5947	2966.1089	2211.95	1311.3
1023.708	2967.1905	2187.7	1310.9
1023.8213	2968.2714	2182.2	1305.9
1023.9346	2969.3516	2178.4	1300.3
1024.0478	2970.4312	2186.85	1298.6
1024.1609	2971.5102	2176.4	1298.9
1024.274	2972.5885	2172.75	1294.3
1024.3871	2973.6662	2180.25	1295.9
1024.5002	2974.7432	2181.7	1305
1024.6132	2975.8196	2165.05	1286.65
1024.7261	2976.8954	2159.65	1285
1024.839	2977.9705	2145.15	1266.45
1024.9519	2979.045	2126.3	1250.2
1025.0647	2980.1188	2117.75	1239.55
1025.1775	2981.192	2103.65	1226.55
1025.2902	2982.2645	2080	1200.45
1025.4029	2983.3364	2043.25	1165.85
1025.5156	2984.4077	2013.95	1136.45
1025.6282	2985.4783	2003.85	1120
1025.7407	2986.5483	1961.2	1083.55
1025.8532	2987.6177	1926.7	1050.3
1025.9657	2988.6864	1885.6	1008.95
1026.0782	2989.7545	1855.6	977.15
1026.1906	2990.8219	1823.5	947.45
1026.3029	2991.8887	1792.2	913
1026.4152	2992.9548	1758.4	880.8
1026.5275	2994.0204	1726.05	849.2
1026.6397	2995.0852	1693.35	817.5
1026.7519	2996.1495	1670.25	790.9
1026.864	2997.2131	1640.5	762.2
1026.9761	2998.276	1625.4	748.3
1027.0882	2999.3383	1599.7	722.65
1027.2002	3000.4	1581.4	703.8
1027.3122	3001.4611	1558.7	680.95
1027.4241	3002.5215	1549.4	670.55
1027.536	3003.5812	1539.4	661.95
1027.6478	3004.6404	1527.05	650.2
1027.7596	3005.6989	1518.35	640.6
1027.8714	3006.7567	1500.2	620.3
1027.9831	3007.8139	1526.6	619.65
1028.0947	3008.8705	1485.9	609.55
1028.2064	3009.9264	1481.5	599.75
1028.3179	3010.9818	1461.9	585.2
1028.4295	3012.0364	1465	587.6
1028.541	3013.0905	1467.2	590.4
1028.6524	3014.1439	1460.15	584.25
1028.7638	3015.1966	1458.4	581.55
1028.8752	3016.2487	1458.35	580.2
1028.9865	3017.3002	1449.45	568.05
1029.0978	3018.3511	1457.55	583.7
1029.209	3019.4013	1446.8	570.05
1029.3202	3020.4509	1447.4	571.95
1029.4314	3021.4998	1449.25	572
1029.5425	3022.5481	1448.5	571.85
1029.6535	3023.5958	1452.6	574.75
1029.7645	3024.6428	1448.8	574.1
1029.8755	3025.6892	1442.8	566.6
1029.9864	3026.735	1453.75	577.45
1030.0973	3027.7802	1453.75	575.95
1030.2082	3028.8247	1451.35	574.6
1030.319	3029.8685	1452.85	576.9
1030.4297	3030.9118	1460.15	582.9
1030.5404	3031.9544	1459.4	582.05
1030.6511	3032.9963	1462.5	586.3
1030.7617	3034.0376	1464.05	586.65
1030.8723	3035.0783	1471.35	590.45
1030.9829	3036.1184	1468.95	590.2
1031.0934	3037.1578	1472.1	595.35
1031.2038	3038.1966	1474.65	596.4
1031.3142	3039.2348	1469.75	594.35
1031.4246	3040.2723	1477.15	590.55
1031.5349	3041.3092	1471.05	594.8
1031.6452	3042.3455	1462.3	583.6
1031.7554	3043.3811	1464.2	587.95
1031.8656	3044.4161	1459.55	582.95
1031.9758	3045.4505	1459.9	584.85
1032.0859	3046.4842	1454.95	579.4
1032.1959	3047.5173	1448.2	573.35
1032.3059	3048.5498	1437.85	560.65
1032.4159	3049.5816	1437.15	560.45
1032.5258	3050.6128	1431.7	553.1
1032.6357	3051.6434	1423.2	544.85
1032.7455	3052.6734	1419.6	542.95
1032.8553	3053.7027	1409.95	534.2
1032.9651	3054.7314	1402	525.8
1033.0748	3055.7594	1395.2	521.75
1033.1845	3056.7868	1391.05	513.5
1033.2941	3057.8136	1383.5	508.85
1033.4037	3058.8398	1385.9	511.25
1033.5132	3059.8653	1376.95	499.9
1033.6227	3060.8902	1375.3	499.7
1033.7321	3061.9145	1362.65	487.05
1033.8415	3062.9381	1370.35	493.7
1033.9509	3063.9612	1378.95	486.05
1034.0602	3064.9835	1352.15	476.6
1034.1694	3066.0053	1346.45	468.35
1034.2787	3067.0264	1339.55	463.4
1034.3878	3068.0469	1333	455.6
1034.497	3069.0668	1326.3	446.4
1034.6061	3070.086	1320.65	447.55
1034.7151	3071.1046	1307.75	432.55
1034.8241	3072.1226	1303.35	426.3
1034.9331	3073.1399	1290.1	415.55
1035.042	3074.1567	1278.35	401.45
1035.1508	3075.1727	1276.8	399.2
1035.2597	3076.1882	1265.4	387.2
1035.3684	3077.203	1256.5	379.85
1035.4772	3078.2173	1255.25	377.95
1035.5859	3079.2308	1242.5	361.45
1035.6945	3080.2438	1234.35	355.75
1035.8031	3081.2561	1222.55	346.75
1035.9117	3082.2678	1213.7	337.8
1036.0202	3083.2789	1212	336.55
1036.1286	3084.2893	1210.05	333.35
1036.2371	3085.2991	1200.7	324.45
1036.3454	3086.3083	1198.3	319.5
1036.4538	3087.3169	1188.25	310.9
1036.562	3088.3248	1189.55	311.7
1036.6703	3089.3321	1177.75	300.6
1036.7785	3090.3388	1173.2	298.35
1036.8866	3091.3449	1169.35	294.4
1036.9948	3092.3503	1174.95	297.55
1037.1028	3093.3551	1157.6	283.2
1037.2108	3094.3593	1158.55	283.9
1037.3188	3095.3629	1157.75	283.7
1037.4267	3096.3658	1148.95	273
1037.5346	3097.3681	1144.55	268.55
1037.6425	3098.3698	1146.45	270.6
1037.7503	3099.3708	1144.75	262.85
1037.858	3100.3713	1130.65	256.9
1037.9657	3101.3711	1137.15	258.35
1038.0734	3102.3702	1269.55	254.8
1038.181	3103.3688	1132.6	257.5
1038.2886	3104.3667	1122.6	247.45
1038.3961	3105.364	1124.85	250.15
1038.5036	3106.3607	1124.7	247.25
1038.611	3107.3568	1118.7	242.9
1038.7184	3108.3522	1114.15	238.3
1038.8257	3109.347	1117.65	240.45
1038.933	3110.3412	1115.95	235.85
1039.0403	3111.3348	1110	236.15
1039.1475	3112.3277	1106.75	230.75
1039.2547	3113.32	1107.7	232.55
1039.3618	3114.3117	1108.7	231.15
1039.4689	3115.3028	1101.7	226.1
1039.5759	3116.2932	1101	223.9
1039.6829	3117.2831	1102.5	221.95
1039.7898	3118.2723	1096.55	222.7
1039.8967	3119.2608	1093.5	216.2
1040.0035	3120.2488	1091.2	215.2
1040.1103	3121.2361	1091.9	219.5
1040.2171	3122.2229	1088.25	213.15
1040.3238	3123.209	1090.9	215.8
1040.4305	3124.1944	1084.1	210.6
1040.5371	3125.1793	1087.2	210.05
1040.6437	3126.1635	1086.7	211.65
1040.7502	3127.1471	1087.1	212.6
1040.8567	3128.1301	1076.2	201.05
1040.9631	3129.1125	1081.75	207.2
1041.0695	3130.0942	1076.75	200.85
1041.1759	3131.0753	1087.5	204.9
1041.2822	3132.0558	1081.95	206.5
1041.3884	3133.0357	1078.65	203.25
1041.4946	3134.015	1071.55	195.2
1041.6008	3134.9936	1073	196.05
1041.7069	3135.9716	1088.35	193.1
1041.813	3136.949	1066.75	191.2
1041.919	3137.9258	1082.2	188.4
1042.025	3138.902	1068.75	187.55
1042.1309	3139.8775	1065.3	192.2
1042.2368	3140.8524	1067.25	192.55
1042.3427	3141.8267	1064.5	187.25
1042.4485	3142.8004	1055.85	179.45
1042.5542	3143.7735	1061.65	180.5
1042.6599	3144.7459	1059.7	185.75
1042.7656	3145.7178	1061.4	183.95
1042.8712	3146.689	1054	180.9
1042.9768	3147.6596	1056.55	180.3
1043.0823	3148.6295	1048.15	172.75
1043.1878	3149.5989	1052.8	176.5
1043.2932	3150.5676	1050.65	177.85
1043.3986	3151.5357	1045.4	172.25
1043.5039	3152.5032	1050.1	175.2
1043.6092	3153.4701	1044.85	171
1043.7145	3154.4364	1045.25	169.45
1043.8197	3155.402	1041.1	165.75
1043.9248	3156.367	1042.5	165.8
1044.03	3157.3315	1065.7	162
1044.135	3158.2952	1040.9	167.25
1044.24	3159.2584	1036	161.75
1044.345	3160.221	1040.1	164.55
1044.4499	3161.1829	1036.35	162.95
1044.5548	3162.1442	1034.25	160.5
1044.6596	3163.105	1033.65	158.1
1044.7644	3164.065	1029.35	151.4
1044.8692	3165.0245	1032.55	155.4
1044.9739	3165.9834	1029	154.25
1045.0785	3166.9416	1028.65	152.8
1045.1831	3167.8993	1027.55	150.95
1045.2877	3168.8563	1025.1	150.3
1045.3922	3169.8127	1022.7	148.85
1045.4966	3170.7684	1027.65	152.85
1045.6011	3171.7236	1025.25	146.45
1045.7054	3172.6782	1022	147.9
1045.8098	3173.6321	1016.6	141.05
1045.914	3174.5854	1025.55	147.05
1046.0183	3175.5381	1022.8	147.15
1046.1224	3176.4902	1020.45	146
1046.2266	3177.4417	1023.65	151.1
1046.3307	3178.3926	1015.1	139.95
1046.4347	3179.3428	1011.95	137.9
1046.5387	3180.2924	1016.15	140.4
1046.6427	3181.2415	1015.65	138.95
1046.7466	3182.1899	1015.95	139.55
1046.8504	3183.1377	1012.75	137.5
1046.9542	3184.0848	1017.55	138.35
1047.058	3185.0314	1011.8	136.5
1047.1617	3185.9773	1009.05	134.55
1047.2654	3186.9227	1009.4	134.1
1047.369	3187.8674	1011.2	138.45
1047.4726	3188.8115	1011.2	132.95
1047.5761	3189.755	1009.7	135.45
1047.6796	3190.6979	1005.3	131.35
1047.783	3191.6402	1004.45	131.6
1047.8864	3192.5818	1003.15	130.65
1047.9898	3193.5229	1009.9	128.35
1048.0931	3194.4633	1007.45	133.8
1048.1963	3195.4031	1007.85	132.9
1048.2995	3196.3423	1004.75	131.25
1048.4027	3197.2809	1003.85	130.8
1048.5058	3198.2189	1000.65	125.05
1048.6089	3199.1563	1015	126.8
1048.7119	3200.0931	995.75	121.7
1048.8148	3201.0292	999.3	126.95
1048.9178	3201.9648	996.1	122.4
1049.0206	3202.8997	999.85	121.75
1049.1235	3203.834	997.55	122.1
1049.2262	3204.7677	999	123.4
1049.329	3205.7008	992.5	116.8
1049.4317	3206.6333	991.3	118.45
1049.5343	3207.5652	1000.35	124.95
1049.6369	3208.4964	989.35	115.4
1049.7394	3209.4271	992	118.35
1049.8419	3210.3571	993.35	120.3
1049.9444	3211.2865	990	114.6
1050.0468	3212.2154	994.55	120.15
1050.1491	3213.1436	991.2	113.8
1050.2514	3214.0712	995.75	114.85
1050.3537	3214.9982	989.9	117.1
1050.4559	3215.9246	987.05	111.55
1050.5581	3216.8503	991	117.85
1050.6602	3217.7755	984.8	108.7
1050.7623	3218.7001	987.95	115.95
1050.8643	3219.624	982.4	106.3
1050.9663	3220.5473	983.85	108.8
1051.0682	3221.4701	986.4	110.35
1051.1701	3222.3922	985.9	109.4
1051.2719	3223.3137	980.7	107.25
1051.3737	3224.2346	982.75	108.2
1051.4754	3225.1549	982.1	108.05
1051.5771	3226.0746	982.55	109.35
1051.6788	3226.9937	979	104.4
1051.7804	3227.9121	980.1	106.95
1051.8819	3228.83	979.55	106.9
1051.9834	3229.7473	978.3	104.6
1052.0849	3230.6639	979.4	105.3
1052.1863	3231.5799	978.35	104.5
1052.2876	3232.4954	977.7	101.55
1052.3889	3233.4102	976.35	102.6
1052.4902	3234.3244	973.15	99.95
1052.5914	3235.238	975.85	102.85
1052.6926	3236.151	1000.85	101.55
1052.7937	3237.0634	974.45	103.5
1052.8948	3237.9752	972.25	98.15
1052.9958	3238.8864	970.75	96.4
1053.0968	3239.797	969.55	95.45
1053.1977	3240.7069	974.6	98.9
1053.2986	3241.6163	972.1	95.95
1053.3994	3242.5251	968.4	97.55
1053.5002	3243.4332	968.6	95.15
1053.6009	3244.3408	968.85	96.05
1053.7016	3245.2477	967.05	92
1053.8022	3246.154	968.8	94.55
1053.9028	3247.0598	970.75	97.2
1054.0034	3247.9649	963.8	90.1
1054.1039	3248.8694	964.25	91.15
1054.2043	3249.7733	965	92.75
1054.3047	3250.6766	960.5	87.3
1054.4051	3251.5793	964.9	90.95
1054.5054	3252.4814	964.55	91.15
1054.6056	3253.3829	964.5	91.6
1054.7058	3254.2838	961.75	90.4
1054.806	3255.1841	957.8	85.05
1054.9061	3256.0838	958.7	86.2
1055.0061	3256.9829	956.25	83.45
1055.1062	3257.8814	957.55	80.95
1055.2061	3258.7792	961	87.1
1055.306	3259.6765	958.5	82.95
1055.4059	3260.5731	955.3	82.8
1055.5057	3261.4692	957.7	82.2
1055.6055	3262.3647	951.6	79.45
1055.7052	3263.2595	953.75	80.3
1055.8049	3264.1538	949.4	76.9
1055.9045	3265.0474	948.15	74.95
1056.0041	3265.9404	946.85	73.5
1056.1036	3266.8329	943.25	71.55
1056.2031	3267.7247	955.45	74
1056.3025	3268.616	943.7	71.25
1056.4019	3269.5066	940.25	68.85
1056.5013	3270.3966	938.8	62.7
1056.6005	3271.286	937.9	64.2
