Software Version:	3.9.2.0
Unit SN:	10000200
Spectrometer SN:	6960
Date:	3/8/2024 1:55:40 PM
Data Line Index:	25
Spectral Points:	2048
Integration time (ms):	125
Averages:	20
Delay (ms):	30000
Sequence Number:	1
Processing:	dark subtract
Laser Power (mW):	300
Laser Current (mA):	822
Laser Diode Temp (C):	25
Laser Case Temp (C):	26.3
System Temp (C):	26.3
Spectrometer Temp (C):	24.1
CCD Temp (C):	0.01
Secondary Temp (C):	20.011
Heatsink Temp (C):	20.36
CCDPCB Temp (C):	36.174
SecondaryPCB Temp (C):	29.971

Wavelength	RamanShift	Raw Counts	Dark Subtracted
787.061	30.1047	467.85	60.7
787.2016	32.3739	471.8	67.75
787.3422	34.6426	476.65	70.25
787.4828	36.9109	482	73
787.6235	39.1787	489.75	77.8
787.7642	41.4461	502.3	87.15
787.9049	43.7131	511.7	92.15
788.0456	45.9796	518.35	96.05
788.1863	48.2456	527.3	99.85
788.3271	50.5112	539.75	107.2
788.4679	52.7764	549.3	114.65
788.6087	55.0411	560.2	118.75
788.7496	57.3054	571.05	126.1
788.8904	59.5692	585.8	139.2
789.0313	61.8326	591.45	143.1
789.1722	64.0955	607.55	156.55
789.3132	66.3579	629.95	173.25
789.4541	68.6199	650.2	187.95
789.5951	70.8815	682.85	216.85
789.7361	73.1426	773.1	303.35
789.8771	75.4032	990.5	517
790.0181	77.6634	1526.2	1046.05
790.1592	79.9231	2789.8	2302.8
790.3003	82.1824	5567	5065.35
790.4414	84.4412	10589.9	10056.95
790.5825	86.6995	17522.75	16951.65
790.7237	88.9574	24259.25	23654.35
790.8648	91.2148	28975.5	28348.95
791.006	93.4717	31182.05	30543.35
791.1472	95.7282	31737.45	31090.5
791.2885	97.9842	31707.3	31050.45
791.4297	100.2398	31183.05	30529.4
791.571	102.4949	30649	29992.1
791.7123	104.7495	29909.75	29252.35
791.8536	107.0036	29186.2	28527.8
791.9949	109.2573	28410.85	27754.3
792.1363	111.5105	27738.75	27076.05
792.2777	113.7632	27047.65	26385
792.4191	116.0154	26453.75	25778.75
792.5605	118.2672	26051.6	25378.55
792.7019	120.5185	25568.65	24899.65
792.8434	122.7693	25263.6	24586.5
792.9849	125.0197	25005	24324.05
793.1264	127.2696	24744	24062.1
793.2679	129.519	24607.8	23921
793.4094	131.7679	24439.5	23751.1
793.551	134.0163	24324.25	23633.65
793.6926	136.2642	24112.1	23416.3
793.8342	138.5117	23946.15	23246.05
793.9758	140.7587	23710.65	23010.95
794.1175	143.0052	23530.45	22828.9
794.2591	145.2512	23324.45	22620.1
794.4008	147.4967	23107.45	22406.45
794.5425	149.7417	22980.35	22273.7
794.6842	151.9863	22874.15	22163.45
794.826	154.2304	22820.05	22102.15
794.9677	156.4739	22681.5	21963.95
795.1095	158.717	22656.5	21936.2
795.2513	160.9596	22492.8	21766.25
795.3931	163.2017	22274.85	21543.45
795.535	165.4433	21992.75	21264.45
795.6768	167.6844	21700.65	20967.4
795.8187	169.925	21412.1	20676.75
795.9606	172.1651	21056.85	20324.35
796.1025	174.4047	20767.75	20031.65
796.2445	176.6439	20530.75	19791.9
796.3864	178.8825	20352	19612.7
796.5284	181.1206	20236.45	19486
796.6704	183.3582	20042.4	19288.8
796.8124	185.5954	19987	19234.95
796.9544	187.832	19905.1	19144.35
797.0965	190.0681	19912.45	19153.8
797.2386	192.3037	19885.3	19119.95
797.3806	194.5388	19942	19175.95
797.5228	196.7734	19988.7	19223.4
797.6649	199.0075	20050.3	19281.55
797.807	201.2411	20259.65	19487.4
797.9492	203.4742	20324.95	19547.65
798.0914	205.7068	20488.6	19707.45
798.2336	207.9389	20648.05	19867.9
798.3758	210.1704	20818.75	20048.7
798.518	212.4015	20922.95	20162.3
798.6603	214.632	21133.85	20382
798.8025	216.862	21347.45	20592.35
798.9448	219.0915	21521.65	20764.5
799.0871	221.3205	21745.75	20991.9
799.2294	223.549	22015.35	21256.85
799.3718	225.777	22357.4	21600.4
799.5141	228.0044	22717.45	21950.95
799.6565	230.2314	23151.15	22386.9
799.7989	232.4578	23630.6	22866.15
799.9413	234.6837	23967.2	23194.8
800.0837	236.909	24202.25	23422.7
800.2262	239.1339	24263.45	23458.85
800.3687	241.3582	24036.35	23248.15
800.5111	243.582	23746.15	22929.9
800.6536	245.8053	23416.3	22603.45
800.7961	248.0281	23121.1	22324.1
800.9387	250.2503	22869.8	22068.6
801.0812	252.472	22758.6	21952.55
801.2238	254.6932	22712.55	21910.4
801.3664	256.9139	22697.95	21891.1
801.509	259.134	22694.9	21884.5
801.6516	261.3536	22751.75	21943.65
801.7942	263.5727	22828.75	22016.1
801.9369	265.7912	22808.95	21999.9
802.0795	268.0092	22828.75	22017.95
802.2222	270.2267	22848.4	22035.7
802.3649	272.4436	22825.8	22011.6
802.5076	274.6601	22776.25	21954.4
802.6504	276.8759	22668.4	21855.95
802.7931	279.0913	22718.9	21901.5
802.9359	281.3061	22691.3	21869.95
803.0787	283.5204	22809.7	21988.55
803.2215	285.7341	22868.2	22043.9
803.3643	287.9473	23073.1	22238.75
803.5071	290.16	23315.45	22484.35
803.6499	292.3721	23576.55	22752.9
803.7928	294.5837	24030.95	23207.95
803.9357	296.7947	24363.45	23537.7
804.0786	299.0052	24609	23783.75
804.2215	301.2152	24526.45	23698.95
804.3644	303.4246	24203.75	23382.75
804.5074	305.6334	23670.55	22849.65
804.6503	307.8418	23177.55	22351.8
804.7933	310.0495	22791.1	21958.85
804.9363	312.2568	22514.7	21683.45
805.0793	314.4635	22254.45	21417
805.2223	316.6696	22184.4	21349.15
805.3653	318.8752	22125.2	21279.65
805.5084	321.0802	22188.4	21350.4
805.6514	323.2847	22337	21498.15
805.7945	325.4887	22416.35	21575.85
805.9376	327.692	22354.2	21511.05
806.0807	329.8949	22249.3	21410.4
806.2238	332.0972	21992.6	21150.6
806.367	334.2989	21780.2	20934.05
806.5101	336.5001	21523.05	20674.45
806.6533	338.7007	21328.6	20481.95
806.7965	340.9008	21216.35	20372.3
806.9397	343.1003	21099.35	20249.35
807.0829	345.2992	21078.9	20231.85
807.2261	347.4976	21093.25	20242.35
807.3693	349.6955	21096.75	20239.25
807.5126	351.8927	21216.65	20361.95
807.6559	354.0895	21172.55	20305.25
807.7991	356.2856	21240.4	20379.15
807.9424	358.4812	21280.9	20419.4
808.0857	360.6763	21325.35	20461.2
808.2291	362.8707	21314.75	20455.05
808.3724	365.0646	21390.9	20524.1
808.5158	367.258	21373	20510.65
808.6591	369.4508	21432.6	20562.7
808.8025	371.643	21485.85	20615.75
808.9459	373.8346	21519.95	20651.3
809.0893	376.0257	21545.8	20670.6
809.2327	378.2162	21455.5	20584.45
809.3762	380.4062	21365	20495.9
809.5196	382.5956	21232.3	20364.1
809.6631	384.7844	21153.55	20294.65
809.8066	386.9726	21077.05	20218.05
809.9501	389.1603	21021.8	20163.6
810.0936	391.3474	21022	20128.85
810.2371	393.5339	21029.15	20163.65
810.3806	395.7199	20971.35	20111.25
810.5241	397.9052	21003.7	20142.65
810.6677	400.09	21026.45	20163.45
810.8113	402.2743	21133.1	20267.6
810.9548	404.4579	21227.95	20362.3
811.0984	406.641	21433.85	20562.45
811.2421	408.8235	21655.4	20788.65
811.3857	411.0054	21933.2	21067.65
811.5293	413.1868	22400.65	21524.05
811.673	415.3675	22731.3	21852.85
811.8166	417.5477	22951.15	22072
811.9603	419.7273	23010	22133.35
812.104	421.9064	22885.7	21997.8
812.2477	424.0848	22764.2	21887.65
812.3914	426.2627	22542.85	21668.95
812.5351	428.4399	22313.1	21434.1
812.6788	430.6166	21936.35	21051.9
812.8226	432.7928	21582.3	20693.4
812.9663	434.9683	21299.1	20418.65
813.1101	437.1432	21086.5	20206.1
813.2539	439.3176	20923.65	20048.3
813.3977	441.4914	20839.95	19965.2
813.5415	443.6645	20831	19950.7
813.6853	445.8371	20773.65	19897.4
813.8291	448.0091	20705.85	19822.25
813.973	450.1806	20693.75	19814.55
814.1168	452.3514	20606.95	19731.2
814.2607	454.5216	20654.7	19764.05
814.4046	456.6913	20559	19676.65
814.5485	458.8603	20636.3	19760
814.6924	461.0288	20753	19878.6
814.8363	463.1967	20706.05	19836.2
814.9802	465.3639	20835.1	19959.45
815.1241	467.5306	20947.25	20068.95
815.2681	469.6967	21152.75	20280.6
815.412	471.8622	21280.35	20406.3
815.556	474.0271	21451.45	20578
815.7	476.1914	21533.65	20649.95
815.844	478.3551	21526.8	20644.75
815.988	480.5182	21547.7	20669.4
816.132	482.6807	21551	20678.9
816.276	484.8426	21680.25	20816.85
816.4201	487.0039	21980.05	21107.8
816.5641	489.1647	22404.6	21524.05
816.7082	491.3248	22868.9	21986.3
816.8522	493.4843	23080.6	22204.4
816.9963	495.6432	23105.15	22225.25
817.1404	497.8015	22969.35	22079.85
817.2845	499.9592	22999.35	22107.55
817.4286	502.1163	22957.2	22063.95
817.5727	504.2728	22718.05	21832.8
817.7168	506.4287	22456.4	21583.45
817.861	508.5839	22040.4	21164.9
818.0051	510.7386	21753.05	20870.25
818.1493	512.8927	21602.95	20713.95
818.2935	515.0461	21486.3	20599.4
818.4377	517.199	21479.65	20590.5
818.5818	519.3512	21502.35	20603.5
818.726	521.5029	21591.45	20695.35
818.8703	523.6539	21697.8	20806.1
819.0145	525.8043	21716.25	20821.9
819.1587	527.9541	21782.1	20884.4
819.303	530.1033	21756.1	20862.5
819.4472	532.2519	21785.85	20890.55
819.5915	534.3999	21907.95	21012.2
819.7357	536.5472	22217.95	21325.7
819.88	538.694	22685.25	21797.85
820.0243	540.8401	23295.05	22400.6
820.1686	542.9856	23824.7	22917.05
820.3129	545.1305	23978.65	23071.4
820.4572	547.2748	23905.05	22997.85
820.6016	549.4185	23527	22613.1
820.7459	551.5615	23168.9	22256.2
820.8902	553.704	23067.55	22160.3
821.0346	555.8458	23039.45	22136
821.1789	557.987	23074.1	22173.7
821.3233	560.1276	23069.55	22166.65
821.4677	562.2675	23100.3	22195.5
821.6121	564.4069	23212.95	22309.3
821.7565	566.5456	23217.15	22315.65
821.9009	568.6837	23154.5	22252.15
822.0453	570.8212	22856.25	21956.85
822.1897	572.958	22531.35	21627.65
822.3342	575.0942	22244.7	21343.9
822.4786	577.2299	22086.55	21191.75
822.6231	579.3648	22058.65	21173.1
822.7675	581.4992	22107.65	21231
822.912	583.6329	22299.4	21424.35
823.0565	585.766	22525	21646.35
823.201	587.8985	22685.5	21798.2
823.3454	590.0304	22708.2	21799.45
823.4899	592.1616	22636.35	21728.25
823.6345	594.2922	22545.15	21636.2
823.779	596.4222	22401.25	21490
823.9235	598.5515	22275.65	21364.55
824.068	600.6802	22098.35	21188.8
824.2126	602.8083	21911.75	21010.3
824.3571	604.9358	21877.1	20968.3
824.5017	607.0626	21839	20927.55
824.6462	609.1888	21811.65	20893.2
824.7908	611.3144	21823.85	20904.9
824.9354	613.4393	21700.95	20786.05
825.08	615.5636	21626.65	20709.95
825.2246	617.6873	21555.25	20643.15
825.3692	619.8103	21481.7	20566.2
825.5138	621.9327	21434.9	20519.95
825.6584	624.0544	21420.9	20512.2
825.803	626.1756	21408.5	20504.2
825.9477	628.2961	21351.25	20437.55
826.0923	630.4159	21322.65	20408
826.237	632.5351	21314.1	20397.55
826.3816	634.6537	21268.1	20352.3
826.5263	636.7716	21287.35	20367.1
826.6709	638.8889	21286.6	20364.55
826.8156	641.0056	21363.1	20437.9
826.9603	643.1216	21329.35	20409.8
827.105	645.237	21412.45	20492.3
827.2497	647.3518	21382.8	20474.5
827.3944	649.4659	21461.35	20554.45
827.5391	651.5793	21459.5	20553.65
827.6838	653.6922	21422.05	20511.15
827.8285	655.8043	21443.75	20533.6
827.9733	657.9159	21433.15	20518.3
828.118	660.0268	21400	20487.2
828.2627	662.137	21338.2	20423.3
828.4075	664.2466	21349.55	20426.5
828.5522	666.3556	21350.75	20432.3
828.697	668.4639	21341.35	20424.4
828.8418	670.5716	21410.35	20500.5
828.9865	672.6786	21525.15	20609.5
829.1313	674.785	21531.9	20608.15
829.2761	676.8907	21621.9	20705.75
829.4209	678.9958	21709.1	20797.45
829.5657	681.1002	21694.85	20775.9
829.7105	683.204	21676.9	20747.4
829.8553	685.3072	21622.6	20696.5
830.0001	687.4097	21623.65	20702.3
830.1449	689.5115	21583.45	20661.1
830.2898	691.6127	21587.3	20665.5
830.4346	693.7132	21505.45	20590.65
830.5794	695.8131	21496.1	20562.95
830.7243	697.9123	21525.65	20597.45
830.8691	700.0109	21462.15	20535.05
831.014	702.1089	21472.45	20548.05
831.1588	704.2061	21506.6	20582.7
831.3037	706.3028	21554.8	20627.95
831.4486	708.3987	21655.7	20730.5
831.5935	710.4941	21702.35	20778.5
831.7383	712.5887	21917.95	20995.95
831.8832	714.6827	22218.7	21296.5
832.0281	716.7761	22537.65	21617.8
832.173	718.8688	22880.25	21956.8
832.3179	720.9608	23135.45	22205.9
832.4628	723.0522	23222.05	22286.05
832.6077	725.1429	23030.35	22098.4
832.7527	727.233	22812.15	21883.1
832.8976	729.3224	22585.35	21657.55
833.0425	731.4112	22331.75	21403.3
833.1874	733.4993	22100.85	21171.9
833.3324	735.5867	21940.9	21013.6
833.4773	737.6735	21877.9	20948.45
833.6222	739.7596	21789.8	20857.15
833.7672	741.845	21768.75	20840.35
833.9122	743.9298	21752.85	20824.55
834.0571	746.014	21777.45	20847.85
834.2021	748.0974	21809.15	20874.6
834.347	750.1802	21808.4	20874.95
834.492	752.2624	21838.9	20904.7
834.637	754.3439	21877.1	20941.25
834.782	756.4247	21933.55	20992.45
834.9269	758.5048	22029.25	21095.45
835.0719	760.5843	22262.2	21324.3
835.2169	762.6631	22571.75	21631.65
835.3619	764.7413	23025.2	22091.05
835.5069	766.8188	23626.25	22695.05
835.6519	768.8956	24068.6	23134
835.7969	770.9718	24410.95	23474.9
835.9419	773.0473	24294.55	23361.6
836.0869	775.1221	23957.15	23023.75
836.232	777.1962	23571.5	22634.3
836.377	779.2697	23426.8	22492.3
836.522	781.3426	23491.8	22539.4
836.667	783.4147	23672.35	22738.45
836.8121	785.4862	24023.8	23091.15
836.9571	787.557	24070.7	23132.95
837.1021	789.6271	23736.25	22798.2
837.2472	791.6966	23158.75	22220.25
837.3922	793.7654	22678.4	21742.4
837.5373	795.8335	22423	21485.5
837.6823	797.901	22218.75	21279.4
837.8274	799.9678	22151.05	21210.5
837.9724	802.0339	22169.3	21233.15
838.1175	804.0993	22246.95	21299.4
838.2626	806.1641	22190.95	21252.75
838.4076	808.2282	22164.95	21230.55
838.5527	810.2916	22105.95	21168.7
838.6978	812.3544	22020.35	21086.35
838.8428	814.4164	21954.55	21020.55
838.9879	816.4778	22004.45	21065.3
839.133	818.5385	21985.25	21043.45
839.2781	820.5986	22074.2	21136.6
839.4232	822.658	22195.4	21255.5
839.5682	824.7166	22325.75	21384.5
839.7133	826.7747	22579.95	21640.45
839.8584	828.832	22808.5	21866.05
840.0035	830.8886	22931.2	21989.35
840.1486	832.9446	23119.6	22176.95
840.2937	834.9999	23130.45	22190.55
840.4388	837.0545	23125.15	22181.05
840.5839	839.1085	23097.35	22155.1
840.729	841.1618	23107.8	22163.65
840.8741	843.2143	23031.8	22088.85
841.0192	845.2662	22959.8	22019.75
841.1643	847.3175	22960.15	22018.1
841.3095	849.368	22807.4	21865.1
841.4546	851.4179	22706.95	21764.25
841.5997	853.467	22555.15	21611.1
841.7448	855.5155	22490.4	21547.5
841.8899	857.5633	22402.2	21459.7
842.0351	859.6105	22283.3	21339.5
842.1802	861.6569	22253.55	21307.1
842.3253	863.7027	22208.65	21265.05
842.4704	865.7478	22223.25	21277.35
842.6156	867.7922	22275.3	21332.3
842.7607	869.8359	22303.4	21358.25
842.9058	871.8789	22423.4	21481
843.0509	873.9212	22662.55	21686.9
843.1961	875.9629	22770.15	21827.15
843.3412	878.0039	22962	22018.25
843.4863	880.0441	23064.3	22126.2
843.6315	882.0837	23094.1	22152.85
843.7766	884.1226	23051.9	22102.75
843.9218	886.1609	22978.9	22038.5
844.0669	888.1984	22924.45	21981.75
844.212	890.2352	22936.25	21995.55
844.3572	892.2714	22905.65	21957.45
844.5023	894.3069	22897.05	21952.05
844.6475	896.3416	22841.95	21894
844.7926	898.3757	22778.7	21834.4
844.9377	900.4091	22812.1	21866.9
845.0829	902.4418	22833.55	21881.7
845.228	904.4739	22850.9	21900.95
845.3732	906.5052	22861.7	21912.35
845.5183	908.5358	22761.3	21811.35
845.6635	910.5658	22617.35	21667.25
845.8086	912.595	22472.8	21525.15
845.9538	914.6236	22330.2	21380.3
846.0989	916.6515	22320.65	21375
846.2441	918.6786	22278.3	21332.05
846.3892	920.7051	22388	21437.9
846.5344	922.7309	22517.8	21570.9
846.6795	924.756	22554.45	21607.15
846.8246	926.7804	22675.8	21728
846.9698	928.8041	22569.15	21621.45
847.1149	930.8272	22642	21690.5
847.2601	932.8495	22544.2	21592.3
847.4052	934.8711	22517.35	21569.35
847.5504	936.892	22360.1	21412.95
847.6955	938.9123	22238.4	21289.2
847.8407	940.9318	22150.15	21203.65
847.9858	942.9506	22036.4	21087.55
848.131	944.9688	21909	20961.3
848.2761	946.9862	21874.95	20928.4
848.4213	949.003	21794.8	20848.5
848.5664	951.019	21772.2	20827.4
848.7115	953.0344	21825.15	20875.7
848.8567	955.0491	21857.85	20913.25
849.0018	957.063	21973.95	21022.35
849.147	959.0763	22089.45	21143.3
849.2921	961.0888	22112.45	21162.45
849.4373	963.1007	22218.55	21269.5
849.5824	965.1119	22294.35	21357.8
849.7275	967.1223	22310.7	21381.05
849.8727	969.1321	22366.1	21434.75
850.0178	971.1412	22366.7	21429.2
850.1629	973.1495	22401.3	21458.8
850.3081	975.1572	22513.5	21513.3
850.4532	977.1641	22521.2	21571.75
850.5983	979.1704	22447.35	21501.25
850.7435	981.1759	22461.15	21506.85
850.8886	983.1808	22536.55	21587.55
851.0337	985.1849	22663.75	21704.05
851.1788	987.1884	22780.8	21830.9
851.324	989.1911	22946.8	21998.7
851.4691	991.1932	23067.5	22119.35
851.6142	993.1945	23073.9	22124.85
851.7593	995.1951	22976.2	22030.2
851.9045	997.1951	23002.75	22049.85
852.0496	999.1943	22922.6	21972.65
852.1947	1001.1928	22841.8	21893.85
852.3398	1003.1906	22849.75	21902.3
852.4849	1005.1877	22936.65	21990.1
852.63	1007.1841	22886.2	21938.3
852.7751	1009.1798	22809.15	21862.6
852.9202	1011.1748	22606.05	21659.9
853.0653	1013.1691	22453.9	21506.75
853.2104	1015.1627	22198.6	21252.85
853.3555	1017.1556	21961.25	21017.55
853.5006	1019.1477	21852.75	20907.2
853.6457	1021.1392	21765.85	20826.85
853.7908	1023.1299	21730.55	20794.85
853.9359	1025.12	21736.1	20803.45
854.081	1027.1093	21751.3	20833.15
854.2261	1029.0979	21870.85	20956.25
854.3712	1031.0859	21910	20988.7
854.5163	1033.0731	21911.2	20978.6
854.6613	1035.0596	21876.25	20939.45
854.8064	1037.0454	21623.85	20683.9
854.9515	1039.0304	21530.75	20588.95
855.0965	1041.0148	21433.1	20490.15
855.2416	1042.9985	21332.05	20385.8
855.3867	1044.9814	21330.6	20385.55
855.5317	1046.9636	21233.75	20287.2
855.6768	1048.9452	21209.6	20268.95
855.8219	1050.926	21274.8	20333.45
855.9669	1052.9061	21249.95	20305.25
856.112	1054.8855	21207.9	20262.5
856.257	1056.8642	21281.4	20338.25
856.4021	1058.8421	21323.5	20371.4
856.5471	1060.8194	21329	20384.8
856.6921	1062.7959	21388.1	20440.9
856.8372	1064.7717	21422.35	20478.6
856.9822	1066.7469	21426.2	20480.8
857.1272	1068.7213	21425.8	20476.5
857.2723	1070.695	21427.3	20481.9
857.4173	1072.6679	21349.55	20406.1
857.5623	1074.6402	21313.25	20369.55
857.7073	1076.6117	21305.4	20352.95
857.8523	1078.5826	21340.7	20392.4
857.9973	1080.5527	21333.05	20385.85
858.1423	1082.5221	21403.8	20457.6
858.2873	1084.4908	21568.15	20623.6
858.4323	1086.4587	21730.75	20784.75
858.5773	1088.426	21861.2	20913.4
858.7223	1090.3925	21860.65	20910.75
858.8673	1092.3584	21826.4	20879.45
859.0123	1094.3235	21672.3	20725.45
859.1573	1096.2879	21604.35	20656.8
859.3022	1098.2515	21626.15	20683.55
859.4472	1100.2145	21714.85	20768.6
859.5922	1102.1767	21758.9	20815.2
859.7371	1104.1382	21929.1	20982.4
859.8821	1106.099	22143.95	21198.7
860.027	1108.0591	22327.2	21383.65
860.172	1110.0185	22479.55	21530.8
860.3169	1111.9771	22525.7	21584.45
860.4619	1113.9351	22286.95	21342.05
860.6068	1115.8923	21971.9	21030.45
860.7517	1117.8488	21699.85	20759
860.8967	1119.8045	21390.1	20447.35
861.0416	1121.7596	21312.55	20371.75
861.1865	1123.7139	21198.55	20256.95
861.3314	1125.6675	21224.35	20280.05
861.4763	1127.6204	21321.5	20377.3
861.6212	1129.5726	21288.65	20343.95
861.7661	1131.524	21255.95	20314.5
861.911	1133.4748	21257.45	20313.65
862.0559	1135.4248	21200.25	20256.8
862.2008	1137.3741	21184.05	20240.9
862.3457	1139.3226	21142.25	20197.2
862.4905	1141.2705	21123.6	20177.1
862.6354	1143.2176	20995.3	20042.1
862.7803	1145.164	21030.55	20080.7
862.9251	1147.1097	21019.25	20077.3
863.07	1149.0546	21034.2	20090.85
863.2148	1150.9989	20954.7	20011.5
863.3597	1152.9424	20809.8	19864.55
863.5045	1154.8852	20651.35	19709.45
863.6493	1156.8272	20554.15	19610.95
863.7942	1158.7686	20529.15	19578.6
863.939	1160.7092	20434.05	19488.4
864.0838	1162.6491	20429.3	19484.6
864.2286	1164.5883	20523.5	19580.7
864.3734	1166.5267	20559.9	19613.15
864.5182	1168.4644	20736.8	19795.85
864.663	1170.4014	20930.15	19985.25
864.8078	1172.3377	21178.3	20236.05
864.9526	1174.2732	21411.55	20473.3
865.0974	1176.2081	21674.8	20732.9
865.2421	1178.1421	21895.75	20949.6
865.3869	1180.0755	22111.9	21170.95
865.5317	1182.0082	22208.95	21267.6
865.6764	1183.9401	22242.4	21301.55
865.8212	1185.8713	22098.3	21163.65
865.9659	1187.8017	21850.8	20923.2
866.1106	1189.7315	21611.8	20689
866.2554	1191.6605	21261.25	20342
866.4001	1193.5888	21023.55	20097.9
866.5448	1195.5163	20904.4	19971.55
866.6895	1197.4432	20849.95	19912.3
866.8342	1199.3693	20760.9	19821.95
866.9789	1201.2947	20722.85	19775
867.1236	1203.2193	20674.25	19732.6
867.2683	1205.1432	20711.95	19769.7
867.413	1207.0664	20712.2	19770.2
867.5576	1208.9889	20750.4	19809.55
867.7023	1210.9106	20710.1	19770
867.847	1212.8316	20757.05	19817.1
867.9916	1214.7519	20845.05	19897.1
868.1363	1216.6715	20794.85	19857.3
868.2809	1218.5903	20808.8	19871.9
868.4255	1220.5084	20769.15	19827.15
868.5701	1222.4257	20796.25	19857.2
868.7148	1224.3424	20704.75	19767
868.8594	1226.2583	20736.35	19796.35
869.004	1228.1735	20823.35	19884.7
869.1486	1230.0879	20905.65	19966.25
869.2932	1232.0016	21008	20070.5
869.4377	1233.9146	21012.65	20069.3
869.5823	1235.8269	20938.4	20003.95
869.7269	1237.7384	20823.7	19884.4
869.8715	1239.6492	20614.95	19677.55
870.016	1241.5592	20530.6	19588.8
870.1606	1243.4686	20409.95	19472.7
870.3051	1245.3772	20402.95	19463.35
870.4496	1247.285	20388.15	19449.7
870.5941	1249.1922	20328.05	19391.45
870.7387	1251.0986	20337.85	19402.75
870.8832	1253.0042	20310	19372.35
871.0277	1254.9092	20371.55	19431.75
871.1722	1256.8134	20401.15	19465.9
871.3167	1258.7169	20581.6	19644.5
871.4611	1260.6196	20721.65	19785.55
871.6056	1262.5216	20885.45	19946.4
871.7501	1264.4229	21073.65	20134.65
871.8945	1266.3234	21231.15	20295
872.039	1268.2232	21295.25	20357.2
872.1834	1270.1223	21310.6	20373.75
872.3278	1272.0207	21287.35	20347.05
872.4723	1273.9183	21233.55	20290.55
872.6167	1275.8151	21142.95	20207.25
872.7611	1277.7113	21053.3	20115.9
872.9055	1279.6067	20930.95	19992.55
873.0499	1281.5014	20880.95	19940.1
873.1943	1283.3953	20817.75	19876.3
873.3386	1285.2885	20822.35	19888.5
873.483	1287.181	20876.4	19941.3
873.6274	1289.0727	21010.7	20076.85
873.7717	1290.9637	21084.45	20146.05
873.9161	1292.854	21167.6	20231.05
874.0604	1294.7435	21269	20328.7
874.2047	1296.6323	21469.9	20532.25
874.349	1298.5204	21666.7	20727.2
874.4933	1300.4077	21868.7	20935.2
874.6376	1302.2943	21986.05	21047.3
874.7819	1304.1802	22034.95	21099.1
874.9262	1306.0653	21844.55	20910.9
875.0705	1307.9497	21651.15	20716.95
875.2147	1309.8333	21463.7	20528.2
875.359	1311.7162	21366.55	20429.95
875.5032	1313.5984	21355.55	20414.1
875.6475	1315.4798	21390.85	20443
875.7917	1317.3605	21491.95	20539.85
875.9359	1319.2405	21501.7	20563.55
876.0801	1321.1197	21430.55	20491.6
876.2243	1322.9982	21264.8	20324.8
876.3685	1324.876	21231.55	20295.8
876.5127	1326.753	21092.1	20158.45
876.6569	1328.6293	21040.2	20102.25
876.801	1330.5048	21039.9	20098.6
876.9452	1332.3796	20986.65	20052.8
877.0893	1334.2537	20961.55	19999.25
877.2335	1336.127	20863.1	19928
877.3776	1337.9996	20842.75	19908.5
877.5217	1339.8714	20803.25	19865.75
877.6658	1341.7426	20778.7	19797.8
877.8099	1343.6129	20729.55	19793.35
877.954	1345.4826	20696.9	19760.1
878.0981	1347.3515	20687.5	19746.75
878.2422	1349.2196	20574.65	19639.05
878.3862	1351.087	20603.8	19668.95
878.5303	1352.9537	20671.35	19734.9
878.6743	1354.8197	20734.35	19796
878.8184	1356.6849	20893.75	19955.75
878.9624	1358.5493	20970.15	20035.8
879.1064	1360.4131	21011.5	20078.2
879.2504	1362.276	20971.8	20035.35
879.3944	1364.1383	20792.15	19854.3
879.5384	1365.9998	20557.75	19616.1
879.6823	1367.8606	20212	19274.55
879.8263	1369.7206	19930.65	18994.9
879.9702	1371.5799	19683.05	18743.9
880.1142	1373.4384	19519	18581.7
880.2581	1375.2962	19364.3	18425.15
880.402	1377.1533	19074.4	18140.6
880.5459	1379.0096	18717.6	17786.55
880.6898	1380.8652	18400.85	17472.15
880.8337	1382.7201	18150.5	17218.25
880.9776	1384.5742	17882.4	16948.7
881.1215	1386.4275	17715.35	16778.15
881.2653	1388.2802	17564.3	16630
881.4092	1390.132	17375.95	16440.5
881.553	1391.9832	17334.35	16397.15
881.6968	1393.8336	17233.95	16294.75
881.8406	1395.6832	17173.35	16233.85
881.9844	1397.5322	17094.3	16159.4
882.1282	1399.3803	17073.1	16134
882.272	1401.2278	16985.4	16050.9
882.4158	1403.0745	17002.15	16068.45
882.5595	1404.9204	16914.6	15984.15
882.7033	1406.7656	16933.55	15999.25
882.847	1408.6101	16919.8	15984.05
882.9908	1410.4538	16898.95	15966
883.1345	1412.2968	16919.5	15983.9
883.2782	1414.139	16911.9	15977.3
883.4219	1415.9805	16994.85	16061.65
883.5656	1417.8213	17053.15	16115.2
883.7092	1419.6613	17092.85	16161.35
883.8529	1421.5006	17300.15	16365.2
883.9965	1423.3391	17500.65	16567.7
884.1402	1425.1769	17792.1	16859.7
884.2838	1427.0139	18248.2	17312.9
884.4274	1428.8502	18848.05	17915.75
884.571	1430.6858	19391.25	18456.7
884.7146	1432.5206	19705.05	18770.5
884.8582	1434.3547	19981.35	19045.2
885.0018	1436.188	19995.25	19058.95
885.1453	1438.0206	19894.6	18964.1
885.2889	1439.8524	19683.6	18748.95
885.4324	1441.6835	19593.2	18661.15
885.5759	1443.5139	19470.75	18538.05
885.7194	1445.3435	19368.75	18433.35
885.8629	1447.1724	19297.55	18366.1
886.0064	1449.0005	19254.65	18324.8
886.1499	1450.8279	19158.8	18224.4
886.2933	1452.6545	19103.2	18171.3
886.4368	1454.4804	19145.5	18217.65
886.5802	1456.3056	19083.3	18146.15
886.7237	1458.13	19061.85	18132.15
886.8671	1459.9536	18836.25	17906.4
887.0105	1461.7766	18468.65	17536.3
887.1539	1463.5987	18024.1	17091.1
887.2972	1465.4202	17619.9	16688.95
887.4406	1467.2409	17241.7	16312.85
887.584	1469.0608	16994.35	16062.25
887.7273	1470.88	16727.45	15795.4
887.8706	1472.6984	16475.85	15543.7
888.0139	1474.5161	16271.05	15337.3
888.1572	1476.3331	16098.4	15165.75
888.3005	1478.1493	15960.8	15027.7
888.4438	1479.9648	15851.4	14919.85
888.5871	1481.7795	15741.4	14809.65
888.7303	1483.5935	15656.8	14729
888.8736	1485.4067	15594.15	14663.8
889.0168	1487.2192	15527.95	14594.75
889.16	1489.031	15479	14545.95
889.3032	1490.842	15399.2	14467.95
889.4464	1492.6522	15379.4	14449.1
889.5896	1494.4618	15306	14373.7
889.7327	1496.2705	15302.6	14371.55
889.8759	1498.0785	15229.35	14299.5
890.019	1499.8858	15179	14246.8
890.1622	1501.6924	15149.1	14221.45
890.3053	1503.4981	15092.55	14164.8
890.4484	1505.3032	15088.3	14156.55
890.5914	1507.1075	15023.95	14092.7
890.7345	1508.911	14971	14042.2
890.8776	1510.7138	14952.25	14023.15
891.0206	1512.5159	14849.3	13919.95
891.1637	1514.3172	14775.7	13846.6
891.3067	1516.1178	14699.45	13772.2
891.4497	1517.9176	14702.55	13770.35
891.5927	1519.7166	14624.3	13698.9
891.7357	1521.515	14607.4	13672.4
891.8786	1523.3126	14555.5	13627.4
892.0216	1525.1094	14493.05	13566.1
892.1645	1526.9055	14435.35	13512.4
892.3074	1528.7008	14377.95	13452.4
892.4503	1530.4954	14277.65	13349.6
892.5932	1532.2893	14285.5	13361.2
892.7361	1534.0824	14202.35	13275.25
892.879	1535.8747	14202.6	13279.65
893.0218	1537.6663	14157.35	13234.9
893.1647	1539.4572	14109.9	13186.7
893.3075	1541.2473	14114.05	13190.8
893.4503	1543.0367	14073.9	13151.6
893.5931	1544.8253	14050.75	13124.85
893.7359	1546.6132	14041.85	13116.5
893.8787	1548.4003	14018.75	13085.7
894.0214	1550.1867	14023.55	13091.15
894.1642	1551.9723	14021.55	13095.05
894.3069	1553.7572	14050.05	13128.8
894.4496	1555.5414	14063.05	13145.3
894.5923	1557.3247	14099.3	13179.5
894.735	1559.1074	14158.2	13240.35
894.8777	1560.8893	14202.15	13284.75
895.0204	1562.6705	14242	13325.05
895.163	1564.4509	14303.25	13389.5
895.3056	1566.2305	14328.15	13416.55
895.4482	1568.0094	14433.35	13519.55
895.5908	1569.7876	14448.85	13534.2
895.7334	1571.565	14431.7	13514.95
895.876	1573.3417	14456.75	13541.4
896.0186	1575.1176	14409.45	13494.1
896.1611	1576.8928	14355.65	13447.05
896.3036	1578.6672	14252.85	13348.65
896.4461	1580.4409	14147.05	13242
896.5886	1582.2138	14013.15	13101.85
896.7311	1583.986	13911.9	12997.55
896.8736	1585.7575	13865.05	12953.2
897.0161	1587.5282	13756.7	12851.95
897.1585	1589.2981	13752.5	12846.1
897.3009	1591.0673	13642.75	12733.45
897.4433	1592.8358	13653.8	12745.95
897.5857	1594.6035	13654.5	12742.95
897.7281	1596.3704	13644.35	12730.25
897.8705	1598.1366	13701.15	12789.15
898.0128	1599.9021	13700.75	12793.4
898.1551	1601.6668	13730.35	12818.5
898.2975	1603.4308	13787.9	12872.05
898.4398	1605.194	13898.35	12979.65
898.5821	1606.9564	13979.95	13076.55
898.7243	1608.7182	14127.1	13227.5
898.8666	1610.4791	14252.95	13358
899.0088	1612.2394	14388.8	13490.75
899.1511	1613.9988	14563.4	13665.35
899.2933	1615.7576	14745.25	13843.1
899.4355	1617.5156	14952.8	14032.3
899.5776	1619.2728	15148.7	14233.45
899.7198	1621.0293	15267	14358.2
899.862	1622.785	15259.35	14349.55
900.0041	1624.54	15117.3	14212
900.1462	1626.2942	14960.65	14057.55
900.2883	1628.0477	14660.5	13753.7
900.4304	1629.8005	14418.95	13511.8
900.5725	1631.5525	14178.75	13277.15
900.7145	1633.3037	13977.05	13075.65
900.8566	1635.0542	13838.6	12938.95
900.9986	1636.804	13753.05	12851.1
901.1406	1638.553	13694.25	12731
901.2826	1640.3013	13601.1	12697.05
901.4245	1642.0488	13561.15	12658.3
901.5665	1643.7955	13569.35	12668.35
901.7085	1645.5416	13582.9	12681.5
901.8504	1647.2868	13659.45	12758.25
901.9923	1649.0313	13730.15	12823.3
902.1342	1650.7751	13846.85	12942.15
902.2761	1652.5181	14004.8	13104.25
902.4179	1654.2604	14191.25	13292.45
902.5598	1656.0019	14422.2	13520
902.7016	1657.7427	14708.1	13804.1
902.8434	1659.4828	14996.55	14091.6
902.9852	1661.222	15144.95	14238.75
903.127	1662.9606	15149.55	14246.1
903.2687	1664.6984	14944.7	14037.55
903.4105	1666.4354	14550.55	13642.95
903.5522	1668.1717	14028.5	13122.35
903.6939	1669.9072	13509.5	12600.45
903.8356	1671.642	13063.4	12154.4
903.9773	1673.3761	12683.5	11778.6
904.119	1675.1094	12409.05	11504.6
904.2606	1676.8419	12179.1	11275.5
904.4022	1678.5737	11958.2	11052.55
904.5439	1680.3048	11801.65	10899.45
904.6855	1682.0351	11669.4	10765.2
904.827	1683.7646	11579.2	10671.35
904.9686	1685.4934	11482.7	10578.4
905.1101	1687.2215	11411.85	10508.7
905.2517	1688.9488	11316.4	10416.2
905.3932	1690.6754	11240.25	10338.2
905.5347	1692.4012	11208.4	10304.85
905.6761	1694.1263	11120.35	10218.65
905.8176	1695.8506	11074.95	10171.4
905.9591	1697.5742	11053	10150.5
906.1005	1699.297	11008.9	10110.5
906.2419	1701.0191	10950.2	10054.7
906.3833	1702.7404	10874.25	9976.05
906.5246	1704.461	10785.65	9884.5
906.666	1706.1808	10743.1	9841.8
906.8073	1707.8999	10716.9	9817.8
906.9487	1709.6182	10697.5	9801.7
907.09	1711.3358	10640.4	9745.75
907.2313	1713.0527	10597.55	9703.5
907.3725	1714.7688	10579.4	9676.55
907.5138	1716.4841	10526.65	9626.5
907.655	1718.1987	10487	9584
907.7962	1719.9126	10456.8	9561.9
907.9374	1721.6257	10396.95	9502.9
908.0786	1723.338	10381.9	9488.85
908.2198	1725.0496	10333.85	9437.7
908.3609	1726.7605	10318.85	9420.65
908.502	1728.4706	10269.1	9372.3
908.6431	1730.18	10222.65	9327.55
908.7842	1731.8886	10196.3	9304.55
908.9253	1733.5964	10168.9	9250.65
909.0664	1735.3036	10119.3	9221.1
909.2074	1737.0099	10099.05	9204.4
909.3484	1738.7156	10073.2	9180.25
909.4894	1740.4204	10026.55	9130
909.6304	1742.1246	9995.05	9100
909.7714	1743.8279	9984.4	9087.4
909.9123	1745.5306	9965.4	9068.65
910.0532	1747.2325	9913.6	9018.8
910.1941	1748.9336	9879.15	8984.8
910.335	1750.634	9832	8932.15
910.4759	1752.3336	9813.05	8918.85
910.6168	1754.0325	9801.4	8910.5
910.7576	1755.7307	9756.25	8864.9
910.8984	1757.4281	9758.2	8862.05
911.0392	1759.1247	9730.65	8823.95
911.18	1760.8206	9688.9	8787.6
911.3208	1762.5158	9683.95	8782.1
911.4615	1764.2102	9639.55	8742.65
911.6022	1765.9039	9621.1	8726.85
911.7429	1767.5968	9579.6	8688.35
911.8836	1769.289	9537.1	8644.35
912.0243	1770.9804	9517.75	8621.8
912.1649	1772.6711	9502.15	8604.6
912.3056	1774.361	9487.1	8586.15
912.4462	1776.0502	9516.45	8617.3
912.5868	1777.7386	9460.05	8562.2
912.7274	1779.4263	9441.6	8549.95
912.8679	1781.1132	9404	8513.6
913.0084	1782.7994	9384.8	8493
913.149	1784.4849	9343.95	8453.45
913.2895	1786.1696	9338.25	8442.25
913.4299	1787.8535	9298.8	8407.7
913.5704	1789.5367	9275.6	8386.95
913.7108	1791.2192	9271.5	8380.4
913.8513	1792.9009	9236.45	8317.2
913.9917	1794.5818	9224.7	8326.2
914.132	1796.2621	9192.3	8298
914.2724	1797.9415	9160.3	8265.9
914.4128	1799.6202	9141.3	8246.85
914.5531	1801.2982	9111.4	8212.95
914.6934	1802.9755	9096.95	8202
914.8337	1804.6519	9105.7	8208.7
914.9739	1806.3277	9040.35	8149.8
915.1142	1808.0027	9023.8	8136.15
915.2544	1809.6769	8982.65	8095.95
915.3946	1811.3504	8979.45	8093.1
915.5348	1813.0231	8972.1	8082.6
915.675	1814.6951	8950.1	8059.8
915.8151	1816.3664	8961.6	8068.05
915.9553	1818.0369	8913.8	8021.6
916.0954	1819.7067	8880.05	7987.6
916.2355	1821.3757	8867.75	7972.4
916.3755	1823.044	8839.7	7945.85
916.5156	1824.7115	8819	7921.75
916.6556	1826.3783	8783.5	7891.45
916.7956	1828.0443	8747.5	7855.6
916.9356	1829.7096	8742.15	7849.6
917.0756	1831.3741	8739.75	7844.3
917.2155	1833.0379	8715.25	7823.75
917.3555	1834.701	8680.5	7789.9
917.4954	1836.3633	8655	7765.9
917.6353	1838.0248	8650.2	7760.25
917.7751	1839.6856	8625.6	7731.4
917.915	1841.3457	8611.2	7719.7
918.0548	1843.005	8584.5	7689.05
918.1946	1844.6636	8564	7671.25
918.3344	1846.3214	8538.05	7643.55
918.4742	1847.9785	8566	7675.1
918.6139	1849.6349	8537.25	7643.65
918.7537	1851.2904	8504.65	7602.7
918.8934	1852.9453	8491.95	7596.25
919.0331	1854.5994	8450.5	7553.65
919.1727	1856.2528	8487.3	7589.95
919.3124	1857.9054	8440.75	7545.85
919.452	1859.5572	8424.05	7532.5
919.5916	1861.2083	8404	7509.95
919.7312	1862.8587	8404.95	7509.95
919.8708	1864.5084	8403	7507
920.0103	1866.1572	8358.55	7462.85
920.1498	1867.8054	8302.55	7405.75
920.2893	1869.4528	8307.45	7409.4
920.4288	1871.0994	8264	7366.9
920.5683	1872.7453	8264.7	7368.2
920.7077	1874.3905	8272.65	7361.55
920.8471	1876.0349	8213.05	7319.5
920.9865	1877.6786	8218.05	7324.3
921.1259	1879.3215	8188.5	7296.05
921.2653	1880.9637	8171.8	7277
921.4046	1882.6051	8169.55	7277.3
921.5439	1884.2458	8126.8	7235.05
921.6832	1885.8858	8104.15	7211.35
921.8225	1887.525	8098.75	7204.6
921.9617	1889.1634	8055.9	7161.1
922.101	1890.8011	8039.05	7143.45
922.2402	1892.4381	8016.8	7123.4
922.3794	1894.0743	8019.05	7125.4
922.5185	1895.7098	7985.5	7093.75
922.6577	1897.3446	7970.6	7077.35
922.7968	1898.9786	7938.4	7041.65
922.9359	1900.6118	7906.45	7017.05
923.075	1902.2443	7893.85	7001.75
923.214	1903.8761	7880.7	6988.2
923.3531	1905.5071	7847.1	6952.8
923.4921	1907.1374	7808.1	6916
923.6311	1908.7669	7804.05	6913.1
923.77	1910.3957	7775.6	6884.85
923.909	1912.0237	7726.8	6835.25
924.0479	1913.651	7739.25	6846.35
924.1868	1915.2776	7717.8	6829.5
924.3257	1916.9034	7671.95	6781.35
924.4646	1918.5285	7655.1	6766.1
924.6034	1920.1528	7598.45	6707.7
924.7422	1921.7764	7611.05	6719.1
924.881	1923.3992	7580.05	6689.65
925.0198	1925.0213	7557.65	6665.7
925.1586	1926.6427	7492.6	6602.3
925.2973	1928.2633	7568.5	6584.55
925.436	1929.8832	7485.05	6591.6
925.5747	1931.5023	7437.45	6545.85
925.7134	1933.1207	7433.55	6542.25
925.852	1934.7383	7420.45	6529.65
925.9906	1936.3552	7402.15	6514.3
926.1292	1937.9714	7363.95	6473.35
926.2678	1939.5868	7354.75	6461.35
926.4064	1941.2015	7304.4	6412.55
926.5449	1942.8154	7271.2	6379.65
926.6834	1944.4286	7252.2	6359.25
926.8219	1946.041	7239.85	6325.3
926.9604	1947.6528	7206.2	6311.15
927.0988	1949.2637	7185.8	6297.85
927.2372	1950.8739	7150.5	6259.5
927.3756	1952.4834	7141.25	6250.2
927.514	1954.0921	7133.5	6239.8
927.6523	1955.7001	7112.85	6217.75
927.7907	1957.3074	7080.45	6192.05
927.929	1958.9139	7031.35	6145.75
928.0673	1960.5197	7018.65	6127.8
928.2055	1962.1247	7009.45	6120.1
928.3438	1963.729	6975.2	6089.25
928.482	1965.3325	6953.6	6057.8
928.6202	1966.9353	6948.6	6061
928.7584	1968.5374	6902.2	6015.2
928.8965	1970.1387	6885.1	5997.4
929.0346	1971.7393	6849.25	5960.1
929.1727	1973.3392	6839.1	5950.25
929.3108	1974.9383	6813.3	5926.7
929.4489	1976.5366	6778.8	5893.45
929.5869	1978.1342	6761.6	5876.5
929.7249	1979.7311	6770.1	5884.25
929.8629	1981.3273	6733.45	5849.25
930.0009	1982.9227	6729.05	5843.65
930.1388	1984.5173	6692.25	5807.45
930.2767	1986.1112	6644	5758.25
930.4146	1987.7044	6638.6	5752.3
930.5525	1989.2968	6630.2	5743.05
930.6904	1990.8885	6645.6	5758.85
930.8282	1992.4795	6611.9	5727.65
930.966	1994.0697	6582.85	5698.7
931.1038	1995.6592	6548.3	5663
931.2415	1997.2479	6532.85	5647.55
931.3793	1998.8359	6520.6	5636.3
931.517	2000.4232	6494.6	5615.15
931.6547	2002.0097	6467.75	5588.8
931.7923	2003.5955	6437.9	5556.55
931.93	2005.1805	6448.65	5565.55
932.0676	2006.7648	6436.15	5553.95
932.2052	2008.3484	6419.35	5537.65
932.3427	2009.9312	6413.65	5530.25
932.4803	2011.5133	6369.65	5491.55
932.6178	2013.0946	6349	5469.25
932.7553	2014.6752	6342.55	5459.4
932.8928	2016.2551	6322.35	5441.4
933.0302	2017.8342	6298.3	5416.35
933.1676	2019.4126	6268.35	5387.6
933.305	2020.9902	6255.35	5375.3
933.4424	2022.5672	6251.65	5372.75
933.5798	2024.1433	6237.15	5352.5
933.7171	2025.7188	6212.25	5336.95
933.8544	2027.2935	6196.6	5318.95
933.9917	2028.8674	6165.55	5288.85
934.129	2030.4406	6155.1	5278.65
934.2662	2032.0131	6137.7	5261.8
934.4034	2033.5849	6122.4	5241.6
934.5406	2035.1559	6107	5228.65
934.6778	2036.7261	6108.75	5229.35
934.8149	2038.2957	6088.1	5205.4
934.952	2039.8645	6078.25	5191.4
935.0891	2041.4325	6071.35	5186.1
935.2262	2042.9998	6054	5173.35
935.3632	2044.5664	6035.05	5151.35
935.5002	2046.1323	5998.5	5120.05
935.6372	2047.6974	5964.85	5084.9
935.7742	2049.2617	5968.45	5088.2
935.9111	2050.8254	5988.4	5086.4
936.048	2052.3883	5968.35	5085.55
936.1849	2053.9504	5952.65	5069.55
936.3218	2055.5118	5915.55	5032
936.4586	2057.0725	5906.25	5021.95
936.5955	2058.6325	5898.7	5018.3
936.7323	2060.1917	5876.5	4995.45
936.869	2061.7502	5865.7	4985.55
937.0058	2063.3079	5824.35	4944.6
937.1425	2064.8649	5823.5	4939
937.2792	2066.4212	5809.7	4929.5
937.4159	2067.9767	5800.1	4918.75
937.5525	2069.5315	5775.85	4894.25
937.6891	2071.0856	5746.25	4865.35
937.8257	2072.6389	5741.6	4860.5
937.9623	2074.1915	5698.05	4821.4
938.0989	2075.7433	5687.9	4806.75
938.2354	2077.2945	5643.35	4762.2
938.3719	2078.8448	5656.3	4774.75
938.5084	2080.3945	5646	4762.6
938.6448	2081.9434	5639	4756.55
938.7812	2083.4916	5633.2	4747.1
938.9176	2085.039	5599.3	4708.7
939.054	2086.5857	5573.55	4684.3
939.1903	2088.1317	5579.75	4688.9
939.3267	2089.677	5552.35	4661.05
939.463	2091.2215	5524.85	4633.85
939.5992	2092.7652	5545.15	4654.2
939.7355	2094.3083	5516.8	4626.1
939.8717	2095.8506	5510.9	4624.25
940.0079	2097.3921	5513.1	4627.5
940.1441	2098.933	5489.65	4606.45
940.2802	2100.4731	5479.25	4592.55
940.4163	2102.0124	5463	4570.2
940.5524	2103.5511	5454.9	4568.8
940.6885	2105.089	5456.15	4567.7
940.8245	2106.6261	5427.35	4542.5
940.9606	2108.1626	5412	4524.8
941.0965	2109.6983	5427.2	4517
941.2325	2111.2332	5386.8	4500.05
941.3684	2112.7675	5378.55	4490.2
941.5044	2114.301	5360.7	4472.1
941.6403	2115.8337	5358.1	4472.55
941.7761	2117.3657	5341.65	4455.4
941.912	2118.897	5325.3	4436.65
942.0478	2120.4276	5327.2	4434.55
942.1835	2121.9575	5273.65	4386.1
942.3193	2123.4866	5291.55	4390.7
942.455	2125.0149	5275.1	4386.7
942.5907	2126.5426	5236.35	4353.65
942.7264	2128.0695	5228.7	4345.25
942.8621	2129.5956	5205.2	4325.45
942.9977	2131.1211	5212.95	4326.4
943.1333	2132.6458	5193.85	4307.95
943.2689	2134.1698	5192.55	4306.05
943.4044	2135.693	5186.8	4294.75
943.54	2137.2155	5176.45	4286.15
943.6755	2138.7373	5156.9	4272.65
943.8109	2140.2584	5125.9	4244.85
943.9464	2141.7787	5123.35	4237.1
944.0818	2143.2983	5115.05	4236.1
944.2172	2144.8171	5072	4192.2
944.3526	2146.3353	5066.7	4182.5
944.4879	2147.8527	5055.85	4174.45
944.6232	2149.3693	5056.4	4170.95
944.7585	2150.8853	5041.35	4151.95
944.8938	2152.4005	5015.3	4126.45
945.029	2153.9149	5016.8	4127.3
945.1642	2155.4287	4991.45	4104.6
945.2994	2156.9417	4995.75	4106.55
945.4346	2158.454	4981.75	4096.2
945.5697	2159.9655	4976.65	4093.3
945.7048	2161.4764	4961.7	4080.9
945.8399	2162.9865	4946.65	4063.5
945.9749	2164.4958	4920.45	4037.8
946.1099	2166.0045	4905.5	4019.65
946.2449	2167.5124	4907.3	4023.8
946.3799	2169.0195	4896.25	4010.15
946.5148	2170.526	4903.35	4013.5
946.6498	2172.0317	4886	4001.6
946.7846	2173.5367	4855.65	3970.1
946.9195	2175.0409	4855.2	3970.1
947.0543	2176.5445	4864.85	3978.45
947.1891	2178.0473	4844.4	3956.5
947.3239	2179.5494	4811.4	3920.35
947.4587	2181.0507	4786.8	3901.1
947.5934	2182.5513	4774.85	3889.25
947.7281	2184.0512	4772.95	3887.3
947.8628	2185.5504	4754.2	3868.4
947.9974	2187.0488	4740.35	3857.15
948.132	2188.5465	4742.15	3858.7
948.2666	2190.0435	4715.75	3829.65
948.4012	2191.5397	4695.85	3807.5
948.5357	2193.0353	4690.8	3805
948.6702	2194.5301	4686.3	3796.35
948.8047	2196.0241	4663.2	3774
948.9392	2197.5175	4661.6	3770.7
949.0736	2199.0101	4639.95	3744.55
949.208	2200.502	4608.55	3721.15
949.3424	2201.9931	4587.75	3702.2
949.4767	2203.4835	4588.8	3704.35
949.611	2204.9733	4598.8	3710.75
949.7453	2206.4622	4569.7	3686.35
949.8796	2207.9505	4546.2	3660.55
950.0138	2209.438	4531.8	3651.85
950.148	2210.9248	4529.15	3643.85
950.2822	2212.4109	4510.2	3624.2
950.4164	2213.8962	4515.45	3624.25
950.5505	2215.3809	4496.95	3604.85
950.6846	2216.8648	4479.25	3587.2
950.8186	2218.3479	4477.25	3577
950.9527	2219.8304	4463.35	3565.5
951.0867	2221.3121	4431.1	3536.75
951.2207	2222.7931	4442.7	3551
951.3546	2224.2733	4407.95	3518.6
951.4886	2225.7529	4402.55	3515.2
951.6225	2227.2317	4401.7	3513.75
951.7563	2228.7098	4391.8	3508.05
951.8902	2230.1872	4362.9	3479.9
952.024	2231.6638	4349.3	3467.05
952.1578	2233.1397	4334.7	3448
952.2916	2234.6149	4337.7	3454.9
952.4253	2236.0894	4318.9	3432.55
952.559	2237.5632	4335.2	3442.65
952.6927	2239.0362	4303.6	3418.5
952.8263	2240.5085	4278.9	3392.75
952.9599	2241.9801	4266	3378.3
953.0935	2243.4509	4268	3379.7
953.2271	2244.921	4248.3	3354.8
953.3606	2246.3904	4227.6	3335.3
953.4941	2247.8591	4223.7	3334.7
953.6276	2249.3271	4221.15	3331.35
953.7611	2250.7943	4198.45	3310.55
953.8945	2252.2608	4175.5	3286
954.0279	2253.7266	4169.8	3282.65
954.1612	2255.1917	4169.45	3283.05
954.2946	2256.656	4146.65	3260.45
954.4279	2258.1197	4140.95	3258.35
954.5612	2259.5826	4128.7	3242.25
954.6944	2261.0447	4118.7	3231.7
954.8276	2262.5062	4112.4	3223
954.9608	2263.9669	4118.9	3228.9
955.094	2265.4269	4100.35	3212.7
955.2271	2266.8862	4082.55	3193.6
955.3602	2268.3448	4078.1	3192.35
955.4933	2269.8026	4074.75	3189.3
955.6264	2271.2598	4059.1	3171.3
955.7594	2272.7162	4051.4	3166.05
955.8924	2274.1719	4041.8	3153.85
956.0253	2275.6268	4046	3156.55
956.1583	2277.0811	4034.3	3144.55
956.2912	2278.5346	4005.75	3120.5
956.4241	2279.9874	4007.3	3121.75
956.5569	2281.4395	3989.05	3107.45
956.6897	2282.8908	3976.85	3085.9
956.8225	2284.3414	3991.7	3101.15
956.9553	2285.7914	3970.05	3085.95
957.088	2287.2406	3976.45	3086.65
957.2207	2288.689	3963.65	3072.8
957.3534	2290.1368	3947.15	3053.85
957.486	2291.5838	3934.3	3037.65
957.6186	2293.0302	3923.65	3027.35
957.7512	2294.4758	3911.05	3019.3
957.8838	2295.9206	3902.9	3010.95
958.0163	2297.3648	3881.4	2992.75
958.1488	2298.8082	3881.35	2993.15
958.2813	2300.251	3869.1	2980.65
958.4137	2301.693	3862.45	2969.25
958.5461	2303.1343	3866.95	2976.6
958.6785	2304.5748	3853.55	2966.1
958.8108	2306.0147	3857.1	2972.4
958.9432	2307.4538	3824.85	2937.95
959.0754	2308.8922	3816.95	2934.35
959.2077	2310.3299	3813.6	2929.25
959.3399	2311.7669	3788.7	2904.85
959.4721	2313.2031	3780.9	2892.85
959.6043	2314.6387	3781.45	2892.65
959.7365	2316.0735	3764.05	2876.5
959.8686	2317.5076	3754.3	2864.9
960.0006	2318.941	3743.65	2852.15
960.1327	2320.3737	3751.9	2860.95
960.2647	2321.8056	3735.95	2842.5
960.3967	2323.2369	3728.8	2838.55
960.5287	2324.6674	3717.8	2828.3
960.6606	2326.0972	3699.35	2807.7
960.7925	2327.5263	3699.55	2813.25
960.9244	2328.9547	3688.15	2798.2
961.0562	2330.3823	3670.5	2779.9
961.1881	2331.8092	3683.1	2789.55
961.3198	2333.2355	3663.95	2772.05
961.4516	2334.661	3660.9	2772.05
961.5833	2336.0858	3654.6	2764.9
961.715	2337.5098	3630.95	2742.9
961.8467	2338.9332	3629.95	2742.3
961.9783	2340.3558	3623.9	2736.1
962.1099	2341.7778	3604.4	2717.15
962.2415	2343.199	3590.3	2700
962.373	2344.6195	3588.45	2701.05
962.5045	2346.0393	3586.85	2702.3
962.636	2347.4583	3596.6	2708.95
962.7675	2348.8767	3573.85	2683.6
962.8989	2350.2943	3579.1	2686.1
963.0303	2351.7113	3570.05	2677.65
963.1617	2353.1275	3559.25	2668.75
963.293	2354.543	3555.5	2656.2
963.4243	2355.9578	3534.8	2644.75
963.5556	2357.3718	3523.95	2638.05
963.6868	2358.7852	3506.3	2619.85
963.818	2360.1978	3516.7	2631.55
963.9492	2361.6098	3502	2616.9
964.0803	2363.021	3485	2594.9
964.2114	2364.4315	3466.3	2577.7
964.3425	2365.8413	3477.6	2590.55
964.4736	2367.2504	3454.6	2570.1
964.6046	2368.6587	3429.75	2544.2
964.7356	2370.0664	3438.25	2552.75
964.8666	2371.4733	3421.95	2535.95
964.9975	2372.8795	3421.65	2538.2
965.1284	2374.285	3409.8	2523
965.2593	2375.6899	3395.7	2513.9
965.3901	2377.0939	3386.55	2503.6
965.5209	2378.4973	3380.5	2496
965.6517	2379.9	3347.8	2461.8
965.7825	2381.3019	3355.05	2470.75
965.9132	2382.7032	3357.25	2471.85
966.0439	2384.1037	3340.85	2460.65
966.1745	2385.5035	3331.8	2450.4
966.3051	2386.9027	3332.65	2452.65
966.4357	2388.3011	3332.6	2447.75
966.5663	2389.6987	3318.25	2434.85
966.6968	2391.0957	3302.85	2420.55
966.8273	2392.492	3294.75	2412.8
966.9578	2393.8876	3269.95	2386.8
967.0882	2395.2824	3263.6	2381.45
967.2186	2396.6765	3245.95	2364.8
967.349	2398.07	3249.2	2366.15
967.4793	2399.4627	3248.55	2362.7
967.6097	2400.8547	3235.6	2351.25
967.7399	2402.246	3230.4	2341.1
967.8702	2403.6366	3225.45	2341.15
968.0004	2405.0265	3209.4	2324.1
968.1306	2406.4156	3207.25	2319.8
968.2607	2407.8041	3185.25	2299.8
968.3909	2409.1918	3186.65	2301.7
968.521	2410.5789	3154.05	2269.85
968.651	2411.9652	3164.05	2278.9
968.781	2413.3508	3153.1	2268.35
968.911	2414.7358	3155.4	2271.15
969.041	2416.12	3140.65	2259.1
969.1709	2417.5035	3127.45	2244.55
969.3008	2418.8863	3106.35	2222.4
969.4307	2420.2684	3113.45	2229.55
969.5606	2421.6497	3113.1	2230.35
969.6904	2423.0304	3088.25	2203.8
969.8201	2424.4104	3082.4	2196
969.9499	2425.7896	3078.1	2192.45
970.0796	2427.1682	3066.1	2181.35
970.2093	2428.546	3064.7	2179.65
970.3389	2429.9232	3064.8	2181.3
970.4685	2431.2996	3059.25	2174.85
970.5981	2432.6753	3035.3	2150.75
970.7277	2434.0503	3038.7	2154.7
970.8572	2435.4246	3030.75	2146.05
970.9867	2436.7982	3025.45	2138.95
971.1161	2438.1711	3016.4	2133.5
971.2456	2439.5433	3025.2	2138.75
971.375	2440.9148	3009.8	2119.1
971.5043	2442.2856	2993	2107.65
971.6336	2443.6557	2995.3	2109.9
971.7629	2445.025	2986.15	2100.95
971.8922	2446.3937	2968.9	2084.6
972.0214	2447.7617	2961.75	2075.55
972.1506	2449.1289	2964.95	2080.6
972.2798	2450.4955	2945.6	2057.05
972.4089	2451.8613	2946.15	2063.3
972.538	2453.2265	2926.6	2044.35
972.6671	2454.5909	2939.15	2055.25
972.7961	2455.9546	2938.25	2054.35
972.9251	2457.3177	2921.45	2037.65
973.0541	2458.68	2921.1	2035.35
973.1831	2460.0416	2909.15	2022.95
973.312	2461.4025	2908.9	2023.3
973.4408	2462.7627	2915.15	2019.8
973.5697	2464.1222	2895.2	2012.5
973.6985	2465.4811	2886	1999.55
973.8273	2466.8392	2882.2	1997.25
973.956	2468.1966	2881.35	1994.95
974.0847	2469.5533	2874.3	1985.95
974.2134	2470.9093	2878.45	1996.3
974.3421	2472.2645	2871.05	1984.15
974.4707	2473.6191	2850.75	1967.05
974.5993	2474.973	2849.15	1965.25
974.7278	2476.3262	2847.35	1961.6
974.8563	2477.6787	2834.85	1950.25
974.9848	2479.0305	2822.65	1938.7
975.1132	2480.3816	2814.4	1930.4
975.2417	2481.7319	2801	1917.35
975.37	2483.0816	2798.45	1911.35
975.4984	2484.4306	2797.95	1911.6
975.6267	2485.7789	2788.65	1905.8
975.755	2487.1264	2785.5	1899.65
975.8833	2488.4733	2771.15	1887.15
976.0115	2489.8195	2760.45	1871.2
976.1397	2491.165	2752.85	1863.75
976.2678	2492.5097	2751.55	1865.85
976.3959	2493.8538	2735.75	1851.8
976.524	2495.1972	2728.8	1843.85
976.6521	2496.5398	2731.9	1847.65
976.7801	2497.8818	2733.1	1843
976.9081	2499.2231	2709.35	1826.15
977.036	2500.5637	2704.75	1815.85
977.164	2501.9035	2695.45	1807.05
977.2918	2503.2427	2700.05	1810.25
977.4197	2504.5812	2696.2	1812.25
977.5475	2505.919	2694.25	1806.15
977.6753	2507.256	2681.65	1795.4
977.8031	2508.5924	2677.05	1791.55
977.9308	2509.9281	2662.15	1773.35
978.0585	2511.2631	2657.45	1772.35
978.1861	2512.5974	2656	1772.75
978.3137	2513.9309	2647.3	1762
978.4413	2515.2638	2667.9	1755.15
978.5689	2516.596	2643.2	1755.55
978.6964	2517.9275	2634.6	1746.4
978.8239	2519.2583	2624.4	1737.75
978.9513	2520.5884	2614.85	1729.65
979.0788	2521.9178	2616.95	1729.8
979.2062	2523.2465	2591.15	1709.55
979.3335	2524.5745	2590.05	1704.85
979.4608	2525.9018	2596.95	1713.7
979.5881	2527.2284	2596.65	1711.55
979.7154	2528.5543	2590.3	1706.25
979.8426	2529.8796	2588	1701.45
979.9698	2531.2041	2579.75	1696.4
980.0969	2532.5279	2564.8	1682.95
980.224	2533.851	2578.65	1692.85
980.3511	2535.1735	2559.9	1675.7
980.4781	2536.4952	2548.45	1664.6
980.6052	2537.8163	2545.15	1659.15
980.7321	2539.1366	2547.9	1664.25
980.8591	2540.4562	2540.35	1652.8
980.986	2541.7752	2545.6	1661.35
981.1129	2543.0935	2529.75	1643.15
981.2397	2544.411	2529.6	1643.6
981.3665	2545.7279	2526.55	1641.2
981.4933	2547.0441	2532.8	1644.9
981.62	2548.3596	2526.35	1637.45
981.7467	2549.6744	2511.7	1626.7
981.8734	2550.9885	2516.15	1619.95
982.0001	2552.3019	2509.8	1622.9
982.1267	2553.6146	2501.25	1614
982.2532	2554.9266	2489.4	1603.65
982.3798	2556.2379	2486.85	1600.7
982.5063	2557.5485	2468.3	1585.8
982.6327	2558.8585	2486.65	1592.45
982.7592	2560.1677	2476.95	1590.35
982.8856	2561.4762	2473.55	1587.8
983.0119	2562.7841	2475.4	1587
983.1383	2564.0913	2463.9	1580.15
983.2646	2565.3977	2457.35	1571.65
983.3908	2566.7035	2466.4	1582
983.517	2568.0086	2459.5	1571.7
983.6432	2569.313	2442.35	1555.05
983.7694	2570.6167	2446.15	1557.9
983.8955	2571.9197	2441.6	1556.25
984.0216	2573.222	2444	1553.1
984.1476	2574.5236	2446.1	1558.65
984.2737	2575.8246	2435.5	1545.95
984.3996	2577.1248	2431.5	1541.6
984.5256	2578.4244	2437.35	1549.4
984.6515	2579.7232	2424.8	1539.15
984.7774	2581.0214	2442.2	1524.25
984.9032	2582.3189	2425.75	1542.75
985.029	2583.6157	2423.55	1533.1
985.1548	2584.9118	2408.9	1523.15
985.2806	2586.2072	2415.9	1529.65
985.4063	2587.5019	2397.85	1509.95
985.5319	2588.7959	2402.95	1517.05
985.6576	2590.0893	2397.1	1506.85
985.7832	2591.3819	2405.2	1519.2
985.9087	2592.6739	2394.5	1508.3
986.0343	2593.9652	2394.95	1509.25
986.1597	2595.2557	2391.45	1505.75
986.2852	2596.5456	2393.4	1506.55
986.4106	2597.8348	2373	1489.25
986.536	2599.1234	2367.25	1482.45
986.6614	2600.4112	2370.35	1483.3
986.7867	2601.6983	2377.95	1489.55
986.912	2602.9848	2356.9	1471.75
987.0372	2604.2705	2367.75	1474.65
987.1624	2605.5556	2359.55	1474.3
987.2876	2606.84	2348.3	1463.4
987.4128	2608.1237	2347.2	1462.65
987.5379	2609.4067	2338.1	1453.05
987.6629	2610.689	2342.75	1447.1
987.788	2611.9707	2343.95	1453.75
987.913	2613.2516	2334.5	1445.05
988.0379	2614.5319	2311.4	1424.9
988.1629	2615.8115	2317.2	1429.55
988.2878	2617.0903	2309.6	1423.05
988.4126	2618.3685	2293.15	1405.3
988.5375	2619.6461	2303.65	1418.7
988.6622	2620.9229	2300.2	1416.65
988.787	2622.199	2293.4	1407.5
988.9117	2623.4745	2288.55	1401.95
989.0364	2624.7493	2270.65	1385.6
989.161	2626.0234	2267.55	1381.4
989.2857	2627.2968	2283.3	1398.65
989.4102	2628.5695	2270.75	1383.35
989.5348	2629.8415	2261.3	1376.7
989.6593	2631.1128	2257.65	1370.9
989.7837	2632.3835	2258.65	1372.5
989.9082	2633.6535	2252.2	1367.55
990.0326	2634.9228	2251.4	1365.5
990.1569	2636.1914	2250	1363.2
990.2812	2637.4593	2246.15	1358.5
990.4055	2638.7265	2234.4	1347.8
990.5298	2639.9931	2238.15	1352.25
990.654	2641.259	2235.05	1349.15
990.7782	2642.5242	2230.45	1346.2
990.9023	2643.7887	2216.7	1331.9
991.0264	2645.0525	2213	1325.65
991.1505	2646.3156	2192.2	1307
991.2745	2647.5781	2196	1311.75
991.3985	2648.8398	2196.05	1313.05
991.5225	2650.1009	2197.85	1304.2
991.6464	2651.3613	2188.55	1301.85
991.7703	2652.6211	2196.55	1312
991.8942	2653.8801	2183.8	1299.45
992.018	2655.1385	2182.2	1295.1
992.1418	2656.3961	2177.35	1290.75
992.2655	2657.6531	2181.55	1297.5
992.3892	2658.9094	2162.25	1275.85
992.5129	2660.1651	2164.4	1282.15
992.6366	2661.42	2165.3	1280.7
992.7602	2662.6743	2167.65	1281.15
992.8837	2663.9279	2165.75	1279.35
993.0073	2665.1808	2173.3	1287.95
993.1307	2666.433	2156.15	1269.4
993.2542	2667.6846	2151.55	1268.3
993.3776	2668.9354	2159.9	1270.7
993.501	2670.1856	2161.25	1274.15
993.6244	2671.4351	2151.2	1266.05
993.7477	2672.6839	2159.9	1272.8
993.8709	2673.9321	2171.2	1287.65
993.9942	2675.1795	2159.3	1274.75
994.1174	2676.4263	2155.9	1271.05
994.2405	2677.6724	2150.85	1266.15
994.3637	2678.9179	2144.6	1259.15
994.4868	2680.1626	2146.4	1263.95
994.6098	2681.4067	2150.5	1264.45
994.7328	2682.6501	2135.45	1250.5
994.8558	2683.8928	2150.15	1264.85
994.9788	2685.1348	2130.15	1245.45
995.1017	2686.3761	2118.3	1234.85
995.2245	2687.6168	2114.75	1228.95
995.3474	2688.8568	2120.95	1236.8
995.4702	2690.0961	2111.45	1228.05
995.5929	2691.3348	2102.2	1215.05
995.7156	2692.5727	2097.85	1213.25
995.8383	2693.81	2085.7	1201.15
995.961	2695.0466	2087.15	1204.2
996.0836	2696.2826	2087.85	1200.9
996.2062	2697.5178	2099.2	1194.65
996.3287	2698.7524	2083.3	1199.45
996.4512	2699.9863	2086.5	1200.1
996.5737	2701.2195	2073.4	1191.2
996.6961	2702.452	2081.3	1194
996.8185	2703.6839	2086.45	1201.85
996.9408	2704.9151	2085.55	1201.1
997.0631	2706.1456	2079.2	1193.65
997.1854	2707.3755	2092.3	1207.05
997.3077	2708.6046	2088.7	1203.3
997.4299	2709.8331	2098.2	1213.45
997.552	2711.0609	2091.95	1207
997.6742	2712.2881	2099.55	1213.3
997.7963	2713.5145	2122.45	1235.5
997.9183	2714.7403	2120.95	1237.5
998.0403	2715.9654	2114.25	1228.7
998.1623	2717.1899	2145.75	1246.9
998.2842	2718.4136	2137.3	1252.7
998.4062	2719.6367	2155.4	1270.65
998.528	2720.8591	2165.5	1273.75
998.6498	2722.0809	2159.55	1274.8
998.7716	2723.3019	2171.7	1284.5
998.8934	2724.5223	2169.3	1284.05
999.0151	2725.7421	2179.25	1293.95
999.1368	2726.9611	2188.05	1301.2
999.2584	2728.1795	2177.35	1285.4
999.38	2729.3972	2168.3	1285.45
999.5016	2730.6142	2160.75	1265.65
999.6231	2731.8306	2132	1248.6
999.7446	2733.0462	2128.9	1244.25
999.8661	2734.2612	2100.2	1210.65
999.9875	2735.4756	2083.95	1199.5
1000.1089	2736.6892	2060.7	1175.75
1000.2302	2737.9022	2042.3	1161.05
1000.3515	2739.1145	2020.9	1135.8
1000.4728	2740.3262	2013.2	1121.3
1000.594	2741.5372	1997.15	1113.85
1000.7152	2742.7475	1980.5	1098.5
1000.8363	2743.9571	1977.45	1091.4
1000.9575	2745.1661	1967.85	1079.65
1001.0785	2746.3744	1950.6	1066.9
1001.1996	2747.582	1947.6	1063.25
1001.3206	2748.7889	1931.5	1045.3
1001.4415	2749.9952	1925.25	1041.6
1001.5625	2751.2008	1914.25	1030.3
1001.6833	2752.4057	1917.8	1032.95
1001.8042	2753.61	1891.9	1007
1001.925	2754.8136	1892.2	1004.75
1002.0458	2756.0165	1890.4	1005.2
1002.1665	2757.2188	1892.25	1010.55
1002.2872	2758.4204	1883.9	1000.75
1002.4078	2759.6213	1885.75	999.3
1002.5285	2760.8215	1885.9	998.35
1002.649	2762.0211	1888	1003.9
1002.7696	2763.22	1882.05	994.4
1002.8901	2764.4182	1870.15	982.8
1003.0106	2765.6158	1867.1	982.2
1003.131	2766.8127	1861.5	978.3
1003.2514	2768.009	1855.95	973.6
1003.3717	2769.2045	1847.6	964.2
1003.492	2770.3994	1854	968.85
1003.6123	2771.5936	1848.15	965
1003.7325	2772.7872	1847.55	965.25
1003.8527	2773.9801	1841.35	957.9
1003.9729	2775.1723	1854.65	951.9
1004.093	2776.3639	1827.9	945.65
1004.2131	2777.5548	1827.35	942.05
1004.3331	2778.745	1835.7	952.85
1004.4531	2779.9346	1826.85	942.7
1004.5731	2781.1235	1830.55	945.8
1004.693	2782.3117	1833.65	953.3
1004.8129	2783.4992	1831.3	947.6
1004.9328	2784.6861	1832.85	950.05
1005.0526	2785.8723	1837.6	955.5
1005.1723	2787.0579	1843.85	960.3
1005.2921	2788.2428	1850.55	967.5
1005.4118	2789.427	1846.45	964.9
1005.5314	2790.6106	1850.05	968.3
1005.651	2791.7935	1860.9	978.75
1005.7706	2792.9757	1869.7	991.55
1005.8902	2794.1573	1877.45	992.8
1006.0097	2795.3382	1901.7	1019.7
1006.1291	2796.5184	1893.85	1013.9
1006.2485	2797.698	1924.5	1040.65
1006.3679	2798.8769	1928.05	1045.4
1006.4873	2800.0551	1937.55	1054.95
1006.6066	2801.2327	1950.9	1067.2
1006.7258	2802.4096	1966.65	1083.8
1006.8451	2803.5859	1984.65	1101.1
1006.9642	2804.7615	1998.3	1113.75
1007.0834	2805.9364	2024.45	1143.5
1007.2025	2807.1106	2053.45	1173.25
1007.3216	2808.2842	2072.65	1192.25
1007.4406	2809.4572	2104.4	1221.75
1007.5596	2810.6294	2142.95	1259.8
1007.6785	2811.801	2174.2	1294.1
1007.7975	2812.972	2209.65	1329.4
1007.9163	2814.1423	2249.05	1367
1008.0352	2815.3119	2290.55	1407.55
1008.154	2816.4808	2337.05	1456.2
1008.2727	2817.6491	2398.05	1516.85
1008.3914	2818.8167	2443.6	1564.2
1008.5101	2819.9837	2473.4	1586.5
1008.6288	2821.15	2522.25	1641.95
1008.7474	2822.3157	2576.95	1698.5
1008.8659	2823.4807	2634.5	1752.85
1008.9844	2824.645	2665.25	1783.5
1009.1029	2825.8086	2720.6	1838.55
1009.2214	2826.9716	2755.8	1876.45
1009.3398	2828.134	2809.05	1927.15
1009.4581	2829.2957	2840.6	1958.95
1009.5764	2830.4567	2866.9	1985.7
1009.6947	2831.617	2874.45	1991.85
1009.813	2832.7767	2905.05	2023.65
1009.9312	2833.9358	2895.35	2012.65
1010.0493	2835.0941	2893.15	2010.15
1010.1675	2836.2519	2871.65	1990.05
1010.2855	2837.4089	2863.55	1983.55
1010.4036	2838.5653	2859.3	1978.7
1010.5216	2839.7211	2855.7	1975.55
1010.6396	2840.8761	2870.95	1989.35
1010.7575	2842.0306	2875.1	1994.55
1010.8754	2843.1843	2907.6	2025.3
1010.9932	2844.3374	2961.6	2080.95
1011.111	2845.4899	3002.95	2119.65
1011.2288	2846.6417	3074.1	2192.75
1011.3465	2847.7928	3160.8	2280.35
1011.4642	2848.9433	3236.15	2356.75
1011.5818	2850.0931	3292.1	2410.85
1011.6995	2851.2422	3356.35	2474.35
1011.817	2852.3907	3448.4	2566.75
1011.9345	2853.5385	3517.7	2633.85
1012.052	2854.6857	3570.8	2662.5
1012.1695	2855.8323	3602.3	2720.2
1012.2869	2856.9781	3649.9	2769.25
1012.4042	2858.1233	3690.1	2805.5
1012.5216	2859.2679	3735.1	2854.3
1012.6389	2860.4118	3787.2	2907
1012.7561	2861.555	3830.6	2943.75
1012.8733	2862.6976	3864.95	2980.4
1012.9905	2863.8395	3879.15	2998.05
1013.1076	2864.9808	3915.15	3035.5
1013.2247	2866.1214	3936.05	3056.4
1013.3417	2867.2614	3925.3	3043.2
1013.4587	2868.4007	3949.95	3066.95
1013.5757	2869.5393	3970.2	3086.85
1013.6926	2870.6773	3991	3107.8
1013.8095	2871.8146	4004.05	3114.8
1013.9263	2872.9513	3983.1	3100
1014.0431	2874.0874	3965.85	3083.4
1014.1599	2875.2227	3958.75	3077.3
1014.2766	2876.3574	3953.25	3073.7
1014.3933	2877.4915	3933.4	3053.6
1014.51	2878.6249	3906.65	3026.35
1014.6266	2879.7577	3887.2	3005.75
1014.7431	2880.8898	3866.8	2975.1
1014.8596	2882.0212	3840.25	2960.7
1014.9761	2883.152	3825.3	2943.7
1015.0925	2884.2821	3800.2	2920.35
1015.2089	2885.4116	3807	2927.35
1015.3253	2886.5405	3799	2919
1015.4416	2887.6686	3804.5	2921.55
1015.5579	2888.7962	3804.7	2926.15
1015.6741	2889.923	3822.1	2942.35
1015.7903	2891.0493	3821.15	2940.3
1015.9065	2892.1748	3833.35	2952.9
1016.0226	2893.2997	3846.2	2966.5
1016.1387	2894.424	3862.55	2984.2
1016.2547	2895.5476	3894.6	3015.7
1016.3707	2896.6706	3899.15	3020.5
1016.4866	2897.7929	3916.15	3034.5
1016.6025	2898.9145	3946.25	3067.2
1016.7184	2900.0355	3990.95	3109.9
1016.8342	2901.1559	4005.35	3124.05
1016.95	2902.2756	4042.5	3163.4
1017.0658	2903.3946	4075.85	3196.3
1017.1815	2904.513	4101.25	3218.05
1017.2971	2905.6308	4118.2	3238.15
1017.4127	2906.7479	4144.15	3261.1
1017.5283	2907.8643	4169.7	3289.4
1017.6439	2908.9801	4178.45	3299.85
1017.7594	2910.0953	4181.6	3303.8
1017.8748	2911.2098	4188.7	3306.15
1017.9902	2912.3236	4179.35	3291.25
1018.1056	2913.4368	4165.55	3282.9
1018.2209	2914.5494	4151.35	3271.6
1018.3362	2915.6613	4125.35	3240
1018.4515	2916.7725	4098.85	3216.65
1018.5667	2917.8831	4055.1	3173.1
1018.6819	2918.9931	4026.4	3144.95
1018.797	2920.1024	4010.7	3131.35
1018.9121	2921.211	3981.2	3099.35
1019.0271	2922.319	3945.15	3065.15
1019.1421	2923.4264	3926.85	3048.3
1019.2571	2924.5331	3916.9	3039.65
1019.372	2925.6391	3913.8	3033.35
1019.4869	2926.7445	3904.3	3025.45
1019.6017	2927.8493	3902.1	3021.05
1019.7165	2928.9534	3896.4	3014.1
1019.8313	2930.0569	3884.15	3001.15
1019.946	2931.1597	3876.9	2997.1
1020.0606	2932.2619	3875.1	2993.6
1020.1753	2933.3634	3876.1	2996.35
1020.2899	2934.4643	3857.05	2968.7
1020.4044	2935.5645	3830.65	2946.75
1020.5189	2936.6641	3810.1	2926.15
1020.6334	2937.763	3766.85	2888.6
1020.7478	2938.8613	3709.5	2828.1
1020.8622	2939.959	3661.25	2776.7
1020.9765	2941.056	3593.1	2714.3
1021.0908	2942.1523	3501.1	2619.85
1021.2051	2943.248	3426.55	2544.3
1021.3193	2944.3431	3329.2	2451.35
1021.4334	2945.4375	3222	2341.65
1021.5476	2946.5313	3117	2240.4
1021.6617	2947.6244	3019.45	2142.7
1021.7757	2948.7169	2922.55	2042.1
1021.8897	2949.8087	2839.8	1961.5
1022.0037	2950.8999	2733.45	1852.45
1022.1176	2951.9904	2657.95	1778.9
1022.2315	2953.0803	2581.15	1701.6
1022.3453	2954.1696	2519	1639.55
1022.4591	2955.2582	2456.5	1577.05
1022.5728	2956.3462	2405.2	1526
1022.6865	2957.4335	2387.9	1505.7
1022.8002	2958.5202	2350	1468.8
1022.9138	2959.6062	2308.35	1427.45
1023.0274	2960.6916	2285.85	1410.1
1023.141	2961.7764	2267.95	1385.6
1023.2545	2962.8605	2241.65	1362.75
1023.3679	2963.9439	2225.05	1346.15
1023.4813	2965.0267	2217.4	1338.25
1023.5947	2966.1089	2235.4	1333.05
1023.708	2967.1905	2211.05	1333.35
1023.8213	2968.2714	2204.05	1325.4
1023.9346	2969.3516	2206	1327.6
1024.0478	2970.4312	2199.1	1313.35
1024.1609	2971.5102	2199.85	1320.05
1024.274	2972.5885	2196.35	1318.7
1024.3871	2973.6662	2202.05	1317.55
1024.5002	2974.7432	2201.85	1326.05
1024.6132	2975.8196	2192.75	1314.25
1024.7261	2976.8954	2178.9	1300.35
1024.839	2977.9705	2168.65	1288.25
1024.9519	2979.045	2157.4	1281.25
1025.0647	2980.1188	2138.15	1257.75
1025.1775	2981.192	2110.15	1231.2
1025.2902	2982.2645	2094.8	1214.05
1025.4029	2983.3364	2058.8	1180.95
1025.5156	2984.4077	2042.25	1165.2
1025.6282	2985.4783	2021.75	1138.5
1025.7407	2986.5483	1969.9	1092.1
1025.8532	2987.6177	1937.35	1058.9
1025.9657	2988.6864	1896.95	1021.35
1026.0782	2989.7545	1881.7	1002.25
1026.1906	2990.8219	1841	962
1026.3029	2991.8887	1807.55	927.3
1026.4152	2992.9548	1783.6	904.5
1026.5275	2994.0204	1745.95	867.4
1026.6397	2995.0852	1706.6	830.3
1026.7519	2996.1495	1688.3	808.65
1026.864	2997.2131	1663.5	784.35
1026.9761	2998.276	1642.1	763.35
1027.0882	2999.3383	1618.3	739.5
1027.2002	3000.4	1599.2	719.8
1027.3122	3001.4611	1584.3	705.6
1027.4241	3002.5215	1566.65	688.1
1027.536	3003.5812	1545.25	666.65
1027.6478	3004.6404	1536.85	659.3
1027.7596	3005.6989	1535.6	656.05
1027.8714	3006.7567	1521.35	642.65
1027.9831	3007.8139	1534.35	626.25
1028.0947	3008.8705	1502.5	624
1028.2064	3009.9264	1497.9	617.4
1028.3179	3010.9818	1492.7	613.7
1028.4295	3012.0364	1490.45	608.05
1028.541	3013.0905	1478.35	601.4
1028.6524	3014.1439	1484.65	605.1
1028.7638	3015.1966	1477.25	601.7
1028.8752	3016.2487	1476.15	597.7
1028.9865	3017.3002	1474.85	590.95
1029.0978	3018.3511	1468.35	591.4
1029.209	3019.4013	1462.45	582.7
1029.3202	3020.4509	1463.95	585.1
1029.4314	3021.4998	1460.7	580.9
1029.5425	3022.5481	1468.1	589.6
1029.6535	3023.5958	1463.2	585.2
1029.7645	3024.6428	1466.6	588.2
1029.8755	3025.6892	1460.4	582.05
1029.9864	3026.735	1467.35	589.7
1030.0973	3027.7802	1469.15	591.5
1030.2082	3028.8247	1469.1	591.55
1030.319	3029.8685	1474.95	596.95
1030.4297	3030.9118	1467.5	589.45
1030.5404	3031.9544	1465.05	588.25
1030.6511	3032.9963	1475.9	597.85
1030.7617	3034.0376	1475.45	597.25
1030.8723	3035.0783	1482.65	601.45
1030.9829	3036.1184	1485.5	608.15
1031.0934	3037.1578	1487.8	611.95
1031.2038	3038.1966	1498.05	618.1
1031.3142	3039.2348	1483.8	606.45
1031.4246	3040.2723	1496.7	610.55
1031.5349	3041.3092	1494.7	618.5
1031.6452	3042.3455	1486.9	609.45
1031.7554	3043.3811	1487.35	607.8
1031.8656	3044.4161	1474.25	595.25
1031.9758	3045.4505	1475.4	600.95
1032.0859	3046.4842	1468.35	593.15
1032.1959	3047.5173	1452.4	575.55
1032.3059	3048.5498	1456.85	579.85
1032.4159	3049.5816	1440.35	562.3
1032.5258	3050.6128	1446.3	568.1
1032.6357	3051.6434	1436.6	557.5
1032.7455	3052.6734	1428.55	550.05
1032.8553	3053.7027	1424.35	545.9
1032.9651	3054.7314	1422.25	543.15
1033.0748	3055.7594	1411.75	535.45
1033.1845	3056.7868	1406.1	528.55
1033.2941	3057.8136	1399.5	522.55
1033.4037	3058.8398	1395.3	519.35
1033.5132	3059.8653	1394	515.35
1033.6227	3060.8902	1382.05	506.7
1033.7321	3061.9145	1379.05	502.95
1033.8415	3062.9381	1375.15	498.05
1033.9509	3063.9612	1381.5	488.05
1034.0602	3064.9835	1361	484.45
1034.1694	3066.0053	1359.85	479.8
1034.2787	3067.0264	1348.15	470.65
1034.3878	3068.0469	1345.6	466.9
1034.497	3069.0668	1341.05	459.55
1034.6061	3070.086	1329.6	454.05
1034.7151	3071.1046	1314.55	437.95
1034.8241	3072.1226	1311.95	433.65
1034.9331	3073.1399	1307.55	430.5
1035.042	3074.1567	1295.4	417.65
1035.1508	3075.1727	1282.75	402.65
1035.2597	3076.1882	1279.9	402.85
1035.3684	3077.203	1272.85	394.5
1035.4772	3078.2173	1260.8	380.95
1035.5859	3079.2308	1256.15	374.35
1035.6945	3080.2438	1249	370.35
1035.8031	3081.2561	1236	358.25
1035.9117	3082.2678	1229.8	352.55
1036.0202	3083.2789	1224.15	347.6
1036.1286	3084.2893	1218.5	341.3
1036.2371	3085.2991	1212.3	334.15
1036.3454	3086.3083	1218.65	339.4
1036.4538	3087.3169	1202.55	325.6
1036.562	3088.3248	1193.9	314.75
1036.6703	3089.3321	1193.95	317.05
1036.7785	3090.3388	1178	299.95
1036.8866	3091.3449	1182.2	304.2
1036.9948	3092.3503	1182.05	300.3
1037.1028	3093.3551	1175.85	300.65
1037.2108	3094.3593	1168	292
1037.3188	3095.3629	1161.25	283.2
1037.4267	3096.3658	1161.5	283.7
1037.5346	3097.3681	1158.55	280.85
1037.6425	3098.3698	1160.9	282.3
1037.7503	3099.3708	1163.15	280.95
1037.858	3100.3713	1147.9	270.6
1037.9657	3101.3711	1144.4	266.65
1038.0734	3102.3702	1283.05	267.15
1038.181	3103.3688	1140.95	263.8
1038.2886	3104.3667	1137.45	260.55
1038.3961	3105.364	1135.3	257.05
1038.5036	3106.3607	1133.9	255.5
1038.611	3107.3568	1127.2	250.3
1038.7184	3108.3522	1131.15	255.85
1038.8257	3109.347	1128.6	251.6
1038.933	3110.3412	1129.55	251.5
1039.0403	3111.3348	1118.45	243.25
1039.1475	3112.3277	1121.45	242.65
1039.2547	3113.32	1116.55	239.75
1039.3618	3114.3117	1118.6	240.6
1039.4689	3115.3028	1114.35	237.9
1039.5759	3116.2932	1117.8	241.95
1039.6829	3117.2831	1114.7	234.5
1039.7898	3118.2723	1108.55	232.95
1039.8967	3119.2608	1101.1	223.8
1040.0035	3120.2488	1108.9	230.1
1040.1103	3121.2361	1103.15	225.95
1040.2171	3122.2229	1104.2	227.95
1040.3238	3123.209	1100.3	221.85
1040.4305	3124.1944	1102.75	227.4
1040.5371	3125.1793	1096.25	219.25
1040.6437	3126.1635	1095.6	220
1040.7502	3127.1471	1094.15	218.5
1040.8567	3128.1301	1091.75	215.2
1040.9631	3129.1125	1086.25	210.8
1041.0695	3130.0942	1090.6	213.7
1041.1759	3131.0753	1097.95	212.15
1041.2822	3132.0558	1091	212.7
1041.3884	3133.0357	1088.4	209.75
1041.4946	3134.015	1086.6	208
1041.6008	3134.9936	1082.15	204.05
1041.7069	3135.9716	1103	207.7
1041.813	3136.949	1077.5	200.95
1041.919	3137.9258	1100.15	206.95
1042.025	3138.902	1079.35	197.75
1042.1309	3139.8775	1075.25	199.1
1042.2368	3140.8524	1072.75	198.35
1042.3427	3141.8267	1072.4	193.25
1042.4485	3142.8004	1069.55	194.65
1042.5542	3143.7735	1075.35	194.85
1042.6599	3144.7459	1073.7	195
1042.7656	3145.7178	1070.8	195.6
1042.8712	3146.689	1067.7	193.2
1042.9768	3147.6596	1064.7	186.65
1043.0823	3148.6295	1062.95	187.8
1043.1878	3149.5989	1060.8	185.2
1043.2932	3150.5676	1055.15	180.55
1043.3986	3151.5357	1060.3	185.55
1043.5039	3152.5032	1055.05	181.35
1043.6092	3153.4701	1056.75	181
1043.7145	3154.4364	1053.75	173.75
1043.8197	3155.402	1050	172.7
1043.9248	3156.367	1052.6	175.55
1044.03	3157.3315	1077.6	173.85
1044.135	3158.2952	1056.95	179.95
1044.24	3159.2584	1046.75	168.9
1044.345	3160.221	1044.65	169.35
1044.4499	3161.1829	1039.65	164.6
1044.5548	3162.1442	1040.05	164.1
1044.6596	3163.105	1041.1	165.7
1044.7644	3164.065	1037.4	159.2
1044.8692	3165.0245	1038.2	160.8
1044.9739	3165.9834	1033	158.8
1045.0785	3166.9416	1037.35	160.3
1045.1831	3167.8993	1036.65	160.95
1045.2877	3168.8563	1033.35	156.75
1045.3922	3169.8127	1031.85	154.7
1045.4966	3170.7684	1032.4	159.9
1045.6011	3171.7236	1032.05	155.5
1045.7054	3172.6782	1031.8	157.7
1045.8098	3173.6321	1028.35	153.05
1045.914	3174.5854	1034.2	152.9
1046.0183	3175.5381	1030.75	153.9
1046.1224	3176.4902	1031.7	156.45
1046.2266	3177.4417	1027.6	152.95
1046.3307	3178.3926	1025.8	152.45
1046.4347	3179.3428	1024.15	148.4
1046.5387	3180.2924	1023.6	147.1
1046.6427	3181.2415	1020.65	147.5
1046.7466	3182.1899	1027.05	150.65
1046.8504	3183.1377	1023.55	148.7
1046.9542	3184.0848	1025.9	145.95
1047.058	3185.0314	1016.35	139.35
1047.1617	3185.9773	1018.3	139.9
1047.2654	3186.9227	1019	142.65
1047.369	3187.8674	1016.35	141.9
1047.4726	3188.8115	1019.75	140.55
1047.5761	3189.755	1015.95	141.55
1047.6796	3190.6979	1006.75	132.85
1047.783	3191.6402	1011.8	138.15
1047.8864	3192.5818	1014.2	137.9
1047.9898	3193.5229	1019.85	138.25
1048.0931	3194.4633	1017.4	141.25
1048.1963	3195.4031	1009.55	133.3
1048.2995	3196.3423	1011.2	137.05
1048.4027	3197.2809	1011.4	135.6
1048.5058	3198.2189	1008.15	132.5
1048.6089	3199.1563	1025.05	133.7
1048.7119	3200.0931	1005.45	131.2
1048.8148	3201.0292	1003.85	129.65
1048.9178	3201.9648	1005.7	131.5
1049.0206	3202.8997	1009.1	130.25
1049.1235	3203.834	1001.6	127.35
1049.2262	3204.7677	1003.65	125.85
1049.329	3205.7008	1003.85	126.4
1049.4317	3206.6333	999.4	124.1
1049.5343	3207.5652	1004.6	126.45
1049.6369	3208.4964	1002.1	125.95
1049.7394	3209.4271	996.65	123.1
1049.8419	3210.3571	997.7	123.05
1049.9444	3211.2865	999.6	125
1050.0468	3212.2154	999.4	123.2
1050.1491	3213.1436	1001.55	121.75
1050.2514	3214.0712	1000.45	119.9
1050.3537	3214.9982	994.65	118.75
1050.4559	3215.9246	995.9	118.25
1050.5581	3216.8503	990.7	116.3
1050.6602	3217.7755	990.2	113.1
1050.7623	3218.7001	994.8	119.7
1050.8643	3219.624	992.15	116.4
1050.9663	3220.5473	992.9	118
1051.0682	3221.4701	993.9	119.9
1051.1701	3222.3922	994.8	118.45
1051.2719	3223.3137	990.7	117.75
1051.3737	3224.2346	990.5	116.55
1051.4754	3225.1549	987.8	114.15
1051.5771	3226.0746	986.2	111.65
1051.6788	3226.9937	983.6	107.1
1051.7804	3227.9121	985.7	111.75
1051.8819	3228.83	983.95	112.25
1051.9834	3229.7473	990.45	113.2
1052.0849	3230.6639	985.55	111.05
1052.1863	3231.5799	985.3	111.2
1052.2876	3232.4954	984.35	107.9
1052.3889	3233.4102	982.1	107.75
1052.4902	3234.3244	984.45	111.7
1052.5914	3235.238	983.6	109.95
1052.6926	3236.151	1004.65	107.4
1052.7937	3237.0634	977	103.4
1052.8948	3237.9752	982.45	107
1052.9958	3238.8864	979.45	104.4
1053.0968	3239.797	978.05	102.85
1053.1977	3240.7069	980.05	104.7
1053.2986	3241.6163	979.15	102.55
1053.3994	3242.5251	977.75	103.15
1053.5002	3243.4332	975.7	101.9
1053.6009	3244.3408	972.7	97.05
1053.7016	3245.2477	974.45	98.7
1053.8022	3246.154	971.75	95.55
1053.9028	3247.0598	974.3	99.35
1054.0034	3247.9649	971.15	97.2
1054.1039	3248.8694	971.35	96.95
1054.2043	3249.7733	969.8	95.05
1054.3047	3250.6766	971.05	95.5
1054.4051	3251.5793	969.6	96.85
1054.5054	3252.4814	968.8	94.9
1054.6056	3253.3829	966.05	92.8
1054.7058	3254.2838	963.6	87.85
1054.806	3255.1841	968.8	94.35
1054.9061	3256.0838	965.15	91.95
1055.0061	3256.9829	965.5	90.45
1055.1062	3257.8814	965.5	89.75
1055.2061	3258.7792	964.95	88.55
1055.306	3259.6765	962.55	87.65
1055.4059	3260.5731	960.2	85.95
1055.5057	3261.4692	957.95	82.2
1055.6055	3262.3647	957.7	83.25
1055.7052	3263.2595	953.05	77.95
1055.8049	3264.1538	956.5	82.85
1055.9045	3265.0474	951.15	73.9
1056.0041	3265.9404	949.25	76.45
1056.1036	3266.8329	950.3	75.5
1056.2031	3267.7247	958.1	74.75
1056.3025	3268.616	947.5	74.05
1056.4019	3269.5066	943	69.75
1056.5013	3270.3966	944.4	68.35
1056.6005	3271.286	939.3	68.8
