Software Version:	3.9.2.0
Unit SN:	10000200
Spectrometer SN:	6960
Date:	3/8/2024 11:44:30 AM
Data Line Index:	25
Spectral Points:	2048
Integration time (ms):	125
Averages:	20
Delay (ms):	30000
Sequence Number:	1
Processing:	dark subtract
Laser Power (mW):	300
Laser Current (mA):	823
Laser Diode Temp (C):	25
Laser Case Temp (C):	25.3
System Temp (C):	25.2
Spectrometer Temp (C):	23.2
CCD Temp (C):	0.002
Secondary Temp (C):	20.006
Heatsink Temp (C):	19.749
CCDPCB Temp (C):	34.006
SecondaryPCB Temp (C):	27.492

Wavelength	RamanShift	Raw Counts	Dark Subtracted
787.061	30.1047	416.3	7.3
787.2016	32.3739	415.55	10.85
787.3422	34.6426	415.9	7.45
787.4828	36.9109	415.4	5.5
787.6235	39.1787	421.65	7.3
787.7642	41.4461	425.6	7.3
787.9049	43.7131	430.2	8.5
788.0456	45.9796	433.05	9
788.1863	48.2456	437.75	10.05
788.3271	50.5112	443.35	12.75
788.4679	52.7764	445.85	11.4
788.6087	55.0411	451.75	10.1
788.7496	57.3054	457.85	12.75
788.8904	59.5692	457.5	10.6
789.0313	61.8326	462.6	13.7
789.1722	64.0955	470.25	16.5
789.3132	66.3579	474.85	17.5
789.4541	68.6199	480.55	20.2
789.5951	70.8815	491.35	26.45
789.7361	73.1426	510.2	39.6
789.8771	75.4032	539.5	67.2
790.0181	77.6634	611.05	134.05
790.1592	79.9231	778.75	298.8
790.3003	82.1824	1129.3	639.65
790.4414	84.4412	1701.05	1196.35
790.5825	86.6995	2426	1909.3
790.7237	88.9574	3124.35	2589.6
790.8648	91.2148	3577.15	3034.95
791.006	93.4717	3777.55	3229.05
791.1472	95.7282	3802.4	3248.6
791.2885	97.9842	3774.65	3216.4
791.4297	100.2398	3716.5	3155.95
791.571	102.4949	3663.1	3099.45
791.7123	104.7495	3634.5	3068.4
791.8536	107.0036	3581	3014.05
791.9949	109.2573	3503.6	2938.6
792.1363	111.5105	3409.8	2841.4
792.2777	113.7632	3295.2	2725.5
792.4191	116.0154	3206.3	2623.5
792.5605	118.2672	3093.75	2519.05
792.7019	120.5185	2971.8	2393.35
792.8434	122.7693	2887.35	2306.4
792.9849	125.0197	2811.25	2225.8
793.1264	127.2696	2729.5	2143.7
793.2679	129.519	2693.4	2100.85
793.4094	131.7679	2656.05	2059.45
793.551	134.0163	2632.2	2036.15
793.6926	136.2642	2637.55	2040.4
793.8342	138.5117	2619.2	2015.45
793.9758	140.7587	2579.8	1977.6
794.1175	143.0052	2532.75	1926.6
794.2591	145.2512	2474.6	1869
794.4008	147.4967	2427.3	1817.55
794.5425	149.7417	2391.45	1781.5
794.6842	151.9863	2367.2	1752.65
794.826	154.2304	2361.65	1743.25
794.9677	156.4739	2359.8	1735.4
795.1095	158.717	2364.25	1739.8
795.2513	160.9596	2392.05	1761.45
795.3931	163.2017	2418.9	1783.05
795.535	165.4433	2426.85	1792.1
795.6768	167.6844	2413.85	1779.8
795.8187	169.925	2373.4	1735.35
795.9606	172.1651	2322.5	1680.1
796.1025	174.4047	2275.7	1629.1
796.2445	176.6439	2240.8	1592.9
796.3864	178.8825	2218.15	1571.25
796.5284	181.1206	2192.6	1536.15
796.6704	183.3582	2186.7	1527.55
796.8124	185.5954	2190.7	1531.75
796.9544	187.832	2185.1	1521.6
797.0965	190.0681	2196.05	1528.6
797.2386	192.3037	2196.3	1523.25
797.3806	194.5388	2203.2	1529.25
797.5228	196.7734	2210.8	1534.85
797.6649	199.0075	2218.65	1541.4
797.807	201.2411	2243.3	1569.1
797.9492	203.4742	2258.3	1581.35
798.0914	205.7068	2295.6	1612.4
798.2336	207.9389	2323.65	1638.2
798.3758	210.1704	2330.85	1652.9
798.518	212.4015	2321.65	1653.15
798.6603	214.632	2306.75	1644.2
798.8025	216.862	2320.05	1656.05
798.9448	219.0915	2336.35	1673.95
799.0871	221.3205	2336.9	1671.1
799.2294	223.549	2352.55	1691.8
799.3718	225.777	2339.95	1679.3
799.5141	228.0044	2336.55	1666.9
799.6565	230.2314	2325.65	1655.95
799.7989	232.4578	2311.4	1639.55
799.9413	234.6837	2319.05	1634.7
800.0837	236.909	2298.35	1612.15
800.2262	239.1339	2319.65	1611.1
800.3687	241.3582	2296.4	1601.45
800.5111	243.582	2311	1588.15
800.6536	245.8053	2305.95	1595.5
800.7961	248.0281	2312.85	1605.65
800.9387	250.2503	2341.65	1630.3
801.0812	252.472	2333.85	1619.55
801.2238	254.6932	2345.9	1636.05
801.3664	256.9139	2349	1636.35
801.509	259.134	2372.4	1653.5
801.6516	261.3536	2409.95	1696.9
801.7942	263.5727	2440.1	1721.4
801.9369	265.7912	2490.5	1772.25
802.0795	268.0092	2537.05	1818.35
802.2222	270.2267	2596.5	1878.45
802.3649	272.4436	2649.9	1931.35
802.5076	274.6601	2696.6	1967.75
802.6504	276.8759	2706.3	1978.55
802.7931	279.0913	2730.3	2006.4
802.9359	281.3061	2758.35	2030.7
803.0787	283.5204	2758.7	2029.45
803.2215	285.7341	2788.4	2054.4
803.3643	287.9473	2810.35	2073.65
803.5071	290.16	2797.6	2058.3
803.6499	292.3721	2763.7	2033.1
803.7928	294.5837	2747.5	2013.3
803.9357	296.7947	2716.35	1982.5
804.0786	299.0052	2696.3	1966.15
804.2215	301.2152	2685.9	1951.35
804.3644	303.4246	2669.2	1936.5
804.5074	305.6334	2653.5	1920.35
804.6503	307.8418	2614.45	1875.6
804.7933	310.0495	2609.9	1868.7
804.9363	312.2568	2571.05	1832.4
805.0793	314.4635	2521.55	1780.1
805.2223	316.6696	2471.25	1726.4
805.3653	318.8752	2421	1667.5
805.5084	321.0802	2391.4	1643.3
805.6514	323.2847	2391.75	1644.9
805.7945	325.4887	2405.35	1655.05
805.9376	327.692	2418.55	1667.35
806.0807	329.8949	2467.5	1714.65
806.2238	332.0972	2498.3	1744.3
806.367	334.2989	2528.6	1768.95
806.5101	336.5001	2517.6	1761.4
806.6533	338.7007	2480.1	1721.6
806.7965	340.9008	2430.2	1670
806.9397	343.1003	2382.65	1621.35
807.0829	345.2992	2341	1578.5
807.2261	347.4976	2296.05	1532.7
807.3693	349.6955	2274.6	1510.7
807.5126	351.8927	2249.15	1483.65
807.6559	354.0895	2241.75	1462.7
807.7991	356.2856	2232.15	1462.65
807.9424	358.4812	2206.65	1438.7
808.0857	360.6763	2217.7	1444.85
808.2291	362.8707	2204.4	1429.75
808.3724	365.0646	2209.35	1430.8
808.5158	367.258	2225.35	1447.9
808.6591	369.4508	2238.5	1457.65
808.8025	371.643	2270.05	1492.2
808.9459	373.8346	2302.6	1520.45
809.0893	376.0257	2335.75	1549.4
809.2327	378.2162	2360.75	1573.85
809.3762	380.4062	2365.85	1578.5
809.5196	382.5956	2346.2	1559.35
809.6631	384.7844	2300.35	1520.5
809.8066	386.9726	2257.35	1480.3
809.9501	389.1603	2235.5	1458.15
810.0936	391.3474	2247.2	1434.45
810.2371	393.5339	2235.55	1458.05
810.3806	395.7199	2228.65	1450.1
810.5241	397.9052	2272.1	1493.6
810.6677	400.09	2292.45	1514.15
810.8113	402.2743	2344.8	1566.35
810.9548	404.4579	2384.55	1604.5
811.0984	406.641	2432.85	1648.45
811.2421	408.8235	2473.15	1689.7
811.3857	411.0054	2518.75	1732.5
811.5293	413.1868	2580.05	1788.15
811.673	415.3675	2637.6	1844.85
811.8166	417.5477	2624.4	1829.5
811.9603	419.7273	2552.6	1755.4
812.104	421.9064	2494.5	1693.2
812.2477	424.0848	2422.6	1625.35
812.3914	426.2627	2357.15	1562.05
812.5351	428.4399	2300.65	1503.25
812.6788	430.6166	2246.75	1445.05
812.8226	432.7928	2200.25	1393
812.9663	434.9683	2159.7	1354.25
813.1101	437.1432	2134.15	1329.3
813.2539	439.3176	2125.1	1326.2
813.3977	441.4914	2093.45	1294.65
813.5415	443.6645	2101.15	1297.25
813.6853	445.8371	2102.6	1298.65
813.8291	448.0091	2094.95	1288.2
813.973	450.1806	2095	1290.3
814.1168	452.3514	2098.8	1291
814.2607	454.5216	2101.4	1287.5
814.4046	456.6913	2082	1271.55
814.5485	458.8603	2099.4	1290.85
814.6924	461.0288	2105.3	1298.7
814.8363	463.1967	2088.5	1284.65
814.9802	465.3639	2098.15	1288.8
815.1241	467.5306	2094.4	1285.85
815.2681	469.6967	2088.15	1279.45
815.412	471.8622	2070.7	1263.2
815.556	474.0271	2067.65	1259.9
815.7	476.1914	2073	1259.2
815.844	478.3551	2069.8	1261.65
815.988	480.5182	2065.9	1255
816.132	482.6807	2071.55	1260.55
816.276	484.8426	2099.55	1291.85
816.4201	487.0039	2144.65	1334.4
816.5641	489.1647	2199.3	1385.95
816.7082	491.3248	2235.2	1421.3
816.8522	493.4843	2255.8	1443.3
816.9963	495.6432	2249.6	1436.35
817.1404	497.8015	2216.6	1399.85
817.2845	499.9592	2180	1361.9
817.4286	502.1163	2129.05	1309.5
817.5727	504.2728	2084.3	1265
817.7168	506.4287	2064.6	1250.15
817.861	508.5839	2034.75	1219.9
818.0051	510.7386	2025.1	1207.65
818.1493	512.8927	2041.7	1215
818.2935	515.0461	2034.55	1211.65
818.4377	517.199	2059.55	1235.65
818.5818	519.3512	2113.45	1290.65
818.726	521.5029	2177.8	1349.65
818.8703	523.6539	2219.75	1396.55
819.0145	525.8043	2231.85	1407.15
819.1587	527.9541	2174.55	1345.65
819.303	530.1033	2105.6	1279.9
819.4472	532.2519	2071.85	1245.75
819.5915	534.3999	2038.95	1209.55
819.7357	536.5472	2036.2	1207.9
819.88	538.694	2039.15	1211.9
820.0243	540.8401	2059.6	1232.65
820.1686	542.9856	2066.3	1234.65
820.3129	545.1305	2082.2	1247.1
820.4572	547.2748	2112	1273.85
820.6016	549.4185	2106.95	1267.35
820.7459	551.5615	2119.45	1284
820.8902	553.704	2134.45	1298.45
821.0346	555.8458	2150.25	1314.2
821.1789	557.987	2166.35	1329.35
821.3233	560.1276	2200.3	1362.85
821.4677	562.2675	2258.05	1424.35
821.6121	564.4069	2319.6	1485.05
821.7565	566.5456	2363.65	1533.05
821.9009	568.6837	2345.05	1508.65
822.0453	570.8212	2270.4	1438.4
822.1897	572.958	2198.45	1361.65
822.3342	575.0942	2139.75	1307.65
822.4786	577.2299	2102.85	1270.35
822.6231	579.3648	2076.6	1248.65
822.7675	581.4992	2050.7	1224.95
822.912	583.6329	2059.95	1234.2
823.0565	585.766	2092.7	1264.3
823.201	587.8985	2140.7	1310.8
823.3454	590.0304	2186.9	1340.8
823.4899	592.1616	2214.6	1375.25
823.6345	594.2922	2205.7	1366.1
823.779	596.4222	2175.3	1333.9
823.9235	598.5515	2120.8	1279.9
824.068	600.6802	2063.1	1222.85
824.2126	602.8083	2021.45	1182.3
824.3571	604.9358	2011.7	1169.65
824.5017	607.0626	2019.6	1174.95
824.6462	609.1888	2015.75	1169
824.7908	611.3144	2049.5	1204.6
824.9354	613.4393	2089.8	1244.75
825.08	615.5636	2144.55	1297.85
825.2246	617.6873	2184.45	1340.2
825.3692	619.8103	2226.95	1380
825.5138	621.9327	2210.4	1363.75
825.6584	624.0544	2181.05	1339.25
825.803	626.1756	2119	1275
825.9477	628.2961	2074.3	1228.35
826.0923	630.4159	2042.45	1195.35
826.237	632.5351	2046.25	1195.8
826.3816	634.6537	2033.85	1184.7
826.5263	636.7716	2017.2	1166
826.6709	638.8889	2014.9	1164.2
826.8156	641.0056	2021.65	1171.1
826.9603	643.1216	2026.35	1173.2
827.105	645.237	2032.65	1181
827.2497	647.3518	2018.05	1169
827.3944	649.4659	1978.85	1130.75
827.5391	651.5793	1976.1	1129.55
827.6838	653.6922	1955.85	1106.2
827.8285	655.8043	1946.8	1098
827.9733	657.9159	1942.7	1094.85
828.118	660.0268	1917.95	1068
828.2627	662.137	1927.1	1077.2
828.4075	664.2466	1927.95	1074.4
828.5522	666.3556	1923.9	1069.55
828.697	668.4639	1914.05	1059.55
828.8418	670.5716	1912.65	1063.45
828.9865	672.6786	1911.6	1055.4
829.1313	674.785	1901.75	1042.95
829.2761	676.8907	1891.35	1039.2
829.4209	678.9958	1887.95	1034.6
829.5657	681.1002	1887.05	1032.5
829.7105	683.204	1902.95	1039.85
829.8553	685.3072	1897.45	1039.5
830.0001	687.4097	1893.95	1036.95
830.1449	689.5115	1899.3	1041.7
830.2898	691.6127	1887.5	1034.1
830.4346	693.7132	1893.7	1038.1
830.5794	695.8131	1903.85	1027.55
830.7243	697.9123	1902.6	1041.55
830.8691	700.0109	1893.2	1033.05
831.014	702.1089	1915.7	1057.95
831.1588	704.2061	1922.35	1061.5
831.3037	706.3028	1953.55	1091.25
831.4486	708.3987	1973.7	1112.55
831.5935	710.4941	1984.15	1125.1
831.7383	712.5887	1983.9	1120.75
831.8832	714.6827	1987.8	1123.7
832.0281	716.7761	1977.8	1116.95
832.173	718.8688	1973	1112.05
832.3179	720.9608	1980.25	1115.2
832.4628	723.0522	1995.95	1130.9
832.6077	725.1429	2012.45	1149.05
832.7527	727.233	2063.7	1201.6
832.8976	729.3224	2128.05	1265.1
833.0425	731.4112	2172.9	1309.55
833.1874	733.4993	2176.4	1310.25
833.3324	735.5867	2116.4	1250.55
833.4773	737.6735	2058.25	1192.7
833.6222	739.7596	2004.05	1137.9
833.7672	741.845	1967.8	1102.5
833.9122	743.9298	1966.85	1099.25
834.0571	746.014	1970.45	1106.05
834.2021	748.0974	1976.45	1106.8
834.347	750.1802	1984.85	1117.4
834.492	752.2624	1967.25	1102.5
834.637	754.3439	1970.55	1101.4
834.782	756.4247	1963.85	1086.35
834.9269	758.5048	1962.3	1096.15
835.0719	760.5843	1987.75	1119.75
835.2169	762.6631	2019.05	1149
835.3619	764.7413	2081.4	1212.9
835.5069	766.8188	2166.2	1295.8
835.6519	768.8956	2250.35	1379.2
835.7969	770.9718	2296.8	1424.7
835.9419	773.0473	2288.1	1422.6
836.0869	775.1221	2271.5	1401.6
836.232	777.1962	2251.25	1382
836.377	779.2697	2304.4	1433.8
836.522	781.3426	2418.9	1531.85
836.667	783.4147	2469.55	1598.85
836.8121	785.4862	2444.3	1573.3
836.9571	787.557	2349.95	1476.45
837.1021	789.6271	2222.55	1351.1
837.2472	791.6966	2101.8	1229.35
837.3922	793.7654	2008.35	1136.75
837.5373	795.8335	1945.95	1073.5
837.6823	797.901	1917.25	1045.3
837.8274	799.9678	1917.85	1042.15
837.9724	802.0339	1920.8	1048.8
838.1175	804.0993	1934.3	1052.95
838.2626	806.1641	1913.8	1040.45
838.4076	808.2282	1886.65	1014
838.5527	810.2916	1875.2	999.25
838.6978	812.3544	1855.4	982.4
838.8428	814.4164	1837.35	966.15
838.9879	816.4778	1861.5	984.65
839.133	818.5385	1868.65	992.8
839.2781	820.5986	1906.15	1029.7
839.4232	822.658	1948.9	1071.35
839.5682	824.7166	2020.5	1147.25
839.7133	826.7747	2104.95	1232.5
839.8584	828.832	2197.95	1322.1
840.0035	830.8886	2255.65	1379.35
840.1486	832.9446	2270.95	1391.5
840.2937	834.9999	2236.6	1363.6
840.4388	837.0545	2157	1279.3
840.5839	839.1085	2088.45	1211.8
840.729	841.1618	2004.7	1122.65
840.8741	843.2143	1949.8	1075.4
841.0192	845.2662	1909.75	1033.55
841.1643	847.3175	1895.2	1018.25
841.3095	849.368	1892.75	1014.7
841.4546	851.4179	1891.45	1015.5
841.5997	853.467	1881.6	1005.25
841.7448	855.5155	1893.25	1016.8
841.8899	857.5633	1898.3	1021.55
842.0351	859.6105	1880.7	1003.45
842.1802	861.6569	1885.1	1007.85
842.3253	863.7027	1854.15	975.55
842.4704	865.7478	1853.5	972.6
842.6156	867.7922	1847.35	968.75
842.7607	869.8359	1833.95	955.45
842.9058	871.8789	1828.1	950.95
843.0509	873.9212	1866.95	958.95
843.1961	875.9629	1841.7	960.75
843.3412	878.0039	1853.8	973.6
843.4863	880.0441	1868.95	991.75
843.6315	882.0837	1886.3	1005.7
843.7766	884.1226	1916.85	1035.7
843.9218	886.1609	1945.2	1067.15
844.0669	888.1984	2000.3	1122.55
844.212	890.2352	2043.25	1163.55
844.3572	892.2714	2046.75	1166.05
844.5023	894.3069	2025.8	1147.1
844.6475	896.3416	1973.15	1092.35
844.7926	898.3757	1914.95	1036
844.9377	900.4091	1903.65	1021.5
845.0829	902.4418	1916.35	1028.05
845.228	904.4739	1920.25	1037.75
845.3732	906.5052	1939.3	1055.85
845.5183	908.5358	1932.65	1051.2
845.6635	910.5658	1910.55	1025.5
845.8086	912.595	1881.85	998.65
845.9538	914.6236	1841.85	959.8
846.0989	916.6515	1811.95	930.3
846.2441	918.6786	1789.25	905.5
846.3892	920.7051	1786.55	902.2
846.5344	922.7309	1781.05	897
846.6795	924.756	1778.65	896.6
846.8246	926.7804	1800.2	916.8
846.9698	928.8041	1800.95	918.65
847.1149	930.8272	1826.85	943.95
847.2601	932.8495	1828.65	944.15
847.4052	934.8711	1838.8	952.55
847.5504	936.892	1837.4	950.8
847.6955	938.9123	1872.15	988.6
847.8407	940.9318	1889.45	1007.5
847.9858	942.9506	1904.85	1021.25
848.131	944.9688	1888.75	1004.55
848.2761	946.9862	1861.8	977.65
848.4213	949.003	1838.9	955.1
848.5664	951.019	1803.7	916.6
848.7115	953.0344	1791.35	903.9
848.8567	955.0491	1784.65	899.4
849.0018	957.063	1776.75	892.05
849.147	959.0763	1779.8	896.2
849.2921	961.0888	1770.75	883.4
849.4373	963.1007	1777.05	893.85
849.5824	965.1119	1765.85	883.6
849.7275	967.1223	1757.55	877.35
849.8727	969.1321	1762.75	880.7
850.0178	971.1412	1751.05	867.25
850.1629	973.1495	1741.6	859.05
850.3081	975.1572	1770.65	854.35
850.4532	977.1641	1752.9	866.5
850.5983	979.1704	1736.75	852.3
850.7435	981.1759	1748.2	860.3
850.8886	983.1808	1736.05	846.3
851.0337	985.1849	1753.5	855.85
851.1788	987.1884	1726.4	836.5
851.324	989.1911	1734.6	847.4
851.4691	991.1932	1744.4	857.65
851.6142	993.1945	1740.05	855.85
851.7593	995.1951	1745.45	856.1
851.9045	997.1951	1748.55	858.95
852.0496	999.1943	1728.75	841.7
852.1947	1001.1928	1739.45	851.9
852.3398	1003.1906	1748.5	863.3
852.4849	1005.1877	1774.4	885.5
852.63	1007.1841	1793.75	907.35
852.7751	1009.1798	1808	921.35
852.9202	1011.1748	1800.05	914.5
853.0653	1013.1691	1776.35	887.5
853.2104	1015.1627	1751.7	864.65
853.3555	1017.1556	1708.85	822.8
853.5006	1019.1477	1698.75	812.3
853.6457	1021.1392	1671.25	787.75
853.7908	1023.1299	1664.5	781.7
853.9359	1025.12	1673.7	791.05
854.081	1027.1093	1670.95	792.45
854.2261	1029.0979	1695.9	818.4
854.3712	1031.0859	1712.95	832.55
854.5163	1033.0731	1732.5	848
854.6613	1035.0596	1728.65	843.75
854.8064	1037.0454	1723.55	838.75
854.9515	1039.0304	1697.85	809.7
855.0965	1041.0148	1686.35	801.15
855.2416	1042.9985	1669.95	778.2
855.3867	1044.9814	1666	781.4
855.5317	1046.9636	1658.2	768.9
855.6768	1048.9452	1663.45	777.45
855.8219	1050.926	1679.9	792.35
855.9669	1052.9061	1690	803.05
856.112	1054.8855	1701.9	813.7
856.257	1056.8642	1694.4	808.05
856.4021	1058.8421	1697.8	805.85
856.5471	1060.8194	1693.9	804.85
856.6921	1062.7959	1689.1	800.9
856.8372	1064.7717	1691.55	801.6
856.9822	1066.7469	1693.9	803.25
857.1272	1068.7213	1695.15	803.75
857.2723	1070.695	1709.7	823.45
857.4173	1072.6679	1738.6	849.9
857.5623	1074.6402	1759.05	873.05
857.7073	1076.6117	1758.65	864.3
857.8523	1078.5826	1734.2	843.6
857.9973	1080.5527	1706.15	815.8
858.1423	1082.5221	1665.6	774.85
858.2873	1084.4908	1650.85	760.05
858.4323	1086.4587	1629.7	739.45
858.5773	1088.426	1626.7	735.4
858.7223	1090.3925	1628.6	732.75
858.8673	1092.3584	1630.95	740.7
859.0123	1094.3235	1638.85	752.7
859.1573	1096.2879	1648.35	757.75
859.3022	1098.2515	1671	782.35
859.4472	1100.2145	1708.75	818.25
859.5922	1102.1767	1742.7	850.85
859.7371	1104.1382	1786.5	896.75
859.8821	1106.099	1840.55	950.1
860.027	1108.0591	1878.2	989.1
860.172	1110.0185	1925.2	1033.95
860.3169	1111.9771	1959.95	1071.15
860.4619	1113.9351	2009.1	1117.8
860.6068	1115.8923	2061.4	1172.8
860.7517	1117.8488	2088.55	1197.45
860.8967	1119.8045	2028.15	1138.75
861.0416	1121.7596	1932.7	1041.9
861.1865	1123.7139	1837.75	949.95
861.3314	1125.6675	1793.15	905.35
861.4763	1127.6204	1791.65	900.25
861.6212	1129.5726	1812.1	920.2
861.7661	1131.524	1813.3	922.75
861.911	1133.4748	1764.35	875.2
862.0559	1135.4248	1703.55	813.65
862.2008	1137.3741	1665.1	775.35
862.3457	1139.3226	1640.6	748.4
862.4905	1141.2705	1636.6	745.6
862.6354	1143.2176	1651.75	755.9
862.7803	1145.164	1665.95	775.7
862.9251	1147.1097	1650.65	759.25
863.07	1149.0546	1629.65	738.8
863.2148	1150.9989	1609.7	719.45
863.3597	1152.9424	1589.2	698.85
863.5045	1154.8852	1574.65	683.6
863.6493	1156.8272	1568.95	677.7
863.7942	1158.7686	1574.3	677.75
863.939	1160.7092	1579.2	687.05
864.0838	1162.6491	1576.9	682.75
864.2286	1164.5883	1597.25	705
864.3734	1166.5267	1610.35	717.6
864.5182	1168.4644	1634.45	743.1
864.663	1170.4014	1668.55	772.95
864.8078	1172.3377	1704.6	816.4
864.9526	1174.2732	1755.7	866.3
865.0974	1176.2081	1854.15	963.9
865.2421	1178.1421	1976.25	1084.15
865.3869	1180.0755	2080.5	1189.65
865.5317	1182.0082	2136.45	1246.05
865.6764	1183.9401	2100.25	1207.6
865.8212	1185.8713	1999.8	1110.5
865.9659	1187.8017	1875.45	990.85
866.1106	1189.7315	1769.05	885.25
866.2554	1191.6605	1723.45	811
866.4001	1193.5888	1663.75	778.25
866.5448	1195.5163	1637.1	748.45
866.6895	1197.4432	1613.55	722.2
866.8342	1199.3693	1595.55	705.05
866.9789	1201.2947	1588.25	692.55
867.1236	1203.2193	1577.3	687.55
867.2683	1205.1432	1575.15	682.6
867.413	1207.0664	1576.95	685.1
867.5576	1208.9889	1581.9	687
867.7023	1210.9106	1581.1	691.15
867.847	1212.8316	1581.35	692.1
867.9916	1214.7519	1607.4	708.2
868.1363	1216.6715	1609.35	717.6
868.2809	1218.5903	1626.6	735.35
868.4255	1220.5084	1632.45	740.7
868.5701	1222.4257	1645	754.6
868.7148	1224.3424	1652.85	763.35
868.8594	1226.2583	1678.15	784.85
869.004	1228.1735	1707.05	815.35
869.1486	1230.0879	1739.7	847.1
869.2932	1232.0016	1789.5	897.35
869.4377	1233.9146	1817.3	924.1
869.5823	1235.8269	1845.15	954.85
869.7269	1237.7384	1855.65	962.7
869.8715	1239.6492	1845.1	952.85
870.016	1241.5592	1869.8	975.75
870.1606	1243.4686	1914.1	1025
870.3051	1245.3772	1987.65	1097.65
870.4496	1247.285	2066.35	1173.05
870.5941	1249.1922	2147.9	1256.3
870.7387	1251.0986	2214.9	1323.4
870.8832	1253.0042	2289.65	1397.45
871.0277	1254.9092	2382.2	1489.85
871.1722	1256.8134	2452.05	1562.8
871.3167	1258.7169	2516.65	1625.1
871.4611	1260.6196	2536.85	1644.95
871.6056	1262.5216	2557.25	1662.85
871.7501	1264.4229	2532.2	1640.85
871.8945	1266.3234	2496.85	1607.65
872.039	1268.2232	2449.5	1557.2
872.1834	1270.1223	2410.85	1518.65
872.3278	1272.0207	2376.45	1484.7
872.4723	1273.9183	2354.55	1455.7
872.6167	1275.8151	2354.55	1463
872.7611	1277.7113	2400.85	1508.95
872.9055	1279.6067	2493.85	1602.8
873.0499	1281.5014	2634.25	1741.35
873.1943	1283.3953	2796.95	1899.95
873.3386	1285.2885	2956.2	2064.55
873.483	1287.181	3082.7	2188.6
873.6274	1289.0727	3124.05	2232.7
873.7717	1290.9637	3084.3	2191.85
873.9161	1292.854	3004.5	2111.5
874.0604	1294.7435	2887.95	1996.1
874.2047	1296.6323	2793.3	1901.05
874.349	1298.5204	2708.2	1812.35
874.4933	1300.4077	2644.05	1750.8
874.6376	1302.2943	2603.55	1712.65
874.7819	1304.1802	2561.85	1668
874.9262	1306.0653	2526.6	1631.8
875.0705	1307.9497	2487.85	1593.5
875.2147	1309.8333	2453.4	1564.65
875.359	1311.7162	2425.55	1532.8
875.5032	1313.5984	2394.95	1497.9
875.6475	1315.4798	2371.05	1467.9
875.7917	1317.3605	2359.55	1461.35
875.9359	1319.2405	2342.5	1447.55
876.0801	1321.1197	2320	1424.35
876.2243	1322.9982	2265.35	1368.05
876.3685	1324.876	2174.2	1281.4
876.5127	1326.753	2098.35	1205.75
876.6569	1328.6293	2012.4	1118.25
876.801	1330.5048	1925.55	1029.1
876.9452	1332.3796	1869	977.75
877.0893	1334.2537	1839.6	920.7
877.2335	1336.127	1787.1	894.2
877.3776	1337.9996	1757.5	865.5
877.5217	1339.8714	1738.7	845.45
877.6658	1341.7426	1764.05	825.25
877.8099	1343.6129	1720.6	828
877.954	1345.4826	1697.85	803.35
878.0981	1347.3515	1691.2	793.95
878.2422	1349.2196	1677.7	781.4
878.3862	1351.087	1679.15	785.95
878.5303	1352.9537	1666.75	773.75
878.6743	1354.8197	1663.3	770.15
878.8184	1356.6849	1676.55	782.5
878.9624	1358.5493	1685.55	790.4
879.1064	1360.4131	1710.15	816.2
879.2504	1362.276	1748.5	856.85
879.3944	1364.1383	1789.55	894.6
879.5384	1365.9998	1798.75	901
879.6823	1367.8606	1790.3	896.55
879.8263	1369.7206	1774.7	881.8
879.9702	1371.5799	1768.65	872.1
880.1142	1373.4384	1767.4	872.15
880.2581	1375.2962	1738.75	843.4
880.402	1377.1533	1679	786.55
880.5459	1379.0096	1634.25	742.55
880.6898	1380.8652	1607.2	714.6
880.8337	1382.7201	1579.05	686.4
880.9776	1384.5742	1553.65	659.15
881.1215	1386.4275	1534.25	640.65
881.2653	1388.2802	1525.65	635
881.4092	1390.132	1508.85	613.65
881.553	1391.9832	1495.2	602.3
881.6968	1393.8336	1489.25	594.75
881.8406	1395.6832	1484.15	589.3
881.9844	1397.5322	1475.7	583.4
882.1282	1399.3803	1469.6	573.1
882.272	1401.2278	1457.45	566.3
882.4158	1403.0745	1443.8	552.15
882.5595	1404.9204	1435.5	544.6
882.7033	1406.7656	1440.85	547.15
882.847	1408.6101	1445.1	551.45
882.9908	1410.4538	1437.1	541.7
883.1345	1412.2968	1438.8	547
883.2782	1414.139	1435.85	544.2
883.4219	1415.9805	1449.05	558.6
883.5656	1417.8213	1461.9	561.85
883.7092	1419.6613	1475.45	581.7
883.8529	1421.5006	1501.6	608.2
883.9965	1423.3391	1531	637.7
884.1402	1425.1769	1582.55	688.8
884.2838	1427.0139	1656.3	763
884.4274	1428.8502	1743.75	848.5
884.571	1430.6858	1800.4	907.25
884.7146	1432.5206	1823.55	930.25
884.8582	1434.3547	1828.6	934.35
885.0018	1436.188	1793	901.85
885.1453	1438.0206	1776	881.15
885.2889	1439.8524	1772.05	880.35
885.4324	1441.6835	1769	876.6
885.5759	1443.5139	1782.35	886.8
885.7194	1445.3435	1775.55	881.7
885.8629	1447.1724	1780.85	887.75
886.0064	1449.0005	1778.85	887.5
886.1499	1450.8279	1768.9	875.5
886.2933	1452.6545	1773.45	880.05
886.4368	1454.4804	1763.65	872.2
886.5802	1456.3056	1759.05	859.05
886.7237	1458.13	1732.6	840.55
886.8671	1459.9536	1714.35	821.1
887.0105	1461.7766	1680.05	787.4
887.1539	1463.5987	1649.5	754.8
887.2972	1465.4202	1612	720.25
887.4406	1467.2409	1569.25	674.6
887.584	1469.0608	1542.75	650.85
887.7273	1470.88	1501.9	606.9
887.8706	1472.6984	1477.45	584.2
888.0139	1474.5161	1466.15	572.05
888.1572	1476.3331	1453.75	561.2
888.3005	1478.1493	1450.65	557.65
888.4438	1479.9648	1436.2	542.9
888.5871	1481.7795	1438.25	544.15
888.7303	1483.5935	1437.15	544.5
888.8736	1485.4067	1434.65	542.6
889.0168	1487.2192	1434.75	541.95
889.16	1489.031	1439.2	543.35
889.3032	1490.842	1432.3	539.8
889.4464	1492.6522	1433.5	539.65
889.5896	1494.4618	1431.8	537.45
889.7327	1496.2705	1425.35	533.6
889.8759	1498.0785	1421.3	528.5
890.019	1499.8858	1414.6	520.95
890.1622	1501.6924	1408.45	517.1
890.3053	1503.4981	1398.25	506
890.4484	1505.3032	1401.5	507.75
890.5914	1507.1075	1385.4	492.5
890.7345	1508.911	1383.4	489.4
890.8776	1510.7138	1375.65	480.25
891.0206	1512.5159	1373.95	482.85
891.1637	1514.3172	1364.1	473.85
891.3067	1516.1178	1359.4	467
891.4497	1517.9176	1359.7	464.85
891.5927	1519.7166	1352.8	459.55
891.7357	1521.515	1343.25	444.9
891.8786	1523.3126	1338.6	443.7
892.0216	1525.1094	1339.65	444.15
892.1645	1526.9055	1334.15	444
892.3074	1528.7008	1322.9	431.7
892.4503	1530.4954	1340.95	442.9
892.5932	1532.2893	1321.25	431.85
892.7361	1534.0824	1329.45	435.15
892.879	1535.8747	1315.95	426.15
893.0218	1537.6663	1319.7	428
893.1647	1539.4572	1318.3	426.55
893.3075	1541.2473	1319.3	425.35
893.4503	1543.0367	1314.3	424.45
893.5931	1544.8253	1326.1	431.5
893.7359	1546.6132	1328.8	434
893.8787	1548.4003	1335.95	435.45
894.0214	1550.1867	1350.8	451.35
894.1642	1551.9723	1347.4	450.95
894.3069	1553.7572	1358.5	466.25
894.4496	1555.5414	1377.35	487.65
894.5923	1557.3247	1413.85	523.9
894.735	1559.1074	1436.25	548.55
894.8777	1560.8893	1477.35	590.1
895.0204	1562.6705	1505.25	614.4
895.163	1564.4509	1529.7	640.5
895.3056	1566.2305	1531.75	642.2
895.4482	1568.0094	1534.3	644.05
895.5908	1569.7876	1532.65	642.9
895.7334	1571.565	1523.85	633.25
895.876	1573.3417	1525.8	638.15
896.0186	1575.1176	1528.05	639.5
896.1611	1576.8928	1543.3	656.25
896.3036	1578.6672	1564.1	676.8
896.4461	1580.4409	1585.6	702.8
896.5886	1582.2138	1620	731.9
896.7311	1583.986	1646.5	757.9
896.8736	1585.7575	1689.45	801.55
897.0161	1587.5282	1712.3	827.7
897.1585	1589.2981	1740.8	854.05
897.3009	1591.0673	1751.55	862.9
897.4433	1592.8358	1758.85	871.95
897.5857	1594.6035	1763.3	872.25
897.7281	1596.3704	1751.9	863.2
897.8705	1598.1366	1737.3	849.1
898.0128	1599.9021	1712.6	824.1
898.1551	1601.6668	1704.95	816
898.2975	1603.4308	1688.6	797.75
898.4398	1605.194	1704.65	812.65
898.5821	1606.9564	1728.65	842.45
898.7243	1608.7182	1773.35	886.7
898.8666	1610.4791	1850.15	966
899.0088	1612.2394	1927.45	1044.75
899.1511	1613.9988	2020.65	1136.15
899.2933	1615.7576	2091.5	1205.85
899.4355	1617.5156	2114.75	1220.4
899.5776	1619.2728	2059.65	1171.4
899.7198	1621.0293	1988.5	1102.55
899.862	1622.785	1879.8	988.65
900.0041	1624.54	1776.05	886.7
900.1462	1626.2942	1668.65	782.6
900.2883	1628.0477	1581.6	691.65
900.4304	1629.8005	1512.5	622.05
900.5725	1631.5525	1452	565.9
900.7145	1633.3037	1404.9	520.65
900.8566	1635.0542	1373.25	488.15
900.9986	1636.804	1347.35	459.5
901.1406	1638.553	1406.15	431.95
901.2826	1640.3013	1306.8	419.05
901.4245	1642.0488	1287.7	402.1
901.5665	1643.7955	1276.3	392.35
901.7085	1645.5416	1262.65	374.15
901.8504	1647.2868	1255.7	368.2
901.9923	1649.0313	1248.55	360.95
902.1342	1650.7751	1250.6	357.7
902.2761	1652.5181	1241.7	354.45
902.4179	1654.2604	1237.85	352.3
902.5598	1656.0019	1246.95	361.7
902.7016	1657.7427	1260.65	374.45
902.8434	1659.4828	1278.8	391.9
902.9852	1661.222	1309.85	421.4
903.127	1662.9606	1332.5	445.1
903.2687	1664.6984	1362	474.8
903.4105	1666.4354	1361.45	473.05
903.5522	1668.1717	1332.95	445
903.6939	1669.9072	1293.25	404.35
903.8356	1671.642	1262.15	372.75
903.9773	1673.3761	1229.4	341.15
904.119	1675.1094	1204.85	316.6
904.2606	1676.8419	1189.1	304.1
904.4022	1678.5737	1172.95	285.9
904.5439	1680.3048	1170.25	282.85
904.6855	1682.0351	1156.6	267.2
904.827	1683.7646	1155.95	264.65
904.9686	1685.4934	1149.65	264.95
905.1101	1687.2215	1146.25	259.8
905.2517	1688.9488	1142.95	257.9
905.3932	1690.6754	1134.05	248.4
905.5347	1692.4012	1132.25	243.55
905.6761	1694.1263	1137.4	249.75
905.8176	1695.8506	1134.85	248.85
905.9591	1697.5742	1130.8	246.55
906.1005	1699.297	1123.35	237.1
906.2419	1701.0191	1124.35	239.8
906.3833	1702.7404	1122.95	238
906.5246	1704.461	1123.9	237.05
906.666	1706.1808	1115.95	228.8
906.8073	1707.8999	1114.25	229.15
906.9487	1709.6182	1109.75	223.35
907.09	1711.3358	1112.4	227.15
907.2313	1713.0527	1104.9	220.65
907.3725	1714.7688	1113.25	223.05
907.5138	1716.4841	1112.65	224.15
907.655	1718.1987	1112.8	221.25
907.7962	1719.9126	1100.45	217.1
907.9374	1721.6257	1104.6	217.15
908.0786	1723.338	1104.25	219.75
908.2198	1725.0496	1102.7	218.15
908.3609	1726.7605	1099.2	212.9
908.502	1728.4706	1100.1	214.15
908.6431	1730.18	1097.2	210.55
908.7842	1731.8886	1099.3	214.55
908.9253	1733.5964	1118.95	213.5
909.0664	1735.3036	1099.5	211.3
909.2074	1737.0099	1099.15	214.7
909.3484	1738.7156	1090.7	205.85
909.4894	1740.4204	1092.3	206.35
909.6304	1742.1246	1094.2	207
909.7714	1743.8279	1093.45	209.2
909.9123	1745.5306	1094.65	208.5
910.0532	1747.2325	1088.95	204.55
910.1941	1748.9336	1088.95	204.75
910.335	1750.634	1092.15	205.1
910.4759	1752.3336	1088.95	205
910.6168	1754.0325	1091.35	206.65
910.7576	1755.7307	1086.75	202.7
910.8984	1757.4281	1089.95	204
911.0392	1759.1247	1099	204.3
911.18	1760.8206	1093.7	203.65
911.3208	1762.5158	1093.4	202.95
911.4615	1764.2102	1089.5	202.65
911.6022	1765.9039	1081.05	194.65
911.7429	1767.5968	1080.35	196.45
911.8836	1769.289	1085.35	199.5
912.0243	1770.9804	1082.65	197.25
912.1649	1772.6711	1087.8	200.75
912.3056	1774.361	1089.6	204.1
912.4462	1776.0502	1082.65	195.4
912.5868	1777.7386	1084.15	194.95
912.7274	1779.4263	1078.25	191.7
912.8679	1781.1132	1074.9	188.95
913.0084	1782.7994	1081.8	199.05
913.149	1784.4849	1080.25	195.25
913.2895	1786.1696	1097.05	193.95
913.4299	1787.8535	1077.45	193.3
913.5704	1789.5367	1074.55	191.65
913.7108	1791.2192	1079.15	194.5
913.8513	1792.9009	1098.85	189.25
913.9917	1794.5818	1076.2	188.6
914.132	1796.2621	1078.6	195.3
914.2724	1797.9415	1072.95	186.45
914.4128	1799.6202	1076.9	191
914.5531	1801.2982	1069.8	183.95
914.6934	1802.9755	1070.6	182.25
914.8337	1804.6519	1069.4	183.3
914.9739	1806.3277	1071.8	186.55
915.1142	1808.0027	1067.95	184.55
915.2544	1809.6769	1066.9	182.85
915.3946	1811.3504	1070.65	187.4
915.5348	1813.0231	1067.7	186
915.675	1814.6951	1068.55	184.8
915.8151	1816.3664	1063.9	177.95
915.9553	1818.0369	1073	188.25
916.0954	1819.7067	1065.9	180.95
916.2355	1821.3757	1071.8	184.6
916.3755	1823.044	1066.1	180.9
916.5156	1824.7115	1063.2	175.15
916.6556	1826.3783	1067.1	182.65
916.7956	1828.0443	1068	181.6
916.9356	1829.7096	1067.35	181.3
917.0756	1831.3741	1067.4	179.1
917.2155	1833.0379	1060.55	175.2
917.3555	1834.701	1060.1	173.9
917.4954	1836.3633	1059.25	175.2
917.6353	1838.0248	1061.4	175.35
917.7751	1839.6856	1060.95	176.85
917.915	1841.3457	1057.9	174.25
918.0548	1843.005	1060.4	173.65
918.1946	1844.6636	1059.9	177.7
918.3344	1846.3214	1059.7	175.45
918.4742	1847.9785	1059.85	175.55
918.6139	1849.6349	1059.3	173.95
918.7537	1851.2904	1067.4	172.6
918.8934	1852.9453	1056.55	169
919.0331	1854.5994	1061	173.45
919.1727	1856.2528	1065.6	176.65
919.3124	1857.9054	1057.95	171.95
919.452	1859.5572	1054.55	170.45
919.5916	1861.2083	1055.25	167.95
919.7312	1862.8587	1055.65	171.7
919.8708	1864.5084	1056.05	169.85
920.0103	1866.1572	1052.95	165.75
920.1498	1867.8054	1054.5	166.6
920.2893	1869.4528	1053.55	166.75
920.4288	1871.0994	1057.65	172.55
920.5683	1872.7453	1052.3	165.2
920.7077	1874.3905	1065.15	171.7
920.8471	1876.0349	1055.55	168.45
920.9865	1877.6786	1054.25	165.35
921.1259	1879.3215	1054	169.35
921.2653	1880.9637	1049.95	163.75
921.4046	1882.6051	1047	161.6
921.5439	1884.2458	1053.7	165.6
921.6832	1885.8858	1048.95	162.25
921.8225	1887.525	1052.25	164.95
921.9617	1889.1634	1045.95	159.4
922.101	1890.8011	1048.95	158.5
922.2402	1892.4381	1046.2	160.7
922.3794	1894.0743	1044.5	159.8
922.5185	1895.7098	1046.65	162.45
922.6577	1897.3446	1047.9	162.4
922.7968	1898.9786	1051.75	163.45
922.9359	1900.6118	1047.6	164.15
923.075	1902.2443	1043.4	159.65
923.214	1903.8761	1045.85	162.75
923.3531	1905.5071	1046.95	159.3
923.4921	1907.1374	1043.65	158
923.6311	1908.7669	1038.25	155.9
923.77	1910.3957	1044	159.8
923.909	1912.0237	1039	153.45
924.0479	1913.651	1041.6	156.4
924.1868	1915.2776	1037.25	153.45
924.3257	1916.9034	1036.35	153.3
924.4646	1918.5285	1042.75	158.25
924.6034	1920.1528	1036	152.3
924.7422	1921.7764	1038.2	153.2
924.881	1923.3992	1034.25	150.55
925.0198	1925.0213	1035.1	149.85
925.1586	1926.6427	1034.7	149.75
925.2973	1928.2633	1248.1	150
925.436	1929.8832	1044.6	155.7
925.5747	1931.5023	1038.9	155.5
925.7134	1933.1207	1035.65	149.2
925.852	1934.7383	1035.2	149.1
925.9906	1936.3552	1033.1	150.75
926.1292	1937.9714	1034.15	149.2
926.2678	1939.5868	1032.4	143.15
926.4064	1941.2015	1029.55	143.9
926.5449	1942.8154	1032.4	145.35
926.6834	1944.4286	1033.8	148.05
926.8219	1946.041	1055.1	147.5
926.9604	1947.6528	1038.05	147.8
927.0988	1949.2637	1026.25	143.45
927.2372	1950.8739	1031	144.45
927.3756	1952.4834	1028.7	143.2
927.514	1954.0921	1026	140.6
927.6523	1955.7001	1031.45	143.1
927.7907	1957.3074	1029.7	148
927.929	1958.9139	1024.6	142.45
928.0673	1960.5197	1024.65	138.3
928.2055	1962.1247	1024.15	140.8
928.3438	1963.729	1022.05	140.25
928.482	1965.3325	1032.7	143.55
928.6202	1966.9353	1021.7	139.85
928.7584	1968.5374	1028.45	145.75
928.8965	1970.1387	1022.75	138.25
929.0346	1971.7393	1022	137.2
929.1727	1973.3392	1022.7	137.8
929.3108	1974.9383	1025	143.85
929.4489	1976.5366	1020.75	136.9
929.5869	1978.1342	1021.85	138.75
929.7249	1979.7311	1020.55	136.15
929.8629	1981.3273	1018.45	136.9
930.0009	1982.9227	1022.7	140.85
930.1388	1984.5173	1019.65	137.75
930.2767	1986.1112	1016.8	136.45
930.4146	1987.7044	1013.85	132.65
930.5525	1989.2968	1017.1	134.4
930.6904	1990.8885	1020.15	135.45
930.8282	1992.4795	1017.05	134.15
930.966	1994.0697	1018	137.55
931.1038	1995.6592	1020.05	137
931.2415	1997.2479	1016.4	135.1
931.3793	1998.8359	1016.25	134.35
931.517	2000.4232	1015.7	137.35
931.6547	2002.0097	1015.6	137.55
931.7923	2003.5955	1013.1	131.65
931.93	2005.1805	1016.6	136.4
932.0676	2006.7648	1013	132.5
932.2052	2008.3484	1014.9	133.4
932.3427	2009.9312	1015.45	134.45
932.4803	2011.5133	1009.95	131.45
932.6178	2013.0946	1013.8	135.3
932.7553	2014.6752	1012.2	133.9
932.8928	2016.2551	1013.55	132.7
933.0302	2017.8342	1012.9	133.15
933.1676	2019.4126	1007.65	129.7
933.305	2020.9902	1007.55	128.55
933.4424	2022.5672	1008.2	129.3
933.5798	2024.1433	1011.95	126.25
933.7171	2025.7188	1010.65	133.6
933.8544	2027.2935	1009.1	129.7
933.9917	2028.8674	1006.4	127.85
934.129	2030.4406	1006.35	130.4
934.2662	2032.0131	1004.45	125.3
934.4034	2033.5849	1008.6	126.35
934.5406	2035.1559	1007.75	129.4
934.6778	2036.7261	1005.2	124.9
934.8149	2038.2957	1008.8	129.45
934.952	2039.8645	1006	125.05
935.0891	2041.4325	1014.25	130.45
935.2262	2042.9998	1008.15	130.2
935.3632	2044.5664	1007	126.1
935.5002	2046.1323	1003.6	125.75
935.6372	2047.6974	1005.8	127.75
935.7742	2049.2617	1005.05	127
935.9111	2050.8254	1013.1	130.2
936.048	2052.3883	1006.4	125.5
936.1849	2053.9504	1007.8	125.95
936.3218	2055.5118	1010.1	127.95
936.4586	2057.0725	1004.6	121.1
936.5955	2058.6325	1005.05	127.35
936.7323	2060.1917	1004.55	126.05
936.869	2061.7502	1008.95	129.4
937.0058	2063.3079	1006.7	130.4
937.1425	2064.8649	1006	121.8
937.2792	2066.4212	1006.4	125.2
937.4159	2067.9767	1003.05	124.2
937.5525	2069.5315	1010.5	131.2
937.6891	2071.0856	1001.2	121.4
937.8257	2072.6389	1005.5	126.2
937.9623	2074.1915	1000.8	124.45
938.0989	2075.7433	1005.4	124.8
938.2354	2077.2945	1004.15	124.7
938.3719	2078.8448	1001.95	122.05
938.5084	2080.3945	1007.25	126.7
938.6448	2081.9434	1005.2	124.45
938.7812	2083.4916	1007.6	128.4
938.9176	2085.039	1003.8	120.75
939.054	2086.5857	1006.45	123.75
939.1903	2088.1317	1001.7	120.7
939.3267	2089.677	1003.2	120.25
939.463	2091.2215	1006.65	124.8
939.5992	2092.7652	1005.65	120.6
939.7355	2094.3083	999.9	116.3
939.8717	2095.8506	1002.6	122.5
940.0079	2097.3921	1004.2	123.65
940.1441	2098.933	1006.3	127.1
940.2802	2100.4731	1003.35	121.95
940.4163	2102.0124	1021.2	122.6
940.5524	2103.5511	1002.25	123.3
940.6885	2105.089	1006.35	125.1
940.8245	2106.6261	1005.3	121.8
940.9606	2108.1626	1002.2	121.15
941.0965	2109.6983	1029.35	119.85
941.2325	2111.2332	1007.2	126
941.3684	2112.7675	1004.35	119.35
941.5044	2114.301	1004.6	122.45
941.6403	2115.8337	1004.05	120.25
941.7761	2117.3657	1000.05	120.25
941.912	2118.897	1004.55	122.65
942.0478	2120.4276	1009.25	120.85
942.1835	2121.9575	1005.65	124.7
942.3193	2123.4866	1015.45	120.5
942.455	2125.0149	1003.45	120.3
942.5907	2126.5426	998.95	117.35
942.7264	2128.0695	1002.25	119.15
942.8621	2129.5956	997.65	121.05
942.9977	2131.1211	1000.55	117.85
943.1333	2132.6458	1003.05	124.65
943.2689	2134.1698	1004.3	122.8
943.4044	2135.693	1002.55	118.45
943.54	2137.2155	1001.8	117.95
943.6755	2138.7373	1005.3	127.35
943.8109	2140.2584	996.4	116.4
943.9464	2141.7787	1003.7	119
944.0818	2143.2983	996.45	117.5
944.2172	2144.8171	999.3	124.45
944.3526	2146.3353	996.4	115.15
944.4879	2147.8527	998.5	120.05
944.6232	2149.3693	1000	118.5
944.7585	2150.8853	1000.05	119.35
944.8938	2152.4005	999.3	116.5
945.029	2153.9149	1001.55	120.8
945.1642	2155.4287	1000.95	120.7
945.2994	2156.9417	995.7	111.8
945.4346	2158.454	1000.4	118.65
945.5697	2159.9655	995.05	117
945.7048	2161.4764	996.2	115.9
945.8399	2162.9865	997.35	118.05
945.9749	2164.4958	996.55	115.75
946.1099	2166.0045	997.15	113.05
946.2449	2167.5124	998.05	118.25
946.3799	2169.0195	999.45	120.05
946.5148	2170.526	996.05	113.55
946.6498	2172.0317	996.8	117
946.7846	2173.5367	997	117.8
946.9195	2175.0409	996.75	117.9
947.0543	2176.5445	990	109.7
947.1891	2178.0473	994.65	112.35
947.3239	2179.5494	1000.4	116.95
947.4587	2181.0507	996.7	116.85
947.5934	2182.5513	997.35	117.7
947.7281	2184.0512	993.75	111.9
947.8628	2185.5504	993.25	114.45
947.9974	2187.0488	992.5	116.6
948.132	2188.5465	989.75	110.65
948.2666	2190.0435	994.35	113.7
948.4012	2191.5397	996.7	116.55
948.5357	2193.0353	992.4	110.85
948.6702	2194.5301	995.2	113.05
948.8047	2196.0241	995.25	114.85
948.9392	2197.5175	996.05	113.4
949.0736	2199.0101	995.9	109.65
949.208	2200.502	988.1	107.6
949.3424	2201.9931	989.55	109.8
949.4767	2203.4835	988.95	109.2
949.611	2204.9733	1009.2	114.2
949.7453	2206.4622	991.55	114.6
949.8796	2207.9505	994.3	113.8
950.0138	2209.438	987.15	108.75
950.148	2210.9248	988.1	107.45
950.2822	2212.4109	988	106.75
950.4164	2213.8962	992.35	106.9
950.5505	2215.3809	988.15	105
950.6846	2216.8648	994	112.15
950.8186	2218.3479	996.55	110.2
950.9527	2219.8304	994.25	107.35
951.0867	2221.3121	988.6	103.4
951.2207	2222.7931	987	105.65
951.3546	2224.2733	987.2	106.65
951.4886	2225.7529	987.1	105.55
951.6225	2227.2317	987.9	105.55
951.7563	2228.7098	983.15	104.65
951.8902	2230.1872	983.95	104.3
952.024	2231.6638	983.1	105
952.1578	2233.1397	990.2	104.1
952.2916	2234.6149	988.1	109.45
952.4253	2236.0894	988.25	107.55
952.559	2237.5632	993.55	102.9
952.6927	2239.0362	985.25	106.1
952.8263	2240.5085	984.1	103.95
952.9599	2241.9801	987	107.4
953.0935	2243.4509	983.8	101.65
953.2271	2244.921	984.25	100.65
953.3606	2246.3904	990.7	108.35
953.4941	2247.8591	981.7	102.1
953.6276	2249.3271	981.75	102
953.7611	2250.7943	980.95	98.2
953.8945	2252.2608	984.9	104.2
954.0279	2253.7266	980.25	99.4
954.1612	2255.1917	976.1	97.65
954.2946	2256.656	982.4	100.85
954.4279	2258.1197	981.2	102.15
954.5612	2259.5826	983.65	103.9
954.6944	2261.0447	983.65	102.3
954.8276	2262.5062	982.1	98.5
954.9608	2263.9669	983	100.2
955.094	2265.4269	979.35	99.3
955.2271	2266.8862	978	97.5
955.3602	2268.3448	977.85	98.8
955.4933	2269.8026	977.8	97.9
955.6264	2271.2598	976.35	96.15
955.7594	2272.7162	980.2	99.05
955.8924	2274.1719	979.05	95.65
956.0253	2275.6268	980.05	100.3
956.1583	2277.0811	979.4	98.2
956.2912	2278.5346	977.85	98.6
956.4241	2279.9874	976.65	96.8
956.5569	2281.4395	977.2	99.2
956.6897	2282.8908	978.8	92.7
956.8225	2284.3414	977.85	96.45
956.9553	2285.7914	974.7	98.2
957.088	2287.2406	981.3	97.7
957.2207	2288.689	979.5	98.95
957.3534	2290.1368	979.75	95.45
957.486	2291.5838	984.55	100.05
957.6186	2293.0302	977.75	93.75
957.7512	2294.4758	975	93.7
957.8838	2295.9206	977.75	93.1
958.0163	2297.3648	974.6	94.8
958.1488	2298.8082	977.3	95.65
958.2813	2300.251	978.15	97.25
958.4137	2301.693	977.05	92.35
958.5461	2303.1343	975.9	94.75
958.6785	2304.5748	975.55	96.3
958.8108	2306.0147	971.55	90.1
958.9432	2307.4538	974.55	93.25
959.0754	2308.8922	972.1	94.15
959.2077	2310.3299	970.85	90.1
959.3399	2311.7669	973.35	94.95
959.4721	2313.2031	973.45	92.5
959.6043	2314.6387	976.7	96.1
959.7365	2316.0735	971.6	90.9
959.8686	2317.5076	976.05	95.35
960.0006	2318.941	970.15	90.05
960.1327	2320.3737	979.6	98.95
960.2647	2321.8056	975.65	91.05
960.3967	2323.2369	975	94.75
960.5287	2324.6674	978.4	94
960.6606	2326.0972	978.5	96.1
960.7925	2327.5263	980.5	99.55
960.9244	2328.9547	983.5	102.4
961.0562	2330.3823	981.7	100.25
961.1881	2331.8092	980.6	95.75
961.3198	2333.2355	976.55	95
961.4516	2334.661	970.7	87.05
961.5833	2336.0858	972.85	90.75
961.715	2337.5098	971.4	90
961.8467	2338.9332	968.45	86.75
961.9783	2340.3558	970.15	85.05
962.1099	2341.7778	968.2	88.5
962.2415	2343.199	969.75	86.75
962.373	2344.6195	971.75	91.05
962.5045	2346.0393	966.5	85.35
962.636	2347.4583	966.7	82.65
962.7675	2348.8767	971.15	88.35
962.8989	2350.2943	970.5	87.05
963.0303	2351.7113	972.9	90.2
963.1617	2353.1275	967.25	85.2
963.293	2354.543	994.5	87
963.4243	2355.9578	972	90.35
963.5556	2357.3718	966.6	84.25
963.6868	2358.7852	972.85	89.2
963.818	2360.1978	967.45	84.35
963.9492	2361.6098	965.6	84.15
964.0803	2363.021	971.65	86.75
964.2114	2364.4315	970.55	88.55
964.3425	2365.8413	971.55	81.45
964.4736	2367.2504	965.75	84.65
964.6046	2368.6587	966.2	84.1
964.7356	2370.0664	968.2	89.2
964.8666	2371.4733	966	85
964.9975	2372.8795	969.2	89
965.1284	2374.285	965.5	82.8
965.2593	2375.6899	966.45	84.5
965.3901	2377.0939	963.35	81.6
965.5209	2378.4973	965.6	83.5
965.6517	2379.9	967.45	84.3
965.7825	2381.3019	965.55	83.35
965.9132	2382.7032	965.8	84.15
966.0439	2384.1037	960.75	80.6
966.1745	2385.5035	960.35	77.6
966.3051	2386.9027	959	80.5
966.4357	2388.3011	968.9	84.4
966.5663	2389.6987	963.9	82.75
966.6968	2391.0957	964.75	83.35
966.8273	2392.492	961.5	79.45
966.9578	2393.8876	960.6	77.7
967.0882	2395.2824	961.1	79.1
967.2186	2396.6765	958.75	76.65
967.349	2398.07	961.3	79.35
967.4793	2399.4627	964	77.6
967.6097	2400.8547	963.8	81.95
967.7399	2402.246	968.35	78.9
967.8702	2403.6366	959.75	76.55
968.0004	2405.0265	957.1	75.7
968.1306	2406.4156	962.4	74.05
968.2607	2407.8041	965.3	78.3
968.3909	2409.1918	964.6	80.2
968.521	2410.5789	959.7	76.45
968.651	2411.9652	961.7	75.95
968.781	2413.3508	961.45	79.25
968.911	2414.7358	963.9	79.1
969.041	2416.12	962.9	82.3
969.1709	2417.5035	957.45	74.7
969.3008	2418.8863	960.25	76.55
969.4307	2420.2684	962.8	80.9
969.5606	2421.6497	961.6	77.9
969.6904	2423.0304	958.5	77.5
969.8201	2424.4104	960	75.55
969.9499	2425.7896	961.55	75.15
970.0796	2427.1682	955.05	73
970.2093	2428.546	954.35	70
970.3389	2429.9232	955.75	70.9
970.4685	2431.2996	955.75	72.3
970.5981	2432.6753	957.1	74.4
970.7277	2434.0503	954.5	73.45
970.8572	2435.4246	957.3	75.2
970.9867	2436.7982	959.7	75.5
971.1161	2438.1711	953.1	70.55
971.2456	2439.5433	958.35	75.7
971.375	2440.9148	953.3	68.35
971.5043	2442.2856	953.1	69
971.6336	2443.6557	955	69.4
971.7629	2445.025	956.25	76.2
971.8922	2446.3937	952.2	68.6
972.0214	2447.7617	956.1	72.55
972.1506	2449.1289	955.8	71.2
972.2798	2450.4955	956.85	72.1
972.4089	2451.8613	950.25	70.4
972.538	2453.2265	953.3	70.45
972.6671	2454.5909	954.65	72.15
972.7961	2455.9546	951.15	69.25
972.9251	2457.3177	951.9	68.85
973.0541	2458.68	953.55	70.05
973.1831	2460.0416	953.95	73.05
973.312	2461.4025	954.8	70.7
973.4408	2462.7627	961.5	66.55
973.5697	2464.1222	946.05	65.45
973.6985	2465.4811	952.55	70.6
973.8273	2466.8392	950.8	68.5
973.956	2468.1966	954.9	71.05
974.0847	2469.5533	951.75	68.5
974.2134	2470.9093	952.7	69.6
974.3421	2472.2645	954.2	69.7
974.4707	2473.6191	949.3	67.25
974.5993	2474.973	954.75	73
974.7278	2476.3262	952.7	68.35
974.8563	2477.6787	949.55	67.95
974.9848	2479.0305	955.1	72.45
975.1132	2480.3816	955.35	71.1
975.2417	2481.7319	949.55	69.1
975.37	2483.0816	951.8	68.7
975.4984	2484.4306	948.4	65.3
975.6267	2485.7789	948.95	69.4
975.755	2487.1264	950.05	68.1
975.8833	2488.4733	947.75	67.75
976.0115	2489.8195	954.45	63.95
976.1397	2491.165	954.85	68.95
976.2678	2492.5097	952	69.3
976.3959	2493.8538	948.8	65.15
976.524	2495.1972	949.5	67.65
976.6521	2496.5398	952.75	69.45
976.7801	2497.8818	951.1	67.8
976.9081	2499.2231	948.8	65.7
977.036	2500.5637	950.15	66.85
977.164	2501.9035	950.05	66.95
977.2918	2503.2427	951.75	67
977.4197	2504.5812	947.1	63.75
977.5475	2505.919	948.8	66.45
977.6753	2507.256	946.9	64.7
977.8031	2508.5924	944.85	61.25
977.9308	2509.9281	952.75	65.2
978.0585	2511.2631	944.2	63.85
978.1861	2512.5974	944.2	65.35
978.3137	2513.9309	945.7	64.6
978.4413	2515.2638	972.7	63.4
978.5689	2516.596	943.85	63.1
978.6964	2517.9275	948.55	64.7
978.8239	2519.2583	947.05	64.4
978.9513	2520.5884	947.65	64.05
979.0788	2521.9178	945.75	63.5
979.2062	2523.2465	943	62.75
979.3335	2524.5745	941.4	60.25
979.4608	2525.9018	944.2	62
979.5881	2527.2284	941.85	63.1
979.7154	2528.5543	941.5	60.75
979.8426	2529.8796	946.2	62.7
979.9698	2531.2041	943.35	62.05
980.0969	2532.5279	940.5	59.45
980.224	2533.851	942.2	58
980.3511	2535.1735	944.1	62.85
980.4781	2536.4952	942.8	60.2
980.6052	2537.8163	945	62.35
980.7321	2539.1366	941.4	61.95
980.8591	2540.4562	943.4	60.5
980.986	2541.7752	941.65	58.2
981.1129	2543.0935	942.2	61.15
981.2397	2544.411	943.65	59.75
981.3665	2545.7279	943.5	61.25
981.4933	2547.0441	940.2	57.3
981.62	2548.3596	943.6	59.6
981.7467	2549.6744	942.3	61.75
981.8734	2550.9885	947.5	57.85
982.0001	2552.3019	943.2	61.75
982.1267	2553.6146	940.15	59.7
982.2532	2554.9266	939.3	56.15
982.3798	2556.2379	941	56.25
982.5063	2557.5485	938.5	56.95
982.6327	2558.8585	945.75	56.65
982.7592	2560.1677	944.35	58.05
982.8856	2561.4762	938.35	56.7
983.0119	2562.7841	948.25	62.55
983.1383	2564.0913	939.7	59.7
983.2646	2565.3977	936.6	55.4
983.3908	2566.7035	942.45	60.7
983.517	2568.0086	943.2	57.7
983.6432	2569.313	942.65	61.65
983.7694	2570.6167	941.3	55.85
983.8955	2571.9197	938.75	58.15
984.0216	2573.222	942.3	58.55
984.1476	2574.5236	940.25	57.65
984.2737	2575.8246	942.35	58.3
984.3996	2577.1248	942	56.3
984.5256	2578.4244	940.35	59.8
984.6515	2579.7232	938.35	56.45
984.7774	2581.0214	964.25	56.65
984.9032	2582.3189	937.6	57.9
985.029	2583.6157	945.65	60.1
985.1548	2584.9118	939.4	59.2
985.2806	2586.2072	937.15	55.25
985.4063	2587.5019	935.6	53.5
985.5319	2588.7959	940.55	58.2
985.6576	2590.0893	940.15	55.25
985.7832	2591.3819	937.75	57.5
985.9087	2592.6739	940.15	59.35
986.0343	2593.9652	939.95	57.35
986.1597	2595.2557	942.85	61.2
986.2852	2596.5456	944.05	60.9
986.4106	2597.8348	937.35	53.95
986.536	2599.1234	938.3	57.25
986.6614	2600.4112	937.25	54.55
986.7867	2601.6983	941.7	55.45
986.912	2602.9848	941.35	59.3
987.0372	2604.2705	944.45	56.85
987.1624	2605.5556	940.05	58.45
987.2876	2606.84	939.5	58.45
987.4128	2608.1237	938.85	59.25
987.5379	2609.4067	938.75	57.8
987.6629	2610.689	944.95	54.65
987.788	2611.9707	940.9	54.05
987.913	2613.2516	940.5	54.3
988.0379	2614.5319	933.9	54.05
988.1629	2615.8115	937.8	54.4
988.2878	2617.0903	936.8	55
988.4126	2618.3685	937.45	56.8
988.5375	2619.6461	936.9	54.75
988.6622	2620.9229	936.5	57.25
988.787	2622.199	937.5	56.35
988.9117	2623.4745	933.15	50.1
989.0364	2624.7493	937.6	56.9
989.161	2626.0234	933.5	51.3
989.2857	2627.2968	935.45	56.2
989.4102	2628.5695	934.45	52.5
989.5348	2629.8415	932	52.6
989.6593	2631.1128	938.5	53.3
989.7837	2632.3835	933.45	52.85
989.9082	2633.6535	934.5	53.75
990.0326	2634.9228	933.65	52.2
990.1569	2636.1914	932.6	52.8
990.2812	2637.4593	940.55	53.15
990.4055	2638.7265	937	55.25
990.5298	2639.9931	932.15	51.75
990.654	2641.259	932.6	51.05
990.7782	2642.5242	931.8	50.3
990.9023	2643.7887	931.2	51.55
991.0264	2645.0525	931.05	49.7
991.1505	2646.3156	934.25	51.7
991.2745	2647.5781	932.15	53.8
991.3985	2648.8398	930	53.55
991.5225	2650.1009	941.75	51.15
991.6464	2651.3613	930.45	50.6
991.7703	2652.6211	931.15	50.6
991.8942	2653.8801	928.05	48.85
992.018	2655.1385	930.05	45.1
992.1418	2656.3961	929.4	48.85
992.2655	2657.6531	927.45	44.5
992.3892	2658.9094	932	50.95
992.5129	2660.1651	929	49.25
992.6366	2661.42	931.35	49.3
992.7602	2662.6743	930.7	48.05
992.8837	2663.9279	931.25	49.75
993.0073	2665.1808	929.8	48.1
993.1307	2666.433	929.7	46.6
993.2542	2667.6846	930.45	49.55
993.3776	2668.9354	935.2	50.95
993.501	2670.1856	931.7	50.25
993.6244	2671.4351	931.5	50
993.7477	2672.6839	934.1	51.45
993.8709	2673.9321	932.35	51.15
993.9942	2675.1795	931.2	50.75
994.1174	2676.4263	930.45	49.55
994.2405	2677.6724	929.85	49.9
994.3637	2678.9179	932.95	52
994.4868	2680.1626	930.55	49.65
994.6098	2681.4067	932.85	53
994.7328	2682.6501	929.65	48.55
994.8558	2683.8928	929.25	46.9
994.9788	2685.1348	929.45	49.05
995.1017	2686.3761	926.5	46
995.2245	2687.6168	928.85	46.9
995.3474	2688.8568	927.3	46.45
995.4702	2690.0961	926.6	45.2
995.5929	2691.3348	927.8	46.65
995.7156	2692.5727	927.55	46.2
995.8383	2693.81	927.8	47.6
995.961	2695.0466	924.2	46.2
996.0836	2696.2826	926.5	41.9
996.2062	2697.5178	931.65	47.05
996.3287	2698.7524	928.25	45.3
996.4512	2699.9863	927.15	45.3
996.5737	2701.2195	924.35	46.45
996.6961	2702.452	924.85	41.45
996.8185	2703.6839	931.1	51
996.9408	2704.9151	925.95	45.7
997.0631	2706.1456	926.8	46.9
997.1854	2707.3755	929.8	47
997.3077	2708.6046	932.1	49.65
997.4299	2709.8331	929.35	47.95
997.552	2711.0609	927.9	48.6
997.6742	2712.2881	929.25	47.15
997.7963	2713.5145	931.2	48.25
997.9183	2714.7403	930.8	50.9
998.0403	2715.9654	930.4	49.2
998.1623	2717.1899	944.15	50.55
998.2842	2718.4136	931.3	51.4
998.4062	2719.6367	931.9	52.4
998.528	2720.8591	940.75	53.75
998.6498	2722.0809	936.2	55.65
998.7716	2723.3019	938.45	55.2
998.8934	2724.5223	937.8	55.15
999.0151	2725.7421	937.5	57.35
999.1368	2726.9611	938.8	55.85
999.2584	2728.1795	939.4	55.8
999.38	2729.3972	932.15	50.35
999.5016	2730.6142	935.55	51.05
999.6231	2731.8306	932.35	50.45
999.7446	2733.0462	930.9	48.95
999.8661	2734.2612	934.9	50.4
999.9875	2735.4756	930.8	48.4
1000.1089	2736.6892	929.95	50.2
1000.2302	2737.9022	923.85	45
1000.3515	2739.1145	924.35	41.7
1000.4728	2740.3262	932.15	44.85
1000.594	2741.5372	924.75	47.4
1000.7152	2742.7475	924.75	44.35
1000.8363	2743.9571	924.05	42.9
1000.9575	2745.1661	928.55	42.5
1001.0785	2746.3744	923.8	45.7
1001.1996	2747.582	921.35	41.2
1001.3206	2748.7889	922.65	40.2
1001.4415	2749.9952	922.95	42.65
1001.5625	2751.2008	919	36.6
1001.6833	2752.4057	922.6	40.85
1001.8042	2753.61	922.8	43.75
1001.925	2754.8136	923.7	40.85
1002.0458	2756.0165	918.65	40.05
1002.1665	2757.2188	917.2	38.45
1002.2872	2758.4204	921.95	43.05
1002.4078	2759.6213	923.1	40.45
1002.5285	2760.8215	920.9	34.85
1002.649	2762.0211	919.4	38
1002.7696	2763.22	924	42.25
1002.8901	2764.4182	919.6	39.45
1003.0106	2765.6158	920.65	39.95
1003.131	2766.8127	918.25	39.4
1003.2514	2768.009	915.85	38
1003.3717	2769.2045	920	37.5
1003.492	2770.3994	921.85	39.35
1003.6123	2771.5936	918.8	37.75
1003.7325	2772.7872	916.2	36.85
1003.8527	2773.9801	917.85	37.6
1003.9729	2775.1723	931.4	34.15
1004.093	2776.3639	914.65	35.25
1004.2131	2777.5548	916.9	33.4
1004.3331	2778.745	917.3	35.75
1004.4531	2779.9346	917.15	37.95
1004.5731	2781.1235	918.7	37.35
1004.693	2782.3117	917.05	38.5
1004.8129	2783.4992	916.75	40.15
1004.9328	2784.6861	920.4	39.85
1005.0526	2785.8723	919.25	39.3
1005.1723	2787.0579	917.5	37.55
1005.2921	2788.2428	914	32.5
1005.4118	2789.427	913.8	35.1
1005.5314	2790.6106	916.25	35.55
1005.651	2791.7935	917.2	37.75
1005.7706	2792.9757	914.95	35.8
1005.8902	2794.1573	919.25	37.7
1006.0097	2795.3382	918.6	41.15
1006.1291	2796.5184	916.35	39.1
1006.2485	2797.698	918.15	36.9
1006.3679	2798.8769	916.35	36.6
1006.4873	2800.0551	916.2	35.85
1006.6066	2801.2327	920.55	38.3
1006.7258	2802.4096	920.65	41.8
1006.8451	2803.5859	919.4	39.75
1006.9642	2804.7615	919.2	39.1
1007.0834	2805.9364	918.2	39.6
1007.2025	2807.1106	921.65	42.6
1007.3216	2808.2842	923	43
1007.4406	2809.4572	919.95	41.65
1007.5596	2810.6294	923.2	43.1
1007.6785	2811.801	923	44.7
1007.7975	2812.972	922.35	45.4
1007.9163	2814.1423	930.15	52.5
1008.0352	2815.3119	930.05	48.9
1008.154	2816.4808	933.15	55.9
1008.2727	2817.6491	936.55	57
1008.3914	2818.8167	936	57.8
1008.5101	2819.9837	947.65	62.75
1008.6288	2821.15	948.1	68.9
1008.7474	2822.3157	950.3	74.95
1008.8659	2823.4807	955.45	75.9
1008.9844	2824.645	962.2	80.25
1009.1029	2825.8086	966.8	86.05
1009.2214	2826.9716	979.2	100.1
1009.3398	2828.134	981.55	103.25
1009.4581	2829.2957	989.55	110.15
1009.5764	2830.4567	995.3	116.1
1009.6947	2831.617	997.05	116.85
1009.813	2832.7767	999.45	122.45
1009.9312	2833.9358	999.55	123.5
1010.0493	2835.0941	1002.45	121.1
1010.1675	2836.2519	999.65	121.6
1010.2855	2837.4089	994.1	113.75
1010.4036	2838.5653	992.75	114.8
1010.5216	2839.7211	984.75	107.7
1010.6396	2840.8761	987.05	105.5
1010.7575	2842.0306	983.15	106.15
1010.8754	2843.1843	983.35	104.05
1010.9932	2844.3374	982.4	103.2
1011.111	2845.4899	984.2	104.35
1011.2288	2846.6417	990.35	110.05
1011.3465	2847.7928	989	110.95
1011.4642	2848.9433	989.75	112.7
1011.5818	2850.0931	994.4	115.05
1011.6995	2851.2422	996.1	117.1
1011.817	2852.3907	991.15	111.45
1011.9345	2853.5385	995.2	114.9
1012.052	2854.6857	1018.25	110.35
1012.1695	2855.8323	996.55	118.8
1012.2869	2856.9781	998.25	118.55
1012.4042	2858.1233	1005.05	127.05
1012.5216	2859.2679	1005.35	127.95
1012.6389	2860.4118	1011.85	133.1
1012.7561	2861.555	1018.35	135.1
1012.8733	2862.6976	1015.5	134.95
1012.9905	2863.8395	1017.1	137.55
1013.1076	2864.9808	1017.2	137.55
1013.2247	2866.1214	1020.2	143.1
1013.3417	2867.2614	1020.7	142.8
1013.4587	2868.4007	1021.6	141.5
1013.5757	2869.5393	1024.65	144.5
1013.6926	2870.6773	1029.55	147.5
1013.8095	2871.8146	1031.95	149.45
1013.9263	2872.9513	1028.95	148.45
1014.0431	2874.0874	1028.55	148.45
1014.1599	2875.2227	1032.85	151.65
1014.2766	2876.3574	1034.85	156.85
1014.3933	2877.4915	1035.05	155.25
1014.51	2878.6249	1040.9	161.6
1014.6266	2879.7577	1040.85	158.85
1014.7431	2880.8898	1053.95	167.55
1014.8596	2882.0212	1039.8	161.8
1014.9761	2883.152	1045.9	166.6
1015.0925	2884.2821	1044.75	169.05
1015.2089	2885.4116	1044.25	166.4
1015.3253	2886.5405	1047.4	169.55
1015.4416	2887.6686	1052.25	169.25
1015.5579	2888.7962	1050.95	174.25
1015.6741	2889.923	1048.85	169.5
1015.7903	2891.0493	1050.6	174.1
1015.9065	2892.1748	1047.7	168.5
1016.0226	2893.2997	1047.9	169.8
1016.1387	2894.424	1046.05	167.95
1016.2547	2895.5476	1049.6	170.3
1016.3707	2896.6706	1053.9	175.6
1016.4866	2897.7929	1051.15	173.6
1016.6025	2898.9145	1049.3	172.55
1016.7184	2900.0355	1050.7	171.5
1016.8342	2901.1559	1052.4	174.8
1016.95	2902.2756	1054.3	169.5
1017.0658	2903.3946	1046.75	168.65
1017.1815	2904.513	1049.25	166.7
1017.2971	2905.6308	1048.9	171.55
1017.4127	2906.7479	1045.95	167.65
1017.5283	2907.8643	1049.1	169.9
1017.6439	2908.9801	1045.85	168.3
1017.7594	2910.0953	1049.6	171.45
1017.8748	2911.2098	1054.1	171.85
1017.9902	2912.3236	1059.75	175.4
1018.1056	2913.4368	1051.55	173.1
1018.2209	2914.5494	1044.05	162.15
1018.3362	2915.6613	1049.3	165.6
1018.4515	2916.7725	1042.6	159.45
1018.5667	2917.8831	1039.95	159.2
1018.6819	2918.9931	1038.75	157.65
1018.797	2920.1024	1035.6	154.75
1018.9121	2921.211	1031.85	152.85
1019.0271	2922.319	1029.35	151.3
1019.1421	2923.4264	1025.65	147.45
1019.2571	2924.5331	1027.45	150.2
1019.372	2925.6391	1028.2	150.6
1019.4869	2926.7445	1025.3	148.65
1019.6017	2927.8493	1034.3	154.8
1019.7165	2928.9534	1030.05	152.15
1019.8313	2930.0569	1030.05	148
1019.946	2931.1597	1034.75	154.85
1020.0606	2932.2619	1031.25	155.1
1020.1753	2933.3634	1033	154.2
1020.2899	2934.4643	1043.3	158
1020.4044	2935.5645	1045	160.2
1020.5189	2936.6641	1039.45	157.8
1020.6334	2937.763	1037.4	159.5
1020.7478	2938.8613	1036	157.5
1020.8622	2939.959	1040.9	159.4
1020.9765	2941.056	1031.05	154.75
1021.0908	2942.1523	1026.15	144.75
1021.2051	2943.248	1019.95	141.7
1021.3193	2944.3431	1013.5	134.3
1021.4334	2945.4375	1007.5	128.3
1021.5476	2946.5313	996.5	122.55
1021.6617	2947.6244	993.8	115.7
1021.7757	2948.7169	988.55	107.9
1021.8897	2949.8087	980.2	102.2
1022.0037	2950.8999	973.3	93.75
1022.1176	2951.9904	969.7	92.8
1022.2315	2953.0803	966.5	88
1022.3453	2954.1696	963.15	83.7
1022.4591	2955.2582	956.2	75.9
1022.5728	2956.3462	958.4	80.4
1022.6865	2957.4335	958.05	79.05
1022.8002	2958.5202	958.7	79.55
1022.9138	2959.6062	957.95	79.6
1023.0274	2960.6916	958.4	80.9
1023.141	2961.7764	954.4	74.5
1023.2545	2962.8605	957	80.05
1023.3679	2963.9439	956.15	78.85
1023.4813	2965.0267	954.8	75.65
1023.5947	2966.1089	973.1	72.4
1023.708	2967.1905	955.95	77.85
1023.8213	2968.2714	957.35	80.5
1023.9346	2969.3516	950.95	72.9
1024.0478	2970.4312	960.9	76.75
1024.1609	2971.5102	952.55	75.3
1024.274	2972.5885	952.65	72.95
1024.3871	2973.6662	960.55	75.5
1024.5002	2974.7432	952.7	76.1
1024.6132	2975.8196	950.65	70.5
1024.7261	2976.8954	950.65	73.85
1024.839	2977.9705	950.4	72.5
1024.9519	2979.045	952.95	75.05
1025.0647	2980.1188	951.7	74.1
1025.1775	2981.192	947.55	69.6
1025.2902	2982.2645	950.6	73.1
1025.4029	2983.3364	950.45	73.85
1025.5156	2984.4077	945.55	67.2
1025.6282	2985.4783	952.1	68.8
1025.7407	2986.5483	941.5	63.35
1025.8532	2987.6177	941.9	63.05
1025.9657	2988.6864	939.95	63.6
1026.0782	2989.7545	940.65	62.05
1026.1906	2990.8219	933.3	55.9
1026.3029	2991.8887	933.75	51.55
1026.4152	2992.9548	932.15	53.1
1026.5275	2994.0204	925.55	50.2
1026.6397	2995.0852	923.75	48.45
1026.7519	2996.1495	923.3	43.7
1026.864	2997.2131	919.05	41.95
1026.9761	2998.276	919.1	41.75
1027.0882	2999.3383	915.35	37.75
1027.2002	3000.4	915.8	35.6
1027.3122	3001.4611	913.25	33.95
1027.4241	3002.5215	910.85	32.5
1027.536	3003.5812	909.8	31.15
1027.6478	3004.6404	908.95	30.95
1027.7596	3005.6989	909.3	28.85
1027.8714	3006.7567	907.2	29.9
1027.9831	3007.8139	937.8	28.9
1028.0947	3008.8705	905.7	28.2
1028.2064	3009.9264	908.75	27.5
1028.3179	3010.9818	905.05	27.75
1028.4295	3012.0364	904.2	25.6
1028.541	3013.0905	902.45	24.6
1028.6524	3014.1439	902.6	27.15
1028.7638	3015.1966	902.55	26.1
1028.8752	3016.2487	904.7	26.5
1028.9865	3017.3002	906.85	26.5
1029.0978	3018.3511	901.5	25.95
1029.209	3019.4013	900.95	22.1
1029.3202	3020.4509	902.35	26.9
1029.4314	3021.4998	901.95	22.7
1029.5425	3022.5481	902.85	25.6
1029.6535	3023.5958	901.25	24.9
1029.7645	3024.6428	899.2	19.75
1029.8755	3025.6892	900.9	24.6
1029.9864	3026.735	901.9	24.05
1030.0973	3027.7802	901.5	23.45
1030.2082	3028.8247	900.1	23.75
1030.319	3029.8685	900.6	21.65
1030.4297	3030.9118	901.65	25.15
1030.5404	3031.9544	899.85	22.35
1030.6511	3032.9963	900	22.75
1030.7617	3034.0376	899.85	25.95
1030.8723	3035.0783	903.55	23.4
1030.9829	3036.1184	903.55	27.05
1031.0934	3037.1578	899.45	22
1031.2038	3038.1966	900.8	21.6
1031.3142	3039.2348	898.4	21.05
1031.4246	3040.2723	908.65	22.05
1031.5349	3041.3092	899.55	23.1
1031.6452	3042.3455	901.9	25.15
1031.7554	3043.3811	900.25	22.45
1031.8656	3044.4161	900.35	23
1031.9758	3045.4505	898.65	23.85
1032.0859	3046.4842	899.85	22.15
1032.1959	3047.5173	898.85	22.9
1032.3059	3048.5498	899.95	23.15
1032.4159	3049.5816	902.15	24.3
1032.5258	3050.6128	903	24.75
1032.6357	3051.6434	901.6	22.75
1032.7455	3052.6734	900.2	23.25
1032.8553	3053.7027	901.15	24.15
1032.9651	3054.7314	900.5	23.6
1033.0748	3055.7594	901.35	23.1
1033.1845	3056.7868	903.05	25.95
1033.2941	3057.8136	902.7	24.2
1033.4037	3058.8398	903.3	25.05
1033.5132	3059.8653	900.65	22.95
1033.6227	3060.8902	901	23.8
1033.7321	3061.9145	902.7	24.25
1033.8415	3062.9381	901.15	24.75
1033.9509	3063.9612	918.25	24
1034.0602	3064.9835	901	23.6
1034.1694	3066.0053	906.1	26.3
1034.2787	3067.0264	902.7	25.8
1034.3878	3068.0469	903.25	25
1034.497	3069.0668	904.65	23.7
1034.6061	3070.086	903.6	29
1034.7151	3071.1046	902.7	23.75
1034.8241	3072.1226	905.35	27.05
1034.9331	3073.1399	900.6	24.6
1035.042	3074.1567	901.05	23.85
1035.1508	3075.1727	901.4	19.45
1035.2597	3076.1882	898.8	20.5
1035.3684	3077.203	900.15	22.15
1035.4772	3078.2173	899.55	20.85
1035.5859	3079.2308	903.65	23.1
1035.6945	3080.2438	900.8	21.6
1035.8031	3081.2561	897.9	22
1035.9117	3082.2678	896.85	21.2
1036.0202	3083.2789	896.85	20.6
1036.1286	3084.2893	896.85	19.85
1036.2371	3085.2991	897.15	19.55
1036.3454	3086.3083	897.55	18.4
1036.4538	3087.3169	896.8	18.4
1036.562	3088.3248	897.05	19.05
1036.6703	3089.3321	899.4	20.35
1036.7785	3090.3388	894.85	18.85
1036.8866	3091.3449	892.85	16.75
1036.9948	3092.3503	894.6	14.05
1037.1028	3093.3551	894	17.1
1037.2108	3094.3593	894.05	18.85
1037.3188	3095.3629	890.9	12.9
1037.4267	3096.3658	893.75	15.55
1037.5346	3097.3681	893.9	17.3
1037.6425	3098.3698	895.15	16.55
1037.7503	3099.3708	893	16.5
1037.858	3100.3713	893.3	18
1037.9657	3101.3711	892.6	16.15
1038.0734	3102.3702	1030.9	15
1038.181	3103.3688	895	16.75
1038.2886	3104.3667	889.75	13.4
1038.3961	3105.364	891	15.5
1038.5036	3106.3607	890.85	12.1
1038.611	3107.3568	895	17.2
1038.7184	3108.3522	891.65	16.35
1038.8257	3109.347	892.75	13.35
1038.933	3110.3412	893.7	13.15
1039.0403	3111.3348	888.05	11.1
1039.1475	3112.3277	890.45	12.15
1039.2547	3113.32	888.65	13.65
1039.3618	3114.3117	890.4	11.65
1039.4689	3115.3028	890.1	13.75
1039.5759	3116.2932	890.45	10.4
1039.6829	3117.2831	896.75	14.65
1039.7898	3118.2723	889.75	14.55
1039.8967	3119.2608	889.1	10.8
1040.0035	3120.2488	888.7	11.95
1040.1103	3121.2361	889.3	11.3
1040.2171	3122.2229	888.65	12.25
1040.3238	3123.209	889.4	10.6
1040.4305	3124.1944	887.95	13.3
1040.5371	3125.1793	890.75	12.15
1040.6437	3126.1635	890.2	14.35
1040.7502	3127.1471	889.35	12.35
1040.8567	3128.1301	888.6	12.55
1040.9631	3129.1125	888.6	13.35
1041.0695	3130.0942	887.7	10.45
1041.1759	3131.0753	896.8	12
1041.2822	3132.0558	891.15	12.45
1041.3884	3133.0357	887.2	8.35
1041.4946	3134.015	889.2	12.5
1041.6008	3134.9936	889.25	12.65
1041.7069	3135.9716	905.2	10.6
1041.813	3136.949	886.95	11.65
1041.919	3137.9258	906.55	7.95
1042.025	3138.902	893.15	10.7
1042.1309	3139.8775	885.8	7.8
1042.2368	3140.8524	889.1	11.6
1042.3427	3141.8267	889.2	10.1
1042.4485	3142.8004	888.65	11.65
1042.5542	3143.7735	894.1	12.8
1042.6599	3144.7459	888.95	10.35
1042.7656	3145.7178	887.05	11.65
1042.8712	3146.689	885	7.8
1042.9768	3147.6596	888.9	11.05
1043.0823	3148.6295	886.85	10.65
1043.1878	3149.5989	887.2	12.25
1043.2932	3150.5676	884.35	6.9
1043.3986	3151.5357	884.4	9.05
1043.5039	3152.5032	886.85	11.95
1043.6092	3153.4701	885.75	9.85
1043.7145	3154.4364	886.05	7
1043.8197	3155.402	885.55	11.65
1043.9248	3156.367	887.65	9.1
1044.03	3157.3315	929.75	10.65
1044.135	3158.2952	885.8	8.9
1044.24	3159.2584	885.6	8.05
1044.345	3160.221	885.25	9.45
1044.4499	3161.1829	885.4	7.05
1044.5548	3162.1442	885.2	8.7
1044.6596	3163.105	885.25	9.2
1044.7644	3164.065	885.15	8.25
1044.8692	3165.0245	886.65	5.45
1044.9739	3165.9834	882.55	7.7
1045.0785	3166.9416	885.45	8.15
1045.1831	3167.8993	887.2	10.9
1045.2877	3168.8563	886.5	10.05
1045.3922	3169.8127	884.4	7.9
1045.4966	3170.7684	883.1	6.2
1045.6011	3171.7236	887.3	10.5
1045.7054	3172.6782	884.5	8.15
1045.8098	3173.6321	885.4	9.6
1045.914	3174.5854	887.55	5.8
1046.0183	3175.5381	884.4	9.6
1046.1224	3176.4902	884.5	7
1046.2266	3177.4417	885.7	9.4
1046.3307	3178.3926	885.05	9.05
1046.4347	3179.3428	883.8	7.1
1046.5387	3180.2924	884.3	8.7
1046.6427	3181.2415	884.1	8.95
1046.7466	3182.1899	884.55	6.2
1046.8504	3183.1377	883.5	6.45
1046.9542	3184.0848	887.95	8.05
1047.058	3185.0314	883.6	7.3
1047.1617	3185.9773	887.65	10.65
1047.2654	3186.9227	884.1	7.65
1047.369	3187.8674	884.05	7.4
1047.4726	3188.8115	890.55	8.85
1047.5761	3189.755	883	7.8
1047.6796	3190.6979	884.8	7.05
1047.783	3191.6402	882.75	6.25
1047.8864	3192.5818	881.85	4.4
1047.9898	3193.5229	897.2	8.6
1048.0931	3194.4633	884.15	10.85
1048.1963	3195.4031	884	5.8
1048.2995	3196.3423	883.05	6.45
1048.4027	3197.2809	882	4.45
1048.5058	3198.2189	886.05	8.8
1048.6089	3199.1563	889.15	6.95
1048.7119	3200.0931	883.25	6.85
1048.8148	3201.0292	883.15	6.15
1048.9178	3201.9648	884.7	7.65
1049.0206	3202.8997	884.55	4.05
1049.1235	3203.834	881.35	5.05
1049.2262	3204.7677	883.2	6.35
1049.329	3205.7008	885.05	5.75
1049.4317	3206.6333	880.25	4.45
1049.5343	3207.5652	886.9	7.9
1049.6369	3208.4964	883.85	6.75
1049.7394	3209.4271	882.3	5.7
1049.8419	3210.3571	882.05	4.7
1049.9444	3211.2865	883.95	6.8
1050.0468	3212.2154	883.55	6.15
1050.1491	3213.1436	885.95	7
1050.2514	3214.0712	888.1	6.25
1050.3537	3214.9982	882.7	5.35
1050.4559	3215.9246	881.8	3.5
1050.5581	3216.8503	881.9	5.2
1050.6602	3217.7755	883.5	4.85
1050.7623	3218.7001	885.6	9.75
1050.8643	3219.624	883.55	5.5
1050.9663	3220.5473	883.8	8.65
1051.0682	3221.4701	884.5	7.6
1051.1701	3222.3922	883.75	6
1051.2719	3223.3137	882.45	6.1
1051.3737	3224.2346	881.8	5.95
1051.4754	3225.1549	881.05	4.25
1051.5771	3226.0746	881.6	4.35
1051.6788	3226.9937	883.5	6.8
1051.7804	3227.9121	883.8	6.05
1051.8819	3228.83	880.85	4.35
1051.9834	3229.7473	881.9	6.7
1052.0849	3230.6639	882.35	5.9
1052.1863	3231.5799	880.6	5.4
1052.2876	3232.4954	882.55	5.45
1052.3889	3233.4102	883	6.95
1052.4902	3234.3244	881.35	3.75
1052.5914	3235.238	879.1	2.1
1052.6926	3236.151	907.05	8.3
1052.7937	3237.0634	880.55	5.7
1052.8948	3237.9752	880.8	4.55
1052.9958	3238.8864	880.9	3.2
1053.0968	3239.797	881.1	3.55
1053.1977	3240.7069	881.55	5.2
1053.2986	3241.6163	882.7	5.25
1053.3994	3242.5251	881.65	5.65
1053.5002	3243.4332	882.35	6.45
1053.6009	3244.3408	882.7	5.95
1053.7016	3245.2477	881.5	5.1
1053.8022	3246.154	882.8	5.7
1053.9028	3247.0598	881.95	4.4
1054.0034	3247.9649	879.9	4.95
1054.1039	3248.8694	880.45	4.15
1054.2043	3249.7733	881.5	6.65
1054.3047	3250.6766	882.5	8.1
1054.4051	3251.5793	883.1	4.6
1054.5054	3252.4814	883.1	6.35
1054.6056	3253.3829	880.95	4.5
1054.7058	3254.2838	878.4	2.25
1054.806	3255.1841	879.55	3.4
1054.9061	3256.0838	880.05	2.3
1055.0061	3256.9829	878.75	5.9
1055.1062	3257.8814	884.1	4.35
1055.2061	3258.7792	884.95	6.9
1055.306	3259.6765	880.15	2
1055.4059	3260.5731	881.2	6.95
1055.5057	3261.4692	883.95	7.35
1055.6055	3262.3647	882.05	5.1
1055.7052	3263.2595	880.25	3.7
1055.8049	3264.1538	878.3	2.2
1055.9045	3265.0474	880.55	2.4
1056.0041	3265.9404	880	5.25
1056.1036	3266.8329	880	1.4
1056.2031	3267.7247	891.15	5.3
1056.3025	3268.616	879.45	4.95
1056.4019	3269.5066	881.2	3.6
1056.5013	3270.3966	880.45	1.15
1056.6005	3271.286	877.6	1.1
