Software Version:	3.9.2.0
Unit SN:	10000200
Spectrometer SN:	6960
Date:	3/8/2024 11:13:23 AM
Data Line Index:	25
Spectral Points:	2048
Integration time (ms):	125
Averages:	20
Delay (ms):	30000
Sequence Number:	1
Processing:	dark subtract
Laser Power (mW):	300
Laser Current (mA):	821
Laser Diode Temp (C):	25
Laser Case Temp (C):	24.5
System Temp (C):	24.5
Spectrometer Temp (C):	22.5
CCD Temp (C):	0.002
Secondary Temp (C):	20.01
Heatsink Temp (C):	19.374
CCDPCB Temp (C):	32.027
SecondaryPCB Temp (C):	25.891

Wavelength	RamanShift	Raw Counts	Dark Subtracted
787.061	30.1047	425.7	16.2
787.2016	32.3739	424.6	17.1
787.3422	34.6426	425.7	16.15
787.4828	36.9109	429.8	18.2
787.6235	39.1787	436.8	21.3
787.7642	41.4461	440.45	22.4
787.9049	43.7131	445.35	22.5
788.0456	45.9796	449.85	24.55
788.1863	48.2456	453.9	23.1
788.3271	50.5112	461.1	27.9
788.4679	52.7764	466.85	31.45
788.6087	55.0411	473.1	33.3
788.7496	57.3054	481.15	35.6
788.8904	59.5692	484.8	38.5
789.0313	61.8326	489.35	40.2
789.1722	64.0955	499.3	46.7
789.3132	66.3579	504.5	48.3
789.4541	68.6199	515.85	57.05
789.5951	70.8815	534.45	68.65
789.7361	73.1426	572.35	104
789.8771	75.4032	654.7	181.4
790.0181	77.6634	864.6	388.6
790.1592	79.9231	1342.05	863.75
790.3003	82.1824	2324.9	1842.6
790.4414	84.4412	3950.6	3460.6
790.5825	86.6995	6107.7	5608.45
790.7237	88.9574	8112.2	7604.65
790.8648	91.2148	9504	8991.5
791.006	93.4717	10128.75	9611.2
791.1472	95.7282	10227.3	9704.65
791.2885	97.9842	10183.55	9660.7
791.4297	100.2398	10036.6	9512.65
791.571	102.4949	9866.05	9337.25
791.7123	104.7495	9701.6	9171.8
791.8536	107.0036	9545.05	9013.2
791.9949	109.2573	9365.35	8834.8
792.1363	111.5105	9115.4	8583.9
792.2777	113.7632	8829.6	8294.7
792.4191	116.0154	8542.35	7994.75
792.5605	118.2672	8227.2	7687.5
792.7019	120.5185	7840.2	7299.6
792.8434	122.7693	7505.75	6961.6
792.9849	125.0197	7201.05	6649.2
793.1264	127.2696	6935.1	6379.1
793.2679	129.519	6757.8	6201.9
793.4094	131.7679	6605.85	6049.3
793.551	134.0163	6537.85	5976.6
793.6926	136.2642	6488.6	5925
793.8342	138.5117	6469.55	5899.5
793.9758	140.7587	6395.85	5829.8
794.1175	143.0052	6296.15	5726.1
794.2591	145.2512	6134.5	5563.4
794.4008	147.4967	5943.15	5370.8
794.5425	149.7417	5782.3	5204.55
794.6842	151.9863	5664.9	5083
794.826	154.2304	5584.05	4996.65
794.9677	156.4739	5545.8	4956.35
795.1095	158.717	5587.75	4997.9
795.2513	160.9596	5682.65	5087.7
795.3931	163.2017	5783.4	5189.9
795.535	165.4433	5873.45	5273.5
795.6768	167.6844	5869.25	5267.85
795.8187	169.925	5782.55	5178.1
795.9606	172.1651	5610.4	5001.1
796.1025	174.4047	5438.95	4828.55
796.2445	176.6439	5282.35	4668.3
796.3864	178.8825	5173.1	4555.65
796.5284	181.1206	5109.2	4490.15
796.6704	183.3582	5053.35	4429.1
796.8124	185.5954	5046.85	4419.35
796.9544	187.832	5025.55	4395.3
797.0965	190.0681	5024.6	4391.45
797.2386	192.3037	5043.05	4406.55
797.3806	194.5388	5056.6	4418.25
797.5228	196.7734	5083.15	4445.15
797.6649	199.0075	5113.6	4470.3
797.807	201.2411	5185	4541.25
797.9492	203.4742	5244.75	4600.05
798.0914	205.7068	5339.65	4692.35
798.2336	207.9389	5414	4766
798.3758	210.1704	5476.7	4834.1
798.518	212.4015	5469.1	4834.9
798.6603	214.632	5483.9	4856.9
798.8025	216.862	5509.3	4883.15
798.9448	219.0915	5516.6	4889.4
799.0871	221.3205	5581.4	4948.5
799.2294	223.549	5612.65	4985.25
799.3718	225.777	5617.7	4990.55
799.5141	228.0044	5615.95	4979.1
799.6565	230.2314	5583.1	4949.05
799.7989	232.4578	5537.75	4897.7
799.9413	234.6837	5494.1	4846.35
800.0837	236.909	5446.1	4795.55
800.2262	239.1339	5412.6	4737.2
800.3687	241.3582	5380.75	4720.85
800.5111	243.582	5374.3	4683.5
800.6536	245.8053	5367.85	4688.95
800.7961	248.0281	5397.25	4723
800.9387	250.2503	5428.2	4753.1
801.0812	252.472	5452.7	4771.2
801.2238	254.6932	5464.15	4789
801.3664	256.9139	5474.3	4793.3
801.509	259.134	5515	4828.9
801.6516	261.3536	5569.9	4887.75
801.7942	263.5727	5685.75	5000.35
801.9369	265.7912	5839.25	5157.35
802.0795	268.0092	6045.05	5361.1
802.2222	270.2267	6253.8	5569.9
802.3649	272.4436	6427.25	5738.6
802.5076	274.6601	6564.85	5866.55
802.6504	276.8759	6645.9	5953.65
802.7931	279.0913	6720.95	6027.95
802.9359	281.3061	6798.95	6105.6
803.0787	283.5204	6863.2	6165.5
803.2215	285.7341	6943.3	6244.05
803.3643	287.9473	7042.4	6340.45
803.5071	290.16	7043.8	6340.25
803.6499	292.3721	6897.05	6199.25
803.7928	294.5837	6741.75	6039.85
803.9357	296.7947	6600	5901.9
804.0786	299.0052	6545.75	5844.6
804.2215	301.2152	6457.1	5754.1
804.3644	303.4246	6415.9	5714.75
804.5074	305.6334	6390.2	5689.1
804.6503	307.8418	6354.85	5648.65
804.7933	310.0495	6294.8	5586.15
804.9363	312.2568	6187.35	5480.85
805.0793	314.4635	6026.6	5317.15
805.2223	316.6696	5867.55	5155.2
805.3653	318.8752	5703.8	4980.5
805.5084	321.0802	5576.25	4862.15
805.6514	323.2847	5535.25	4820.15
805.7945	325.4887	5535.2	4819
805.9376	327.692	5614.6	4895.25
806.0807	329.8949	5756.85	5038.2
806.2238	332.0972	5928	5206.35
806.367	334.2989	6084.35	5357.7
806.5101	336.5001	6111.45	5386.2
806.6533	338.7007	6012.7	5287.8
806.7965	340.9008	5844.45	5117.8
806.9397	343.1003	5608.4	4879.35
807.0829	345.2992	5422.65	4691.95
807.2261	347.4976	5260.25	4530.75
807.3693	349.6955	5146.5	4410.45
807.5126	351.8927	5054.55	4319.1
807.6559	354.0895	4995.1	4247.9
807.7991	356.2856	4947.85	4209.2
807.9424	358.4812	4902.1	4164.05
808.0857	360.6763	4873.8	4133.65
808.2291	362.8707	4864.4	4121.95
808.3724	365.0646	4872.5	4126.05
808.5158	367.258	4884.35	4139.05
808.6591	369.4508	4932.15	4179.6
808.8025	371.643	5053.95	4304.65
808.9459	373.8346	5141.4	4390.3
809.0893	376.0257	5254.3	4497.6
809.2327	378.2162	5378.4	4623.15
809.3762	380.4062	5463.2	4707.7
809.5196	382.5956	5391.55	4640.05
809.6631	384.7844	5266	4517.85
809.8066	386.9726	5087.55	4341.35
809.9501	389.1603	4977.9	4232.45
810.0936	391.3474	4917.35	4124.95
810.2371	393.5339	4886.2	4139.05
810.3806	395.7199	4890.8	4146.25
810.5241	397.9052	5006.6	4260.1
810.6677	400.09	5159.2	4410.05
810.8113	402.2743	5333.6	4585.45
810.9548	404.4579	5473.95	4721.45
811.0984	406.641	5605.7	4853.5
811.2421	408.8235	5741.65	4984.75
811.3857	411.0054	5886.85	5128.4
811.5293	413.1868	5945.45	5185.95
811.673	415.3675	5937.1	5170.2
811.8166	417.5477	5913.4	5149.85
811.9603	419.7273	5830.8	5062.4
812.104	421.9064	5735.9	4961
812.2477	424.0848	5582.55	4813.95
812.3914	426.2627	5360.65	4592.4
812.5351	428.4399	5121.4	4350.45
812.6788	430.6166	4941.3	4166.5
812.8226	432.7928	4779.7	4003.25
812.9663	434.9683	4674.25	3898.85
813.1101	437.1432	4585.6	3807.95
813.2539	439.3176	4515.2	3739.2
813.3977	441.4914	4460.9	3683.95
813.5415	443.6645	4461.65	3685.1
813.6853	445.8371	4429.15	3653.1
813.8291	448.0091	4430.05	3654.2
813.973	450.1806	4417.95	3640.8
814.1168	452.3514	4429.8	3650.35
814.2607	454.5216	4446	3655
814.4046	456.6913	4438.6	3657.05
814.5485	458.8603	4470.3	3687.65
814.6924	461.0288	4484.4	3705.35
814.8363	463.1967	4478.4	3699.6
814.9802	465.3639	4483.25	3700.9
815.1241	467.5306	4471.5	3687.1
815.2681	469.6967	4421.45	3638.7
815.412	471.8622	4396.25	3612.35
815.556	474.0271	4412.3	3629.2
815.7	476.1914	4394.95	3608.65
815.844	478.3551	4382.1	3596.7
815.988	480.5182	4369.95	3584.15
816.132	482.6807	4377.3	3589.95
816.276	484.8426	4443.15	3658.65
816.4201	487.0039	4572.1	3783.3
816.5641	489.1647	4804.2	4013.2
816.7082	491.3248	4954.75	4164.75
816.8522	493.4843	5026	4236.5
816.9963	495.6432	4976.7	4187.15
817.1404	497.8015	4892.6	4098.05
817.2845	499.9592	4737.15	3945.4
817.4286	502.1163	4526.9	3733.85
817.5727	504.2728	4370.05	3572.45
817.7168	506.4287	4289.95	3496.75
817.861	508.5839	4220.15	3426.65
818.0051	510.7386	4198.7	3403.45
818.1493	512.8927	4202.3	3399.3
818.2935	515.0461	4234	3436.85
818.4377	517.199	4274.3	3476.35
818.5818	519.3512	4411.25	3613.35
818.726	521.5029	4673.15	3868.3
818.8703	523.6539	4916.45	4115.9
819.0145	525.8043	4980.35	4177.4
819.1587	527.9541	4817.15	4014.55
819.303	530.1033	4522.85	3720.45
819.4472	532.2519	4340.9	3539.25
819.5915	534.3999	4244.75	3439.9
819.7357	536.5472	4201.05	3396.9
819.88	538.694	4196.7	3392.2
820.0243	540.8401	4258.25	3451.15
820.1686	542.9856	4317.95	3508.45
820.3129	545.1305	4372.35	3563.9
820.4572	547.2748	4425.75	3616.15
820.6016	549.4185	4448.45	3638.7
820.7459	551.5615	4473.95	3663.25
820.8902	553.704	4537.2	3725.1
821.0346	555.8458	4597.85	3790.1
821.1789	557.987	4673.5	3866.95
821.3233	560.1276	4793.65	3987.9
821.4677	562.2675	5017.8	4212.05
821.6121	564.4069	5320.3	4511.9
821.7565	566.5456	5494.55	4690.2
821.9009	568.6837	5424.95	4616.3
822.0453	570.8212	5085.45	4277.35
822.1897	572.958	4730	3919.75
822.3342	575.0942	4463.4	3654.9
822.4786	577.2299	4319.85	3508.25
822.6231	579.3648	4232.6	3423.25
822.7675	581.4992	4232.6	3423.4
822.912	583.6329	4273.8	3461.65
823.0565	585.766	4379.9	3569.2
823.201	587.8985	4547.4	3735.45
823.3454	590.0304	4752.4	3928.6
823.4899	592.1616	4883.3	4064.45
823.6345	594.2922	4941.25	4124
823.779	596.4222	4840.15	4023.85
823.9235	598.5515	4623.45	3806.5
824.068	600.6802	4415.1	3597.7
824.2126	602.8083	4213.65	3397.4
824.3571	604.9358	4149.15	3328.1
824.5017	607.0626	4122.6	3302.75
824.6462	609.1888	4154.75	3335.4
824.7908	611.3144	4223.15	3403.45
824.9354	613.4393	4353	3532.6
825.08	615.5636	4556.8	3734.8
825.2246	617.6873	4776.45	3953.65
825.3692	619.8103	4912.25	4089
825.5138	621.9327	4923.15	4097
825.6584	624.0544	4818.15	3996.4
825.803	626.1756	4581.15	3760.65
825.9477	628.2961	4350.25	3527.75
826.0923	630.4159	4254.05	3430.05
826.237	632.5351	4235.8	3411.1
826.3816	634.6537	4193.75	3368.05
826.5263	636.7716	4156.15	3327.5
826.6709	638.8889	4152.45	3323.85
826.8156	641.0056	4173.05	3346.35
826.9603	643.1216	4237.95	3411.15
827.105	645.237	4262.15	3432.9
827.2497	647.3518	4209.2	3382.3
827.3944	649.4659	4094.85	3268.5
827.5391	651.5793	4004.2	3177.75
827.6838	653.6922	3964.55	3136.85
827.8285	655.8043	3907.9	3081
827.9733	657.9159	3870.1	3041.7
828.118	660.0268	3832.4	3000.9
828.2627	662.137	3836.85	3006.75
828.4075	664.2466	3821.65	2988.9
828.5522	666.3556	3835.5	3004.4
828.697	668.4639	3816.8	2984
828.8418	670.5716	3787.9	2959.25
828.9865	672.6786	3765.55	2933.45
829.1313	674.785	3728	2895.1
829.2761	676.8907	3709.15	2874.7
829.4209	678.9958	3731.75	2900.15
829.5657	681.1002	3728.45	2893.7
829.7105	683.204	3728.6	2889.35
829.8553	685.3072	3734.05	2898.1
830.0001	687.4097	3719.35	2883.3
830.1449	689.5115	3711.15	2873.2
830.2898	691.6127	3717.25	2883.95
830.4346	693.7132	3698.1	2861.65
830.5794	695.8131	3708.95	2861.25
830.7243	697.9123	3706.55	2868
830.8691	700.0109	3719.75	2881.7
831.014	702.1089	3747.2	2912.65
831.1588	704.2061	3799.9	2962.25
831.3037	706.3028	3901.4	3061.5
831.4486	708.3987	3985.65	3147.7
831.5935	710.4941	4047.85	3208.55
831.7383	712.5887	4091.4	3251.65
831.8832	714.6827	4067.45	3225.8
832.0281	716.7761	4025.55	3185.3
832.173	718.8688	4007.15	3167.3
832.3179	720.9608	4001.65	3157.8
832.4628	723.0522	4011.2	3165.75
832.6077	725.1429	4098.2	3254.6
832.7527	727.233	4215.9	3372.55
832.8976	729.3224	4455.3	3611.1
833.0425	731.4112	4653.5	3808.75
833.1874	733.4993	4765.9	3921.65
833.3324	735.5867	4591.35	3746.7
833.4773	737.6735	4315.6	3471
833.6222	739.7596	4062.25	3215.85
833.7672	741.845	3901.45	3057.7
833.9122	743.9298	3821.6	2975.45
834.0571	746.014	3799.6	2954.75
834.2021	748.0974	3793.45	2946.8
834.347	750.1802	3805.6	2961.3
834.492	752.2624	3789.9	2944.6
834.637	754.3439	3798.85	2951
834.782	756.4247	3825.75	2970.5
834.9269	758.5048	3865.95	3018.15
835.0719	760.5843	3951.9	3105.7
835.2169	762.6631	4081.25	3233.9
835.3619	764.7413	4275.5	3428.3
835.5069	766.8188	4598.25	3747.9
835.6519	768.8956	4937.2	4086.8
835.7969	770.9718	5179.95	4330.75
835.9419	773.0473	5154.45	4305.65
836.0869	775.1221	5002.8	4154.85
836.232	777.1962	4941.4	4092.65
836.377	779.2697	5155.4	4305.7
836.522	781.3426	5569.35	4703.3
836.667	783.4147	5864.7	5012.95
836.8121	785.4862	5905.4	5058
836.9571	787.557	5604.15	4754.6
837.1021	789.6271	5119	4269.4
837.2472	791.6966	4621.6	3769.9
837.3922	793.7654	4220.35	3367.95
837.5373	795.8335	3967.2	3117.75
837.6823	797.901	3841.75	2992.05
837.8274	799.9678	3794.25	2941.25
837.9724	802.0339	3785.8	2934.6
838.1175	804.0993	3819.7	2958.05
838.2626	806.1641	3810.75	2956.5
838.4076	808.2282	3754.65	2901.6
838.5527	810.2916	3692.1	2834.5
838.6978	812.3544	3639.15	2788.85
838.8428	814.4164	3592.75	2743.3
838.9879	816.4778	3611.25	2757.45
839.133	818.5385	3666.9	2812.1
839.2781	820.5986	3787.85	2935.45
839.4232	822.658	3974.05	3118.1
839.5682	824.7166	4224.6	3370.8
839.7133	826.7747	4546.1	3691.95
839.8584	828.832	4842.9	3988.65
840.0035	830.8886	5086.05	4230.15
840.1486	832.9446	5218.15	4360.65
840.2937	834.9999	5145.5	4292.35
840.4388	837.0545	4910.45	4050.4
840.5839	839.1085	4563.3	3708.2
840.729	841.1618	4254.4	3395.95
840.8741	843.2143	4025.8	3169.15
841.0192	845.2662	3897.45	3043.5
841.1643	847.3175	3809.7	2953.35
841.3095	849.368	3781.8	2927.65
841.4546	851.4179	3758.95	2904.4
841.5997	853.467	3754.3	2896.6
841.7448	855.5155	3781.75	2924.6
841.8899	857.5633	3812.85	2957.75
842.0351	859.6105	3801.15	2943.8
842.1802	861.6569	3747.6	2889.05
842.3253	863.7027	3687.5	2829.75
842.4704	865.7478	3662.9	2805.5
842.6156	867.7922	3597.35	2738.25
842.7607	869.8359	3564.1	2704.95
842.9058	871.8789	3555.15	2694.7
843.0509	873.9212	3575.45	2684.8
843.1961	875.9629	3559.9	2703.8
843.3412	878.0039	3609.8	2752.45
843.4863	880.0441	3654.3	2795.6
843.6315	882.0837	3719.5	2858.75
843.7766	884.1226	3804.65	2944.05
843.9218	886.1609	3937.35	3077.45
844.0669	888.1984	4130.15	3267.95
844.212	890.2352	4329.8	3470.1
844.3572	892.2714	4411	3546.55
844.5023	894.3069	4310.1	3446.45
844.6475	896.3416	4113	3250.55
844.7926	898.3757	3914.15	3053.6
844.9377	900.4091	3817.35	2953.4
845.0829	902.4418	3830.85	2965.2
845.228	904.4739	3901.9	3036.95
845.3732	906.5052	4001.65	3139.3
845.5183	908.5358	4014.25	3151.9
845.6635	910.5658	3944.35	3081.35
845.8086	912.595	3814.8	2951.25
845.9538	914.6236	3670.5	2806.15
846.0989	916.6515	3554.15	2690.4
846.2441	918.6786	3479.85	2617.45
846.3892	920.7051	3448.15	2585.2
846.5344	922.7309	3443.3	2582.2
846.6795	924.756	3445.25	2581.75
846.8246	926.7804	3477.25	2609.35
846.9698	928.8041	3521.55	2656.6
847.1149	930.8272	3590.35	2729.55
847.2601	932.8495	3641.1	2774.5
847.4052	934.8711	3647.05	2781.8
847.5504	936.892	3681	2816.85
847.6955	938.9123	3764.5	2895.25
847.8407	940.9318	3865.15	3001.25
847.9858	942.9506	3948.8	3084.85
848.131	944.9688	3928.7	3065
848.2761	946.9862	3852	2987.85
848.4213	949.003	3718.9	2852.75
848.5664	951.019	3630.8	2766.15
848.7115	953.0344	3570.85	2703.55
848.8567	955.0491	3500.8	2635
849.0018	957.063	3462.35	2597.6
849.147	959.0763	3448.7	2583.05
849.2921	961.0888	3454.15	2585.25
849.4373	963.1007	3450.3	2585
849.5824	965.1119	3420.2	2555
849.7275	967.1223	3380.55	2516.4
849.8727	969.1321	3355.5	2490.55
850.0178	971.1412	3344.1	2480.5
850.1629	973.1495	3344.55	2479.2
850.3081	975.1572	3360.85	2454.15
850.4532	977.1641	3346.05	2479.45
850.5983	979.1704	3355.1	2487.3
850.7435	981.1759	3340.7	2471.05
850.8886	983.1808	3331.6	2462.1
851.0337	985.1849	3290.45	2411.9
851.1788	987.1884	3280.05	2408.7
851.324	989.1911	3298.35	2427.55
851.4691	991.1932	3337.65	2464.35
851.6142	993.1945	3342.6	2474.95
851.7593	995.1951	3345.5	2473.7
851.9045	997.1951	3344.1	2469.15
852.0496	999.1943	3322.6	2456.85
852.1947	1001.1928	3331.2	2460.05
852.3398	1003.1906	3372.25	2502.95
852.4849	1005.1877	3470.55	2599.35
852.63	1007.1841	3557.35	2685.95
852.7751	1009.1798	3623.25	2754.5
852.9202	1011.1748	3623.85	2755.8
853.0653	1013.1691	3524.15	2654.6
853.2104	1015.1627	3395.55	2526.05
853.3555	1017.1556	3289.25	2420.6
853.5006	1019.1477	3220.8	2351.5
853.6457	1021.1392	3157.1	2289.8
853.7908	1023.1299	3129.25	2258.55
853.9359	1025.12	3128.55	2257.8
854.081	1027.1093	3159.55	2293
854.2261	1029.0979	3220.65	2355.25
854.3712	1031.0859	3320.15	2452.15
854.5163	1033.0731	3373.75	2504.5
854.6613	1035.0596	3393.5	2525.7
854.8064	1037.0454	3367.2	2497.45
854.9515	1039.0304	3319.05	2448.1
855.0965	1041.0148	3252.5	2382.4
855.2416	1042.9985	3174.6	2300.15
855.3867	1044.9814	3109.55	2241.15
855.5317	1046.9636	3093.8	2220.35
855.6768	1048.9452	3111	2241.85
855.8219	1050.926	3181.75	2313.85
855.9669	1052.9061	3244.35	2374.55
856.112	1054.8855	3300.9	2428.9
856.257	1056.8642	3308.5	2437.15
856.4021	1058.8421	3288.55	2411.8
856.5471	1060.8194	3272.7	2400.1
856.6921	1062.7959	3274.85	2405.1
856.8372	1064.7717	3257.8	2383.95
856.9822	1066.7469	3254.85	2383.15
857.1272	1068.7213	3261.15	2387.95
857.2723	1070.695	3317.35	2445.65
857.4173	1072.6679	3398.5	2524.4
857.5623	1074.6402	3515.5	2643.3
857.7073	1076.6117	3574.35	2696.1
857.8523	1078.5826	3506.15	2635.35
857.9973	1080.5527	3376.9	2500.4
858.1423	1082.5221	3221.55	2348.6
858.2873	1084.4908	3118.3	2245.25
858.4323	1086.4587	3048.1	2174.25
858.5773	1088.426	3013.65	2138.85
858.7223	1090.3925	3013.95	2136.15
858.8673	1092.3584	3031.9	2160.75
859.0123	1094.3235	3069.95	2198.05
859.1573	1096.2879	3126.4	2253
859.3022	1098.2515	3190.05	2317.45
859.4472	1100.2145	3302.15	2428.95
859.5922	1102.1767	3431.4	2557.15
859.7371	1104.1382	3589.75	2718.6
859.8821	1106.099	3791.05	2913.1
860.027	1108.0591	3994.7	3119.45
860.172	1110.0185	4151.15	3274.55
860.3169	1111.9771	4289.65	3417.45
860.4619	1113.9351	4484.8	3610.5
860.6068	1115.8923	4732	3855.75
860.7517	1117.8488	4930.35	4054.95
860.8967	1119.8045	4834.4	3959.05
861.0416	1121.7596	4460.65	3586.7
861.1865	1123.7139	4023.3	3149.95
861.3314	1125.6675	3771.3	2896.55
861.4763	1127.6204	3717.85	2842.9
861.6212	1129.5726	3794.45	2918
861.7661	1131.524	3827.5	2955.05
861.911	1133.4748	3679.8	2803.35
862.0559	1135.4248	3470.15	2594.8
862.2008	1137.3741	3267.45	2391.8
862.3457	1139.3226	3145.8	2268.8
862.4905	1141.2705	3132.35	2257.85
862.6354	1143.2176	3146.4	2265.7
862.7803	1145.164	3224.65	2348.15
862.9251	1147.1097	3226.1	2348.9
863.07	1149.0546	3177.05	2300.15
863.2148	1150.9989	3065.5	2188.95
863.3597	1152.9424	2986.05	2109.8
863.5045	1154.8852	2916.95	2040.35
863.6493	1156.8272	2894	2018.5
863.7942	1158.7686	2882.85	1999.9
863.939	1160.7092	2886.75	2009.6
864.0838	1162.6491	2898.85	2020.05
864.2286	1164.5883	2945.7	2069.95
864.3734	1166.5267	3008.8	2132.05
864.5182	1168.4644	3096.25	2218.4
864.663	1170.4014	3195.4	2317.95
864.8078	1172.3377	3327.35	2452.5
864.9526	1174.2732	3516.4	2641.55
865.0974	1176.2081	3816.3	2939.75
865.2421	1178.1421	4265.5	3386.05
865.3869	1180.0755	4798.3	3923.9
865.5317	1182.0082	5143	4268.3
865.6764	1183.9401	5180.15	4301.95
865.8212	1185.8713	4864.05	3991.4
865.9659	1187.8017	4378.45	3502.55
866.1106	1189.7315	3904.6	3030.65
866.2554	1191.6605	3575.15	2671.95
866.4001	1193.5888	3361.9	2486.6
866.5448	1195.5163	3229.3	2353.7
866.6895	1197.4432	3136.9	2260.6
866.8342	1199.3693	3064.4	2188.25
866.9789	1201.2947	3025.25	2141.75
867.1236	1203.2193	2983.7	2105.45
867.2683	1205.1432	2957.45	2079.15
867.413	1207.0664	2960.15	2083.4
867.5576	1208.9889	2959.5	2080.5
867.7023	1210.9106	2974.25	2097.3
867.847	1212.8316	2973.65	2097.95
867.9916	1214.7519	3022.7	2134.75
868.1363	1216.6715	3052	2177
868.2809	1218.5903	3097.95	2220.85
868.4255	1220.5084	3151	2275.35
868.5701	1222.4257	3212.45	2335.95
868.7148	1224.3424	3237.9	2362.25
868.8594	1226.2583	3311.3	2430.3
869.004	1228.1735	3401.8	2523.3
869.1486	1230.0879	3545.3	2665.4
869.2932	1232.0016	3703.4	2825.9
869.4377	1233.9146	3838.8	2958.7
869.5823	1235.8269	3905.65	3028.25
869.7269	1237.7384	3936.6	3058.85
869.8715	1239.6492	3908.75	3032.25
870.016	1241.5592	3953.25	3074.15
870.1606	1243.4686	4105.45	3228.5
870.3051	1245.3772	4365	3489.4
870.4496	1247.285	4689.2	3809.8
870.5941	1249.1922	5006.65	4129.35
870.7387	1251.0986	5311.15	4431.95
870.8832	1253.0042	5560.75	4681.3
871.0277	1254.9092	5881.85	5002.9
871.1722	1256.8134	6229.6	5353.5
871.3167	1258.7169	6651.7	5773.45
871.4611	1260.6196	6967.65	6088.05
871.6056	1262.5216	7150.25	6268.4
871.7501	1264.4229	7178.25	6300.9
871.8945	1266.3234	7055.7	6175.65
872.039	1268.2232	6835.8	5954.15
872.1834	1270.1223	6610.6	5730.95
872.3278	1272.0207	6427.55	5546.55
872.4723	1273.9183	6335.65	5450.75
872.6167	1275.8151	6318	5438.2
872.7611	1277.7113	6409.3	5529.3
872.9055	1279.6067	6711.5	5832.2
873.0499	1281.5014	7224.6	6342.85
873.1943	1283.3953	7972.85	7093.9
873.3386	1285.2885	8786.8	7907.85
873.483	1287.181	9481.65	8602.7
873.6274	1289.0727	9826.65	8949.45
873.7717	1290.9637	9661.45	8781.3
873.9161	1292.854	9240.5	8362
874.0604	1294.7435	8608.25	7728.85
874.2047	1296.6323	8099.2	7219.7
874.349	1298.5204	7624.9	6742.85
874.4933	1300.4077	7265.05	6384.65
874.6376	1302.2943	7019.3	6139.25
874.7819	1304.1802	6846.35	5966.15
874.9262	1306.0653	6712.6	5830.5
875.0705	1307.9497	6563.35	5684.95
875.2147	1309.8333	6468.25	5590.5
875.359	1311.7162	6357.75	5478.95
875.5032	1313.5984	6266.9	5383.7
875.6475	1315.4798	6191.8	5300.65
875.7917	1317.3605	6216.7	5321.75
875.9359	1319.2405	6269.25	5388.05
876.0801	1321.1197	6282.4	5398.65
876.2243	1322.9982	6182.15	5298.85
876.3685	1324.876	5969.6	5092.3
876.5127	1326.753	5649.45	4770.05
876.6569	1328.6293	5298.5	4416.45
876.801	1330.5048	4915.8	4033.35
876.9452	1332.3796	4544.85	3664.65
877.0893	1334.2537	4276.95	3371.45
877.2335	1336.127	4048.15	3165.85
877.3776	1337.9996	3924.3	3042.85
877.5217	1339.8714	3821.6	2941.15
877.6658	1341.7426	3777.2	2853.4
877.8099	1343.6129	3691.1	2810.45
877.954	1345.4826	3600.1	2720
878.0981	1347.3515	3548.75	2666.1
878.2422	1349.2196	3490.6	2608.45
878.3862	1351.087	3448.1	2565.7
878.5303	1352.9537	3429.35	2547.1
878.6743	1354.8197	3431.2	2550.9
878.8184	1356.6849	3467.55	2586.25
878.9624	1358.5493	3519.4	2638.9
879.1064	1360.4131	3607.4	2729.3
879.2504	1362.276	3749.65	2868.2
879.3944	1364.1383	3897.6	3018.75
879.5384	1365.9998	3967.65	3081.15
879.6823	1367.8606	3963.8	3082.3
879.8263	1369.7206	3918.9	3036.15
879.9702	1371.5799	3944.7	3061.05
880.1142	1373.4384	3932.9	3052.25
880.2581	1375.2962	3836.5	2953.55
880.402	1377.1533	3636.4	2755.6
880.5459	1379.0096	3465.55	2584.7
880.6898	1380.8652	3333.35	2450.9
880.8337	1382.7201	3220.2	2340.55
880.9776	1384.5742	3117.45	2238.2
881.1215	1386.4275	3020.85	2137.55
881.2653	1388.2802	2942.55	2063.65
881.4092	1390.132	2891.05	2010.1
881.553	1391.9832	2875.9	1993.15
881.6968	1393.8336	2848.4	1965.2
881.8406	1395.6832	2832.2	1947.6
881.9844	1397.5322	2792.3	1913.7
882.1282	1399.3803	2767.7	1883.6
882.272	1401.2278	2727.8	1846.6
882.4158	1403.0745	2700.05	1817.5
882.5595	1404.9204	2675.45	1795.3
882.7033	1406.7656	2659	1776.25
882.847	1408.6101	2639.65	1757.75
882.9908	1410.4538	2625.9	1744.05
883.1345	1412.2968	2624.65	1742.1
883.2782	1414.139	2631.25	1750.8
883.4219	1415.9805	2665.95	1784.9
883.5656	1417.8213	2706.2	1817.05
883.7092	1419.6613	2771.7	1890.55
883.8529	1421.5006	2870.6	1987.45
883.9965	1423.3391	3023.05	2139.3
884.1402	1425.1769	3230.45	2346.1
884.2838	1427.0139	3520.75	2639
884.4274	1428.8502	3864.95	2983.05
884.571	1430.6858	4147.3	3264.4
884.7146	1432.5206	4274.55	3394.45
884.8582	1434.3547	4282.9	3399.7
885.0018	1436.188	4226.4	3345.35
885.1453	1438.0206	4152.35	3270.25
885.2889	1439.8524	4102.9	3220.95
885.4324	1441.6835	4082.55	3199.3
885.5759	1443.5139	4110.5	3226.35
885.7194	1445.3435	4122.9	3241.5
885.8629	1447.1724	4139.05	3257.4
886.0064	1449.0005	4113.95	3232.7
886.1499	1450.8279	4096.15	3212.65
886.2933	1452.6545	4078.3	3196.95
886.4368	1454.4804	4067.4	3186.45
886.5802	1456.3056	4040.6	3152.1
886.7237	1458.13	3973.1	3092.05
886.8671	1459.9536	3866	2982.3
887.0105	1461.7766	3726.15	2843.35
887.1539	1463.5987	3609.3	2724.5
887.2972	1465.4202	3447.1	2563.65
887.4406	1467.2409	3287.3	2404.15
887.584	1469.0608	3157.25	2276.4
887.7273	1470.88	3037.35	2154.2
887.8706	1472.6984	2918.5	2036.9
888.0139	1474.5161	2830.8	1946.75
888.1572	1476.3331	2766.55	1884.35
888.3005	1478.1493	2720.5	1838.1
888.4438	1479.9648	2702.3	1820.8
888.5871	1481.7795	2686.85	1806.9
888.7303	1483.5935	2692.1	1810.45
888.8736	1485.4067	2711.2	1829.05
889.0168	1487.2192	2723.4	1841
889.16	1489.031	2729.2	1847.95
889.3032	1490.842	2718.7	1837.9
889.4464	1492.6522	2719.1	1838.65
889.5896	1494.4618	2714.9	1832.75
889.7327	1496.2705	2697.8	1815.35
889.8759	1498.0785	2684.15	1801.7
890.019	1499.8858	2677.15	1792.4
890.1622	1501.6924	2649.2	1767.55
890.3053	1503.4981	2629.55	1747.65
890.4484	1505.3032	2615.6	1733.6
890.5914	1507.1075	2587.5	1705.3
890.7345	1508.911	2571.1	1689.3
890.8776	1510.7138	2552.9	1668.25
891.0206	1512.5159	2527.5	1644.65
891.1637	1514.3172	2507.5	1625.8
891.3067	1516.1178	2481.6	1600.85
891.4497	1517.9176	2456.45	1573.8
891.5927	1519.7166	2437.65	1557
891.7357	1521.515	2418.4	1529.5
891.8786	1523.3126	2408.3	1525.8
892.0216	1525.1094	2398.35	1513.05
892.1645	1526.9055	2373.4	1491.85
892.3074	1528.7008	2362.5	1478.35
892.4503	1530.4954	2344.1	1454.7
892.5932	1532.2893	2346.85	1464.3
892.7361	1534.0824	2337.95	1452.4
892.879	1535.8747	2317.25	1435.9
893.0218	1537.6663	2329.95	1445.05
893.1647	1539.4572	2331.05	1445.45
893.3075	1541.2473	2332.8	1451.5
893.4503	1543.0367	2347.4	1463.05
893.5931	1544.8253	2339.2	1451.65
893.7359	1546.6132	2371.9	1487.55
893.8787	1548.4003	2381	1489.55
894.0214	1550.1867	2416.2	1526.85
894.1642	1551.9723	2432.55	1545.25
894.3069	1553.7572	2502.4	1619.5
894.4496	1555.5414	2559.9	1677.45
894.5923	1557.3247	2669.6	1785.9
894.735	1559.1074	2797.25	1915.15
894.8777	1560.8893	2960.75	2078.2
895.0204	1562.6705	3124.65	2240.35
895.163	1564.4509	3250.2	2368.25
895.3056	1566.2305	3319.85	2439.35
895.4482	1568.0094	3351	2470.25
895.5908	1569.7876	3336.45	2456.25
895.7334	1571.565	3328	2445.75
895.876	1573.3417	3336	2454.75
896.0186	1575.1176	3361.05	2480.55
896.1611	1576.8928	3427.35	2545.55
896.3036	1578.6672	3510	2630.65
896.4461	1580.4409	3638.25	2759.2
896.5886	1582.2138	3793.7	2909.7
896.7311	1583.986	3953.35	3071.7
896.8736	1585.7575	4135.95	3254.6
897.0161	1587.5282	4280.25	3397.05
897.1585	1589.2981	4422.35	3542.9
897.3009	1591.0673	4501.5	3619.2
897.4433	1592.8358	4540.5	3658.15
897.5857	1594.6035	4530.75	3647.2
897.7281	1596.3704	4487.05	3605.35
897.8705	1598.1366	4395.3	3513.85
898.0128	1599.9021	4297.8	3416.15
898.1551	1601.6668	4172.95	3288.95
898.2975	1603.4308	4087.65	3205.2
898.4398	1605.194	4081.45	3196.55
898.5821	1606.9564	4146.05	3266.5
898.7243	1608.7182	4351.85	3467.45
898.8666	1610.4791	4673.65	3794.85
899.0088	1612.2394	5102.1	4221.9
899.1511	1613.9988	5575.45	4695.15
899.2933	1615.7576	5966.75	5086.75
899.4355	1617.5156	6199.95	5313
899.5776	1619.2728	6170.55	5289.6
899.7198	1621.0293	5875.3	4995.2
899.862	1622.785	5427.75	4543.55
900.0041	1624.54	4899	4014
900.1462	1626.2942	4402.75	3521.4
900.2883	1628.0477	3932.2	3048.2
900.4304	1629.8005	3567.2	2682.35
900.5725	1631.5525	3250	2368.35
900.7145	1633.3037	3016.8	2136.95
900.8566	1635.0542	2846.4	1966.1
900.9986	1636.804	2692.7	1811.9
901.1406	1638.553	2637.6	1697
901.2826	1640.3013	2499.4	1620.85
901.4245	1642.0488	2420.85	1541.1
901.5665	1643.7955	2363.9	1484.85
901.7085	1645.5416	2317.7	1437.1
901.8504	1647.2868	2269.55	1388.15
901.9923	1649.0313	2231.2	1348.55
902.1342	1650.7751	2215.7	1329.95
902.2761	1652.5181	2206.35	1325.65
902.4179	1654.2604	2196.4	1315.6
902.5598	1656.0019	2210.5	1328.85
902.7016	1657.7427	2270.6	1390
902.8434	1659.4828	2336.1	1454.95
902.9852	1661.222	2445.35	1562.35
903.127	1662.9606	2599.3	1718.85
903.2687	1664.6984	2755.7	1873.2
903.4105	1666.4354	2855.9	1973
903.5522	1668.1717	2826.5	1943.55
903.6939	1669.9072	2691.7	1811.55
903.8356	1671.642	2490.9	1607
903.9773	1673.3761	2299.85	1420.2
904.119	1675.1094	2160.5	1278.5
904.2606	1676.8419	2061.95	1178.9
904.4022	1678.5737	1999.75	1120.15
904.5439	1680.3048	1952.05	1070.75
904.6855	1682.0351	1908.35	1026.4
904.827	1683.7646	1885.1	999.5
904.9686	1685.4934	1863.1	982.45
905.1101	1687.2215	1852.45	969
905.2517	1688.9488	1841.4	960.95
905.3932	1690.6754	1826.95	944.95
905.5347	1692.4012	1815.1	932.85
905.6761	1694.1263	1805.55	922.85
905.8176	1695.8506	1791.65	910
905.9591	1697.5742	1782.65	901.5
906.1005	1699.297	1770.55	888.1
906.2419	1701.0191	1766.5	885.35
906.3833	1702.7404	1754.1	873.3
906.5246	1704.461	1751.3	868.3
906.666	1706.1808	1738.05	857.35
906.8073	1707.8999	1728.35	845.2
906.9487	1709.6182	1726.8	846.95
907.09	1711.3358	1726.45	844.95
907.2313	1713.0527	1716.8	836.7
907.3725	1714.7688	1720.2	834.2
907.5138	1716.4841	1707.05	822.95
907.655	1718.1987	1709.5	821.75
907.7962	1719.9126	1698	819.05
907.9374	1721.6257	1695.35	811.95
908.0786	1723.338	1687.65	806.8
908.2198	1725.0496	1684.8	801.85
908.3609	1726.7605	1688.75	807.35
908.502	1728.4706	1671.4	789.05
908.6431	1730.18	1665.2	782.15
908.7842	1731.8886	1668.05	788.05
908.9253	1733.5964	1686.9	785.65
909.0664	1735.3036	1668.2	783.45
909.2074	1737.0099	1663.8	782.25
909.3484	1738.7156	1653	772.35
909.4894	1740.4204	1655.1	771.85
909.6304	1742.1246	1645.8	764.1
909.7714	1743.8279	1645.8	766.15
909.9123	1745.5306	1647.55	767.15
910.0532	1747.2325	1636.05	755.75
910.1941	1748.9336	1637.55	757.4
910.335	1750.634	1630.65	747.65
910.4759	1752.3336	1635.55	754.85
910.6168	1754.0325	1626.35	747.65
910.7576	1755.7307	1631.15	750.8
910.8984	1757.4281	1623.6	744.8
911.0392	1759.1247	1632	740.5
911.18	1760.8206	1627.7	741.95
911.3208	1762.5158	1626.95	740.4
911.4615	1764.2102	1618.5	738.15
911.6022	1765.9039	1611.95	730.55
911.7429	1767.5968	1609.25	727.4
911.8836	1769.289	1611.35	730.35
912.0243	1770.9804	1609.85	730.3
912.1649	1772.6711	1610.65	729.9
912.3056	1774.361	1602.35	720.9
912.4462	1776.0502	1609.55	728.95
912.5868	1777.7386	1600.65	716.6
912.7274	1779.4263	1600.9	720.6
912.8679	1781.1132	1598.3	718
913.0084	1782.7994	1597.45	713.9
913.149	1784.4849	1590.3	710.55
913.2895	1786.1696	1610.4	711.9
913.4299	1787.8535	1594.15	713.8
913.5704	1789.5367	1588.15	705.95
913.7108	1791.2192	1578.75	698.2
913.8513	1792.9009	1591.3	695.65
913.9917	1794.5818	1573.9	695.75
914.132	1796.2621	1582.85	703.1
914.2724	1797.9415	1577.9	696.4
914.4128	1799.6202	1569.7	686.8
914.5531	1801.2982	1566.05	685.65
914.6934	1802.9755	1562.95	680.85
914.8337	1804.6519	1566.9	686.5
914.9739	1806.3277	1562.15	682.55
915.1142	1808.0027	1555.7	676.15
915.2544	1809.6769	1552.85	673.2
915.3946	1811.3504	1555.9	673.95
915.5348	1813.0231	1551.2	669.85
915.675	1814.6951	1550.9	671.45
915.8151	1816.3664	1552.75	670.1
915.9553	1818.0369	1552.4	669.35
916.0954	1819.7067	1545.3	665.6
916.2355	1821.3757	1550.15	666.75
916.3755	1823.044	1542.4	660.35
916.5156	1824.7115	1542.45	660.6
916.6556	1826.3783	1537.15	656.65
916.7956	1828.0443	1536.8	656.4
916.9356	1829.7096	1540.5	659.45
917.0756	1831.3741	1536.55	651.9
917.2155	1833.0379	1529.35	649.85
917.3555	1834.701	1535.75	652.75
917.4954	1836.3633	1535.5	653.6
917.6353	1838.0248	1525.75	643.8
917.7751	1839.6856	1534.9	653.9
917.915	1841.3457	1531.05	649.95
918.0548	1843.005	1524.25	642.95
918.1946	1844.6636	1524.45	645.6
918.3344	1846.3214	1527.7	645.1
918.4742	1847.9785	1525.15	645.4
918.6139	1849.6349	1520.25	637.1
918.7537	1851.2904	1530.6	642.35
918.8934	1852.9453	1514.7	631.85
919.0331	1854.5994	1514.05	629.6
919.1727	1856.2528	1518.5	634.15
919.3124	1857.9054	1513.25	634.7
919.452	1859.5572	1505.1	624.7
919.5916	1861.2083	1499.85	617
919.7312	1862.8587	1512.1	632
919.8708	1864.5084	1507.2	625.65
920.0103	1866.1572	1503.4	622.3
920.1498	1867.8054	1502.35	619.25
920.2893	1869.4528	1509.5	628.4
920.4288	1871.0994	1495.3	613.2
920.5683	1872.7453	1499.6	619.75
920.7077	1874.3905	1495.15	608.75
920.8471	1876.0349	1499.8	617.35
920.9865	1877.6786	1493.8	610.65
921.1259	1879.3215	1498	616.2
921.2653	1880.9637	1493.45	610.15
921.4046	1882.6051	1491.8	609.65
921.5439	1884.2458	1494.3	611.6
921.6832	1885.8858	1486.95	604.85
921.8225	1887.525	1491.2	608.5
921.9617	1889.1634	1482.4	601.5
922.101	1890.8011	1478.15	596.95
922.2402	1892.4381	1470.05	588.2
922.3794	1894.0743	1475	594.6
922.5185	1895.7098	1468.6	586.9
922.6577	1897.3446	1482.55	602.05
922.7968	1898.9786	1470.75	584.85
922.9359	1900.6118	1467.85	587.45
923.075	1902.2443	1468.45	584.3
923.214	1903.8761	1464.6	583.45
923.3531	1905.5071	1460.55	579.25
923.4921	1907.1374	1458.65	576
923.6311	1908.7669	1458.9	579.6
923.77	1910.3957	1459.55	579.15
923.909	1912.0237	1452.6	570.55
924.0479	1913.651	1454.25	571.8
924.1868	1915.2776	1450.7	571.95
924.3257	1916.9034	1445.1	565.35
924.4646	1918.5285	1438.6	559.4
924.6034	1920.1528	1445.55	562.7
924.7422	1921.7764	1439.95	557.45
924.881	1923.3992	1441.2	560.3
925.0198	1925.0213	1435.85	554.85
925.1586	1926.6427	1428.3	547.55
925.2973	1928.2633	1642.1	552.65
925.436	1929.8832	1443.35	558.95
925.5747	1931.5023	1426.2	545.35
925.7134	1933.1207	1431.5	550.75
925.852	1934.7383	1430.25	549.15
925.9906	1936.3552	1422.75	542.35
926.1292	1937.9714	1423.35	541.8
926.2678	1939.5868	1421.65	539.15
926.4064	1941.2015	1421.4	540.3
926.5449	1942.8154	1423.65	542.05
926.6834	1944.4286	1422.4	541.1
926.8219	1946.041	1438.95	534.7
926.9604	1947.6528	1420.45	533.55
927.0988	1949.2637	1406.15	526.8
927.2372	1950.8739	1412.9	532.5
927.3756	1952.4834	1405.3	523.7
927.514	1954.0921	1408.15	527.35
927.6523	1955.7001	1409.4	523.2
927.7907	1957.3074	1397	516.95
927.929	1958.9139	1400.85	520.3
928.0673	1960.5197	1404.75	519.3
928.2055	1962.1247	1398.4	519.6
928.3438	1963.729	1388.35	510.95
928.482	1965.3325	1416.85	513.85
928.6202	1966.9353	1393.7	513
928.7584	1968.5374	1392.9	511.05
928.8965	1970.1387	1389.05	507.2
929.0346	1971.7393	1381.65	500.2
929.1727	1973.3392	1383.7	502.55
929.3108	1974.9383	1387.2	507.1
929.4489	1976.5366	1380.8	500.3
929.5869	1978.1342	1379.45	498.5
929.7249	1979.7311	1381.6	502.4
929.8629	1981.3273	1377.8	498.15
930.0009	1982.9227	1380.15	499.05
930.1388	1984.5173	1371.65	490
930.2767	1986.1112	1371.5	491.15
930.4146	1987.7044	1381.1	502.35
930.5525	1989.2968	1371.85	489.55
930.6904	1990.8885	1373.4	490.3
930.8282	1992.4795	1372.35	491.75
930.966	1994.0697	1363.15	482.3
931.1038	1995.6592	1358.85	479.25
931.2415	1997.2479	1366.9	486.3
931.3793	1998.8359	1361.4	480.75
931.517	2000.4232	1361.25	482.55
931.6547	2002.0097	1355.3	479
931.7923	2003.5955	1359.7	480.4
931.93	2005.1805	1352.6	470.6
932.0676	2006.7648	1358	478.25
932.2052	2008.3484	1348.4	468
932.3427	2009.9312	1352.85	470.5
932.4803	2011.5133	1343.9	467.95
932.6178	2013.0946	1349.35	470.45
932.7553	2014.6752	1346.6	467.35
932.8928	2016.2551	1345.45	465.75
933.0302	2017.8342	1347	467.5
933.1676	2019.4126	1344.4	467.3
933.305	2020.9902	1351.6	473.7
933.4424	2022.5672	1341.05	460.4
933.5798	2024.1433	1347.75	464.4
933.7171	2025.7188	1342.7	467.1
933.8544	2027.2935	1344.15	464.05
933.9917	2028.8674	1340.85	460.8
934.129	2030.4406	1337.35	458.65
934.2662	2032.0131	1336.55	458.8
934.4034	2033.5849	1335.1	450.1
934.5406	2035.1559	1338.05	460.3
934.6778	2036.7261	1336.45	457.9
934.8149	2038.2957	1330.5	450.85
934.952	2039.8645	1334.25	456.3
935.0891	2041.4325	1338.65	457.25
935.2262	2042.9998	1325.25	446.7
935.3632	2044.5664	1333.5	451.05
935.5002	2046.1323	1336.5	458.95
935.6372	2047.6974	1330.65	452.8
935.7742	2049.2617	1322.05	445.05
935.9111	2050.8254	1353.3	441.5
936.048	2052.3883	1326.95	447.75
936.1849	2053.9504	1326.85	448.05
936.3218	2055.5118	1321.45	440.55
936.4586	2057.0725	1323.55	439.8
936.5955	2058.6325	1323	443.15
936.7323	2060.1917	1311.45	433.65
936.869	2061.7502	1320.55	440.5
937.0058	2063.3079	1314.45	436.25
937.1425	2064.8649	1318.1	435.65
937.2792	2066.4212	1317.25	438.95
937.4159	2067.9767	1314.6	434.45
937.5525	2069.5315	1309.6	430.6
937.6891	2071.0856	1313.1	434.4
937.8257	2072.6389	1309.65	427.5
937.9623	2074.1915	1308.65	431.1
938.0989	2075.7433	1311.45	430.8
938.2354	2077.2945	1300.55	421.05
938.3719	2078.8448	1310.95	433.2
938.5084	2080.3945	1305.05	426.35
938.6448	2081.9434	1307.2	427.15
938.7812	2083.4916	1302.45	422.95
938.9176	2085.039	1308.8	426.8
939.054	2086.5857	1301.05	421.2
939.1903	2088.1317	1303.6	423.35
939.3267	2089.677	1294.65	415.6
939.463	2091.2215	1298.65	419.2
939.5992	2092.7652	1300.5	419.2
939.7355	2094.3083	1299.4	418
939.8717	2095.8506	1296.65	417.6
940.0079	2097.3921	1291.75	411.9
940.1441	2098.933	1299.15	419.6
940.2802	2100.4731	1289.45	410.8
940.4163	2102.0124	1312.05	425.35
940.5524	2103.5511	1294.65	415.5
940.6885	2105.089	1291.65	411.25
940.8245	2106.6261	1291.9	413.2
940.9606	2108.1626	1291.15	409.45
941.0965	2109.6983	1320.5	412.4
941.2325	2111.2332	1287.65	407.1
941.3684	2112.7675	1293.7	414
941.5044	2114.301	1288.15	406.65
941.6403	2115.8337	1287.5	407.25
941.7761	2117.3657	1289.9	410.5
941.912	2118.897	1289.7	408.9
942.0478	2120.4276	1284.95	398.05
942.1835	2121.9575	1286.6	407.95
942.3193	2123.4866	1294.8	399.7
942.455	2125.0149	1289.1	409.2
942.5907	2126.5426	1277.8	397.9
942.7264	2128.0695	1278.85	392.85
942.8621	2129.5956	1272.55	395.45
942.9977	2131.1211	1282.3	398.3
943.1333	2132.6458	1277.15	398.8
943.2689	2134.1698	1280.1	398.3
943.4044	2135.693	1280.75	398.8
943.54	2137.2155	1273.5	390.75
943.6755	2138.7373	1279.25	400.1
943.8109	2140.2584	1274.45	395.75
943.9464	2141.7787	1272.4	384.65
944.0818	2143.2983	1267.85	389.95
944.2172	2144.8171	1260.25	383.55
944.3526	2146.3353	1271.35	392.85
944.4879	2147.8527	1268.7	390.85
944.6232	2149.3693	1268.7	389.45
944.7585	2150.8853	1262.9	382.3
944.8938	2152.4005	1263.65	384.35
945.029	2153.9149	1269.8	389.85
945.1642	2155.4287	1259.95	381.5
945.2994	2156.9417	1271.35	390.95
945.4346	2158.454	1264.9	381.1
945.5697	2159.9655	1264.85	386.8
945.7048	2161.4764	1260.45	380.05
945.8399	2162.9865	1259.2	379.45
945.9749	2164.4958	1258.95	379.85
946.1099	2166.0045	1264.1	382.7
946.2449	2167.5124	1254.8	375.4
946.3799	2169.0195	1254.75	373.8
946.5148	2170.526	1252.25	373
946.6498	2172.0317	1248.9	367.5
946.7846	2173.5367	1255.55	377.45
946.9195	2175.0409	1254.3	374.3
947.0543	2176.5445	1250.25	371.9
947.1891	2178.0473	1251.95	372.2
947.3239	2179.5494	1252.95	368.3
947.4587	2181.0507	1246.95	367.75
947.5934	2182.5513	1246.8	367.3
947.7281	2184.0512	1247.8	367.65
947.8628	2185.5504	1249.9	370.15
947.9974	2187.0488	1244.05	366.55
948.132	2188.5465	1246.65	367.8
948.2666	2190.0435	1239.8	360
948.4012	2191.5397	1242.75	363
948.5357	2193.0353	1243.15	364.9
948.6702	2194.5301	1247.25	365.85
948.8047	2196.0241	1245.5	365.35
948.9392	2197.5175	1248.65	367.05
949.0736	2199.0101	1252.1	369.3
949.208	2200.502	1240.7	361.25
949.3424	2201.9931	1238.4	357.4
949.4767	2203.4835	1235.05	355.5
949.611	2204.9733	1256.15	360.35
949.7453	2206.4622	1232.75	355.2
949.8796	2207.9505	1236	354.3
950.0138	2209.438	1235.15	357.9
950.148	2210.9248	1231.5	352.15
950.2822	2212.4109	1235.15	358
950.4164	2213.8962	1238.55	356.35
950.5505	2215.3809	1233.7	352.95
950.6846	2216.8648	1229.2	348.5
950.8186	2218.3479	1238.2	354.75
950.9527	2219.8304	1230.8	347.3
951.0867	2221.3121	1224.2	342.35
951.2207	2222.7931	1223.1	342.5
951.3546	2224.2733	1223.55	344.75
951.4886	2225.7529	1219.3	338.45
951.6225	2227.2317	1221.3	340.05
951.7563	2228.7098	1215.15	336.25
951.8902	2230.1872	1219.2	340.75
952.024	2231.6638	1213.1	333.95
952.1578	2233.1397	1222.85	337.05
952.2916	2234.6149	1212.4	334.05
952.4253	2236.0894	1218.7	340.15
952.559	2237.5632	1227.75	339.85
952.6927	2239.0362	1211.15	332.2
952.8263	2240.5085	1209.05	330.2
952.9599	2241.9801	1212.65	332.8
953.0935	2243.4509	1213.3	333.1
953.2271	2244.921	1208.3	328.05
953.3606	2246.3904	1205.95	324.2
953.4941	2247.8591	1202.3	321.85
953.6276	2249.3271	1203.65	325.35
953.7611	2250.7943	1207.65	328.25
953.8945	2252.2608	1200.5	321.3
954.0279	2253.7266	1202.5	323.55
954.1612	2255.1917	1199	320.1
954.2946	2256.656	1199.55	321.65
954.4279	2258.1197	1199.4	320.3
954.5612	2259.5826	1197.45	315.5
954.6944	2261.0447	1202.85	322.25
954.8276	2262.5062	1203.5	321.95
954.9608	2263.9669	1198.05	315.2
955.094	2265.4269	1193.3	313.65
955.2271	2266.8862	1197.9	317.2
955.3602	2268.3448	1190.5	311.2
955.4933	2269.8026	1190.6	311.3
955.6264	2271.2598	1191.85	312.65
955.7594	2272.7162	1193.7	316.3
955.8924	2274.1719	1189.9	311
956.0253	2275.6268	1186	306.65
956.1583	2277.0811	1189.65	309.55
956.2912	2278.5346	1191	315
956.4241	2279.9874	1185.55	306.9
956.5569	2281.4395	1180.15	302.4
956.6897	2282.8908	1195.9	310.6
956.8225	2284.3414	1186.8	306.8
956.9553	2285.7914	1188.1	309.2
957.088	2287.2406	1189.4	307.8
957.2207	2288.689	1184.25	306.25
957.3534	2290.1368	1187.5	305.3
957.486	2291.5838	1187.5	305.3
957.6186	2293.0302	1183	302.2
957.7512	2294.4758	1184.3	304.15
957.8838	2295.9206	1188.4	305.05
958.0163	2297.3648	1180.95	301.65
958.1488	2298.8082	1185.15	305.55
958.2813	2300.251	1181.3	301.75
958.4137	2301.693	1185	302.05
958.5461	2303.1343	1184.3	304.3
958.6785	2304.5748	1182.05	301.35
958.8108	2306.0147	1183.2	303.8
958.9432	2307.4538	1178.3	296.7
959.0754	2308.8922	1175.3	297.25
959.2077	2310.3299	1184.4	306.9
959.3399	2311.7669	1177.8	298.3
959.4721	2313.2031	1178.5	298.5
959.6043	2314.6387	1170.7	292.2
959.7365	2316.0735	1170	289.55
959.8686	2317.5076	1176.55	296.2
960.0006	2318.941	1170.4	290.75
960.1327	2320.3737	1170.75	292.4
960.2647	2321.8056	1176.5	294.1
960.3967	2323.2369	1170.75	291.15
960.5287	2324.6674	1168.2	284.55
960.6606	2326.0972	1178.6	297.25
960.7925	2327.5263	1176.25	297.5
960.9244	2328.9547	1180.55	301.1
961.0562	2330.3823	1178.4	298.9
961.1881	2331.8092	1174	291.35
961.3198	2333.2355	1170.25	290.4
961.4516	2334.661	1167.9	287.65
961.5833	2336.0858	1166.7	283.9
961.715	2337.5098	1162.65	282.85
961.8467	2338.9332	1166.7	284.5
961.9783	2340.3558	1167.15	283.4
962.1099	2341.7778	1154.9	275.95
962.2415	2343.199	1160.45	278.2
962.373	2344.6195	1158.2	278.9
962.5045	2346.0393	1160.8	281
962.636	2347.4583	1157.65	276.3
962.7675	2348.8767	1162.9	281.7
962.8989	2350.2943	1162.75	283.8
963.0303	2351.7113	1160.75	279.45
963.1617	2353.1275	1160.8	279.75
963.293	2354.543	1163.75	274.1
963.4243	2355.9578	1159.65	280.65
963.5556	2357.3718	1155.65	274.7
963.6868	2358.7852	1155.2	274.2
963.818	2360.1978	1155.05	272.9
963.9492	2361.6098	1151.25	271.55
964.0803	2363.021	1154.75	273.25
964.2114	2364.4315	1155.5	275.45
964.3425	2365.8413	1158.85	276.85
964.4736	2367.2504	1151.75	272.3
964.6046	2368.6587	1151.35	269.2
964.7356	2370.0664	1145.25	264.75
964.8666	2371.4733	1154.8	272.75
964.9975	2372.8795	1156.7	275.85
965.1284	2374.285	1143.9	264.8
965.2593	2375.6899	1154.7	275.35
965.3901	2377.0939	1144.95	265.2
965.5209	2378.4973	1152	274.75
965.6517	2379.9	1150.2	269.95
965.7825	2381.3019	1147.4	265.85
965.9132	2382.7032	1145.05	264.6
966.0439	2384.1037	1142.55	265.3
966.1745	2385.5035	1142.7	264.4
966.3051	2386.9027	1143.25	264.4
966.4357	2388.3011	1142.75	259.85
966.5663	2389.6987	1141	259.3
966.6968	2391.0957	1144.35	264.9
966.8273	2392.492	1134.7	256.75
966.9578	2393.8876	1137.05	255.7
967.0882	2395.2824	1131.25	251
967.2186	2396.6765	1130.45	252.45
967.349	2398.07	1135.55	254.65
967.4793	2399.4627	1136.85	257.4
967.6097	2400.8547	1129.7	249.35
967.7399	2402.246	1135.75	247.45
967.8702	2403.6366	1133.75	253.85
968.0004	2405.0265	1129.8	249.05
968.1306	2406.4156	1134.4	250.6
968.2607	2407.8041	1138.85	255.15
968.3909	2409.1918	1131.15	248.9
968.521	2410.5789	1129.9	247.2
968.651	2411.9652	1132.6	247.35
968.781	2413.3508	1124.65	242.1
968.911	2414.7358	1127.1	245.1
969.041	2416.12	1126.65	245.75
969.1709	2417.5035	1123.5	243.35
969.3008	2418.8863	1131.8	249.55
969.4307	2420.2684	1123.3	242.9
969.5606	2421.6497	1127.1	246
969.6904	2423.0304	1127.85	248.8
969.8201	2424.4104	1125.25	244.55
969.9499	2425.7896	1120.95	238.75
970.0796	2427.1682	1119	240.15
970.2093	2428.546	1126.6	245.75
970.3389	2429.9232	1121.25	237.6
970.4685	2431.2996	1122.35	240.25
970.5981	2432.6753	1118.4	238.75
970.7277	2434.0503	1116.4	237.25
970.8572	2435.4246	1118.4	236.35
970.9867	2436.7982	1122	239.2
971.1161	2438.1711	1121.8	243.15
971.2456	2439.5433	1122.3	239.25
971.375	2440.9148	1115.55	234.2
971.5043	2442.2856	1117.05	235.75
971.6336	2443.6557	1117.4	234.25
971.7629	2445.025	1116.55	236.65
971.8922	2446.3937	1112.75	231.05
972.0214	2447.7617	1114.3	230.65
972.1506	2449.1289	1115.6	235.35
972.2798	2450.4955	1115.55	233.05
972.4089	2451.8613	1113.35	235.6
972.538	2453.2265	1115.45	232.75
972.6671	2454.5909	1110.5	229.8
972.7961	2455.9546	1115.05	234.5
972.9251	2457.3177	1104.45	225.25
973.0541	2458.68	1106.2	224.1
973.1831	2460.0416	1106.35	225.75
973.312	2461.4025	1111.1	228.8
973.4408	2462.7627	1119.4	226.4
973.5697	2464.1222	1111.05	231.7
973.6985	2465.4811	1110.9	230.25
973.8273	2466.8392	1103	223.75
973.956	2468.1966	1111.4	228.1
974.0847	2469.5533	1105.95	222.75
974.2134	2470.9093	1107.65	225.55
974.3421	2472.2645	1109.65	226
974.4707	2473.6191	1111.35	231.6
974.5993	2474.973	1108.2	227.1
974.7278	2476.3262	1111.1	229.4
974.8563	2477.6787	1107.2	227.5
974.9848	2479.0305	1105.2	224.6
975.1132	2480.3816	1108.65	225.95
975.2417	2481.7319	1105.75	224.25
975.37	2483.0816	1110.8	228.65
975.4984	2484.4306	1105.15	224.55
975.6267	2485.7789	1103.2	223.55
975.755	2487.1264	1104.65	222.8
975.8833	2488.4733	1099.3	219.9
976.0115	2489.8195	1107.6	218.6
976.1397	2491.165	1108	222.8
976.2678	2492.5097	1106.7	224.85
976.3959	2493.8538	1104.6	225.35
976.524	2495.1972	1100.55	219.15
976.6521	2496.5398	1101.1	218.35
976.7801	2497.8818	1104.2	222.45
976.9081	2499.2231	1098.65	218.6
977.036	2500.5637	1108.35	226.95
977.164	2501.9035	1102	221.25
977.2918	2503.2427	1109.45	226.5
977.4197	2504.5812	1098.6	218.75
977.5475	2505.919	1101.5	217.65
977.6753	2507.256	1100.7	219.75
977.8031	2508.5924	1096.25	214.15
977.9308	2509.9281	1105.3	220.9
978.0585	2511.2631	1098.1	219.4
978.1861	2512.5974	1099.55	217.1
978.3137	2513.9309	1099.1	218.35
978.4413	2515.2638	1127.6	216.7
978.5689	2516.596	1096	216.1
978.6964	2517.9275	1092.6	210.5
978.8239	2519.2583	1096.85	216.35
978.9513	2520.5884	1097.3	217.6
979.0788	2521.9178	1090	208.7
979.2062	2523.2465	1089.75	211.35
979.3335	2524.5745	1092.45	211.75
979.4608	2525.9018	1089.55	210.9
979.5881	2527.2284	1085.3	206.15
979.7154	2528.5543	1089.35	211.05
979.8426	2529.8796	1088.9	209.85
979.9698	2531.2041	1091.5	212.15
980.0969	2532.5279	1088.85	210.1
980.224	2533.851	1090.1	210.75
980.3511	2535.1735	1090.75	210.7
980.4781	2536.4952	1089.1	208.2
980.6052	2537.8163	1088.95	208.65
980.7321	2539.1366	1087.15	207.3
980.8591	2540.4562	1085.75	204.4
980.986	2541.7752	1087.95	209.4
981.1129	2543.0935	1080.55	201.9
981.2397	2544.411	1087.5	206.75
981.3665	2545.7279	1085	206.3
981.4933	2547.0441	1085.45	206.55
981.62	2548.3596	1087.9	205.55
981.7467	2549.6744	1083.6	202.75
981.8734	2550.9885	1090.9	200.95
982.0001	2552.3019	1079.4	200.75
982.1267	2553.6146	1081.35	202.45
982.2532	2554.9266	1079.55	201.1
982.3798	2556.2379	1080.05	197.35
982.5063	2557.5485	1078.4	197.95
982.6327	2558.8585	1087.2	200.55
982.7592	2560.1677	1081.45	198.3
982.8856	2561.4762	1080.65	199.55
983.0119	2562.7841	1084.8	200.3
983.1383	2564.0913	1079.75	199.85
983.2646	2565.3977	1076.35	196.8
983.3908	2566.7035	1073.85	193.8
983.517	2568.0086	1078.15	196.55
983.6432	2569.313	1077.25	197.85
983.7694	2570.6167	1082.85	197.4
983.8955	2571.9197	1080.3	203.65
984.0216	2573.222	1083.1	197.2
984.1476	2574.5236	1078.8	198.75
984.2737	2575.8246	1076.6	192.75
984.3996	2577.1248	1078.45	195.05
984.5256	2578.4244	1075.95	196.75
984.6515	2579.7232	1078.3	196.55
984.7774	2581.0214	1105.3	196.2
984.9032	2582.3189	1075.1	195.7
985.029	2583.6157	1084.65	198.95
985.1548	2584.9118	1077.4	198.85
985.2806	2586.2072	1076	195.3
985.4063	2587.5019	1079.65	201.2
985.5319	2588.7959	1078.2	196.05
985.6576	2590.0893	1082.75	202
985.7832	2591.3819	1078.4	199.25
985.9087	2592.6739	1081.7	202.1
986.0343	2593.9652	1079.05	198.8
986.1597	2595.2557	1078.4	200.65
986.2852	2596.5456	1086.2	204.15
986.4106	2597.8348	1079.45	199.55
986.536	2599.1234	1084.3	203.15
986.6614	2600.4112	1087.3	206.8
986.7867	2601.6983	1086.6	204.45
986.912	2602.9848	1086.9	206.9
987.0372	2604.2705	1091.1	206
987.1624	2605.5556	1086.55	208.65
987.2876	2606.84	1080.45	202
987.4128	2608.1237	1083.4	199.95
987.5379	2609.4067	1080.6	199.95
987.6629	2610.689	1087.7	197.95
987.788	2611.9707	1085.65	200.7
987.913	2613.2516	1083.95	198.45
988.0379	2614.5319	1072.45	193.15
988.1629	2615.8115	1077.25	194.85
988.2878	2617.0903	1076.75	192.85
988.4126	2618.3685	1072.75	192.35
988.5375	2619.6461	1074.5	195.85
988.6622	2620.9229	1078.05	199.4
988.787	2622.199	1074.1	194.45
988.9117	2623.4745	1074.35	195
989.0364	2624.7493	1068.6	187.9
989.161	2626.0234	1067.45	187.65
989.2857	2627.2968	1066.85	186.15
989.4102	2628.5695	1072.15	190.65
989.5348	2629.8415	1070.6	191.2
989.6593	2631.1128	1073.15	192.75
989.7837	2632.3835	1068.75	188.15
989.9082	2633.6535	1072.6	194
990.0326	2634.9228	1070.05	188.95
990.1569	2636.1914	1067.8	188.45
990.2812	2637.4593	1070.2	189.45
990.4055	2638.7265	1070.55	190.5
990.5298	2639.9931	1066.3	187.7
990.654	2641.259	1069.3	188.1
990.7782	2642.5242	1066.55	186.1
990.9023	2643.7887	1066.45	186.05
991.0264	2645.0525	1062.9	184.4
991.1505	2646.3156	1063.6	181.1
991.2745	2647.5781	1062.5	183.8
991.3985	2648.8398	1058.8	178.4
991.5225	2650.1009	1100.7	183.05
991.6464	2651.3613	1064	182.5
991.7703	2652.6211	1055.2	176.6
991.8942	2653.8801	1057.05	178.65
992.018	2655.1385	1063	178.7
992.1418	2656.3961	1054.05	175.9
992.2655	2657.6531	1055.1	175.25
992.3892	2658.9094	1058.15	179.35
992.5129	2660.1651	1050.95	171.95
992.6366	2661.42	1053.2	172.6
992.7602	2662.6743	1059.95	178.6
992.8837	2663.9279	1055.9	176.8
993.0073	2665.1808	1056.15	175.75
993.1307	2666.433	1062.4	180.85
993.2542	2667.6846	1060.7	182.2
993.3776	2668.9354	1065.65	183.45
993.501	2670.1856	1061.2	181.35
993.6244	2671.4351	1061.6	181.15
993.7477	2672.6839	1065.15	185.4
993.8709	2673.9321	1069.95	189.4
993.9942	2675.1795	1068.5	191
994.1174	2676.4263	1066.55	186.75
994.2405	2677.6724	1064.65	186.3
994.3637	2678.9179	1067.6	189.15
994.4868	2680.1626	1066.8	186.7
994.6098	2681.4067	1073.75	193.55
994.7328	2682.6501	1064.7	184.75
994.8558	2683.8928	1059.75	178.75
994.9788	2685.1348	1063.75	185
995.1017	2686.3761	1059.6	179.9
995.2245	2687.6168	1052.8	171.45
995.3474	2688.8568	1053.25	172.35
995.4702	2690.0961	1051.25	171
995.5929	2691.3348	1052.5	172.7
995.7156	2692.5727	1050.95	168.1
995.8383	2693.81	1048.1	168.15
995.961	2695.0466	1049.2	170.3
996.0836	2696.2826	1053.25	173.45
996.2062	2697.5178	1072.4	172.15
996.3287	2698.7524	1055.25	176.35
996.4512	2699.9863	1053.25	169.6
996.5737	2701.2195	1051.9	174.65
996.6961	2702.452	1056.55	173.9
996.8185	2703.6839	1058.25	176.9
996.9408	2704.9151	1058	178.75
997.0631	2706.1456	1060.1	180.3
997.1854	2707.3755	1061.85	183.35
997.3077	2708.6046	1062.1	180
997.4299	2709.8331	1068.95	189.6
997.552	2711.0609	1065.65	185.4
997.6742	2712.2881	1068.2	188.35
997.7963	2713.5145	1075.35	192.75
997.9183	2714.7403	1071.7	191.65
998.0403	2715.9654	1077.2	197.3
998.1623	2717.1899	1093.05	200.25
998.2842	2718.4136	1082.65	202.35
998.4062	2719.6367	1087.85	207.7
998.528	2720.8591	1098.55	210.7
998.6498	2722.0809	1097	214.85
998.7716	2723.3019	1104.5	221.5
998.8934	2724.5223	1105.7	224.25
999.0151	2725.7421	1103.25	222.1
999.1368	2726.9611	1099.35	217.75
999.2584	2728.1795	1101.25	217.6
999.38	2729.3972	1089.5	210.7
999.5016	2730.6142	1097.75	203.65
999.6231	2731.8306	1082.6	202.9
999.7446	2733.0462	1076.45	194.6
999.8661	2734.2612	1076.3	194.1
999.9875	2735.4756	1068.1	186.3
1000.1089	2736.6892	1068.65	188.05
1000.2302	2737.9022	1059.35	180
1000.3515	2739.1145	1057.35	176.6
1000.4728	2740.3262	1068.05	181.7
1000.594	2741.5372	1052.75	173.4
1000.7152	2742.7475	1052.4	174.2
1000.8363	2743.9571	1052.4	170.6
1000.9575	2745.1661	1049.8	165.85
1001.0785	2746.3744	1043.1	161.85
1001.1996	2747.582	1038.3	158.85
1001.3206	2748.7889	1039	154.95
1001.4415	2749.9952	1036.3	157.1
1001.5625	2751.2008	1030.8	149.9
1001.6833	2752.4057	1036	152.7
1001.8042	2753.61	1033.3	152.75
1001.925	2754.8136	1033	152.95
1002.0458	2756.0165	1028.2	149.45
1002.1665	2757.2188	1030.6	152.1
1002.2872	2758.4204	1027	147
1002.4078	2759.6213	1033.65	152.05
1002.5285	2760.8215	1038.8	156.15
1002.649	2762.0211	1035.65	153.45
1002.7696	2763.22	1036.2	152.95
1002.8901	2764.4182	1033.8	152.5
1003.0106	2765.6158	1031.8	150.9
1003.131	2766.8127	1030.3	150.6
1003.2514	2768.009	1030.15	151.5
1003.3717	2769.2045	1019.9	138.55
1003.492	2770.3994	1030.4	149.55
1003.6123	2771.5936	1024.25	142.55
1003.7325	2772.7872	1021.1	143.3
1003.8527	2773.9801	1021.3	139.45
1003.9729	2775.1723	1033.1	133.45
1004.093	2776.3639	1019.2	138.4
1004.2131	2777.5548	1022.65	140.65
1004.3331	2778.745	1022.25	141.2
1004.4531	2779.9346	1017.45	138.45
1004.5731	2781.1235	1021.7	141.85
1004.693	2782.3117	1017.7	142.1
1004.8129	2783.4992	1016.85	138.35
1004.9328	2784.6861	1026.2	147.05
1005.0526	2785.8723	1020.4	141
1005.1723	2787.0579	1016.35	136.15
1005.2921	2788.2428	1020.15	139.9
1005.4118	2789.427	1019.1	140.45
1005.5314	2790.6106	1023.05	143.25
1005.651	2791.7935	1022.95	142.2
1005.7706	2792.9757	1020.75	141.8
1005.8902	2794.1573	1027.1	146.25
1006.0097	2795.3382	1023.25	144.15
1006.1291	2796.5184	1025.85	148.2
1006.2485	2797.698	1028.5	147.2
1006.3679	2798.8769	1030	148.15
1006.4873	2800.0551	1032.75	153.15
1006.6066	2801.2327	1036.95	153.7
1006.7258	2802.4096	1029.6	148.7
1006.8451	2803.5859	1037.15	156.85
1006.9642	2804.7615	1039.85	161.55
1007.0834	2805.9364	1039.95	161.2
1007.2025	2807.1106	1041.95	163.35
1007.3216	2808.2842	1048.6	168.3
1007.4406	2809.4572	1051.45	172.25
1007.5596	2810.6294	1054.25	173.1
1007.6785	2811.801	1058.9	178.85
1007.7975	2812.972	1067.85	191.15
1007.9163	2814.1423	1070.85	190.75
1008.0352	2815.3119	1082.1	201.85
1008.154	2816.4808	1087.75	209
1008.2727	2817.6491	1108.45	227.5
1008.3914	2818.8167	1127.9	249.8
1008.5101	2819.9837	1146.85	261.35
1008.6288	2821.15	1156.5	276
1008.7474	2822.3157	1184.95	307.2
1008.8659	2823.4807	1215.2	333.65
1008.9844	2824.645	1249.65	370.65
1009.1029	2825.8086	1285	404.85
1009.2214	2826.9716	1308.85	430.8
1009.3398	2828.134	1346.05	465.5
1009.4581	2829.2957	1372.55	493.8
1009.5764	2830.4567	1396.95	518.5
1009.6947	2831.617	1421.15	542.9
1009.813	2832.7767	1435	557.2
1009.9312	2833.9358	1433.45	553.45
1010.0493	2835.0941	1432	550.9
1010.1675	2836.2519	1417.3	537.15
1010.2855	2837.4089	1405.95	527.5
1010.4036	2838.5653	1381.5	502.15
1010.5216	2839.7211	1365.95	488.8
1010.6396	2840.8761	1364.35	483.75
1010.7575	2842.0306	1354.75	476.05
1010.8754	2843.1843	1350.85	469.6
1010.9932	2844.3374	1351.15	472.45
1011.111	2845.4899	1372.95	492.1
1011.2288	2846.6417	1380.15	501.75
1011.3465	2847.7928	1387.75	509.85
1011.4642	2848.9433	1388.4	508.95
1011.5818	2850.0931	1396.2	517.3
1011.6995	2851.2422	1397.85	520.3
1011.817	2852.3907	1400	520.5
1011.9345	2853.5385	1407.5	525.7
1012.052	2854.6857	1437.35	531.25
1012.1695	2855.8323	1421.85	542.25
1012.2869	2856.9781	1428.1	548.55
1012.4042	2858.1233	1445.35	566.55
1012.5216	2859.2679	1459.7	579.65
1012.6389	2860.4118	1468.1	589.1
1012.7561	2861.555	1487.25	603.1
1012.8733	2862.6976	1508.6	628
1012.9905	2863.8395	1508.4	631.15
1013.1076	2864.9808	1518.3	636.65
1013.2247	2866.1214	1525.25	645.8
1013.3417	2867.2614	1537.2	658.3
1013.4587	2868.4007	1543.3	663.45
1013.5757	2869.5393	1553.05	673.05
1013.6926	2870.6773	1565	683.05
1013.8095	2871.8146	1577.5	696.2
1013.9263	2872.9513	1589.55	708
1014.0431	2874.0874	1591.1	711.55
1014.1599	2875.2227	1603.7	722.95
1014.2766	2876.3574	1604.7	725.55
1014.3933	2877.4915	1619.85	739.65
1014.51	2878.6249	1623.9	746.5
1014.6266	2879.7577	1642.2	761.15
1014.7431	2880.8898	1660.3	769.7
1014.8596	2882.0212	1654.25	776.05
1014.9761	2883.152	1680.95	801.95
1015.0925	2884.2821	1681.9	802.8
1015.2089	2885.4116	1690.45	812
1015.3253	2886.5405	1701.9	824.55
1015.4416	2887.6686	1704.5	820.55
1015.5579	2888.7962	1704.45	825.2
1015.6741	2889.923	1709.55	831.65
1015.7903	2891.0493	1702.65	823.5
1015.9065	2892.1748	1702.85	823.95
1016.0226	2893.2997	1703.05	825.3
1016.1387	2894.424	1696.25	819.25
1016.2547	2895.5476	1702.35	822
1016.3707	2896.6706	1712.6	832.85
1016.4866	2897.7929	1706.15	825.1
1016.6025	2898.9145	1695.7	818.05
1016.7184	2900.0355	1702.05	821.85
1016.8342	2901.1559	1693.8	814.7
1016.95	2902.2756	1704.9	820.8
1017.0658	2903.3946	1687.15	809.55
1017.1815	2904.513	1688.5	806.35
1017.2971	2905.6308	1685.9	806.55
1017.4127	2906.7479	1678.35	799.75
1017.5283	2907.8643	1680	800.4
1017.6439	2908.9801	1675	795.75
1017.7594	2910.0953	1684.45	805.55
1017.8748	2911.2098	1681.4	797.95
1017.9902	2912.3236	1683.9	796.85
1018.1056	2913.4368	1682.65	799.55
1018.2209	2914.5494	1672.4	791.25
1018.3362	2915.6613	1671.45	786.25
1018.4515	2916.7725	1651.5	769.25
1018.5667	2917.8831	1637.15	757.4
1018.6819	2918.9931	1628.55	747.35
1018.797	2920.1024	1613.1	732.7
1018.9121	2921.211	1599.85	722
1019.0271	2922.319	1596.2	717.45
1019.1421	2923.4264	1580.7	702.2
1019.2571	2924.5331	1585.05	707.2
1019.372	2925.6391	1577.9	699.5
1019.4869	2926.7445	1582.15	704.3
1019.6017	2927.8493	1583.2	703.55
1019.7165	2928.9534	1590.6	710
1019.8313	2930.0569	1589.25	707.45
1019.946	2931.1597	1592.4	712.1
1020.0606	2932.2619	1596.05	717.4
1020.1753	2933.3634	1611.05	732.45
1020.2899	2934.4643	1617.5	732
1020.4044	2935.5645	1630.3	746.15
1020.5189	2936.6641	1638.05	754.55
1020.6334	2937.763	1629.85	751.4
1020.7478	2938.8613	1622.05	740.8
1020.8622	2939.959	1629.35	745.9
1020.9765	2941.056	1607.75	729.75
1021.0908	2942.1523	1583	699.75
1021.2051	2943.248	1549.9	672.45
1021.3193	2944.3431	1519.55	640.5
1021.4334	2945.4375	1482.65	605.6
1021.5476	2946.5313	1449.55	571.1
1021.6617	2947.6244	1421.55	543.85
1021.7757	2948.7169	1396.05	514.2
1021.8897	2949.8087	1362.75	483.6
1022.0037	2950.8999	1331.9	452.25
1022.1176	2951.9904	1308.4	429.7
1022.2315	2953.0803	1293.7	413.6
1022.3453	2954.1696	1269.95	388.95
1022.4591	2955.2582	1258.45	379.55
1022.5728	2956.3462	1250.7	369.2
1022.6865	2957.4335	1240.4	362.05
1022.8002	2958.5202	1247.75	365.05
1022.9138	2959.6062	1245.15	367.2
1023.0274	2960.6916	1244	364.1
1023.141	2961.7764	1242	362.05
1023.2545	2962.8605	1242.65	362.55
1023.3679	2963.9439	1239.4	358.1
1023.4813	2965.0267	1237.65	358.3
1023.5947	2966.1089	1259.4	359.6
1023.708	2967.1905	1231.8	353.15
1023.8213	2968.2714	1231.15	353.65
1023.9346	2969.3516	1224	345.4
1024.0478	2970.4312	1231.5	344.8
1024.1609	2971.5102	1219.05	342.05
1024.274	2972.5885	1225.2	346.6
1024.3871	2973.6662	1223.75	338.4
1024.5002	2974.7432	1220.65	342.7
1024.6132	2975.8196	1222.1	340.9
1024.7261	2976.8954	1222.8	345.15
1024.839	2977.9705	1227.25	350.4
1024.9519	2979.045	1226.65	348.4
1025.0647	2980.1188	1224	347.2
1025.1775	2981.192	1218.6	341.3
1025.2902	2982.2645	1215.25	336
1025.4029	2983.3364	1210	332.55
1025.5156	2984.4077	1194	315.8
1025.6282	2985.4783	1189.45	305.35
1025.7407	2986.5483	1177.1	297.7
1025.8532	2987.6177	1165.95	288.9
1025.9657	2988.6864	1158.35	278.1
1026.0782	2989.7545	1152.65	274.1
1026.1906	2990.8219	1140.25	261
1026.3029	2991.8887	1132.7	250.9
1026.4152	2992.9548	1117.55	238.9
1026.5275	2994.0204	1107	227.5
1026.6397	2995.0852	1097.1	216.5
1026.7519	2996.1495	1084.75	204.85
1026.864	2997.2131	1070.25	192.15
1026.9761	2998.276	1061.45	182.65
1027.0882	2999.3383	1052	172.75
1027.2002	3000.4	1046.9	166.9
1027.3122	3001.4611	1035.7	157.1
1027.4241	3002.5215	1031.35	153.35
1027.536	3003.5812	1022.85	144
1027.6478	3004.6404	1014.4	135.3
1027.7596	3005.6989	1014.55	135.6
1027.8714	3006.7567	1010.65	131.8
1027.9831	3007.8139	1040.35	130.15
1028.0947	3008.8705	1002.85	124.55
1028.2064	3009.9264	1005.45	120
1028.3179	3010.9818	993.8	114.95
1028.4295	3012.0364	992.9	113.45
1028.541	3013.0905	992.05	113.1
1028.6524	3014.1439	989.55	111
1028.7638	3015.1966	988.75	110.4
1028.8752	3016.2487	989.5	110.75
1028.9865	3017.3002	986.8	104.4
1029.0978	3018.3511	980	101.75
1029.209	3019.4013	981.3	102.6
1029.3202	3020.4509	979.65	102.1
1029.4314	3021.4998	980.85	101.55
1029.5425	3022.5481	977.85	100.1
1029.6535	3023.5958	978.4	98.8
1029.7645	3024.6428	980.15	101.15
1029.8755	3025.6892	978.5	99.6
1029.9864	3026.735	979.45	100.2
1030.0973	3027.7802	975.3	97
1030.2082	3028.8247	976.45	98.6
1030.319	3029.8685	975.85	96.3
1030.4297	3030.9118	976.45	98.2
1030.5404	3031.9544	978	100
1030.6511	3032.9963	977.5	99.95
1030.7617	3034.0376	977.2	100.05
1030.8723	3035.0783	977.35	96.15
1030.9829	3036.1184	977	97.35
1031.0934	3037.1578	978.95	100.55
1031.2038	3038.1966	980.15	99.45
1031.3142	3039.2348	976.55	98.4
1031.4246	3040.2723	990.15	100.95
1031.5349	3041.3092	977.05	99.6
1031.6452	3042.3455	982.35	102.6
1031.7554	3043.3811	980.1	99.45
1031.8656	3044.4161	979.2	100.8
1031.9758	3045.4505	979.85	103.7
1032.0859	3046.4842	979.75	99.6
1032.1959	3047.5173	977.3	100.3
1032.3059	3048.5498	979.85	101.75
1032.4159	3049.5816	976.9	98.7
1032.5258	3050.6128	981.7	101.2
1032.6357	3051.6434	981.45	101.8
1032.7455	3052.6734	983.25	102.45
1032.8553	3053.7027	982.15	106.95
1032.9651	3054.7314	983.85	105.05
1033.0748	3055.7594	981.35	103.7
1033.1845	3056.7868	980.05	101.45
1033.2941	3057.8136	985.3	106
1033.4037	3058.8398	983.4	105.2
1033.5132	3059.8653	987.55	108.05
1033.6227	3060.8902	985.3	106.1
1033.7321	3061.9145	985.5	106.2
1033.8415	3062.9381	990.3	111.55
1033.9509	3063.9612	1006.1	110.75
1034.0602	3064.9835	987.6	108.6
1034.1694	3066.0053	991.15	108.35
1034.2787	3067.0264	990.1	111.4
1034.3878	3068.0469	990.7	110.2
1034.497	3069.0668	994.55	113.35
1034.6061	3070.086	987.1	110.2
1034.7151	3071.1046	987.1	108.35
1034.8241	3072.1226	992.1	112.35
1034.9331	3073.1399	984.4	104.05
1035.042	3074.1567	984.9	107
1035.1508	3075.1727	983.1	103
1035.2597	3076.1882	978.75	99.75
1035.3684	3077.203	976.55	97.1
1035.4772	3078.2173	981.7	101.6
1035.5859	3079.2308	978.6	96.85
1035.6945	3080.2438	968.05	88.2
1035.8031	3081.2561	964.65	84.7
1035.9117	3082.2678	961.75	84.6
1036.0202	3083.2789	960.55	81.1
1036.1286	3084.2893	959	78.2
1036.2371	3085.2991	961	82.9
1036.3454	3086.3083	961.3	77.35
1036.4538	3087.3169	957.15	76.7
1036.562	3088.3248	955.9	78.75
1036.6703	3089.3321	955.9	74.2
1036.7785	3090.3388	950.15	73.1
1036.8866	3091.3449	951.3	73.3
1036.9948	3092.3503	952.3	70.45
1037.1028	3093.3551	948.3	71.25
1037.2108	3094.3593	950.25	70.8
1037.3188	3095.3629	945.25	68.1
1037.4267	3096.3658	947.5	67
1037.5346	3097.3681	949.05	69.15
1037.6425	3098.3698	946.35	63.1
1037.7503	3099.3708	944.5	66.4
1037.858	3100.3713	944.3	67.3
1037.9657	3101.3711	943.65	64.2
1038.0734	3102.3702	1077.4	64.6
1038.181	3103.3688	944.2	64.55
1038.2886	3104.3667	936.95	60
1038.3961	3105.364	940.8	62.7
1038.5036	3106.3607	940.1	60.1
1038.611	3107.3568	941.05	61.3
1038.7184	3108.3522	935.85	57.65
1038.8257	3109.347	937.6	58.5
1038.933	3110.3412	941.25	58.4
1039.0403	3111.3348	934.3	56.1
1039.1475	3112.3277	933.9	54.55
1039.2547	3113.32	929.45	51.8
1039.3618	3114.3117	935	56.75
1039.4689	3115.3028	930.6	51.4
1039.5759	3116.2932	934.3	53.45
1039.6829	3117.2831	934.45	52.75
1039.7898	3118.2723	927.6	49.3
1039.8967	3119.2608	926.65	48.4
1040.0035	3120.2488	926.7	47.3
1040.1103	3121.2361	927.25	47.55
1040.2171	3122.2229	925.1	46.95
1040.3238	3123.209	922.55	41.4
1040.4305	3124.1944	925.75	47.75
1040.5371	3125.1793	923.15	44.25
1040.6437	3126.1635	922.8	44.75
1040.7502	3127.1471	923.55	42.9
1040.8567	3128.1301	921.75	43.25
1040.9631	3129.1125	922.3	44.55
1041.0695	3130.0942	921.35	44.9
1041.1759	3131.0753	928.6	41.7
1041.2822	3132.0558	921.95	40.05
1041.3884	3133.0357	919.55	38.4
1041.4946	3134.015	918	38.05
1041.6008	3134.9936	923.6	44.05
1041.7069	3135.9716	937.85	35.2
1041.813	3136.949	918.85	40.7
1041.919	3137.9258	933.3	36.9
1042.025	3138.902	923.45	40.15
1042.1309	3139.8775	917.6	40.8
1042.2368	3140.8524	918.05	40.15
1042.3427	3141.8267	919.25	37.2
1042.4485	3142.8004	915.3	37.05
1042.5542	3143.7735	921.75	36.6
1042.6599	3144.7459	921.6	42.2
1042.7656	3145.7178	915.45	35.6
1042.8712	3146.689	911.4	34.35
1042.9768	3147.6596	916.8	35.65
1043.0823	3148.6295	912.2	33.75
1043.1878	3149.5989	913.15	33.2
1043.2932	3150.5676	911.1	33.15
1043.3986	3151.5357	909.15	31
1043.5039	3152.5032	912.6	35.85
1043.6092	3153.4701	913.15	36.1
1043.7145	3154.4364	913.9	32.15
1043.8197	3155.402	909.3	32
1043.9248	3156.367	913.55	32.8
1044.03	3157.3315	948.6	34.7
1044.135	3158.2952	912.95	34.1
1044.24	3159.2584	910.75	34.05
1044.345	3160.221	910.5	29.6
1044.4499	3161.1829	912.6	33.95
1044.5548	3162.1442	912.4	35.75
1044.6596	3163.105	910.65	32.15
1044.7644	3164.065	907.8	28.7
1044.8692	3165.0245	910.85	29.85
1044.9739	3165.9834	908.15	31.05
1045.0785	3166.9416	910.85	35.1
1045.1831	3167.8993	908.55	28
1045.2877	3168.8563	910.65	32.5
1045.3922	3169.8127	909.85	30.15
1045.4966	3170.7684	909.65	31.4
1045.6011	3171.7236	909.1	31.9
1045.7054	3172.6782	909.05	29.2
1045.8098	3173.6321	907.9	28.7
1045.914	3174.5854	911.9	27.55
1046.0183	3175.5381	907.8	30.1
1046.1224	3176.4902	906.5	27.1
1046.2266	3177.4417	907.7	27.65
1046.3307	3178.3926	905.8	28.8
1046.4347	3179.3428	904.5	27.4
1046.5387	3180.2924	909.25	31
1046.6427	3181.2415	906.6	28.25
1046.7466	3182.1899	906.35	26.05
1046.8504	3183.1377	905.05	27.65
1046.9542	3184.0848	909.6	26.5
1047.058	3185.0314	905.5	28.5
1047.1617	3185.9773	906	25.75
1047.2654	3186.9227	904.3	24.9
1047.369	3187.8674	906.45	27.9
1047.4726	3188.8115	909.7	28.6
1047.5761	3189.755	905.2	27.95
1047.6796	3190.6979	905.25	25.05
1047.783	3191.6402	903.05	24.6
1047.8864	3192.5818	903.35	25.55
1047.9898	3193.5229	924.75	20.7
1048.0931	3194.4633	903.9	24.15
1048.1963	3195.4031	904.55	26.95
1048.2995	3196.3423	902.3	22.25
1048.4027	3197.2809	902.7	23.35
1048.5058	3198.2189	902.5	23.45
1048.6089	3199.1563	908.65	23.45
1048.7119	3200.0931	902.05	25
1048.8148	3201.0292	899.05	21.2
1048.9178	3201.9648	904.4	25
1049.0206	3202.8997	902.65	20.45
1049.1235	3203.834	902.45	23.3
1049.2262	3204.7677	903.1	24.35
1049.329	3205.7008	902.75	20.9
1049.4317	3206.6333	900.35	21.45
1049.5343	3207.5652	901.65	21.1
1049.6369	3208.4964	900	22.6
1049.7394	3209.4271	901.05	23.5
1049.8419	3210.3571	900.55	22.7
1049.9444	3211.2865	900.9	20.6
1050.0468	3212.2154	902.55	23.75
1050.1491	3213.1436	903.8	21.4
1050.2514	3214.0712	907.1	22.85
1050.3537	3214.9982	897.5	20.55
1050.4559	3215.9246	897.75	18.75
1050.5581	3216.8503	897.95	20.4
1050.6602	3217.7755	900.9	20.75
1050.7623	3218.7001	900.4	21.05
1050.8643	3219.624	900.25	20
1050.9663	3220.5473	899.35	20.7
1051.0682	3221.4701	900.7	23
1051.1701	3222.3922	902.2	22.65
1051.2719	3223.3137	899.3	21.3
1051.3737	3224.2346	898.7	20
1051.4754	3225.1549	899.3	20.45
1051.5771	3226.0746	898.3	20.65
1051.6788	3226.9937	898.85	18.25
1051.7804	3227.9121	898	20.7
1051.8819	3228.83	896.75	19.05
1051.9834	3229.7473	898.3	19.8
1052.0849	3230.6639	900	22.9
1052.1863	3231.5799	896.5	16.8
1052.2876	3232.4954	899.95	20.15
1052.3889	3233.4102	896	17.65
1052.4902	3234.3244	899.05	20.55
1052.5914	3235.238	894.6	17.1
1052.6926	3236.151	918.85	15.05
1052.7937	3237.0634	895.75	19.25
1052.8948	3237.9752	896.9	18.55
1052.9958	3238.8864	896.7	19.6
1053.0968	3239.797	897.85	18
1053.1977	3240.7069	896.85	18.4
1053.2986	3241.6163	898.3	17.4
1053.3994	3242.5251	894.05	17.75
1053.5002	3243.4332	895.05	19.15
1053.6009	3244.3408	896.5	17.05
1053.7016	3245.2477	895.05	16.95
1053.8022	3246.154	894.95	13.1
1053.9028	3247.0598	894.55	15.6
1054.0034	3247.9649	895.8	17.55
1054.1039	3248.8694	894.95	16.6
1054.2043	3249.7733	893.65	14.9
1054.3047	3250.6766	895.35	17.3
1054.4051	3251.5793	895.5	16.7
1054.5054	3252.4814	894.95	17.4
1054.6056	3253.3829	894.55	16
1054.7058	3254.2838	893.35	16.25
1054.806	3255.1841	895.55	16.25
1054.9061	3256.0838	893.95	14.9
1055.0061	3256.9829	892.45	15.45
1055.1062	3257.8814	896.3	15.05
1055.2061	3258.7792	894.95	15
1055.306	3259.6765	897.2	16.8
1055.4059	3260.5731	892.95	14.7
1055.5057	3261.4692	892.25	14.25
1055.6055	3262.3647	894.55	14.6
1055.7052	3263.2595	894.4	16.2
1055.8049	3264.1538	891.35	13
1055.9045	3265.0474	894.4	14.2
1056.0041	3265.9404	891.85	13.3
1056.1036	3266.8329	889.05	12.7
1056.2031	3267.7247	901.85	12.95
1056.3025	3268.616	890.05	12.5
1056.4019	3269.5066	890.75	10.4
1056.5013	3270.3966	893.45	14.15
1056.6005	3271.286	889.05	10.95
