Software Version:	3.9.2.0
Unit SN:	10000200
Spectrometer SN:	6960
Date:	3/8/2024 12:35:18 PM
Data Line Index:	25
Spectral Points:	2048
Integration time (ms):	125
Averages:	20
Delay (ms):	30000
Sequence Number:	1
Processing:	dark subtract
Laser Power (mW):	300
Laser Current (mA):	823
Laser Diode Temp (C):	25
Laser Case Temp (C):	26
System Temp (C):	26
Spectrometer Temp (C):	23.9
CCD Temp (C):	0.005
Secondary Temp (C):	20.013
Heatsink Temp (C):	20.452
CCDPCB Temp (C):	35.762
SecondaryPCB Temp (C):	29.726

Wavelength	RamanShift	Raw Counts	Dark Subtracted
787.061	30.1047	446.4	37.55
787.2016	32.3739	451.35	46.05
787.3422	34.6426	456.3	48
787.4828	36.9109	460.5	50.65
787.6235	39.1787	467.4	53.25
787.7642	41.4461	474.95	56.45
787.9049	43.7131	483.6	63.15
788.0456	45.9796	494.15	70.6
788.1863	48.2456	499.55	70.7
788.3271	50.5112	508.5	77.1
788.4679	52.7764	517.85	82.85
788.6087	55.0411	527.55	87.55
788.7496	57.3054	536.1	90.25
788.8904	59.5692	546.45	100.05
789.0313	61.8326	556.45	106.9
789.1722	64.0955	566.15	114.8
789.3132	66.3579	579.1	120.6
789.4541	68.6199	597.7	136.85
789.5951	70.8815	629.85	161.3
789.7361	73.1426	705.25	235.3
789.8771	75.4032	906.6	433.1
790.0181	77.6634	1382.1	901.65
790.1592	79.9231	2494.45	2007.15
790.3003	82.1824	4887.4	4381.1
790.4414	84.4412	9106.85	8573.3
790.5825	86.6995	14899.9	14328.6
790.7237	88.9574	20441.3	19835.9
790.8648	91.2148	24156.2	23530.35
791.006	93.4717	25765	25127.25
791.1472	95.7282	25943.45	25296.5
791.2885	97.9842	25601.95	24949.75
791.4297	100.2398	24836.2	24179.85
791.571	102.4949	24005.85	23347.7
791.7123	104.7495	23127.35	22468.95
791.8536	107.0036	22237.25	21576.25
791.9949	109.2573	21461.1	20798.65
792.1363	111.5105	20784	20121.5
792.2777	113.7632	20134.65	19471.45
792.4191	116.0154	19626.9	18952.65
792.5605	118.2672	19252.3	18584.45
792.7019	120.5185	18888.75	18218.35
792.8434	122.7693	18593.25	17920.3
792.9849	125.0197	18356.55	17679.2
793.1264	127.2696	18114.95	17431.6
793.2679	129.519	17927.65	17245.35
793.4094	131.7679	17631.4	16943.25
793.551	134.0163	17372.7	16680.05
793.6926	136.2642	17035.6	16337.9
793.8342	138.5117	16701.1	16000.45
793.9758	140.7587	16320.6	15617.45
794.1175	143.0052	15988.95	15287.6
794.2591	145.2512	15657.05	14954.2
794.4008	147.4967	15361.9	14658.35
794.5425	149.7417	15129.95	14426.45
794.6842	151.9863	14953.75	14243.6
794.826	154.2304	14841.5	14124.4
794.9677	156.4739	14692.4	13974.25
795.1095	158.717	14560.65	13841.8
795.2513	160.9596	14413.15	13687.85
795.3931	163.2017	14179.95	13450.55
795.535	165.4433	13924.55	13195.8
795.6768	167.6844	13590.1	12858.6
795.8187	169.925	13318.55	12588.85
795.9606	172.1651	13022.65	12288.7
796.1025	174.4047	12777.8	12040.6
796.2445	176.6439	12544.65	11805.45
796.3864	178.8825	12358.8	11619.55
796.5284	181.1206	12225.15	11478.6
796.6704	183.3582	12114.5	11361.45
796.8124	185.5954	12017.5	11265.75
796.9544	187.832	11953.75	11194
797.0965	190.0681	11918.95	11158.95
797.2386	192.3037	11940.25	11176.65
797.3806	194.5388	11920.65	11152.05
797.5228	196.7734	11936.45	11166.3
797.6649	199.0075	12007.85	11237.85
797.807	201.2411	12105.8	11333.7
797.9492	203.4742	12179.55	11407.65
798.0914	205.7068	12341	11563.05
798.2336	207.9389	12442.45	11662.8
798.3758	210.1704	12574	11800.35
798.518	212.4015	12666.45	11900.45
798.6603	214.632	12771.6	12013.7
798.8025	216.862	12919.3	12166.25
798.9448	219.0915	13034.35	12277.2
799.0871	221.3205	13105.8	12344.15
799.2294	223.549	13190.7	12432.85
799.3718	225.777	13238.45	12484.1
799.5141	228.0044	13326.45	12563.85
799.6565	230.2314	13409.4	12647.8
799.7989	232.4578	13475.5	12713.45
799.9413	234.6837	13558.95	12783.75
800.0837	236.909	13630.45	12855.6
800.2262	239.1339	13613.05	12809.55
800.3687	241.3582	13544.45	12757.95
800.5111	243.582	13507	12687
800.6536	245.8053	13427.9	12623.5
800.7961	248.0281	13398.6	12601.4
800.9387	250.2503	13399.8	12595.7
801.0812	252.472	13457.9	12653.25
801.2238	254.6932	13596.95	12794.85
801.3664	256.9139	13711.5	12904.15
801.509	259.134	13935.55	13128.25
801.6516	261.3536	14149.5	13340.5
801.7942	263.5727	14464.95	13657.35
801.9369	265.7912	14735.9	13928.75
802.0795	268.0092	15017.85	14206.35
802.2222	270.2267	15236.85	14426.35
802.3649	272.4436	15375.95	14565.45
802.5076	274.6601	15393.25	14575.2
802.6504	276.8759	15325.5	14511.5
802.7931	279.0913	15212.4	14398.05
802.9359	281.3061	15075.55	14255.5
803.0787	283.5204	15074.4	14251.5
803.2215	285.7341	15043.1	14219.15
803.3643	287.9473	15056.05	14222.3
803.5071	290.16	15075.85	14247.75
803.6499	292.3721	15131.35	14305.6
803.7928	294.5837	15312.6	14488.55
803.9357	296.7947	15483.15	14657.45
804.0786	299.0052	15599.8	14773.15
804.2215	301.2152	15599.4	14773.25
804.3644	303.4246	15468.85	14644.15
804.5074	305.6334	15173.8	14354
804.6503	307.8418	14852.3	14024.5
804.7933	310.0495	14476.85	13647.45
804.9363	312.2568	14070.15	13239.5
805.0793	314.4635	13708.7	12877.75
805.2223	316.6696	13396.2	12560.4
805.3653	318.8752	13166.55	12326.4
805.5084	321.0802	13077.7	12246.05
805.6514	323.2847	13098.85	12262.7
805.7945	325.4887	13125.75	12286.85
805.9376	327.692	13117.5	12278.5
806.0807	329.8949	13063.95	12224.8
806.2238	332.0972	12930.8	12090.55
806.367	334.2989	12736.1	11894.5
806.5101	336.5001	12525.5	11681.15
806.6533	338.7007	12342.65	11496.6
806.7965	340.9008	12203.55	11358.4
806.9397	343.1003	12046.1	11198.9
807.0829	345.2992	11913.2	11065.9
807.2261	347.4976	11817.6	10968.55
807.3693	349.6955	11748.8	10894.85
807.5126	351.8927	11705.75	10850.3
807.6559	354.0895	11636.8	10769.5
807.7991	356.2856	11601.9	10743.1
807.9424	358.4812	11537.45	10679.9
808.0857	360.6763	11545.15	10688
808.2291	362.8707	11525	10665.85
808.3724	365.0646	11585.5	10721.45
808.5158	367.258	11601.45	10741.3
808.6591	369.4508	11693.25	10826.15
808.8025	371.643	11800.2	10930.3
808.9459	373.8346	11880	11012.35
809.0893	376.0257	11972.75	11102.65
809.2327	378.2162	12024.8	11151.65
809.3762	380.4062	11994.7	11123.45
809.5196	382.5956	11922.25	11052.2
809.6631	384.7844	11837.05	10972.5
809.8066	386.9726	11699.85	10836.8
809.9501	389.1603	11618.6	10759
810.0936	391.3474	11588.9	10692.5
810.2371	393.5339	11538.5	10672.1
810.3806	395.7199	11483.1	10619.25
810.5241	397.9052	11554.2	10691.65
810.6677	400.09	11639.45	10777.15
810.8113	402.2743	11780.25	10917.05
810.9548	404.4579	11926.95	11063.1
811.0984	406.641	12143.2	11277.7
811.2421	408.8235	12264.45	11399.7
811.3857	411.0054	12386.4	11515.1
811.5293	413.1868	12547.6	11675.15
811.673	415.3675	12584.95	11708.35
811.8166	417.5477	12543.7	11666
811.9603	419.7273	12494.85	11616.2
812.104	421.9064	12445	11562.65
812.2477	424.0848	12380.05	11500.9
812.3914	426.2627	12262	11383.2
812.5351	428.4399	12043.55	11167.9
812.6788	430.6166	11752.25	10864.8
812.8226	432.7928	11465.45	10578.15
812.9663	434.9683	11200.6	10318.5
813.1101	437.1432	10985.35	10106.9
813.2539	439.3176	10815.25	9941.6
813.3977	441.4914	10698.75	9831.15
813.5415	443.6645	10678.55	9805.3
813.6853	445.8371	10652.4	9770.65
813.8291	448.0091	10610.6	9730.05
813.973	450.1806	10586.8	9710.5
814.1168	452.3514	10590.4	9712.3
814.2607	454.5216	10603.45	9715.85
814.4046	456.6913	10606.05	9725.9
814.5485	458.8603	10658.05	9782.5
814.6924	461.0288	10673.9	9800.45
814.8363	463.1967	10648.55	9777.1
814.9802	465.3639	10697.3	9819.1
815.1241	467.5306	10652.4	9769.5
815.2681	469.6967	10658.85	9781.4
815.412	471.8622	10655.55	9780.5
815.556	474.0271	10700.75	9820.6
815.7	476.1914	10719.35	9833.85
815.844	478.3551	10755.4	9873.75
815.988	480.5182	10783.75	9902.1
816.132	482.6807	10880.5	10010.1
816.276	484.8426	11055.5	10191.5
816.4201	487.0039	11343.9	10469.15
816.5641	489.1647	11694.65	10816.85
816.7082	491.3248	11978.1	11093.85
816.8522	493.4843	12092.8	11213.45
816.9963	495.6432	12035.6	11158.55
817.1404	497.8015	11898	11005.8
817.2845	499.9592	11786.1	10892.35
817.4286	502.1163	11586.25	10688.75
817.5727	504.2728	11320.9	10430.85
817.7168	506.4287	11073.4	10199.1
817.861	508.5839	10808.5	9932.05
818.0051	510.7386	10642.45	9761.55
818.1493	512.8927	10576.85	9681.2
818.2935	515.0461	10552.1	9663.2
818.4377	517.199	10616	9724.1
818.5818	519.3512	10780.35	9890.45
818.726	521.5029	11085.95	10194.1
818.8703	523.6539	11304.25	10411.95
819.0145	525.8043	11420.3	10527.1
819.1587	527.9541	11356.65	10462.8
819.303	530.1033	11188.65	10294.6
819.4472	532.2519	11015.7	10121.85
819.5915	534.3999	10934.55	10039.8
819.7357	536.5472	10985.25	10094.55
819.88	538.694	11149.65	10264.15
820.0243	540.8401	11354.25	10458.85
820.1686	542.9856	11515.45	10610.2
820.3129	545.1305	11557.1	10647.15
820.4572	547.2748	11466.1	10555.35
820.6016	549.4185	11341.15	10426.15
820.7459	551.5615	11263.7	10353.65
820.8902	553.704	11267.15	10358.5
821.0346	555.8458	11332.65	10429.8
821.1789	557.987	11517.45	10616.95
821.3233	560.1276	11743.45	10839.8
821.4677	562.2675	12111.35	11206.8
821.6121	564.4069	12627.5	11718.4
821.7565	566.5456	13084.15	12182.05
821.9009	568.6837	13250.6	12348.3
822.0453	570.8212	12893.1	11992.35
822.1897	572.958	12228.55	11325.4
822.3342	575.0942	11627.85	10730.1
822.4786	577.2299	11174.45	10277.85
822.6231	579.3648	10973.55	10089.85
822.7675	581.4992	10899.65	10021.75
822.912	583.6329	10970.3	10096.4
823.0565	585.766	11102.7	10220.45
823.201	587.8985	11253.65	10366.5
823.3454	590.0304	11316.5	10397.95
823.4899	592.1616	11288.15	10382.4
823.6345	594.2922	11170.65	10265.55
823.779	596.4222	11009.95	10096
823.9235	598.5515	10811.7	9903.1
824.068	600.6802	10654.85	9747.5
824.2126	602.8083	10508.65	9603.4
824.3571	604.9358	10533.5	9624
824.5017	607.0626	10556.95	9646
824.6462	609.1888	10667.65	9754.75
824.7908	611.3144	10823.55	9905.85
824.9354	613.4393	10936.4	10019.4
825.08	615.5636	11058.25	10142.65
825.2246	617.6873	11091.9	10176.9
825.3692	619.8103	11051.25	10135.4
825.5138	621.9327	10827.55	9914.5
825.6584	624.0544	10627.45	9718.6
825.803	626.1756	10419.95	9509.9
825.9477	628.2961	10310	9397.15
826.0923	630.4159	10234.5	9320.5
826.237	632.5351	10213.1	9295.85
826.3816	634.6537	10177	9257.45
826.5263	636.7716	10200.8	9279.7
826.6709	638.8889	10211.35	9287.75
826.8156	641.0056	10236.85	9317.25
826.9603	643.1216	10214.15	9294.1
827.105	645.237	10189.65	9271.2
827.2497	647.3518	10091.2	9178.35
827.3944	649.4659	10030.95	9122.35
827.5391	651.5793	9977.5	9069.15
827.6838	653.6922	9943.85	9034.7
827.8285	655.8043	9923.25	9013.4
827.9733	657.9159	9917	9004.25
828.118	660.0268	9900.15	8983.15
828.2627	662.137	9915.3	8995.3
828.4075	664.2466	9919.9	8998.65
828.5522	666.3556	9930	9007.55
828.697	668.4639	9890	8976.35
828.8418	670.5716	9825.2	8915
828.9865	672.6786	9793.15	8877.7
829.1313	674.785	9729.6	8808.35
829.2761	676.8907	9718.25	8798.3
829.4209	678.9958	9728.45	8815.3
829.5657	681.1002	9682.7	8763.45
829.7105	683.204	9677.4	8748.8
829.8553	685.3072	9658.1	8730.2
830.0001	687.4097	9629.25	8705.25
830.1449	689.5115	9655.05	8731.95
830.2898	691.6127	9660.35	8740.9
830.4346	693.7132	9644.55	8728.3
830.5794	695.8131	9684.65	8744.15
830.7243	697.9123	9695.65	8767.25
830.8691	700.0109	9716.2	8787.85
831.014	702.1089	9764.45	8839.2
831.1588	704.2061	9809.1	8885
831.3037	706.3028	9870.45	8946
831.4486	708.3987	9912.5	8984.75
831.5935	710.4941	9928	9004.75
831.7383	712.5887	9970.45	9050
831.8832	714.6827	9996.5	9068.35
832.0281	716.7761	10078.9	9156.45
832.173	718.8688	10242.6	9318.2
832.3179	720.9608	10356.8	9424.65
832.4628	723.0522	10488	9553.5
832.6077	725.1429	10562.25	9631.35
832.7527	727.233	10670.5	9744.35
832.8976	729.3224	10756	9828.5
833.0425	731.4112	10730.55	9802.5
833.1874	733.4993	10577.5	9649.15
833.3324	735.5867	10366.25	9441.4
833.4773	737.6735	10183.5	9253.5
833.6222	739.7596	9987.25	9056.85
833.7672	741.845	9836	8908.4
833.9122	743.9298	9776.35	8849.35
834.0571	746.014	9722	8795.75
834.2021	748.0974	9735	8799.55
834.347	750.1802	9715.15	8780.1
834.492	752.2624	9719.15	8788.1
834.637	754.3439	9801.6	8868.9
834.782	756.4247	9900.55	8957.05
834.9269	758.5048	10061.95	9126.7
835.0719	760.5843	10304.65	9372.15
835.2169	762.6631	10689.4	9751.65
835.3619	764.7413	11224.9	10290.5
835.5069	766.8188	11882.25	10948.1
835.6519	768.8956	12407.1	11473.55
835.7969	770.9718	12783.4	11852.2
835.9419	773.0473	12729.35	11797.15
836.0869	775.1221	12507	11575.9
836.232	777.1962	12270.05	11337.6
836.377	779.2697	12219.45	11286.3
836.522	781.3426	12276.25	11330.45
836.667	783.4147	12348.6	11414.85
836.8121	785.4862	12393.5	11459.9
836.9571	787.557	12208	11272.45
837.1021	789.6271	11756.6	10818.65
837.2472	791.6966	11210.6	10275.75
837.3922	793.7654	10645.35	9710.65
837.5373	795.8335	10246.8	9312
837.6823	797.901	9966.45	9029.5
837.8274	799.9678	9774.2	8834.9
837.9724	802.0339	9661.2	8727.2
838.1175	804.0993	9663.5	8718.65
838.2626	806.1641	9599.2	8660.55
838.4076	808.2282	9509.85	8571.65
838.5527	810.2916	9446.3	8509.35
838.6978	812.3544	9406.9	8472.15
838.8428	814.4164	9349	8415.55
838.9879	816.4778	9375.7	8436.3
839.133	818.5385	9428.7	8492.5
839.2781	820.5986	9546.5	8604.25
839.4232	822.658	9782.7	8841.7
839.5682	824.7166	10124.9	9185.55
839.7133	826.7747	10619.55	9680.05
839.8584	828.832	11168.95	10229.35
840.0035	830.8886	11532.5	10590.65
840.1486	832.9446	11712	10770.1
840.2937	834.9999	11571.4	10632.85
840.4388	837.0545	11264	10323.65
840.5839	839.1085	10933.25	9990.2
840.729	841.1618	10612.4	9670.35
840.8741	843.2143	10336.2	9397.05
841.0192	845.2662	10139.5	9197.3
841.1643	847.3175	9991.15	9051.45
841.3095	849.368	9881.85	8941.3
841.4546	851.4179	9823.2	8884.75
841.5997	853.467	9712.1	8772.15
841.7448	855.5155	9663.5	8723.15
841.8899	857.5633	9585.1	8646.85
842.0351	859.6105	9523.8	8582.9
842.1802	861.6569	9460.9	8520.45
842.3253	863.7027	9391.2	8448.45
842.4704	865.7478	9354.6	8409.15
842.6156	867.7922	9310.8	8365.5
842.7607	869.8359	9290.85	8346.15
842.9058	871.8789	9300.15	8355.9
843.0509	873.9212	9389.7	8417.25
843.1961	875.9629	9428.05	8482.35
843.3412	878.0039	9522	8579.05
843.4863	880.0441	9606.25	8663.95
843.6315	882.0837	9655.6	8714.75
843.7766	884.1226	9691.8	8746.65
843.9218	886.1609	9760.6	8820.35
844.0669	888.1984	9870.1	8926.45
844.212	890.2352	10020.65	9080.1
844.3572	892.2714	10056.45	9106.8
844.5023	894.3069	10021.3	9073.95
844.6475	896.3416	9855.55	8911.95
844.7926	898.3757	9697.55	8752.75
844.9377	900.4091	9607.75	8659.3
845.0829	902.4418	9600.75	8646.35
845.228	904.4739	9624.25	8675.6
845.3732	906.5052	9687.05	8742.05
845.5183	908.5358	9653.1	8707.55
845.6635	910.5658	9532.4	8582.65
845.8086	912.595	9322	8376.7
845.9538	914.6236	9129.15	8183.55
846.0989	916.6515	9002.35	8054.8
846.2441	918.6786	8921.4	7973.25
846.3892	920.7051	8897.1	7947.8
846.5344	922.7309	8930.35	7983.7
846.6795	924.756	8949.25	8006.35
846.8246	926.7804	9022.25	8075.7
846.9698	928.8041	8990.65	8044.25
847.1149	930.8272	9080.65	8134.15
847.2601	932.8495	9046	8099.3
847.4052	934.8711	9061.1	8115.6
847.5504	936.892	9040.3	8092.4
847.6955	938.9123	9050.75	8103.9
847.8407	940.9318	9054.2	8107.6
847.9858	942.9506	9055.95	8108.05
848.131	944.9688	9002.85	8056.7
848.2761	946.9862	8922.95	7977.2
848.4213	949.003	8827	7877.85
848.5664	951.019	8713.55	7769.45
848.7115	953.0344	8656.8	7713.6
848.8567	955.0491	8606.6	7659.4
849.0018	957.063	8625.75	7679.25
849.147	959.0763	8701.85	7758.9
849.2921	961.0888	8711.9	7765.25
849.4373	963.1007	8775.65	7833.5
849.5824	965.1119	8776.35	7837.55
849.7275	967.1223	8777.4	7848.85
849.8727	969.1321	8754.65	7822.3
850.0178	971.1412	8752.7	7817.15
850.1629	973.1495	8730.3	7789.25
850.3081	975.1572	8768.9	7772.05
850.4532	977.1641	8754.7	7806.55
850.5983	979.1704	8744.4	7796.15
850.7435	981.1759	8717.8	7767.95
850.8886	983.1808	8716.75	7770.45
851.0337	985.1849	8718.8	7762.2
851.1788	987.1884	8767.55	7821.05
851.324	989.1911	8863.7	7917.3
851.4691	991.1932	8893.75	7946.35
851.6142	993.1945	8894.15	7946.85
851.7593	995.1951	8867.35	7922.35
851.9045	997.1951	8871.2	7919.2
852.0496	999.1943	8837.05	7887.7
852.1947	1001.1928	8817.45	7869.55
852.3398	1003.1906	8864.35	7920.75
852.4849	1005.1877	8986.3	8039.15
852.63	1007.1841	9050.9	8111.45
852.7751	1009.1798	9114.8	8169.95
852.9202	1011.1748	9022.5	8076.45
853.0653	1013.1691	8918.25	7968.45
853.2104	1015.1627	8741.25	7798.25
853.3555	1017.1556	8547.15	7604.65
853.5006	1019.1477	8438.7	7495.7
853.6457	1021.1392	8333.9	7398.3
853.7908	1023.1299	8300.95	7367.45
853.9359	1025.12	8291.45	7365.25
854.081	1027.1093	8362	7443.35
854.2261	1029.0979	8427.65	7513.75
854.3712	1031.0859	8538.05	7616.05
854.5163	1033.0731	8585.9	7653.55
854.6613	1035.0596	8529.9	7592.75
854.8064	1037.0454	8449.5	7510.8
854.9515	1039.0304	8383.1	7442.7
855.0965	1041.0148	8290.05	7345.9
855.2416	1042.9985	8189.2	7245.2
855.3867	1044.9814	8153.25	7212.85
855.5317	1046.9636	8104.45	7159.55
855.6768	1048.9452	8097.75	7155.95
855.8219	1050.926	8147.55	7206.8
855.9669	1052.9061	8164	7222.05
856.112	1054.8855	8176.5	7229.7
856.257	1056.8642	8226.15	7279.65
856.4021	1058.8421	8263.7	7317.85
856.5471	1060.8194	8276.65	7335.3
856.6921	1062.7959	8323.65	7377.55
856.8372	1064.7717	8385.9	7440.5
856.9822	1066.7469	8477.4	7533
857.1272	1068.7213	8531.65	7588.1
857.2723	1070.695	8638.55	7696.9
857.4173	1072.6679	8670.75	7724.65
857.5623	1074.6402	8709.85	7765.05
857.7073	1076.6117	8662.05	7710.75
857.8523	1078.5826	8541.95	7595.2
857.9973	1080.5527	8422.95	7475.65
858.1423	1082.5221	8324.2	7380.45
858.2873	1084.4908	8259.85	7317.75
858.4323	1086.4587	8233.95	7289.6
858.5773	1088.426	8290.55	7346.95
858.7223	1090.3925	8294.55	7343.85
858.8673	1092.3584	8308.75	7368.1
859.0123	1094.3235	8353.3	7411.85
859.1573	1096.2879	8451.65	7509.3
859.3022	1098.2515	8588	7645.45
859.4472	1100.2145	8744.15	7804.15
859.5922	1102.1767	8914.1	7969.15
859.7371	1104.1382	9126.3	8182.7
859.8821	1106.099	9384.6	8441.15
860.027	1108.0591	9563.75	8623.55
860.172	1110.0185	9695.45	8752.1
860.3169	1111.9771	9801.9	8859.6
860.4619	1113.9351	9715.05	8772.7
860.6068	1115.8923	9627.05	8682.25
860.7517	1117.8488	9514.3	8568.15
860.8967	1119.8045	9387.75	8444.1
861.0416	1121.7596	9227.85	8289.55
861.1865	1123.7139	9103.1	8163.55
861.3314	1125.6675	9048.25	8106.05
861.4763	1127.6204	9074.55	8132.75
861.6212	1129.5726	9028.75	8081
861.7661	1131.524	8942.65	8001
861.911	1133.4748	8818.4	7873.3
862.0559	1135.4248	8614.2	7673.1
862.2008	1137.3741	8461.9	7523.75
862.3457	1139.3226	8359.35	7416.95
862.4905	1141.2705	8334.1	7393.35
862.6354	1143.2176	8240.55	7295.5
862.7803	1145.164	8214.95	7270.55
862.9251	1147.1097	8133.2	7190.05
863.07	1149.0546	8027.5	7087.5
863.2148	1150.9989	7919.85	6976.75
863.3597	1152.9424	7831.9	6888.7
863.5045	1154.8852	7768.9	6826.6
863.6493	1156.8272	7739.6	6802.15
863.7942	1158.7686	7779.35	6832.05
863.939	1160.7092	7781.15	6837
864.0838	1162.6491	7819.65	6875.5
864.2286	1164.5883	7929.2	6986.2
864.3734	1166.5267	8035.85	7093.3
864.5182	1168.4644	8203.35	7260.85
864.663	1170.4014	8376.85	7432.1
864.8078	1172.3377	8601.6	7659.6
864.9526	1174.2732	8879.2	7940.65
865.0974	1176.2081	9288	8353
865.2421	1178.1421	9783.6	8838.6
865.3869	1180.0755	10324.1	9385.75
865.5317	1182.0082	10675.5	9736.8
865.6764	1183.9401	10864	9928.05
865.8212	1185.8713	10671.85	9738.2
865.9659	1187.8017	10386.7	9462.65
866.1106	1189.7315	9988.85	9068.35
866.2554	1191.6605	9618.75	8699.2
866.4001	1193.5888	9337.05	8414.4
866.5448	1195.5163	9186.25	8256.25
866.6895	1197.4432	9104.15	8167.95
866.8342	1199.3693	9051.4	8110.35
866.9789	1201.2947	8990.2	8050.8
867.1236	1203.2193	8972.35	8034.3
867.2683	1205.1432	8954.75	8017.8
867.413	1207.0664	8896.5	7959.65
867.5576	1208.9889	8899.85	7962.15
867.7023	1210.9106	8884.65	7947.1
867.847	1212.8316	8862.75	7924.5
867.9916	1214.7519	8901.5	7955.4
868.1363	1216.6715	8928.7	7988.3
868.2809	1218.5903	8996.75	8058.35
868.4255	1220.5084	9106.4	8167.75
868.5701	1222.4257	9204.8	8268.75
868.7148	1224.3424	9252.65	8320.8
868.8594	1226.2583	9392.85	8454
869.004	1228.1735	9524.8	8588.5
869.1486	1230.0879	9685.5	8750.55
869.2932	1232.0016	9879.2	8944.3
869.4377	1233.9146	10001.2	9062.85
869.5823	1235.8269	10081.1	9143.85
869.7269	1237.7384	10038.8	9101.6
869.8715	1239.6492	9953.8	9018.7
870.016	1241.5592	9934.9	8996.95
870.1606	1243.4686	9976.8	9040.45
870.3051	1245.3772	10202.55	9269.15
870.4496	1247.285	10466.65	9528.75
870.5941	1249.1922	10645.9	9710.45
870.7387	1251.0986	10836.8	9899.6
870.8832	1253.0042	10938.75	10005.3
871.0277	1254.9092	11060.3	10126.5
871.1722	1256.8134	11140.65	10208.75
871.3167	1258.7169	11282.45	10348.45
871.4611	1260.6196	11416.2	10482.8
871.6056	1262.5216	11604.75	10670
871.7501	1264.4229	11797.3	10866.75
871.8945	1266.3234	11988.6	11054.65
872.039	1268.2232	12109.95	11171.85
872.1834	1270.1223	12194.95	11258.15
872.3278	1272.0207	12224.5	11288.6
872.4723	1273.9183	12217.7	11278.8
872.6167	1275.8151	12150.3	11217.75
872.7611	1277.7113	12190.95	11254.3
872.9055	1279.6067	12264.55	11330.65
873.0499	1281.5014	12559.7	11624.8
873.1943	1283.3953	13003.2	12063.75
873.3386	1285.2885	13537.2	12606.7
873.483	1287.181	14127	13194.5
873.6274	1289.0727	14674.85	13741.4
873.7717	1290.9637	15011.1	14079
873.9161	1292.854	15265.25	14332.4
874.0604	1294.7435	15199.35	14266.9
874.2047	1296.6323	15093.15	14159.9
874.349	1298.5204	14868.25	13931.9
874.4933	1300.4077	14567.45	13631.1
874.6376	1302.2943	14259.45	13326.45
874.7819	1304.1802	13933.4	13000.05
874.9262	1306.0653	13442.1	12506.6
875.0705	1307.9497	12940.65	12007.45
875.2147	1309.8333	12515.5	11580.75
875.359	1311.7162	12149.7	11214.6
875.5032	1313.5984	11952.55	11014.55
875.6475	1315.4798	11805.75	10872.55
875.7917	1317.3605	11691.05	10741.7
875.9359	1319.2405	11544.35	10608.15
876.0801	1321.1197	11268.95	10333.25
876.2243	1322.9982	10966.3	10025.75
876.3685	1324.876	10664.1	9731.8
876.5127	1326.753	10345.5	9410.6
876.6569	1328.6293	10153.4	9218.5
876.801	1330.5048	9961.6	9022.8
876.9452	1332.3796	9771.3	8835.45
877.0893	1334.2537	9673	8714.45
877.2335	1336.127	9585.5	8650.5
877.3776	1337.9996	9514.15	8581.15
877.5217	1339.8714	9505.1	8567.65
877.6658	1341.7426	9560.75	8583
877.8099	1343.6129	9536.95	8601.55
877.954	1345.4826	9529.45	8596.5
878.0981	1347.3515	9535.7	8595.75
878.2422	1349.2196	9525.5	8589.6
878.3862	1351.087	9558.25	8623.1
878.5303	1352.9537	9595.65	8661.7
878.6743	1354.8197	9702.75	8769.95
878.8184	1356.6849	9827.55	8893.35
878.9624	1358.5493	9989.6	9058.95
879.1064	1360.4131	10169.05	9236.6
879.2504	1362.276	10301.7	9369.95
879.3944	1364.1383	10342.05	9408
879.5384	1365.9998	10230.25	9289.45
879.6823	1367.8606	9929.25	8995.8
879.8263	1369.7206	9600.25	8665.6
879.9702	1371.5799	9288.75	8353.1
880.1142	1373.4384	9041.8	8106.35
880.2581	1375.2962	8805.95	7871.5
880.402	1377.1533	8483.1	7551.35
880.5459	1379.0096	8151.95	7222.5
880.6898	1380.8652	7850.1	6923.5
880.8337	1382.7201	7597.55	6667.35
880.9776	1384.5742	7360.4	6429.15
881.1215	1386.4275	7183.9	6251.45
881.2653	1388.2802	7045.15	6111.65
881.4092	1390.132	6925.6	5990.1
881.553	1391.9832	6875.9	5942.85
881.6968	1393.8336	6811.15	5872.9
881.8406	1395.6832	6783	5849.9
881.9844	1397.5322	6739.95	5807.95
882.1282	1399.3803	6701.8	5762.75
882.272	1401.2278	6655.95	5724.8
882.4158	1403.0745	6668.75	5738.65
882.5595	1404.9204	6633	5706.35
882.7033	1406.7656	6655.35	5724.55
882.847	1408.6101	6660.6	5728.6
882.9908	1410.4538	6675.95	5744.8
883.1345	1412.2968	6711.8	5780.55
883.2782	1414.139	6758.55	5825.3
883.4219	1415.9805	6829.3	5896.8
883.5656	1417.8213	6897.15	5960.35
883.7092	1419.6613	6967.25	6038.15
883.8529	1421.5006	7099.35	6168.6
883.9965	1423.3391	7276.95	6346.2
884.1402	1425.1769	7512.5	6583.2
884.2838	1427.0139	7885.65	6955.8
884.4274	1428.8502	8368.65	7436.8
884.571	1430.6858	8838.45	7908.05
884.7146	1432.5206	9217.75	8288.45
884.8582	1434.3547	9387.2	8454.3
885.0018	1436.188	9393.95	8463.3
885.1453	1438.0206	9368.05	8435
885.2889	1439.8524	9191.75	8264.25
885.4324	1441.6835	9089.55	8158.8
885.5759	1443.5139	9008.95	8077.55
885.7194	1445.3435	8943.15	8014.9
885.8629	1447.1724	8905.15	7979.45
886.0064	1449.0005	8889.7	7959.3
886.1499	1450.8279	8843.4	7914.7
886.2933	1452.6545	8813.7	7887.8
886.4368	1454.4804	8870.65	7943.8
886.5802	1456.3056	8870.45	7939.25
886.7237	1458.13	8812.5	7887.75
886.8671	1459.9536	8667.1	7738.7
887.0105	1461.7766	8420.45	7491
887.1539	1463.5987	8136.05	7204.1
887.2972	1465.4202	7848.95	6919.2
887.4406	1467.2409	7563.95	6635.65
887.584	1469.0608	7347.35	6419.3
887.7273	1470.88	7076.25	6147.45
887.8706	1472.6984	6884.85	5960.2
888.0139	1474.5161	6682.2	5750.05
888.1572	1476.3331	6571.45	5646.5
888.3005	1478.1493	6471.5	5543.3
888.4438	1479.9648	6400.4	5474
888.5871	1481.7795	6324.35	5397.15
888.7303	1483.5935	6274.8	5349.25
888.8736	1485.4067	6227.75	5301.7
889.0168	1487.2192	6206.4	5281.25
889.16	1489.031	6174.35	5244.6
889.3032	1490.842	6133.8	5205.9
889.4464	1492.6522	6121	5196.35
889.5896	1494.4618	6073.55	5150
889.7327	1496.2705	6047.5	5122.15
889.8759	1498.0785	6024.15	5098.1
890.019	1499.8858	5972.5	5044.5
890.1622	1501.6924	5922.15	4995.15
890.3053	1503.4981	5904.85	4981.8
890.4484	1505.3032	5852.3	4928.65
890.5914	1507.1075	5794.4	4865.25
890.7345	1508.911	5771.35	4846.55
890.8776	1510.7138	5739.55	4812.3
891.0206	1512.5159	5683.05	4758.4
891.1637	1514.3172	5658.4	4734.5
891.3067	1516.1178	5587.7	4666.3
891.4497	1517.9176	5565.3	4640.1
891.5927	1519.7166	5575.15	4652.95
891.7357	1521.515	5530.7	4596.85
891.8786	1523.3126	5491.85	4568.1
892.0216	1525.1094	5497.1	4570.55
892.1645	1526.9055	5458.9	4536.7
892.3074	1528.7008	5424	4504
892.4503	1530.4954	5403.8	4480.3
892.5932	1532.2893	5384.4	4465.2
892.7361	1534.0824	5378.95	4456.75
892.879	1535.8747	5371.5	4453.6
893.0218	1537.6663	5372.25	4450.05
893.1647	1539.4572	5367.65	4446.8
893.3075	1541.2473	5392.1	4473.1
893.4503	1543.0367	5383.75	4464.35
893.5931	1544.8253	5389.4	4464.7
893.7359	1546.6132	5437.2	4513.1
893.8787	1548.4003	5463	4533.3
894.0214	1550.1867	5527.9	4597.2
894.1642	1551.9723	5591.15	4670.55
894.3069	1553.7572	5689.75	4773.1
894.4496	1555.5414	5772.5	4855.65
894.5923	1557.3247	5921.55	5005.5
894.735	1559.1074	6092	5180.4
894.8777	1560.8893	6257.1	5345.75
895.0204	1562.6705	6417.1	5502.25
895.163	1564.4509	6544	5629.45
895.3056	1566.2305	6595.2	5682.15
895.4482	1568.0094	6660.05	5749.35
895.5908	1569.7876	6647.8	5736.85
895.7334	1571.565	6619.95	5707.45
895.876	1573.3417	6611.3	5697.05
896.0186	1575.1176	6604.85	5695.85
896.1611	1576.8928	6610.35	5703.5
896.3036	1578.6672	6631.35	5726.5
896.4461	1580.4409	6678.7	5776.8
896.5886	1582.2138	6729	5817.2
896.7311	1583.986	6792.55	5883.5
896.8736	1585.7575	6895.45	5985.9
897.0161	1587.5282	7009.1	6102.55
897.1585	1589.2981	7137	6232.95
897.3009	1591.0673	7209.5	6305.4
897.4433	1592.8358	7348.15	6444.75
897.5857	1594.6035	7460.1	6551.6
897.7281	1596.3704	7572.15	6661.25
897.8705	1598.1366	7661.65	6753.3
898.0128	1599.9021	7762.45	6854.3
898.1551	1601.6668	7852.65	6944.05
898.2975	1603.4308	7963.55	7052.65
898.4398	1605.194	8146.55	7232.7
898.5821	1606.9564	8334.4	7432.8
898.7243	1608.7182	8580.6	7677
898.8666	1610.4791	8871	7977.2
899.0088	1612.2394	9201.7	8307.9
899.1511	1613.9988	9498.5	8601.25
899.2933	1615.7576	9773.35	8870.25
899.4355	1617.5156	9973.35	9059.75
899.5776	1619.2728	10062.25	9153.05
899.7198	1621.0293	9900.8	8990.9
899.862	1622.785	9654.85	8746.7
900.0041	1624.54	9311.2	8408.35
900.1462	1626.2942	8928.05	8028.2
900.2883	1628.0477	8497.3	7596.8
900.4304	1629.8005	8133.25	7227.5
900.5725	1631.5525	7755.7	6854.15
900.7145	1633.3037	7501.55	6601.5
900.8566	1635.0542	7247.45	6347.2
900.9986	1636.804	7061	6158.55
901.1406	1638.553	7016.45	6028
901.2826	1640.3013	6865.45	5964.4
901.4245	1642.0488	6813.35	5911.05
901.5665	1643.7955	6810.8	5914.7
901.7085	1645.5416	6852.4	5953.9
901.8504	1647.2868	6939.55	6039.6
901.9923	1649.0313	7037.9	6132.4
902.1342	1650.7751	7167.25	6262.05
902.2761	1652.5181	7309.5	6409.6
902.4179	1654.2604	7447	6548.85
902.5598	1656.0019	7627.9	6729.85
902.7016	1657.7427	7872.85	6973.95
902.8434	1659.4828	8097.4	7197.65
902.9852	1661.222	8250	7346.7
903.127	1662.9606	8226.1	7325.65
903.2687	1664.6984	8028.8	7128.2
903.4105	1666.4354	7665.7	6762
903.5522	1668.1717	7154.65	6250.65
903.6939	1669.9072	6651.15	5745.8
903.8356	1671.642	6233	5325.5
903.9773	1673.3761	5869.1	4970
904.119	1675.1094	5576.3	4677.05
904.2606	1676.8419	5338.25	4437.65
904.4022	1678.5737	5149.15	4244.95
904.5439	1680.3048	5011.35	4110.75
904.6855	1682.0351	4865.5	3965.45
904.827	1683.7646	4772.2	3865.35
904.9686	1685.4934	4706.25	3805.6
905.1101	1687.2215	4623.35	3722.85
905.2517	1688.9488	4553.75	3654.85
905.3932	1690.6754	4513.95	3614.75
905.5347	1692.4012	4459.1	3558.35
905.6761	1694.1263	4401.1	3498.5
905.8176	1695.8506	4367.4	3465.65
905.9591	1697.5742	4330.65	3433.3
906.1005	1699.297	4272.6	3375.9
906.2419	1701.0191	4243.95	3349.25
906.3833	1702.7404	4221.05	3325.4
906.5246	1704.461	4177.2	3277.8
906.666	1706.1808	4142.6	3243.9
906.8073	1707.8999	4120.8	3223.45
906.9487	1709.6182	4102.5	3207.85
907.09	1711.3358	4070.5	3176.75
907.2313	1713.0527	4058.6	3165.85
907.3725	1714.7688	4035.05	3136.95
907.5138	1716.4841	4010.1	3113.65
907.655	1718.1987	4001.45	3101.05
907.7962	1719.9126	3970.55	3078.5
907.9374	1721.6257	3951	3055.8
908.0786	1723.338	3960.65	3067.5
908.2198	1725.0496	3926.9	3032
908.3609	1726.7605	3926.9	3028.25
908.502	1728.4706	3904.95	3007.5
908.6431	1730.18	3898.05	3001.55
908.7842	1731.8886	3892.9	3000.35
908.9253	1733.5964	3891.95	2978.6
909.0664	1735.3036	3849.3	2953.75
909.2074	1737.0099	3832.6	2938.9
909.3484	1738.7156	3809.15	2918.2
909.4894	1740.4204	3800.4	2902.25
909.6304	1742.1246	3769.2	2873.05
909.7714	1743.8279	3761.05	2864.4
909.9123	1745.5306	3746.3	2852.35
910.0532	1747.2325	3731.6	2839.6
910.1941	1748.9336	3709.1	2815.7
910.335	1750.634	3697.7	2802.55
910.4759	1752.3336	3685.05	2792.7
910.6168	1754.0325	3665.1	2774.4
910.7576	1755.7307	3650.8	2758.1
910.8984	1757.4281	3659.35	2766.65
911.0392	1759.1247	3645	2738
911.18	1760.8206	3652.1	2751.2
911.3208	1762.5158	3652.85	2752.3
911.4615	1764.2102	3622.65	2728.5
911.6022	1765.9039	3607.75	2714.75
911.7429	1767.5968	3594.25	2705.4
911.8836	1769.289	3593.55	2701.45
912.0243	1770.9804	3575	2680.25
912.1649	1772.6711	3588.95	2691.9
912.3056	1774.361	3561.3	2661.2
912.4462	1776.0502	3549.85	2653.45
912.5868	1777.7386	3561.15	2663.6
912.7274	1779.4263	3550.65	2657.35
912.8679	1781.1132	3540.7	2649.95
913.0084	1782.7994	3527.55	2634.45
913.149	1784.4849	3520.4	2629.5
913.2895	1786.1696	3538.5	2628.4
913.4299	1787.8535	3512.65	2622.35
913.5704	1789.5367	3498.6	2608.75
913.7108	1791.2192	3488.45	2596.75
913.8513	1792.9009	3494.1	2576.4
913.9917	1794.5818	3488.15	2591.95
914.132	1796.2621	3464	2570.6
914.2724	1797.9415	3456.9	2562.9
914.4128	1799.6202	3442.05	2548.25
914.5531	1801.2982	3439.55	2544.5
914.6934	1802.9755	3445.2	2549.3
914.8337	1804.6519	3447.45	2553.85
914.9739	1806.3277	3432.1	2537.9
915.1142	1808.0027	3425.5	2537.1
915.2544	1809.6769	3422.6	2535.45
915.3946	1811.3504	3396.85	2507.55
915.5348	1813.0231	3406.1	2516.35
915.675	1814.6951	3381	2491.25
915.8151	1816.3664	3396.35	2503.8
915.9553	1818.0369	3389.35	2496.95
916.0954	1819.7067	3364.45	2471.55
916.2355	1821.3757	3378.05	2481.5
916.3755	1823.044	3365.6	2471.75
916.5156	1824.7115	3364.95	2470.85
916.6556	1826.3783	3350.2	2458.15
916.7956	1828.0443	3345.75	2454.25
916.9356	1829.7096	3336.55	2443.65
917.0756	1831.3741	3338.9	2442.15
917.2155	1833.0379	3334.35	2443.3
917.3555	1834.701	3327.55	2436.1
917.4954	1836.3633	3310.05	2420.6
917.6353	1838.0248	3313.65	2423.45
917.7751	1839.6856	3320.05	2428.85
917.915	1841.3457	3303.1	2410.8
918.0548	1843.005	3310.15	2417.45
918.1946	1844.6636	3302.5	2411.15
918.3344	1846.3214	3289.75	2397.65
918.4742	1847.9785	3280.2	2390.7
918.6139	1849.6349	3273.75	2379.3
918.7537	1851.2904	3280.7	2379.1
918.8934	1852.9453	3265.35	2370.35
919.0331	1854.5994	3259.55	2362.5
919.1727	1856.2528	3259.35	2361.7
919.3124	1857.9054	3245.75	2354.45
919.452	1859.5572	3240.4	2349.2
919.5916	1861.2083	3247.15	2353.95
919.7312	1862.8587	3233.75	2340.1
919.8708	1864.5084	3235.95	2340.65
920.0103	1866.1572	3227.25	2333.85
920.1498	1867.8054	3214	2320.6
920.2893	1869.4528	3219.15	2324.4
920.4288	1871.0994	3208.6	2316
920.5683	1872.7453	3199.9	2305.4
920.7077	1874.3905	3196.25	2296.35
920.8471	1876.0349	3175.85	2280.65
920.9865	1877.6786	3180.45	2287.95
921.1259	1879.3215	3196	2300.85
921.2653	1880.9637	3190.9	2297.55
921.4046	1882.6051	3165.55	2272.9
921.5439	1884.2458	3175.85	2283.8
921.6832	1885.8858	3166.8	2275.2
921.8225	1887.525	3153.35	2260.6
921.9617	1889.1634	3141.15	2247.9
922.101	1890.8011	3129.5	2234.65
922.2402	1892.4381	3134.85	2242.8
922.3794	1894.0743	3114.15	2220.8
922.5185	1895.7098	3104.9	2213.8
922.6577	1897.3446	3121.5	2227.25
922.7968	1898.9786	3124.7	2228.75
922.9359	1900.6118	3100.75	2209.75
923.075	1902.2443	3085.15	2194.7
923.214	1903.8761	3081.5	2191.25
923.3531	1905.5071	3062.2	2169.5
923.4921	1907.1374	3060.45	2169.05
923.6311	1908.7669	3053.35	2163.65
923.77	1910.3957	3067.5	2177.45
923.909	1912.0237	3045.55	2153.65
924.0479	1913.651	3047.85	2153.85
924.1868	1915.2776	3035.6	2144.3
924.3257	1916.9034	3025.7	2136.6
924.4646	1918.5285	3017.8	2129.25
924.6034	1920.1528	3005.25	2115.05
924.7422	1921.7764	3014.7	2124.6
924.881	1923.3992	2995.5	2104.15
925.0198	1925.0213	2994.05	2101.75
925.1586	1926.6427	2972.55	2083
925.2973	1928.2633	3040.15	2063.65
925.436	1929.8832	2977.7	2084.6
925.5747	1931.5023	2957.8	2066.95
925.7134	1933.1207	2967.8	2078.85
925.852	1934.7383	2954.2	2062.7
925.9906	1936.3552	2940.45	2050.05
926.1292	1937.9714	2930.1	2038.85
926.2678	1939.5868	2928.45	2034.45
926.4064	1941.2015	2911.5	2018.35
926.5449	1942.8154	2912.3	2018.3
926.6834	1944.4286	2910.35	2018
926.8219	1946.041	2915.4	2003.05
926.9604	1947.6528	2890	1994.8
927.0988	1949.2637	2874.65	1983.65
927.2372	1950.8739	2878.6	1989.75
927.3756	1952.4834	2867.8	1977.1
927.514	1954.0921	2864.4	1972.85
927.6523	1955.7001	2862.2	1967.5
927.7907	1957.3074	2852.3	1961.85
927.929	1958.9139	2844.7	1956.25
928.0673	1960.5197	2823.15	1933.05
928.2055	1962.1247	2835.55	1946.65
928.3438	1963.729	2810.8	1923.25
928.482	1965.3325	2810.7	1916.6
928.6202	1966.9353	2810.05	1924.15
928.7584	1968.5374	2796.4	1906.4
928.8965	1970.1387	2793.7	1904.45
929.0346	1971.7393	2787.65	1898.65
929.1727	1973.3392	2787	1897.85
929.3108	1974.9383	2772.15	1885.15
929.4489	1976.5366	2771.35	1886.25
929.5869	1978.1342	2764.65	1878.1
929.7249	1979.7311	2758	1870.5
929.8629	1981.3273	2750.4	1864.7
930.0009	1982.9227	2735.7	1848.85
930.1388	1984.5173	2733.2	1846.85
930.2767	1986.1112	2716.55	1832
930.4146	1987.7044	2724.8	1838.95
930.5525	1989.2968	2722.9	1835.1
930.6904	1990.8885	2720.3	1830
930.8282	1992.4795	2718.75	1833.25
930.966	1994.0697	2706.3	1823.95
931.1038	1995.6592	2689.8	1804.7
931.2415	1997.2479	2687.6	1801.3
931.3793	1998.8359	2690.55	1807.15
931.517	2000.4232	2678.95	1796.45
931.6547	2002.0097	2673.95	1793.9
931.7923	2003.5955	2654.5	1773.8
931.93	2005.1805	2659.75	1774.6
932.0676	2006.7648	2653.55	1771.7
932.2052	2008.3484	2656.4	1772.05
932.3427	2009.9312	2652.1	1768.1
932.4803	2011.5133	2633.5	1756.2
932.6178	2013.0946	2637.25	1755.05
932.7553	2014.6752	2639.6	1759.55
932.8928	2016.2551	2633.4	1751.25
933.0302	2017.8342	2627.6	1742.55
933.1676	2019.4126	2624	1743.1
933.305	2020.9902	2610.05	1728.4
933.4424	2022.5672	2608.9	1729.8
933.5798	2024.1433	2616.2	1730.4
933.7171	2025.7188	2582.1	1705.2
933.8544	2027.2935	2593.05	1710.95
933.9917	2028.8674	2581.5	1702.05
934.129	2030.4406	2588.3	1708.8
934.2662	2032.0131	2578.85	1701.05
934.4034	2033.5849	2568.75	1681.3
934.5406	2035.1559	2559.7	1681.3
934.6778	2036.7261	2554.45	1671.1
934.8149	2038.2957	2555.15	1669.55
934.952	2039.8645	2551.3	1666.8
935.0891	2041.4325	2557.4	1668.9
935.2262	2042.9998	2550.8	1668.15
935.3632	2044.5664	2546.3	1662.5
935.5002	2046.1323	2526.9	1645.8
935.6372	2047.6974	2533.6	1653.6
935.7742	2049.2617	2519.4	1638.35
935.9111	2050.8254	2535.55	1651.35
936.048	2052.3883	2530.35	1645.85
936.1849	2053.9504	2515.2	1630.3
936.3218	2055.5118	2519.6	1635.8
936.4586	2057.0725	2512.9	1624.45
936.5955	2058.6325	2493.1	1611.65
936.7323	2060.1917	2482.25	1603.25
936.869	2061.7502	2497	1613.65
937.0058	2063.3079	2485.7	1606.15
937.1425	2064.8649	2486.5	1601.15
937.2792	2066.4212	2483.85	1602.2
937.4159	2067.9767	2467.05	1584.45
937.5525	2069.5315	2471.35	1588.8
937.6891	2071.0856	2458.75	1577.65
937.8257	2072.6389	2457	1575.45
937.9623	2074.1915	2460.6	1581.55
938.0989	2075.7433	2449.95	1567.05
938.2354	2077.2945	2437.6	1554.5
938.3719	2078.8448	2440.2	1556.5
938.5084	2080.3945	2433	1548.3
938.6448	2081.9434	2438.35	1553.4
938.7812	2083.4916	2425.9	1540.65
938.9176	2085.039	2428.65	1539.85
939.054	2086.5857	2411.25	1523.65
939.1903	2088.1317	2408.7	1521.4
939.3267	2089.677	2416.85	1524.6
939.463	2091.2215	2413.45	1523.1
939.5992	2092.7652	2406	1513.9
939.7355	2094.3083	2396.75	1506.2
939.8717	2095.8506	2384.65	1498.55
940.0079	2097.3921	2383.2	1498.05
940.1441	2098.933	2387.95	1504.4
940.2802	2100.4731	2380.65	1493.15
940.4163	2102.0124	2405.75	1502.4
940.5524	2103.5511	2382.7	1495.55
940.6885	2105.089	2374.4	1485.35
940.8245	2106.6261	2376.7	1491.05
940.9606	2108.1626	2370.4	1484.8
941.0965	2109.6983	2391.75	1474.75
941.2325	2111.2332	2367.35	1480.95
941.3684	2112.7675	2346.25	1458.4
941.5044	2114.301	2358.55	1470.3
941.6403	2115.8337	2351.85	1463.45
941.7761	2117.3657	2350.75	1462.95
941.912	2118.897	2350.1	1461.5
942.0478	2120.4276	2346.75	1453.65
942.1835	2121.9575	2325	1437.8
942.3193	2123.4866	2341.5	1451.25
942.455	2125.0149	2321	1431.2
942.5907	2126.5426	2306.8	1423.5
942.7264	2128.0695	2298.9	1414.25
942.8621	2129.5956	2302.1	1421.7
942.9977	2131.1211	2317.15	1430.45
943.1333	2132.6458	2301.2	1414.25
943.2689	2134.1698	2299	1409.2
943.4044	2135.693	2311.55	1418.7
943.54	2137.2155	2304.65	1412.2
943.6755	2138.7373	2295.05	1407.95
943.8109	2140.2584	2290.65	1406.5
943.9464	2141.7787	2285.05	1400.45
944.0818	2143.2983	2261.75	1381.05
944.2172	2144.8171	2261.4	1383.65
944.3526	2146.3353	2270.1	1384.9
944.4879	2147.8527	2262.25	1377.65
944.6232	2149.3693	2269.7	1383.2
944.7585	2150.8853	2270.25	1381.5
944.8938	2152.4005	2248.75	1358.1
945.029	2153.9149	2262.7	1373.5
945.1642	2155.4287	2246.85	1358.95
945.2994	2156.9417	2246	1357.25
945.4346	2158.454	2238.35	1351.45
945.5697	2159.9655	2232.35	1350.5
945.7048	2161.4764	2220.05	1336.35
945.8399	2162.9865	2225.75	1341.1
945.9749	2164.4958	2222.2	1337.75
946.1099	2166.0045	2226.2	1337.85
946.2449	2167.5124	2216.15	1331.25
946.3799	2169.0195	2211.7	1325.8
946.5148	2170.526	2218.4	1328.95
946.6498	2172.0317	2205.25	1318.05
946.7846	2173.5367	2210.15	1320.9
946.9195	2175.0409	2204.2	1318.95
947.0543	2176.5445	2203.4	1316.15
947.1891	2178.0473	2193.05	1303.8
947.3239	2179.5494	2196.45	1304.65
947.4587	2181.0507	2190.4	1302.85
947.5934	2182.5513	2189.55	1302.9
947.7281	2184.0512	2175.65	1287.5
947.8628	2185.5504	2171.15	1283.8
947.9974	2187.0488	2165.35	1281.05
948.132	2188.5465	2162.9	1279.7
948.2666	2190.0435	2159.55	1275.05
948.4012	2191.5397	2156.7	1269.55
948.5357	2193.0353	2153.45	1264.65
948.6702	2194.5301	2152.4	1259
948.8047	2196.0241	2146.7	1254.55
948.9392	2197.5175	2147.45	1254.45
949.0736	2199.0101	2140.4	1247.95
949.208	2200.502	2128.75	1242.5
949.3424	2201.9931	2133.35	1249.2
949.4767	2203.4835	2132.85	1246.3
949.611	2204.9733	2137.5	1235.8
949.7453	2206.4622	2118.5	1235.5
949.8796	2207.9505	2121.9	1235.5
950.0138	2209.438	2102.35	1223.95
950.148	2210.9248	2105.9	1220.85
950.2822	2212.4109	2102.3	1215.9
950.4164	2213.8962	2093.8	1205.65
950.5505	2215.3809	2096.25	1202.95
950.6846	2216.8648	2104.85	1211.8
950.8186	2218.3479	2103.9	1206.75
950.9527	2219.8304	2099.75	1201.65
951.0867	2221.3121	2084.8	1190.25
951.2207	2222.7931	2080.45	1190.2
951.3546	2224.2733	2080.45	1190.1
951.4886	2225.7529	2067.8	1180
951.6225	2227.2317	2066.8	1178
951.7563	2228.7098	2063.6	1177.95
951.8902	2230.1872	2049.45	1164.05
952.024	2231.6638	2054.05	1166.8
952.1578	2233.1397	2046.45	1158.4
952.2916	2234.6149	2041.25	1155.9
952.4253	2236.0894	2049.4	1164.4
952.559	2237.5632	2057.3	1159.45
952.6927	2239.0362	2025.4	1136.85
952.8263	2240.5085	2033.7	1149.85
952.9599	2241.9801	2022.5	1133.15
953.0935	2243.4509	2021.85	1133
953.2271	2244.921	2015.4	1123.25
953.3606	2246.3904	2023.15	1130.3
953.4941	2247.8591	2014.3	1125.8
953.6276	2249.3271	2002.95	1113.65
953.7611	2250.7943	2006.8	1115.5
953.8945	2252.2608	1999.1	1108.1
954.0279	2253.7266	1997.3	1107.2
954.1612	2255.1917	1993.8	1105.4
954.2946	2256.656	1992.7	1103.65
954.4279	2258.1197	1982.25	1096.1
954.5612	2259.5826	1980.35	1093.75
954.6944	2261.0447	1980.4	1091.45
954.8276	2262.5062	1987.8	1097.15
954.9608	2263.9669	1979.5	1088.5
955.094	2265.4269	1979.05	1088.45
955.2271	2266.8862	1971.2	1082.1
955.3602	2268.3448	1971	1083.5
955.4933	2269.8026	1972.45	1086.45
955.6264	2271.2598	1961.4	1074.85
955.7594	2272.7162	1957.55	1071.75
955.8924	2274.1719	1961.5	1069.8
956.0253	2275.6268	1960.95	1071.8
956.1583	2277.0811	1965.9	1075.55
956.2912	2278.5346	1943.85	1056.35
956.4241	2279.9874	1948.85	1061
956.5569	2281.4395	1945.6	1062.15
956.6897	2282.8908	1951.25	1058.75
956.8225	2284.3414	1936.65	1047.85
956.9553	2285.7914	1944.1	1055.4
957.088	2287.2406	1933.85	1042.5
957.2207	2288.689	1936.4	1044.8
957.3534	2290.1368	1943.3	1051.05
957.486	2291.5838	1926.85	1031.25
957.6186	2293.0302	1932.7	1038.55
957.7512	2294.4758	1931.85	1041.25
957.8838	2295.9206	1918.1	1027.6
958.0163	2297.3648	1912.25	1022.8
958.1488	2298.8082	1918.4	1030.9
958.2813	2300.251	1920.7	1030.9
958.4137	2301.693	1921	1028.9
958.5461	2303.1343	1907.2	1016.05
958.6785	2304.5748	1899.55	1012.35
958.8108	2306.0147	1899.4	1011.95
958.9432	2307.4538	1900.35	1012.1
959.0754	2308.8922	1896.65	1015.8
959.2077	2310.3299	1886	1001.1
959.3399	2311.7669	1880.35	992.45
959.4721	2313.2031	1881.65	993.1
959.6043	2314.6387	1885.25	996.9
959.7365	2316.0735	1883.7	995.6
959.8686	2317.5076	1883.05	994.15
960.0006	2318.941	1872.5	983.15
960.1327	2320.3737	1875.8	983.35
960.2647	2321.8056	1867.2	973.2
960.3967	2323.2369	1862	972.7
960.5287	2324.6674	1862.45	971.9
960.6606	2326.0972	1864.55	973.7
960.7925	2327.5263	1862.55	973.5
960.9244	2328.9547	1859.75	969.85
961.0562	2330.3823	1858.75	965.95
961.1881	2331.8092	1855.55	961.55
961.3198	2333.2355	1852.7	960.4
961.4516	2334.661	1839.95	950.2
961.5833	2336.0858	1851	957.75
961.715	2337.5098	1841	950.8
961.8467	2338.9332	1840.1	948.6
961.9783	2340.3558	1837.65	943.75
962.1099	2341.7778	1830.8	942.1
962.2415	2343.199	1835.85	947.35
962.373	2344.6195	1832.45	942.8
962.5045	2346.0393	1833.95	948.85
962.636	2347.4583	1825.35	935.9
962.7675	2348.8767	1827.45	938.9
962.8989	2350.2943	1829.7	937.75
963.0303	2351.7113	1816.6	922.85
963.1617	2353.1275	1823.8	930.55
963.293	2354.543	1831.4	929.05
963.4243	2355.9578	1816.3	924.95
963.5556	2357.3718	1809.7	922.45
963.6868	2358.7852	1811.65	922
963.818	2360.1978	1805.35	916.55
963.9492	2361.6098	1804.75	917.55
964.0803	2363.021	1800.8	908.85
964.2114	2364.4315	1803.6	915.65
964.3425	2365.8413	1795.8	903.2
964.4736	2367.2504	1798.3	910.15
964.6046	2368.6587	1791.75	904.95
964.7356	2370.0664	1795.3	908.6
964.8666	2371.4733	1781.15	891.85
964.9975	2372.8795	1778.3	886.6
965.1284	2374.285	1780.95	891.85
965.2593	2375.6899	1772.8	883.5
965.3901	2377.0939	1776.2	887.55
965.5209	2378.4973	1759.45	874.05
965.6517	2379.9	1774.75	884.3
965.7825	2381.3019	1757.4	870.45
965.9132	2382.7032	1758.8	870.7
966.0439	2384.1037	1756.4	871.65
966.1745	2385.5035	1755.3	869.7
966.3051	2386.9027	1747.1	862.55
966.4357	2388.3011	1752.2	864.75
966.5663	2389.6987	1753.15	865.6
966.6968	2391.0957	1746.15	859.2
966.8273	2392.492	1744.45	858.25
966.9578	2393.8876	1735.6	849.65
967.0882	2395.2824	1729.85	843.8
967.2186	2396.6765	1736.3	847.2
967.349	2398.07	1722.65	835.65
967.4793	2399.4627	1733.95	845
967.6097	2400.8547	1726.95	836.95
967.7399	2402.246	1737.25	842.25
967.8702	2403.6366	1721.75	833.6
968.0004	2405.0265	1716.15	829.2
968.1306	2406.4156	1720.4	828.1
968.2607	2407.8041	1705.75	814.05
968.3909	2409.1918	1710.2	817.7
968.521	2410.5789	1711.15	819.15
968.651	2411.9652	1704.5	810.95
968.781	2413.3508	1697.2	809.15
968.911	2414.7358	1707.15	816.65
969.041	2416.12	1690.7	803.55
969.1709	2417.5035	1698.55	809.85
969.3008	2418.8863	1695.9	804
969.4307	2420.2684	1692.05	802.85
969.5606	2421.6497	1691.8	802
969.6904	2423.0304	1683.1	794.25
969.8201	2424.4104	1684.8	793.9
969.9499	2425.7896	1682.65	789.95
970.0796	2427.1682	1681.45	794.45
970.2093	2428.546	1677.6	789.65
970.3389	2429.9232	1668.9	779.95
970.4685	2431.2996	1671.65	781.05
970.5981	2432.6753	1674.85	784.55
970.7277	2434.0503	1677.15	789.3
970.8572	2435.4246	1677.9	789.85
970.9867	2436.7982	1664.15	774.1
971.1161	2438.1711	1660.85	771.95
971.2456	2439.5433	1657.3	766.35
971.375	2440.9148	1665.65	771.95
971.5043	2442.2856	1647.5	759.65
971.6336	2443.6557	1651.45	761.85
971.7629	2445.025	1643.8	753.5
971.8922	2446.3937	1638.55	748.6
972.0214	2447.7617	1645.25	756.55
972.1506	2449.1289	1645.8	756.85
972.2798	2450.4955	1648.45	756.05
972.4089	2451.8613	1636.35	748.25
972.538	2453.2265	1636.45	746.75
972.6671	2454.5909	1638.3	748.75
972.7961	2455.9546	1641.55	752.9
972.9251	2457.3177	1630.8	742.95
973.0541	2458.68	1628.1	737.45
973.1831	2460.0416	1628.7	738.1
973.312	2461.4025	1625.7	736.6
973.4408	2462.7627	1638	739.2
973.5697	2464.1222	1617.1	729.6
973.6985	2465.4811	1622.45	736.85
973.8273	2466.8392	1626.6	740.3
973.956	2468.1966	1616.9	723.75
974.0847	2469.5533	1612.85	721.75
974.2134	2470.9093	1615.7	727.1
974.3421	2472.2645	1615.7	728.8
974.4707	2473.6191	1618.1	731.75
974.5993	2474.973	1612.85	724.95
974.7278	2476.3262	1610.3	720.8
974.8563	2477.6787	1602.6	714.7
974.9848	2479.0305	1595.25	707
975.1132	2480.3816	1602.45	714.2
975.2417	2481.7319	1605.35	718.4
975.37	2483.0816	1595.7	703.4
975.4984	2484.4306	1600.8	711
975.6267	2485.7789	1598.15	714.1
975.755	2487.1264	1594.15	704.25
975.8833	2488.4733	1591.25	706.85
976.0115	2489.8195	1598.75	693.5
976.1397	2491.165	1582.5	689.65
976.2678	2492.5097	1587.1	700.6
976.3959	2493.8538	1575.05	689.05
976.524	2495.1972	1579.35	690.8
976.6521	2496.5398	1573.25	684.05
976.7801	2497.8818	1583.2	691.95
976.9081	2499.2231	1568.55	680.65
977.036	2500.5637	1574.9	682.85
977.164	2501.9035	1564.5	671.65
977.2918	2503.2427	1570.1	679.5
977.4197	2504.5812	1570.45	681.8
977.5475	2505.919	1568.1	677.4
977.6753	2507.256	1555.8	668.05
977.8031	2508.5924	1558.15	668.4
977.9308	2509.9281	1558.05	665.6
978.0585	2511.2631	1551.9	664.55
978.1861	2512.5974	1555.05	667.05
978.3137	2513.9309	1550.15	662.45
978.4413	2515.2638	1576.4	660.4
978.5689	2516.596	1555.5	667.3
978.6964	2517.9275	1550.65	661.6
978.8239	2519.2583	1545.45	655.25
978.9513	2520.5884	1547.8	658.15
979.0788	2521.9178	1534.85	646.5
979.2062	2523.2465	1530.4	642.95
979.3335	2524.5745	1534.7	646.75
979.4608	2525.9018	1532	644.75
979.5881	2527.2284	1532.9	645.1
979.7154	2528.5543	1537.35	651.4
979.8426	2529.8796	1533.9	645.1
979.9698	2531.2041	1536.4	648.35
980.0969	2532.5279	1526.45	641
980.224	2533.851	1526.45	641
980.3511	2535.1735	1526.3	637.75
980.4781	2536.4952	1524.25	635.15
980.6052	2537.8163	1522.15	632.55
980.7321	2539.1366	1528.5	639.8
980.8591	2540.4562	1520.55	631.5
980.986	2541.7752	1525.9	636.1
981.1129	2543.0935	1522.2	631.35
981.2397	2544.411	1526.6	636.85
981.3665	2545.7279	1520.95	631.45
981.4933	2547.0441	1511.45	622.6
981.62	2548.3596	1523.85	630
981.7467	2549.6744	1519.45	628.7
981.8734	2550.9885	1521.2	623.1
982.0001	2552.3019	1513.05	623.85
982.1267	2553.6146	1514.8	624.25
982.2532	2554.9266	1512.85	626.05
982.3798	2556.2379	1516.55	628
982.5063	2557.5485	1502	615.2
982.6327	2558.8585	1511.45	617
982.7592	2560.1677	1508.9	615.2
982.8856	2561.4762	1498.7	607.1
983.0119	2562.7841	1498.4	602.9
983.1383	2564.0913	1508.6	621.85
983.2646	2565.3977	1505.35	618.45
983.3908	2566.7035	1504.8	615.8
983.517	2568.0086	1502.1	609.4
983.6432	2569.313	1501.1	610.85
983.7694	2570.6167	1500.7	608.7
983.8955	2571.9197	1497.05	608.9
984.0216	2573.222	1506.65	616.65
984.1476	2574.5236	1495.05	605.3
984.2737	2575.8246	1495.15	604.05
984.3996	2577.1248	1500.75	610.85
984.5256	2578.4244	1492.5	604.25
984.6515	2579.7232	1492.95	605.45
984.7774	2581.0214	1517.95	605.7
984.9032	2582.3189	1487.75	599.85
985.029	2583.6157	1493.7	601
985.1548	2584.9118	1492.15	602.6
985.2806	2586.2072	1496.5	610.75
985.4063	2587.5019	1492.4	603.9
985.5319	2588.7959	1485.85	597.5
985.6576	2590.0893	1496.15	606.15
985.7832	2591.3819	1493.65	605.85
985.9087	2592.6739	1486.6	599.8
986.0343	2593.9652	1491.6	603.05
986.1597	2595.2557	1493.15	603.6
986.2852	2596.5456	1495.4	606
986.4106	2597.8348	1493.4	604.8
986.536	2599.1234	1482.25	596.95
986.6614	2600.4112	1494	608.7
986.7867	2601.6983	1489.6	597.55
986.912	2602.9848	1487.75	599.25
987.0372	2604.2705	1491.7	598.2
987.1624	2605.5556	1489.75	601.55
987.2876	2606.84	1482.7	597.05
987.4128	2608.1237	1479.5	591.1
987.5379	2609.4067	1483.25	598
987.6629	2610.689	1479.8	582.7
987.788	2611.9707	1478.15	590.1
987.913	2613.2516	1475.25	584.25
988.0379	2614.5319	1460.2	574.65
988.1629	2615.8115	1464.75	577.05
988.2878	2617.0903	1462.8	575.35
988.4126	2618.3685	1460.7	574.6
988.5375	2619.6461	1467	581.4
988.6622	2620.9229	1455.9	568.15
988.787	2622.199	1461.35	575.25
988.9117	2623.4745	1450.45	563
989.0364	2624.7493	1453.25	567
989.161	2626.0234	1450.55	563.85
989.2857	2627.2968	1451.3	564.4
989.4102	2628.5695	1445.7	558.1
989.5348	2629.8415	1444.25	559.1
989.6593	2631.1128	1453.15	564.85
989.7837	2632.3835	1442	556.25
989.9082	2633.6535	1443.65	559.6
990.0326	2634.9228	1436.55	549.9
990.1569	2636.1914	1442.65	556.85
990.2812	2637.4593	1438	553.4
990.4055	2638.7265	1438.7	553.2
990.5298	2639.9931	1439.4	555.05
990.654	2641.259	1435.85	549.7
990.7782	2642.5242	1433.05	547.1
990.9023	2643.7887	1432.2	547.75
991.0264	2645.0525	1432.85	548.2
991.1505	2646.3156	1436.65	551.4
991.2745	2647.5781	1425.15	538.2
991.3985	2648.8398	1423.85	541.05
991.5225	2650.1009	1456.85	534.2
991.6464	2651.3613	1422.6	538.15
991.7703	2652.6211	1423.7	538.9
991.8942	2653.8801	1413.85	529.05
992.018	2655.1385	1414.85	528.05
992.1418	2656.3961	1419.45	534.8
992.2655	2657.6531	1416	531.7
992.3892	2658.9094	1420.85	534
992.5129	2660.1651	1418.8	534.25
992.6366	2661.42	1422.05	536.95
992.7602	2662.6743	1423.5	535.7
992.8837	2663.9279	1422.8	540.75
993.0073	2665.1808	1416.1	529.05
993.1307	2666.433	1418.75	531.7
993.2542	2667.6846	1425.95	541.7
993.3776	2668.9354	1432.5	545.15
993.501	2670.1856	1430.05	543.4
993.6244	2671.4351	1436.25	552.55
993.7477	2672.6839	1437.8	549
993.8709	2673.9321	1430.35	546.55
993.9942	2675.1795	1442.15	557.5
994.1174	2676.4263	1434.2	552.25
994.2405	2677.6724	1431.6	546.6
994.3637	2678.9179	1437.95	553.25
994.4868	2680.1626	1425	539.95
994.6098	2681.4067	1434.95	552.15
994.7328	2682.6501	1426.95	541.65
994.8558	2683.8928	1429.55	544.15
994.9788	2685.1348	1419.55	535.5
995.1017	2686.3761	1427.05	541.5
995.2245	2687.6168	1414.95	530.4
995.3474	2688.8568	1415.9	530.25
995.4702	2690.0961	1413.45	528.5
995.5929	2691.3348	1413.3	526.9
995.7156	2692.5727	1407.95	523.3
995.8383	2693.81	1405.45	520
995.961	2695.0466	1404.75	521.15
996.0836	2696.2826	1404.65	518.75
996.2062	2697.5178	1414.55	523.05
996.3287	2698.7524	1404.45	519.15
996.4512	2699.9863	1412.7	527.5
996.5737	2701.2195	1406.1	522.1
996.6961	2702.452	1423.75	536.35
996.8185	2703.6839	1417.4	532.8
996.9408	2704.9151	1419	535.55
997.0631	2706.1456	1425.9	541.85
997.1854	2707.3755	1430.1	545.95
997.3077	2708.6046	1426.95	539.6
997.4299	2709.8331	1439.3	555.3
997.552	2711.0609	1444.8	559.8
997.6742	2712.2881	1441.35	557.6
997.7963	2713.5145	1454.5	569.65
997.9183	2714.7403	1467.4	585.8
998.0403	2715.9654	1466.7	579.6
998.1623	2717.1899	1492.7	594.1
998.2842	2718.4136	1479.5	595.05
998.4062	2719.6367	1493.3	607.85
998.528	2720.8591	1507.1	613.35
998.6498	2722.0809	1515.55	630.9
998.7716	2723.3019	1519.75	633.4
998.8934	2724.5223	1529.8	646.6
999.0151	2725.7421	1542.3	655.75
999.1368	2726.9611	1545.85	659.7
999.2584	2728.1795	1544.95	657.65
999.38	2729.3972	1531.7	646.3
999.5016	2730.6142	1527.15	628.55
999.6231	2731.8306	1505.8	621
999.7446	2733.0462	1494.15	609.1
999.8661	2734.2612	1481.05	592.4
999.9875	2735.4756	1462.75	576.3
1000.1089	2736.6892	1456.15	569.25
1000.2302	2737.9022	1440.15	556.45
1000.3515	2739.1145	1429.4	545.7
1000.4728	2740.3262	1428.6	536.45
1000.594	2741.5372	1407.4	524.15
1000.7152	2742.7475	1402.6	517.45
1000.8363	2743.9571	1397.1	510.8
1000.9575	2745.1661	1391.95	502.7
1001.0785	2746.3744	1385.35	501.9
1001.1996	2747.582	1374.05	490.45
1001.3206	2748.7889	1369.45	484.35
1001.4415	2749.9952	1357.25	471.1
1001.5625	2751.2008	1355.35	472.25
1001.6833	2752.4057	1356	470.4
1001.8042	2753.61	1348.65	464.05
1001.925	2754.8136	1350.9	464.85
1002.0458	2756.0165	1345.7	462.95
1002.1665	2757.2188	1344.3	462.35
1002.2872	2758.4204	1338.3	453.45
1002.4078	2759.6213	1342.95	459.45
1002.5285	2760.8215	1348.35	461.35
1002.649	2762.0211	1340.25	456.85
1002.7696	2763.22	1345.1	457.1
1002.8901	2764.4182	1339.45	454.05
1003.0106	2765.6158	1334.95	450.4
1003.131	2766.8127	1331.75	448.35
1003.2514	2768.009	1333.4	449.75
1003.3717	2769.2045	1328.05	444.15
1003.492	2770.3994	1326.9	439.9
1003.6123	2771.5936	1323.25	439.05
1003.7325	2772.7872	1317.05	432.95
1003.8527	2773.9801	1319	434.2
1003.9729	2775.1723	1335.75	436.15
1004.093	2776.3639	1318.2	435.25
1004.2131	2777.5548	1317.4	432.65
1004.3331	2778.745	1317.2	432.1
1004.4531	2779.9346	1319.35	438.05
1004.5731	2781.1235	1317.4	434.3
1004.693	2782.3117	1305.55	422.35
1004.8129	2783.4992	1321.05	440.95
1004.9328	2784.6861	1318.85	434.7
1005.0526	2785.8723	1322.35	440.15
1005.1723	2787.0579	1320.25	438.25
1005.2921	2788.2428	1325.4	443.45
1005.4118	2789.427	1333.8	451.4
1005.5314	2790.6106	1332.7	451.15
1005.651	2791.7935	1345.6	459.3
1005.7706	2792.9757	1343.4	461.75
1005.8902	2794.1573	1352.35	466.9
1006.0097	2795.3382	1356.65	474.7
1006.1291	2796.5184	1362.55	481.05
1006.2485	2797.698	1373.8	491.8
1006.3679	2798.8769	1385.05	502.1
1006.4873	2800.0551	1392.1	510.7
1006.6066	2801.2327	1404.7	520.3
1006.7258	2802.4096	1404.4	522.7
1006.8451	2803.5859	1423.4	539.6
1006.9642	2804.7615	1435.1	553.7
1007.0834	2805.9364	1449.15	566.8
1007.2025	2807.1106	1461.9	580.7
1007.3216	2808.2842	1492.25	610.65
1007.4406	2809.4572	1503.6	622.7
1007.5596	2810.6294	1529.85	645.2
1007.6785	2811.801	1563.15	682.1
1007.7975	2812.972	1592.55	711.9
1007.9163	2814.1423	1626.45	742.2
1008.0352	2815.3119	1663.45	779.7
1008.154	2816.4808	1698.35	817.6
1008.2727	2817.6491	1746.85	864.85
1008.3914	2818.8167	1800.25	921.45
1008.5101	2819.9837	1845.1	957.65
1008.6288	2821.15	1885.7	1005.5
1008.7474	2822.3157	1932.4	1052.3
1008.8659	2823.4807	1980.45	1097.5
1008.9844	2824.645	2050.8	1167.15
1009.1029	2825.8086	2091.65	1210.45
1009.2214	2826.9716	2145.65	1265.2
1009.3398	2828.134	2190.9	1309.55
1009.4581	2829.2957	2230.6	1348.25
1009.5764	2830.4567	2253.2	1373.25
1009.6947	2831.617	2282.95	1399.6
1009.813	2832.7767	2288.1	1406.45
1009.9312	2833.9358	2297.85	1415.9
1010.0493	2835.0941	2287.4	1404.3
1010.1675	2836.2519	2271.05	1389.85
1010.2855	2837.4089	2257.9	1376.1
1010.4036	2838.5653	2250.35	1369.8
1010.5216	2839.7211	2233.85	1352.25
1010.6396	2840.8761	2241.75	1359.55
1010.7575	2842.0306	2235.1	1354.15
1010.8754	2843.1843	2242.85	1362.9
1010.9932	2844.3374	2268.35	1387.45
1011.111	2845.4899	2304.75	1424.1
1011.2288	2846.6417	2362.05	1482.65
1011.3465	2847.7928	2401	1521.1
1011.4642	2848.9433	2443.9	1561.25
1011.5818	2850.0931	2505.55	1626
1011.6995	2851.2422	2549.4	1665.85
1011.817	2852.3907	2597.7	1715.35
1011.9345	2853.5385	2640.6	1755.5
1012.052	2854.6857	2708.25	1798.7
1012.1695	2855.8323	2737.4	1856
1012.2869	2856.9781	2774.1	1892.5
1012.4042	2858.1233	2818.1	1938.2
1012.5216	2859.2679	2869.65	1988.25
1012.6389	2860.4118	2914.45	2032.55
1012.7561	2861.555	2954.95	2069.55
1012.8733	2862.6976	2992.95	2110.25
1012.9905	2863.8395	3021.35	2140.5
1013.1076	2864.9808	3045.9	2164.2
1013.2247	2866.1214	3069.7	2189.45
1013.3417	2867.2614	3085.4	2203.7
1013.4587	2868.4007	3101.85	2218
1013.5757	2869.5393	3114.95	2232.35
1013.6926	2870.6773	3118.5	2233
1013.8095	2871.8146	3132.85	2248.75
1013.9263	2872.9513	3124.6	2240.65
1014.0431	2874.0874	3122.7	2243.85
1014.1599	2875.2227	3120.75	2236.9
1014.2766	2876.3574	3097.2	2215.45
1014.3933	2877.4915	3074.9	2193
1014.51	2878.6249	3053.95	2171.6
1014.6266	2879.7577	3036	2153.55
1014.7431	2880.8898	3028.8	2136.6
1014.8596	2882.0212	2999.75	2118.15
1014.9761	2883.152	2986.7	2103.15
1015.0925	2884.2821	2983.45	2102.9
1015.2089	2885.4116	2978.45	2098.35
1015.3253	2886.5405	2980.75	2100.35
1015.4416	2887.6686	2987.95	2103.85
1015.5579	2888.7962	2999.95	2120.3
1015.6741	2889.923	3003.8	2124.05
1015.7903	2891.0493	3000.4	2119.45
1015.9065	2892.1748	3020.1	2137.2
1016.0226	2893.2997	3032.8	2151
1016.1387	2894.424	3037.55	2158.1
1016.2547	2895.5476	3051.85	2170.15
1016.3707	2896.6706	3057.15	2175.5
1016.4866	2897.7929	3080.45	2199.5
1016.6025	2898.9145	3104.05	2221.9
1016.7184	2900.0355	3123.25	2243.5
1016.8342	2901.1559	3154.75	2271.15
1016.95	2902.2756	3197.8	2314.75
1017.0658	2903.3946	3199.3	2319.3
1017.1815	2904.513	3230.55	2345.65
1017.2971	2905.6308	3244.45	2363.4
1017.4127	2906.7479	3259.95	2378.75
1017.5283	2907.8643	3289.55	2407.35
1017.6439	2908.9801	3305.6	2424.2
1017.7594	2910.0953	3306.7	2426.5
1017.8748	2911.2098	3313.5	2431.7
1017.9902	2912.3236	3304.9	2417.15
1018.1056	2913.4368	3298.35	2414.25
1018.2209	2914.5494	3274.45	2393.7
1018.3362	2915.6613	3254.6	2369.35
1018.4515	2916.7725	3221.25	2339.1
1018.5667	2917.8831	3189.2	2307.65
1018.6819	2918.9931	3170.25	2286.65
1018.797	2920.1024	3137.85	2257.45
1018.9121	2921.211	3129.85	2249.15
1019.0271	2922.319	3119	2239.35
1019.1421	2923.4264	3095.15	2217.55
1019.2571	2924.5331	3096.3	2216.95
1019.372	2925.6391	3087.4	2207.55
1019.4869	2926.7445	3104.05	2224.2
1019.6017	2927.8493	3094.25	2213.95
1019.7165	2928.9534	3085.5	2204.7
1019.8313	2930.0569	3095.65	2211.9
1019.946	2931.1597	3113.55	2229.8
1020.0606	2932.2619	3109.4	2227.6
1020.1753	2933.3634	3109.35	2228.6
1020.2899	2934.4643	3139.45	2254.05
1020.4044	2935.5645	3121.7	2235.55
1020.5189	2936.6641	3101.05	2216.05
1020.6334	2937.763	3068.7	2188.75
1020.7478	2938.8613	3039.05	2158.7
1020.8622	2939.959	3012.8	2127.6
1020.9765	2941.056	2944.7	2068.4
1021.0908	2942.1523	2891.15	2010.75
1021.2051	2943.248	2830.1	1948.5
1021.3193	2944.3431	2752.3	1873.2
1021.4334	2945.4375	2663.7	1782.95
1021.5476	2946.5313	2593.9	1712.6
1021.6617	2947.6244	2517.8	1637.25
1021.7757	2948.7169	2412	1530.05
1021.8897	2949.8087	2344.7	1463.55
1022.0037	2950.8999	2257.75	1378.45
1022.1176	2951.9904	2194.1	1313.85
1022.2315	2953.0803	2144.1	1264.1
1022.3453	2954.1696	2092.45	1211.25
1022.4591	2955.2582	2045.2	1167.05
1022.5728	2956.3462	2000.55	1122
1022.6865	2957.4335	1961.95	1081.75
1022.8002	2958.5202	1943.65	1060.4
1022.9138	2959.6062	1912.45	1032.6
1023.0274	2960.6916	1899.9	1020.7
1023.141	2961.7764	1875.2	995.2
1023.2545	2962.8605	1862.25	981.9
1023.3679	2963.9439	1850.6	971.05
1023.4813	2965.0267	1843.75	962.65
1023.5947	2966.1089	1856.1	953.7
1023.708	2967.1905	1835.35	956.1
1023.8213	2968.2714	1829	952.05
1023.9346	2969.3516	1826.55	948.75
1024.0478	2970.4312	1842.45	954.8
1024.1609	2971.5102	1832.1	954.15
1024.274	2972.5885	1825.9	946.85
1024.3871	2973.6662	1847	964.1
1024.5002	2974.7432	1840.8	959.3
1024.6132	2975.8196	1831.65	951.45
1024.7261	2976.8954	1828.9	949.9
1024.839	2977.9705	1831.9	952.85
1024.9519	2979.045	1813.65	934.15
1025.0647	2980.1188	1804.4	924.3
1025.1775	2981.192	1785.4	906.85
1025.2902	2982.2645	1770.25	890.3
1025.4029	2983.3364	1753.25	875.75
1025.5156	2984.4077	1735.75	857.5
1025.6282	2985.4783	1710.75	824.75
1025.7407	2986.5483	1683.7	805.35
1025.8532	2987.6177	1659.45	780.8
1025.9657	2988.6864	1631.05	750.5
1026.0782	2989.7545	1600.75	720.9
1026.1906	2990.8219	1572.1	691.7
1026.3029	2991.8887	1547.6	665.8
1026.4152	2992.9548	1527.55	648.25
1026.5275	2994.0204	1495.65	617.75
1026.6397	2995.0852	1466.05	588.75
1026.7519	2996.1495	1447.2	566
1026.864	2997.2131	1418.2	537.35
1026.9761	2998.276	1391.5	511.8
1027.0882	2999.3383	1383.05	503.5
1027.2002	3000.4	1364.95	484.85
1027.3122	3001.4611	1348.05	468.25
1027.4241	3002.5215	1328.25	449.75
1027.536	3003.5812	1309.5	430.65
1027.6478	3004.6404	1306.35	429.35
1027.7596	3005.6989	1293.45	414.5
1027.8714	3006.7567	1287.65	408.45
1027.9831	3007.8139	1302.65	391.65
1028.0947	3008.8705	1265.55	384.7
1028.2064	3009.9264	1258.85	375.9
1028.3179	3010.9818	1252.6	373.8
1028.4295	3012.0364	1245.45	364.9
1028.541	3013.0905	1239.35	361.05
1028.6524	3014.1439	1237.25	357.8
1028.7638	3015.1966	1231.55	354.45
1028.8752	3016.2487	1225.25	345.75
1028.9865	3017.3002	1225.15	343
1029.0978	3018.3511	1215.35	336.65
1029.209	3019.4013	1217.1	335.95
1029.3202	3020.4509	1213.2	335.6
1029.4314	3021.4998	1210.25	331.4
1029.5425	3022.5481	1212.55	332.6
1029.6535	3023.5958	1205.05	326.5
1029.7645	3024.6428	1211.25	330.35
1029.8755	3025.6892	1201.2	325.55
1029.9864	3026.735	1199.95	321.6
1030.0973	3027.7802	1206.1	326
1030.2082	3028.8247	1199.5	320.9
1030.319	3029.8685	1202.8	323.55
1030.4297	3030.9118	1209.1	329.25
1030.5404	3031.9544	1204.75	325.85
1030.6511	3032.9963	1200.9	322.6
1030.7617	3034.0376	1206.95	328.35
1030.8723	3035.0783	1212.65	330.85
1030.9829	3036.1184	1213.2	335.35
1031.0934	3037.1578	1209.95	332.35
1031.2038	3038.1966	1214.5	334.3
1031.3142	3039.2348	1213.75	335
1031.4246	3040.2723	1219.1	332.35
1031.5349	3041.3092	1209.65	331.35
1031.6452	3042.3455	1214.35	336.1
1031.7554	3043.3811	1212.65	332.45
1031.8656	3044.4161	1218.2	338.3
1031.9758	3045.4505	1208.15	330.7
1032.0859	3046.4842	1212.55	332.5
1032.1959	3047.5173	1205.6	328.95
1032.3059	3048.5498	1203	322.6
1032.4159	3049.5816	1205.8	327.7
1032.5258	3050.6128	1202.35	323
1032.6357	3051.6434	1205.05	325.45
1032.7455	3052.6734	1201	322.7
1032.8553	3053.7027	1193.85	317.35
1032.9651	3054.7314	1193.25	314.05
1033.0748	3055.7594	1193.15	314
1033.1845	3056.7868	1187.05	308.8
1033.2941	3057.8136	1190.2	312.95
1033.4037	3058.8398	1186.45	307.65
1033.5132	3059.8653	1193.95	314.1
1033.6227	3060.8902	1181.75	303.75
1033.7321	3061.9145	1183.5	304.7
1033.8415	3062.9381	1182.25	304.15
1033.9509	3063.9612	1189.35	296
1034.0602	3064.9835	1173.7	295.15
1034.1694	3066.0053	1174.5	293.45
1034.2787	3067.0264	1169.25	291.75
1034.3878	3068.0469	1167.25	287.75
1034.497	3069.0668	1167.1	286.15
1034.6061	3070.086	1160.6	285.35
1034.7151	3071.1046	1158	280.2
1034.8241	3072.1226	1152.5	272.55
1034.9331	3073.1399	1148.2	270.75
1035.042	3074.1567	1142.05	262.85
1035.1508	3075.1727	1132.35	255.85
1035.2597	3076.1882	1134.75	254.7
1035.3684	3077.203	1126.65	248.8
1035.4772	3078.2173	1123.45	243.65
1035.5859	3079.2308	1124.55	242.25
1035.6945	3080.2438	1112.1	231.85
1035.8031	3081.2561	1101.75	221.8
1035.9117	3082.2678	1096.6	219.75
1036.0202	3083.2789	1093.5	215.25
1036.1286	3084.2893	1092.25	213
1036.2371	3085.2991	1083.3	204.45
1036.3454	3086.3083	1086.9	204.05
1036.4538	3087.3169	1074.5	195.1
1036.562	3088.3248	1077.55	199.85
1036.6703	3089.3321	1070.1	190.2
1036.7785	3090.3388	1064.55	185.15
1036.8866	3091.3449	1061.05	182.7
1036.9948	3092.3503	1059.3	177.4
1037.1028	3093.3551	1054.35	177.15
1037.2108	3094.3593	1055.95	178.5
1037.3188	3095.3629	1045.85	167.75
1037.4267	3096.3658	1051.4	172.75
1037.5346	3097.3681	1047.6	170.35
1037.6425	3098.3698	1045.85	166.45
1037.7503	3099.3708	1050.95	165.75
1037.858	3100.3713	1041.85	161.05
1037.9657	3101.3711	1038.45	161.15
1038.0734	3102.3702	1150.4	154.05
1038.181	3103.3688	1032.8	153.65
1038.2886	3104.3667	1031.5	154.2
1038.3961	3105.364	1027.6	149.95
1038.5036	3106.3607	1027.6	149.85
1038.611	3107.3568	1025.85	147.55
1038.7184	3108.3522	1022.75	146.4
1038.8257	3109.347	1022.5	143.25
1038.933	3110.3412	1019.15	137.8
1039.0403	3111.3348	1016.95	138.95
1039.1475	3112.3277	1017.25	140.6
1039.2547	3113.32	1016.45	140.1
1039.3618	3114.3117	1014.45	137.45
1039.4689	3115.3028	1011	131.55
1039.5759	3116.2932	1014.3	133.75
1039.6829	3117.2831	1012.7	130.4
1039.7898	3118.2723	1007.2	129.4
1039.8967	3119.2608	1006.5	129
1040.0035	3120.2488	1001.85	124.45
1040.1103	3121.2361	1001.25	123.5
1040.2171	3122.2229	999.8	121.25
1040.3238	3123.209	1004.6	125.1
1040.4305	3124.1944	997.2	120.25
1040.5371	3125.1793	998.65	118.3
1040.6437	3126.1635	996.3	120.15
1040.7502	3127.1471	991.65	113.3
1040.8567	3128.1301	989.3	113.5
1040.9631	3129.1125	991.35	114.75
1041.0695	3130.0942	991.95	114.65
1041.1759	3131.0753	1002.95	118.15
1041.2822	3132.0558	990.75	112.1
1041.3884	3133.0357	989.05	109.85
1041.4946	3134.015	988.05	109.45
1041.6008	3134.9936	990.1	109.05
1041.7069	3135.9716	1005.9	106.65
1041.813	3136.949	985.3	110
1041.919	3137.9258	999.85	104.65
1042.025	3138.902	987.05	104.4
1042.1309	3139.8775	982.25	107.1
1042.2368	3140.8524	978.8	100.45
1042.3427	3141.8267	982.5	104.25
1042.4485	3142.8004	977.5	99.45
1042.5542	3143.7735	986.3	102.25
1042.6599	3144.7459	978.3	97.3
1042.7656	3145.7178	975.7	98.4
1042.8712	3146.689	976.15	100.65
1042.9768	3147.6596	978	98.35
1043.0823	3148.6295	975.05	97.95
1043.1878	3149.5989	975.75	99.55
1043.2932	3150.5676	972.8	97.15
1043.3986	3151.5357	971.2	94.95
1043.5039	3152.5032	974.1	97.25
1043.6092	3153.4701	973.45	93.95
1043.7145	3154.4364	975.2	95.35
1043.8197	3155.402	969.9	92.5
1043.9248	3156.367	974	95.8
1044.03	3157.3315	1005.7	91.25
1044.135	3158.2952	969.35	92.45
1044.24	3159.2584	967.25	91.75
1044.345	3160.221	965.7	86.85
1044.4499	3161.1829	967.25	87.8
1044.5548	3162.1442	965.4	88.3
1044.6596	3163.105	961.9	84
1044.7644	3164.065	966.35	88.65
1044.8692	3165.0245	965.15	84.5
1044.9739	3165.9834	961.8	86.55
1045.0785	3166.9416	959.7	81.65
1045.1831	3167.8993	962.25	85.95
1045.2877	3168.8563	962.85	85.7
1045.3922	3169.8127	959.5	81.85
1045.4966	3170.7684	960.85	83.1
1045.6011	3171.7236	962.15	82.65
1045.7054	3172.6782	960	82.95
1045.8098	3173.6321	959.3	82.2
1045.914	3174.5854	962.7	81.8
1046.0183	3175.5381	958.25	81.6
1046.1224	3176.4902	957.4	78.6
1046.2266	3177.4417	957.3	80.9
1046.3307	3178.3926	954.15	76.8
1046.4347	3179.3428	954.6	77.7
1046.5387	3180.2924	948.55	72.75
1046.6427	3181.2415	952.6	74.35
1046.7466	3182.1899	954.1	74.05
1046.8504	3183.1377	955.6	78.25
1046.9542	3184.0848	955.95	74.65
1047.058	3185.0314	948.8	73.55
1047.1617	3185.9773	949.75	71.8
1047.2654	3186.9227	949.35	71.45
1047.369	3187.8674	951.3	73.1
1047.4726	3188.8115	953.65	73.25
1047.5761	3189.755	948.25	70.1
1047.6796	3190.6979	950.45	72.25
1047.783	3191.6402	946.6	70.3
1047.8864	3192.5818	946	68.45
1047.9898	3193.5229	956.3	71.5
1048.0931	3194.4633	947.5	69.55
1048.1963	3195.4031	949.2	72.05
1048.2995	3196.3423	947.75	70.2
1048.4027	3197.2809	945.7	68.15
1048.5058	3198.2189	946.15	70.9
1048.6089	3199.1563	961.5	67.9
1048.7119	3200.0931	947.85	72.35
1048.8148	3201.0292	943.45	67.05
1048.9178	3201.9648	941.6	64.75
1049.0206	3202.8997	947.8	69.8
1049.1235	3203.834	937.65	61.3
1049.2262	3204.7677	943.65	67.05
1049.329	3205.7008	943.1	65.55
1049.4317	3206.6333	944.5	69.7
1049.5343	3207.5652	946.1	67.7
1049.6369	3208.4964	939.5	61.65
1049.7394	3209.4271	941.65	65.25
1049.8419	3210.3571	938.8	62.3
1049.9444	3211.2865	939.85	64.75
1050.0468	3212.2154	939.7	61.35
1050.1491	3213.1436	942.95	64.8
1050.2514	3214.0712	946.45	64.8
1050.3537	3214.9982	941.1	65.55
1050.4559	3215.9246	938.55	60.4
1050.5581	3216.8503	936.3	60.4
1050.6602	3217.7755	939.2	61.75
1050.7623	3218.7001	936.3	58.65
1050.8643	3219.624	936.1	60.65
1050.9663	3220.5473	938.05	60.85
1051.0682	3221.4701	938.15	59.4
1051.1701	3222.3922	939.1	60.85
1051.2719	3223.3137	935.65	60.5
1051.3737	3224.2346	935.1	58.35
1051.4754	3225.1549	935.55	61.8
1051.5771	3226.0746	933.5	57
1051.6788	3226.9937	933.75	55.3
1051.7804	3227.9121	933.3	57.25
1051.8819	3228.83	934.65	58.75
1051.9834	3229.7473	931.2	53.3
1052.0849	3230.6639	935.45	56.8
1052.1863	3231.5799	932.9	56.8
1052.2876	3232.4954	933.2	55.05
1052.3889	3233.4102	928.35	50.25
1052.4902	3234.3244	929.2	50.1
1052.5914	3235.238	931.25	56.1
1052.6926	3236.151	954.7	54.6
1052.7937	3237.0634	930.5	54.3
1052.8948	3237.9752	930.7	54.15
1052.9958	3238.8864	929.85	49.65
1053.0968	3239.797	928.75	51
1053.1977	3240.7069	929.45	51.5
1053.2986	3241.6163	931.55	51.45
1053.3994	3242.5251	927.65	52.05
1053.5002	3243.4332	927.9	52.7
1053.6009	3244.3408	928.5	52.7
1053.7016	3245.2477	924.15	48.55
1053.8022	3246.154	928.45	49.95
1053.9028	3247.0598	925.8	47.45
1054.0034	3247.9649	923.4	46.55
1054.1039	3248.8694	926.15	51.3
1054.2043	3249.7733	924.15	49.3
1054.3047	3250.6766	922.3	43.3
1054.4051	3251.5793	923.55	46.75
1054.5054	3252.4814	923.75	47.35
1054.6056	3253.3829	922.5	45.95
1054.7058	3254.2838	922.45	45.15
1054.806	3255.1841	922.75	46.4
1054.9061	3256.0838	920.7	44.45
1055.0061	3256.9829	922.2	47.25
1055.1062	3257.8814	924.2	46.15
1055.2061	3258.7792	921.95	44.6
1055.306	3259.6765	926.75	47.7
1055.4059	3260.5731	951.75	75.9
1055.5057	3261.4692	922.5	43.95
1055.6055	3262.3647	918.25	39.6
1055.7052	3263.2595	919.9	45
1055.8049	3264.1538	914.7	38.25
1055.9045	3265.0474	915.95	38.25
1056.0041	3265.9404	916.1	40.9
1056.1036	3266.8329	913.85	38.8
1056.2031	3267.7247	924.9	40.55
1056.3025	3268.616	913.6	36.25
1056.4019	3269.5066	912.35	35.2
1056.5013	3270.3966	912.05	32.6
1056.6005	3271.286	907.15	32.3
