Software Version:	3.9.2.0
Unit SN:	10000200
Spectrometer SN:	6960
Date:	3/8/2024 12:03:41 PM
Data Line Index:	25
Spectral Points:	2048
Integration time (ms):	125
Averages:	20
Delay (ms):	30000
Sequence Number:	1
Processing:	dark subtract
Laser Power (mW):	305
Laser Current (mA):	822
Laser Diode Temp (C):	25.1
Laser Case Temp (C):	25.6
System Temp (C):	25.6
Spectrometer Temp (C):	23.4
CCD Temp (C):	-0.002
Secondary Temp (C):	20.007
Heatsink Temp (C):	20.416
CCDPCB Temp (C):	35.629
SecondaryPCB Temp (C):	28.337

Wavelength	RamanShift	Raw Counts	Dark Subtracted
787.061	30.1047	414.6	3.9
787.2016	32.3739	412	4
787.3422	34.6426	414.85	5.9
787.4828	36.9109	416.65	5.8
787.6235	39.1787	422.55	9
787.7642	41.4461	426.65	7.95
787.9049	43.7131	431.1	10.3
788.0456	45.9796	434.15	9.25
788.1863	48.2456	435.65	7.6
788.3271	50.5112	442.4	9.05
788.4679	52.7764	447.1	11.2
788.6087	55.0411	451.05	10.75
788.7496	57.3054	459.4	12.3
788.8904	59.5692	458.8	11.85
789.0313	61.8326	461.3	12.4
789.1722	64.0955	468.65	15.75
789.3132	66.3579	473.75	16.3
789.4541	68.6199	483.15	19.6
789.5951	70.8815	491.55	27.65
789.7361	73.1426	510.5	41
789.8771	75.4032	544.55	71.45
790.0181	77.6634	615.55	137.8
790.1592	79.9231	791.65	309.35
790.3003	82.1824	1134.05	641.55
790.4414	84.4412	1719.55	1209.15
790.5825	86.6995	2449.55	1916.85
790.7237	88.9574	3147.05	2597.4
790.8648	91.2148	3617.95	3054.9
791.006	93.4717	3806	3234.2
791.1472	95.7282	3854.1	3277.35
791.2885	97.9842	3831.1	3250.45
791.4297	100.2398	3778.4	3195.55
791.571	102.4949	3704.65	3121
791.7123	104.7495	3672.15	3085
791.8536	107.0036	3622.15	3034.65
791.9949	109.2573	3536.3	2950.7
792.1363	111.5105	3447.3	2858.75
792.2777	113.7632	3341.25	2749.5
792.4191	116.0154	3252.85	2649.3
792.5605	118.2672	3136.8	2542
792.7019	120.5185	3030.65	2433.75
792.8434	122.7693	2941.2	2336.7
792.9849	125.0197	2854.8	2247.35
793.1264	127.2696	2804.75	2194.5
793.2679	129.519	2763.8	2152.4
793.4094	131.7679	2726.85	2113.35
793.551	134.0163	2720.25	2101.25
793.6926	136.2642	2700.7	2080.6
793.8342	138.5117	2689.45	2059.05
793.9758	140.7587	2653.3	2030.2
794.1175	143.0052	2608.45	1979
794.2591	145.2512	2558.45	1928.5
794.4008	147.4967	2513.65	1881.8
794.5425	149.7417	2467.65	1834.95
794.6842	151.9863	2448.1	1812.6
794.826	154.2304	2434.55	1793.2
794.9677	156.4739	2428.75	1781.65
795.1095	158.717	2441.25	1795.2
795.2513	160.9596	2469.7	1816.2
795.3931	163.2017	2491.15	1838.6
795.535	165.4433	2492.85	1837.15
795.6768	167.6844	2485.35	1828.8
795.8187	169.925	2450.1	1792.95
795.9606	172.1651	2392	1730.65
796.1025	174.4047	2346.55	1678.85
796.2445	176.6439	2314.2	1645.6
796.3864	178.8825	2284.25	1613.55
796.5284	181.1206	2274.1	1599.15
796.6704	183.3582	2266.5	1587.65
796.8124	185.5954	2256.65	1578.05
796.9544	187.832	2266.45	1582.4
797.0965	190.0681	2262.5	1577.5
797.2386	192.3037	2271.8	1580.55
797.3806	194.5388	2274	1578.5
797.5228	196.7734	2282.05	1588.45
797.6649	199.0075	2293	1596.75
797.807	201.2411	2323.9	1626.2
797.9492	203.4742	2341.85	1642.35
798.0914	205.7068	2380.1	1674.35
798.2336	207.9389	2379.4	1677.4
798.3758	210.1704	2385.25	1687.6
798.518	212.4015	2386.5	1699.35
798.6603	214.632	2389.55	1710.7
798.8025	216.862	2399.95	1718.65
798.9448	219.0915	2398.7	1717.65
799.0871	221.3205	2411.35	1728.7
799.2294	223.549	2413.75	1732.6
799.3718	225.777	2413.8	1730.35
799.5141	228.0044	2410.15	1718.7
799.6565	230.2314	2406.7	1716.2
799.7989	232.4578	2384.75	1689.85
799.9413	234.6837	2380.35	1678.1
800.0837	236.909	2361.45	1653.6
800.2262	239.1339	2377.75	1646.75
800.3687	241.3582	2366.35	1649.95
800.5111	243.582	2393.75	1649.9
800.6536	245.8053	2382.15	1652.3
800.7961	248.0281	2382.6	1653.3
800.9387	250.2503	2392.75	1664.25
801.0812	252.472	2400.15	1667.1
801.2238	254.6932	2405.05	1674.65
801.3664	256.9139	2417.7	1685.75
801.509	259.134	2430.9	1694.7
801.6516	261.3536	2457.6	1719.85
801.7942	263.5727	2512.95	1774.1
801.9369	265.7912	2548.6	1813.15
802.0795	268.0092	2614.5	1875.45
802.2222	270.2267	2662.95	1920.45
802.3649	272.4436	2706.25	1967.95
802.5076	274.6601	2751.3	1999.25
802.6504	276.8759	2753.85	2008.6
802.7931	279.0913	2774.8	2028.6
802.9359	281.3061	2791.6	2043.35
803.0787	283.5204	2796.35	2043.4
803.2215	285.7341	2832.5	2078.25
803.3643	287.9473	2846.65	2091.2
803.5071	290.16	2852.1	2095.55
803.6499	292.3721	2819.7	2066.45
803.7928	294.5837	2779.35	2026.55
803.9357	296.7947	2759.05	2006.75
804.0786	299.0052	2764.55	2012.5
804.2215	301.2152	2742.55	1986
804.3644	303.4246	2717.85	1963.9
804.5074	305.6334	2699.35	1946.85
804.6503	307.8418	2660.25	1905.7
804.7933	310.0495	2644.7	1887.1
804.9363	312.2568	2611.9	1852
805.0793	314.4635	2563.9	1803.3
805.2223	316.6696	2518.45	1755.55
805.3653	318.8752	2489.05	1718.35
805.5084	321.0802	2446.7	1684.95
805.6514	323.2847	2456.8	1686.85
805.7945	325.4887	2448.2	1679.95
805.9376	327.692	2475.3	1702.5
806.0807	329.8949	2504.6	1735.3
806.2238	332.0972	2543.85	1772.9
806.367	334.2989	2564.1	1788.55
806.5101	336.5001	2550.15	1774.8
806.6533	338.7007	2511.55	1735.65
806.7965	340.9008	2475.9	1700.55
806.9397	343.1003	2431.05	1654.75
807.0829	345.2992	2385.35	1606.2
807.2261	347.4976	2342.3	1560.95
807.3693	349.6955	2329.7	1544.9
807.5126	351.8927	2313.9	1527.45
807.6559	354.0895	2295.8	1499.95
807.7991	356.2856	2286.45	1497.75
807.9424	358.4812	2272.75	1483.75
808.0857	360.6763	2265.15	1474.25
808.2291	362.8707	2257.9	1465.1
808.3724	365.0646	2269.2	1472.4
808.5158	367.258	2277.5	1479.35
808.6591	369.4508	2300.8	1499.65
808.8025	371.643	2328.6	1525.95
808.9459	373.8346	2352.9	1551.35
809.0893	376.0257	2386.9	1580.2
809.2327	378.2162	2397.2	1592.2
809.3762	380.4062	2406.35	1599.75
809.5196	382.5956	2395.25	1591.75
809.6631	384.7844	2348.1	1549.6
809.8066	386.9726	2296.95	1500.5
809.9501	389.1603	2291.25	1499.05
810.0936	391.3474	2296.4	1467.9
810.2371	393.5339	2279.75	1481.55
810.3806	395.7199	2290	1494.7
810.5241	397.9052	2318.6	1523.85
810.6677	400.09	2347.9	1550.65
810.8113	402.2743	2386.35	1587.45
810.9548	404.4579	2411.4	1614.15
811.0984	406.641	2465.1	1666.9
811.2421	408.8235	2516.05	1715.8
811.3857	411.0054	2557.8	1753.45
811.5293	413.1868	2620.7	1810.65
811.673	415.3675	2672.55	1858.25
811.8166	417.5477	2657.6	1846.2
811.9603	419.7273	2594.5	1781.7
812.104	421.9064	2525.65	1702.95
812.2477	424.0848	2453.7	1641.5
812.3914	426.2627	2412.35	1596.25
812.5351	428.4399	2354.75	1539.65
812.6788	430.6166	2306	1485.45
812.8226	432.7928	2253.95	1431.2
812.9663	434.9683	2215.4	1396.5
813.1101	437.1432	2194.55	1373.15
813.2539	439.3176	2165.05	1347.6
813.3977	441.4914	2160.55	1341.25
813.5415	443.6645	2143.9	1321.85
813.6853	445.8371	2152.75	1333.3
813.8291	448.0091	2157.65	1337.35
813.973	450.1806	2153.8	1335.45
814.1168	452.3514	2141.5	1317.85
814.2607	454.5216	2154.2	1319.2
814.4046	456.6913	2148.25	1322.8
814.5485	458.8603	2148.5	1324.1
814.6924	461.0288	2152.2	1331.4
814.8363	463.1967	2145.6	1327.1
814.9802	465.3639	2149.95	1325.8
815.1241	467.5306	2135.7	1312.75
815.2681	469.6967	2136.25	1313.2
815.412	471.8622	2134.8	1313.65
815.556	474.0271	2119.85	1297.25
815.7	476.1914	2127.8	1299.55
815.844	478.3551	2112.15	1285.85
815.988	480.5182	2127.55	1302.95
816.132	482.6807	2126.25	1302.65
816.276	484.8426	2148.1	1329.1
816.4201	487.0039	2192.1	1366.2
816.5641	489.1647	2242.25	1414.15
816.7082	491.3248	2289.8	1463.25
816.8522	493.4843	2294.15	1467.25
816.9963	495.6432	2289.1	1462.95
817.1404	497.8015	2260.4	1425.9
817.2845	499.9592	2221.55	1387.9
817.4286	502.1163	2170.7	1333.55
817.5727	504.2728	2123.25	1288.1
817.7168	506.4287	2102.3	1275.35
817.861	508.5839	2093.25	1261.1
818.0051	510.7386	2071.55	1240.95
818.1493	512.8927	2086.75	1248.8
818.2935	515.0461	2094.65	1258.75
818.4377	517.199	2114.1	1276.75
818.5818	519.3512	2150.4	1313.4
818.726	521.5029	2220.15	1377.55
818.8703	523.6539	2277.25	1435.95
819.0145	525.8043	2266.55	1425.25
819.1587	527.9541	2221.8	1375.6
819.303	530.1033	2157	1314.75
819.4472	532.2519	2123.35	1283
819.5915	534.3999	2106	1262.25
819.7357	536.5472	2083.05	1244.45
819.88	538.694	2088.35	1249.45
820.0243	540.8401	2101.85	1258.75
820.1686	542.9856	2116.8	1266.7
820.3129	545.1305	2138.8	1288
820.4572	547.2748	2152.95	1299.2
820.6016	549.4185	2151.2	1302.2
820.7459	551.5615	2156	1306.35
820.8902	553.704	2180.55	1331
821.0346	555.8458	2195.05	1349.2
821.1789	557.987	2222.45	1376.9
821.3233	560.1276	2235.3	1388
821.4677	562.2675	2293.3	1446.5
821.6121	564.4069	2342.85	1492.75
821.7565	566.5456	2383.6	1536.85
821.9009	568.6837	2374.1	1526.35
822.0453	570.8212	2308	1460.5
822.1897	572.958	2230.45	1381.25
822.3342	575.0942	2185.2	1338.75
822.4786	577.2299	2143.15	1297.25
822.6231	579.3648	2115.2	1274.2
822.7675	581.4992	2101.25	1262.9
822.912	583.6329	2113.45	1275.75
823.0565	585.766	2145.65	1304.1
823.201	587.8985	2185.6	1340.25
823.3454	590.0304	2245.15	1382.9
823.4899	592.1616	2259.75	1401.95
823.6345	594.2922	2236.1	1381.75
823.779	596.4222	2203.3	1349.7
823.9235	598.5515	2154.15	1297.35
824.068	600.6802	2095.45	1239.6
824.2126	602.8083	2069.25	1215.55
824.3571	604.9358	2059.3	1202.35
824.5017	607.0626	2058.65	1199.7
824.6462	609.1888	2074.5	1216.8
824.7908	611.3144	2092.7	1230.8
824.9354	613.4393	2145.35	1285.2
825.08	615.5636	2181.2	1318.9
825.2246	617.6873	2229	1370.05
825.3692	619.8103	2252.45	1394.2
825.5138	621.9327	2239.45	1377.3
825.6584	624.0544	2205.95	1347.35
825.803	626.1756	2160.25	1302
825.9477	628.2961	2118.45	1256.8
826.0923	630.4159	2096.7	1232.7
826.237	632.5351	2090.7	1229.6
826.3816	634.6537	2082.25	1217.25
826.5263	636.7716	2064.25	1195.85
826.6709	638.8889	2049.95	1183.6
826.8156	641.0056	2070.5	1209.1
826.9603	643.1216	2079.3	1214.95
827.105	645.237	2076.85	1209.35
827.2497	647.3518	2055.05	1192.05
827.3944	649.4659	2035.85	1172.2
827.5391	651.5793	2015.4	1154.45
827.6838	653.6922	1999.6	1139.2
827.8285	655.8043	1991.8	1128.6
827.9733	657.9159	1990.5	1124.6
828.118	660.0268	1981.75	1116.4
828.2627	662.137	1980.15	1113.55
828.4075	664.2466	1970.75	1100.05
828.5522	666.3556	1974.55	1104.75
828.697	668.4639	1964.85	1096.4
828.8418	670.5716	1959.75	1096
828.9865	672.6786	1957.75	1088.2
829.1313	674.785	1944.2	1072
829.2761	676.8907	1939.95	1072.05
829.4209	678.9958	1948.85	1082.45
829.5657	681.1002	1946.05	1077.5
829.7105	683.204	1954.2	1079.5
829.8553	685.3072	1952	1081.8
830.0001	687.4097	1937.05	1063.7
830.1449	689.5115	1947.7	1076.4
830.2898	691.6127	1937.65	1069.05
830.4346	693.7132	1937.7	1066.95
830.5794	695.8131	1959.5	1066.6
830.7243	697.9123	1949.65	1077.1
830.8691	700.0109	1954.1	1078.25
831.014	702.1089	1965.15	1095.05
831.1588	704.2061	1968.5	1096.1
831.3037	706.3028	2004.95	1128.95
831.4486	708.3987	2020.6	1146.45
831.5935	710.4941	2029.85	1155.4
831.7383	712.5887	2023.25	1149.6
831.8832	714.6827	2044.9	1167.3
832.0281	716.7761	2026.1	1148.85
832.173	718.8688	2024.5	1151.75
832.3179	720.9608	2026.8	1143.55
832.4628	723.0522	2039.75	1158.15
832.6077	725.1429	2060.65	1182
832.7527	727.233	2109.4	1230.65
832.8976	729.3224	2171.05	1292.9
833.0425	731.4112	2207.45	1326.15
833.1874	733.4993	2210.3	1331.45
833.3324	735.5867	2150.2	1274.1
833.4773	737.6735	2088.6	1211.45
833.6222	739.7596	2047.8	1167.55
833.7672	741.845	2016.55	1136.3
833.9122	743.9298	2014.8	1133.85
834.0571	746.014	2027.25	1148.45
834.2021	748.0974	2027.95	1145.6
834.347	750.1802	2030.9	1147.65
834.492	752.2624	2014.8	1134.1
834.637	754.3439	2002	1118.1
834.782	756.4247	2014.2	1126.6
834.9269	758.5048	2010.15	1130.25
835.0719	760.5843	2026.4	1145.2
835.2169	762.6631	2059	1173.6
835.3619	764.7413	2119.1	1241.5
835.5069	766.8188	2206.05	1322.2
835.6519	768.8956	2279.45	1393.25
835.7969	770.9718	2329.85	1447.35
835.9419	773.0473	2311.4	1428.95
836.0869	775.1221	2286.65	1404.35
836.232	777.1962	2284.55	1403.25
836.377	779.2697	2337	1453.45
836.522	781.3426	2425.05	1521.7
836.667	783.4147	2459.9	1576.3
836.8121	785.4862	2453.25	1570.35
836.9571	787.557	2354.55	1466
837.1021	789.6271	2242.65	1355.2
837.2472	791.6966	2128.5	1243.15
837.3922	793.7654	2051.15	1163.9
837.5373	795.8335	1999.9	1112.2
837.6823	797.901	1963.6	1076.8
837.8274	799.9678	1958.35	1071.35
837.9724	802.0339	1960.55	1073.65
838.1175	804.0993	1974.2	1078.75
838.2626	806.1641	1944.25	1056.1
838.4076	808.2282	1924.9	1039.7
838.5527	810.2916	1922.95	1033.55
838.6978	812.3544	1898.15	1012.9
838.8428	814.4164	1900.15	1012.35
838.9879	816.4778	1897.6	1008.55
839.133	818.5385	1918.9	1029.65
839.2781	820.5986	1954.65	1065.75
839.4232	822.658	1997.3	1107.7
839.5682	824.7166	2054.7	1166.7
839.7133	826.7747	2150.4	1262.7
839.8584	828.832	2227.55	1339.25
840.0035	830.8886	2273.25	1383.4
840.1486	832.9446	2296.9	1405.55
840.2937	834.9999	2246.4	1359.55
840.4388	837.0545	2179.25	1288.85
840.5839	839.1085	2110.45	1218.4
840.729	841.1618	2041.8	1147
840.8741	843.2143	1993.65	1103.6
841.0192	845.2662	1952.6	1061.25
841.1643	847.3175	1948.6	1060.65
841.3095	849.368	1929.25	1040
841.4546	851.4179	1929.4	1041.2
841.5997	853.467	1934.75	1044.45
841.7448	855.5155	1938.9	1045.3
841.8899	857.5633	1932.6	1041.05
842.0351	859.6105	1927.75	1036.5
842.1802	861.6569	1916.25	1025
842.3253	863.7027	1908.1	1016.05
842.4704	865.7478	1897.95	1008.1
842.6156	867.7922	1888.4	995
842.7607	869.8359	1882.45	986.55
842.9058	871.8789	1876.65	984.55
843.0509	873.9212	1900.9	973.75
843.1961	875.9629	1884.35	990.25
843.3412	878.0039	1894.05	1000.55
843.4863	880.0441	1911.45	1019.8
843.6315	882.0837	1931.05	1041.15
843.7766	884.1226	1960.25	1067
843.9218	886.1609	1992.2	1098.15
844.0669	888.1984	2040.75	1144.95
844.212	890.2352	2068.25	1175.35
844.3572	892.2714	2073.25	1177.5
844.5023	894.3069	2057	1162.15
844.6475	896.3416	2007.3	1114.8
844.7926	898.3757	1970.25	1075.45
844.9377	900.4091	1951.8	1055.2
845.0829	902.4418	1957.25	1055
845.228	904.4739	1966.85	1067.85
845.3732	906.5052	1978.85	1084.3
845.5183	908.5358	1968.9	1072.4
845.6635	910.5658	1943.5	1046.1
845.8086	912.595	1905.15	1009.55
845.9538	914.6236	1878.2	980.75
846.0989	916.6515	1862.2	967.4
846.2441	918.6786	1839.7	942.4
846.3892	920.7051	1834.55	937.9
846.5344	922.7309	1830.4	932.1
846.6795	924.756	1835.55	942.05
846.8246	926.7804	1842.05	941.25
846.9698	928.8041	1845.95	948.9
847.1149	930.8272	1870.45	973.75
847.2601	932.8495	1873.75	973.25
847.4052	934.8711	1882.95	981.45
847.5504	936.892	1887.15	990.7
847.6955	938.9123	1910.5	1013.8
847.8407	940.9318	1917.55	1021.35
847.9858	942.9506	1925.3	1027.15
848.131	944.9688	1928.45	1029.1
848.2761	946.9862	1901.3	1003.95
848.4213	949.003	1866.45	970.05
848.5664	951.019	1839.7	939.95
848.7115	953.0344	1835.5	934.95
848.8567	955.0491	1822.8	925.45
849.0018	957.063	1824.55	926.7
849.147	959.0763	1809.2	913.65
849.2921	961.0888	1820.5	921.9
849.4373	963.1007	1815.4	916.4
849.5824	965.1119	1808.6	917.95
849.7275	967.1223	1794.55	902.15
849.8727	969.1321	1791.95	900.75
850.0178	971.1412	1793.5	900.4
850.1629	973.1495	1781.4	885.2
850.3081	975.1572	1813.8	883.05
850.4532	977.1641	1791.75	895.2
850.5983	979.1704	1776.15	876.05
850.7435	981.1759	1783.5	882.25
850.8886	983.1808	1778.8	879.65
851.0337	985.1849	1781.25	872.35
851.1788	987.1884	1766.85	865.7
851.324	989.1911	1782.15	881.25
851.4691	991.1932	1782.85	883.05
851.6142	993.1945	1777.75	877.5
851.7593	995.1951	1773.4	873.1
851.9045	997.1951	1788.65	881.4
852.0496	999.1943	1778.65	881.55
852.1947	1001.1928	1779.15	877.2
852.3398	1003.1906	1781.95	881.75
852.4849	1005.1877	1811.7	908.2
852.63	1007.1841	1824.85	926.85
852.7751	1009.1798	1839.35	940
852.9202	1011.1748	1823.9	924.15
853.0653	1013.1691	1810.7	912.3
853.2104	1015.1627	1781.4	883.35
853.3555	1017.1556	1759.25	860.4
853.5006	1019.1477	1732.45	833.6
853.6457	1021.1392	1719.4	821.9
853.7908	1023.1299	1710	813.3
853.9359	1025.12	1701.8	807.75
854.081	1027.1093	1716.8	830.9
854.2261	1029.0979	1721.4	835.85
854.3712	1031.0859	1748.2	858.6
854.5163	1033.0731	1753.05	857.2
854.6613	1035.0596	1759.35	862.95
854.8064	1037.0454	1752.7	854.15
854.9515	1039.0304	1736.6	838.3
855.0965	1041.0148	1722.9	822.9
855.2416	1042.9985	1717.35	816.3
855.3867	1044.9814	1695.75	796.75
855.5317	1046.9636	1695.95	794.8
855.6768	1048.9452	1705.25	809.15
855.8219	1050.926	1720.35	823.95
855.9669	1052.9061	1732.45	834.05
856.112	1054.8855	1736.05	835.35
856.257	1056.8642	1728.9	830.15
856.4021	1058.8421	1728.8	828.55
856.5471	1060.8194	1727.45	827.15
856.6921	1062.7959	1724.35	823.05
856.8372	1064.7717	1720.3	816.7
856.9822	1066.7469	1730.3	830.3
857.1272	1068.7213	1735.65	836.4
857.2723	1070.695	1753.65	855.35
857.4173	1072.6679	1759.65	857.7
857.5623	1074.6402	1782.75	882.6
857.7073	1076.6117	1784.4	879.55
857.8523	1078.5826	1762.45	859.5
857.9973	1080.5527	1742.25	839.5
858.1423	1082.5221	1702.1	802.3
858.2873	1084.4908	1679.95	779.95
858.4323	1086.4587	1664.25	765.35
858.5773	1088.426	1666.45	763.95
858.7223	1090.3925	1659.85	755.85
858.8673	1092.3584	1673.5	773.8
859.0123	1094.3235	1677.3	775.5
859.1573	1096.2879	1693.65	793
859.3022	1098.2515	1708.5	808.95
859.4472	1100.2145	1739.5	838.85
859.5922	1102.1767	1778.7	874.85
859.7371	1104.1382	1821.75	919.5
859.8821	1106.099	1864.05	961.2
860.027	1108.0591	1901.8	1002.35
860.172	1110.0185	1941.6	1039.05
860.3169	1111.9771	1979.6	1078.7
860.4619	1113.9351	2016.8	1115.7
860.6068	1115.8923	2067.8	1166.35
860.7517	1117.8488	2074.5	1171.9
860.8967	1119.8045	2028.35	1127.75
861.0416	1121.7596	1941.7	1037.45
861.1865	1123.7139	1869.05	968.4
861.3314	1125.6675	1813.55	914.25
861.4763	1127.6204	1815.85	916.55
861.6212	1129.5726	1828	925.1
861.7661	1131.524	1831.2	933.5
861.911	1133.4748	1795.5	894.75
862.0559	1135.4248	1735.2	836.5
862.2008	1137.3741	1704.75	803.65
862.3457	1139.3226	1682.4	776.5
862.4905	1141.2705	1679.4	779.4
862.6354	1143.2176	1695.55	790.45
862.7803	1145.164	1694.5	790.2
862.9251	1147.1097	1677.3	776.1
863.07	1149.0546	1666.95	762.05
863.2148	1150.9989	1647.3	745.35
863.3597	1152.9424	1616.65	713.95
863.5045	1154.8852	1617	715.25
863.6493	1156.8272	1608.6	709.1
863.7942	1158.7686	1613.8	707.7
863.939	1160.7092	1620.75	718.1
864.0838	1162.6491	1615.35	713.85
864.2286	1164.5883	1620.4	719.65
864.3734	1166.5267	1649	744.65
864.5182	1168.4644	1664.1	761.2
864.663	1170.4014	1705.3	801.45
864.8078	1172.3377	1733.2	834.65
864.9526	1174.2732	1784.05	884.5
865.0974	1176.2081	1868.5	967.15
865.2421	1178.1421	1982.1	1078
865.3869	1180.0755	2086.8	1188.3
865.5317	1182.0082	2123.25	1222.6
865.6764	1183.9401	2091.6	1191.85
865.8212	1185.8713	1986.95	1088.8
865.9659	1187.8017	1868.5	973
866.1106	1189.7315	1791.1	899
866.2554	1191.6605	1750.75	829.25
866.4001	1193.5888	1688.6	791.95
866.5448	1195.5163	1664.8	769.25
866.6895	1197.4432	1655.3	754.6
866.8342	1199.3693	1634.9	736.1
866.9789	1201.2947	1619	715.1
867.1236	1203.2193	1616.4	714.75
867.2683	1205.1432	1613.95	712.15
867.413	1207.0664	1612.6	710.35
867.5576	1208.9889	1613.45	707.8
867.7023	1210.9106	1613.45	714.8
867.847	1212.8316	1618.85	719.8
867.9916	1214.7519	1644.6	735.25
868.1363	1216.6715	1641.15	739.35
868.2809	1218.5903	1649.1	747.85
868.4255	1220.5084	1657.35	756.05
868.5701	1222.4257	1680.05	778.4
868.7148	1224.3424	1688.6	787.75
868.8594	1226.2583	1717.85	812.55
869.004	1228.1735	1737.65	835.05
869.1486	1230.0879	1770.75	866.8
869.2932	1232.0016	1813.8	914.55
869.4377	1233.9146	1834.95	935.6
869.5823	1235.8269	1860.2	959.25
869.7269	1237.7384	1873.05	973.05
869.8715	1239.6492	1872.9	970.95
870.016	1241.5592	1897.5	995.85
870.1606	1243.4686	1937.1	1035.65
870.3051	1245.3772	2007.9	1105.1
870.4496	1247.285	2098.6	1197.4
870.5941	1249.1922	2151.8	1250.5
870.7387	1251.0986	2215.45	1313.75
870.8832	1253.0042	2291.4	1392
871.0277	1254.9092	2378.65	1478.15
871.1722	1256.8134	2434.5	1534.9
871.3167	1258.7169	2493.4	1589.85
871.4611	1260.6196	2500.95	1597.15
871.6056	1262.5216	2491.15	1589
871.7501	1264.4229	2472.85	1573.25
871.8945	1266.3234	2442.85	1543.2
872.039	1268.2232	2407.05	1505
872.1834	1270.1223	2357.1	1456.2
872.3278	1272.0207	2344.95	1443.1
872.4723	1273.9183	2324.75	1415.4
872.6167	1275.8151	2334.4	1435.05
872.7611	1277.7113	2382.25	1479.5
872.9055	1279.6067	2457.55	1557.3
873.0499	1281.5014	2591.8	1690
873.1943	1283.3953	2738.1	1833.8
873.3386	1285.2885	2877.15	1980.5
873.483	1287.181	2972.35	2070.7
873.6274	1289.0727	3014.7	2116.7
873.7717	1290.9637	2966.15	2065.3
873.9161	1292.854	2903.85	1999.65
874.0604	1294.7435	2817	1915.6
874.2047	1296.6323	2741.35	1841.25
874.349	1298.5204	2666.65	1760.6
874.4933	1300.4077	2610.35	1706.8
874.6376	1302.2943	2563.3	1660.25
874.7819	1304.1802	2532.15	1631.25
874.9262	1306.0653	2501.8	1599.8
875.0705	1307.9497	2463.25	1561.9
875.2147	1309.8333	2420.95	1520.25
875.359	1311.7162	2393.6	1492.15
875.5032	1313.5984	2356.8	1453.9
875.6475	1315.4798	2352.25	1437.55
875.7917	1317.3605	2331	1416.5
875.9359	1319.2405	2299.7	1394.55
876.0801	1321.1197	2281.55	1378
876.2243	1322.9982	2216.9	1312.45
876.3685	1324.876	2136.85	1235.35
876.5127	1326.753	2055.85	1153.95
876.6569	1328.6293	1990.75	1086.35
876.801	1330.5048	1917.65	1011.85
876.9452	1332.3796	1856.35	953.35
877.0893	1334.2537	1838.4	910.55
877.2335	1336.127	1778.3	876.7
877.3776	1337.9996	1764.75	861.7
877.5217	1339.8714	1741.85	839.9
877.6658	1341.7426	1771.55	827.75
877.8099	1343.6129	1726.3	823.2
877.954	1345.4826	1709.3	803.55
878.0981	1347.3515	1703.35	798.4
878.2422	1349.2196	1682.6	781.85
878.3862	1351.087	1679.3	777.1
878.5303	1352.9537	1679.25	777.6
878.6743	1354.8197	1679.6	778.2
878.8184	1356.6849	1698	793.3
878.9624	1358.5493	1705.8	804.15
879.1064	1360.4131	1723.2	822.15
879.2504	1362.276	1758.2	856.7
879.3944	1364.1383	1785.3	882.5
879.5384	1365.9998	1810.15	903.35
879.6823	1367.8606	1792	888.3
879.8263	1369.7206	1783.25	881.65
879.9702	1371.5799	1783.15	879.3
880.1142	1373.4384	1763.5	861.8
880.2581	1375.2962	1737.65	835.4
880.402	1377.1533	1687.65	787.4
880.5459	1379.0096	1643.35	742.55
880.6898	1380.8652	1614.35	716.95
880.8337	1382.7201	1588.5	689.6
880.9776	1384.5742	1566	664.25
881.1215	1386.4275	1560.7	656.2
881.2653	1388.2802	1543.4	641.15
881.4092	1390.132	1525.75	625.85
881.553	1391.9832	1517.1	613.6
881.6968	1393.8336	1510.15	607
881.8406	1395.6832	1502.65	596.9
881.9844	1397.5322	1492.55	592.3
882.1282	1399.3803	1490.35	585.7
882.272	1401.2278	1470.45	570.7
882.4158	1403.0745	1467.75	567.25
882.5595	1404.9204	1465.1	565.7
882.7033	1406.7656	1461.05	560.55
882.847	1408.6101	1460.6	558.7
882.9908	1410.4538	1460.4	556.95
883.1345	1412.2968	1458.65	555.05
883.2782	1414.139	1458.5	557.05
883.4219	1415.9805	1465.4	563.55
883.5656	1417.8213	1496.2	574.55
883.7092	1419.6613	1484.4	584.45
883.8529	1421.5006	1514.35	612.7
883.9965	1423.3391	1553	652.5
884.1402	1425.1769	1593.65	691.4
884.2838	1427.0139	1656.3	755.85
884.4274	1428.8502	1728.85	823.3
884.571	1430.6858	1776.4	874.75
884.7146	1432.5206	1812.6	914.05
884.8582	1434.3547	1804.25	901.35
885.0018	1436.188	1788.75	886.7
885.1453	1438.0206	1767.45	865.65
885.2889	1439.8524	1760.05	859.65
885.4324	1441.6835	1759	858.55
885.5759	1443.5139	1762.6	858.45
885.7194	1445.3435	1757.35	857.45
885.8629	1447.1724	1768.15	868.55
886.0064	1449.0005	1764.35	866.05
886.1499	1450.8279	1759.05	858.8
886.2933	1452.6545	1751.65	854.25
886.4368	1454.4804	1760.1	860.55
886.5802	1456.3056	1752.05	842.15
886.7237	1458.13	1723.9	826.5
886.8671	1459.9536	1703.25	803.6
887.0105	1461.7766	1669.4	772
887.1539	1463.5987	1637.5	736.55
887.2972	1465.4202	1600.45	696.3
887.4406	1467.2409	1570	670
887.584	1469.0608	1538.95	638.1
887.7273	1470.88	1509.15	608.2
887.8706	1472.6984	1499.6	597.65
888.0139	1474.5161	1474.95	573.35
888.1572	1476.3331	1462.05	564.8
888.3005	1478.1493	1453.6	552.25
888.4438	1479.9648	1459.5	560.6
888.5871	1481.7795	1444.45	544.35
888.7303	1483.5935	1436.3	536.35
888.8736	1485.4067	1445.15	543.15
889.0168	1487.2192	1450.75	550
889.16	1489.031	1454.35	554.55
889.3032	1490.842	1444.25	543.65
889.4464	1492.6522	1442.7	543.8
889.5896	1494.4618	1440.4	539.8
889.7327	1496.2705	1439.15	541.85
889.8759	1498.0785	1426.6	524.7
890.019	1499.8858	1422.05	520.6
890.1622	1501.6924	1415.15	514.7
890.3053	1503.4981	1411.1	511.9
890.4484	1505.3032	1402.3	501
890.5914	1507.1075	1397.05	496.7
890.7345	1508.911	1386.8	486.75
890.8776	1510.7138	1390.15	489.25
891.0206	1512.5159	1389.4	491.2
891.1637	1514.3172	1378.45	477.95
891.3067	1516.1178	1367.5	469.7
891.4497	1517.9176	1370.55	469.95
891.5927	1519.7166	1359.45	458.2
891.7357	1521.515	1359.8	454.6
891.8786	1523.3126	1352.15	454.45
892.0216	1525.1094	1350.2	449.65
892.1645	1526.9055	1350	450.65
892.3074	1528.7008	1335.05	436.45
892.4503	1530.4954	1343.45	437.95
892.5932	1532.2893	1335.65	438.9
892.7361	1534.0824	1335.2	434.15
892.879	1535.8747	1332.2	433.9
893.0218	1537.6663	1331.8	433.9
893.1647	1539.4572	1330.05	431.85
893.3075	1541.2473	1329.1	429
893.4503	1543.0367	1334.65	436.55
893.5931	1544.8253	1335.6	433
893.7359	1546.6132	1343.45	444.05
893.8787	1548.4003	1346.45	441.35
894.0214	1550.1867	1355.35	448.95
894.1642	1551.9723	1362.6	461.4
894.3069	1553.7572	1379.3	482.3
894.4496	1555.5414	1390.25	493.3
894.5923	1557.3247	1414.3	519.25
894.735	1559.1074	1440.35	546.15
894.8777	1560.8893	1476.6	580.4
895.0204	1562.6705	1502.6	604.75
895.163	1564.4509	1520.7	627.3
895.3056	1566.2305	1522.35	628.45
895.4482	1568.0094	1530.5	639.45
895.5908	1569.7876	1522.45	628.1
895.7334	1571.565	1511.8	616.95
895.876	1573.3417	1514.4	617.1
896.0186	1575.1176	1531	638.05
896.1611	1576.8928	1543.3	649.5
896.3036	1578.6672	1548.9	657.8
896.4461	1580.4409	1571.9	681.2
896.5886	1582.2138	1599.7	708.3
896.7311	1583.986	1636.95	742.5
896.8736	1585.7575	1659.25	765.65
897.0161	1587.5282	1680.05	788.9
897.1585	1589.2981	1704.25	813.05
897.3009	1591.0673	1722.65	831.5
897.4433	1592.8358	1734.7	842.2
897.5857	1594.6035	1730.35	834
897.7281	1596.3704	1717.2	822.9
897.8705	1598.1366	1712.3	817.15
898.0128	1599.9021	1691.15	798.2
898.1551	1601.6668	1674.75	781.65
898.2975	1603.4308	1676.2	783.35
898.4398	1605.194	1684.85	788.65
898.5821	1606.9564	1707.35	817.35
898.7243	1608.7182	1754.4	862.4
898.8666	1610.4791	1831.9	945.2
899.0088	1612.2394	1914.1	1029.55
899.1511	1613.9988	1976.4	1088
899.2933	1615.7576	2027.7	1139.5
899.4355	1617.5156	2046.1	1148.45
899.5776	1619.2728	2009.2	1114.7
899.7198	1621.0293	1920.9	1027.2
899.862	1622.785	1823.15	929.85
900.0041	1624.54	1732.9	839.95
900.1462	1626.2942	1636.5	746.1
900.2883	1628.0477	1561.8	669.25
900.4304	1629.8005	1500.25	607.2
900.5725	1631.5525	1440	548.05
900.7145	1633.3037	1400.6	509.9
900.8566	1635.0542	1368.05	478.45
900.9986	1636.804	1336.3	445.6
901.1406	1638.553	1389.1	429.2
901.2826	1640.3013	1306.55	416
901.4245	1642.0488	1286.3	393.9
901.5665	1643.7955	1266.55	380.4
901.7085	1645.5416	1264.7	374.7
901.8504	1647.2868	1257.85	365.85
901.9923	1649.0313	1251.9	361.6
902.1342	1650.7751	1254.05	360.8
902.2761	1652.5181	1242.9	352.25
902.4179	1654.2604	1246.4	356.25
902.5598	1656.0019	1252.55	364.2
902.7016	1657.7427	1263.25	372.25
902.8434	1659.4828	1285.5	394.55
902.9852	1661.222	1318.6	425.95
903.127	1662.9606	1335.75	443.65
903.2687	1664.6984	1347.05	455.3
903.4105	1666.4354	1351.3	457.05
903.5522	1668.1717	1324.7	431.4
903.6939	1669.9072	1287.05	394.4
903.8356	1671.642	1258.25	363.4
903.9773	1673.3761	1223.35	330.5
904.119	1675.1094	1199.4	306.65
904.2606	1676.8419	1184.1	293.2
904.4022	1678.5737	1176.65	284.9
904.5439	1680.3048	1173.2	280.35
904.6855	1682.0351	1161.35	270.65
904.827	1683.7646	1153.8	256.95
904.9686	1685.4934	1150.65	257.55
905.1101	1687.2215	1149.8	258.3
905.2517	1688.9488	1147.4	256.95
905.3932	1690.6754	1136	246.7
905.5347	1692.4012	1137.2	244.55
905.6761	1694.1263	1142.45	251.7
905.8176	1695.8506	1129.2	236.55
905.9591	1697.5742	1128.5	238.05
906.1005	1699.297	1127.25	237.75
906.2419	1701.0191	1127.85	239.7
906.3833	1702.7404	1128.05	238.8
906.5246	1704.461	1124.05	234.35
906.666	1706.1808	1124.45	230.95
906.8073	1707.8999	1114.95	224.35
906.9487	1709.6182	1115.05	225.65
907.09	1711.3358	1116.15	227.7
907.2313	1713.0527	1109.5	221.8
907.3725	1714.7688	1118.7	225.7
907.5138	1716.4841	1111.3	219.55
907.655	1718.1987	1111.45	216.35
907.7962	1719.9126	1107.35	217
907.9374	1721.6257	1111.85	220.9
908.0786	1723.338	1099.75	211.5
908.2198	1725.0496	1109.95	223
908.3609	1726.7605	1102.25	212.65
908.502	1728.4706	1099.35	211
908.6431	1730.18	1099.75	211.1
908.7842	1731.8886	1103.55	214.95
908.9253	1733.5964	1122.35	213
909.0664	1735.3036	1104.8	215.1
909.2074	1737.0099	1098.2	210.05
909.3484	1738.7156	1098.7	211.1
909.4894	1740.4204	1103.2	210.55
909.6304	1742.1246	1098.95	207.75
909.7714	1743.8279	1097.65	208.7
909.9123	1745.5306	1092.1	203.75
910.0532	1747.2325	1091.75	205.2
910.1941	1748.9336	1094.15	204.45
910.335	1750.634	1094.85	202.8
910.4759	1752.3336	1092.6	203.35
910.6168	1754.0325	1092.65	204
910.7576	1755.7307	1094.55	207.6
910.8984	1757.4281	1093.55	207.05
911.0392	1759.1247	1102.9	205.4
911.18	1760.8206	1098.05	203.9
911.3208	1762.5158	1096.1	201.15
911.4615	1764.2102	1093.1	204.15
911.6022	1765.9039	1091.65	205.25
911.7429	1767.5968	1086.3	198.35
911.8836	1769.289	1089.55	200.4
912.0243	1770.9804	1089.05	200.15
912.1649	1772.6711	1089.15	198.45
912.3056	1774.361	1087.4	196.3
912.4462	1776.0502	1087.3	196.65
912.5868	1777.7386	1091.65	199.4
912.7274	1779.4263	1088.45	198.95
912.8679	1781.1132	1080.1	193
913.0084	1782.7994	1088	197.45
913.149	1784.4849	1087.55	202.15
913.2895	1786.1696	1100.75	196.3
913.4299	1787.8535	1083.1	196.45
913.5704	1789.5367	1079.55	194.1
913.7108	1791.2192	1083.3	196.05
913.8513	1792.9009	1111.45	198.85
913.9917	1794.5818	1073.1	180.35
914.132	1796.2621	1078.1	189.85
914.2724	1797.9415	1078.85	189.75
914.4128	1799.6202	1079.9	189.4
914.5531	1801.2982	1075.1	183.8
914.6934	1802.9755	1073.4	183.75
914.8337	1804.6519	1078.1	189.4
914.9739	1806.3277	1075.05	187.85
915.1142	1808.0027	1072.85	188.35
915.2544	1809.6769	1072.55	186.05
915.3946	1811.3504	1070.2	182.6
915.5348	1813.0231	1075.4	186.9
915.675	1814.6951	1070.85	184.6
915.8151	1816.3664	1072.35	181.65
915.9553	1818.0369	1075.05	184.65
916.0954	1819.7067	1070.05	182.55
916.2355	1821.3757	1071.65	180.05
916.3755	1823.044	1068.3	178.95
916.5156	1824.7115	1072.35	182.2
916.6556	1826.3783	1065.05	177.2
916.7956	1828.0443	1064.25	175.45
916.9356	1829.7096	1067.4	177.75
917.0756	1831.3741	1077.3	186.1
917.2155	1833.0379	1065.25	178.45
917.3555	1834.701	1066.55	176.65
917.4954	1836.3633	1060.85	174.15
917.6353	1838.0248	1060.1	171.25
917.7751	1839.6856	1066.65	179.45
917.915	1841.3457	1060.5	173.55
918.0548	1843.005	1068.35	180.95
918.1946	1844.6636	1064.7	176.45
918.3344	1846.3214	1062.4	174.35
918.4742	1847.9785	1060.95	172.5
918.6139	1849.6349	1062.1	172.85
918.7537	1851.2904	1070.9	170.85
918.8934	1852.9453	1063.5	171.85
919.0331	1854.5994	1064.15	174.05
919.1727	1856.2528	1069.15	175.45
919.3124	1857.9054	1061.1	173
919.452	1859.5572	1058.15	172.55
919.5916	1861.2083	1051.45	161.85
919.7312	1862.8587	1056.2	167.05
919.8708	1864.5084	1064.25	172.6
920.0103	1866.1572	1057.45	168.55
920.1498	1867.8054	1056.4	165.45
920.2893	1869.4528	1058.2	168.25
920.4288	1871.0994	1055.2	165.35
920.5683	1872.7453	1056.3	166.55
920.7077	1874.3905	1061.1	166.6
920.8471	1876.0349	1057.6	168.25
920.9865	1877.6786	1060.9	170.35
921.1259	1879.3215	1055.85	165.75
921.2653	1880.9637	1057.4	166.65
921.4046	1882.6051	1053.2	164.4
921.5439	1884.2458	1054.55	165.65
921.6832	1885.8858	1053	164.85
921.8225	1887.525	1051.1	161.6
921.9617	1889.1634	1053.2	163.25
922.101	1890.8011	1051.8	160.5
922.2402	1892.4381	1051.05	162.5
922.3794	1894.0743	1051.45	162.1
922.5185	1895.7098	1052.55	165.4
922.6577	1897.3446	1052.45	161.35
922.7968	1898.9786	1053.7	161.5
922.9359	1900.6118	1050.65	162.2
923.075	1902.2443	1053.75	163.15
923.214	1903.8761	1048.2	159.35
923.3531	1905.5071	1045.35	153
923.4921	1907.1374	1045.65	156.55
923.6311	1908.7669	1045.7	158
923.77	1910.3957	1049.15	161.45
923.909	1912.0237	1041.05	153.55
924.0479	1913.651	1046	157.8
924.1868	1915.2776	1044.1	155.35
924.3257	1916.9034	1043.45	155.4
924.4646	1918.5285	1039.65	152.65
924.6034	1920.1528	1040.2	150.8
924.7422	1921.7764	1041.9	151.95
924.881	1923.3992	1039.75	152.4
925.0198	1925.0213	1039.55	149.85
925.1586	1926.6427	1037	151.45
925.2973	1928.2633	1250.45	150.2
925.436	1929.8832	1045.9	152.3
925.5747	1931.5023	1040.8	150.1
925.7134	1933.1207	1036.65	148
925.852	1934.7383	1037.1	149.65
925.9906	1936.3552	1037.85	150.05
926.1292	1937.9714	1038.35	151
926.2678	1939.5868	1039.35	148.75
926.4064	1941.2015	1037.35	147.3
926.5449	1942.8154	1039.15	147.8
926.6834	1944.4286	1037.45	148.25
926.8219	1946.041	1059.35	146.95
926.9604	1947.6528	1036.7	143.45
927.0988	1949.2637	1034.25	145.7
927.2372	1950.8739	1035.6	147.8
927.3756	1952.4834	1036.45	147.8
927.514	1954.0921	1031.2	141.7
927.6523	1955.7001	1039.65	150.35
927.7907	1957.3074	1028.15	142.15
927.929	1958.9139	1028.45	144.8
928.0673	1960.5197	1028.45	140.7
928.2055	1962.1247	1026.6	140
928.3438	1963.729	1027.05	141.05
928.482	1965.3325	1032.5	139.6
928.6202	1966.9353	1027.15	141.95
928.7584	1968.5374	1026.15	140.35
928.8965	1970.1387	1026.6	140.15
929.0346	1971.7393	1026.4	138.7
929.1727	1973.3392	1026.55	141.8
929.3108	1974.9383	1024.5	140.45
929.4489	1976.5366	1019.2	135.1
929.5869	1978.1342	1023.35	140.2
929.7249	1979.7311	1024.55	140.1
929.8629	1981.3273	1022	138.55
930.0009	1982.9227	1024	138.15
930.1388	1984.5173	1020.35	136.45
930.2767	1986.1112	1020.45	136.7
930.4146	1987.7044	1020.2	137.4
930.5525	1989.2968	1022.85	134.9
930.6904	1990.8885	1023.95	135.45
930.8282	1992.4795	1020.4	137.15
930.966	1994.0697	1019.45	135.7
931.1038	1995.6592	1021.75	138.55
931.2415	1997.2479	1019.4	135.05
931.3793	1998.8359	1018.9	134.75
931.517	2000.4232	1013.2	131.7
931.6547	2002.0097	1013.55	135.1
931.7923	2003.5955	1016.7	134.1
931.93	2005.1805	1013.45	131.6
932.0676	2006.7648	1014.1	133.8
932.2052	2008.3484	1017.6	133.2
932.3427	2009.9312	1015.35	134.3
932.4803	2011.5133	1015.55	134.5
932.6178	2013.0946	1016.8	135.05
932.7553	2014.6752	1013.5	132.35
932.8928	2016.2551	1017.45	132.1
933.0302	2017.8342	1014.55	134.9
933.1676	2019.4126	1014.9	134.85
933.305	2020.9902	1012.45	132.4
933.4424	2022.5672	1015.75	132.5
933.5798	2024.1433	1020.35	134.8
933.7171	2025.7188	1011.5	131.85
933.8544	2027.2935	1013.85	133.55
933.9917	2028.8674	1011.65	133.2
934.129	2030.4406	1010.2	131.3
934.2662	2032.0131	1011.5	133.05
934.4034	2033.5849	1012.25	128.95
934.5406	2035.1559	1013.85	133.15
934.6778	2036.7261	1012.2	133.05
934.8149	2038.2957	1013.15	129.85
934.952	2039.8645	1013.05	130.85
935.0891	2041.4325	1014.2	125.2
935.2262	2042.9998	1014.05	134.85
935.3632	2044.5664	1007.25	125
935.5002	2046.1323	1009	128.9
935.6372	2047.6974	1009.9	130.1
935.7742	2049.2617	1006.4	126.4
935.9111	2050.8254	1014.35	127.65
936.048	2052.3883	1012.05	129.3
936.1849	2053.9504	1009.95	125.35
936.3218	2055.5118	1011.6	128.95
936.4586	2057.0725	1010.55	124.25
936.5955	2058.6325	1009.55	128.55
936.7323	2060.1917	1007.3	127.3
936.869	2061.7502	1007	123.35
937.0058	2063.3079	1005.75	128.25
937.1425	2064.8649	1008.9	124.95
937.2792	2066.4212	1009.95	128.85
937.4159	2067.9767	1009.45	129.2
937.5525	2069.5315	1006.65	124.85
937.6891	2071.0856	1007.3	124.05
937.8257	2072.6389	1007.2	128.65
937.9623	2074.1915	1003.35	122.8
938.0989	2075.7433	1006.3	123.95
938.2354	2077.2945	1006	124.55
938.3719	2078.8448	1011.4	130.45
938.5084	2080.3945	1006.3	124.1
938.6448	2081.9434	1011	129.45
938.7812	2083.4916	1006.55	122.6
938.9176	2085.039	1010.8	125.55
939.054	2086.5857	1012.95	127.35
939.1903	2088.1317	1007.7	124.05
939.3267	2089.677	1010.9	124.3
939.463	2091.2215	1008.25	122.7
939.5992	2092.7652	1010.8	123.95
939.7355	2094.3083	1010.85	124.1
939.8717	2095.8506	1004.7	123.35
940.0079	2097.3921	1004.7	121.4
940.1441	2098.933	1012.75	127.3
940.2802	2100.4731	1005.65	124
940.4163	2102.0124	1024.85	124.15
940.5524	2103.5511	1007.65	124.4
940.6885	2105.089	1011.2	128.4
940.8245	2106.6261	1005.3	120.55
940.9606	2108.1626	1010.7	126.85
941.0965	2109.6983	1037.45	124.4
941.2325	2111.2332	1004.65	120.8
941.3684	2112.7675	1009.2	124.65
941.5044	2114.301	1007.3	121.75
941.6403	2115.8337	1006.2	125
941.7761	2117.3657	1004.75	118.95
941.912	2118.897	1002.25	119.3
942.0478	2120.4276	1011.9	121.4
942.1835	2121.9575	1003.6	119.05
942.3193	2123.4866	1010.6	124.5
942.455	2125.0149	1006.95	121.2
942.5907	2126.5426	1004.05	124.3
942.7264	2128.0695	1005.75	120.5
942.8621	2129.5956	1000.4	119.2
942.9977	2131.1211	1005	118.95
943.1333	2132.6458	1006.65	123.45
943.2689	2134.1698	1003.4	120.55
943.4044	2135.693	1006.85	119.4
943.54	2137.2155	1007.15	123.5
943.6755	2138.7373	1003.7	120.5
943.8109	2140.2584	999.45	118.35
943.9464	2141.7787	1003.55	117.8
944.0818	2143.2983	998.1	119.45
944.2172	2144.8171	998.55	118.7
944.3526	2146.3353	1004.5	120.25
944.4879	2147.8527	1000.6	120.25
944.6232	2149.3693	1003.2	121.3
944.7585	2150.8853	1004.4	120.9
944.8938	2152.4005	1002.95	118.95
945.029	2153.9149	1004.25	118.35
945.1642	2155.4287	1002.65	119.65
945.2994	2156.9417	1006.65	123.2
945.4346	2158.454	998.4	114.9
945.5697	2159.9655	999.9	117.7
945.7048	2161.4764	997.2	116.05
945.8399	2162.9865	1000.45	118.4
945.9749	2164.4958	999.95	116.95
946.1099	2166.0045	1003.5	120
946.2449	2167.5124	1000.55	116.2
946.3799	2169.0195	997.6	114.1
946.5148	2170.526	1004	118.75
946.6498	2172.0317	999.2	115.55
946.7846	2173.5367	998.15	115.05
946.9195	2175.0409	997.45	116.2
947.0543	2176.5445	998	117
947.1891	2178.0473	998.8	114.15
947.3239	2179.5494	1000.2	114.95
947.4587	2181.0507	997.2	113.8
947.5934	2182.5513	997.95	113.45
947.7281	2184.0512	993.35	111.25
947.8628	2185.5504	995.3	112.95
947.9974	2187.0488	998.95	117.65
948.132	2188.5465	997.5	115.3
948.2666	2190.0435	1000.35	117.75
948.4012	2191.5397	998.35	114.45
948.5357	2193.0353	996.85	113.4
948.6702	2194.5301	1004.4	117.15
948.8047	2196.0241	1000.1	115.2
948.9392	2197.5175	999.15	113.95
949.0736	2199.0101	1002.5	116.55
949.208	2200.502	998.35	115.7
949.3424	2201.9931	994.8	110.4
949.4767	2203.4835	994.8	112.05
949.611	2204.9733	1012.75	113.8
949.7453	2206.4622	995	115.6
949.8796	2207.9505	995.8	113.65
950.0138	2209.438	988.7	107.8
950.148	2210.9248	992.15	109.45
950.2822	2212.4109	991.55	107.75
950.4164	2213.8962	996.8	110.05
950.5505	2215.3809	995.2	109.55
950.6846	2216.8648	1001	114.75
950.8186	2218.3479	999.35	109.6
950.9527	2219.8304	998.95	111.15
951.0867	2221.3121	995.85	110.05
951.2207	2222.7931	990.35	106.2
951.3546	2224.2733	992.6	106.8
951.4886	2225.7529	992.95	108.95
951.6225	2227.2317	991.35	107.65
951.7563	2228.7098	989.5	109.8
951.8902	2230.1872	986.6	106.75
952.024	2231.6638	985.45	103.65
952.1578	2233.1397	987.95	104.25
952.2916	2234.6149	986.9	107.5
952.4253	2236.0894	990.75	109.85
952.559	2237.5632	998.2	106.05
952.6927	2239.0362	988.05	105.05
952.8263	2240.5085	989.3	106
952.9599	2241.9801	988.1	106.25
953.0935	2243.4509	990.7	107
953.2271	2244.921	989.45	106.9
953.3606	2246.3904	989.2	102
953.4941	2247.8591	983.8	100.75
953.6276	2249.3271	985.6	100.95
953.7611	2250.7943	986.05	100.85
953.8945	2252.2608	986.75	103.2
954.0279	2253.7266	988.25	104.25
954.1612	2255.1917	984.7	102.65
954.2946	2256.656	984.45	100.3
954.4279	2258.1197	983.25	100.5
954.5612	2259.5826	986.7	101
954.6944	2261.0447	986.05	102.45
954.8276	2262.5062	985.65	99.95
954.9608	2263.9669	983.55	97.6
955.094	2265.4269	987.9	104.5
955.2271	2266.8862	981.45	97.75
955.3602	2268.3448	981.15	98.3
955.4933	2269.8026	981.75	99
955.6264	2271.2598	981.15	98.6
955.7594	2272.7162	979.25	98.5
955.8924	2274.1719	983.25	99.75
956.0253	2275.6268	985.35	102.7
956.1583	2277.0811	987	101.8
956.2912	2278.5346	979.7	96.55
956.4241	2279.9874	979.65	99.1
956.5569	2281.4395	980.2	99.6
956.6897	2282.8908	987.75	100.5
956.8225	2284.3414	985.35	100.15
956.9553	2285.7914	980.15	98.3
957.088	2287.2406	981.15	97.85
957.2207	2288.689	981.6	97.5
957.3534	2290.1368	979.55	94.2
957.486	2291.5838	982.85	93.95
957.6186	2293.0302	983.5	99.3
957.7512	2294.4758	980.55	96.1
957.8838	2295.9206	983.3	98.05
958.0163	2297.3648	979.4	97.15
958.1488	2298.8082	982.05	97.35
958.2813	2300.251	978.95	95.1
958.4137	2301.693	982.1	93.4
958.5461	2303.1343	980.95	96.65
958.6785	2304.5748	979.45	95.35
958.8108	2306.0147	980.1	96.5
958.9432	2307.4538	979.2	96.05
959.0754	2308.8922	976.05	96.1
959.2077	2310.3299	976.8	95.75
959.3399	2311.7669	976.15	94.45
959.4721	2313.2031	981.8	97
959.6043	2314.6387	975.6	93.35
959.7365	2316.0735	971.85	87.55
959.8686	2317.5076	980.1	95.7
960.0006	2318.941	977.85	93.55
960.1327	2320.3737	980.15	94.1
960.2647	2321.8056	980.4	95.85
960.3967	2323.2369	976.9	92.6
960.5287	2324.6674	979.75	93.8
960.6606	2326.0972	982.4	97.6
960.7925	2327.5263	985.95	101.65
960.9244	2328.9547	985.65	101.1
961.0562	2330.3823	984.35	100.65
961.1881	2331.8092	982.95	95.75
961.3198	2333.2355	978.2	93.15
961.4516	2334.661	977.45	93.1
961.5833	2336.0858	976.9	92.75
961.715	2337.5098	975	90.4
961.8467	2338.9332	976.95	90.5
961.9783	2340.3558	978.2	92.8
962.1099	2341.7778	972.85	91.4
962.2415	2343.199	974.2	89.35
962.373	2344.6195	972.25	89.3
962.5045	2346.0393	967.85	85.05
962.636	2347.4583	970.2	85.2
962.7675	2348.8767	973.25	88.35
962.8989	2350.2943	974.6	89.35
963.0303	2351.7113	976.6	88.05
963.1617	2353.1275	972.25	86.55
963.293	2354.543	999.9	90.45
963.4243	2355.9578	973.05	89.95
963.5556	2357.3718	964.95	80.15
963.6868	2358.7852	972.75	87.3
963.818	2360.1978	969	85.15
963.9492	2361.6098	972.1	89.4
964.0803	2363.021	974.35	86.4
964.2114	2364.4315	972.75	89.7
964.3425	2365.8413	974.85	89.5
964.4736	2367.2504	970.45	86
964.6046	2368.6587	969.1	86.05
964.7356	2370.0664	970.3	86.65
964.8666	2371.4733	969.75	86.4
964.9975	2372.8795	966.9	82.5
965.1284	2374.285	970.9	84.7
965.2593	2375.6899	971.25	86.85
965.3901	2377.0939	969.45	84.6
965.5209	2378.4973	968.6	84.95
965.6517	2379.9	969.4	83.85
965.7825	2381.3019	966.75	82.85
965.9132	2382.7032	967	81.9
966.0439	2384.1037	964.6	82.25
966.1745	2385.5035	968.3	86.15
966.3051	2386.9027	965.75	84.35
966.4357	2388.3011	969.1	83.25
966.5663	2389.6987	969.55	86.75
966.6968	2391.0957	968	83.45
966.8273	2392.492	961.65	78.25
966.9578	2393.8876	966.95	81.55
967.0882	2395.2824	962.3	78.15
967.2186	2396.6765	964.45	78.75
967.349	2398.07	964.5	78.9
967.4793	2399.4627	963.25	76.35
967.6097	2400.8547	966.25	78.6
967.7399	2402.246	970.6	78.7
967.8702	2403.6366	959.15	74.15
968.0004	2405.0265	964	79.45
968.1306	2406.4156	967.05	78.95
968.2607	2407.8041	966.65	79.3
968.3909	2409.1918	967.85	79.2
968.521	2410.5789	963.95	78
968.651	2411.9652	967.5	78.85
968.781	2413.3508	963.55	77.45
968.911	2414.7358	963.1	76.4
969.041	2416.12	963.5	78.6
969.1709	2417.5035	962.5	77.95
969.3008	2418.8863	961.8	73.45
969.4307	2420.2684	960.05	73.65
969.5606	2421.6497	963	75.75
969.6904	2423.0304	960.5	73.3
969.8201	2424.4104	958.6	71.85
969.9499	2425.7896	967.85	75.25
970.0796	2427.1682	957.55	71.9
970.2093	2428.546	961.9	74.55
970.3389	2429.9232	962.6	74.95
970.4685	2431.2996	962.8	76.3
970.5981	2432.6753	959.9	72.75
970.7277	2434.0503	959.85	72.9
970.8572	2435.4246	961.8	76.25
970.9867	2436.7982	959.95	71.4
971.1161	2438.1711	961.8	76.95
971.2456	2439.5433	962.2	75.8
971.375	2440.9148	961.7	71.8
971.5043	2442.2856	958.85	75.3
971.6336	2443.6557	954.2	65.5
971.7629	2445.025	958.05	72
971.8922	2446.3937	958.05	72.85
972.0214	2447.7617	959.5	71.25
972.1506	2449.1289	959	73.6
972.2798	2450.4955	959.4	69.05
972.4089	2451.8613	958.7	75.25
972.538	2453.2265	955.85	71.6
972.6671	2454.5909	957.85	71.55
972.7961	2455.9546	955.35	71.3
972.9251	2457.3177	958.7	74.3
973.0541	2458.68	957.15	70.95
973.1831	2460.0416	956.25	70.95
973.312	2461.4025	955.5	69
973.4408	2462.7627	967.2	72.85
973.5697	2464.1222	954.95	72.55
973.6985	2465.4811	954.15	69.45
973.8273	2466.8392	957.05	73.45
973.956	2468.1966	956.55	69.1
974.0847	2469.5533	956.75	69.25
974.2134	2470.9093	959.3	75.15
974.3421	2472.2645	957.65	71.75
974.4707	2473.6191	953.4	69.9
974.5993	2474.973	955	70
974.7278	2476.3262	954.2	66.75
974.8563	2477.6787	951.3	67.85
974.9848	2479.0305	951.45	67.4
975.1132	2480.3816	952.7	65
975.2417	2481.7319	952.35	67.85
975.37	2483.0816	952.3	67.1
975.4984	2484.4306	953.6	71.4
975.6267	2485.7789	952.85	69.75
975.755	2487.1264	951	64.85
975.8833	2488.4733	948.6	66.35
976.0115	2489.8195	965.85	62.95
976.1397	2491.165	955.1	67.65
976.2678	2492.5097	953.2	69.05
976.3959	2493.8538	950.85	67.15
976.524	2495.1972	950.9	66.65
976.6521	2496.5398	953	66.65
976.7801	2497.8818	955.85	67.3
976.9081	2499.2231	950.1	66
977.036	2500.5637	950.7	60.2
977.164	2501.9035	950.45	63.85
977.2918	2503.2427	956.2	66.9
977.4197	2504.5812	951.4	67.5
977.5475	2505.919	953.2	66.7
977.6753	2507.256	952.45	67.15
977.8031	2508.5924	949.75	63.4
977.9308	2509.9281	957.75	68.55
978.0585	2511.2631	947.75	63.85
978.1861	2512.5974	946.25	61.15
978.3137	2513.9309	948.55	63.35
978.4413	2515.2638	976.15	64.85
978.5689	2516.596	946.35	61.55
978.6964	2517.9275	948.05	61.55
978.8239	2519.2583	945.55	61.85
978.9513	2520.5884	952.5	66.25
979.0788	2521.9178	951.85	67.3
979.2062	2523.2465	946.1	60.55
979.3335	2524.5745	942.2	59.4
979.4608	2525.9018	945.65	61.25
979.5881	2527.2284	945.65	62.1
979.7154	2528.5543	946.45	62.7
979.8426	2529.8796	947.85	63.35
979.9698	2531.2041	947.45	62.35
980.0969	2532.5279	942.4	59.65
980.224	2533.851	944.15	59.15
980.3511	2535.1735	947	62.8
980.4781	2536.4952	948.15	64.4
980.6052	2537.8163	944.4	56.2
980.7321	2539.1366	947.55	63.25
980.8591	2540.4562	944.75	59.5
980.986	2541.7752	944.95	60.95
981.1129	2543.0935	943.6	57.95
981.2397	2544.411	945.65	60.4
981.3665	2545.7279	945.2	60.55
981.4933	2547.0441	945.35	59.7
981.62	2548.3596	947.1	60.05
981.7467	2549.6744	945	59.85
981.8734	2550.9885	955.5	65.15
982.0001	2552.3019	944.55	61.3
982.1267	2553.6146	945	60.35
982.2532	2554.9266	944.45	60.9
982.3798	2556.2379	944.9	56.55
982.5063	2557.5485	941.65	56.95
982.6327	2558.8585	948.75	54.8
982.7592	2560.1677	947.1	58.75
982.8856	2561.4762	944.9	59.7
983.0119	2562.7841	945.85	60.85
983.1383	2564.0913	944.85	62.25
983.2646	2565.3977	944.2	60.65
983.3908	2566.7035	941.15	58.3
983.517	2568.0086	944.25	58.3
983.6432	2569.313	943	56.5
983.7694	2570.6167	948.55	59.65
983.8955	2571.9197	938.15	55.75
984.0216	2573.222	944.85	57.2
984.1476	2574.5236	941.8	55.4
984.2737	2575.8246	945.6	59.75
984.3996	2577.1248	942.7	55.7
984.5256	2578.4244	941.55	56
984.6515	2579.7232	940.1	55.4
984.7774	2581.0214	966.65	56.9
984.9032	2582.3189	941	57.1
985.029	2583.6157	947.3	60.05
985.1548	2584.9118	941.3	57.95
985.2806	2586.2072	943.2	57.45
985.4063	2587.5019	940.25	57.75
985.5319	2588.7959	943.55	60.2
985.6576	2590.0893	941	55.1
985.7832	2591.3819	941.55	58
985.9087	2592.6739	939.65	55.5
986.0343	2593.9652	940.95	56
986.1597	2595.2557	942.1	57.8
986.2852	2596.5456	943.4	56.35
986.4106	2597.8348	941.3	57.65
986.536	2599.1234	942.3	58.55
986.6614	2600.4112	943.3	59.4
986.7867	2601.6983	946	60.65
986.912	2602.9848	943.3	58.85
987.0372	2604.2705	946.15	55.3
987.1624	2605.5556	940.25	56.45
987.2876	2606.84	941	57.1
987.4128	2608.1237	943	59.05
987.5379	2609.4067	938.95	53.8
987.6629	2610.689	949.25	57.75
987.788	2611.9707	944.75	57.55
987.913	2613.2516	943	56.6
988.0379	2614.5319	939.55	56.45
988.1629	2615.8115	937.7	51.9
988.2878	2617.0903	939.65	54.4
988.4126	2618.3685	937.4	52.6
988.5375	2619.6461	939.75	57
988.6622	2620.9229	938.9	55.15
988.787	2622.199	936.75	52.15
988.9117	2623.4745	935.9	50.65
989.0364	2624.7493	936	50.15
989.161	2626.0234	933.6	51.65
989.2857	2627.2968	935.15	52
989.4102	2628.5695	936.9	51.25
989.5348	2629.8415	938.25	54.35
989.6593	2631.1128	937.85	50.95
989.7837	2632.3835	935.55	52.2
989.9082	2633.6535	931.45	50.7
990.0326	2634.9228	934.45	51.6
990.1569	2636.1914	933.4	51.6
990.2812	2637.4593	935.35	49.65
990.4055	2638.7265	934.05	48.5
990.5298	2639.9931	932.95	49.5
990.654	2641.259	935.75	49.85
990.7782	2642.5242	931.7	47.8
990.9023	2643.7887	933.1	50.05
991.0264	2645.0525	932.65	48.05
991.1505	2646.3156	931.95	48.9
991.2745	2647.5781	932.6	47.75
991.3985	2648.8398	932.55	49.85
991.5225	2650.1009	939.65	46.2
991.6464	2651.3613	934.15	49.95
991.7703	2652.6211	932	49.4
991.8942	2653.8801	931.65	47.2
992.018	2655.1385	935.55	48.65
992.1418	2656.3961	930.2	44.5
992.2655	2657.6531	932	48.05
992.3892	2658.9094	933.95	51.95
992.5129	2660.1651	927.35	43.85
992.6366	2661.42	929.45	44.3
992.7602	2662.6743	932.95	48.9
992.8837	2663.9279	936.85	53.05
993.0073	2665.1808	935.85	51.1
993.1307	2666.433	932.8	49.05
993.2542	2667.6846	930.95	48.5
993.3776	2668.9354	937.1	50.65
993.501	2670.1856	932.9	49.4
993.6244	2671.4351	932	49.65
993.7477	2672.6839	932.45	49.1
993.8709	2673.9321	933.9	51.4
993.9942	2675.1795	935.2	51.85
994.1174	2676.4263	929.85	44.4
994.2405	2677.6724	929.5	45.6
994.3637	2678.9179	935.55	53.05
994.4868	2680.1626	933.2	49.65
994.6098	2681.4067	932.75	49.9
994.7328	2682.6501	929.15	45.8
994.8558	2683.8928	929.2	47.6
994.9788	2685.1348	931.25	49.1
995.1017	2686.3761	930.1	48.15
995.2245	2687.6168	929.4	47.3
995.3474	2688.8568	929.65	45.95
995.4702	2690.0961	926.2	44.5
995.5929	2691.3348	928.8	42.95
995.7156	2692.5727	927.85	45.95
995.8383	2693.81	927.25	45.95
995.961	2695.0466	926.45	43.65
996.0836	2696.2826	931.6	47.75
996.2062	2697.5178	946.8	42.15
996.3287	2698.7524	927.9	45
996.4512	2699.9863	928.65	44.1
996.5737	2701.2195	928.95	48.55
996.6961	2702.452	930.65	45.45
996.8185	2703.6839	929.6	47.05
996.9408	2704.9151	928.45	46.65
997.0631	2706.1456	930.3	49.5
997.1854	2707.3755	931.25	47.55
997.3077	2708.6046	934.15	50.45
997.4299	2709.8331	931.6	48.9
997.552	2711.0609	929.25	45.3
997.6742	2712.2881	929	47.15
997.7963	2713.5145	932	46.05
997.9183	2714.7403	931.95	50.7
998.0403	2715.9654	932.65	49.25
998.1623	2717.1899	946.05	47.85
998.2842	2718.4136	934.7	53.15
998.4062	2719.6367	935.1	51.2
998.528	2720.8591	940.9	51.95
998.6498	2722.0809	939.4	55.6
998.7716	2723.3019	938.9	53.15
998.8934	2724.5223	938.85	53.5
999.0151	2725.7421	936.8	50.7
999.1368	2726.9611	938.2	54.3
999.2584	2728.1795	942.65	56.5
999.38	2729.3972	932.8	51.95
999.5016	2730.6142	938.45	52.2
999.6231	2731.8306	932.05	49.4
999.7446	2733.0462	935.35	50.45
999.8661	2734.2612	938.4	51.85
999.9875	2735.4756	930.25	45.65
1000.1089	2736.6892	929.35	46.3
1000.2302	2737.9022	926.7	44.7
1000.3515	2739.1145	927	43.7
1000.4728	2740.3262	935.45	45.05
1000.594	2741.5372	926.6	46.5
1000.7152	2742.7475	929.55	48.3
1000.8363	2743.9571	924.9	41.7
1000.9575	2745.1661	929	43.15
1001.0785	2746.3744	927.2	44.8
1001.1996	2747.582	922.7	41.05
1001.3206	2748.7889	923.55	39.9
1001.4415	2749.9952	923.5	43.75
1001.5625	2751.2008	922.75	39.25
1001.6833	2752.4057	922.7	38.1
1001.8042	2753.61	922.65	39.1
1001.925	2754.8136	923.6	39.05
1002.0458	2756.0165	919.9	36.25
1002.1665	2757.2188	920.6	40.9
1002.2872	2758.4204	923.85	41.4
1002.4078	2759.6213	923.4	39.25
1002.5285	2760.8215	924.95	39.95
1002.649	2762.0211	922.5	39.8
1002.7696	2763.22	924.4	38.95
1002.8901	2764.4182	920.65	36.95
1003.0106	2765.6158	919.75	38.5
1003.131	2766.8127	921.1	36.8
1003.2514	2768.009	919.3	38.2
1003.3717	2769.2045	921.8	40.65
1003.492	2770.3994	919.7	35.7
1003.6123	2771.5936	919.6	36.55
1003.7325	2772.7872	917.15	36.4
1003.8527	2773.9801	918.95	33.7
1003.9729	2775.1723	933.05	35.55
1004.093	2776.3639	917.1	35.65
1004.2131	2777.5548	918.55	33.55
1004.3331	2778.745	919.05	35.9
1004.4531	2779.9346	920.8	40.2
1004.5731	2781.1235	920.4	37.45
1004.693	2782.3117	915.2	34.95
1004.8129	2783.4992	915	33.4
1004.9328	2784.6861	916.55	37.2
1005.0526	2785.8723	918.45	37.25
1005.1723	2787.0579	918.7	36.6
1005.2921	2788.2428	918.6	38.15
1005.4118	2789.427	919.15	37.55
1005.5314	2790.6106	917.85	35.75
1005.651	2791.7935	918.3	36.85
1005.7706	2792.9757	916.75	37.45
1005.8902	2794.1573	920.3	35.95
1006.0097	2795.3382	919.6	38.05
1006.1291	2796.5184	915.8	35.45
1006.2485	2797.698	917.85	34.8
1006.3679	2798.8769	919.45	37.1
1006.4873	2800.0551	919.15	37.55
1006.6066	2801.2327	921.2	38.5
1006.7258	2802.4096	919.95	41.05
1006.8451	2803.5859	921.8	39.75
1006.9642	2804.7615	919.7	35.85
1007.0834	2805.9364	919.1	38.3
1007.2025	2807.1106	922.6	41.4
1007.3216	2808.2842	923.25	42.15
1007.4406	2809.4572	921.35	39
1007.5596	2810.6294	925.55	42.3
1007.6785	2811.801	924.25	43.9
1007.7975	2812.972	924.45	44.25
1007.9163	2814.1423	928.05	47.65
1008.0352	2815.3119	929.65	46.25
1008.154	2816.4808	930.7	49.7
1008.2727	2817.6491	936.15	54.8
1008.3914	2818.8167	937	57.6
1008.5101	2819.9837	945.35	59.6
1008.6288	2821.15	946.3	66.35
1008.7474	2822.3157	948.95	70.25
1008.8659	2823.4807	955.1	74.65
1008.9844	2824.645	961.9	78.7
1009.1029	2825.8086	964.2	84.15
1009.2214	2826.9716	975	95.15
1009.3398	2828.134	977.7	98.25
1009.4581	2829.2957	989.15	107.6
1009.5764	2830.4567	990.25	109.8
1009.6947	2831.617	995.9	116.25
1009.813	2832.7767	996.7	117.1
1009.9312	2833.9358	1000.55	119.55
1010.0493	2835.0941	996.85	115.8
1010.1675	2836.2519	993.15	112.15
1010.2855	2837.4089	988.15	107.55
1010.4036	2838.5653	985.45	104.9
1010.5216	2839.7211	980.65	102.35
1010.6396	2840.8761	980.45	96.25
1010.7575	2842.0306	979.5	100.3
1010.8754	2843.1843	975.95	93.05
1010.9932	2844.3374	978.65	99.85
1011.111	2845.4899	983.55	103.65
1011.2288	2846.6417	981.5	100.2
1011.3465	2847.7928	980.75	99.45
1011.4642	2848.9433	982.85	101.75
1011.5818	2850.0931	988.35	108.85
1011.6995	2851.2422	991.45	108.45
1011.817	2852.3907	992.35	110.5
1011.9345	2853.5385	991.15	108.6
1012.052	2854.6857	1017.95	112.3
1012.1695	2855.8323	996.55	116.35
1012.2869	2856.9781	996.55	115.85
1012.4042	2858.1233	1000	117.45
1012.5216	2859.2679	1000.55	119.9
1012.6389	2860.4118	1006.5	127.4
1012.7561	2861.555	1014.9	129.2
1012.8733	2862.6976	1009.05	127
1012.9905	2863.8395	1009.5	130.75
1013.1076	2864.9808	1013.35	133
1013.2247	2866.1214	1012	133.45
1013.3417	2867.2614	1015.85	133.9
1013.4587	2868.4007	1013.65	132.55
1013.5757	2869.5393	1018.35	136.35
1013.6926	2870.6773	1018.8	136.75
1013.8095	2871.8146	1021.1	138.4
1013.9263	2872.9513	1020	134.85
1014.0431	2874.0874	1020.95	140.8
1014.1599	2875.2227	1016.9	135.9
1014.2766	2876.3574	1027.3	147.6
1014.3933	2877.4915	1026.85	146.2
1014.51	2878.6249	1027.85	147.85
1014.6266	2879.7577	1033.8	152.1
1014.7431	2880.8898	1041.7	151.05
1014.8596	2882.0212	1032	151.9
1014.9761	2883.152	1031.3	150.2
1015.0925	2884.2821	1035.85	155.8
1015.2089	2885.4116	1034.8	154.95
1015.3253	2886.5405	1037.6	159.45
1015.4416	2887.6686	1040.55	158.3
1015.5579	2888.7962	1037.55	162.05
1015.6741	2889.923	1040.8	161.85
1015.7903	2891.0493	1038	157.85
1015.9065	2892.1748	1040.15	159.4
1016.0226	2893.2997	1039	159.15
1016.1387	2894.424	1036.3	155.25
1016.2547	2895.5476	1039.4	159.6
1016.3707	2896.6706	1036.55	157.3
1016.4866	2897.7929	1037.55	156.85
1016.6025	2898.9145	1037	156.7
1016.7184	2900.0355	1036.85	157.25
1016.8342	2901.1559	1043.3	162
1016.95	2902.2756	1047.25	163.1
1017.0658	2903.3946	1037.2	156.35
1017.1815	2904.513	1040.2	157.1
1017.2971	2905.6308	1037.55	156.7
1017.4127	2906.7479	1042.7	162.4
1017.5283	2907.8643	1037.85	158.65
1017.6439	2908.9801	1036.25	155.8
1017.7594	2910.0953	1038.1	157.85
1017.8748	2911.2098	1041.15	157.15
1017.9902	2912.3236	1046.2	159.05
1018.1056	2913.4368	1038.2	155.8
1018.2209	2914.5494	1039.7	157.6
1018.3362	2915.6613	1039.5	152.1
1018.4515	2916.7725	1035.1	151.5
1018.5667	2917.8831	1029.25	144.85
1018.6819	2918.9931	1027.1	144.3
1018.797	2920.1024	1026.75	145.9
1018.9121	2921.211	1024.4	145.25
1019.0271	2922.319	1022.95	144.2
1019.1421	2923.4264	1020.2	143.25
1019.2571	2924.5331	1020	142.15
1019.372	2925.6391	1020.45	140.25
1019.4869	2926.7445	1020.6	141.8
1019.6017	2927.8493	1024.1	144.05
1019.7165	2928.9534	1024.9	145.2
1019.8313	2930.0569	1023.7	140.5
1019.946	2931.1597	1021.6	140.7
1020.0606	2932.2619	1024.85	143.25
1020.1753	2933.3634	1025.65	144.85
1020.2899	2934.4643	1035.15	148.7
1020.4044	2935.5645	1034.2	148.7
1020.5189	2936.6641	1035.6	152.25
1020.6334	2937.763	1029.1	149.75
1020.7478	2938.8613	1025.5	144.95
1020.8622	2939.959	1030.7	145.85
1020.9765	2941.056	1017.55	137.7
1021.0908	2942.1523	1018.8	138.05
1021.2051	2943.248	1011.8	132.05
1021.3193	2944.3431	1002.05	124.15
1021.4334	2945.4375	998.35	117.75
1021.5476	2946.5313	986.9	107.05
1021.6617	2947.6244	987.05	110.25
1021.7757	2948.7169	981.9	101.45
1021.8897	2949.8087	976.1	97.3
1022.0037	2950.8999	968.95	88
1022.1176	2951.9904	965.2	86.9
1022.2315	2953.0803	963.55	83.8
1022.3453	2954.1696	957.9	75.2
1022.4591	2955.2582	956	75.6
1022.5728	2956.3462	956.95	78.5
1022.6865	2957.4335	953.05	73.25
1022.8002	2958.5202	956.25	75.2
1022.9138	2959.6062	950.85	73.15
1023.0274	2960.6916	952.6	73.9
1023.141	2961.7764	952.7	74.1
1023.2545	2962.8605	952.3	71.65
1023.3679	2963.9439	951.3	72.25
1023.4813	2965.0267	951.5	71.7
1023.5947	2966.1089	970.75	69.4
1023.708	2967.1905	948.1	69.4
1023.8213	2968.2714	948.55	69
1023.9346	2969.3516	947.25	67.4
1024.0478	2970.4312	955.35	68.2
1024.1609	2971.5102	947.65	68.25
1024.274	2972.5885	948.9	69.65
1024.3871	2973.6662	951.85	65.3
1024.5002	2974.7432	951.55	73.9
1024.6132	2975.8196	949.4	69.85
1024.7261	2976.8954	948.6	70.2
1024.839	2977.9705	949.75	71.6
1024.9519	2979.045	947	67.2
1025.0647	2980.1188	948.05	69.15
1025.1775	2981.192	947.25	69.7
1025.2902	2982.2645	947.85	66.85
1025.4029	2983.3364	944.15	66.8
1025.5156	2984.4077	940.9	61.85
1025.6282	2985.4783	947.85	62.5
1025.7407	2986.5483	944.15	66.05
1025.8532	2987.6177	936.7	59.65
1025.9657	2988.6864	939.35	59.4
1026.0782	2989.7545	933.9	55.35
1026.1906	2990.8219	933.75	53.5
1026.3029	2991.8887	932.45	50.2
1026.4152	2992.9548	929.15	49.55
1026.5275	2994.0204	924.95	45.55
1026.6397	2995.0852	920.05	44.55
1026.7519	2996.1495	921.7	40.3
1026.864	2997.2131	920.5	43.4
1026.9761	2998.276	915.75	35.55
1027.0882	2999.3383	914.95	34.8
1027.2002	3000.4	917.1	36.95
1027.3122	3001.4611	911.85	31.6
1027.4241	3002.5215	910.65	31.2
1027.536	3003.5812	910.45	31.05
1027.6478	3004.6404	911.25	33.55
1027.7596	3005.6989	912.2	30.9
1027.8714	3006.7567	906.35	25.2
1027.9831	3007.8139	934.85	29.6
1028.0947	3008.8705	906.15	27.85
1028.2064	3009.9264	910.1	26.55
1028.3179	3010.9818	905.35	24.65
1028.4295	3012.0364	906.35	28.5
1028.541	3013.0905	904.7	25.8
1028.6524	3014.1439	905.8	25.65
1028.7638	3015.1966	903.05	25.7
1028.8752	3016.2487	903.4	22.85
1028.9865	3017.3002	907.85	24.85
1029.0978	3018.3511	901.95	23.6
1029.209	3019.4013	902.45	23.5
1029.3202	3020.4509	901.2	22.65
1029.4314	3021.4998	902.8	24.05
1029.5425	3022.5481	901.9	22.1
1029.6535	3023.5958	903.1	26.45
1029.7645	3024.6428	902.85	24.25
1029.8755	3025.6892	902	23.85
1029.9864	3026.735	900.65	23.6
1030.0973	3027.7802	902.35	21.75
1030.2082	3028.8247	902.15	21.3
1030.319	3029.8685	899.85	20.2
1030.4297	3030.9118	899.55	17.95
1030.5404	3031.9544	900.5	21.45
1030.6511	3032.9963	902.7	23.55
1030.7617	3034.0376	901.35	24.45
1030.8723	3035.0783	904.9	24.3
1030.9829	3036.1184	901.75	22.85
1031.0934	3037.1578	900.6	22.45
1031.2038	3038.1966	901.85	22.5
1031.3142	3039.2348	899.55	20.1
1031.4246	3040.2723	911.55	23.15
1031.5349	3041.3092	899.1	22.65
1031.6452	3042.3455	902.4	21.25
1031.7554	3043.3811	900.9	22.05
1031.8656	3044.4161	902.85	22.35
1031.9758	3045.4505	903	26
1032.0859	3046.4842	902.85	21.65
1032.1959	3047.5173	900.85	21.75
1032.3059	3048.5498	902.5	24.25
1032.4159	3049.5816	900.7	22.1
1032.5258	3050.6128	904.55	23.1
1032.6357	3051.6434	903.9	24.6
1032.7455	3052.6734	901.45	21.75
1032.8553	3053.7027	902.25	25.9
1032.9651	3054.7314	899.3	19
1033.0748	3055.7594	902.05	24.55
1033.1845	3056.7868	903.5	22.2
1033.2941	3057.8136	902.25	25.8
1033.4037	3058.8398	901.55	23.6
1033.5132	3059.8653	901.75	23.5
1033.6227	3060.8902	903.8	24.5
1033.7321	3061.9145	903.15	24.15
1033.8415	3062.9381	903.15	24.4
1033.9509	3063.9612	919.85	24.9
1034.0602	3064.9835	902.2	24.4
1034.1694	3066.0053	906	25.6
1034.2787	3067.0264	904.05	25.3
1034.3878	3068.0469	906.25	24.9
1034.497	3069.0668	904.55	24.9
1034.6061	3070.086	902.1	25.3
1034.7151	3071.1046	901	20.8
1034.8241	3072.1226	902.1	22.25
1034.9331	3073.1399	901.65	23.85
1035.042	3074.1567	902.9	25.7
1035.1508	3075.1727	903.15	23.6
1035.2597	3076.1882	899.15	19.45
1035.3684	3077.203	898.05	19.6
1035.4772	3078.2173	901.4	22.05
1035.5859	3079.2308	902.7	19.85
1035.6945	3080.2438	899.15	17.1
1035.8031	3081.2561	899	22.2
1035.9117	3082.2678	897.65	17.2
1036.0202	3083.2789	897.45	19.15
1036.1286	3084.2893	894.6	15.2
1036.2371	3085.2991	897.6	18.8
1036.3454	3086.3083	901.95	20.65
1036.4538	3087.3169	897.25	19.55
1036.562	3088.3248	897.25	18.9
1036.6703	3089.3321	897.1	18.95
1036.7785	3090.3388	894.45	16.85
1036.8866	3091.3449	895.5	16.75
1036.9948	3092.3503	896.5	15.65
1037.1028	3093.3551	892.25	15.2
1037.2108	3094.3593	894.2	16.85
1037.3188	3095.3629	896.1	17.1
1037.4267	3096.3658	896.3	15.6
1037.5346	3097.3681	895.85	17.2
1037.6425	3098.3698	895.85	14.25
1037.7503	3099.3708	894.1	16.95
1037.858	3100.3713	892.5	14.1
1037.9657	3101.3711	893.6	15.15
1038.0734	3102.3702	1030.65	14.3
1038.181	3103.3688	896.3	16.7
1038.2886	3104.3667	892.6	16
1038.3961	3105.364	892.6	13.2
1038.5036	3106.3607	893.45	12.6
1038.611	3107.3568	894.1	14.75
1038.7184	3108.3522	892.1	15.2
1038.8257	3109.347	892.5	14.2
1038.933	3110.3412	897.35	16.4
1039.0403	3111.3348	892.4	14.15
1039.1475	3112.3277	892.35	15.45
1039.2547	3113.32	891.5	13.2
1039.3618	3114.3117	893.9	14.1
1039.4689	3115.3028	888.05	8.85
1039.5759	3116.2932	894.9	17.1
1039.6829	3117.2831	898.55	16.3
1039.7898	3118.2723	891.8	12.85
1039.8967	3119.2608	890.95	11.55
1040.0035	3120.2488	890.95	12.25
1040.1103	3121.2361	890.4	11.85
1040.2171	3122.2229	890.95	11.85
1040.3238	3123.209	891.9	13.6
1040.4305	3124.1944	890.35	13.55
1040.5371	3125.1793	890.35	9.85
1040.6437	3126.1635	888.5	10.6
1040.7502	3127.1471	887.8	9.35
1040.8567	3128.1301	888.05	10.6
1040.9631	3129.1125	890.45	13.25
1041.0695	3130.0942	888.85	8.2
1041.1759	3131.0753	897.3	11.35
1041.2822	3132.0558	892.6	8.4
1041.3884	3133.0357	891.95	12.8
1041.4946	3134.015	889.15	9.3
1041.6008	3134.9936	890.85	9.35
1041.7069	3135.9716	908.15	9.55
1041.813	3136.949	888.55	12.6
1041.919	3137.9258	904.25	10.85
1042.025	3138.902	894.55	11.9
1042.1309	3139.8775	887.9	11.15
1042.2368	3140.8524	885.95	6
1042.3427	3141.8267	890.85	9.7
1042.4485	3142.8004	889.7	9.5
1042.5542	3143.7735	895.5	10.8
1042.6599	3144.7459	890.35	11.3
1042.7656	3145.7178	888	8
1042.8712	3146.689	885.25	9.3
1042.9768	3147.6596	887.25	7.25
1043.0823	3148.6295	886.2	9.55
1043.1878	3149.5989	886.75	9.7
1043.2932	3150.5676	885.4	8.3
1043.3986	3151.5357	885.3	10.7
1043.5039	3152.5032	885.45	9.2
1043.6092	3153.4701	887.9	10
1043.7145	3154.4364	889.25	9.05
1043.8197	3155.402	885.9	10.35
1043.9248	3156.367	889.7	10.55
1044.03	3157.3315	921.65	8.3
1044.135	3158.2952	887.25	8.95
1044.24	3159.2584	887.2	9
1044.345	3160.221	885.9	7.95
1044.4499	3161.1829	887.2	9.4
1044.5548	3162.1442	886.3	9.05
1044.6596	3163.105	887	8.15
1044.7644	3164.065	887.65	9.75
1044.8692	3165.0245	888	7.95
1044.9739	3165.9834	887.1	11.25
1045.0785	3166.9416	886.05	7.55
1045.1831	3167.8993	888	6.55
1045.2877	3168.8563	887.25	10
1045.3922	3169.8127	887.15	9.35
1045.4966	3170.7684	884.25	7.55
1045.6011	3171.7236	883.8	5.75
1045.7054	3172.6782	884.35	7.4
1045.8098	3173.6321	886.25	8.4
1045.914	3174.5854	892.1	10.75
1046.0183	3175.5381	888.1	8.95
1046.1224	3176.4902	886.4	9.4
1046.2266	3177.4417	885.4	7.35
1046.3307	3178.3926	885.35	9.75
1046.4347	3179.3428	883.95	5.6
1046.5387	3180.2924	884.35	7.85
1046.6427	3181.2415	886.65	7.9
1046.7466	3182.1899	884.25	7.2
1046.8504	3183.1377	885.15	6.35
1046.9542	3184.0848	887.65	4.65
1047.058	3185.0314	886.15	9.4
1047.1617	3185.9773	887.7	10.25
1047.2654	3186.9227	882.95	5.1
1047.369	3187.8674	885.25	5.5
1047.4726	3188.8115	892.3	11.3
1047.5761	3189.755	883.5	4.4
1047.6796	3190.6979	885.95	8.65
1047.783	3191.6402	881.65	6.5
1047.8864	3192.5818	883.9	6.05
1047.9898	3193.5229	903.65	6.9
1048.0931	3194.4633	883.4	5.5
1048.1963	3195.4031	887.25	7.55
1048.2995	3196.3423	884.5	6.1
1048.4027	3197.2809	883.05	4.7
1048.5058	3198.2189	887.85	10
1048.6089	3199.1563	901.95	5.95
1048.7119	3200.0931	885	8.4
1048.8148	3201.0292	882.35	6.25
1048.9178	3201.9648	883.8	5.55
1049.0206	3202.8997	887.5	7.55
1049.1235	3203.834	885.35	7.4
1049.2262	3204.7677	884.6	7.15
1049.329	3205.7008	886.25	3.75
1049.4317	3206.6333	881.9	6.7
1049.5343	3207.5652	886.25	5.2
1049.6369	3208.4964	885.6	10.9
1049.7394	3209.4271	881.95	5.25
1049.8419	3210.3571	883.4	5.8
1049.9444	3211.2865	885.5	5.25
1050.0468	3212.2154	884.05	3.6
1050.1491	3213.1436	883.9	3.3
1050.2514	3214.0712	890.5	5.8
1050.3537	3214.9982	882.55	3.35
1050.4559	3215.9246	885.05	5.9
1050.5581	3216.8503	881.15	3.6
1050.6602	3217.7755	884.7	6.1
1050.7623	3218.7001	883.9	8.3
1050.8643	3219.624	885.75	8.1
1050.9663	3220.5473	883.3	5.7
1051.0682	3221.4701	884.35	6.45
1051.1701	3222.3922	884.8	6.15
1051.2719	3223.3137	882.65	4.25
1051.3737	3224.2346	883.3	5.5
1051.4754	3225.1549	883.3	5.7
1051.5771	3226.0746	882.8	6
1051.6788	3226.9937	884	6.65
1051.7804	3227.9121	882.15	5.75
1051.8819	3228.83	884.9	7.85
1051.9834	3229.7473	881.8	3.6
1052.0849	3230.6639	883.25	4.25
1052.1863	3231.5799	884.2	5.75
1052.2876	3232.4954	884.4	6.6
1052.3889	3233.4102	880.95	3.5
1052.4902	3234.3244	885.35	7.25
1052.5914	3235.238	884.65	8.55
1052.6926	3236.151	906	1.4
1052.7937	3237.0634	883.3	8.4
1052.8948	3237.9752	883.45	5.55
1052.9958	3238.8864	881.1	3.45
1053.0968	3239.797	880.65	1.15
1053.1977	3240.7069	882.05	4.25
1053.2986	3241.6163	883.25	3.9
1053.3994	3242.5251	882.85	6.1
1053.5002	3243.4332	881.7	4.15
1053.6009	3244.3408	883.2	6.35
1053.7016	3245.2477	882.85	3.9
1053.8022	3246.154	884.2	8.35
1053.9028	3247.0598	883.2	4.9
1054.0034	3247.9649	881.75	3.9
1054.1039	3248.8694	884.15	5.1
1054.2043	3249.7733	881.95	2.65
1054.3047	3250.6766	883.5	5.6
1054.4051	3251.5793	885.5	8
1054.5054	3252.4814	882.35	6.2
1054.6056	3253.3829	881.55	4.25
1054.7058	3254.2838	882.45	3.7
1054.806	3255.1841	881.95	6.25
1054.9061	3256.0838	881.2	6
1055.0061	3256.9829	880	4.75
1055.1062	3257.8814	883.35	5.15
1055.2061	3258.7792	882.95	1.8
1055.306	3259.6765	883.4	5.65
1055.4059	3260.5731	880.3	2.75
1055.5057	3261.4692	883.4	4.75
1055.6055	3262.3647	879.75	3.45
1055.7052	3263.2595	882.25	5.6
1055.8049	3264.1538	881.25	3.95
1055.9045	3265.0474	882.7	5.3
1056.0041	3265.9404	879.4	1.6
1056.1036	3266.8329	879.8	3.95
1056.2031	3267.7247	890	2.25
1056.3025	3268.616	879.15	3.85
1056.4019	3269.5066	883.65	6.5
1056.5013	3270.3966	883.5	4.7
1056.6005	3271.286	880.2	4.8
