Software Version:	3.9.2.0
Unit SN:	10000200
Spectrometer SN:	6960
Date:	3/8/2024 12:58:55 PM
Data Line Index:	25
Spectral Points:	2048
Integration time (ms):	125
Averages:	20
Delay (ms):	30000
Sequence Number:	1
Processing:	dark subtract
Laser Power (mW):	305
Laser Current (mA):	823
Laser Diode Temp (C):	25
Laser Case Temp (C):	26.1
System Temp (C):	26.1
Spectrometer Temp (C):	23.9
CCD Temp (C):	0.005
Secondary Temp (C):	20.011
Heatsink Temp (C):	20.492
CCDPCB Temp (C):	36.196
SecondaryPCB Temp (C):	28.826

Wavelength	RamanShift	Raw Counts	Dark Subtracted
787.061	30.1047	453.05	43
787.2016	32.3739	453.3	45.7
787.3422	34.6426	457.75	48.9
787.4828	36.9109	463.4	53.75
787.6235	39.1787	471	55.7
787.7642	41.4461	478.1	59.4
787.9049	43.7131	489.65	69.2
788.0456	45.9796	499.5	76.05
788.1863	48.2456	506.7	79.75
788.3271	50.5112	517.95	85
788.4679	52.7764	525.05	88.7
788.6087	55.0411	533.15	94.7
788.7496	57.3054	545.65	100.1
788.8904	59.5692	552.25	106.6
789.0313	61.8326	564.65	117.25
789.1722	64.0955	573.6	121.6
789.3132	66.3579	592.85	134.95
789.4541	68.6199	608	144.2
789.5951	70.8815	646.1	179.05
789.7361	73.1426	721.6	251.45
789.8771	75.4032	929.45	455.45
790.0181	77.6634	1429.25	948.8
790.1592	79.9231	2588.85	2099.45
790.3003	82.1824	5099.45	4591.9
790.4414	84.4412	9591.3	9046.25
790.5825	86.6995	15726.15	15139
790.7237	88.9574	21621.85	20999.15
790.8648	91.2148	25646.3	24998.55
791.006	93.4717	27410.7	26745.8
791.1472	95.7282	27685.95	27017.35
791.2885	97.9842	27451.25	26771.2
791.4297	100.2398	26784	26103.45
791.571	102.4949	25985.45	25301.15
791.7123	104.7495	25097.05	24416.05
791.8536	107.0036	24208.25	23523.75
791.9949	109.2573	23429.45	22749.15
792.1363	111.5105	22655.6	21968.2
792.2777	113.7632	21954.5	21264.15
792.4191	116.0154	21374	20675.3
792.5605	118.2672	20987.85	20291.6
792.7019	120.5185	20568.85	19871.7
792.8434	122.7693	20233.4	19537.25
792.9849	125.0197	19992.05	19288.05
793.1264	127.2696	19727.6	19019.95
793.2679	129.519	19526.4	18813.7
793.4094	131.7679	19226.1	18508.95
793.551	134.0163	18988.85	18271.65
793.6926	136.2642	18672.4	17953.55
793.8342	138.5117	18361.25	17633.95
793.9758	140.7587	18037.3	17315.75
794.1175	143.0052	17766.4	17041.4
794.2591	145.2512	17425.85	16698.4
794.4008	147.4967	17155.05	16428.15
794.5425	149.7417	16962.95	16232.55
794.6842	151.9863	16794.2	16060.2
794.826	154.2304	16709.3	15963.8
794.9677	156.4739	16545.35	15798.05
795.1095	158.717	16468.4	15722.5
795.2513	160.9596	16276.4	15524.95
795.3931	163.2017	16037.5	15285.3
795.535	165.4433	15731.25	14978.35
795.6768	167.6844	15391.3	14636.55
795.8187	169.925	15083.15	14323.45
795.9606	172.1651	14766.05	14007.5
796.1025	174.4047	14473.1	13710.1
796.2445	176.6439	14205.45	13444.2
796.3864	178.8825	13998.8	13232.8
796.5284	181.1206	13855.75	13082.15
796.6704	183.3582	13731.05	12952.95
796.8124	185.5954	13641.15	12860.4
796.9544	187.832	13608	12827.45
797.0965	190.0681	13539.3	12755.6
797.2386	192.3037	13553.55	12764.3
797.3806	194.5388	13552.45	12760.75
797.5228	196.7734	13565.8	12773.2
797.6649	199.0075	13626.95	12829
797.807	201.2411	13745.6	12950.8
797.9492	203.4742	13824.5	13030.2
798.0914	205.7068	13971.55	13168.7
798.2336	207.9389	14097.8	13294.95
798.3758	210.1704	14198.65	13401.5
798.518	212.4015	14326.35	13540.9
798.6603	214.632	14485.85	13707.9
798.8025	216.862	14655.55	13878.5
798.9448	219.0915	14776.7	13997.15
799.0871	221.3205	14904.35	14122.45
799.2294	223.549	15054.2	14273.3
799.3718	225.777	15206.9	14428.1
799.5141	228.0044	15366.7	14574.4
799.6565	230.2314	15607.8	14821.5
799.7989	232.4578	15817.8	15030.9
799.9413	234.6837	16054	15255.55
800.0837	236.909	16142.9	15339.8
800.2262	239.1339	16149	15326.2
800.3687	241.3582	16024.75	15213.75
800.5111	243.582	15895.35	15053.95
800.6536	245.8053	15701.9	14876.05
800.7961	248.0281	15551.9	14735.45
800.9387	250.2503	15500.4	14670.65
801.0812	252.472	15469.05	14639.45
801.2238	254.6932	15554.85	14727.8
801.3664	256.9139	15615.3	14791.85
801.509	259.134	15752.7	14919.35
801.6516	261.3536	15880.6	15046.65
801.7942	263.5727	16086.5	15250.05
801.9369	265.7912	16271.4	15439.55
802.0795	268.0092	16496.55	15664.15
802.2222	270.2267	16633.05	15800.25
802.3649	272.4436	16693.9	15860.6
802.5076	274.6601	16688.45	15845.2
802.6504	276.8759	16629.55	15796
802.7931	279.0913	16532.5	15692.5
802.9359	281.3061	16406.45	15565.05
803.0787	283.5204	16381.4	15538.85
803.2215	285.7341	16336.95	15485.3
803.3643	287.9473	16422	15559.25
803.5071	290.16	16559.45	15706.65
803.6499	292.3721	16718.8	15877.05
803.7928	294.5837	17005.45	16159.2
803.9357	296.7947	17264.4	16418.55
804.0786	299.0052	17406.55	16559.4
804.2215	301.2152	17317.65	16468.2
804.3644	303.4246	17139.25	16298.65
804.5074	305.6334	16716.8	15875.65
804.6503	307.8418	16286.45	15437.35
804.7933	310.0495	15910.6	15060.65
804.9363	312.2568	15525.55	14672.8
805.0793	314.4635	15185.1	14336.9
805.2223	316.6696	14961.2	14105.15
805.3653	318.8752	14811.1	13948.15
805.5084	321.0802	14745.85	13887.45
805.6514	323.2847	14797.3	13933.45
805.7945	325.4887	14845.2	13983.15
805.9376	327.692	14819.15	13957.2
806.0807	329.8949	14744.85	13877.2
806.2238	332.0972	14566.15	13703.45
806.367	334.2989	14354.6	13485.75
806.5101	336.5001	14065.85	13200.35
806.6533	338.7007	13861.5	12994.6
806.7965	340.9008	13715.1	12845.55
806.9397	343.1003	13609.7	12737.15
807.0829	345.2992	13490.2	12619.6
807.2261	347.4976	13405.4	12535
807.3693	349.6955	13385	12506.35
807.5126	351.8927	13416.6	12539.1
807.6559	354.0895	13363.7	12475.4
807.7991	356.2856	13355.3	12472.85
807.9424	358.4812	13331.9	12453.95
808.0857	360.6763	13343.15	12465.8
808.2291	362.8707	13310.45	12427.85
808.3724	365.0646	13367.8	12482.3
808.5158	367.258	13418.5	12536.95
808.6591	369.4508	13458.6	12568
808.8025	371.643	13571.25	12681.05
808.9459	373.8346	13622	12731.85
809.0893	376.0257	13679.4	12788.75
809.2327	378.2162	13652.7	12764.25
809.3762	380.4062	13633.15	12746.1
809.5196	382.5956	13497.5	12612.8
809.6631	384.7844	13403.6	12524.7
809.8066	386.9726	13296.95	12415.45
809.9501	389.1603	13217.4	12339.5
810.0936	391.3474	13187.85	12284
810.2371	393.5339	13141.9	12254.1
810.3806	395.7199	13084.85	12197.75
810.5241	397.9052	13133.85	12250.8
810.6677	400.09	13187.8	12305.55
810.8113	402.2743	13305.8	12425.5
810.9548	404.4579	13442.9	12557.75
811.0984	406.641	13651.1	12765.8
811.2421	408.8235	13820.95	12931.4
811.3857	411.0054	14020.15	13128.35
811.5293	413.1868	14264.15	13368.3
811.673	415.3675	14427.4	13531.05
811.8166	417.5477	14526.35	13632.15
811.9603	419.7273	14485.8	13587.8
812.104	421.9064	14422.3	13520.75
812.2477	424.0848	14330.85	13435.4
812.3914	426.2627	14127.15	13228.4
812.5351	428.4399	13930.85	13032.25
812.6788	430.6166	13615.7	12713.45
812.8226	432.7928	13271.55	12367.6
812.9663	434.9683	12968.8	12068.15
813.1101	437.1432	12756.95	11860.4
813.2539	439.3176	12578.7	11687
813.3977	441.4914	12482.75	11590.75
813.5415	443.6645	12436.4	11539.1
813.6853	445.8371	12410.5	11510.35
813.8291	448.0091	12361.5	11460.35
813.973	450.1806	12316.95	11424.6
814.1168	452.3514	12287.65	11397
814.2607	454.5216	12337.75	11438.7
814.4046	456.6913	12316.15	11417.45
814.5485	458.8603	12351.9	11454.65
814.6924	461.0288	12378.05	11485.9
814.8363	463.1967	12387.55	11498.35
814.9802	465.3639	12439.8	11549.1
815.1241	467.5306	12474.55	11580
815.2681	469.6967	12546.55	11651.2
815.412	471.8622	12587.55	11698.7
815.556	474.0271	12652.05	11757
815.7	476.1914	12707.65	11805.85
815.844	478.3551	12712.2	11813.4
815.988	480.5182	12752.7	11856.35
816.132	482.6807	12808	11921.45
816.276	484.8426	12958.8	12076.9
816.4201	487.0039	13256.7	12372.15
816.5641	489.1647	13647.95	12751.35
816.7082	491.3248	14008.8	13109.25
816.8522	493.4843	14149.3	13255.2
816.9963	495.6432	14126.5	13233.3
817.1404	497.8015	13984.9	13081.15
817.2845	499.9592	13933.25	13023.05
817.4286	502.1163	13806.1	12900
817.5727	504.2728	13517.35	12614.15
817.7168	506.4287	13217.95	12325.85
817.861	508.5839	12869.95	11980.4
818.0051	510.7386	12622.7	11724.6
818.1493	512.8927	12531.7	11620.9
818.2935	515.0461	12500.55	11596.55
818.4377	517.199	12512.5	11604.75
818.5818	519.3512	12659.8	11751
818.726	521.5029	12860.8	11948.25
818.8703	523.6539	13044.6	12138.8
819.0145	525.8043	13141.95	12233.6
819.1587	527.9541	13116.85	12204.4
819.303	530.1033	12979.75	12068.9
819.4472	532.2519	12854.8	11944.85
819.5915	534.3999	12881.4	11974.55
819.7357	536.5472	12995.05	12087.25
819.88	538.694	13282.75	12377.7
820.0243	540.8401	13632.65	12716.5
820.1686	542.9856	13937.4	13019.45
820.3129	545.1305	14028.05	13103.4
820.4572	547.2748	13933.3	13002.1
820.6016	549.4185	13702	12770.45
820.7459	551.5615	13512.4	12583.95
820.8902	553.704	13468.8	12540.05
821.0346	555.8458	13497.7	12575.4
821.1789	557.987	13641.1	12725
821.3233	560.1276	13784.95	12862.7
821.4677	562.2675	14066.4	13140.6
821.6121	564.4069	14423.4	13498.95
821.7565	566.5456	14684.55	13769
821.9009	568.6837	14774.45	13859.6
822.0453	570.8212	14435.2	13519.5
822.1897	572.958	13895.85	12975.05
822.3342	575.0942	13403.4	12492.95
822.4786	577.2299	13003.25	12093.7
822.6231	579.3648	12859.65	11962.9
822.7675	581.4992	12832.95	11942.7
822.912	583.6329	12959.3	12070.15
823.0565	585.766	13141.25	12247.4
823.201	587.8985	13273.7	12371.45
823.3454	590.0304	13354.8	12421.1
823.4899	592.1616	13302.65	12380.75
823.6345	594.2922	13185.25	12261.15
823.779	596.4222	12992.05	12069.1
823.9235	598.5515	12805.75	11876.45
824.068	600.6802	12659.05	11734.5
824.2126	602.8083	12509.95	11588.15
824.3571	604.9358	12457.45	11538.15
824.5017	607.0626	12427.05	11494.15
824.6462	609.1888	12537.3	11604.75
824.7908	611.3144	12607.35	11673.85
824.9354	613.4393	12665.1	11735.45
825.08	615.5636	12727.9	11798.25
825.2246	617.6873	12677.55	11750.2
825.3692	619.8103	12631.8	11700.55
825.5138	621.9327	12448.7	11521.75
825.6584	624.0544	12280.5	11357.85
825.803	626.1756	12169.25	11243.6
825.9477	628.2961	12064.45	11135.45
826.0923	630.4159	12011	11081.6
826.237	632.5351	11974.05	11043.95
826.3816	634.6537	11934.6	11003.3
826.5263	636.7716	11941.3	11003.55
826.6709	638.8889	11958.1	11020.7
826.8156	641.0056	11979.75	11040.2
826.9603	643.1216	11955.45	11019.6
827.105	645.237	11949	11014.7
827.2497	647.3518	11891.2	10967.1
827.3944	649.4659	11840.15	10916.25
827.5391	651.5793	11805.85	10879.25
827.6838	653.6922	11792.95	10868.7
827.8285	655.8043	11763.55	10838.7
827.9733	657.9159	11766.2	10838.4
828.118	660.0268	11727.6	10799.65
828.2627	662.137	11713.45	10786
828.4075	664.2466	11727.35	10792.5
828.5522	666.3556	11722.75	10787.65
828.697	668.4639	11656.15	10724.5
828.8418	670.5716	11669.8	10745.4
828.9865	672.6786	11662.65	10731.2
829.1313	674.785	11654.85	10714.5
829.2761	676.8907	11652.9	10717
829.4209	678.9958	11694.4	10767.15
829.5657	681.1002	11656.85	10724.25
829.7105	683.204	11641.4	10698.55
829.8553	685.3072	11639.65	10700.6
830.0001	687.4097	11611.5	10675.8
830.1449	689.5115	11603.4	10663.05
830.2898	691.6127	11580.45	10649.2
830.4346	693.7132	11540.55	10611
830.5794	695.8131	11565.4	10618.75
830.7243	697.9123	11567.1	10627.7
830.8691	700.0109	11573	10626.35
831.014	702.1089	11593.2	10653.4
831.1588	704.2061	11625.2	10685.2
831.3037	706.3028	11660.6	10721.15
831.4486	708.3987	11697.85	10760.55
831.5935	710.4941	11772.85	10837.15
831.7383	712.5887	11846.4	10907.4
831.8832	714.6827	11976.85	11036.25
832.0281	716.7761	12155.8	11222.5
832.173	718.8688	12415.55	11478.25
832.3179	720.9608	12558.95	11616.1
832.4628	723.0522	12701.2	11751.55
832.6077	725.1429	12658.5	11712.35
832.7527	727.233	12613.45	11670.7
832.8976	729.3224	12595	11651.95
833.0425	731.4112	12456.4	11513.2
833.1874	733.4993	12307.4	11362.95
833.3324	735.5867	12109	11164.25
833.4773	737.6735	11943.05	11004.3
833.6222	739.7596	11803.5	10857.6
833.7672	741.845	11713.9	10774.05
833.9122	743.9298	11638.65	10698.35
834.0571	746.014	11604.3	10660.55
834.2021	748.0974	11607.8	10662.9
834.347	750.1802	11631.65	10682.9
834.492	752.2624	11620.85	10671.9
834.637	754.3439	11655.95	10708.2
834.782	756.4247	11792.45	10836.3
834.9269	758.5048	11935.6	10987.45
835.0719	760.5843	12213.45	11263.05
835.2169	762.6631	12573.65	11623.4
835.3619	764.7413	13094.8	12150.5
835.5069	766.8188	13733.75	12788.9
835.6519	768.8956	14249	13299.75
835.7969	770.9718	14587.2	13640.15
835.9419	773.0473	14535.25	13587.25
836.0869	775.1221	14256.45	13305.8
836.232	777.1962	13945.8	12996.3
836.377	779.2697	13828.9	12877.9
836.522	781.3426	13870.1	12910.25
836.667	783.4147	14006.75	13059.45
836.8121	785.4862	14159.2	13208.15
836.9571	787.557	14030.3	13079.6
837.1021	789.6271	13607.65	12655.05
837.2472	791.6966	13073.65	12123.35
837.3922	793.7654	12467.4	11520.05
837.5373	795.8335	12125.7	11177.75
837.6823	797.901	11870.15	10921.35
837.8274	799.9678	11736.65	10781.4
837.9724	802.0339	11673.25	10722.4
838.1175	804.0993	11667.45	10708.7
838.2626	806.1641	11609.2	10654.45
838.4076	808.2282	11548.2	10600.05
838.5527	810.2916	11484.15	10532.55
838.6978	812.3544	11399.35	10451.35
838.8428	814.4164	11319.3	10374.05
838.9879	816.4778	11379.25	10421.05
839.133	818.5385	11386.5	10436.2
839.2781	820.5986	11488.85	10538.2
839.4232	822.658	11698.2	10744.8
839.5682	824.7166	11975.75	11021.7
839.7133	826.7747	12387.05	11435.75
839.8584	828.832	12827.55	11873.2
840.0035	830.8886	13119.3	12165.2
840.1486	832.9446	13277	12322.75
840.2937	834.9999	13158.95	12206.55
840.4388	837.0545	12993.85	12040.6
840.5839	839.1085	12770.25	11815.25
840.729	841.1618	12530	11575.55
840.8741	843.2143	12369.8	11413.7
841.0192	845.2662	12183.3	11228.15
841.1643	847.3175	12112.75	11160.15
841.3095	849.368	11950.8	10995.75
841.4546	851.4179	11863.65	10912.55
841.5997	853.467	11763.3	10809.2
841.7448	855.5155	11670.9	10712.95
841.8899	857.5633	11607.6	10650.5
842.0351	859.6105	11513.95	10557.9
842.1802	861.6569	11453	10499.35
842.3253	863.7027	11392.15	10435.9
842.4704	865.7478	11359.4	10402.2
842.6156	867.7922	11342.55	10387.05
842.7607	869.8359	11342.95	10384.95
842.9058	871.8789	11387.75	10427.15
843.0509	873.9212	11528.05	10538.65
843.1961	875.9629	11586.4	10630.65
843.3412	878.0039	11740.35	10782.4
843.4863	880.0441	11819.25	10866.25
843.6315	882.0837	11844.55	10891.2
843.7766	884.1226	11838.15	10879
843.9218	886.1609	11841.9	10888.4
844.0669	888.1984	11885.6	10934.05
844.212	890.2352	12013.55	11059.4
844.3572	892.2714	11996.3	11036.25
844.5023	894.3069	11966.95	11008.85
844.6475	896.3416	11813.6	10855.75
844.7926	898.3757	11708.45	10749.5
844.9377	900.4091	11647.7	10686.95
845.0829	902.4418	11654.05	10695.1
845.228	904.4739	11690.35	10724.7
845.3732	906.5052	11723.35	10763.1
845.5183	908.5358	11669.65	10712.8
845.6635	910.5658	11493.65	10533.05
845.8086	912.595	11339.2	10379.45
845.9538	914.6236	11147.05	10185.55
846.0989	916.6515	11034.95	10077.85
846.2441	918.6786	10988.5	10028.85
846.3892	920.7051	10996.05	10034.95
846.5344	922.7309	11073.3	10113.2
846.6795	924.756	11092.8	10135.65
846.8246	926.7804	11165.45	10204.3
846.9698	928.8041	11187.55	10227.65
847.1149	930.8272	11223.8	10262.45
847.2601	932.8495	11188.35	10229.7
847.4052	934.8711	11151.25	10189.95
847.5504	936.892	11088.9	10131.15
847.6955	938.9123	11037.9	10074.55
847.8407	940.9318	11039.75	10079.15
847.9858	942.9506	10968.9	10009.2
848.131	944.9688	10917.25	9954.8
848.2761	946.9862	10850.8	9888.55
848.4213	949.003	10736.3	9778.25
848.5664	951.019	10656.15	9696.6
848.7115	953.0344	10626	9665.85
848.8567	955.0491	10640.05	9681.7
849.0018	957.063	10669.2	9711.35
849.147	959.0763	10760.55	9802.8
849.2921	961.0888	10814.35	9855.45
849.4373	963.1007	10871.2	9913.65
849.5824	965.1119	10876.4	9928.25
849.7275	967.1223	10886.95	9947.25
849.8727	969.1321	10852.55	9907.35
850.0178	971.1412	10904.1	9955.45
850.1629	973.1495	10904.95	9951.55
850.3081	975.1572	10935.55	9931.05
850.4532	977.1641	10941.4	9980.55
850.5983	979.1704	10935.95	9976.75
850.7435	981.1759	10894.35	9929
850.8886	983.1808	10933.15	9972.25
851.0337	985.1849	10960.45	9992.4
851.1788	987.1884	11088.2	10128
851.324	989.1911	11157.55	10198.55
851.4691	991.1932	11244.85	10286.4
851.6142	993.1945	11256.8	10301.35
851.7593	995.1951	11225.9	10266.25
851.9045	997.1951	11235.15	10269.9
852.0496	999.1943	11166.75	10207.55
852.1947	1001.1928	11148.1	10188.3
852.3398	1003.1906	11169	10210.4
852.4849	1005.1877	11277.15	10317.3
852.63	1007.1841	11325.9	10367.95
852.7751	1009.1798	11325.9	10371.95
852.9202	1011.1748	11207.4	10252.3
853.0653	1013.1691	11041.1	10085.1
853.2104	1015.1627	10872.75	9914.65
853.3555	1017.1556	10671.05	9716.95
853.5006	1019.1477	10554.55	9600.4
853.6457	1021.1392	10442.5	9493.3
853.7908	1023.1299	10425.5	9481.05
853.9359	1025.12	10434.1	9491.15
854.081	1027.1093	10492.45	9565.35
854.2261	1029.0979	10587.85	9666.7
854.3712	1031.0859	10643.5	9713.65
854.5163	1033.0731	10703	9763.55
854.6613	1035.0596	10660.55	9713.45
854.8064	1037.0454	10535.85	9590.35
854.9515	1039.0304	10462.2	9508.45
855.0965	1041.0148	10327.75	9375.3
855.2416	1042.9985	10237.1	9283.3
855.3867	1044.9814	10195.55	9241.9
855.5317	1046.9636	10172.9	9220.45
855.6768	1048.9452	10137.45	9186.35
855.8219	1050.926	10163.85	9213.5
855.9669	1052.9061	10172.4	9218.75
856.112	1054.8855	10186.75	9231.65
856.257	1056.8642	10238.6	9283.25
856.4021	1058.8421	10257.15	9296.6
856.5471	1060.8194	10318.7	9362.2
856.6921	1062.7959	10342.6	9384.6
856.8372	1064.7717	10408.1	9451.05
856.9822	1066.7469	10467.8	9513.65
857.1272	1068.7213	10506.7	9548.5
857.2723	1070.695	10569.1	9614.95
857.4173	1072.6679	10560	9607.05
857.5623	1074.6402	10561.85	9608.15
857.7073	1076.6117	10540.85	9577.35
857.8523	1078.5826	10500.65	9545.85
857.9973	1080.5527	10394.05	9434.55
858.1423	1082.5221	10339.9	9384.05
858.2873	1084.4908	10361.8	9406.3
858.4323	1086.4587	10424.3	9473.9
858.5773	1088.426	10495.95	9539.55
858.7223	1090.3925	10545.8	9585.35
858.8673	1092.3584	10536.5	9580.3
859.0123	1094.3235	10501.35	9547.45
859.1573	1096.2879	10533.95	9579.85
859.3022	1098.2515	10623.4	9667.35
859.4472	1100.2145	10766.75	9816.45
859.5922	1102.1767	10912.95	9956.45
859.7371	1104.1382	11120.45	10166.8
859.8821	1106.099	11386.45	10431.35
860.027	1108.0591	11564.3	10608.35
860.172	1110.0185	11683.05	10725.3
860.3169	1111.9771	11768.95	10814.55
860.4619	1113.9351	11681.95	10727.4
860.6068	1115.8923	11485.25	10533.25
860.7517	1117.8488	11311.7	10358.8
860.8967	1119.8045	11105.3	10152.9
861.0416	1121.7596	10988.1	10037.25
861.1865	1123.7139	10852.65	9901.8
861.3314	1125.6675	10830.2	9878.4
861.4763	1127.6204	10865.7	9916.5
861.6212	1129.5726	10813.4	9858.55
861.7661	1131.524	10750.95	9796.35
861.911	1133.4748	10659.25	9706.05
862.0559	1135.4248	10516.35	9562.75
862.2008	1137.3741	10437.85	9485.55
862.3457	1139.3226	10331.5	9375.95
862.4905	1141.2705	10300	9345.65
862.6354	1143.2176	10187.85	9228.95
862.7803	1145.164	10140.75	9187.15
862.9251	1147.1097	10130.3	9173.75
863.07	1149.0546	10053	9098.35
863.2148	1150.9989	9951.9	9001.25
863.3597	1152.9424	9852.65	8896.45
863.5045	1154.8852	9780.3	8825.45
863.6493	1156.8272	9693.4	8735.85
863.7942	1158.7686	9699.05	8737.6
863.939	1160.7092	9700.35	8743.35
864.0838	1162.6491	9721.15	8763.9
864.2286	1164.5883	9825.6	8874.95
864.3734	1166.5267	9911.35	8955
864.5182	1168.4644	10068.95	9113.85
864.663	1170.4014	10269.3	9312.05
864.8078	1172.3377	10497.65	9547.55
864.9526	1174.2732	10771.55	9820.6
865.0974	1176.2081	11128.25	10178.4
865.2421	1178.1421	11562.35	10608.8
865.3869	1180.0755	11988.05	11034.75
865.5317	1182.0082	12259.65	11311.3
865.6764	1183.9401	12370.5	11421.7
865.8212	1185.8713	12274.5	11331
865.9659	1187.8017	11982.3	11044.05
866.1106	1189.7315	11645	10719.8
866.2554	1191.6605	11292.4	10365.85
866.4001	1193.5888	11015	10083
866.5448	1195.5163	10913.65	9970.6
866.6895	1197.4432	10841.1	9894.45
866.8342	1199.3693	10796.9	9851
866.9789	1201.2947	10745.55	9791
867.1236	1203.2193	10738.25	9789.85
867.2683	1205.1432	10734	9781.2
867.413	1207.0664	10695.6	9747.55
867.5576	1208.9889	10694.3	9740.75
867.7023	1210.9106	10706.95	9755.35
867.847	1212.8316	10717.4	9769.6
867.9916	1214.7519	10764.3	9806.95
868.1363	1216.6715	10775.7	9826.35
868.2809	1218.5903	10826.1	9874.7
868.4255	1220.5084	10880.1	9931.85
868.5701	1222.4257	10939.55	9988.3
868.7148	1224.3424	10976.8	10030.35
868.8594	1226.2583	11075.55	10128.5
869.004	1228.1735	11177.1	10228.2
869.1486	1230.0879	11314.05	10366.05
869.2932	1232.0016	11432.85	10488.6
869.4377	1233.9146	11554.45	10602.4
869.5823	1235.8269	11541.45	10592
869.7269	1237.7384	11466.6	10521.55
869.8715	1239.6492	11340.7	10397.45
870.016	1241.5592	11271.3	10323.15
870.1606	1243.4686	11263.9	10318.2
870.3051	1245.3772	11397.8	10449.3
870.4496	1247.285	11524.05	10575.25
870.5941	1249.1922	11663.55	10715.75
870.7387	1251.0986	11753.25	10806.4
870.8832	1253.0042	11783.45	10835.35
871.0277	1254.9092	11878.7	10932.85
871.1722	1256.8134	11943.45	11001
871.3167	1258.7169	12108.55	11161.95
871.4611	1260.6196	12257.45	11312.05
871.6056	1262.5216	12478.1	11530.5
871.7501	1264.4229	12679.25	11733.9
871.8945	1266.3234	12861.75	11913.9
872.039	1268.2232	12991.45	12044.65
872.1834	1270.1223	13035.1	12089
872.3278	1272.0207	13070.1	12120.6
872.4723	1273.9183	13027.35	12070.6
872.6167	1275.8151	12969.2	12022.85
872.7611	1277.7113	12955.4	12009.25
872.9055	1279.6067	12951.55	12008.45
873.0499	1281.5014	13093.1	12146.05
873.1943	1283.3953	13359.8	12411.75
873.3386	1285.2885	13695.65	12751.95
873.483	1287.181	14079.75	13134.8
873.6274	1289.0727	14440.55	13498.9
873.7717	1290.9637	14666.3	13722.45
873.9161	1292.854	14879	13931.7
874.0604	1294.7435	14864.25	13917.85
874.2047	1296.6323	14853.85	13908.25
874.349	1298.5204	14816.1	13865.7
874.4933	1300.4077	14752.4	13806.8
874.6376	1302.2943	14617.45	13671.3
874.7819	1304.1802	14416.75	13473.9
874.9262	1306.0653	14048.55	13101.9
875.0705	1307.9497	13693.2	12747.5
875.2147	1309.8333	13358.15	12414.35
875.359	1311.7162	13081.1	12137.5
875.5032	1313.5984	12946.95	11999.45
875.6475	1315.4798	12858.75	11904.8
875.7917	1317.3605	12823.1	11864.55
875.9359	1319.2405	12767	11818.25
876.0801	1321.1197	12560.75	11611
876.2243	1322.9982	12301.55	11351.1
876.3685	1324.876	12072.8	11128.9
876.5127	1326.753	11854.15	10908.2
876.6569	1328.6293	11711.6	10763.7
876.801	1330.5048	11620.95	10672.2
876.9452	1332.3796	11471.2	10525.95
877.0893	1334.2537	11417.35	10446.3
877.2335	1336.127	11313.55	10367.35
877.3776	1337.9996	11302.95	10358.35
877.5217	1339.8714	11310.05	10364.5
877.6658	1341.7426	11321.5	10331
877.8099	1343.6129	11315.8	10366.15
877.954	1345.4826	11285.5	10339.75
878.0981	1347.3515	11300	10348.75
878.2422	1349.2196	11285.8	10339.05
878.3862	1351.087	11314.2	10365.15
878.5303	1352.9537	11348.6	10403.45
878.6743	1354.8197	11463.4	10513.8
878.8184	1356.6849	11637.7	10691
878.9624	1358.5493	11758.7	10815.25
879.1064	1360.4131	11896	10952.45
879.2504	1362.276	11989.6	11047.4
879.3944	1364.1383	11952.35	11011.5
879.5384	1365.9998	11756.45	10807.05
879.6823	1367.8606	11425.4	10476.35
879.8263	1369.7206	11071.05	10124.4
879.9702	1371.5799	10796.6	9846.4
880.1142	1373.4384	10559.4	9612.6
880.2581	1375.2962	10337.25	9391.5
880.402	1377.1533	10031.95	9090.2
880.5459	1379.0096	9683.85	8745.9
880.6898	1380.8652	9385.45	8448.25
880.8337	1382.7201	9081.8	8139.95
880.9776	1384.5742	8860	7917.45
881.1215	1386.4275	8694	7753.55
881.2653	1388.2802	8541.85	7599.05
881.4092	1390.132	8435.65	7491.55
881.553	1391.9832	8370.95	7426.9
881.6968	1393.8336	8291.65	7348.65
881.8406	1395.6832	8252.15	7308.2
881.9844	1397.5322	8221.75	7279.75
882.1282	1399.3803	8179.95	7234.25
882.272	1401.2278	8135.15	7193.45
882.4158	1403.0745	8118.55	7176.9
882.5595	1404.9204	8095.75	7155.15
882.7033	1406.7656	8140.1	7198.05
882.847	1408.6101	8151.05	7209.5
882.9908	1410.4538	8170.05	7231.55
883.1345	1412.2968	8230	7291
883.2782	1414.139	8257.45	7315.2
883.4219	1415.9805	8332.05	7392.05
883.5656	1417.8213	8443.7	7494.1
883.7092	1419.6613	8524.15	7584.15
883.8529	1421.5006	8680.5	7738.25
883.9965	1423.3391	8870.9	7928.65
884.1402	1425.1769	9140.35	8199.25
884.2838	1427.0139	9601.9	8660.35
884.4274	1428.8502	10133.3	9190.4
884.571	1430.6858	10615.6	9676.75
884.7146	1432.5206	11003.45	10063.45
884.8582	1434.3547	11259.95	10317.9
885.0018	1436.188	11277.2	10337.7
885.1453	1438.0206	11174.8	10229.65
885.2889	1439.8524	11039.8	10097.65
885.4324	1441.6835	10910.65	9970.8
885.5759	1443.5139	10801.15	9855.5
885.7194	1445.3435	10743.75	9803.35
885.8629	1447.1724	10709.55	9772.25
886.0064	1449.0005	10663.55	9725.2
886.1499	1450.8279	10571.6	9634.85
886.2933	1452.6545	10564.55	9624.65
886.4368	1454.4804	10568.5	9629.85
886.5802	1456.3056	10578.95	9636.05
886.7237	1458.13	10488.8	9550.6
886.8671	1459.9536	10326.05	9389.2
887.0105	1461.7766	10045.75	9105.3
887.1539	1463.5987	9726.55	8785.75
887.2972	1465.4202	9400.1	8459.75
887.4406	1467.2409	9063.25	8125.75
887.584	1469.0608	8808.2	7872.15
887.7273	1470.88	8534.65	7595.7
887.8706	1472.6984	8310.2	7373.95
888.0139	1474.5161	8112	7172.55
888.1572	1476.3331	7953.55	7015.55
888.3005	1478.1493	7849.75	6911.9
888.4438	1479.9648	7766.65	6828.65
888.5871	1481.7795	7683.4	6747.5
888.7303	1483.5935	7618.75	6678.85
888.8736	1485.4067	7546.85	6610.75
889.0168	1487.2192	7529.4	6591.2
889.16	1489.031	7482.55	6543.05
889.3032	1490.842	7432.35	6494
889.4464	1492.6522	7392	6454.45
889.5896	1494.4618	7352.05	6413.55
889.7327	1496.2705	7324.85	6387.45
889.8759	1498.0785	7307.05	6370.55
890.019	1499.8858	7256.65	6319.8
890.1622	1501.6924	7213.3	6274.15
890.3053	1503.4981	7186.75	6249
890.4484	1505.3032	7132.05	6193.35
890.5914	1507.1075	7099.75	6163.5
890.7345	1508.911	7070.9	6132.05
890.8776	1510.7138	7038.6	6102.5
891.0206	1512.5159	6982.6	6045.55
891.1637	1514.3172	6932.05	6001.25
891.3067	1516.1178	6900.8	5967.95
891.4497	1517.9176	6884.6	5947.3
891.5927	1519.7166	6823.25	5888.55
891.7357	1521.515	6802.3	5862.7
891.8786	1523.3126	6768.4	5833.05
892.0216	1525.1094	6739.3	5802
892.1645	1526.9055	6718.75	5786.7
892.3074	1528.7008	6710.15	5778.05
892.4503	1530.4954	6664.6	5731.15
892.5932	1532.2893	6638.55	5707.75
892.7361	1534.0824	6616.7	5681.1
892.879	1535.8747	6624.5	5696.75
893.0218	1537.6663	6618.25	5687.15
893.1647	1539.4572	6608.35	5677
893.3075	1541.2473	6597.1	5666.95
893.4503	1543.0367	6596.05	5668.2
893.5931	1544.8253	6612.45	5678.7
893.7359	1546.6132	6634.35	5703.25
893.8787	1548.4003	6649.6	5713.25
894.0214	1550.1867	6693.3	5753.65
894.1642	1551.9723	6755.6	5826.1
894.3069	1553.7572	6817.55	5888.65
894.4496	1555.5414	6908.95	5983.9
894.5923	1557.3247	7038.3	6110.75
894.735	1559.1074	7162.1	6243.15
894.8777	1560.8893	7303.5	6380.45
895.0204	1562.6705	7404.35	6479.85
895.163	1564.4509	7540.85	6619.15
895.3056	1566.2305	7602.8	6683.8
895.4482	1568.0094	7661.45	6742.35
895.5908	1569.7876	7654.2	6733.75
895.7334	1571.565	7624.85	6703.25
895.876	1573.3417	7615.85	6693.65
896.0186	1575.1176	7588.6	6668.25
896.1611	1576.8928	7588.55	6669.85
896.3036	1578.6672	7565.7	6652.05
896.4461	1580.4409	7548.05	6636.1
896.5886	1582.2138	7531.15	6615.5
896.7311	1583.986	7557.7	6637.8
896.8736	1585.7575	7585.05	6667.5
897.0161	1587.5282	7616.6	6703.45
897.1585	1589.2981	7687.2	6775.65
897.3009	1591.0673	7725.25	6815.2
897.4433	1592.8358	7817.8	6904.95
897.5857	1594.6035	7900.4	6979.4
897.7281	1596.3704	7988.75	7068.5
897.8705	1598.1366	8060.15	7141.85
898.0128	1599.9021	8140.35	7227.1
898.1551	1601.6668	8233.05	7316.05
898.2975	1603.4308	8350.75	7433.4
898.4398	1605.194	8544.45	7625.25
898.5821	1606.9564	8669.95	7762.7
898.7243	1608.7182	8894.05	7988.8
898.8666	1610.4791	9152.6	8252.9
899.0088	1612.2394	9392.45	8493.2
899.1511	1613.9988	9675.35	8774
899.2933	1615.7576	9919.95	9009.9
899.4355	1617.5156	10149.55	9228.85
899.5776	1619.2728	10228.7	9312.55
899.7198	1621.0293	10207.9	9293.75
899.862	1622.785	10037.05	9125.9
900.0041	1624.54	9794	8884.4
900.1462	1626.2942	9521.9	8615.7
900.2883	1628.0477	9166.2	8254.35
900.4304	1629.8005	8826.9	7915
900.5725	1631.5525	8559.15	7649.9
900.7145	1633.3037	8346.65	7438.4
900.8566	1635.0542	8181.4	7275.25
900.9986	1636.804	8025.6	7117.7
901.1406	1638.553	7979.3	6985.45
901.2826	1640.3013	7842.1	6934.85
901.4245	1642.0488	7845.3	6937.65
901.5665	1643.7955	7859.8	6956.1
901.7085	1645.5416	7920.75	7017.1
901.8504	1647.2868	8014.35	7105.5
901.9923	1649.0313	8125.6	7216.25
902.1342	1650.7751	8268.65	7355.9
902.2761	1652.5181	8398.65	7492.15
902.4179	1654.2604	8566.5	7661.3
902.5598	1656.0019	8801.7	7895.25
902.7016	1657.7427	9043.7	8135.75
902.8434	1659.4828	9305.6	8396.65
902.9852	1661.222	9463.05	8551.7
903.127	1662.9606	9434.55	8525.65
903.2687	1664.6984	9203.75	8294.95
903.4105	1666.4354	8799.25	7886.5
903.5522	1668.1717	8267.3	7355.7
903.6939	1669.9072	7738.05	6825.4
903.8356	1671.642	7276.8	6362.95
903.9773	1673.3761	6900.2	5988.65
904.119	1675.1094	6578.45	5670.1
904.2606	1676.8419	6361.9	5450.2
904.4022	1678.5737	6161.1	5253.2
904.5439	1680.3048	6000.75	5090.9
904.6855	1682.0351	5890.05	4979.5
904.827	1683.7646	5774.4	4861.45
904.9686	1685.4934	5689.45	4780.3
905.1101	1687.2215	5613.5	4703.9
905.2517	1688.9488	5551.65	4646
905.3932	1690.6754	5471.8	4565.95
905.5347	1692.4012	5435.3	4526.45
905.6761	1694.1263	5396.4	4483.65
905.8176	1695.8506	5377.45	4468.5
905.9591	1697.5742	5327.05	4421.65
906.1005	1699.297	5270.65	4368.45
906.2419	1701.0191	5241.55	4341.6
906.3833	1702.7404	5197.8	4295.25
906.5246	1704.461	5154.25	4248.45
906.666	1706.1808	5124.55	4219.15
906.8073	1707.8999	5118.35	4214.1
906.9487	1709.6182	5092.25	4190.75
907.09	1711.3358	5045.3	4149.45
907.2313	1713.0527	5018.9	4121.7
907.3725	1714.7688	5003.5	4097.8
907.5138	1716.4841	4965.2	4060.35
907.655	1718.1987	4958.75	4052.45
907.7962	1719.9126	4942.8	4045.2
907.9374	1721.6257	4906.55	4006.8
908.0786	1723.338	4914.8	4016.7
908.2198	1725.0496	4887.25	3986.85
908.3609	1726.7605	4874.25	3972.5
908.502	1728.4706	4844.5	3940.4
908.6431	1730.18	4823.75	3923.15
908.7842	1731.8886	4824.85	3928.35
908.9253	1733.5964	4816.2	3897.6
909.0664	1735.3036	4798.95	3896.55
909.2074	1737.0099	4776.65	3876.65
909.3484	1738.7156	4746	3849.3
909.4894	1740.4204	4714	3813.2
909.6304	1742.1246	4704.15	3803.3
909.7714	1743.8279	4680.9	3782.2
909.9123	1745.5306	4648.45	3750.85
910.0532	1747.2325	4627.85	3730.55
910.1941	1748.9336	4619.25	3717.6
910.335	1750.634	4593.7	3693.1
910.4759	1752.3336	4575.2	3678.9
910.6168	1754.0325	4581.6	3688.65
910.7576	1755.7307	4564.1	3665.85
910.8984	1757.4281	4556.25	3660.4
911.0392	1759.1247	4557.8	3647.5
911.18	1760.8206	4548.7	3642.65
911.3208	1762.5158	4526	3618.15
911.4615	1764.2102	4531.15	3630.95
911.6022	1765.9039	4503.85	3607.2
911.7429	1767.5968	4477.2	3582.75
911.8836	1769.289	4477.75	3583.55
912.0243	1770.9804	4448	3548.35
912.1649	1772.6711	4468.7	3566.85
912.3056	1774.361	4459.85	3555.6
912.4462	1776.0502	4430.95	3525.6
912.5868	1777.7386	4423.3	3518.9
912.7274	1779.4263	4421.75	3521.95
912.8679	1781.1132	4414.95	3519.95
913.0084	1782.7994	4391.85	3496.8
913.149	1784.4849	4390.75	3497.3
913.2895	1786.1696	4385.5	3470.4
913.4299	1787.8535	4348.3	3453.7
913.5704	1789.5367	4362.25	3471.5
913.7108	1791.2192	4332.7	3438.65
913.8513	1792.9009	4345.55	3422.45
913.9917	1794.5818	4330.5	3429.9
914.132	1796.2621	4324.05	3424.1
914.2724	1797.9415	4320.3	3422
914.4128	1799.6202	4304.05	3405.55
914.5531	1801.2982	4300.45	3401.8
914.6934	1802.9755	4292.75	3392.95
914.8337	1804.6519	4280.2	3381.8
914.9739	1806.3277	4274.95	3377.25
915.1142	1808.0027	4236.05	3343.8
915.2544	1809.6769	4239.25	3348.8
915.3946	1811.3504	4227.8	3335.05
915.5348	1813.0231	4231.9	3339.9
915.675	1814.6951	4232.1	3336.85
915.8151	1816.3664	4231.25	3335.95
915.9553	1818.0369	4205.15	3308.2
916.0954	1819.7067	4203.45	3307.95
916.2355	1821.3757	4188.8	3289.65
916.3755	1823.044	4183.8	3284.2
916.5156	1824.7115	4177.85	3278.2
916.6556	1826.3783	4170.15	3274.3
916.7956	1828.0443	4143.05	3249.05
916.9356	1829.7096	4140.7	3242.15
917.0756	1831.3741	4136.95	3237
917.2155	1833.0379	4116.4	3222.3
917.3555	1834.701	4103.95	3210.3
917.4954	1836.3633	4124.15	3231.75
917.6353	1838.0248	4108.55	3213.5
917.7751	1839.6856	4094.3	3197.2
917.915	1841.3457	4105.75	3209.3
918.0548	1843.005	4095.4	3197.7
918.1946	1844.6636	4093.5	3197.1
918.3344	1846.3214	4081.3	3185.95
918.4742	1847.9785	4075.65	3181.15
918.6139	1849.6349	4054.65	3156.25
918.7537	1851.2904	4060.8	3152.35
918.8934	1852.9453	4056.35	3156.65
919.0331	1854.5994	4053.6	3150.5
919.1727	1856.2528	4054.3	3152.65
919.3124	1857.9054	4041.55	3140.75
919.452	1859.5572	4035.3	3140.85
919.5916	1861.2083	4021.55	3124.4
919.7312	1862.8587	4011.8	3114.75
919.8708	1864.5084	4001.8	3100.75
920.0103	1866.1572	3988.35	3088.95
920.1498	1867.8054	3986.75	3087.15
920.2893	1869.4528	3974.4	3073.6
920.4288	1871.0994	3963.1	3064.95
920.5683	1872.7453	3961.2	3062.55
920.7077	1874.3905	3948.9	3048.2
920.8471	1876.0349	3945.65	3047.6
920.9865	1877.6786	3941.2	3041.5
921.1259	1879.3215	3942.6	3044.85
921.2653	1880.9637	3925.2	3026.95
921.4046	1882.6051	3922.9	3026.9
921.5439	1884.2458	3923.95	3025.85
921.6832	1885.8858	3908.05	3009.2
921.8225	1887.525	3885.25	2989.05
921.9617	1889.1634	3875.15	2976.9
922.101	1890.8011	3864.75	2964.95
922.2402	1892.4381	3862.5	2966.9
922.3794	1894.0743	3850.35	2953
922.5185	1895.7098	3849.1	2954.4
922.6577	1897.3446	3835.85	2940.85
922.7968	1898.9786	3831.1	2928.95
922.9359	1900.6118	3834.55	2939.15
923.075	1902.2443	3809.2	2912.65
923.214	1903.8761	3820.75	2925.35
923.3531	1905.5071	3796.7	2898.85
923.4921	1907.1374	3780.9	2883.15
923.6311	1908.7669	3789.65	2896.1
923.77	1910.3957	3762.1	2867.6
923.909	1912.0237	3752.75	2858
924.0479	1913.651	3745.15	2850.8
924.1868	1915.2776	3736.3	2840.55
924.3257	1916.9034	3725.55	2831.55
924.4646	1918.5285	3719.1	2826.3
924.6034	1920.1528	3700.65	2805.1
924.7422	1921.7764	3701.95	2806.9
924.881	1923.3992	3689.2	2794.6
925.0198	1925.0213	3672.15	2776.45
925.1586	1926.6427	3665.85	2770.9
925.2973	1928.2633	3712.9	2738.4
925.436	1929.8832	3655.7	2759.2
925.5747	1931.5023	3637.7	2740.45
925.7134	1933.1207	3640.65	2744.45
925.852	1934.7383	3616.85	2720.85
925.9906	1936.3552	3603.4	2710.2
926.1292	1937.9714	3605.55	2710.75
926.2678	1939.5868	3606.05	2710.75
926.4064	1941.2015	3591.45	2692.5
926.5449	1942.8154	3576.65	2679.6
926.6834	1944.4286	3555.9	2659.5
926.8219	1946.041	3563.35	2651.2
926.9604	1947.6528	3542.75	2642.45
927.0988	1949.2637	3548.9	2655.55
927.2372	1950.8739	3522.3	2627.25
927.3756	1952.4834	3521.3	2625.3
927.514	1954.0921	3497.4	2603.9
927.6523	1955.7001	3495.6	2597.65
927.7907	1957.3074	3491.45	2602
927.929	1958.9139	3480.4	2592.1
928.0673	1960.5197	3472.6	2579.85
928.2055	1962.1247	3450.75	2559.35
928.3438	1963.729	3445.8	2554.15
928.482	1965.3325	3435.35	2540.2
928.6202	1966.9353	3415.55	2526.55
928.7584	1968.5374	3427.2	2537.95
928.8965	1970.1387	3410.85	2520.9
929.0346	1971.7393	3412.15	2519.5
929.1727	1973.3392	3389.15	2499.7
929.3108	1974.9383	3382.45	2493.7
929.4489	1976.5366	3359.15	2469.1
929.5869	1978.1342	3359.7	2471.6
929.7249	1979.7311	3357.55	2468.8
929.8629	1981.3273	3356.8	2468.2
930.0009	1982.9227	3334.25	2447.35
930.1388	1984.5173	3322.35	2433.35
930.2767	1986.1112	3322.85	2436
930.4146	1987.7044	3318.3	2431
930.5525	1989.2968	3311.75	2423.45
930.6904	1990.8885	3306.7	2418.65
930.8282	1992.4795	3306.35	2421.25
930.966	1994.0697	3290.3	2407.85
931.1038	1995.6592	3282.6	2396.55
931.2415	1997.2479	3281.75	2394.75
931.3793	1998.8359	3258.7	2371.7
931.517	2000.4232	3235.45	2352.95
931.6547	2002.0097	3249.7	2369.55
931.7923	2003.5955	3229.7	2349.05
931.93	2005.1805	3235.4	2351.2
932.0676	2006.7648	3224.45	2341.15
932.2052	2008.3484	3216.65	2330.5
932.3427	2009.9312	3224.2	2339.95
932.4803	2011.5133	3202.2	2323.7
932.6178	2013.0946	3208.8	2328
932.7553	2014.6752	3198.8	2317
932.8928	2016.2551	3199.8	2314
933.0302	2017.8342	3193.05	2309
933.1676	2019.4126	3175.55	2295.45
933.305	2020.9902	3164.05	2282.45
933.4424	2022.5672	3159.2	2277.7
933.5798	2024.1433	3165.7	2281.35
933.7171	2025.7188	3139.9	2261.85
933.8544	2027.2935	3138.05	2256.95
933.9917	2028.8674	3126.55	2245.25
934.129	2030.4406	3120.25	2243.8
934.2662	2032.0131	3098.55	2219.75
934.4034	2033.5849	3115.8	2233.35
934.5406	2035.1559	3090.5	2211.05
934.6778	2036.7261	3095.25	2214.8
934.8149	2038.2957	3097.75	2213.8
934.952	2039.8645	3094.6	2207.55
935.0891	2041.4325	3095.8	2207
935.2262	2042.9998	3084.3	2202.45
935.3632	2044.5664	3067.05	2185.45
935.5002	2046.1323	3064.15	2183.55
935.6372	2047.6974	3062.15	2182.7
935.7742	2049.2617	3071.65	2193.05
935.9111	2050.8254	3085.7	2182.3
936.048	2052.3883	3056.65	2170.5
936.1849	2053.9504	3034.4	2148.6
936.3218	2055.5118	3036.8	2148.7
936.4586	2057.0725	3023.2	2135.75
936.5955	2058.6325	3018.8	2134.95
936.7323	2060.1917	3012.45	2131.15
936.869	2061.7502	3004.5	2121
937.0058	2063.3079	3008.6	2130.3
937.1425	2064.8649	3001.65	2119.6
937.2792	2066.4212	2990.9	2109.5
937.4159	2067.9767	2979.55	2095.75
937.5525	2069.5315	2976.55	2095.7
937.6891	2071.0856	2957.1	2075.25
937.8257	2072.6389	2963.05	2080.05
937.9623	2074.1915	2949.7	2070.85
938.0989	2075.7433	2934.6	2049.9
938.2354	2077.2945	2938.15	2055.85
938.3719	2078.8448	2942.3	2056.35
938.5084	2080.3945	2934.05	2049
938.6448	2081.9434	2918.35	2034.15
938.7812	2083.4916	2922.8	2035.25
938.9176	2085.039	2912.95	2021.95
939.054	2086.5857	2914.95	2024.15
939.1903	2088.1317	2909.85	2018.3
939.3267	2089.677	2893.1	2001.35
939.463	2091.2215	2901.9	2008.7
939.5992	2092.7652	2894.05	1997.65
939.7355	2094.3083	2881.6	1990.6
939.8717	2095.8506	2877.4	1989.75
940.0079	2097.3921	2881.1	1994.55
940.1441	2098.933	2863.85	1977.5
940.2802	2100.4731	2866.85	1979.7
940.4163	2102.0124	2860.1	1962.65
940.5524	2103.5511	2852.1	1964.75
940.6885	2105.089	2852.15	1962.7
940.8245	2106.6261	2846.95	1960.2
940.9606	2108.1626	2848.15	1960.85
941.0965	2109.6983	2857.9	1941.7
941.2325	2111.2332	2833.5	1943.65
941.3684	2112.7675	2814.45	1925.15
941.5044	2114.301	2831.1	1941.25
941.6403	2115.8337	2820.65	1932.75
941.7761	2117.3657	2815.65	1927.55
941.912	2118.897	2816	1927.15
942.0478	2120.4276	2791.15	1896.3
942.1835	2121.9575	2805.15	1916.35
942.3193	2123.4866	2797.2	1904.9
942.455	2125.0149	2777	1886.15
942.5907	2126.5426	2772.3	1888.2
942.7264	2128.0695	2763.85	1880.25
942.8621	2129.5956	2754.85	1875.4
942.9977	2131.1211	2754.3	1866.9
943.1333	2132.6458	2747.05	1862.1
943.2689	2134.1698	2759.25	1871.05
943.4044	2135.693	2747.55	1854.6
943.54	2137.2155	2761.7	1869.35
943.6755	2138.7373	2739.1	1851.3
943.8109	2140.2584	2728.05	1844.45
943.9464	2141.7787	2723.5	1837.3
944.0818	2143.2983	2698.45	1818.75
944.2172	2144.8171	2694.5	1815.8
944.3526	2146.3353	2705.35	1823.1
944.4879	2147.8527	2703.7	1818.9
944.6232	2149.3693	2702.8	1814.85
944.7585	2150.8853	2680.9	1791.45
944.8938	2152.4005	2677.95	1787.65
945.029	2153.9149	2677.75	1787.55
945.1642	2155.4287	2677.9	1789.2
945.2994	2156.9417	2677.45	1787.65
945.4346	2158.454	2659.6	1771.8
945.5697	2159.9655	2647.25	1764.5
945.7048	2161.4764	2652.55	1765.3
945.8399	2162.9865	2645.45	1761.35
945.9749	2164.4958	2639.3	1756.05
946.1099	2166.0045	2641.1	1754.85
946.2449	2167.5124	2639.55	1753
946.3799	2169.0195	2627.55	1739.9
946.5148	2170.526	2638.65	1748.95
946.6498	2172.0317	2626.6	1735.2
946.7846	2173.5367	2627.1	1739.35
946.9195	2175.0409	2606.7	1721.55
947.0543	2176.5445	2604.9	1717.75
947.1891	2178.0473	2601.15	1710.65
947.3239	2179.5494	2594	1703.95
947.4587	2181.0507	2594.25	1706.2
947.5934	2182.5513	2597.7	1710
947.7281	2184.0512	2592.7	1704.3
947.8628	2185.5504	2577.8	1687.25
947.9974	2187.0488	2564.05	1680.25
948.132	2188.5465	2563.25	1680.3
948.2666	2190.0435	2570.7	1685.85
948.4012	2191.5397	2561.75	1672.9
948.5357	2193.0353	2566.4	1676.7
948.6702	2194.5301	2549.2	1656.85
948.8047	2196.0241	2547.7	1652.05
948.9392	2197.5175	2537.25	1643.3
949.0736	2199.0101	2543.35	1645
949.208	2200.502	2537.95	1648.1
949.3424	2201.9931	2520.8	1634.3
949.4767	2203.4835	2513.65	1630.6
949.611	2204.9733	2509.5	1620.9
949.7453	2206.4622	2504.1	1620.75
949.8796	2207.9505	2487.6	1602.1
950.0138	2209.438	2485.8	1606.05
950.148	2210.9248	2478.65	1593.4
950.2822	2212.4109	2476.35	1591.05
950.4164	2213.8962	2476.45	1582.6
950.5505	2215.3809	2479.6	1586.9
950.6846	2216.8648	2478.4	1582.2
950.8186	2218.3479	2463.55	1564.1
950.9527	2219.8304	2467.3	1568.05
951.0867	2221.3121	2455.9	1561.75
951.2207	2222.7931	2460.35	1567.25
951.3546	2224.2733	2438.55	1547.1
951.4886	2225.7529	2433.25	1544.15
951.6225	2227.2317	2425	1537
951.7563	2228.7098	2433.45	1549.15
951.8902	2230.1872	2415.25	1530.9
952.024	2231.6638	2425.6	1541.3
952.1578	2233.1397	2410.6	1522.6
952.2916	2234.6149	2406.85	1523.4
952.4253	2236.0894	2401.8	1515
952.559	2237.5632	2407.3	1511.05
952.6927	2239.0362	2385.65	1500
952.8263	2240.5085	2396.85	1509.65
952.9599	2241.9801	2382.25	1494.8
953.0935	2243.4509	2384.65	1493
953.2271	2244.921	2382.5	1490.3
953.3606	2246.3904	2363.15	1468.75
953.4941	2247.8591	2355.8	1464.6
953.6276	2249.3271	2353.9	1463.75
953.7611	2250.7943	2359.65	1467.1
953.8945	2252.2608	2351.6	1458.65
954.0279	2253.7266	2353.45	1464.1
954.1612	2255.1917	2342.1	1454.1
954.2946	2256.656	2328.7	1444.15
954.4279	2258.1197	2323.5	1440.45
954.5612	2259.5826	2322.3	1433.4
954.6944	2261.0447	2328.65	1440.9
954.8276	2262.5062	2318.85	1426.85
954.9608	2263.9669	2325.45	1434.4
955.094	2265.4269	2318.15	1431
955.2271	2266.8862	2303.05	1414.65
955.3602	2268.3448	2306.45	1419.95
955.4933	2269.8026	2287.25	1404.35
955.6264	2271.2598	2286.9	1400.55
955.7594	2272.7162	2284.9	1397.1
955.8924	2274.1719	2289.9	1396.65
956.0253	2275.6268	2274.3	1382
956.1583	2277.0811	2287.8	1396.1
956.2912	2278.5346	2278.35	1390.35
956.4241	2279.9874	2283.5	1397.55
956.5569	2281.4395	2270.9	1386.4
956.6897	2282.8908	2267.7	1375
956.8225	2284.3414	2267.85	1379.05
956.9553	2285.7914	2266.75	1378.2
957.088	2287.2406	2259.45	1370.75
957.2207	2288.689	2261.3	1369.75
957.3534	2290.1368	2261.85	1367.8
957.486	2291.5838	2253.05	1356.95
957.6186	2293.0302	2262.2	1364.55
957.7512	2294.4758	2245.65	1352.35
957.8838	2295.9206	2241.75	1347.65
958.0163	2297.3648	2224.35	1337.3
958.1488	2298.8082	2225	1334.8
958.2813	2300.251	2215.35	1325.85
958.4137	2301.693	2223.5	1329.2
958.5461	2303.1343	2220.35	1327.05
958.6785	2304.5748	2210.8	1319.95
958.8108	2306.0147	2205.6	1319.75
958.9432	2307.4538	2213.15	1323.9
959.0754	2308.8922	2200.15	1316.45
959.2077	2310.3299	2190.75	1305.7
959.3399	2311.7669	2194.75	1308.6
959.4721	2313.2031	2193	1305.3
959.6043	2314.6387	2194.15	1304.65
959.7365	2316.0735	2183.7	1293.45
959.8686	2317.5076	2176.95	1286.3
960.0006	2318.941	2178.2	1286.4
960.1327	2320.3737	2170.9	1279.35
960.2647	2321.8056	2174.95	1280.3
960.3967	2323.2369	2162.75	1272.65
960.5287	2324.6674	2161.7	1270.1
960.6606	2326.0972	2157.35	1265.25
960.7925	2327.5263	2161.9	1272.7
960.9244	2328.9547	2145.45	1254.95
961.0562	2330.3823	2150.3	1258.15
961.1881	2331.8092	2156.5	1260.1
961.3198	2333.2355	2136.5	1243
961.4516	2334.661	2142.45	1250.6
961.5833	2336.0858	2143.9	1250.1
961.715	2337.5098	2133.6	1243.15
961.8467	2338.9332	2127.35	1234.85
961.9783	2340.3558	2115.5	1222.65
962.1099	2341.7778	2122	1235.8
962.2415	2343.199	2103.45	1212.45
962.373	2344.6195	2099.1	1210
962.5045	2346.0393	2101.25	1214.6
962.636	2347.4583	2106.3	1216.7
962.7675	2348.8767	2107.85	1216.4
962.8989	2350.2943	2103.9	1210.8
963.0303	2351.7113	2105.35	1209.15
963.1617	2353.1275	2098.8	1206.4
963.293	2354.543	2110.85	1207.65
963.4243	2355.9578	2095.8	1204.45
963.5556	2357.3718	2087.45	1198.75
963.6868	2358.7852	2067.1	1179.2
963.818	2360.1978	2077.4	1190
963.9492	2361.6098	2077.65	1189.5
964.0803	2363.021	2070.7	1178.8
964.2114	2364.4315	2076.5	1187.65
964.3425	2365.8413	2070.05	1178.7
964.4736	2367.2504	2065.15	1179
964.6046	2368.6587	2044.75	1159.85
964.7356	2370.0664	2052	1165
964.8666	2371.4733	2048.15	1160.25
964.9975	2372.8795	2044.4	1156.4
965.1284	2374.285	2039.65	1151.15
965.2593	2375.6899	2033.55	1145.65
965.3901	2377.0939	2029.05	1142.3
965.5209	2378.4973	2025	1138
965.6517	2379.9	2018.9	1129.2
965.7825	2381.3019	2018.8	1132.4
965.9132	2382.7032	2018.15	1131
966.0439	2384.1037	2011.6	1127.95
966.1745	2385.5035	2008.4	1124.1
966.3051	2386.9027	2009.35	1123.8
966.4357	2388.3011	2000.75	1112.4
966.5663	2389.6987	2011.4	1123.2
966.6968	2391.0957	1996.45	1110.1
966.8273	2392.492	1987	1102.35
966.9578	2393.8876	1979.3	1090.95
967.0882	2395.2824	1984.65	1099.9
967.2186	2396.6765	1975.05	1084.9
967.349	2398.07	1978.45	1091.15
967.4793	2399.4627	1970.9	1081.15
967.6097	2400.8547	1970.35	1081.35
967.7399	2402.246	1971.95	1077.4
967.8702	2403.6366	1969.55	1081.5
968.0004	2405.0265	1952.95	1067.6
968.1306	2406.4156	1955.7	1065.7
968.2607	2407.8041	1956.4	1067.45
968.3909	2409.1918	1952.2	1060.6
968.521	2410.5789	1941.3	1053.1
968.651	2411.9652	1946.35	1053.75
968.781	2413.3508	1947.05	1056.7
968.911	2414.7358	1937.05	1048.7
969.041	2416.12	1926.35	1041.5
969.1709	2417.5035	1928.3	1040.25
969.3008	2418.8863	1921.4	1032.85
969.4307	2420.2684	1913.7	1023.3
969.5606	2421.6497	1920.25	1030.2
969.6904	2423.0304	1910.4	1023.8
969.8201	2424.4104	1910.15	1019.65
969.9499	2425.7896	1900.1	1011.5
970.0796	2427.1682	1907.2	1022.5
970.2093	2428.546	1915.8	1027.3
970.3389	2429.9232	1899.85	1010.05
970.4685	2431.2996	1893.2	1004.7
970.5981	2432.6753	1892.65	1004.4
970.7277	2434.0503	1901.8	1011.3
970.8572	2435.4246	1890.9	1001.4
970.9867	2436.7982	1902.3	1010.45
971.1161	2438.1711	1889.6	1000.1
971.2456	2439.5433	1887.3	997.05
971.375	2440.9148	1877.75	982.95
971.5043	2442.2856	1880.55	992.5
971.6336	2443.6557	1866.55	976.5
971.7629	2445.025	1862.45	975.5
971.8922	2446.3937	1860.5	969.9
972.0214	2447.7617	1861.85	973.3
972.1506	2449.1289	1853.7	965.55
972.2798	2450.4955	1851.6	960.5
972.4089	2451.8613	1850.25	961.65
972.538	2453.2265	1842	953.55
972.6671	2454.5909	1850.55	961.45
972.7961	2455.9546	1845.65	956.85
972.9251	2457.3177	1841.35	954.55
973.0541	2458.68	1846.5	956.65
973.1831	2460.0416	1841.25	951.45
973.312	2461.4025	1836.3	947.2
973.4408	2462.7627	1847.8	948.55
973.5697	2464.1222	1824.8	942.6
973.6985	2465.4811	1823.4	936.35
973.8273	2466.8392	1827.3	939.5
973.956	2468.1966	1831.4	941.45
974.0847	2469.5533	1826.5	934.55
974.2134	2470.9093	1825.2	934.65
974.3421	2472.2645	1822.25	930.9
974.4707	2473.6191	1819.05	932.9
974.5993	2474.973	1810.8	923.95
974.7278	2476.3262	1802.95	913.6
974.8563	2477.6787	1807.05	920.25
974.9848	2479.0305	1807.35	920.8
975.1132	2480.3816	1815.5	926.35
975.2417	2481.7319	1802.8	912.15
975.37	2483.0816	1792.25	903.8
975.4984	2484.4306	1799.3	910
975.6267	2485.7789	1791.2	905.8
975.755	2487.1264	1778.95	892.6
975.8833	2488.4733	1781.45	894.3
976.0115	2489.8195	1787.9	896
976.1397	2491.165	1771.95	881.3
976.2678	2492.5097	1778.6	891.55
976.3959	2493.8538	1768.65	879.95
976.524	2495.1972	1763.3	876.5
976.6521	2496.5398	1762.65	872.35
976.7801	2497.8818	1768	875.4
976.9081	2499.2231	1748.1	859.55
977.036	2500.5637	1756.3	864.55
977.164	2501.9035	1756.7	867
977.2918	2503.2427	1748.15	854.2
977.4197	2504.5812	1753.95	864.4
977.5475	2505.919	1745.2	854.25
977.6753	2507.256	1744.15	855.8
977.8031	2508.5924	1733.35	844.1
977.9308	2509.9281	1740.6	848.45
978.0585	2511.2631	1731.6	842.35
978.1861	2512.5974	1737.65	851.7
978.3137	2513.9309	1726.8	836.3
978.4413	2515.2638	1748.1	834.7
978.5689	2516.596	1731.35	842.9
978.6964	2517.9275	1724.75	833.95
978.8239	2519.2583	1715.85	826.8
978.9513	2520.5884	1723.05	836
979.0788	2521.9178	1717.75	829.75
979.2062	2523.2465	1717.2	830.2
979.3335	2524.5745	1713.95	825.3
979.4608	2525.9018	1713	824.95
979.5881	2527.2284	1700.55	813.95
979.7154	2528.5543	1706.8	821.75
979.8426	2529.8796	1699.25	810.85
979.9698	2531.2041	1706.05	819.05
980.0969	2532.5279	1703.65	818.45
980.224	2533.851	1701.8	812.45
980.3511	2535.1735	1704.45	820
980.4781	2536.4952	1706.65	819.6
980.6052	2537.8163	1696.95	805.3
980.7321	2539.1366	1694.3	803.9
980.8591	2540.4562	1691.75	802.1
980.986	2541.7752	1694.2	806.05
981.1129	2543.0935	1685.45	797.3
981.2397	2544.411	1701.55	810.45
981.3665	2545.7279	1690.3	802.55
981.4933	2547.0441	1691	802.7
981.62	2548.3596	1686.3	794.3
981.7467	2549.6744	1690	801.3
981.8734	2550.9885	1678.35	785.55
982.0001	2552.3019	1677.8	789.45
982.1267	2553.6146	1682.75	792.6
982.2532	2554.9266	1680.5	792.45
982.3798	2556.2379	1672.5	783.3
982.5063	2557.5485	1665.75	778.35
982.6327	2558.8585	1682.75	786.55
982.7592	2560.1677	1675.15	783.4
982.8856	2561.4762	1663.15	773.35
983.0119	2562.7841	1660.65	771.35
983.1383	2564.0913	1658.75	769.7
983.2646	2565.3977	1656.9	768.6
983.3908	2566.7035	1658.45	768.25
983.517	2568.0086	1664.35	772.55
983.6432	2569.313	1658.3	767.4
983.7694	2570.6167	1655.55	760.95
983.8955	2571.9197	1656.4	768.75
984.0216	2573.222	1656.55	765.3
984.1476	2574.5236	1651.05	760.45
984.2737	2575.8246	1645.35	755.85
984.3996	2577.1248	1658.65	767.35
984.5256	2578.4244	1653.05	765.5
984.6515	2579.7232	1645.65	756.25
984.7774	2581.0214	1676.75	762.3
984.9032	2582.3189	1648.6	761.65
985.029	2583.6157	1654.8	762.8
985.1548	2584.9118	1643	754.05
985.2806	2586.2072	1637.1	751.6
985.4063	2587.5019	1643.8	756.1
985.5319	2588.7959	1643.4	754.4
985.6576	2590.0893	1647.65	754.35
985.7832	2591.3819	1641.4	753.8
985.9087	2592.6739	1639.75	752.15
986.0343	2593.9652	1642.4	752.4
986.1597	2595.2557	1640.35	751.25
986.2852	2596.5456	1640.6	751.15
986.4106	2597.8348	1639.85	754.55
986.536	2599.1234	1638.45	753.25
986.6614	2600.4112	1637.5	749.25
986.7867	2601.6983	1650.15	760.8
986.912	2602.9848	1627.05	739.7
987.0372	2604.2705	1635.7	741.15
987.1624	2605.5556	1629.3	741.7
987.2876	2606.84	1633.35	746.45
987.4128	2608.1237	1619	729.45
987.5379	2609.4067	1623.45	736.85
987.6629	2610.689	1629.45	734.1
987.788	2611.9707	1622.5	732.8
987.913	2613.2516	1624.05	732.45
988.0379	2614.5319	1615.25	728.15
988.1629	2615.8115	1611.3	724.95
988.2878	2617.0903	1605.1	716.9
988.4126	2618.3685	1610.95	724.95
988.5375	2619.6461	1597.4	707.95
988.6622	2620.9229	1604.65	716.45
988.787	2622.199	1603.2	714.9
988.9117	2623.4745	1597.95	709.8
989.0364	2624.7493	1594.25	709.1
989.161	2626.0234	1592.4	704.8
989.2857	2627.2968	1597.6	708.15
989.4102	2628.5695	1591.9	703.75
989.5348	2629.8415	1587.55	699.9
989.6593	2631.1128	1589.75	701.55
989.7837	2632.3835	1587.35	701.6
989.9082	2633.6535	1590.45	705.65
990.0326	2634.9228	1582.9	697.05
990.1569	2636.1914	1585.95	701.25
990.2812	2637.4593	1577.2	690.2
990.4055	2638.7265	1577.4	691.05
990.5298	2639.9931	1578.65	689.4
990.654	2641.259	1580	694.2
990.7782	2642.5242	1569.85	683.45
990.9023	2643.7887	1567.55	679.95
991.0264	2645.0525	1568.7	684.05
991.1505	2646.3156	1574.25	687.9
991.2745	2647.5781	1560.45	676.15
991.3985	2648.8398	1558.35	670.5
991.5225	2650.1009	1595.7	673.35
991.6464	2651.3613	1556	668.7
991.7703	2652.6211	1560.2	673.9
991.8942	2653.8801	1557.05	674
992.018	2655.1385	1558.55	667.45
992.1418	2656.3961	1553.4	669.3
992.2655	2657.6531	1550.6	665.4
992.3892	2658.9094	1550.8	667.9
992.5129	2660.1651	1554.6	669.8
992.6366	2661.42	1558.7	672.85
992.7602	2662.6743	1553.8	664.7
992.8837	2663.9279	1553.3	666.55
993.0073	2665.1808	1554.45	669.35
993.1307	2666.433	1556.95	668.3
993.2542	2667.6846	1556.55	671
993.3776	2668.9354	1570.9	681.9
993.501	2670.1856	1560.55	673.2
993.6244	2671.4351	1561.05	674.95
993.7477	2672.6839	1560.6	672.8
993.8709	2673.9321	1563.75	678.25
993.9942	2675.1795	1560.65	675
994.1174	2676.4263	1567.75	684.25
994.2405	2677.6724	1570.05	683.95
994.3637	2678.9179	1569.15	684.2
994.4868	2680.1626	1562.45	676.6
994.6098	2681.4067	1565.05	678.25
994.7328	2682.6501	1558.5	674.45
994.8558	2683.8928	1560.4	674.05
994.9788	2685.1348	1559.65	673.25
995.1017	2686.3761	1553.75	669.35
995.2245	2687.6168	1551.4	666.7
995.3474	2688.8568	1551.8	667.4
995.4702	2690.0961	1544.8	661.95
995.5929	2691.3348	1532.6	645.3
995.7156	2692.5727	1541.25	654.8
995.8383	2693.81	1540.35	656.25
995.961	2695.0466	1524.1	640.75
996.0836	2696.2826	1531.4	644.1
996.2062	2697.5178	1554.15	649.65
996.3287	2698.7524	1531.2	647.25
996.4512	2699.9863	1533.85	647.65
996.5737	2701.2195	1539.1	656.5
996.6961	2702.452	1542.55	656.8
996.8185	2703.6839	1540.65	654.85
996.9408	2704.9151	1540.2	656.15
997.0631	2706.1456	1549.3	663.8
997.1854	2707.3755	1548.35	662.9
997.3077	2708.6046	1559.3	671.6
997.4299	2709.8331	1558.95	673.25
997.552	2711.0609	1571.55	687.95
997.6742	2712.2881	1573.75	687.15
997.7963	2713.5145	1583.4	696.25
997.9183	2714.7403	1588.1	703.4
998.0403	2715.9654	1603	718.9
998.1623	2717.1899	1626.6	725.7
998.2842	2718.4136	1620.85	735.3
998.4062	2719.6367	1618.35	734.2
998.528	2720.8591	1647.45	757.4
998.6498	2722.0809	1650.4	764.35
998.7716	2723.3019	1658.25	770.75
998.8934	2724.5223	1660.25	773.05
999.0151	2725.7421	1677.9	791.45
999.1368	2726.9611	1675	789.55
999.2584	2728.1795	1673.2	783
999.38	2729.3972	1654.1	772.2
999.5016	2730.6142	1657.35	759.25
999.6231	2731.8306	1637.05	750.65
999.7446	2733.0462	1626.2	740.9
999.8661	2734.2612	1614.2	723.55
999.9875	2735.4756	1593.7	707.9
1000.1089	2736.6892	1571.75	686.05
1000.2302	2737.9022	1557.65	674.8
1000.3515	2739.1145	1546.9	662.05
1000.4728	2740.3262	1545.85	653.8
1000.594	2741.5372	1525.55	640.5
1000.7152	2742.7475	1523.95	639.3
1000.8363	2743.9571	1510.45	623.6
1000.9575	2745.1661	1503.9	614.85
1001.0785	2746.3744	1499.45	614.1
1001.1996	2747.582	1483.25	599.7
1001.3206	2748.7889	1469.85	583.6
1001.4415	2749.9952	1467.25	582.95
1001.5625	2751.2008	1463.9	578.7
1001.6833	2752.4057	1460.5	573
1001.8042	2753.61	1458.5	574.95
1001.925	2754.8136	1452.55	566.7
1002.0458	2756.0165	1449.55	566.3
1002.1665	2757.2188	1443.05	559.2
1002.2872	2758.4204	1447.1	564.25
1002.4078	2759.6213	1451.2	566.3
1002.5285	2760.8215	1451.1	565
1002.649	2762.0211	1452.05	568.25
1002.7696	2763.22	1445.8	557.9
1002.8901	2764.4182	1447.15	561.8
1003.0106	2765.6158	1434.05	550.45
1003.131	2766.8127	1428.7	543.7
1003.2514	2768.009	1433.95	551.7
1003.3717	2769.2045	1436	553.4
1003.492	2770.3994	1429	543.8
1003.6123	2771.5936	1423.05	541.15
1003.7325	2772.7872	1419.3	536.8
1003.8527	2773.9801	1416.5	530.6
1003.9729	2775.1723	1427.7	526.25
1004.093	2776.3639	1413.15	529.05
1004.2131	2777.5548	1411.3	525.15
1004.3331	2778.745	1414.9	531.85
1004.4531	2779.9346	1413.15	530.35
1004.5731	2781.1235	1425.5	540.75
1004.693	2782.3117	1412.55	532.4
1004.8129	2783.4992	1418.55	534.45
1004.9328	2784.6861	1417.6	537
1005.0526	2785.8723	1427.5	543.75
1005.1723	2787.0579	1427.5	545.35
1005.2921	2788.2428	1433.8	549.9
1005.4118	2789.427	1440.05	556.7
1005.5314	2790.6106	1446.55	564.9
1005.651	2791.7935	1451.15	565.6
1005.7706	2792.9757	1458.15	576.85
1005.8902	2794.1573	1464.05	581.95
1006.0097	2795.3382	1470.35	587.15
1006.1291	2796.5184	1486.8	606.6
1006.2485	2797.698	1497.9	614.15
1006.3679	2798.8769	1505.85	623.6
1006.4873	2800.0551	1515.8	632.25
1006.6066	2801.2327	1537.45	653.5
1006.7258	2802.4096	1542.3	659.85
1006.8451	2803.5859	1552.55	669.6
1006.9642	2804.7615	1572.15	689.15
1007.0834	2805.9364	1593.5	712.2
1007.2025	2807.1106	1613.85	732.05
1007.3216	2808.2842	1636.05	752.9
1007.4406	2809.4572	1658.85	776.25
1007.5596	2810.6294	1695.2	811.55
1007.6785	2811.801	1728	848.4
1007.7975	2812.972	1763.45	882.65
1007.9163	2814.1423	1793.15	910.55
1008.0352	2815.3119	1844.65	961.75
1008.154	2816.4808	1884.95	1003.25
1008.2727	2817.6491	1938	1055.2
1008.3914	2818.8167	1981.6	1099.75
1008.5101	2819.9837	2036.35	1149.4
1008.6288	2821.15	2087.6	1206.05
1008.7474	2822.3157	2130.55	1249.2
1008.8659	2823.4807	2182.8	1301.1
1008.9844	2824.645	2232	1346.95
1009.1029	2825.8086	2280.9	1399.35
1009.2214	2826.9716	2341.15	1461.95
1009.3398	2828.134	2389	1507.45
1009.4581	2829.2957	2428.4	1548.4
1009.5764	2830.4567	2458.5	1578.7
1009.6947	2831.617	2488.25	1604.75
1009.813	2832.7767	2496.3	1614.4
1009.9312	2833.9358	2502.4	1619.9
1010.0493	2835.0941	2493.05	1608.55
1010.1675	2836.2519	2483.75	1602
1010.2855	2837.4089	2459.8	1576.2
1010.4036	2838.5653	2447.4	1568.95
1010.5216	2839.7211	2448.25	1566
1010.6396	2840.8761	2443.75	1560
1010.7575	2842.0306	2449.95	1570.75
1010.8754	2843.1843	2478.1	1596.45
1010.9932	2844.3374	2503.2	1617.5
1011.111	2845.4899	2567.55	1684.5
1011.2288	2846.6417	2602.65	1722.65
1011.3465	2847.7928	2662.2	1781.35
1011.4642	2848.9433	2730.45	1849.85
1011.5818	2850.0931	2792.25	1912.05
1011.6995	2851.2422	2845.95	1961
1011.817	2852.3907	2899.65	2018.55
1011.9345	2853.5385	2961.35	2079.85
1012.052	2854.6857	3024.35	2130.65
1012.1695	2855.8323	3066.4	2186.9
1012.2869	2856.9781	3112	2231.85
1012.4042	2858.1233	3161.9	2280.75
1012.5216	2859.2679	3205.45	2323.6
1012.6389	2860.4118	3257.25	2377.6
1012.7561	2861.555	3292.65	2407.7
1012.8733	2862.6976	3321.75	2436.5
1012.9905	2863.8395	3360.1	2479.65
1013.1076	2864.9808	3395.35	2511.8
1013.2247	2866.1214	3416.5	2536.3
1013.3417	2867.2614	3417.55	2533.8
1013.4587	2868.4007	3449.8	2568.3
1013.5757	2869.5393	3468.9	2586.95
1013.6926	2870.6773	3471.05	2587
1013.8095	2871.8146	3475.75	2589.2
1013.9263	2872.9513	3479.1	2594.8
1014.0431	2874.0874	3465.25	2582.2
1014.1599	2875.2227	3465.45	2583.05
1014.2766	2876.3574	3450.25	2570.7
1014.3933	2877.4915	3425.3	2544.6
1014.51	2878.6249	3406.25	2526.7
1014.6266	2879.7577	3376.05	2494.15
1014.7431	2880.8898	3369.35	2477.45
1014.8596	2882.0212	3340.75	2461.4
1014.9761	2883.152	3333.8	2452.35
1015.0925	2884.2821	3324.55	2443.5
1015.2089	2885.4116	3310.65	2432.1
1015.3253	2886.5405	3312.05	2432.3
1015.4416	2887.6686	3327.45	2442.9
1015.5579	2888.7962	3320.1	2441.35
1015.6741	2889.923	3327.9	2449.35
1015.7903	2891.0493	3341.7	2462.1
1015.9065	2892.1748	3355.9	2476.15
1016.0226	2893.2997	3364.95	2482.1
1016.1387	2894.424	3386.05	2506.7
1016.2547	2895.5476	3394.6	2513.85
1016.3707	2896.6706	3413.2	2532.95
1016.4866	2897.7929	3424.55	2543.6
1016.6025	2898.9145	3450.5	2568.25
1016.7184	2900.0355	3482.35	2603.75
1016.8342	2901.1559	3508	2625.15
1016.95	2902.2756	3535.9	2650.7
1017.0658	2903.3946	3566.3	2686.2
1017.1815	2904.513	3602.05	2718.45
1017.2971	2905.6308	3630.1	2751.45
1017.4127	2906.7479	3657.2	2775.85
1017.5283	2907.8643	3669.55	2789.35
1017.6439	2908.9801	3682.95	2801.55
1017.7594	2910.0953	3689.45	2810.4
1017.8748	2911.2098	3703	2819.6
1017.9902	2912.3236	3686.05	2797.8
1018.1056	2913.4368	3667.1	2786.9
1018.2209	2914.5494	3635.6	2756.15
1018.3362	2915.6613	3625.95	2740.55
1018.4515	2916.7725	3593.45	2712.25
1018.5667	2917.8831	3571.5	2689.7
1018.6819	2918.9931	3529	2645.2
1018.797	2920.1024	3508.1	2631.25
1018.9121	2921.211	3486.6	2607
1019.0271	2922.319	3469.6	2590.65
1019.1421	2923.4264	3476.5	2596.3
1019.2571	2924.5331	3449.2	2572.05
1019.372	2925.6391	3437.4	2557.9
1019.4869	2926.7445	3428.95	2550.3
1019.6017	2927.8493	3448.5	2567.7
1019.7165	2928.9534	3444.65	2565.85
1019.8313	2930.0569	3434.35	2549.2
1019.946	2931.1597	3457.2	2576.75
1020.0606	2932.2619	3433.3	2554.55
1020.1753	2933.3634	3445.35	2567.5
1020.2899	2934.4643	3458.2	2571.15
1020.4044	2935.5645	3452.35	2569.65
1020.5189	2936.6641	3425.7	2541.25
1020.6334	2937.763	3370.4	2492.5
1020.7478	2938.8613	3348.6	2466.75
1020.8622	2939.959	3303.3	2419.65
1020.9765	2941.056	3238.6	2361.4
1021.0908	2942.1523	3178.75	2297.8
1021.2051	2943.248	3088.6	2209.5
1021.3193	2944.3431	2996.1	2118.1
1021.4334	2945.4375	2903.15	2023.45
1021.5476	2946.5313	2818.75	1940.3
1021.6617	2947.6244	2709.75	1830.25
1021.7757	2948.7169	2629.55	1750.3
1021.8897	2949.8087	2534.9	1655.7
1022.0037	2950.8999	2453.05	1572.85
1022.1176	2951.9904	2377.35	1501.15
1022.2315	2953.0803	2313.35	1434.4
1022.3453	2954.1696	2247.2	1368.45
1022.4591	2955.2582	2202.55	1323.95
1022.5728	2956.3462	2148.8	1271.6
1022.6865	2957.4335	2125.45	1245.5
1022.8002	2958.5202	2089.3	1206.45
1022.9138	2959.6062	2051.9	1173.6
1023.0274	2960.6916	2038.7	1159.15
1023.141	2961.7764	2017.05	1135.35
1023.2545	2962.8605	2010.6	1131.4
1023.3679	2963.9439	1983.75	1105.4
1023.4813	2965.0267	1977.5	1099.45
1023.5947	2966.1089	1993.1	1090.05
1023.708	2967.1905	1972.2	1096.35
1023.8213	2968.2714	1959.95	1082.25
1023.9346	2969.3516	1967.55	1089.9
1024.0478	2970.4312	1972.8	1086.1
1024.1609	2971.5102	1971.55	1094.55
1024.274	2972.5885	1960.85	1083.1
1024.3871	2973.6662	1973	1088.7
1024.5002	2974.7432	1962.75	1082.4
1024.6132	2975.8196	1959.8	1081.25
1024.7261	2976.8954	1963.05	1084.05
1024.839	2977.9705	1948.1	1070.55
1024.9519	2979.045	1938.7	1061.1
1025.0647	2980.1188	1920.85	1042.65
1025.1775	2981.192	1903.75	1027.8
1025.2902	2982.2645	1886.85	1006.75
1025.4029	2983.3364	1870.45	992.7
1025.5156	2984.4077	1834.95	957.05
1025.6282	2985.4783	1807.5	924.8
1025.7407	2986.5483	1769.65	890.45
1025.8532	2987.6177	1763.45	884.75
1025.9657	2988.6864	1724.9	846.55
1026.0782	2989.7545	1694.25	814.45
1026.1906	2990.8219	1662.85	785.35
1026.3029	2991.8887	1629.4	748.45
1026.4152	2992.9548	1602.3	725
1026.5275	2994.0204	1579	702.85
1026.6397	2995.0852	1541.65	664.3
1026.7519	2996.1495	1514.5	632.55
1026.864	2997.2131	1493.1	617.45
1026.9761	2998.276	1473.95	596.45
1027.0882	2999.3383	1458.4	579.85
1027.2002	3000.4	1435.05	558
1027.3122	3001.4611	1416	537.2
1027.4241	3002.5215	1401.65	525.15
1027.536	3003.5812	1385.85	508.9
1027.6478	3004.6404	1370.65	492.45
1027.7596	3005.6989	1365.7	486
1027.8714	3006.7567	1346.9	467.45
1027.9831	3007.8139	1366.25	458.55
1028.0947	3008.8705	1333.35	455.05
1028.2064	3009.9264	1327.15	445.3
1028.3179	3010.9818	1311.55	434.45
1028.4295	3012.0364	1301.4	422.3
1028.541	3013.0905	1306.15	425.95
1028.6524	3014.1439	1300.15	421.35
1028.7638	3015.1966	1293.2	416.7
1028.8752	3016.2487	1289.9	410.6
1028.9865	3017.3002	1292.65	411.15
1029.0978	3018.3511	1280.95	405.7
1029.209	3019.4013	1287.95	409.25
1029.3202	3020.4509	1286.8	410.3
1029.4314	3021.4998	1277.85	401
1029.5425	3022.5481	1276.55	401.9
1029.6535	3023.5958	1278.55	400.65
1029.7645	3024.6428	1276.05	395.85
1029.8755	3025.6892	1275.15	398.7
1029.9864	3026.735	1277.75	400.05
1030.0973	3027.7802	1278.85	399.15
1030.2082	3028.8247	1278.6	402.55
1030.319	3029.8685	1274.2	396.35
1030.4297	3030.9118	1284.85	405.65
1030.5404	3031.9544	1279.1	401.3
1030.6511	3032.9963	1280.6	402.7
1030.7617	3034.0376	1285.4	407.45
1030.8723	3035.0783	1288.8	411.8
1030.9829	3036.1184	1296.15	417.15
1031.0934	3037.1578	1295.15	418.6
1031.2038	3038.1966	1292.75	413.95
1031.3142	3039.2348	1296.7	421
1031.4246	3040.2723	1304.4	416.25
1031.5349	3041.3092	1293.8	418.4
1031.6452	3042.3455	1295.65	418.7
1031.7554	3043.3811	1297.8	421.15
1031.8656	3044.4161	1289.9	411.05
1031.9758	3045.4505	1289.05	412.95
1032.0859	3046.4842	1292	413.8
1032.1959	3047.5173	1282.65	405.7
1032.3059	3048.5498	1281.4	405.05
1032.4159	3049.5816	1276.25	398.45
1032.5258	3050.6128	1278.25	401.05
1032.6357	3051.6434	1267.3	388.35
1032.7455	3052.6734	1265.6	389.9
1032.8553	3053.7027	1262.6	384.9
1032.9651	3054.7314	1258.9	382.7
1033.0748	3055.7594	1250	374.4
1033.1845	3056.7868	1248	371.15
1033.2941	3057.8136	1245.15	367.7
1033.4037	3058.8398	1243.2	366.15
1033.5132	3059.8653	1240.4	364.1
1033.6227	3060.8902	1243.25	366.8
1033.7321	3061.9145	1237.8	361
1033.8415	3062.9381	1232.4	356
1033.9509	3063.9612	1245.3	351.5
1034.0602	3064.9835	1224.9	348.3
1034.1694	3066.0053	1223.2	343.9
1034.2787	3067.0264	1223.65	344.7
1034.3878	3068.0469	1221.2	342.55
1034.497	3069.0668	1211.8	331.55
1034.6061	3070.086	1202.7	326.8
1034.7151	3071.1046	1201.05	321.65
1034.8241	3072.1226	1190.75	312.35
1034.9331	3073.1399	1186.65	310.75
1035.042	3074.1567	1175.75	299
1035.1508	3075.1727	1172.25	293.05
1035.2597	3076.1882	1166.25	290.35
1035.3684	3077.203	1156.45	280.65
1035.4772	3078.2173	1154.2	275.55
1035.5859	3079.2308	1150.35	269.9
1035.6945	3080.2438	1138.75	259.65
1035.8031	3081.2561	1134.7	257.2
1035.9117	3082.2678	1127.45	248.7
1036.0202	3083.2789	1120.4	244
1036.1286	3084.2893	1114.9	237.75
1036.2371	3085.2991	1111.25	234.15
1036.3454	3086.3083	1111.35	229.2
1036.4538	3087.3169	1107.5	229.95
1036.562	3088.3248	1099.05	222.6
1036.6703	3089.3321	1093.95	216.2
1036.7785	3090.3388	1087.65	214.8
1036.8866	3091.3449	1084.85	206.9
1036.9948	3092.3503	1081.15	202.45
1037.1028	3093.3551	1076.9	201.1
1037.2108	3094.3593	1076.8	203.1
1037.3188	3095.3629	1074.9	197.9
1037.4267	3096.3658	1072.45	196
1037.5346	3097.3681	1069.15	192.75
1037.6425	3098.3698	1067.2	188.65
1037.7503	3099.3708	1070.35	187.1
1037.858	3100.3713	1056.7	181.05
1037.9657	3101.3711	1057.15	180.15
1038.0734	3102.3702	1172.3	180.75
1038.181	3103.3688	1054.4	178.05
1038.2886	3104.3667	1049	171.25
1038.3961	3105.364	1044.9	169.9
1038.5036	3106.3607	1047	171.45
1038.611	3107.3568	1042.55	165.5
1038.7184	3108.3522	1039.75	164.7
1038.8257	3109.347	1042.75	165.15
1038.933	3110.3412	1042.05	160.25
1039.0403	3111.3348	1036.9	161
1039.1475	3112.3277	1038.1	161.95
1039.2547	3113.32	1026.15	150.35
1039.3618	3114.3117	1032.85	156.4
1039.4689	3115.3028	1031.45	154.85
1039.5759	3116.2932	1030.05	152.65
1039.6829	3117.2831	1033.65	150.3
1039.7898	3118.2723	1024.4	148.25
1039.8967	3119.2608	1024.45	148.3
1040.0035	3120.2488	1026.05	151.1
1040.1103	3121.2361	1021	145.65
1040.2171	3122.2229	1019.5	143.6
1040.3238	3123.209	1017.1	139.8
1040.4305	3124.1944	1015	142.15
1040.5371	3125.1793	1022.45	143.35
1040.6437	3126.1635	1013.7	139.45
1040.7502	3127.1471	1013.9	138.7
1040.8567	3128.1301	1006.8	130.05
1040.9631	3129.1125	1010.45	134.8
1041.0695	3130.0942	1009.25	133.45
1041.1759	3131.0753	1014.3	127.95
1041.2822	3132.0558	1010.3	133
1041.3884	3133.0357	1007.8	131
1041.4946	3134.015	1006.65	128.65
1041.6008	3134.9936	1006.6	129.05
1041.7069	3135.9716	1025.7	127.15
1041.813	3136.949	1002.05	126.5
1041.919	3137.9258	1018.35	124.05
1042.025	3138.902	1003.4	121.6
1042.1309	3139.8775	1000.05	123.8
1042.2368	3140.8524	993.7	116.95
1042.3427	3141.8267	997.65	121.05
1042.4485	3142.8004	999.55	122.2
1042.5542	3143.7735	1001.5	119.5
1042.6599	3144.7459	999	120.25
1042.7656	3145.7178	993.65	115.65
1042.8712	3146.689	991.85	118.7
1042.9768	3147.6596	995.05	117.5
1043.0823	3148.6295	990.35	114.25
1043.1878	3149.5989	992.3	115.65
1043.2932	3150.5676	984.6	109.65
1043.3986	3151.5357	989.85	114.95
1043.5039	3152.5032	986.65	109.9
1043.6092	3153.4701	987.25	112.75
1043.7145	3154.4364	988.15	108.55
1043.8197	3155.402	981.3	107.7
1043.9248	3156.367	984.2	106.95
1044.03	3157.3315	1017.15	107.55
1044.135	3158.2952	982.9	105.75
1044.24	3159.2584	977.45	100.75
1044.345	3160.221	980.75	103.45
1044.4499	3161.1829	978.1	102.25
1044.5548	3162.1442	977.8	103.3
1044.6596	3163.105	978.05	101.45
1044.7644	3164.065	978.95	102.7
1044.8692	3165.0245	982.6	105.9
1044.9739	3165.9834	978.7	104.4
1045.0785	3166.9416	976.15	102.9
1045.1831	3167.8993	972.8	98.5
1045.2877	3168.8563	976.85	101.4
1045.3922	3169.8127	972.1	96.2
1045.4966	3170.7684	970.9	94.05
1045.6011	3171.7236	973.35	97.95
1045.7054	3172.6782	971.65	97.85
1045.8098	3173.6321	973.5	97.25
1045.914	3174.5854	977.3	95.7
1046.0183	3175.5381	969.8	93.15
1046.1224	3176.4902	969.55	94.3
1046.2266	3177.4417	968.15	93.1
1046.3307	3178.3926	967.65	92.05
1046.4347	3179.3428	967.95	91.9
1046.5387	3180.2924	965.65	90.7
1046.6427	3181.2415	964.5	87.7
1046.7466	3182.1899	966	88
1046.8504	3183.1377	964.25	88.4
1046.9542	3184.0848	964.6	85.6
1047.058	3185.0314	962.75	87.5
1047.1617	3185.9773	963.85	87.75
1047.2654	3186.9227	961.65	85.95
1047.369	3187.8674	964.55	89.3
1047.4726	3188.8115	967.3	87
1047.5761	3189.755	961.9	88
1047.6796	3190.6979	962.3	85.9
1047.783	3191.6402	956.15	81.8
1047.8864	3192.5818	959.1	85
1047.9898	3193.5229	963.15	82.4
1048.0931	3194.4633	960.35	85.35
1048.1963	3195.4031	959.35	83.15
1048.2995	3196.3423	955.8	80.8
1048.4027	3197.2809	956.3	81.65
1048.5058	3198.2189	956.25	81.85
1048.6089	3199.1563	964.3	81.95
1048.7119	3200.0931	952.8	78.6
1048.8148	3201.0292	953.75	80
1048.9178	3201.9648	953.5	79.55
1049.0206	3202.8997	957.6	80
1049.1235	3203.834	954.8	80.35
1049.2262	3204.7677	953.25	78.3
1049.329	3205.7008	958.2	81.3
1049.4317	3206.6333	948.35	74.65
1049.5343	3207.5652	953.65	75.2
1049.6369	3208.4964	951	75
1049.7394	3209.4271	952.75	78.1
1049.8419	3210.3571	950.3	76.75
1049.9444	3211.2865	950.75	73.75
1050.0468	3212.2154	950.95	75.65
1050.1491	3213.1436	950.65	70.65
1050.2514	3214.0712	957.25	77
1050.3537	3214.9982	950.05	74.45
1050.4559	3215.9246	950.05	75.45
1050.5581	3216.8503	945.5	70.55
1050.6602	3217.7755	946.45	70.6
1050.7623	3218.7001	948.95	76.4
1050.8643	3219.624	946.95	71.95
1050.9663	3220.5473	946.95	70.9
1051.0682	3221.4701	946.8	69.55
1051.1701	3222.3922	944.25	67.65
1051.2719	3223.3137	944.65	70.35
1051.3737	3224.2346	945.55	70.45
1051.4754	3225.1549	944.05	69.75
1051.5771	3226.0746	943.6	69.5
1051.6788	3226.9937	945.8	70.1
1051.7804	3227.9121	943.95	71
1051.8819	3228.83	940.85	67.8
1051.9834	3229.7473	942.4	68.2
1052.0849	3230.6639	943.4	68.35
1052.1863	3231.5799	941.3	66.7
1052.2876	3232.4954	942.2	67.2
1052.3889	3233.4102	941.95	65.55
1052.4902	3234.3244	944.4	70
1052.5914	3235.238	939.7	64.55
1052.6926	3236.151	964.95	67.55
1052.7937	3237.0634	935.45	63.75
1052.8948	3237.9752	937.25	62
1052.9958	3238.8864	937	61.55
1053.0968	3239.797	936.5	61.2
1053.1977	3240.7069	940.1	63.8
1053.2986	3241.6163	940.7	65.4
1053.3994	3242.5251	934.85	61.7
1053.5002	3243.4332	936.8	64.9
1053.6009	3244.3408	937.3	63.8
1053.7016	3245.2477	933.4	58.7
1053.8022	3246.154	937.1	61.4
1053.9028	3247.0598	933	57
1054.0034	3247.9649	931.95	57.1
1054.1039	3248.8694	931.85	55.35
1054.2043	3249.7733	931.45	57.7
1054.3047	3250.6766	933.5	59.75
1054.4051	3251.5793	932.6	57.45
1054.5054	3252.4814	930.35	57.6
1054.6056	3253.3829	930.15	58.55
1054.7058	3254.2838	929.45	55.35
1054.806	3255.1841	930.85	57.2
1054.9061	3256.0838	927.2	49.1
1055.0061	3256.9829	926.6	52.3
1055.1062	3257.8814	929.9	52.4
1055.2061	3258.7792	930.45	53.05
1055.306	3259.6765	930.05	53.3
1055.4059	3260.5731	929.3	54.9
1055.5057	3261.4692	925.5	52.15
1055.6055	3262.3647	926.3	53.2
1055.7052	3263.2595	924.1	50.9
1055.8049	3264.1538	921.7	48.5
1055.9045	3265.0474	922.75	48.3
1056.0041	3265.9404	917.75	44.65
1056.1036	3266.8329	919	45.8
1056.2031	3267.7247	931.2	45.8
1056.3025	3268.616	918	46.65
1056.4019	3269.5066	917.1	42.85
1056.5013	3270.3966	917.75	42.45
1056.6005	3271.286	913.05	39.4
