Software Version:	3.9.2.0
Unit SN:	10000200
Spectrometer SN:	6960
Date:	3/8/2024 1:33:36 PM
Data Line Index:	25
Spectral Points:	2048
Integration time (ms):	125
Averages:	20
Delay (ms):	30000
Sequence Number:	1
Processing:	dark subtract
Laser Power (mW):	300
Laser Current (mA):	823
Laser Diode Temp (C):	25
Laser Case Temp (C):	26.3
System Temp (C):	26.3
Spectrometer Temp (C):	24.1
CCD Temp (C):	0.013
Secondary Temp (C):	20.008
Heatsink Temp (C):	20.654
CCDPCB Temp (C):	36.396
SecondaryPCB Temp (C):	31.472

Wavelength	RamanShift	Raw Counts	Dark Subtracted
787.061	30.1047	455	47.55
787.2016	32.3739	453.7	46.9
787.3422	34.6426	457.1	49.2
787.4828	36.9109	462.35	53
787.6235	39.1787	473.3	59
787.7642	41.4461	483.1	65.45
787.9049	43.7131	490.8	69.15
788.0456	45.9796	501.6	79.3
788.1863	48.2456	507	80.05
788.3271	50.5112	518.9	87.65
788.4679	52.7764	523.65	90.7
788.6087	55.0411	535.95	96.4
788.7496	57.3054	549.15	104
788.8904	59.5692	556.85	109.35
789.0313	61.8326	566.7	119.1
789.1722	64.0955	581.5	130.6
789.3132	66.3579	596.4	140
789.4541	68.6199	612.25	149.3
789.5951	70.8815	642.55	174.7
789.7361	73.1426	724.65	254
789.8771	75.4032	926.45	452.8
790.0181	77.6634	1402.45	925.75
790.1592	79.9231	2562.05	2078.75
790.3003	82.1824	5036	4541.25
790.4414	84.4412	9483.65	8967.25
790.5825	86.6995	15637.1	15092.4
790.7237	88.9574	21648.15	21076.05
790.8648	91.2148	25778.65	25194.85
791.006	93.4717	27693.8	27098.85
791.1472	95.7282	28023.25	27423.25
791.2885	97.9842	27883.85	27276.85
791.4297	100.2398	27306.85	26700.65
791.571	102.4949	26671.85	26062.25
791.7123	104.7495	25886.45	25277.05
791.8536	107.0036	25085	24471.5
791.9949	109.2573	24281.85	23673
792.1363	111.5105	23501.4	22885.2
792.2777	113.7632	22809.15	22195.7
792.4191	116.0154	22180.85	21549.85
792.5605	118.2672	21707.15	21081.7
792.7019	120.5185	21259.35	20639.05
792.8434	122.7693	20909.35	20284.8
792.9849	125.0197	20627.65	19995.35
793.1264	127.2696	20285.05	19649.8
793.2679	129.519	20107.05	19467.7
793.4094	131.7679	19881.25	19243.3
793.551	134.0163	19698.35	19054.8
793.6926	136.2642	19472.15	18827.8
793.8342	138.5117	19224.35	18574.75
793.9758	140.7587	18944.85	18290.6
794.1175	143.0052	18715.7	18063.85
794.2591	145.2512	18471.35	17816.9
794.4008	147.4967	18225.5	17573.7
794.5425	149.7417	18049.45	17392.85
794.6842	151.9863	17903.3	17241
794.826	154.2304	17831.25	17166.15
794.9677	156.4739	17702.65	17030.65
795.1095	158.717	17610.1	16940.65
795.2513	160.9596	17459.3	16781.55
795.3931	163.2017	17220.65	16546.5
795.535	165.4433	16907.45	16228.45
795.6768	167.6844	16568.35	15884.8
795.8187	169.925	16247.2	15563.5
795.9606	172.1651	15876.95	15187.7
796.1025	174.4047	15603.1	14911.9
796.2445	176.6439	15334	14643.55
796.3864	178.8825	15109.7	14414.15
796.5284	181.1206	14944.25	14244.5
796.6704	183.3582	14772.35	14069.5
796.8124	185.5954	14664.65	13960.1
796.9544	187.832	14591.5	13882.2
797.0965	190.0681	14524.15	13813.2
797.2386	192.3037	14513	13801.4
797.3806	194.5388	14532.15	13814.45
797.5228	196.7734	14568.4	13849.1
797.6649	199.0075	14651.55	13926.8
797.807	201.2411	14778.15	14059.35
797.9492	203.4742	14857.5	14129.4
798.0914	205.7068	15021.75	14294.8
798.2336	207.9389	15112.15	14383.65
798.3758	210.1704	15235	14511.2
798.518	212.4015	15355.65	14638.5
798.6603	214.632	15538.55	14832.25
798.8025	216.862	15698.55	14993.75
798.9448	219.0915	15813.8	15106.15
799.0871	221.3205	16030.7	15316.85
799.2294	223.549	16259.5	15554.25
799.3718	225.777	16520.6	15814.8
799.5141	228.0044	16853.25	16140.25
799.6565	230.2314	17218.3	16505.9
799.7989	232.4578	17630.05	16913.1
799.9413	234.6837	17948.55	17224.05
800.0837	236.909	18147.6	17417.8
800.2262	239.1339	18131.1	17377.2
800.3687	241.3582	17899.5	17162
800.5111	243.582	17629.3	16860.45
800.6536	245.8053	17346.1	16592.7
800.7961	248.0281	17047.2	16292.4
800.9387	250.2503	16854.55	16103.65
801.0812	252.472	16729.55	15972.05
801.2238	254.6932	16715.55	15962.75
801.3664	256.9139	16661.65	15905.65
801.509	259.134	16691.25	15931.1
801.6516	261.3536	16742.65	15984.2
801.7942	263.5727	16847.25	16086.95
801.9369	265.7912	16872.05	16115.3
802.0795	268.0092	16980.65	16223.35
802.2222	270.2267	16977.35	16216.7
802.3649	272.4436	16958.3	16194
802.5076	274.6601	16913.95	16142.4
802.6504	276.8759	16807.7	16041.9
802.7931	279.0913	16757.15	15989.75
802.9359	281.3061	16679.85	15910.15
803.0787	283.5204	16719.1	15942.7
803.2215	285.7341	16773.4	15995.3
803.3643	287.9473	16884	16099.8
803.5071	290.16	17086.4	16308.05
803.6499	292.3721	17354.7	16579.25
803.7928	294.5837	17753.95	16976.85
803.9357	296.7947	18073.9	17299.1
804.0786	299.0052	18290.15	17514.65
804.2215	301.2152	18148.3	17368.35
804.3644	303.4246	17816.35	17039.1
804.5074	305.6334	17330.95	16553.6
804.6503	307.8418	16812.6	16032.05
804.7933	310.0495	16384.75	15602.45
804.9363	312.2568	16088.3	15307.9
805.0793	314.4635	15837.8	15054.8
805.2223	316.6696	15687.8	14901.85
805.3653	318.8752	15593	14800.5
805.5084	321.0802	15651.9	14865.45
805.6514	323.2847	15721.8	14932
805.7945	325.4887	15767.3	14980.7
805.9376	327.692	15710.6	14917.45
806.0807	329.8949	15627.7	14836.5
806.2238	332.0972	15366.7	14574.5
806.367	334.2989	15098.7	14300.9
806.5101	336.5001	14814.25	14016.65
806.6533	338.7007	14611.05	13813.6
806.7965	340.9008	14455.15	13656.5
806.9397	343.1003	14377.5	13573.35
807.0829	345.2992	14303	13502.3
807.2261	347.4976	14266.7	13464
807.3693	349.6955	14231.7	13427.75
807.5126	351.8927	14301.1	13491.55
807.6559	354.0895	14236.55	13416.75
807.7991	356.2856	14306.1	13496.4
807.9424	358.4812	14260.1	13452.75
808.0857	360.6763	14303.2	13489.9
808.2291	362.8707	14268.25	13453.05
808.3724	365.0646	14289.7	13474.5
808.5158	367.258	14309.7	13495.65
808.6591	369.4508	14388.05	13572
808.8025	371.643	14458.2	13637.3
808.9459	373.8346	14484.75	13665
809.0893	376.0257	14466.65	13640.9
809.2327	378.2162	14409.7	13587
809.3762	380.4062	14324.75	13504.5
809.5196	382.5956	14166.15	13348.55
809.6631	384.7844	14053.6	13240.3
809.8066	386.9726	13952.35	13139.65
809.9501	389.1603	13881.45	13072.1
810.0936	391.3474	13856.8	13011.2
810.2371	393.5339	13822.85	13007.2
810.3806	395.7199	13771.95	12957.2
810.5241	397.9052	13803.5	12987.95
810.6677	400.09	13843.3	13028.6
810.8113	402.2743	13932.1	13111.65
810.9548	404.4579	14008.35	13190.15
811.0984	406.641	14216.35	13395.1
811.2421	408.8235	14398.15	13575.1
811.3857	411.0054	14665.85	13839.7
811.5293	413.1868	15063.65	14233.2
811.673	415.3675	15350.7	14518.6
811.8166	417.5477	15532.85	14700.2
811.9603	419.7273	15558.2	14725.45
812.104	421.9064	15440.15	14600.2
812.2477	424.0848	15334.6	14501.85
812.3914	426.2627	15122.85	14288.3
812.5351	428.4399	14854.35	14018.75
812.6788	430.6166	14491.7	13652.95
812.8226	432.7928	14134.9	13292.3
812.9663	434.9683	13822.3	12982
813.1101	437.1432	13582.9	12744.55
813.2539	439.3176	13412.15	12576.6
813.3977	441.4914	13291.3	12456.75
813.5415	443.6645	13272.85	12434.9
813.6853	445.8371	13214.75	12373.15
813.8291	448.0091	13170	12330.25
813.973	450.1806	13160.1	12323.75
814.1168	452.3514	13125.2	12288.7
814.2607	454.5216	13093.8	12237.8
814.4046	456.6913	13055.55	12216.65
814.5485	458.8603	13114.85	12277.3
814.6924	461.0288	13146.55	12312
814.8363	463.1967	13159.6	12325.6
814.9802	465.3639	13240.05	12404.3
815.1241	467.5306	13319.55	12480.8
815.2681	469.6967	13463.55	12623.75
815.412	471.8622	13570.3	12729.7
815.556	474.0271	13706.85	12869.55
815.7	476.1914	13754.85	12911.1
815.844	478.3551	13769.8	12924.6
815.988	480.5182	13748.95	12907.3
816.132	482.6807	13785.2	12948.35
816.276	484.8426	13854.05	13022.55
816.4201	487.0039	14179.65	13338.35
816.5641	489.1647	14570.65	13726.5
816.7082	491.3248	14957.2	14112.45
816.8522	493.4843	15159.8	14315.6
816.9963	495.6432	15141.25	14299.85
817.1404	497.8015	15035.4	14185.05
817.2845	499.9592	15029.95	14178.6
817.4286	502.1163	14929.2	14078
817.5727	504.2728	14690.55	13837.65
817.7168	506.4287	14363.05	13523.1
817.861	508.5839	13967.5	13123.45
818.0051	510.7386	13671.6	12825.2
818.1493	512.8927	13484.7	12630.8
818.2935	515.0461	13403.3	12548.95
818.4377	517.199	13358.65	12504.75
818.5818	519.3512	13417.25	12565
818.726	521.5029	13483.15	12622.8
818.8703	523.6539	13593.1	12737.95
819.0145	525.8043	13684.75	12830.45
819.1587	527.9541	13689.6	12831.55
819.303	530.1033	13633.15	12776
819.4472	532.2519	13633.15	12778.3
819.5915	534.3999	13721.65	12863.9
819.7357	536.5472	13936.3	13083.9
819.88	538.694	14359.3	13506.05
820.0243	540.8401	14902.6	14046.85
820.1686	542.9856	15344.1	14485.35
820.3129	545.1305	15477.8	14613.65
820.4572	547.2748	15372.3	14506.9
820.6016	549.4185	15020.75	14152.3
820.7459	551.5615	14705.45	13839.45
820.8902	553.704	14601.6	13737.4
821.0346	555.8458	14529.15	13664.75
821.1789	557.987	14594.1	13730.8
821.3233	560.1276	14613.1	13749.85
821.4677	562.2675	14738.85	13877.65
821.6121	564.4069	14865.25	14002.55
821.7565	566.5456	14936.55	14074.55
821.9009	568.6837	14894	14031.1
822.0453	570.8212	14610.7	13747.15
822.1897	572.958	14232.75	13368.8
822.3342	575.0942	13854.05	12993.85
822.4786	577.2299	13617.7	12760.05
822.6231	579.3648	13543.95	12691.15
822.7675	581.4992	13563.8	12712.5
822.912	583.6329	13753.75	12903.85
823.0565	585.766	13980.95	13128.05
823.201	587.8985	14126.95	13270.7
823.3454	590.0304	14157.9	13270.8
823.4899	592.1616	14074.4	13207.25
823.6345	594.2922	13950.35	13083.25
823.779	596.4222	13786.25	12916.55
823.9235	598.5515	13631.7	12762.6
824.068	600.6802	13461.1	12591.75
824.2126	602.8083	13281.15	12410.95
824.3571	604.9358	13244.15	12374.75
824.5017	607.0626	13185.75	12313.55
824.6462	609.1888	13203.4	12330.4
824.7908	611.3144	13189.25	12316.55
824.9354	613.4393	13129.4	12256.35
825.08	615.5636	13075.95	12201.15
825.2246	617.6873	13024.25	12151.8
825.3692	619.8103	12943.95	12071.35
825.5138	621.9327	12807.55	11931.9
825.6584	624.0544	12732.3	11861.8
825.803	626.1756	12678.7	11807.75
825.9477	628.2961	12613.4	11738.05
826.0923	630.4159	12572.45	11699
826.237	632.5351	12525.05	11649.25
826.3816	634.6537	12452.8	11574.65
826.5263	636.7716	12429.25	11549.1
826.6709	638.8889	12470.65	11594.15
826.8156	641.0056	12489.4	11609.75
826.9603	643.1216	12475.75	11597.1
827.105	645.237	12504	11625.05
827.2497	647.3518	12427.1	11554.2
827.3944	649.4659	12449.95	11576.35
827.5391	651.5793	12451.8	11579.9
827.6838	653.6922	12425.5	11552.45
827.8285	655.8043	12424.6	11549.2
827.9733	657.9159	12409.65	11533.9
828.118	660.0268	12348.4	11471.55
828.2627	662.137	12317.65	11441.4
828.4075	664.2466	12319.7	11436.55
828.5522	666.3556	12270.8	11388.65
828.697	668.4639	12258.7	11374.65
828.8418	670.5716	12290.1	11411.25
828.9865	672.6786	12377.6	11496.45
829.1313	674.785	12390.85	11508.3
829.2761	676.8907	12412.75	11532.55
829.4209	678.9958	12474.4	11600.7
829.5657	681.1002	12459	11575.45
829.7105	683.204	12446.9	11561.3
829.8553	685.3072	12405.8	11520.45
830.0001	687.4097	12316.65	11435.4
830.1449	689.5115	12306.3	11420.6
830.2898	691.6127	12255.5	11375.9
830.4346	693.7132	12203	11319.7
830.5794	695.8131	12175.45	11281.15
830.7243	697.9123	12169.35	11282.05
830.8691	700.0109	12157.4	11268.45
831.014	702.1089	12132.2	11246.65
831.1588	704.2061	12136.25	11252.8
831.3037	706.3028	12190.15	11304.05
831.4486	708.3987	12254.5	11364.8
831.5935	710.4941	12334.8	11449.7
831.7383	712.5887	12464.45	11577
831.8832	714.6827	12710.1	11819.1
832.0281	716.7761	13047.25	12163.85
832.173	718.8688	13351.1	12464.85
832.3179	720.9608	13536.85	12644.85
832.4628	723.0522	13613.55	12720.05
832.6077	725.1429	13465.05	12573.7
832.7527	727.233	13280.15	12392.75
832.8976	729.3224	13111.1	12220.05
833.0425	731.4112	12867.4	11978.8
833.1874	733.4993	12637.75	11748.3
833.3324	735.5867	12482.6	11593.1
833.4773	737.6735	12373.5	11484.3
833.6222	739.7596	12243	11350.9
833.7672	741.845	12207.9	11315.7
833.9122	743.9298	12185.4	11293.85
834.0571	746.014	12147.05	11257.1
834.2021	748.0974	12155.8	11261.3
834.347	750.1802	12172	11277
834.492	752.2624	12159.05	11265.55
834.637	754.3439	12219.75	11323.35
834.782	756.4247	12303	11398.6
834.9269	758.5048	12436.6	11542.3
835.0719	760.5843	12675.45	11781.25
835.2169	762.6631	12996.9	12101.9
835.3619	764.7413	13489.45	12595.6
835.5069	766.8188	14089.25	13194.7
835.6519	768.8956	14601.9	13706.35
835.7969	770.9718	14913.25	14019.45
835.9419	773.0473	14750.3	13854.95
836.0869	775.1221	14436.45	13540.45
836.232	777.1962	14082.1	13187.65
836.377	779.2697	13913.75	13017.4
836.522	781.3426	13941.4	13030.35
836.667	783.4147	14190.55	13293.8
836.8121	785.4862	14427.3	13533.55
836.9571	787.557	14436.55	13538.4
837.1021	789.6271	14059.8	13162.7
837.2472	791.6966	13524.6	12627.6
837.3922	793.7654	12965.65	12062.6
837.5373	795.8335	12606.75	11707.6
837.6823	797.901	12403.55	11506.75
837.8274	799.9678	12278	11378.9
837.9724	802.0339	12309.7	11410.35
838.1175	804.0993	12312.7	11406.9
838.2626	806.1641	12303.7	11404.85
838.4076	808.2282	12256.8	11359.25
838.5527	810.2916	12146	11242.75
838.6978	812.3544	12075.85	11181.2
838.8428	814.4164	11999.1	11105.25
838.9879	816.4778	12028.15	11127.9
839.133	818.5385	12008.6	11108.2
839.2781	820.5986	12121.1	11222.05
839.4232	822.658	12283.35	11382
839.5682	824.7166	12394.25	11494.55
839.7133	826.7747	12702.85	11803.8
839.8584	828.832	12974.7	12077.55
840.0035	830.8886	13150.65	12250.1
840.1486	832.9446	13315.45	12413.55
840.2937	834.9999	13294.3	12394.5
840.4388	837.0545	13249.7	12345.05
840.5839	839.1085	13142.25	12239.4
840.729	841.1618	13041.9	12137.25
840.8741	843.2143	12961.35	12057
841.0192	845.2662	12871.8	11972.8
841.1643	847.3175	12806.55	11907.5
841.3095	849.368	12699.7	11797.45
841.4546	851.4179	12566.65	11663.35
841.5997	853.467	12462.55	11563
841.7448	855.5155	12361	11459.55
841.8899	857.5633	12242.05	11342.15
842.0351	859.6105	12181.35	11279.9
842.1802	861.6569	12102.7	11196.55
842.3253	863.7027	12049.55	11146.45
842.4704	865.7478	12033.3	11128
842.6156	867.7922	12022.65	11117.95
842.7607	869.8359	12053.4	11149.65
842.9058	871.8789	12135.3	11228.35
843.0509	873.9212	12328.65	11388.75
843.1961	875.9629	12451.5	11547.3
843.3412	878.0039	12626.5	11723.65
843.4863	880.0441	12706.55	11803.9
843.6315	882.0837	12740.3	11836.5
843.7766	884.1226	12654.55	11750.8
843.9218	886.1609	12581.7	11677.2
844.0669	888.1984	12513.45	11613.4
844.212	890.2352	12560.8	11656.5
844.3572	892.2714	12543.8	11635.75
844.5023	894.3069	12510.8	11605.1
844.6475	896.3416	12397.3	11492.35
844.7926	898.3757	12345.35	11439.4
844.9377	900.4091	12331.3	11423.35
845.0829	902.4418	12340.35	11428.4
845.228	904.4739	12363.65	11457.5
845.3732	906.5052	12373.45	11467.6
845.5183	908.5358	12292.15	11384.45
845.6635	910.5658	12148.65	11242.7
845.8086	912.595	11955.2	11047.5
845.9538	914.6236	11781.75	10876.2
846.0989	916.6515	11751.45	10842.65
846.2441	918.6786	11713.5	10803.8
846.3892	920.7051	11751.25	10842.7
846.5344	922.7309	11856.45	10951.05
846.6795	924.756	11913.3	11007.05
846.8246	926.7804	12012.35	11103.8
846.9698	928.8041	11976.9	11068.45
847.1149	930.8272	12022.65	11117.2
847.2601	932.8495	11977.45	11069.25
847.4052	934.8711	11933.95	11024.85
847.5504	936.892	11807.85	10901.5
847.6955	938.9123	11719.4	10808.5
847.8407	940.9318	11621.4	10712.25
847.9858	942.9506	11541.9	10632.7
848.131	944.9688	11442.85	10536.8
848.2761	946.9862	11369.05	10458.9
848.4213	949.003	11308.8	10399.8
848.5664	951.019	11273.6	10365
848.7115	953.0344	11273.8	10365.85
848.8567	955.0491	11298.2	10387.2
849.0018	957.063	11395.45	10487.3
849.147	959.0763	11517.1	10609.4
849.2921	961.0888	11539.75	10630.2
849.4373	963.1007	11633.15	10727.85
849.5824	965.1119	11655.85	10753.55
849.7275	967.1223	11680.25	10778.3
849.8727	969.1321	11687.65	10788.1
850.0178	971.1412	11705	10802.6
850.1629	973.1495	11716.55	10811.35
850.3081	975.1572	11786.05	10828.6
850.4532	977.1641	11780.7	10874.5
850.5983	979.1704	11773.15	10865.3
850.7435	981.1759	11765.25	10850.1
850.8886	983.1808	11847.35	10933.55
851.0337	985.1849	11914	10995.5
851.1788	987.1884	12019.95	11111.9
851.324	989.1911	12180.25	11273.35
851.4691	991.1932	12299.7	11391
851.6142	993.1945	12346.45	11437.55
851.7593	995.1951	12300.7	11391
851.9045	997.1951	12245.65	11332.9
852.0496	999.1943	12212.3	11304.85
852.1947	1001.1928	12163.85	11253.75
852.3398	1003.1906	12189.75	11281.25
852.4849	1005.1877	12256.35	11345.65
852.63	1007.1841	12246.8	11342.4
852.7751	1009.1798	12192.1	11285.05
852.9202	1011.1748	12059.9	11150.4
853.0653	1013.1691	11882.8	10974.1
853.2104	1015.1627	11646.75	10739.75
853.3555	1017.1556	11468.1	10557.9
853.5006	1019.1477	11351.3	10443.55
853.6457	1021.1392	11265.25	10363.8
853.7908	1023.1299	11246.25	10346
853.9359	1025.12	11287.75	10385.2
854.081	1027.1093	11308.2	10415.25
854.2261	1029.0979	11413.45	10522.05
854.3712	1031.0859	11481.9	10583.5
854.5163	1033.0731	11514.85	10612.75
854.6613	1035.0596	11452	10550.4
854.8064	1037.0454	11295.95	10390.5
854.9515	1039.0304	11210.9	10304.25
855.0965	1041.0148	11094.85	10185.6
855.2416	1042.9985	11022.45	10114.25
855.3867	1044.9814	10963.05	10055.05
855.5317	1046.9636	10908.55	9997.3
855.6768	1048.9452	10883.2	9977.85
855.8219	1050.926	10946.4	10040.4
855.9669	1052.9061	10909.3	10000.95
856.112	1054.8855	10938.5	10026
856.257	1056.8642	10965.55	10058.8
856.4021	1058.8421	11051.85	10139.75
856.5471	1060.8194	11086.25	10177.15
856.6921	1062.7959	11100.45	10189.8
856.8372	1064.7717	11114.15	10200.2
856.9822	1066.7469	11147.95	10238.65
857.1272	1068.7213	11168.1	10255.15
857.2723	1070.695	11201.6	10293.75
857.4173	1072.6679	11153.9	10243.8
857.5623	1074.6402	11113.1	10200.8
857.7073	1076.6117	11096.5	10183.4
857.8523	1078.5826	11071.7	10161.05
857.9973	1080.5527	11004.9	10096.35
858.1423	1082.5221	11085.05	10172.75
858.2873	1084.4908	11217.55	10309.5
858.4323	1086.4587	11368.8	10460.25
858.5773	1088.426	11511.35	10603.1
858.7223	1090.3925	11509.7	10594.3
858.8673	1092.3584	11503.15	10593.4
859.0123	1094.3235	11394.65	10485.5
859.1573	1096.2879	11359.4	10450.1
859.3022	1098.2515	11383.65	10474.8
859.4472	1100.2145	11473.05	10565.85
859.5922	1102.1767	11556.95	10645.45
859.7371	1104.1382	11732.9	10822.3
859.8821	1106.099	11963.55	11051.4
860.027	1108.0591	12185.4	11276.85
860.172	1110.0185	12314.4	11405.65
860.3169	1111.9771	12362.75	11453.95
860.4619	1113.9351	12202.75	11293.8
860.6068	1115.8923	11945.35	11035.95
860.7517	1117.8488	11693.9	10782.55
860.8967	1119.8045	11410.05	10501.95
861.0416	1121.7596	11300.35	10392.5
861.1865	1123.7139	11205.5	10298.65
861.3314	1125.6675	11210.25	10304.05
861.4763	1127.6204	11290.3	10380.1
861.6212	1129.5726	11260	10347.4
861.7661	1131.524	11240.05	10331.8
861.911	1133.4748	11198.65	10292.05
862.0559	1135.4248	11134.55	10225.35
862.2008	1137.3741	11092.4	10183
862.3457	1139.3226	11046.6	10137.5
862.4905	1141.2705	11004.55	10096.95
862.6354	1143.2176	10889.05	9972.6
862.7803	1145.164	10882.1	9970.85
862.9251	1147.1097	10864.4	9955.7
863.07	1149.0546	10859.4	9950.6
863.2148	1150.9989	10782.85	9873.4
863.3597	1152.9424	10648.55	9739.35
863.5045	1154.8852	10538.45	9629.45
863.6493	1156.8272	10407.4	9497
863.7942	1158.7686	10388.2	9469.7
863.939	1160.7092	10368.45	9455.85
864.0838	1162.6491	10370.1	9456.1
864.2286	1164.5883	10445.9	9535
864.3734	1166.5267	10538.1	9630.8
864.5182	1168.4644	10685	9772.3
864.663	1170.4014	10877.2	9964.05
864.8078	1172.3377	11123.35	10215.5
864.9526	1174.2732	11383.9	10476.5
865.0974	1176.2081	11663.3	10755.2
865.2421	1178.1421	11934.85	11019.55
865.3869	1180.0755	12218.4	11311.7
865.5317	1182.0082	12385.3	11476.8
865.6764	1183.9401	12439.8	11531.55
865.8212	1185.8713	12298.95	11393.65
865.9659	1187.8017	12065.05	11165.55
866.1106	1189.7315	11780.65	10883.3
866.2554	1191.6605	11450.9	10552.5
866.4001	1193.5888	11237.25	10336.95
866.5448	1195.5163	11140.85	10235.9
866.6895	1197.4432	11069.3	10160.45
866.8342	1199.3693	11025.5	10118.95
866.9789	1201.2947	10975.05	10064.5
867.1236	1203.2193	10963.1	10054.35
867.2683	1205.1432	10988.75	10080.2
867.413	1207.0664	10980.65	10074.7
867.5576	1208.9889	11034.9	10124.75
867.7023	1210.9106	11041.55	10129.95
867.847	1212.8316	11072.85	10163.9
867.9916	1214.7519	11138.15	10220.25
868.1363	1216.6715	11140.4	10229.65
868.2809	1218.5903	11161.45	10253.8
868.4255	1220.5084	11176.2	10266.15
868.5701	1222.4257	11180.35	10272.4
868.7148	1224.3424	11152.05	10246.8
868.8594	1226.2583	11208.65	10298.4
869.004	1228.1735	11324.85	10414.8
869.1486	1230.0879	11448.55	10538.8
869.2932	1232.0016	11560.95	10654
869.4377	1233.9146	11610.85	10701
869.5823	1235.8269	11550.15	10643.25
869.7269	1237.7384	11444.75	10538.75
869.8715	1239.6492	11244.85	10339.1
870.016	1241.5592	11153.65	10246
870.1606	1243.4686	11089.95	10181
870.3051	1245.3772	11122.9	10217.1
870.4496	1247.285	11132.8	10222.5
870.5941	1249.1922	11175.9	10268.65
870.7387	1251.0986	11194	10288.1
870.8832	1253.0042	11184.9	10276.1
871.0277	1254.9092	11225.45	10318.45
871.1722	1256.8134	11308.65	10401.4
871.3167	1258.7169	11454.1	10544.55
871.4611	1260.6196	11625.25	10719.4
871.6056	1262.5216	11849.15	10940.7
871.7501	1264.4229	12022.9	11115.85
871.8945	1266.3234	12158.75	11252.1
872.039	1268.2232	12268.65	11362.45
872.1834	1270.1223	12313.45	11403.45
872.3278	1272.0207	12305.4	11396.85
872.4723	1273.9183	12274.25	11362.55
872.6167	1275.8151	12198.65	11293.45
872.7611	1277.7113	12114.1	11207.2
872.9055	1279.6067	12046.05	11140.05
873.0499	1281.5014	12032.05	11122.6
873.1943	1283.3953	12069.75	11159.4
873.3386	1285.2885	12138.75	11232.9
873.483	1287.181	12275.45	11369.35
873.6274	1289.0727	12462.55	11557.05
873.7717	1290.9637	12583.45	11677.3
873.9161	1292.854	12737.65	11831
874.0604	1294.7435	12827.4	11918.6
874.2047	1296.6323	12946.25	12037.9
874.349	1298.5204	13099.65	12190.35
874.4933	1300.4077	13258.3	12351.8
874.6376	1302.2943	13291.05	12382.35
874.7819	1304.1802	13302.95	12397.9
874.9262	1306.0653	13091	12181.95
875.0705	1307.9497	12837.55	11931.75
875.2147	1309.8333	12643.45	11737.15
875.359	1311.7162	12505.5	11600.7
875.5032	1313.5984	12475.6	11567.4
875.6475	1315.4798	12463.7	11551.3
875.7917	1317.3605	12529.4	11617
875.9359	1319.2405	12547.3	11637.1
876.0801	1321.1197	12469.1	11562.1
876.2243	1322.9982	12297	11383.9
876.3685	1324.876	12231.85	11325.8
876.5127	1326.753	12077.1	11171.65
876.6569	1328.6293	12016.9	11106.65
876.801	1330.5048	11972.2	11059.85
876.9452	1332.3796	11935.4	11028.75
877.0893	1334.2537	11898.85	10965.05
877.2335	1336.127	11831.15	10927
877.3776	1337.9996	11784.55	10878.35
877.5217	1339.8714	11775.5	10867.7
877.6658	1341.7426	11791.7	10838.75
877.8099	1343.6129	11779.25	10870.35
877.954	1345.4826	11723.8	10814.8
878.0981	1347.3515	11725.25	10813.9
878.2422	1349.2196	11645.6	10738.85
878.3862	1351.087	11689.3	10780.85
878.5303	1352.9537	11714.25	10803
878.6743	1354.8197	11818.2	10910.65
878.8184	1356.6849	11978.5	11070.45
878.9624	1358.5493	12081.05	11171.3
879.1064	1360.4131	12172.45	11267.25
879.2504	1362.276	12173.85	11265.2
879.3944	1364.1383	12072.9	11166.5
879.5384	1365.9998	11847.25	10933.35
879.6823	1367.8606	11518.2	10606.7
879.8263	1369.7206	11216.55	10307.25
879.9702	1371.5799	10969.4	10059.5
880.1142	1373.4384	10763.55	9855.15
880.2581	1375.2962	10564.2	9657.75
880.402	1377.1533	10325.75	9418.9
880.5459	1379.0096	9991.9	9086.3
880.6898	1380.8652	9729.1	8824.6
880.8337	1382.7201	9430.35	8524.6
880.9776	1384.5742	9229.95	8324.95
881.1215	1386.4275	9047.85	8139.1
881.2653	1388.2802	8936.9	8029.75
881.4092	1390.132	8827.15	7919.6
881.553	1391.9832	8770.5	7861.3
881.6968	1393.8336	8661.2	7753.1
881.8406	1395.6832	8630.55	7721
881.9844	1397.5322	8586.8	7677.6
882.1282	1399.3803	8591.1	7679.6
882.272	1401.2278	8546.5	7638.65
882.4158	1403.0745	8538.8	7632.65
882.5595	1404.9204	8523	7618.15
882.7033	1406.7656	8547.2	7639.4
882.847	1408.6101	8563.6	7657
882.9908	1410.4538	8589.85	7685.5
883.1345	1412.2968	8657.05	7748.2
883.2782	1414.139	8681.55	7773.65
883.4219	1415.9805	8778.4	7872.6
883.5656	1417.8213	8845.75	7930.55
883.7092	1419.6613	8985.25	8081.65
883.8529	1421.5006	9141.85	8234.25
883.9965	1423.3391	9375.75	8468.65
884.1402	1425.1769	9698.85	8790.6
884.2838	1427.0139	10160.95	9254.2
884.4274	1428.8502	10708.05	9800.5
884.571	1430.6858	11277.95	10369.35
884.7146	1432.5206	11667.35	10762.4
884.8582	1434.3547	11914.85	11010.2
885.0018	1436.188	11961.2	11053.7
885.1453	1438.0206	11887.55	10980.05
885.2889	1439.8524	11709.65	10800.75
885.4324	1441.6835	11586	10677.8
885.5759	1443.5139	11509.55	10597.85
885.7194	1445.3435	11407.05	10500.95
885.8629	1447.1724	11376.2	10472.5
886.0064	1449.0005	11337.25	10433.05
886.1499	1450.8279	11199.75	10293.25
886.2933	1452.6545	11192.95	10286.15
886.4368	1454.4804	11219.45	10315
886.5802	1456.3056	11220.05	10308.3
886.7237	1458.13	11125.05	10224.5
886.8671	1459.9536	10928.15	10023.5
887.0105	1461.7766	10597.45	9694.9
887.1539	1463.5987	10226.25	9320.1
887.2972	1465.4202	9862.5	8957.45
887.4406	1467.2409	9506	8600.35
887.584	1469.0608	9238.05	8333.35
887.7273	1470.88	8951.45	8045.35
887.8706	1472.6984	8724.65	7819.55
888.0139	1474.5161	8533.5	7626.3
888.1572	1476.3331	8377.1	7471.3
888.3005	1478.1493	8243.5	7336.95
888.4438	1479.9648	8135.3	7230.75
888.5871	1481.7795	8059.65	7154.6
888.7303	1483.5935	7996.25	7091.95
888.8736	1485.4067	7933.05	7028.7
889.0168	1487.2192	7874.5	6969.25
889.16	1489.031	7847.65	6940.85
889.3032	1490.842	7789.85	6883.6
889.4464	1492.6522	7746	6838.2
889.5896	1494.4618	7714.95	6811.45
889.7327	1496.2705	7694.65	6790
889.8759	1498.0785	7665.95	6763
890.019	1499.8858	7625	6722.7
890.1622	1501.6924	7603.25	6699.15
890.3053	1503.4981	7560.25	6656.65
890.4484	1505.3032	7544.85	6640.05
890.5914	1507.1075	7502.55	6599.35
890.7345	1508.911	7469.35	6565.05
890.8776	1510.7138	7422.6	6516.25
891.0206	1512.5159	7375.4	6468.45
891.1637	1514.3172	7345.9	6441.5
891.3067	1516.1178	7290.8	6387.95
891.4497	1517.9176	7250.95	6345.35
891.5927	1519.7166	7218.2	6316.35
891.7357	1521.515	7222.45	6312.5
891.8786	1523.3126	7170.8	6267.4
892.0216	1525.1094	7158.9	6253.95
892.1645	1526.9055	7127.65	6223.7
892.3074	1528.7008	7105.7	6204.5
892.4503	1530.4954	7062.45	6158.25
892.5932	1532.2893	7055.5	6154.95
892.7361	1534.0824	7045.35	6138.95
892.879	1535.8747	7022.5	6122.9
893.0218	1537.6663	7006.85	6105.75
893.1647	1539.4572	6990.2	6087.95
893.3075	1541.2473	6997.7	6097.75
893.4503	1543.0367	6979.3	6077.85
893.5931	1544.8253	6975.9	6069.15
893.7359	1546.6132	6995.35	6090.45
893.8787	1548.4003	6982.75	6070.65
894.0214	1550.1867	7033.6	6126.5
894.1642	1551.9723	7057.05	6152.35
894.3069	1553.7572	7100.35	6201
894.4496	1555.5414	7148.35	6248
894.5923	1557.3247	7232.25	6332.9
894.735	1559.1074	7284.15	6387.7
894.8777	1560.8893	7418.9	6521.6
895.0204	1562.6705	7518.3	6618.15
895.163	1564.4509	7578.45	6682.15
895.3056	1566.2305	7650.8	6756.7
895.4482	1568.0094	7715.2	6819.55
895.5908	1569.7876	7744.95	6848.75
895.7334	1571.565	7740.45	6842.15
895.876	1573.3417	7751.7	6852.55
896.0186	1575.1176	7732.4	6835.65
896.1611	1576.8928	7686.3	6791.95
896.3036	1578.6672	7617.8	6725.6
896.4461	1580.4409	7550.2	6657.35
896.5886	1582.2138	7469.9	6573.7
896.7311	1583.986	7409.6	6513.3
896.8736	1585.7575	7363.75	6469.6
897.0161	1587.5282	7286.2	6393.8
897.1585	1589.2981	7303.4	6410.45
897.3009	1591.0673	7324.25	6431.35
897.4433	1592.8358	7348	6454.55
897.5857	1594.6035	7371	6475.1
897.7281	1596.3704	7402.95	6504.25
897.8705	1598.1366	7466.5	6571.7
898.0128	1599.9021	7529.35	6634.05
898.1551	1601.6668	7578.55	6684.1
898.2975	1603.4308	7668.8	6773.5
898.4398	1605.194	7804.7	6904.7
898.5821	1606.9564	7947.65	7057.2
898.7243	1608.7182	8107.4	7215.5
898.8666	1610.4791	8277.8	7391.1
899.0088	1612.2394	8468.45	7580.75
899.1511	1613.9988	8700.6	7811.45
899.2933	1615.7576	8917.35	8025.65
899.4355	1617.5156	9121.25	8219.25
899.5776	1619.2728	9280.95	8383.7
899.7198	1621.0293	9367.05	8472.2
899.862	1622.785	9359.1	8463.1
900.0041	1624.54	9224.15	8332.45
900.1462	1626.2942	9038.85	8147.95
900.2883	1628.0477	8769.2	7874.55
900.4304	1629.8005	8537.65	7643.15
900.5725	1631.5525	8312.85	7420.65
900.7145	1633.3037	8091.7	7200.6
900.8566	1635.0542	7952.5	7060.5
900.9986	1636.804	7842.15	6948.55
901.1406	1638.553	7831.35	6877.7
901.2826	1640.3013	7765.55	6875.3
901.4245	1642.0488	7719.25	6827.3
901.5665	1643.7955	7755.8	6869.5
901.7085	1645.5416	7826.7	6937.45
901.8504	1647.2868	7904.9	7016.8
901.9923	1649.0313	8029.15	7139.25
902.1342	1650.7751	8172.15	7277.55
902.2761	1652.5181	8319.7	7430.95
902.4179	1654.2604	8522.85	7632.5
902.5598	1656.0019	8788.35	7900.05
902.7016	1657.7427	9088.2	8200.05
902.8434	1659.4828	9345.8	8456
902.9852	1661.222	9530.8	8639.85
903.127	1662.9606	9505.5	8611.4
903.2687	1664.6984	9299.25	8406
903.4105	1666.4354	8892.2	7997.95
903.5522	1668.1717	8377.65	7485.3
903.6939	1669.9072	7848	6954.25
903.8356	1671.642	7408.85	6514.6
903.9773	1673.3761	7046.35	6155.35
904.119	1675.1094	6743.35	5850.7
904.2606	1676.8419	6518.4	5625.45
904.4022	1678.5737	6356.55	5468.15
904.5439	1680.3048	6207.9	5315.6
904.6855	1682.0351	6101.15	5210.6
904.827	1683.7646	6016.85	5121.2
904.9686	1685.4934	5938.85	5047.6
905.1101	1687.2215	5862.95	4970.85
905.2517	1688.9488	5801.3	4911.45
905.3932	1690.6754	5761.35	4869.6
905.5347	1692.4012	5735.9	4846.6
905.6761	1694.1263	5705.65	4815.2
905.8176	1695.8506	5656.65	4766.15
905.9591	1697.5742	5612.05	4721.15
906.1005	1699.297	5570.5	4681.9
906.2419	1701.0191	5524.05	4634.5
906.3833	1702.7404	5521.4	4635.35
906.5246	1704.461	5470.8	4579.25
906.666	1706.1808	5471.3	4581.5
906.8073	1707.8999	5428.15	4541.55
906.9487	1709.6182	5404.65	4519.25
907.09	1711.3358	5373.55	4487.45
907.2313	1713.0527	5342.85	4458.55
907.3725	1714.7688	5325.4	4431.8
907.5138	1716.4841	5289.7	4401.2
907.655	1718.1987	5293.1	4398.75
907.7962	1719.9126	5257.15	4372.15
907.9374	1721.6257	5243.25	4356.75
908.0786	1723.338	5219.05	4333.7
908.2198	1725.0496	5195.15	4309.65
908.3609	1726.7605	5192.3	4304.95
908.502	1728.4706	5179.6	4289.95
908.6431	1730.18	5142.15	4254.1
908.7842	1731.8886	5120.6	4237
908.9253	1733.5964	5134.95	4228.7
909.0664	1735.3036	5113.65	4224.1
909.2074	1737.0099	5083.35	4197.3
909.3484	1738.7156	5051.95	4171.05
909.4894	1740.4204	5022.9	4136.1
909.6304	1742.1246	5020.95	4130.85
909.7714	1743.8279	5020.6	4133.5
909.9123	1745.5306	4987.95	4101.1
910.0532	1747.2325	4970.9	4086.55
910.1941	1748.9336	4950.3	4065.9
910.335	1750.634	4933.6	4046.8
910.4759	1752.3336	4908.55	4024.6
910.6168	1754.0325	4894.5	4012.6
910.7576	1755.7307	4897.9	4012.5
910.8984	1757.4281	4909.4	4022.7
911.0392	1759.1247	4908.5	4012.65
911.18	1760.8206	4882.75	3992.35
911.3208	1762.5158	4882.9	3991.55
911.4615	1764.2102	4855.15	3969.4
911.6022	1765.9039	4819.7	3932.1
911.7429	1767.5968	4808	3922.95
911.8836	1769.289	4787.85	3905.55
912.0243	1770.9804	4784.75	3897.35
912.1649	1772.6711	4787.2	3901.15
912.3056	1774.361	4767.15	3879.6
912.4462	1776.0502	4760.95	3871.95
912.5868	1777.7386	4742.45	3852.3
912.7274	1779.4263	4734.7	3849.25
912.8679	1781.1132	4737.05	3854.55
913.0084	1782.7994	4724.35	3838.85
913.149	1784.4849	4683.7	3801.25
913.2895	1786.1696	4696.3	3802.85
913.4299	1787.8535	4686.9	3803.9
913.5704	1789.5367	4676.4	3793.25
913.7108	1791.2192	4663.9	3781.55
913.8513	1792.9009	4676.35	3762.55
913.9917	1794.5818	4641.9	3756.85
914.132	1796.2621	4626.6	3741.15
914.2724	1797.9415	4614.1	3728.25
914.4128	1799.6202	4610.95	3726.3
914.5531	1801.2982	4600.95	3715.25
914.6934	1802.9755	4598.75	3713.8
914.8337	1804.6519	4586.55	3700.6
914.9739	1806.3277	4558.5	3674.8
915.1142	1808.0027	4545.65	3664.3
915.2544	1809.6769	4545.55	3662.2
915.3946	1811.3504	4523.45	3639.15
915.5348	1813.0231	4520.9	3636.9
915.675	1814.6951	4523.3	3640.4
915.8151	1816.3664	4524.3	3639.65
915.9553	1818.0369	4499.1	3615.1
916.0954	1819.7067	4483.75	3600.05
916.2355	1821.3757	4493.85	3605.7
916.3755	1823.044	4487.55	3602.85
916.5156	1824.7115	4473.5	3586.5
916.6556	1826.3783	4464.35	3579.15
916.7956	1828.0443	4453	3567.5
916.9356	1829.7096	4437	3551.25
917.0756	1831.3741	4431.9	3542.65
917.2155	1833.0379	4436.45	3555.45
917.3555	1834.701	4413.2	3527.1
917.4954	1836.3633	4398.7	3514.2
917.6353	1838.0248	4396.4	3512.7
917.7751	1839.6856	4389.25	3504.4
917.915	1841.3457	4386.95	3504.75
918.0548	1843.005	4385.5	3498.75
918.1946	1844.6636	4369.5	3484.9
918.3344	1846.3214	4353.95	3469.35
918.4742	1847.9785	4369.75	3486.7
918.6139	1849.6349	4346.4	3459.5
918.7537	1851.2904	4342.05	3447.35
918.8934	1852.9453	4327.95	3443.45
919.0331	1854.5994	4325.15	3435.8
919.1727	1856.2528	4335.15	3445.4
919.3124	1857.9054	4319.6	3435.4
919.452	1859.5572	4311.8	3426.65
919.5916	1861.2083	4289.45	3400.9
919.7312	1862.8587	4285.8	3399.95
919.8708	1864.5084	4272.7	3386.05
920.0103	1866.1572	4266.55	3382.1
920.1498	1867.8054	4263.45	3376.95
920.2893	1869.4528	4241	3356.35
920.4288	1871.0994	4243.1	3358.3
920.5683	1872.7453	4239.25	3353.35
920.7077	1874.3905	4227.6	3324.95
920.8471	1876.0349	4206.75	3321.6
920.9865	1877.6786	4195.95	3308.05
921.1259	1879.3215	4199	3314.4
921.2653	1880.9637	4196.2	3308.8
921.4046	1882.6051	4179.2	3296.7
921.5439	1884.2458	4180.85	3294.8
921.6832	1885.8858	4150	3265.75
921.8225	1887.525	4158.45	3271.25
921.9617	1889.1634	4147.3	3260.05
922.101	1890.8011	4137.3	3252.35
922.2402	1892.4381	4125.1	3241.9
922.3794	1894.0743	4123.8	3238.1
922.5185	1895.7098	4102.6	3217.35
922.6577	1897.3446	4099.55	3214.95
922.7968	1898.9786	4101.6	3213.85
922.9359	1900.6118	4075	3190.2
923.075	1902.2443	4058.45	3173.45
923.214	1903.8761	4057.05	3172.9
923.3531	1905.5071	4051.15	3164.15
923.4921	1907.1374	4039.7	3152.55
923.6311	1908.7669	4032.35	3149.15
923.77	1910.3957	4030.7	3145.9
923.909	1912.0237	4007	3120.85
924.0479	1913.651	4006.95	3120
924.1868	1915.2776	3989.35	3107.05
924.3257	1916.9034	3956.6	3074.6
924.4646	1918.5285	3963.75	3082.15
924.6034	1920.1528	3956	3071
924.7422	1921.7764	3950.8	3067.5
924.881	1923.3992	3933.6	3049.65
925.0198	1925.0213	3908	3024.05
925.1586	1926.6427	3901.05	3018.35
925.2973	1928.2633	4060.35	2969.4
925.436	1929.8832	3915.6	3028.05
925.5747	1931.5023	3890	3003.55
925.7134	1933.1207	3862.2	2977.95
925.852	1934.7383	3851.2	2964.95
925.9906	1936.3552	3845.95	2962.95
926.1292	1937.9714	3845.45	2961.15
926.2678	1939.5868	3817.5	2931.55
926.4064	1941.2015	3802.65	2916.35
926.5449	1942.8154	3811.75	2927.1
926.6834	1944.4286	3785.1	2898.9
926.8219	1946.041	3793.5	2888.9
926.9604	1947.6528	3763.7	2873.15
927.0988	1949.2637	3760	2877.45
927.2372	1950.8739	3756.35	2871.15
927.3756	1952.4834	3739.95	2857.7
927.514	1954.0921	3730.5	2848.1
927.6523	1955.7001	3715	2827.3
927.7907	1957.3074	3718.35	2835.9
927.929	1958.9139	3697.55	2814.85
928.0673	1960.5197	3696.55	2812.6
928.2055	1962.1247	3687.75	2806.05
928.3438	1963.729	3663.45	2779.7
928.482	1965.3325	3661.85	2774.6
928.6202	1966.9353	3641.9	2760.85
928.7584	1968.5374	3633.35	2747.9
928.8965	1970.1387	3628	2745.05
929.0346	1971.7393	3609.75	2725.6
929.1727	1973.3392	3604.85	2722.15
929.3108	1974.9383	3587.35	2704.65
929.4489	1976.5366	3577.3	2698
929.5869	1978.1342	3573.05	2692.7
929.7249	1979.7311	3566.55	2684.4
929.8629	1981.3273	3557.75	2677.3
930.0009	1982.9227	3557.05	2674.65
930.1388	1984.5173	3555.1	2675.55
930.2767	1986.1112	3542.6	2661.1
930.4146	1987.7044	3521.95	2640.6
930.5525	1989.2968	3521.85	2640.45
930.6904	1990.8885	3518.6	2636.35
930.8282	1992.4795	3500.55	2618.75
930.966	1994.0697	3499.8	2621.2
931.1038	1995.6592	3482.15	2602.6
931.2415	1997.2479	3478.2	2598.75
931.3793	1998.8359	3478.15	2597.25
931.517	2000.4232	3464.5	2587.05
931.6547	2002.0097	3440.4	2561.45
931.7923	2003.5955	3439.5	2559.55
931.93	2005.1805	3448	2566.35
932.0676	2006.7648	3423.7	2546.75
932.2052	2008.3484	3414.4	2535.15
932.3427	2009.9312	3408.25	2528.8
932.4803	2011.5133	3397.45	2519.75
932.6178	2013.0946	3385.6	2508.1
932.7553	2014.6752	3384.4	2507.3
932.8928	2016.2551	3374.45	2493.5
933.0302	2017.8342	3381.55	2503.05
933.1676	2019.4126	3358.95	2480.35
933.305	2020.9902	3349.7	2474.9
933.4424	2022.5672	3355.35	2476.8
933.5798	2024.1433	3349.05	2466
933.7171	2025.7188	3339	2462.75
933.8544	2027.2935	3334.6	2456.5
933.9917	2028.8674	3318	2439.7
934.129	2030.4406	3305.9	2430
934.2662	2032.0131	3296.2	2419.7
934.4034	2033.5849	3299.85	2419.25
934.5406	2035.1559	3298.1	2419.15
934.6778	2036.7261	3273.5	2393.35
934.8149	2038.2957	3282.7	2401.7
934.952	2039.8645	3277.55	2395
935.0891	2041.4325	3277.15	2392.8
935.2262	2042.9998	3266	2386.95
935.3632	2044.5664	3250.55	2370.15
935.5002	2046.1323	3240.1	2363.75
935.6372	2047.6974	3233.15	2354.45
935.7742	2049.2617	3232	2355.9
935.9111	2050.8254	3249.7	2337.1
936.048	2052.3883	3243.8	2363.7
936.1849	2053.9504	3222.95	2343.85
936.3218	2055.5118	3209.5	2329.1
936.4586	2057.0725	3202.4	2321
936.5955	2058.6325	3199.8	2321.85
936.7323	2060.1917	3184.6	2304.75
936.869	2061.7502	3168.35	2288.65
937.0058	2063.3079	3162.95	2285.7
937.1425	2064.8649	3160.6	2281.05
937.2792	2066.4212	3165	2284.7
937.4159	2067.9767	3159.9	2280.25
937.5525	2069.5315	3143.2	2262.1
937.6891	2071.0856	3132	2252.75
937.8257	2072.6389	3128.15	2246.3
937.9623	2074.1915	3114.35	2238.4
938.0989	2075.7433	3104.75	2224.7
938.2354	2077.2945	3099.05	2220.75
938.3719	2078.8448	3087.45	2208.95
938.5084	2080.3945	3083.1	2204.2
938.6448	2081.9434	3086.9	2208.1
938.7812	2083.4916	3079.15	2197.2
938.9176	2085.039	3070.7	2188.2
939.054	2086.5857	3075.75	2192.7
939.1903	2088.1317	3068.8	2185.1
939.3267	2089.677	3064.1	2178.3
939.463	2091.2215	3044.35	2161
939.5992	2092.7652	3051.6	2167.8
939.7355	2094.3083	3029.45	2146.2
939.8717	2095.8506	3022.95	2142
940.0079	2097.3921	3022.3	2142.45
940.1441	2098.933	3018.1	2136.8
940.2802	2100.4731	3020.45	2139.75
940.4163	2102.0124	3029.85	2139.8
940.5524	2103.5511	3019.15	2137.1
940.6885	2105.089	3009.4	2128.05
940.8245	2106.6261	2997.7	2115.55
940.9606	2108.1626	2986.9	2105.05
941.0965	2109.6983	3021.9	2109.45
941.2325	2111.2332	2994	2111.05
941.3684	2112.7675	2983.55	2099.2
941.5044	2114.301	2967.05	2083.35
941.6403	2115.8337	2966.8	2084.25
941.7761	2117.3657	2960.7	2078.35
941.912	2118.897	2957.15	2075.25
942.0478	2120.4276	2953.85	2065.85
942.1835	2121.9575	2930	2048.6
942.3193	2123.4866	2940.95	2057.2
942.455	2125.0149	2937.85	2050.85
942.5907	2126.5426	2909.65	2029.55
942.7264	2128.0695	2914.1	2031.8
942.8621	2129.5956	2901.75	2022.6
942.9977	2131.1211	2906.3	2022.4
943.1333	2132.6458	2888.55	2008.1
943.2689	2134.1698	2900.65	2015.6
943.4044	2135.693	2884.8	2001
943.54	2137.2155	2874.95	1989.55
943.6755	2138.7373	2873.2	1992.4
943.8109	2140.2584	2868.75	1988.7
943.9464	2141.7787	2872.65	1987.25
944.0818	2143.2983	2852.35	1975.1
944.2172	2144.8171	2837	1960.5
944.3526	2146.3353	2848.2	1964.85
944.4879	2147.8527	2826.8	1946.65
944.6232	2149.3693	2842.4	1961
944.7585	2150.8853	2834.75	1951.75
944.8938	2152.4005	2823.7	1940.2
945.029	2153.9149	2815.15	1931.95
945.1642	2155.4287	2807.85	1924.6
945.2994	2156.9417	2805.85	1922.7
945.4346	2158.454	2803.55	1920.85
945.5697	2159.9655	2791.35	1911.05
945.7048	2161.4764	2787.95	1907.15
945.8399	2162.9865	2769.95	1890.1
945.9749	2164.4958	2781.25	1898.55
946.1099	2166.0045	2776.7	1894.05
946.2449	2167.5124	2768.1	1887.6
946.3799	2169.0195	2772.4	1890.15
946.5148	2170.526	2762.85	1878.85
946.6498	2172.0317	2753.5	1870.85
946.7846	2173.5367	2746.4	1863.7
946.9195	2175.0409	2746.35	1866.05
947.0543	2176.5445	2751.05	1868.3
947.1891	2178.0473	2731.2	1847.5
947.3239	2179.5494	2737.05	1850.15
947.4587	2181.0507	2733.15	1849.85
947.5934	2182.5513	2729.1	1845.85
947.7281	2184.0512	2718.95	1837
947.8628	2185.5504	2706.4	1826.55
947.9974	2187.0488	2707.8	1826.7
948.132	2188.5465	2690.8	1811.05
948.2666	2190.0435	2701.6	1818.45
948.4012	2191.5397	2678.65	1794.5
948.5357	2193.0353	2678	1797.3
948.6702	2194.5301	2669.95	1787.7
948.8047	2196.0241	2673.3	1788.4
948.9392	2197.5175	2657.25	1771.25
949.0736	2199.0101	2650.05	1761.85
949.208	2200.502	2652.85	1770.1
949.3424	2201.9931	2633.45	1750.85
949.4767	2203.4835	2625.8	1744.25
949.611	2204.9733	2622.4	1733.8
949.7453	2206.4622	2619.3	1738.1
949.8796	2207.9505	2617.15	1735.75
950.0138	2209.438	2608.45	1728.5
950.148	2210.9248	2601.55	1721.65
950.2822	2212.4109	2586.8	1705.4
950.4164	2213.8962	2589.05	1703.25
950.5505	2215.3809	2585.3	1699.75
950.6846	2216.8648	2597.85	1710.95
950.8186	2218.3479	2588.55	1697.65
950.9527	2219.8304	2567.45	1680.2
951.0867	2221.3121	2566.55	1679.05
951.2207	2222.7931	2548.2	1665.95
951.3546	2224.2733	2563.65	1679.35
951.4886	2225.7529	2541.95	1657.3
951.6225	2227.2317	2539.3	1655.55
951.7563	2228.7098	2536.3	1655.8
951.8902	2230.1872	2525.7	1644.35
952.024	2231.6638	2528.9	1646.95
952.1578	2233.1397	2517.1	1631.85
952.2916	2234.6149	2512.65	1630.75
952.4253	2236.0894	2512.2	1629.95
952.559	2237.5632	2514.5	1625.2
952.6927	2239.0362	2489.8	1606.6
952.8263	2240.5085	2499.6	1616.8
952.9599	2241.9801	2492	1608.8
953.0935	2243.4509	2482.65	1600.4
953.2271	2244.921	2485.75	1601.8
953.3606	2246.3904	2474.8	1588.45
953.4941	2247.8591	2457.45	1572.7
953.6276	2249.3271	2461.95	1578.6
953.7611	2250.7943	2456.6	1571.85
953.8945	2252.2608	2452.5	1569.7
954.0279	2253.7266	2443.7	1561.25
954.1612	2255.1917	2440.7	1557.85
954.2946	2256.656	2425.15	1542.05
954.4279	2258.1197	2423.65	1541.35
954.5612	2259.5826	2415.25	1530.8
954.6944	2261.0447	2421.3	1538.35
954.8276	2262.5062	2420.55	1534.9
954.9608	2263.9669	2415.9	1528.8
955.094	2265.4269	2409.05	1527.2
955.2271	2266.8862	2408.75	1525.9
955.3602	2268.3448	2383.35	1500.75
955.4933	2269.8026	2398.9	1516.95
955.6264	2271.2598	2396.05	1516.05
955.7594	2272.7162	2382.15	1500
955.8924	2274.1719	2391.1	1506.9
956.0253	2275.6268	2392.4	1507.8
956.1583	2277.0811	2385.1	1499.9
956.2912	2278.5346	2368.1	1486.3
956.4241	2279.9874	2362	1480.5
956.5569	2281.4395	2363	1482.2
956.6897	2282.8908	2357.4	1470.8
956.8225	2284.3414	2357.65	1472.3
956.9553	2285.7914	2358.55	1475.35
957.088	2287.2406	2343.25	1457.6
957.2207	2288.689	2350.65	1465.9
957.3534	2290.1368	2350.55	1465.45
957.486	2291.5838	2342.3	1452.65
957.6186	2293.0302	2336.1	1448.25
957.7512	2294.4758	2330.75	1443.05
957.8838	2295.9206	2328.5	1442.35
958.0163	2297.3648	2319.6	1438.1
958.1488	2298.8082	2321.1	1435.7
958.2813	2300.251	2324.3	1441.45
958.4137	2301.693	2306.6	1419.65
958.5461	2303.1343	2308	1423.7
958.6785	2304.5748	2310.6	1426.55
958.8108	2306.0147	2296.25	1414.05
958.9432	2307.4538	2297.7	1413.65
959.0754	2308.8922	2289.35	1410.75
959.2077	2310.3299	2279.7	1397.95
959.3399	2311.7669	2270.55	1390.7
959.4721	2313.2031	2268.55	1386.2
959.6043	2314.6387	2267.4	1381.55
959.7365	2316.0735	2265.6	1380.25
959.8686	2317.5076	2259.95	1374.8
960.0006	2318.941	2249.4	1365.2
960.1327	2320.3737	2255.7	1369.95
960.2647	2321.8056	2244.45	1357.3
960.3967	2323.2369	2251.9	1365.55
960.5287	2324.6674	2241.5	1356.25
960.6606	2326.0972	2234.9	1347.05
960.7925	2327.5263	2231.7	1348.45
960.9244	2328.9547	2235.7	1351.3
961.0562	2330.3823	2225.55	1340.8
961.1881	2331.8092	2228.25	1340.45
961.3198	2333.2355	2228.1	1343.55
961.4516	2334.661	2218.15	1331.4
961.5833	2336.0858	2208.65	1321.3
961.715	2337.5098	2221.1	1336.75
961.8467	2338.9332	2209.4	1325.4
961.9783	2340.3558	2202.6	1315.15
962.1099	2341.7778	2195.8	1313
962.2415	2343.199	2198.9	1313.55
962.373	2344.6195	2196.4	1314
962.5045	2346.0393	2191.5	1308.4
962.636	2347.4583	2194.95	1312.8
962.7675	2348.8767	2185.4	1298.4
962.8989	2350.2943	2185.3	1301
963.0303	2351.7113	2181.5	1294.7
963.1617	2353.1275	2176.7	1291.75
963.293	2354.543	2174.2	1279.65
963.4243	2355.9578	2180.9	1295.85
963.5556	2357.3718	2162.75	1280.55
963.6868	2358.7852	2157.35	1272.7
963.818	2360.1978	2154.65	1273.05
963.9492	2361.6098	2151	1267.35
964.0803	2363.021	2149.05	1261.85
964.2114	2364.4315	2143.55	1262.15
964.3425	2365.8413	2133.9	1250.5
964.4736	2367.2504	2135.75	1255.3
964.6046	2368.6587	2121.45	1238.9
964.7356	2370.0664	2123.5	1240.9
964.8666	2371.4733	2120.15	1236.85
964.9975	2372.8795	2112.6	1228.6
965.1284	2374.285	2104.65	1220.9
965.2593	2375.6899	2098.25	1215.45
965.3901	2377.0939	2087.15	1205.35
965.5209	2378.4973	2081.65	1201.5
965.6517	2379.9	2083.7	1201.05
965.7825	2381.3019	2088.45	1207.1
965.9132	2382.7032	2082.65	1202.25
966.0439	2384.1037	2069.85	1190.35
966.1745	2385.5035	2076.35	1196.35
966.3051	2386.9027	2062.55	1183.45
966.4357	2388.3011	2071.5	1186.75
966.5663	2389.6987	2062.45	1181.55
966.6968	2391.0957	2058.35	1179
966.8273	2392.492	2056.05	1177.2
966.9578	2393.8876	2043.45	1162.25
967.0882	2395.2824	2029.6	1149.75
967.2186	2396.6765	2042.15	1163.5
967.349	2398.07	2030.85	1149.5
967.4793	2399.4627	2033.9	1151.05
967.6097	2400.8547	2023.8	1142.3
967.7399	2402.246	2037.6	1148.1
967.8702	2403.6366	2020.1	1140.7
968.0004	2405.0265	2023.65	1141.3
968.1306	2406.4156	2012.85	1127.85
968.2607	2407.8041	2006.45	1122.15
968.3909	2409.1918	2011.8	1129.3
968.521	2410.5789	2006	1124.5
968.651	2411.9652	1997.05	1111.95
968.781	2413.3508	1996.1	1115.85
968.911	2414.7358	1997.8	1114.3
969.041	2416.12	1986.05	1104.8
969.1709	2417.5035	1976.9	1097
969.3008	2418.8863	1984.25	1101.65
969.4307	2420.2684	1978.1	1097.35
969.5606	2421.6497	1975.45	1091.6
969.6904	2423.0304	1964.45	1083.25
969.8201	2424.4104	1963.2	1082.25
969.9499	2425.7896	1966.9	1081.05
970.0796	2427.1682	1957.65	1076
970.2093	2428.546	1956.45	1074
970.3389	2429.9232	1960.9	1077.65
970.4685	2431.2996	1950.75	1068
970.5981	2432.6753	1952.55	1070.7
970.7277	2434.0503	1947.9	1067.1
970.8572	2435.4246	1944.5	1064.65
970.9867	2436.7982	1938.7	1056.75
971.1161	2438.1711	1931.45	1051.2
971.2456	2439.5433	1930.3	1048.3
971.375	2440.9148	1937.9	1049.9
971.5043	2442.2856	1918.65	1039
971.6336	2443.6557	1924.1	1041.05
971.7629	2445.025	1913.05	1031.4
971.8922	2446.3937	1922.2	1041.05
972.0214	2447.7617	1917.4	1035.9
972.1506	2449.1289	1909.95	1027
972.2798	2450.4955	1900.2	1014.05
972.4089	2451.8613	1905.95	1026.9
972.538	2453.2265	1895.15	1012.35
972.6671	2454.5909	1900.2	1017.15
972.7961	2455.9546	1891.5	1010.95
972.9251	2457.3177	1887.15	1005.1
973.0541	2458.68	1889.35	1007.1
973.1831	2460.0416	1889	1008.35
973.312	2461.4025	1891.35	1006.15
973.4408	2462.7627	1891	1000.1
973.5697	2464.1222	1877.9	996.3
973.6985	2465.4811	1887.6	1004.85
973.8273	2466.8392	1879.3	998.3
973.956	2468.1966	1867.6	984.35
974.0847	2469.5533	1875.65	989.85
974.2134	2470.9093	1867.85	985.5
974.3421	2472.2645	1873.2	987.85
974.4707	2473.6191	1864.35	983.35
974.5993	2474.973	1864.15	981.55
974.7278	2476.3262	1862.15	978.4
974.8563	2477.6787	1848.35	970.25
974.9848	2479.0305	1845.7	963.8
975.1132	2480.3816	1846	962.45
975.2417	2481.7319	1847.35	964.5
975.37	2483.0816	1834.8	954.05
975.4984	2484.4306	1842.4	960.35
975.6267	2485.7789	1833.35	951
975.755	2487.1264	1830.5	948.1
975.8833	2488.4733	1826.15	945.2
976.0115	2489.8195	1837.25	936.5
976.1397	2491.165	1823.55	938.6
976.2678	2492.5097	1822.75	939.25
976.3959	2493.8538	1811.95	931.3
976.524	2495.1972	1809.2	926.95
976.6521	2496.5398	1805.55	920.4
976.7801	2497.8818	1803.35	919.45
976.9081	2499.2231	1797.45	913.05
977.036	2500.5637	1804.95	921.4
977.164	2501.9035	1799.55	917.3
977.2918	2503.2427	1800.8	912.85
977.4197	2504.5812	1793.85	912.1
977.5475	2505.919	1796.15	910.15
977.6753	2507.256	1779	896.5
977.8031	2508.5924	1785.75	904
977.9308	2509.9281	1783	896
978.0585	2511.2631	1783.8	901.45
978.1861	2512.5974	1781.55	901.2
978.3137	2513.9309	1773.85	889.75
978.4413	2515.2638	1786.5	876.75
978.5689	2516.596	1775.3	894.35
978.6964	2517.9275	1760.6	877.6
978.8239	2519.2583	1763.5	879.1
978.9513	2520.5884	1756.15	873.7
979.0788	2521.9178	1767.1	883
979.2062	2523.2465	1755.05	873.5
979.3335	2524.5745	1748.25	869.6
979.4608	2525.9018	1747.45	864.75
979.5881	2527.2284	1748.95	868
979.7154	2528.5543	1742.2	860.6
979.8426	2529.8796	1741.75	858.85
979.9698	2531.2041	1748.65	867.2
980.0969	2532.5279	1745	865.05
980.224	2533.851	1741.75	860.55
980.3511	2535.1735	1744.85	865.05
980.4781	2536.4952	1737.75	857.15
980.6052	2537.8163	1738.65	857.3
980.7321	2539.1366	1736.05	852.9
980.8591	2540.4562	1736.45	853.2
980.986	2541.7752	1721.5	841.25
981.1129	2543.0935	1722.75	838.85
981.2397	2544.411	1722.55	837.4
981.3665	2545.7279	1723.2	838.7
981.4933	2547.0441	1717.1	833.7
981.62	2548.3596	1718.55	833.25
981.7467	2549.6744	1715.05	833.55
981.8734	2550.9885	1719.85	834.95
982.0001	2552.3019	1715.15	833.35
982.1267	2553.6146	1709.2	828.45
982.2532	2554.9266	1699.7	817.05
982.3798	2556.2379	1713	829.25
982.5063	2557.5485	1701.4	818.4
982.6327	2558.8585	1704.8	813.35
982.7592	2560.1677	1703.45	813.85
982.8856	2561.4762	1695.95	813.05
983.0119	2562.7841	1700.3	815.6
983.1383	2564.0913	1693.05	812.05
983.2646	2565.3977	1692.05	809
983.3908	2566.7035	1693.05	813.35
983.517	2568.0086	1690.05	804.6
983.6432	2569.313	1679.35	797.6
983.7694	2570.6167	1680.95	793.55
983.8955	2571.9197	1675.25	792.85
984.0216	2573.222	1684.8	796.95
984.1476	2574.5236	1684.75	802
984.2737	2575.8246	1672.6	784.65
984.3996	2577.1248	1682.65	796.3
984.5256	2578.4244	1680.4	799.05
984.6515	2579.7232	1680	797.05
984.7774	2581.0214	1701.25	793.8
984.9032	2582.3189	1677.75	796.55
985.029	2583.6157	1676.85	790.95
985.1548	2584.9118	1674.9	791.25
985.2806	2586.2072	1685	802.45
985.4063	2587.5019	1674	790.85
985.5319	2588.7959	1669.3	786.35
985.6576	2590.0893	1675.9	789.65
985.7832	2591.3819	1672	790.9
985.9087	2592.6739	1673.25	790.2
986.0343	2593.9652	1670.95	786.6
986.1597	2595.2557	1671.45	789.65
986.2852	2596.5456	1672.15	785.95
986.4106	2597.8348	1666.65	785.6
986.536	2599.1234	1667.6	786.2
986.6614	2600.4112	1666.6	782.8
986.7867	2601.6983	1671.35	787.8
986.912	2602.9848	1663.95	779.85
987.0372	2604.2705	1666.3	776.5
987.1624	2605.5556	1654.4	770.6
987.2876	2606.84	1660.8	779.5
987.4128	2608.1237	1654.5	769.5
987.5379	2609.4067	1657.6	773.1
987.6629	2610.689	1658.85	767
987.788	2611.9707	1652.9	766.45
987.913	2613.2516	1647.55	759.25
988.0379	2614.5319	1638.85	755.65
988.1629	2615.8115	1642	758.95
988.2878	2617.0903	1636.2	751.25
988.4126	2618.3685	1639.15	757.8
988.5375	2619.6461	1634.45	750.85
988.6622	2620.9229	1634.7	750.55
988.787	2622.199	1627.4	744.5
988.9117	2623.4745	1626.35	745
989.0364	2624.7493	1631.2	748.65
989.161	2626.0234	1623.1	742
989.2857	2627.2968	1627	744.55
989.4102	2628.5695	1623.6	740.4
989.5348	2629.8415	1624.5	741.7
989.6593	2631.1128	1619.05	735.5
989.7837	2632.3835	1626	743.15
989.9082	2633.6535	1624.1	741.35
990.0326	2634.9228	1622.45	742.9
990.1569	2636.1914	1610.35	726.55
990.2812	2637.4593	1618.15	734.75
990.4055	2638.7265	1609.5	728
990.5298	2639.9931	1612.9	729.55
990.654	2641.259	1616.15	735.05
990.7782	2642.5242	1607.1	724.75
990.9023	2643.7887	1596.65	714.45
991.0264	2645.0525	1601.2	718.8
991.1505	2646.3156	1600.6	717.25
991.2745	2647.5781	1596.85	715.7
991.3985	2648.8398	1591.45	709.3
991.5225	2650.1009	1595.75	704.65
991.6464	2651.3613	1590.55	708.3
991.7703	2652.6211	1594.2	713.2
991.8942	2653.8801	1579.85	696.6
992.018	2655.1385	1587.15	703.9
992.1418	2656.3961	1584.35	702.3
992.2655	2657.6531	1576.3	693.25
992.3892	2658.9094	1580.7	699.3
992.5129	2660.1651	1579.25	696.8
992.6366	2661.42	1589.35	706.15
992.7602	2662.6743	1588.25	706.05
992.8837	2663.9279	1588.55	706.95
993.0073	2665.1808	1591.35	708.8
993.1307	2666.433	1589.8	705.7
993.2542	2667.6846	1585.35	704.35
993.3776	2668.9354	1590	704.75
993.501	2670.1856	1595.25	713.5
993.6244	2671.4351	1594.55	712.25
993.7477	2672.6839	1596.15	712.6
993.8709	2673.9321	1598.25	717.8
993.9942	2675.1795	1594	709.55
994.1174	2676.4263	1599.05	717.55
994.2405	2677.6724	1588.05	707.1
994.3637	2678.9179	1599	714.45
994.4868	2680.1626	1599.4	718.2
994.6098	2681.4067	1596.7	713.05
994.7328	2682.6501	1591.45	711.75
994.8558	2683.8928	1592.05	709.2
994.9788	2685.1348	1583.2	699.8
995.1017	2686.3761	1581.35	700.25
995.2245	2687.6168	1578.65	694.55
995.3474	2688.8568	1575.7	693
995.4702	2690.0961	1567.6	686.9
995.5929	2691.3348	1569.25	685.1
995.7156	2692.5727	1565.2	685.5
995.8383	2693.81	1561.35	679.95
995.961	2695.0466	1564	682.8
996.0836	2696.2826	1561.05	677.5
996.2062	2697.5178	1565.75	680.45
996.3287	2698.7524	1562.05	680.05
996.4512	2699.9863	1564.25	680.2
996.5737	2701.2195	1559.4	677.8
996.6961	2702.452	1562.6	679.4
996.8185	2703.6839	1570.25	686.95
996.9408	2704.9151	1573	690.4
997.0631	2706.1456	1578.75	695.95
997.1854	2707.3755	1583.15	702.35
997.3077	2708.6046	1593.9	709
997.4299	2709.8331	1589.15	706.85
997.552	2711.0609	1601.5	719.75
997.6742	2712.2881	1609.95	727.8
997.7963	2713.5145	1625.25	740.45
997.9183	2714.7403	1628.95	748.4
998.0403	2715.9654	1634.1	751.25
998.1623	2717.1899	1661.45	765.95
998.2842	2718.4136	1657.55	777.55
998.4062	2719.6367	1659.35	775.95
998.528	2720.8591	1677.7	790.95
998.6498	2722.0809	1684.65	800.9
998.7716	2723.3019	1693.9	809
998.8934	2724.5223	1700.45	819.55
999.0151	2725.7421	1713.45	827.75
999.1368	2726.9611	1708.7	823.55
999.2584	2728.1795	1707.8	821.1
999.38	2729.3972	1690.85	809.35
999.5016	2730.6142	1695.35	799.3
999.6231	2731.8306	1668.15	783.95
999.7446	2733.0462	1653.1	770.45
999.8661	2734.2612	1644.9	757.55
999.9875	2735.4756	1624.85	741.7
1000.1089	2736.6892	1600.7	718.9
1000.2302	2737.9022	1590.2	708.55
1000.3515	2739.1145	1573.4	692
1000.4728	2740.3262	1567.25	677.4
1000.594	2741.5372	1549.35	667.75
1000.7152	2742.7475	1540.9	661.75
1000.8363	2743.9571	1536.7	653.35
1000.9575	2745.1661	1526.6	640.25
1001.0785	2746.3744	1511.6	630.85
1001.1996	2747.582	1503.1	620.35
1001.3206	2748.7889	1502.65	619.15
1001.4415	2749.9952	1495.3	614.25
1001.5625	2751.2008	1490.65	608.05
1001.6833	2752.4057	1482.5	599.8
1001.8042	2753.61	1474.45	591.5
1001.925	2754.8136	1477.1	595.2
1002.0458	2756.0165	1468	588.25
1002.1665	2757.2188	1477.7	599.1
1002.2872	2758.4204	1474.45	594.3
1002.4078	2759.6213	1472.2	587.45
1002.5285	2760.8215	1478.25	593.65
1002.649	2762.0211	1471.75	589.45
1002.7696	2763.22	1466.8	581.35
1002.8901	2764.4182	1463.8	582.45
1003.0106	2765.6158	1462.2	579.3
1003.131	2766.8127	1454.65	573.1
1003.2514	2768.009	1456.45	575.65
1003.3717	2769.2045	1455.1	572.85
1003.492	2770.3994	1452.85	570.9
1003.6123	2771.5936	1447.1	564.3
1003.7325	2772.7872	1446.95	567.65
1003.8527	2773.9801	1437.6	554.95
1003.9729	2775.1723	1452.9	553.55
1004.093	2776.3639	1441.45	561.2
1004.2131	2777.5548	1444.65	563.75
1004.3331	2778.745	1434.2	552.35
1004.4531	2779.9346	1436	555.8
1004.5731	2781.1235	1446.95	563.1
1004.693	2782.3117	1440.45	560.9
1004.8129	2783.4992	1448.9	566.3
1004.9328	2784.6861	1449.5	568.4
1005.0526	2785.8723	1454.75	572.2
1005.1723	2787.0579	1463.8	581.45
1005.2921	2788.2428	1464.7	584.5
1005.4118	2789.427	1466.1	582.65
1005.5314	2790.6106	1480.95	600.6
1005.651	2791.7935	1489.95	611.3
1005.7706	2792.9757	1497.6	619.25
1005.8902	2794.1573	1509.5	626.7
1006.0097	2795.3382	1516.9	635.95
1006.1291	2796.5184	1524.85	646.65
1006.2485	2797.698	1536.4	652.7
1006.3679	2798.8769	1564	683.75
1006.4873	2800.0551	1569.05	690
1006.6066	2801.2327	1592.35	708
1006.7258	2802.4096	1599.8	716.65
1006.8451	2803.5859	1624.9	744.15
1006.9642	2804.7615	1640.1	758.9
1007.0834	2805.9364	1652.35	773.3
1007.2025	2807.1106	1692.8	810.8
1007.3216	2808.2842	1714.15	832.95
1007.4406	2809.4572	1748.85	866.15
1007.5596	2810.6294	1778.4	896.4
1007.6785	2811.801	1812.4	932.7
1007.7975	2812.972	1859.35	978.95
1007.9163	2814.1423	1901.65	1020.6
1008.0352	2815.3119	1941.15	1060.5
1008.154	2816.4808	1980.65	1099.6
1008.2727	2817.6491	2037.3	1155.95
1008.3914	2818.8167	2091.8	1212.45
1008.5101	2819.9837	2136.25	1250.95
1008.6288	2821.15	2188.7	1307.75
1008.7474	2822.3157	2232.45	1352.65
1008.8659	2823.4807	2281.8	1401.3
1008.9844	2824.645	2331.5	1450.9
1009.1029	2825.8086	2379.4	1499.75
1009.2214	2826.9716	2418.2	1538.7
1009.3398	2828.134	2463.95	1584.45
1009.4581	2829.2957	2497.95	1615.15
1009.5764	2830.4567	2528.4	1648.9
1009.6947	2831.617	2559.9	1678.6
1009.813	2832.7767	2569.95	1689.7
1009.9312	2833.9358	2571.05	1691
1010.0493	2835.0941	2576.8	1692.65
1010.1675	2836.2519	2563.55	1685.5
1010.2855	2837.4089	2548.65	1666.25
1010.4036	2838.5653	2536.5	1657.85
1010.5216	2839.7211	2539.2	1661.05
1010.6396	2840.8761	2534	1649.05
1010.7575	2842.0306	2561.8	1684.45
1010.8754	2843.1843	2589.25	1710.35
1010.9932	2844.3374	2635.75	1757.25
1011.111	2845.4899	2681.35	1799.95
1011.2288	2846.6417	2764.3	1884.55
1011.3465	2847.7928	2815.6	1935.6
1011.4642	2848.9433	2893.7	2012.95
1011.5818	2850.0931	2963.4	2083
1011.6995	2851.2422	3044.7	2162.4
1011.817	2852.3907	3092.55	2210.9
1011.9345	2853.5385	3169.75	2289.95
1012.052	2854.6857	3239.05	2331.7
1012.1695	2855.8323	3272.05	2394.45
1012.2869	2856.9781	3309.2	2429.7
1012.4042	2858.1233	3359.55	2478.75
1012.5216	2859.2679	3408.1	2525.85
1012.6389	2860.4118	3461.1	2580
1012.7561	2861.555	3501.3	2616.45
1012.8733	2862.6976	3535.7	2654.25
1012.9905	2863.8395	3571.5	2692.6
1013.1076	2864.9808	3584	2703.65
1013.2247	2866.1214	3597.25	2716.8
1013.3417	2867.2614	3636.25	2757.4
1013.4587	2868.4007	3640.55	2758.8
1013.5757	2869.5393	3655.05	2775.6
1013.6926	2870.6773	3666.45	2784
1013.8095	2871.8146	3692.2	2809.7
1013.9263	2872.9513	3672.05	2789.8
1014.0431	2874.0874	3685.1	2806.2
1014.1599	2875.2227	3668	2786.7
1014.2766	2876.3574	3641.4	2761.9
1014.3933	2877.4915	3628.7	2749.3
1014.51	2878.6249	3600.35	2720
1014.6266	2879.7577	3583.15	2700.5
1014.7431	2880.8898	3554.9	2663.6
1014.8596	2882.0212	3545.15	2666.25
1014.9761	2883.152	3531.85	2652.85
1015.0925	2884.2821	3518.7	2638.85
1015.2089	2885.4116	3514.35	2635.25
1015.3253	2886.5405	3520.3	2640.1
1015.4416	2887.6686	3519.2	2637.15
1015.5579	2888.7962	3517.4	2636.75
1015.6741	2889.923	3528.2	2648.55
1015.7903	2891.0493	3541.45	2664.65
1015.9065	2892.1748	3559.95	2678.7
1016.0226	2893.2997	3552.55	2669.95
1016.1387	2894.424	3572.65	2693.7
1016.2547	2895.5476	3581.75	2703.75
1016.3707	2896.6706	3610.65	2733.45
1016.4866	2897.7929	3636.95	2756.45
1016.6025	2898.9145	3685.65	2806.35
1016.7184	2900.0355	3703	2822.9
1016.8342	2901.1559	3731	2850.55
1016.95	2902.2756	3756.1	2876.95
1017.0658	2903.3946	3799.25	2918.65
1017.1815	2904.513	3817.9	2936.75
1017.2971	2905.6308	3843.95	2966.7
1017.4127	2906.7479	3873.7	2995.8
1017.5283	2907.8643	3901.4	3019.5
1017.6439	2908.9801	3911.6	3032.4
1017.7594	2910.0953	3910.85	3031.5
1017.8748	2911.2098	3920.35	3038.45
1017.9902	2912.3236	3916.3	3027.75
1018.1056	2913.4368	3910.9	3027.95
1018.2209	2914.5494	3883	3000.55
1018.3362	2915.6613	3857.85	2973.2
1018.4515	2916.7725	3829.55	2947.95
1018.5667	2917.8831	3794.2	2911.3
1018.6819	2918.9931	3761	2879.8
1018.797	2920.1024	3728.05	2846.85
1018.9121	2921.211	3714.3	2835.05
1019.0271	2922.319	3689.05	2809.75
1019.1421	2923.4264	3686.25	2807.05
1019.2571	2924.5331	3664.7	2787.25
1019.372	2925.6391	3656.05	2775.45
1019.4869	2926.7445	3671.75	2793.95
1019.6017	2927.8493	3659.1	2778.65
1019.7165	2928.9534	3648.35	2767.7
1019.8313	2930.0569	3648.4	2765.45
1019.946	2931.1597	3633.65	2753.1
1020.0606	2932.2619	3639.1	2760.6
1020.1753	2933.3634	3618.05	2740.9
1020.2899	2934.4643	3623.8	2738.1
1020.4044	2935.5645	3618.75	2733.4
1020.5189	2936.6641	3575.2	2691.4
1020.6334	2937.763	3516.7	2637.65
1020.7478	2938.8613	3496.3	2615.6
1020.8622	2939.959	3442.25	2556.75
1020.9765	2941.056	3360.05	2482.5
1021.0908	2942.1523	3286.85	2406.3
1021.2051	2943.248	3218.55	2339.5
1021.3193	2944.3431	3109.5	2231.4
1021.4334	2945.4375	3010.85	2131.85
1021.5476	2946.5313	2914.95	2036.85
1021.6617	2947.6244	2793.7	1911.8
1021.7757	2948.7169	2709.8	1827.8
1021.8897	2949.8087	2611.3	1733.2
1022.0037	2950.8999	2520.85	1641.2
1022.1176	2951.9904	2442.05	1563.85
1022.2315	2953.0803	2365.15	1487.25
1022.3453	2954.1696	2313.35	1434.6
1022.4591	2955.2582	2266.1	1388.25
1022.5728	2956.3462	2211.75	1333.3
1022.6865	2957.4335	2181.1	1303.7
1022.8002	2958.5202	2144.05	1262.8
1022.9138	2959.6062	2111.9	1234.05
1023.0274	2960.6916	2099.2	1221.75
1023.141	2961.7764	2064.1	1183.55
1023.2545	2962.8605	2051.9	1173.5
1023.3679	2963.9439	2037.8	1160.45
1023.4813	2965.0267	2039.05	1156.2
1023.5947	2966.1089	2055.85	1153.7
1023.708	2967.1905	2031.6	1152.75
1023.8213	2968.2714	2019.4	1142.45
1023.9346	2969.3516	2015.85	1137.7
1024.0478	2970.4312	2021.35	1133.05
1024.1609	2971.5102	2018.9	1142.55
1024.274	2972.5885	2022.35	1143.55
1024.3871	2973.6662	2034.35	1150.95
1024.5002	2974.7432	2016.15	1139
1024.6132	2975.8196	2010.1	1127.8
1024.7261	2976.8954	2008.2	1130.3
1024.839	2977.9705	1989.35	1109.55
1024.9519	2979.045	1982.35	1104.85
1025.0647	2980.1188	1964.3	1089.65
1025.1775	2981.192	1942.8	1065.85
1025.2902	2982.2645	1930.45	1053
1025.4029	2983.3364	1913.75	1035.7
1025.5156	2984.4077	1881.4	1000
1025.6282	2985.4783	1850.25	966.3
1025.7407	2986.5483	1813.5	935.4
1025.8532	2987.6177	1779.4	902.1
1025.9657	2988.6864	1753.9	875.35
1026.0782	2989.7545	1717.35	837.6
1026.1906	2990.8219	1675.95	799.55
1026.3029	2991.8887	1646.75	764.8
1026.4152	2992.9548	1616.35	739.8
1026.5275	2994.0204	1591.05	713.3
1026.6397	2995.0852	1557.45	679.95
1026.7519	2996.1495	1540.25	659.8
1026.864	2997.2131	1511.5	630.25
1026.9761	2998.276	1482	603.25
1027.0882	2999.3383	1470.2	592.1
1027.2002	3000.4	1445.75	568.15
1027.3122	3001.4611	1432.1	558.2
1027.4241	3002.5215	1413.1	534.05
1027.536	3003.5812	1402.5	527.3
1027.6478	3004.6404	1392.7	514.4
1027.7596	3005.6989	1383.4	502.05
1027.8714	3006.7567	1364.8	486.75
1027.9831	3007.8139	1386.8	475.85
1028.0947	3008.8705	1351.15	473.45
1028.2064	3009.9264	1357.05	475.2
1028.3179	3010.9818	1343	464.25
1028.4295	3012.0364	1338.25	460
1028.541	3013.0905	1330.95	452.25
1028.6524	3014.1439	1328.35	449.9
1028.7638	3015.1966	1326.95	449.25
1028.8752	3016.2487	1321.05	442.4
1028.9865	3017.3002	1323.3	442
1029.0978	3018.3511	1318.3	438.3
1029.209	3019.4013	1317	438.8
1029.3202	3020.4509	1315.3	436.75
1029.4314	3021.4998	1324.65	444.15
1029.5425	3022.5481	1313.3	435.7
1029.6535	3023.5958	1313.4	438.05
1029.7645	3024.6428	1320.85	441.5
1029.8755	3025.6892	1319.1	444.5
1029.9864	3026.735	1316.5	438.35
1030.0973	3027.7802	1317	438.75
1030.2082	3028.8247	1318.2	440.75
1030.319	3029.8685	1325.2	446.1
1030.4297	3030.9118	1321.35	446.45
1030.5404	3031.9544	1325.7	448.2
1030.6511	3032.9963	1327	447.9
1030.7617	3034.0376	1329.55	451.85
1030.8723	3035.0783	1340.4	460.85
1030.9829	3036.1184	1342.2	464.3
1031.0934	3037.1578	1346.35	466.55
1031.2038	3038.1966	1347.65	467.85
1031.3142	3039.2348	1346.3	471.4
1031.4246	3040.2723	1359.95	472.65
1031.5349	3041.3092	1343.4	466.85
1031.6452	3042.3455	1348.45	470.05
1031.7554	3043.3811	1342.3	461.9
1031.8656	3044.4161	1344.15	467.45
1031.9758	3045.4505	1334	458.3
1032.0859	3046.4842	1334.35	456.75
1032.1959	3047.5173	1322	444.65
1032.3059	3048.5498	1317	437.6
1032.4159	3049.5816	1319.15	441.4
1032.5258	3050.6128	1311	432.2
1032.6357	3051.6434	1307.55	429
1032.7455	3052.6734	1301.75	421.75
1032.8553	3053.7027	1295.75	417.85
1032.9651	3054.7314	1286.95	408.45
1033.0748	3055.7594	1289.9	414.75
1033.1845	3056.7868	1280.25	402.3
1033.2941	3057.8136	1272.15	395.85
1033.4037	3058.8398	1278.3	401.2
1033.5132	3059.8653	1265	388.35
1033.6227	3060.8902	1263.45	384.85
1033.7321	3061.9145	1257.55	381.25
1033.8415	3062.9381	1255.6	378.95
1033.9509	3063.9612	1271.6	377
1034.0602	3064.9835	1245.8	368.45
1034.1694	3066.0053	1243.85	363.85
1034.2787	3067.0264	1241.95	366.5
1034.3878	3068.0469	1232.6	352.65
1034.497	3069.0668	1228.3	349.85
1034.6061	3070.086	1216.7	338.95
1034.7151	3071.1046	1206.45	327.5
1034.8241	3072.1226	1200.8	322.75
1034.9331	3073.1399	1194.75	318.05
1035.042	3074.1567	1187.45	309
1035.1508	3075.1727	1179.7	300.15
1035.2597	3076.1882	1175.05	298.25
1035.3684	3077.203	1155.1	277.45
1035.4772	3078.2173	1151.95	273.95
1035.5859	3079.2308	1151.85	268.45
1035.6945	3080.2438	1143.4	263.45
1035.8031	3081.2561	1135.95	257.8
1035.9117	3082.2678	1127.05	249.5
1036.0202	3083.2789	1119.95	241.9
1036.1286	3084.2893	1117.7	241.7
1036.2371	3085.2991	1105.4	229.15
1036.3454	3086.3083	1105.15	222.8
1036.4538	3087.3169	1099.1	221.15
1036.562	3088.3248	1098.1	217.65
1036.6703	3089.3321	1089.05	209
1036.7785	3090.3388	1088.5	212.6
1036.8866	3091.3449	1081.2	204.6
1036.9948	3092.3503	1080.75	201.75
1037.1028	3093.3551	1073.35	197.65
1037.2108	3094.3593	1071.25	195.5
1037.3188	3095.3629	1065.7	190.5
1037.4267	3096.3658	1065.05	185.85
1037.5346	3097.3681	1061.55	184.9
1037.6425	3098.3698	1061.65	181.6
1037.7503	3099.3708	1069.55	186.6
1037.858	3100.3713	1054.7	175.8
1037.9657	3101.3711	1050.65	172.35
1038.0734	3102.3702	1185.9	171.3
1038.181	3103.3688	1055.2	176.1
1038.2886	3104.3667	1043.3	167.15
1038.3961	3105.364	1040.95	163.3
1038.5036	3106.3607	1042.65	166.25
1038.611	3107.3568	1042.3	166
1038.7184	3108.3522	1041.45	165.7
1038.8257	3109.347	1035.8	158.3
1038.933	3110.3412	1037.7	157
1039.0403	3111.3348	1033.9	157.95
1039.1475	3112.3277	1033.3	156.1
1039.2547	3113.32	1030.55	155.55
1039.3618	3114.3117	1029.85	151.45
1039.4689	3115.3028	1028.5	153.55
1039.5759	3116.2932	1030.05	151.65
1039.6829	3117.2831	1030.05	148.75
1039.7898	3118.2723	1023.75	147.5
1039.8967	3119.2608	1022.05	144.65
1040.0035	3120.2488	1020.15	145.15
1040.1103	3121.2361	1020.15	141.8
1040.2171	3122.2229	1017.6	140.05
1040.3238	3123.209	1019.9	142.35
1040.4305	3124.1944	1015.6	139.45
1040.5371	3125.1793	1018.7	139.5
1040.6437	3126.1635	1012.15	135.95
1040.7502	3127.1471	1009.55	132.1
1040.8567	3128.1301	1010.25	135.75
1040.9631	3129.1125	1008.6	130.6
1041.0695	3130.0942	1005.95	129.55
1041.1759	3131.0753	1016.85	131.25
1041.2822	3132.0558	1009.8	130.65
1041.3884	3133.0357	1003.05	127.4
1041.4946	3134.015	1006.2	127.6
1041.6008	3134.9936	1003.7	125.7
1041.7069	3135.9716	1023.5	126.6
1041.813	3136.949	998.25	123.4
1041.919	3137.9258	1017.55	123.1
1042.025	3138.902	1004.9	122.8
1042.1309	3139.8775	1002.6	124.9
1042.2368	3140.8524	995.9	118.6
1042.3427	3141.8267	997.75	119.65
1042.4485	3142.8004	995.75	118.85
1042.5542	3143.7735	995.95	112.15
1042.6599	3144.7459	990.45	113.5
1042.7656	3145.7178	991.2	115.2
1042.8712	3146.689	988.65	112
1042.9768	3147.6596	988.85	112.2
1043.0823	3148.6295	993.2	117
1043.1878	3149.5989	986.9	109.1
1043.2932	3150.5676	987.7	112.45
1043.3986	3151.5357	978.7	104.15
1043.5039	3152.5032	984.95	110.2
1043.6092	3153.4701	986.85	110.7
1043.7145	3154.4364	985.5	105.2
1043.8197	3155.402	980.7	105
1043.9248	3156.367	985.05	104.85
1044.03	3157.3315	1013.05	105.25
1044.135	3158.2952	979.6	101.8
1044.24	3159.2584	979.7	101.4
1044.345	3160.221	981.55	105.4
1044.4499	3161.1829	981.7	103.95
1044.5548	3162.1442	975.1	98.7
1044.6596	3163.105	976.45	98.3
1044.7644	3164.065	972.4	94.75
1044.8692	3165.0245	977.75	100.25
1044.9739	3165.9834	972.05	98.05
1045.0785	3166.9416	969.65	94.85
1045.1831	3167.8993	967.9	93
1045.2877	3168.8563	972.95	94.9
1045.3922	3169.8127	970.2	95.65
1045.4966	3170.7684	969.7	93.3
1045.6011	3171.7236	969.65	93.15
1045.7054	3172.6782	970.25	93.65
1045.8098	3173.6321	970.65	93.4
1045.914	3174.5854	972.2	92.45
1046.0183	3175.5381	966.65	91.95
1046.1224	3176.4902	967.6	91.5
1046.2266	3177.4417	966.6	91.65
1046.3307	3178.3926	965.4	88.3
1046.4347	3179.3428	959.5	85.7
1046.5387	3180.2924	964.85	89.5
1046.6427	3181.2415	966.25	89.1
1046.7466	3182.1899	963.65	89.45
1046.8504	3183.1377	962.6	86.15
1046.9542	3184.0848	966.7	84.9
1047.058	3185.0314	960.65	85.1
1047.1617	3185.9773	960	81.45
1047.2654	3186.9227	959.15	84.15
1047.369	3187.8674	959.2	83.1
1047.4726	3188.8115	965.3	86.3
1047.5761	3189.755	960.55	85.65
1047.6796	3190.6979	955.75	79
1047.783	3191.6402	960.65	85.5
1047.8864	3192.5818	954.9	78.05
1047.9898	3193.5229	973.35	79.4
1048.0931	3194.4633	958.3	81.3
1048.1963	3195.4031	953.8	75.85
1048.2995	3196.3423	957.65	83
1048.4027	3197.2809	954.65	79.1
1048.5058	3198.2189	956.4	78.95
1048.6089	3199.1563	959.95	79
1048.7119	3200.0931	953.5	77.3
1048.8148	3201.0292	952.9	78.3
1048.9178	3201.9648	951.2	74.05
1049.0206	3202.8997	956.2	76.2
1049.1235	3203.834	952.8	76
1049.2262	3204.7677	950.9	75.6
1049.329	3205.7008	952.45	75.55
1049.4317	3206.6333	948.6	73.8
1049.5343	3207.5652	953.2	76
1049.6369	3208.4964	950.95	74.5
1049.7394	3209.4271	949.95	75.15
1049.8419	3210.3571	950.2	75.2
1049.9444	3211.2865	950.7	71.8
1050.0468	3212.2154	950.2	74
1050.1491	3213.1436	948.7	68.65
1050.2514	3214.0712	953.4	69.2
1050.3537	3214.9982	947.05	71.45
1050.4559	3215.9246	944.55	68.15
1050.5581	3216.8503	941.2	66.95
1050.6602	3217.7755	944.3	69.5
1050.7623	3218.7001	944.1	66.25
1050.8643	3219.624	947.1	72.55
1050.9663	3220.5473	945.9	69.35
1051.0682	3221.4701	944.45	67.25
1051.1701	3222.3922	944.3	70
1051.2719	3223.3137	943	65.65
1051.3737	3224.2346	941.6	66.85
1051.4754	3225.1549	944.05	69.4
1051.5771	3226.0746	941.1	66.55
1051.6788	3226.9937	939.95	62.25
1051.7804	3227.9121	940.05	66.15
1051.8819	3228.83	940.55	66
1051.9834	3229.7473	937.25	60.5
1052.0849	3230.6639	940.9	66.95
1052.1863	3231.5799	939.9	63.05
1052.2876	3232.4954	941	64.25
1052.3889	3233.4102	937.75	61.95
1052.4902	3234.3244	938.5	62.75
1052.5914	3235.238	938.35	63.35
1052.6926	3236.151	962.85	64.4
1052.7937	3237.0634	937.6	65.75
1052.8948	3237.9752	934.05	59.85
1052.9958	3238.8864	934.15	56.7
1053.0968	3239.797	934.9	57.7
1053.1977	3240.7069	938	61.3
1053.2986	3241.6163	937.25	59.4
1053.3994	3242.5251	934.25	61.2
1053.5002	3243.4332	933.5	58.7
1053.6009	3244.3408	933.95	57.6
1053.7016	3245.2477	932.15	57.95
1053.8022	3246.154	936.05	62
1053.9028	3247.0598	933.2	57.25
1054.0034	3247.9649	929.2	53.1
1054.1039	3248.8694	933.45	59.1
1054.2043	3249.7733	931.85	59.55
1054.3047	3250.6766	932.55	58.6
1054.4051	3251.5793	932.05	55.3
1054.5054	3252.4814	928.7	55.05
1054.6056	3253.3829	930.65	54.55
1054.7058	3254.2838	927.15	53.45
1054.806	3255.1841	927.95	51.7
1054.9061	3256.0838	926.15	52.15
1055.0061	3256.9829	925.25	51.7
1055.1062	3257.8814	931.6	54.1
1055.2061	3258.7792	927.4	50.55
1055.306	3259.6765	925.8	48.6
1055.4059	3260.5731	923.7	50.15
1055.5057	3261.4692	924.1	51.1
1055.6055	3262.3647	925.2	51.15
1055.7052	3263.2595	922.2	49.05
1055.8049	3264.1538	919.35	44.85
1055.9045	3265.0474	923.2	48.35
1056.0041	3265.9404	918.5	46.15
1056.1036	3266.8329	919.05	45.25
1056.2031	3267.7247	926.2	43
1056.3025	3268.616	915	43
1056.4019	3269.5066	919.45	44.45
1056.5013	3270.3966	916.7	40.35
1056.6005	3271.286	911.85	37.1
