Software Version:	3.9.2.0
Unit SN:	10000200
Spectrometer SN:	6960
Date:	3/8/2024 1:39:54 PM
Data Line Index:	25
Spectral Points:	2048
Integration time (ms):	125
Averages:	20
Delay (ms):	30000
Sequence Number:	1
Processing:	dark subtract
Laser Power (mW):	305
Laser Current (mA):	822
Laser Diode Temp (C):	25.1
Laser Case Temp (C):	26.2
System Temp (C):	26.2
Spectrometer Temp (C):	24.2
CCD Temp (C):	0.01
Secondary Temp (C):	20.006
Heatsink Temp (C):	20.944
CCDPCB Temp (C):	36.318
SecondaryPCB Temp (C):	30.705

Wavelength	RamanShift	Raw Counts	Dark Subtracted
787.061	30.1047	462.8	54.55
787.2016	32.3739	461.7	57.2
787.3422	34.6426	469.55	61.4
787.4828	36.9109	475.35	67.6
787.6235	39.1787	481.55	69
787.7642	41.4461	493.9	76.5
787.9049	43.7131	500.4	80.3
788.0456	45.9796	510.85	88.75
788.1863	48.2456	520.85	92.45
788.3271	50.5112	530.15	97.35
788.4679	52.7764	542.2	107.65
788.6087	55.0411	551.7	111.8
788.7496	57.3054	561	117.1
788.8904	59.5692	572.05	126.2
789.0313	61.8326	581.6	132.55
789.1722	64.0955	595.8	145.85
789.3132	66.3579	615.25	156.5
789.4541	68.6199	633.3	171.35
789.5951	70.8815	670.3	205.05
789.7361	73.1426	752.45	282.45
789.8771	75.4032	960.5	486.5
790.0181	77.6634	1479	999.25
790.1592	79.9231	2699.6	2212.6
790.3003	82.1824	5363.15	4858.95
790.4414	84.4412	10173.2	9637.7
790.5825	86.6995	16759.65	16185.15
790.7237	88.9574	23194	22589.35
790.8648	91.2148	27660.5	27029.05
791.006	93.4717	29758.75	29110.9
791.1472	95.7282	30222.3	29569
791.2885	97.9842	30162.55	29506.3
791.4297	100.2398	29571.15	28911.4
791.571	102.4949	28983.7	28320.35
791.7123	104.7495	28228.25	27561.2
791.8536	107.0036	27437.45	26770.85
791.9949	109.2573	26670.7	26002.5
792.1363	111.5105	25988.35	25317.35
792.2777	113.7632	25303.65	24631.8
792.4191	116.0154	24714.1	24031.3
792.5605	118.2672	24295.95	23618.45
792.7019	120.5185	23868.85	23191.05
792.8434	122.7693	23490.25	22814.4
792.9849	125.0197	23252.05	22571.25
793.1264	127.2696	22980.85	22290.2
793.2679	129.519	22844	22150.75
793.4094	131.7679	22647.7	21954.7
793.551	134.0163	22499.2	21801.3
793.6926	136.2642	22268.6	21563.75
793.8342	138.5117	22086.7	21383.55
793.9758	140.7587	21846.25	21140.6
794.1175	143.0052	21637.6	20928.4
794.2591	145.2512	21377.25	20670.65
794.4008	147.4967	21159.9	20448.6
794.5425	149.7417	20994.55	20280.75
794.6842	151.9863	20881.8	20165.35
794.826	154.2304	20841.65	20118.8
794.9677	156.4739	20693.8	19965.85
795.1095	158.717	20644.9	19913.6
795.2513	160.9596	20504	19772.1
795.3931	163.2017	20262.3	19527
795.535	165.4433	19998.75	19263.1
795.6768	167.6844	19651.05	18913.95
795.8187	169.925	19340.15	18598.25
795.9606	172.1651	19011.95	18274.6
796.1025	174.4047	18733.55	17989.25
796.2445	176.6439	18471.95	17726.1
796.3864	178.8825	18270.85	17520.2
796.5284	181.1206	18143.3	17387.7
796.6704	183.3582	17961.3	17207.35
796.8124	185.5954	17889.4	17130.45
796.9544	187.832	17850.8	17087.9
797.0965	190.0681	17823.15	17059.25
797.2386	192.3037	17818.7	17050.15
797.3806	194.5388	17794.25	17023.15
797.5228	196.7734	17878	17101.95
797.6649	199.0075	17976.75	17200.1
797.807	201.2411	18103.75	17324
797.9492	203.4742	18202.55	17423.6
798.0914	205.7068	18373.65	17588.75
798.2336	207.9389	18467.1	17684.05
798.3758	210.1704	18637.95	17863.9
798.518	212.4015	18724.65	17963.1
798.6603	214.632	18908.1	18143.8
798.8025	216.862	19141.7	18378.85
798.9448	219.0915	19281.95	18516
799.0871	221.3205	19484.45	18716.75
799.2294	223.549	19722.85	18959.95
799.3718	225.777	20029.45	19265.65
799.5141	228.0044	20352.8	19579.7
799.6565	230.2314	20780.5	20010.6
799.7989	232.4578	21193.5	20422.25
799.9413	234.6837	21519.85	20740.75
800.0837	236.909	21736.1	20949.7
800.2262	239.1339	21708.15	20899.2
800.3687	241.3582	21556.35	20759.25
800.5111	243.582	21214.75	20392.7
800.6536	245.8053	20951.5	20139
800.7961	248.0281	20670.6	19866.5
800.9387	250.2503	20446.4	19636.65
801.0812	252.472	20359.15	19547.75
801.2238	254.6932	20339.85	19526.8
801.3664	256.9139	20313	19502.2
801.509	259.134	20397.55	19577.15
801.6516	261.3536	20365.25	19554.1
801.7942	263.5727	20499.2	19684.3
801.9369	265.7912	20473.75	19660.5
802.0795	268.0092	20561.25	19742.4
802.2222	270.2267	20544.9	19729
802.3649	272.4436	20573.85	19754.3
802.5076	274.6601	20532.15	19705.4
802.6504	276.8759	20426.25	19605
802.7931	279.0913	20414.55	19593.15
802.9359	281.3061	20341.8	19519.4
803.0787	283.5204	20419.3	19589.15
803.2215	285.7341	20460.8	19629.25
803.3643	287.9473	20636.1	19790.05
803.5071	290.16	20851.35	20021
803.6499	292.3721	21133.7	20308.85
803.7928	294.5837	21548.85	20718.2
803.9357	296.7947	21881.3	21053.5
804.0786	299.0052	22077.05	21243.05
804.2215	301.2152	21950.5	21117.2
804.3644	303.4246	21620.8	20795.45
804.5074	305.6334	21110.85	20281.05
804.6503	307.8418	20649.15	19819.2
804.7933	310.0495	20268.5	19429.7
804.9363	312.2568	19956.95	19122.8
805.0793	314.4635	19749.45	18906.5
805.2223	316.6696	19600.3	18757.15
805.3653	318.8752	19513.75	18665.35
805.5084	321.0802	19588.45	18747.7
805.6514	323.2847	19663.4	18818.55
805.7945	325.4887	19745.7	18902.7
805.9376	327.692	19709.4	18860
806.0807	329.8949	19615.55	18765.45
806.2238	332.0972	19367.25	18520.1
806.367	334.2989	19081.25	18227.95
806.5101	336.5001	18827.6	17978.85
806.6533	338.7007	18668.8	17818.6
806.7965	340.9008	18544.75	17686.3
806.9397	343.1003	18448.05	17592.85
807.0829	345.2992	18407.6	17552.95
807.2261	347.4976	18353.8	17499.3
807.3693	349.6955	18373.05	17515.45
807.5126	351.8927	18471.5	17610.3
807.6559	354.0895	18440.7	17568.7
807.7991	356.2856	18482.25	17621.85
807.9424	358.4812	18463.2	17597.7
808.0857	360.6763	18525.55	17659.1
808.2291	362.8707	18505.95	17636
808.3724	365.0646	18547.75	17674.9
808.5158	367.258	18566.95	17691.85
808.6591	369.4508	18605.6	17730.8
808.8025	371.643	18703.8	17826.4
808.9459	373.8346	18703.05	17825.65
809.0893	376.0257	18695.2	17819.3
809.2327	378.2162	18634.2	17757.8
809.3762	380.4062	18550.75	17677.9
809.5196	382.5956	18411.4	17539.2
809.6631	384.7844	18335.8	17468.7
809.8066	386.9726	18233.2	17362.9
809.9501	389.1603	18185.65	17319.3
810.0936	391.3474	18160.15	17261.8
810.2371	393.5339	18152.25	17282.25
810.3806	395.7199	18086.7	17221.3
810.5241	397.9052	18138.1	17270.75
810.6677	400.09	18113.05	17246.45
810.8113	402.2743	18245.2	17380.65
810.9548	404.4579	18325.6	17459.1
811.0984	406.641	18527.3	17652.45
811.2421	408.8235	18721.35	17851.1
811.3857	411.0054	19062.7	18182.85
811.5293	413.1868	19441.65	18560.5
811.673	415.3675	19722.95	18841.75
811.8166	417.5477	19914.2	19031.1
811.9603	419.7273	19925.65	19043
812.104	421.9064	19830.6	18940.55
812.2477	424.0848	19722.9	18843
812.3914	426.2627	19530.8	18650.65
812.5351	428.4399	19270.7	18390.85
812.6788	430.6166	18895.7	18005.1
812.8226	432.7928	18548.25	17659.55
812.9663	434.9683	18277.2	17390.1
813.1101	437.1432	18047.45	17159.5
813.2539	439.3176	17870.85	16992.9
813.3977	441.4914	17771.15	16895.75
813.5415	443.6645	17776.8	16900.7
813.6853	445.8371	17719.35	16832.95
813.8291	448.0091	17667.15	16783.7
813.973	450.1806	17610.25	16727.9
814.1168	452.3514	17568.85	16687.8
814.2607	454.5216	17556.3	16663.2
814.4046	456.6913	17477.15	16596.75
814.5485	458.8603	17552.95	16670.9
814.6924	461.0288	17639	16764.6
814.8363	463.1967	17646.35	16769.85
814.9802	465.3639	17792.1	16909.6
815.1241	467.5306	17841.4	16960.3
815.2681	469.6967	17964.4	17087.45
815.412	471.8622	18107.35	17229.25
815.556	474.0271	18272.95	17393.8
815.7	476.1914	18339.35	17451.3
815.844	478.3551	18326.2	17439.65
815.988	480.5182	18356.55	17472.35
816.132	482.6807	18349.05	17470.85
816.276	484.8426	18466	17598.6
816.4201	487.0039	18757.3	17885.55
816.5641	489.1647	19167.85	18280.4
816.7082	491.3248	19614.25	18730.1
816.8522	493.4843	19750.65	18867.5
816.9963	495.6432	19772.05	18887.05
817.1404	497.8015	19662.3	18769.2
817.2845	499.9592	19710.1	18814.05
817.4286	502.1163	19618.05	18721.95
817.5727	504.2728	19369.6	18481.15
817.7168	506.4287	19067.75	18188.85
817.861	508.5839	18678.05	17802.55
818.0051	510.7386	18384.4	17499.8
818.1493	512.8927	18220.1	17330.3
818.2935	515.0461	18147.95	17258.05
818.4377	517.199	18101.35	17207.15
818.5818	519.3512	18151.35	17252.75
818.726	521.5029	18232.6	17332.3
818.8703	523.6539	18345.7	17447.95
819.0145	525.8043	18410.9	17513.65
819.1587	527.9541	18425.95	17525.35
819.303	530.1033	18384.75	17487.25
819.4472	532.2519	18384.05	17490.75
819.5915	534.3999	18534.2	17633.95
819.7357	536.5472	18776.6	17880.8
819.88	538.694	19181.15	18286.9
820.0243	540.8401	19733	18838.9
820.1686	542.9856	20197.2	19290.7
820.3129	545.1305	20368.9	19455.35
820.4572	547.2748	20277	19364.9
820.6016	549.4185	19914.9	18996.35
820.7459	551.5615	19590.65	18679.9
820.8902	553.704	19487.7	18578.25
821.0346	555.8458	19441.6	18538
821.1789	557.987	19513.3	18609.35
821.3233	560.1276	19504.3	18599.5
821.4677	562.2675	19597.2	18687.85
821.6121	564.4069	19728.2	18821.3
821.7565	566.5456	19788.75	18883.2
821.9009	568.6837	19736.65	18835.6
822.0453	570.8212	19433.9	18530.4
822.1897	572.958	19048.3	18141.4
822.3342	575.0942	18758.95	17856.75
822.4786	577.2299	18538.7	17638.95
822.6231	579.3648	18476.15	17589.1
822.7675	581.4992	18527.55	17650.85
822.912	583.6329	18674.9	17794.95
823.0565	585.766	18905.2	18021.05
823.201	587.8985	19085	18190.3
823.3454	590.0304	19075.2	18151.1
823.4899	592.1616	19014.6	18103.15
823.6345	594.2922	18959.2	18046.65
823.779	596.4222	18774.3	17860.7
823.9235	598.5515	18611.4	17698
824.068	600.6802	18421.95	17509.5
824.2126	602.8083	18263	17354.8
824.3571	604.9358	18218.95	17314.2
824.5017	607.0626	18169.4	17255.9
824.6462	609.1888	18167.85	17253.35
824.7908	611.3144	18155.1	17234.45
824.9354	613.4393	18083.4	17165.8
825.08	615.5636	18043.3	17125.95
825.2246	617.6873	17962.85	17045.75
825.3692	619.8103	17910.35	16993.95
825.5138	621.9327	17815.15	16898.6
825.6584	624.0544	17719.15	16809.1
825.803	626.1756	17716.2	16804.95
825.9477	628.2961	17652.6	16735.65
826.0923	630.4159	17618.25	16698.7
826.237	632.5351	17641.25	16726.15
826.3816	634.6537	17522.05	16603.8
826.5263	636.7716	17503.2	16582.3
826.6709	638.8889	17555.15	16629.25
826.8156	641.0056	17614.4	16691.3
826.9603	643.1216	17566.5	16642.4
827.105	645.237	17619.35	16697.65
827.2497	647.3518	17577.1	16664.35
827.3944	649.4659	17653.3	16745
827.5391	651.5793	17616.85	16707.75
827.6838	653.6922	17560.3	16648.75
827.8285	655.8043	17610.7	16694.95
827.9733	657.9159	17595.95	16679.45
828.118	660.0268	17500.5	16587.7
828.2627	662.137	17470.4	16551.15
828.4075	664.2466	17473.5	16551.55
828.5522	666.3556	17468.95	16544.7
828.697	668.4639	17429.65	16506.4
828.8418	670.5716	17501.4	16589.2
828.9865	672.6786	17560.5	16640.05
829.1313	674.785	17596.7	16673.5
829.2761	676.8907	17655.95	16737.25
829.4209	678.9958	17730.95	16815.65
829.5657	681.1002	17694.05	16773.35
829.7105	683.204	17715.45	16783.4
829.8553	685.3072	17653.5	16727.8
830.0001	687.4097	17604.25	16679.05
830.1449	689.5115	17584.85	16660.75
830.2898	691.6127	17572.9	16651.9
830.4346	693.7132	17504.5	16588.35
830.5794	695.8131	17519.5	16585.3
830.7243	697.9123	17499.8	16572.6
830.8691	700.0109	17449.55	16516.95
831.014	702.1089	17503.6	16577.95
831.1588	704.2061	17491.9	16565.05
831.3037	706.3028	17513.1	16583.7
831.4486	708.3987	17618.65	16686.45
831.5935	710.4941	17630.75	16703.75
831.7383	712.5887	17796.8	16868.2
831.8832	714.6827	18084.85	17155.25
832.0281	716.7761	18369.55	17448.25
832.173	718.8688	18710.8	17788.1
832.3179	720.9608	18969.05	18037.5
832.4628	723.0522	19007.7	18069.25
832.6077	725.1429	18831.65	17900.3
832.7527	727.233	18651.45	17722.7
832.8976	729.3224	18482.6	17553.8
833.0425	731.4112	18242.65	17311.55
833.1874	733.4993	18019.95	17092
833.3324	735.5867	17871.3	16940
833.4773	737.6735	17741.3	16807.2
833.6222	739.7596	17685.25	16753.6
833.7672	741.845	17630.45	16699.25
833.9122	743.9298	17615.8	16686.55
834.0571	746.014	17620.3	16690.4
834.2021	748.0974	17617.85	16679.95
834.347	750.1802	17621.4	16686.3
834.492	752.2624	17622.15	16682.55
834.637	754.3439	17667.35	16728.95
834.782	756.4247	17704.65	16761.3
834.9269	758.5048	17844.5	16909.05
835.0719	760.5843	18064.1	17127.4
835.2169	762.6631	18363.3	17421.9
835.3619	764.7413	18849.45	17913.05
835.5069	766.8188	19489.5	18555.25
835.6519	768.8956	19931.15	18991.5
835.7969	770.9718	20246.15	19310.95
835.9419	773.0473	20124.8	19191.7
836.0869	775.1221	19792.55	18854.35
836.232	777.1962	19431.55	18498.05
836.377	779.2697	19255.75	18319.8
836.522	781.3426	19294.1	18343.1
836.667	783.4147	19522.35	18584.95
836.8121	785.4862	19804.5	18868.7
836.9571	787.557	19782.05	18843.3
837.1021	789.6271	19469.05	18530.2
837.2472	791.6966	18970.25	18031.05
837.3922	793.7654	18392.6	17452.4
837.5373	795.8335	18088.85	17154
837.6823	797.901	17883.55	16945.95
837.8274	799.9678	17815.5	16877.15
837.9724	802.0339	17770.8	16828.35
838.1175	804.0993	17833.8	16882.75
838.2626	806.1641	17836.6	16893.6
838.4076	808.2282	17804.35	16865.6
838.5527	810.2916	17707.4	16765
838.6978	812.3544	17609.8	16675.85
838.8428	814.4164	17545.8	16611.4
838.9879	816.4778	17573.25	16631.5
839.133	818.5385	17587.65	16644.7
839.2781	820.5986	17675.8	16732.4
839.4232	822.658	17792.75	16850.7
839.5682	824.7166	17968.55	17025.3
839.7133	826.7747	18242.2	17305.9
839.8584	828.832	18448.9	17508.8
840.0035	830.8886	18614.8	17668.1
840.1486	832.9446	18750.05	17809.2
840.2937	834.9999	18762.75	17822.7
840.4388	837.0545	18736.05	17790.55
840.5839	839.1085	18694.55	17747.6
840.729	841.1618	18613.5	17665.85
840.8741	843.2143	18575.35	17634.2
841.0192	845.2662	18453.35	17511.85
841.1643	847.3175	18434.95	17490.75
841.3095	849.368	18287.8	17345.1
841.4546	851.4179	18177.8	17238.85
841.5997	853.467	18061.6	17118.9
841.7448	855.5155	17991.45	17046.3
841.8899	857.5633	17868.6	16923.8
842.0351	859.6105	17744.75	16801.6
842.1802	861.6569	17689.85	16741.6
842.3253	863.7027	17669.2	16723.95
842.4704	865.7478	17653.85	16707.85
842.6156	867.7922	17636.8	16691.75
842.7607	869.8359	17752.35	16806.2
842.9058	871.8789	17820.3	16874.9
843.0509	873.9212	18005.7	17025.3
843.1961	875.9629	18106.55	17161.7
843.3412	878.0039	18298.35	17352.3
843.4863	880.0441	18349.65	17406.55
843.6315	882.0837	18411.4	17469.15
843.7766	884.1226	18327.8	17383.9
843.9218	886.1609	18278.4	17333
844.0669	888.1984	18227.75	17281.8
844.212	890.2352	18302.2	17354.65
844.3572	892.2714	18239.15	17290.05
844.5023	894.3069	18236.45	17288.05
844.6475	896.3416	18123.75	17172.9
844.7926	898.3757	18112.9	17168.85
844.9377	900.4091	18111.7	17162.2
845.0829	902.4418	18117.05	17161.1
845.228	904.4739	18104.9	17154.05
845.3732	906.5052	18147.5	17197.25
845.5183	908.5358	18064.3	17114.85
845.6635	910.5658	17906.35	16955.1
845.8086	912.595	17722.05	16772.85
845.9538	914.6236	17582.65	16636.3
846.0989	916.6515	17561.85	16608.7
846.2441	918.6786	17495.35	16543.45
846.3892	920.7051	17566.2	16611.95
846.5344	922.7309	17689	16740.3
846.6795	924.756	17742.45	16792.8
846.8246	926.7804	17884.45	16934.2
846.9698	928.8041	17787.8	16840.35
847.1149	930.8272	17828.15	16876.9
847.2601	932.8495	17775.3	16824.35
847.4052	934.8711	17727.65	16778.05
847.5504	936.892	17623.2	16670.9
847.6955	938.9123	17485.75	16534.9
847.8407	940.9318	17382.55	16434.2
847.9858	942.9506	17268.05	16317.45
848.131	944.9688	17199.8	16248.1
848.2761	946.9862	17151.4	16202.3
848.4213	949.003	17049.75	16097.85
848.5664	951.019	17025	16076.7
848.7115	953.0344	17031.75	16081.35
848.8567	955.0491	17069.9	16117.3
849.0018	957.063	17142.6	16192.4
849.147	959.0763	17279.9	16328.05
849.2921	961.0888	17319.2	16369.9
849.4373	963.1007	17423.6	16477.45
849.5824	965.1119	17485.2	16545.45
849.7275	967.1223	17461.9	16530.7
849.8727	969.1321	17482.15	16548.65
850.0178	971.1412	17523.9	16586.8
850.1629	973.1495	17539.15	16596.05
850.3081	975.1572	17624.15	16625.75
850.4532	977.1641	17629.4	16679.3
850.5983	979.1704	17555.05	16604.35
850.7435	981.1759	17554.5	16600.6
850.8886	983.1808	17653.85	16701.9
851.0337	985.1849	17742.65	16780.55
851.1788	987.1884	17843.5	16893.1
851.324	989.1911	18000.65	17050.3
851.4691	991.1932	18129.45	17185.7
851.6142	993.1945	18167.35	17218.5
851.7593	995.1951	18095.95	17147.65
851.9045	997.1951	18086.5	17129.95
852.0496	999.1943	17968.95	17022.65
852.1947	1001.1928	17939	16990.1
852.3398	1003.1906	17945.45	16999.1
852.4849	1005.1877	17975.25	17022.6
852.63	1007.1841	17984.45	17032.9
852.7751	1009.1798	17923.05	16974.8
852.9202	1011.1748	17746.4	16801.25
853.0653	1013.1691	17588.15	16639.55
853.2104	1015.1627	17355.2	16403.7
853.3555	1017.1556	17140.65	16195.35
853.5006	1019.1477	17050.3	16105.5
853.6457	1021.1392	16938.95	15998.5
853.7908	1023.1299	16895.9	15959.6
853.9359	1025.12	16916.8	15985.1
854.081	1027.1093	16965.85	16049.05
854.2261	1029.0979	17056.95	16142.55
854.3712	1031.0859	17131.15	16210.65
854.5163	1033.0731	17123.95	16192.8
854.6613	1035.0596	17068.1	16129.55
854.8064	1037.0454	16923.3	15982
854.9515	1039.0304	16834.35	15890.55
855.0965	1041.0148	16646.8	15699.9
855.2416	1042.9985	16553.05	15603.35
855.3867	1044.9814	16563.2	15615.75
855.5317	1046.9636	16471.7	15524.55
855.6768	1048.9452	16489.9	15544.3
855.8219	1050.926	16507.45	15563.65
855.9669	1052.9061	16498	15555.4
856.112	1054.8855	16492.45	15547.65
856.257	1056.8642	16551	15606.1
856.4021	1058.8421	16582.9	15628
856.5471	1060.8194	16605.5	15659.65
856.6921	1062.7959	16634.9	15690.5
856.8372	1064.7717	16655.55	15710.45
856.9822	1066.7469	16713.25	15763.8
857.1272	1068.7213	16741	15793.85
857.2723	1070.695	16733.45	15787.5
857.4173	1072.6679	16671.8	15718.85
857.5623	1074.6402	16635.7	15689.45
857.7073	1076.6117	16638.95	15687.45
857.8523	1078.5826	16583.35	15637.35
857.9973	1080.5527	16601.35	15650.65
858.1423	1082.5221	16639.1	15692.95
858.2873	1084.4908	16796.4	15850.35
858.4323	1086.4587	16955.3	16010.15
858.5773	1088.426	17063.6	16120.3
858.7223	1090.3925	17063.3	16113.75
858.8673	1092.3584	17076.1	16129
859.0123	1094.3235	16895.5	15947.9
859.1573	1096.2879	16876.35	15930.65
859.3022	1098.2515	16880.75	15935.65
859.4472	1100.2145	16994.85	16048.45
859.5922	1102.1767	17063.5	16114.25
859.7371	1104.1382	17254.85	16311.65
859.8821	1106.099	17451.25	16503.45
860.027	1108.0591	17639.7	16694.95
860.172	1110.0185	17827.15	16879.5
860.3169	1111.9771	17812.9	16867.5
860.4619	1113.9351	17608.45	16659.4
860.6068	1115.8923	17358.3	16411.3
860.7517	1117.8488	17087.25	16142.5
860.8967	1119.8045	16816.1	15873.05
861.0416	1121.7596	16704.15	15761.4
861.1865	1123.7139	16629.6	15689.15
861.3314	1125.6675	16622.5	15679.45
861.4763	1127.6204	16711.35	15769.55
861.6212	1129.5726	16663.2	15720.8
861.7661	1131.524	16664.15	15719.7
861.911	1133.4748	16623.95	15679.5
862.0559	1135.4248	16532.35	15583.8
862.2008	1137.3741	16508.05	15560.95
862.3457	1139.3226	16442.95	15493.05
862.4905	1141.2705	16422.65	15477.1
862.6354	1143.2176	16277.2	15328.8
862.7803	1145.164	16325	15379.9
862.9251	1147.1097	16317.45	15372.45
863.07	1149.0546	16291.9	15341.4
863.2148	1150.9989	16191.65	15244.1
863.3597	1152.9424	16074.5	15128.85
863.5045	1154.8852	15953.85	15009.7
863.6493	1156.8272	15887.15	14943.4
863.7942	1158.7686	15851.4	14895.7
863.939	1160.7092	15808.05	14862.05
864.0838	1162.6491	15759.3	14814.5
864.2286	1164.5883	15884.1	14939.95
864.3734	1166.5267	15971.05	15025.9
864.5182	1168.4644	16090.9	15147.45
864.663	1170.4014	16246.55	15301.65
864.8078	1172.3377	16512.45	15572.4
864.9526	1174.2732	16743.15	15803.5
865.0974	1176.2081	17014.25	16071.45
865.2421	1178.1421	17297.05	16351.3
865.3869	1180.0755	17556.1	16615.45
865.5317	1182.0082	17678.45	16737.25
865.6764	1183.9401	17679.6	16741.5
865.8212	1185.8713	17532.25	16598.1
865.9659	1187.8017	17320	16391.6
866.1106	1189.7315	17079.8	16157.55
866.2554	1191.6605	16726.1	15806.65
866.4001	1193.5888	16506.25	15581.4
866.5448	1195.5163	16444.25	15514.75
866.6895	1197.4432	16341.55	15405.45
866.8342	1199.3693	16298.75	15357.9
866.9789	1201.2947	16244.35	15302.4
867.1236	1203.2193	16212.45	15270.95
867.2683	1205.1432	16219.35	15278.65
867.413	1207.0664	16263.05	15323.15
867.5576	1208.9889	16244.65	15299.25
867.7023	1210.9106	16239.55	15299.95
867.847	1212.8316	16251.6	15311.6
867.9916	1214.7519	16324.85	15375.95
868.1363	1216.6715	16330.25	15390.3
868.2809	1218.5903	16361.7	15421.05
868.4255	1220.5084	16336.55	15395.9
868.5701	1222.4257	16371.95	15430.55
868.7148	1224.3424	16277.25	15341.9
868.8594	1226.2583	16364.15	15426.5
869.004	1228.1735	16447.9	15507.55
869.1486	1230.0879	16541.05	15599.8
869.2932	1232.0016	16623.55	15683.7
869.4377	1233.9146	16690.2	15751.25
869.5823	1235.8269	16607.45	15665.35
869.7269	1237.7384	16505.1	15566.6
869.8715	1239.6492	16293.5	15352.65
870.016	1241.5592	16208.55	15270.65
870.1606	1243.4686	16135.4	15193.85
870.3051	1245.3772	16117.95	15179
870.4496	1247.285	16134.65	15195.55
870.5941	1249.1922	16114	15174.5
870.7387	1251.0986	16157.5	15214.45
870.8832	1253.0042	16115.2	15177.5
871.0277	1254.9092	16167.15	15231.8
871.1722	1256.8134	16242.35	15307.15
871.3167	1258.7169	16407.2	15469.2
871.4611	1260.6196	16534.2	15595.4
871.6056	1262.5216	16728.95	15789.3
871.7501	1264.4229	16899.8	15963.9
871.8945	1266.3234	17056.4	16120
872.039	1268.2232	17144.75	16203.55
872.1834	1270.1223	17170.05	16231.95
872.3278	1272.0207	17143.1	16203.5
872.4723	1273.9183	17141.6	16200.9
872.6167	1275.8151	17034.9	16097
872.7611	1277.7113	16950.95	16014.25
872.9055	1279.6067	16857.65	15920.55
873.0499	1281.5014	16796.2	15857.8
873.1943	1283.3953	16821.8	15885.9
873.3386	1285.2885	16889.3	15951
873.483	1287.181	16989	16051.25
873.6274	1289.0727	17146.95	16212.95
873.7717	1290.9637	17233.75	16296.3
873.9161	1292.854	17380.2	16442.75
874.0604	1294.7435	17460.8	16522.9
874.2047	1296.6323	17587.65	16650
874.349	1298.5204	17771.7	16829.75
874.4933	1300.4077	17931.45	16993.45
874.6376	1302.2943	18009.6	17074.4
874.7819	1304.1802	18024.2	17088.55
874.9262	1306.0653	17822.8	16881.3
875.0705	1307.9497	17604.1	16669.3
875.2147	1309.8333	17384.6	16451.2
875.359	1311.7162	17282.25	16348
875.5032	1313.5984	17266.1	16327.95
875.6475	1315.4798	17243.7	16307.2
875.7917	1317.3605	17315.1	16375.15
875.9359	1319.2405	17355.75	16415.6
876.0801	1321.1197	17252.4	16315
876.2243	1322.9982	17112.6	16169.45
876.3685	1324.876	17039.05	16100.25
876.5127	1326.753	16896.85	15958.1
876.6569	1328.6293	16857.65	15920.95
876.801	1330.5048	16835	15894.5
876.9452	1332.3796	16767.65	15833
877.0893	1334.2537	16728.65	15762.55
877.2335	1336.127	16671.95	15737.05
877.3776	1337.9996	16674.5	15734.3
877.5217	1339.8714	16621.1	15682.05
877.6658	1341.7426	16585.35	15604.8
877.8099	1343.6129	16548.35	15609.85
877.954	1345.4826	16475.6	15534.95
878.0981	1347.3515	16503.6	15563.35
878.2422	1349.2196	16444.55	15507.25
878.3862	1351.087	16468.25	15527.95
878.5303	1352.9537	16506	15567.7
878.6743	1354.8197	16612.85	15672.5
878.8184	1356.6849	16783.2	15846.15
878.9624	1358.5493	16849.3	15914.15
879.1064	1360.4131	16907.05	15970.65
879.2504	1362.276	16914.05	15977.8
879.3944	1364.1383	16739.3	15805.9
879.5384	1365.9998	16550.7	15605.65
879.6823	1367.8606	16191.9	15255.45
879.8263	1369.7206	15896.8	14958.35
879.9702	1371.5799	15630.45	14689.05
880.1142	1373.4384	15465.2	14526.15
880.2581	1375.2962	15300.25	14359.35
880.402	1377.1533	15013.45	14082.1
880.5459	1379.0096	14700.3	13768.05
880.6898	1380.8652	14399.6	13467.55
880.8337	1382.7201	14117.7	13186.6
880.9776	1384.5742	13865.3	12930.8
881.1215	1386.4275	13696.45	12760.95
881.2653	1388.2802	13569.95	12635.8
881.4092	1390.132	13455.9	12519.85
881.553	1391.9832	13391.65	12455.25
881.6968	1393.8336	13253.7	12317.3
881.8406	1395.6832	13253.95	12315.6
881.9844	1397.5322	13203.35	12270.95
882.1282	1399.3803	13159.15	12216.85
882.272	1401.2278	13069.15	12135.6
882.4158	1403.0745	13076.7	12143
882.5595	1404.9204	13028.25	12098.75
882.7033	1406.7656	13030	12099.55
882.847	1408.6101	13040	12103.05
882.9908	1410.4538	13056.3	12119.3
883.1345	1412.2968	13098.25	12164.45
883.2782	1414.139	13132.8	12197.05
883.4219	1415.9805	13202.95	12266.95
883.5656	1417.8213	13237.45	12296.25
883.7092	1419.6613	13354.5	12420.7
883.8529	1421.5006	13524	12589.5
883.9965	1423.3391	13741	12806.25
884.1402	1425.1769	14023.45	13090.3
884.2838	1427.0139	14523.1	13587.45
884.4274	1428.8502	15015.2	14078.4
884.571	1430.6858	15558.95	14625.9
884.7146	1432.5206	15953.9	15022.2
884.8582	1434.3547	16195	15261.75
885.0018	1436.188	16197	15263.8
885.1453	1438.0206	16130.9	15198.25
885.2889	1439.8524	15956.8	15022.35
885.4324	1441.6835	15839.05	14907.4
885.5759	1443.5139	15706	14770.45
885.7194	1445.3435	15647.9	14716.05
885.8629	1447.1724	15630.85	14697.9
886.0064	1449.0005	15518.4	14584.95
886.1499	1450.8279	15436.6	14505.85
886.2933	1452.6545	15419.05	14489.8
886.4368	1454.4804	15420.6	14492.3
886.5802	1456.3056	15421.7	14485.85
886.7237	1458.13	15314.6	14386.05
886.8671	1459.9536	15101.25	14168.8
887.0105	1461.7766	14753.75	13820.3
887.1539	1463.5987	14382.95	13449.9
887.2972	1465.4202	14012.4	13079.35
887.4406	1467.2409	13642.5	12709.95
887.584	1469.0608	13379.7	12451.75
887.7273	1470.88	13120.7	12189.65
887.8706	1472.6984	12877.2	11947.55
888.0139	1474.5161	12672.95	11739.15
888.1572	1476.3331	12509.45	11578.7
888.3005	1478.1493	12411.25	11480
888.4438	1479.9648	12301.65	11371.1
888.5871	1481.7795	12213.35	11281.55
888.7303	1483.5935	12107.8	11174.1
888.8736	1485.4067	12055.65	11123
889.0168	1487.2192	12016.55	11086.95
889.16	1489.031	11947.4	11017.55
889.3032	1490.842	11896.1	10966.9
889.4464	1492.6522	11861.85	10930.7
889.5896	1494.4618	11820.25	10890.75
889.7327	1496.2705	11780.65	10850.85
889.8759	1498.0785	11748.35	10816.7
890.019	1499.8858	11688.7	10759.85
890.1622	1501.6924	11654.35	10724.15
890.3053	1503.4981	11621.5	10690.9
890.4484	1505.3032	11597.75	10670
890.5914	1507.1075	11534.2	10603.25
890.7345	1508.911	11505.95	10578.9
890.8776	1510.7138	11480.6	10550.6
891.0206	1512.5159	11415.25	10485.1
891.1637	1514.3172	11364.1	10439.45
891.3067	1516.1178	11277.2	10352.15
891.4497	1517.9176	11248.65	10318.7
891.5927	1519.7166	11211.45	10285.2
891.7357	1521.515	11167.9	10235.55
891.8786	1523.3126	11139.9	10211.1
892.0216	1525.1094	11075.25	10146.25
892.1645	1526.9055	11040.85	10114.75
892.3074	1528.7008	11024.1	10096.85
892.4503	1530.4954	10961.4	10035.9
892.5932	1532.2893	10958.75	10035.85
892.7361	1534.0824	10913.85	9983.55
892.879	1535.8747	10897.55	9975.55
893.0218	1537.6663	10871.6	9948.95
893.1647	1539.4572	10839.4	9916
893.3075	1541.2473	10831.2	9903.8
893.4503	1543.0367	10807.2	9884.4
893.5931	1544.8253	10784.35	9858.3
893.7359	1546.6132	10815.65	9888.5
893.8787	1548.4003	10774.25	9842.1
894.0214	1550.1867	10807.6	9876.85
894.1642	1551.9723	10827.3	9901.2
894.3069	1553.7572	10873.8	9951.8
894.4496	1555.5414	10889.2	9967.4
894.5923	1557.3247	10953.9	10035.4
894.735	1559.1074	11015.95	10097.9
894.8777	1560.8893	11067.2	10151.25
895.0204	1562.6705	11143.35	10226.35
895.163	1564.4509	11233.35	10316.1
895.3056	1566.2305	11291.2	10376.45
895.4482	1568.0094	11322.05	10407.7
895.5908	1569.7876	11359.3	10441.55
895.7334	1571.565	11348.8	10428.65
895.876	1573.3417	11362.75	10446.9
896.0186	1575.1176	11314.25	10400.95
896.1611	1576.8928	11281.4	10368.05
896.3036	1578.6672	11180.1	10271.1
896.4461	1580.4409	11076.65	10170.4
896.5886	1582.2138	11009.9	10097.6
896.7311	1583.986	10920.2	10006.2
896.8736	1585.7575	10873.3	9961
897.0161	1587.5282	10816.3	9907.95
897.1585	1589.2981	10793.35	9886.9
897.3009	1591.0673	10781.8	9873.1
897.4433	1592.8358	10804.2	9898.75
897.5857	1594.6035	10813	9902.05
897.7281	1596.3704	10821	9908.3
897.8705	1598.1366	10868.6	9958.25
898.0128	1599.9021	10908.75	9999.45
898.1551	1601.6668	10943.5	10031.85
898.2975	1603.4308	11001.7	10089.25
898.4398	1605.194	11119.15	10203.3
898.5821	1606.9564	11245.7	10342.35
898.7243	1608.7182	11387	10485.7
898.8666	1610.4791	11548.9	10653.85
899.0088	1612.2394	11718.65	10823.65
899.1511	1613.9988	11904.45	11007.5
899.2933	1615.7576	12081.45	11178.4
899.4355	1617.5156	12322.95	11407.8
899.5776	1619.2728	12494.2	11581.6
899.7198	1621.0293	12567.4	11658.05
899.862	1622.785	12553.35	11641.65
900.0041	1624.54	12405.55	11499.8
900.1462	1626.2942	12240.9	11340.5
900.2883	1628.0477	11927.8	11022.45
900.4304	1629.8005	11721.6	10813.4
900.5725	1631.5525	11497.45	10591.4
900.7145	1633.3037	11323.35	10421.05
900.8566	1635.0542	11168.5	10266.15
900.9986	1636.804	11064.45	10160.2
901.1406	1638.553	11013.95	10051.15
901.2826	1640.3013	10902.3	9999.3
901.4245	1642.0488	10894.85	9991.35
901.5665	1643.7955	10920.9	10020.9
901.7085	1645.5416	10983.8	10082.35
901.8504	1647.2868	11071.15	10171.1
901.9923	1649.0313	11149.6	10244.2
902.1342	1650.7751	11302.05	10397.7
902.2761	1652.5181	11420.4	10518.6
902.4179	1654.2604	11621.75	10721.75
902.5598	1656.0019	11826.05	10924.9
902.7016	1657.7427	12128.2	11228.8
902.8434	1659.4828	12404.2	11500.85
902.9852	1661.222	12560.25	11654.95
903.127	1662.9606	12563.65	11659.15
903.2687	1664.6984	12343.1	11435.95
903.4105	1666.4354	11950.25	11044.8
903.5522	1668.1717	11410.1	10504.2
903.6939	1669.9072	10899.55	9994.05
903.8356	1671.642	10446.4	9537.2
903.9773	1673.3761	10095.8	9190.9
904.119	1675.1094	9818.8	8915.45
904.2606	1676.8419	9594.55	8690.55
904.4022	1678.5737	9388.2	8485.05
904.5439	1680.3048	9256.1	8348.05
904.6855	1682.0351	9152.05	8247.4
904.827	1683.7646	9035.2	8127.05
904.9686	1685.4934	8969.15	8065.05
905.1101	1687.2215	8866.15	7964.2
905.2517	1688.9488	8790.95	7888.75
905.3932	1690.6754	8710.75	7806.9
905.5347	1692.4012	8711	7805.65
905.6761	1694.1263	8650.2	7745.9
905.8176	1695.8506	8628.25	7727.75
905.9591	1697.5742	8559.15	7659.8
906.1005	1699.297	8516.4	7620.1
906.2419	1701.0191	8462.05	7567.35
906.3833	1702.7404	8426.9	7529.75
906.5246	1704.461	8387.25	7485.95
906.666	1706.1808	8343.8	7442.1
906.8073	1707.8999	8294.55	7393.9
906.9487	1709.6182	8266.25	7370
907.09	1711.3358	8228.6	7337.3
907.2313	1713.0527	8203.8	7312.2
907.3725	1714.7688	8166.75	7266.05
907.5138	1716.4841	8129.5	7231.95
907.655	1718.1987	8125.1	7222.1
907.7962	1719.9126	8099.5	7203.85
907.9374	1721.6257	8046.7	7153.2
908.0786	1723.338	8035.3	7144.55
908.2198	1725.0496	7986.35	7090.95
908.3609	1726.7605	7954.85	7058.35
908.502	1728.4706	7931.6	7034.5
908.6431	1730.18	7907.75	7012.55
908.7842	1731.8886	7896.5	7003.95
908.9253	1733.5964	7870.1	6954.8
909.0664	1735.3036	7831.85	6936.1
909.2074	1737.0099	7799.1	6905.1
909.3484	1738.7156	7779.4	6885.8
909.4894	1740.4204	7744.65	6846.3
909.6304	1742.1246	7720.95	6823.5
909.7714	1743.8279	7688.45	6795.45
909.9123	1745.5306	7677.45	6784
910.0532	1747.2325	7661.7	6769.05
910.1941	1748.9336	7623.75	6729.7
910.335	1750.634	7574.75	6677.55
910.4759	1752.3336	7563.3	6668.65
910.6168	1754.0325	7569.55	6677.35
910.7576	1755.7307	7536.1	6645.8
910.8984	1757.4281	7560.7	6666.75
911.0392	1759.1247	7544.15	6640.1
911.18	1760.8206	7508.3	6606.4
911.3208	1762.5158	7496.7	6593.55
911.4615	1764.2102	7476.65	6581.05
911.6022	1765.9039	7418.75	6524.1
911.7429	1767.5968	7398.95	6508.95
911.8836	1769.289	7371.1	6478.2
912.0243	1770.9804	7351.5	6457.75
912.1649	1772.6711	7346.55	6448.45
912.3056	1774.361	7336.8	6439.55
912.4462	1776.0502	7306.95	6409.9
912.5868	1777.7386	7319.6	6422.6
912.7274	1779.4263	7273.95	6380.05
912.8679	1781.1132	7285.9	6397.05
913.0084	1782.7994	7254.55	6362.65
913.149	1784.4849	7237.25	6347.75
913.2895	1786.1696	7229.45	6334.7
913.4299	1787.8535	7203.2	6313
913.5704	1789.5367	7170.5	6281
913.7108	1791.2192	7195.5	6306.75
913.8513	1792.9009	7145.8	6226.55
913.9917	1794.5818	7117.1	6221.85
914.132	1796.2621	7100.5	6207.65
914.2724	1797.9415	7099.85	6205.5
914.4128	1799.6202	7096.65	6202.2
914.5531	1801.2982	7074.7	6179.2
914.6934	1802.9755	7058.85	6164.2
914.8337	1804.6519	7053.75	6158.75
914.9739	1806.3277	7006.45	6117.05
915.1142	1808.0027	6976.25	6087.65
915.2544	1809.6769	6967.2	6080.15
915.3946	1811.3504	6952.35	6063.75
915.5348	1813.0231	6936.25	6046.95
915.675	1814.6951	6926.3	6033.05
915.8151	1816.3664	6915.65	6021.65
915.9553	1818.0369	6896.65	6004.1
916.0954	1819.7067	6895.15	6002.5
916.2355	1821.3757	6888	5993.5
916.3755	1823.044	6861.2	5966.5
916.5156	1824.7115	6851.9	5958.5
916.6556	1826.3783	6841.2	5947
916.7956	1828.0443	6810.3	5918.25
916.9356	1829.7096	6792.45	5899.65
917.0756	1831.3741	6789.15	5893.35
917.2155	1833.0379	6762.8	5873.7
917.3555	1834.701	6725.7	5835.95
917.4954	1836.3633	6732.55	5843.5
917.6353	1838.0248	6703.35	5812.15
917.7751	1839.6856	6677.45	5785.55
917.915	1841.3457	6678.55	5786.5
918.0548	1843.005	6677.7	5784.45
918.1946	1844.6636	6669.65	5778.65
918.3344	1846.3214	6651.2	5761.7
918.4742	1847.9785	6625.8	5736.6
918.6139	1849.6349	6620.85	5728.95
918.7537	1851.2904	6625.6	5721.85
918.8934	1852.9453	6604.95	5709.55
919.0331	1854.5994	6580.55	5682.65
919.1727	1856.2528	6570.25	5670.9
919.3124	1857.9054	6578.35	5685.3
919.452	1859.5572	6560.8	5668.15
919.5916	1861.2083	6530.9	5636.65
919.7312	1862.8587	6532.55	5640.5
919.8708	1864.5084	6525.7	5629.55
920.0103	1866.1572	6506.65	5613.65
920.1498	1867.8054	6484.3	5588.45
920.2893	1869.4528	6462.15	5567.4
920.4288	1871.0994	6450.2	5554.5
920.5683	1872.7453	6437.25	5540.15
920.7077	1874.3905	6409.3	5498.1
920.8471	1876.0349	6400.2	5504.6
920.9865	1877.6786	6402.9	5507.6
921.1259	1879.3215	6363	5470.55
921.2653	1880.9637	6365.55	5472.4
921.4046	1882.6051	6364.15	5473.95
921.5439	1884.2458	6334.55	5442.4
921.6832	1885.8858	6310.3	5417.8
921.8225	1887.525	6292.35	5400.1
921.9617	1889.1634	6296.4	5404.7
922.101	1890.8011	6280.4	5386.55
922.2402	1892.4381	6245.95	5353.8
922.3794	1894.0743	6231.5	5339.65
922.5185	1895.7098	6233.25	5341.75
922.6577	1897.3446	6201.5	5308.4
922.7968	1898.9786	6214.15	5315.85
922.9359	1900.6118	6201.2	5309.6
923.075	1902.2443	6168.95	5277.45
923.214	1903.8761	6150.85	5258.35
923.3531	1905.5071	6127	5234.55
923.4921	1907.1374	6103.6	5211.1
923.6311	1908.7669	6080.9	5190.7
923.77	1910.3957	6089.1	5199.25
923.909	1912.0237	6055.65	5165.95
924.0479	1913.651	6037.75	5144.35
924.1868	1915.2776	6017.7	5127.65
924.3257	1916.9034	5997.2	5107.95
924.4646	1918.5285	5974.7	5087.25
924.6034	1920.1528	5963.35	5071.15
924.7422	1921.7764	5968	5077.15
924.881	1923.3992	5953.35	5061.45
925.0198	1925.0213	5899.9	5006.6
925.1586	1926.6427	5877.6	4986.7
925.2973	1928.2633	6043.6	4946.2
925.436	1929.8832	5886.2	4990.25
925.5747	1931.5023	5841.1	4952.05
925.7134	1933.1207	5832.1	4940.25
925.852	1934.7383	5806.05	4913.55
925.9906	1936.3552	5784.3	4895.9
926.1292	1937.9714	5768.75	4877.2
926.2678	1939.5868	5756.75	4863.55
926.4064	1941.2015	5719.4	4825.65
926.5449	1942.8154	5711.2	4817.7
926.6834	1944.4286	5677.8	4785.35
926.8219	1946.041	5693.1	4779.55
926.9604	1947.6528	5626.95	4731.4
927.0988	1949.2637	5638.35	4749.6
927.2372	1950.8739	5618.6	4732.45
927.3756	1952.4834	5592.5	4700.45
927.514	1954.0921	5584.75	4694.4
927.6523	1955.7001	5559.5	4667
927.7907	1957.3074	5556.6	4670.7
927.929	1958.9139	5528.45	4641.05
928.0673	1960.5197	5505.3	4616.8
928.2055	1962.1247	5475.7	4586.4
928.3438	1963.729	5461	4576.2
928.482	1965.3325	5445.25	4554.1
928.6202	1966.9353	5435.65	4549.75
928.7584	1968.5374	5431.9	4547.15
928.8965	1970.1387	5397.75	4508.75
929.0346	1971.7393	5392.75	4506.2
929.1727	1973.3392	5385.65	4497.5
929.3108	1974.9383	5364.45	4478.65
929.4489	1976.5366	5328.9	4443.4
929.5869	1978.1342	5324.9	4440.6
929.7249	1979.7311	5321.95	4437.7
929.8629	1981.3273	5310.25	4424.75
930.0009	1982.9227	5308.65	4421.6
930.1388	1984.5173	5263.8	4380.6
930.2767	1986.1112	5243.8	4360.25
930.4146	1987.7044	5237.85	4352.75
930.5525	1989.2968	5219.55	4334.05
930.6904	1990.8885	5218.55	4329.6
930.8282	1992.4795	5211.4	4328.5
930.966	1994.0697	5198.45	4315.75
931.1038	1995.6592	5161.15	4278.2
931.2415	1997.2479	5161.2	4276.55
931.3793	1998.8359	5146.6	4263.7
931.517	2000.4232	5117.2	4239.45
931.6547	2002.0097	5096.35	4218.4
931.7923	2003.5955	5076.85	4195.65
931.93	2005.1805	5090.7	4206.5
932.0676	2006.7648	5061.25	4180.85
932.2052	2008.3484	5051.7	4171
932.3427	2009.9312	5054.35	4175.7
932.4803	2011.5133	5028.15	4148.15
932.6178	2013.0946	5009.15	4129.4
932.7553	2014.6752	5015.6	4137.05
932.8928	2016.2551	5010.7	4128.65
933.0302	2017.8342	4999.1	4116.2
933.1676	2019.4126	4969.9	4090.55
933.305	2020.9902	4949.8	4073.05
933.4424	2022.5672	4935.2	4056.9
933.5798	2024.1433	4917.9	4035.05
933.7171	2025.7188	4916.6	4040.25
933.8544	2027.2935	4908.2	4028.85
933.9917	2028.8674	4887.9	4011.05
934.129	2030.4406	4851.1	3973.9
934.2662	2032.0131	4835.25	3960.6
934.4034	2033.5849	4832.55	3952.5
934.5406	2035.1559	4841.5	3962.95
934.6778	2036.7261	4831.3	3951.35
934.8149	2038.2957	4821.05	3940.4
934.952	2039.8645	4820.25	3935.45
935.0891	2041.4325	4821.95	3935.9
935.2262	2042.9998	4800.35	3919.3
935.3632	2044.5664	4761.55	3879.8
935.5002	2046.1323	4761.25	3884.7
935.6372	2047.6974	4747.55	3870.25
935.7742	2049.2617	4723.3	3847
935.9111	2050.8254	4755.15	3842.65
936.048	2052.3883	4734.95	3853.65
936.1849	2053.9504	4712.35	3827.3
936.3218	2055.5118	4687.85	3805.1
936.4586	2057.0725	4672.5	3788.4
936.5955	2058.6325	4680.55	3801.6
936.7323	2060.1917	4671.25	3792.5
936.869	2061.7502	4663.65	3780.8
937.0058	2063.3079	4630.8	3754.55
937.1425	2064.8649	4633.1	3750.15
937.2792	2066.4212	4617.15	3736.25
937.4159	2067.9767	4590.25	3709.05
937.5525	2069.5315	4571	3689.55
937.6891	2071.0856	4584.3	3702
937.8257	2072.6389	4564.45	3687.1
937.9623	2074.1915	4527.1	3651.2
938.0989	2075.7433	4502.55	3620.8
938.2354	2077.2945	4516.5	3638.55
938.3719	2078.8448	4495.4	3612.25
938.5084	2080.3945	4491.7	3608.85
938.6448	2081.9434	4492.8	3610.75
938.7812	2083.4916	4466.65	3580.9
938.9176	2085.039	4455.4	3569.1
939.054	2086.5857	4466.25	3574.3
939.1903	2088.1317	4446.9	3558
939.3267	2089.677	4440.75	3551
939.463	2091.2215	4420.05	3529.35
939.5992	2092.7652	4409.3	3519.6
939.7355	2094.3083	4400.7	3510.45
939.8717	2095.8506	4392.35	3506.35
940.0079	2097.3921	4392.8	3508.5
940.1441	2098.933	4377.45	3493.5
940.2802	2100.4731	4361.9	3475.9
940.4163	2102.0124	4365.05	3473.35
940.5524	2103.5511	4357	3471.3
940.6885	2105.089	4345.7	3459.45
940.8245	2106.6261	4320.6	3436.4
940.9606	2108.1626	4324	3439.55
941.0965	2109.6983	4326.65	3414.15
941.2325	2111.2332	4298	3413
941.3684	2112.7675	4289.05	3400.6
941.5044	2114.301	4289.65	3401.85
941.6403	2115.8337	4281.15	3396.55
941.7761	2117.3657	4269.25	3382.7
941.912	2118.897	4268.8	3380.1
942.0478	2120.4276	4263.4	3367.75
942.1835	2121.9575	4227	3336.2
942.3193	2123.4866	4243.75	3355.6
942.455	2125.0149	4220.6	3332.9
942.5907	2126.5426	4199.35	3318.45
942.7264	2128.0695	4182	3295.65
942.8621	2129.5956	4179.8	3301.7
942.9977	2131.1211	4167.75	3281.6
943.1333	2132.6458	4174.85	3290.6
943.2689	2134.1698	4157	3269.7
943.4044	2135.693	4152.55	3263.8
943.54	2137.2155	4145.1	3256.3
943.6755	2138.7373	4123.25	3237.9
943.8109	2140.2584	4120.2	3239.15
943.9464	2141.7787	4116.3	3230.45
944.0818	2143.2983	4074.45	3197.85
944.2172	2144.8171	4072.3	3194
944.3526	2146.3353	4065.8	3181.35
944.4879	2147.8527	4042.8	3161.05
944.6232	2149.3693	4058.8	3170.55
944.7585	2150.8853	4039.9	3151.95
944.8938	2152.4005	4029.1	3141.45
945.029	2153.9149	4027.4	3140.1
945.1642	2155.4287	4028.45	3139.45
945.2994	2156.9417	4019.75	3134.4
945.4346	2158.454	3997.1	3112.05
945.5697	2159.9655	3999.6	3116.85
945.7048	2161.4764	3982.75	3100.95
945.8399	2162.9865	3972.5	3089.2
945.9749	2164.4958	3970.05	3088.05
946.1099	2166.0045	3955.4	3069.5
946.2449	2167.5124	3951.05	3068.4
946.3799	2169.0195	3950.9	3065.7
946.5148	2170.526	3946.45	3060.15
946.6498	2172.0317	3913.8	3028.35
946.7846	2173.5367	3899.25	3011.65
946.9195	2175.0409	3910.15	3027.5
947.0543	2176.5445	3908.55	3024.45
947.1891	2178.0473	3886.5	2997.95
947.3239	2179.5494	3878.25	2987.15
947.4587	2181.0507	3868.4	2982.6
947.5934	2182.5513	3863.9	2977.1
947.7281	2184.0512	3863.1	2977
947.8628	2185.5504	3845.6	2957.25
947.9974	2187.0488	3817.3	2934.5
948.132	2188.5465	3811.15	2929.2
948.2666	2190.0435	3814.75	2929.95
948.4012	2191.5397	3800.05	2914.25
948.5357	2193.0353	3781.9	2892.05
948.6702	2194.5301	3765.7	2876.25
948.8047	2196.0241	3768.3	2878.4
948.9392	2197.5175	3761.1	2867.85
949.0736	2199.0101	3761.45	2867.85
949.208	2200.502	3723.8	2839.65
949.3424	2201.9931	3711.15	2826.85
949.4767	2203.4835	3719.3	2835.35
949.611	2204.9733	3711.4	2822.15
949.7453	2206.4622	3695.45	2814.35
949.8796	2207.9505	3684.05	2799.8
950.0138	2209.438	3657.15	2777.15
950.148	2210.9248	3657.4	2775.2
950.2822	2212.4109	3659.2	2775.15
950.4164	2213.8962	3653.65	2762.85
950.5505	2215.3809	3643.8	2754.15
950.6846	2216.8648	3626.85	2734.75
950.8186	2218.3479	3629	2733.05
950.9527	2219.8304	3620.4	2724.1
951.0867	2221.3121	3606.5	2712.55
951.2207	2222.7931	3588.15	2700.4
951.3546	2224.2733	3587.45	2698.5
951.4886	2225.7529	3575.6	2687.2
951.6225	2227.2317	3561.3	2672.65
951.7563	2228.7098	3561.3	2678.5
951.8902	2230.1872	3537.6	2655.55
952.024	2231.6638	3535.55	2652.15
952.1578	2233.1397	3518.35	2635.2
952.2916	2234.6149	3522.9	2642
952.4253	2236.0894	3514.35	2630.25
952.559	2237.5632	3520	2624.85
952.6927	2239.0362	3487.85	2601.75
952.8263	2240.5085	3483.75	2599.5
952.9599	2241.9801	3478.3	2593.4
953.0935	2243.4509	3459	2571.1
953.2271	2244.921	3453.75	2565.95
953.3606	2246.3904	3446.2	2555.2
953.4941	2247.8591	3434.5	2546.55
953.6276	2249.3271	3420.7	2533.2
953.7611	2250.7943	3428.7	2541.05
953.8945	2252.2608	3423	2532.9
954.0279	2253.7266	3389.95	2500.7
954.1612	2255.1917	3389.05	2502.1
954.2946	2256.656	3380.25	2494.55
954.4279	2258.1197	3373.5	2486.9
954.5612	2259.5826	3367.95	2479.15
954.6944	2261.0447	3361.85	2473.15
954.8276	2262.5062	3351.95	2463.5
954.9608	2263.9669	3352.95	2465.7
955.094	2265.4269	3346.75	2459.75
955.2271	2266.8862	3336.8	2451.3
955.3602	2268.3448	3343.6	2456.7
955.4933	2269.8026	3328.1	2444.4
955.6264	2271.2598	3305.55	2419.25
955.7594	2272.7162	3303.4	2418.15
955.8924	2274.1719	3308.65	2421.3
956.0253	2275.6268	3293.7	2405.2
956.1583	2277.0811	3281.4	2392.75
956.2912	2278.5346	3281.7	2396.65
956.4241	2279.9874	3271.4	2384.8
956.5569	2281.4395	3269.9	2386.8
956.6897	2282.8908	3267.2	2376.8
956.8225	2284.3414	3259.45	2371.55
956.9553	2285.7914	3252	2365.45
957.088	2287.2406	3244.5	2355.8
957.2207	2288.689	3238.55	2348.15
957.3534	2290.1368	3228.15	2335.35
957.486	2291.5838	3238.65	2342.75
957.6186	2293.0302	3218.45	2326.65
957.7512	2294.4758	3197.3	2307.5
957.8838	2295.9206	3203.2	2315.25
958.0163	2297.3648	3195.25	2309.75
958.1488	2298.8082	3185.6	2299
958.2813	2300.251	3183.2	2296.75
958.4137	2301.693	3171.65	2279.2
958.5461	2303.1343	3166.8	2275.5
958.6785	2304.5748	3151.3	2265.3
958.8108	2306.0147	3151.2	2265.9
958.9432	2307.4538	3140.05	2253.05
959.0754	2308.8922	3132.55	2249.5
959.2077	2310.3299	3124.1	2240.55
959.3399	2311.7669	3124.95	2241.65
959.4721	2313.2031	3115.7	2229.4
959.6043	2314.6387	3111.3	2223.5
959.7365	2316.0735	3088.75	2199.8
959.8686	2317.5076	3088.8	2200.2
960.0006	2318.941	3081.15	2190.65
960.1327	2320.3737	3074.95	2183.45
960.2647	2321.8056	3070	2179.55
960.3967	2323.2369	3071.55	2183.45
960.5287	2324.6674	3058.4	2167.9
960.6606	2326.0972	3058.4	2172.25
960.7925	2327.5263	3037.8	2150.8
960.9244	2328.9547	3043.2	2157.6
961.0562	2330.3823	3036.5	2146.55
961.1881	2331.8092	3038.35	2144.9
961.3198	2333.2355	3012.3	2125.7
961.4516	2334.661	3018.1	2128.15
961.5833	2336.0858	3005.3	2115.65
961.715	2337.5098	2982.9	2094.9
961.8467	2338.9332	2986.85	2099.1
961.9783	2340.3558	2992.05	2102.65
962.1099	2341.7778	2986.05	2099.75
962.2415	2343.199	2978.6	2092.25
962.373	2344.6195	2968.65	2082.5
962.5045	2346.0393	2973.8	2089.15
962.636	2347.4583	2961.7	2075.75
962.7675	2348.8767	2954.75	2065.35
962.8989	2350.2943	2954.6	2064.5
963.0303	2351.7113	2968.1	2074.9
963.1617	2353.1275	2935.5	2043.9
963.293	2354.543	2941.9	2043.95
963.4243	2355.9578	2924.45	2034.15
963.5556	2357.3718	2899.2	2013.65
963.6868	2358.7852	2899.75	2012.45
963.818	2360.1978	2889.55	2003.85
963.9492	2361.6098	2883.95	2000.35
964.0803	2363.021	2898.35	2007.25
964.2114	2364.4315	2884.3	1998.2
964.3425	2365.8413	2877.8	1992
964.4736	2367.2504	2872.35	1987.3
964.6046	2368.6587	2859.95	1976.3
964.7356	2370.0664	2855.2	1968.9
964.8666	2371.4733	2833.9	1946.95
964.9975	2372.8795	2838.2	1953.6
965.1284	2374.285	2826.75	1941.6
965.2593	2375.6899	2820.4	1938.65
965.3901	2377.0939	2797.7	1914.95
965.5209	2378.4973	2791.1	1906.9
965.6517	2379.9	2808.85	1925.25
965.7825	2381.3019	2791.35	1907.5
965.9132	2382.7032	2789.15	1907.95
966.0439	2384.1037	2774.65	1890.3
966.1745	2385.5035	2771.5	1890.3
966.3051	2386.9027	2752.7	1871.55
966.4357	2388.3011	2754.8	1871.3
966.5663	2389.6987	2746.25	1862.15
966.6968	2391.0957	2749.3	1868.05
966.8273	2392.492	2731.1	1850.75
966.9578	2393.8876	2723.35	1841.65
967.0882	2395.2824	2718.65	1836.25
967.2186	2396.6765	2704.6	1823
967.349	2398.07	2702.7	1820.45
967.4793	2399.4627	2701.3	1814.3
967.6097	2400.8547	2697.85	1813.1
967.7399	2402.246	2702.5	1811.65
967.8702	2403.6366	2679.95	1797.55
968.0004	2405.0265	2670.8	1788.3
968.1306	2406.4156	2667.7	1781.6
968.2607	2407.8041	2664.25	1779.4
968.3909	2409.1918	2665.95	1780.35
968.521	2410.5789	2647.2	1764.1
968.651	2411.9652	2652.95	1765.8
968.781	2413.3508	2632.6	1748.85
968.911	2414.7358	2629.85	1747.35
969.041	2416.12	2624.6	1741.2
969.1709	2417.5035	2628.3	1746.3
969.3008	2418.8863	2606.5	1724.35
969.4307	2420.2684	2605.5	1720.9
969.5606	2421.6497	2599.25	1714.75
969.6904	2423.0304	2587.25	1703.15
969.8201	2424.4104	2588.8	1705.4
969.9499	2425.7896	2581.15	1696.1
970.0796	2427.1682	2582.55	1697.9
970.2093	2428.546	2570.55	1686.05
970.3389	2429.9232	2578.65	1692.65
970.4685	2431.2996	2566.7	1682.1
970.5981	2432.6753	2562.65	1677.3
970.7277	2434.0503	2567.7	1682.65
970.8572	2435.4246	2559.1	1674.55
970.9867	2436.7982	2542.3	1655.5
971.1161	2438.1711	2538.7	1653.6
971.2456	2439.5433	2534.45	1648
971.375	2440.9148	2521.95	1632.45
971.5043	2442.2856	2507.85	1624.95
971.6336	2443.6557	2514.8	1629.2
971.7629	2445.025	2503.65	1621.3
971.8922	2446.3937	2498.7	1612.2
972.0214	2447.7617	2493.65	1605.45
972.1506	2449.1289	2498.9	1615.1
972.2798	2450.4955	2487.25	1599.05
972.4089	2451.8613	2479	1594.5
972.538	2453.2265	2472.65	1590
972.6671	2454.5909	2460.5	1576.25
972.7961	2455.9546	2468.75	1586.15
972.9251	2457.3177	2465.5	1582.8
973.0541	2458.68	2465.7	1579.75
973.1831	2460.0416	2448.6	1564.6
973.312	2461.4025	2458.45	1571.5
973.4408	2462.7627	2466.95	1572.3
973.5697	2464.1222	2433.05	1552.6
973.6985	2465.4811	2436.5	1551
973.8273	2466.8392	2422.8	1537.5
973.956	2468.1966	2425.8	1539.05
974.0847	2469.5533	2427.75	1541.7
974.2134	2470.9093	2421.45	1537.6
974.3421	2472.2645	2422.3	1536.55
974.4707	2473.6191	2416.1	1533.55
974.5993	2474.973	2414.25	1530.8
974.7278	2476.3262	2406.8	1521.05
974.8563	2477.6787	2404.7	1523.15
974.9848	2479.0305	2383.35	1500.3
975.1132	2480.3816	2381.15	1494.95
975.2417	2481.7319	2386.1	1501.65
975.37	2483.0816	2389.15	1501.9
975.4984	2484.4306	2374.35	1491.45
975.6267	2485.7789	2351.15	1466.1
975.755	2487.1264	2358.8	1474.85
975.8833	2488.4733	2346.85	1463.85
976.0115	2489.8195	2359.6	1468.45
976.1397	2491.165	2350.55	1464.15
976.2678	2492.5097	2333.6	1446.6
976.3959	2493.8538	2333.65	1449.65
976.524	2495.1972	2313.8	1429.9
976.6521	2496.5398	2321.5	1435.85
976.7801	2497.8818	2316.65	1430.5
976.9081	2499.2231	2319.8	1433.6
977.036	2500.5637	2306.95	1418.85
977.164	2501.9035	2294.55	1406
977.2918	2503.2427	2300.2	1411.05
977.4197	2504.5812	2292.6	1406.8
977.5475	2505.919	2295.05	1408.4
977.6753	2507.256	2283.65	1398.8
977.8031	2508.5924	2283.75	1397.8
977.9308	2509.9281	2284.15	1393.85
978.0585	2511.2631	2265.95	1383.25
978.1861	2512.5974	2260.55	1375.4
978.3137	2513.9309	2260.9	1377.9
978.4413	2515.2638	2279.05	1368.4
978.5689	2516.596	2243.55	1357.75
978.6964	2517.9275	2241.05	1355.5
978.8239	2519.2583	2239.35	1353.8
978.9513	2520.5884	2237.35	1351.9
979.0788	2521.9178	2228.8	1345.05
979.2062	2523.2465	2233.25	1349.6
979.3335	2524.5745	2215.1	1332.3
979.4608	2525.9018	2207.3	1322.45
979.5881	2527.2284	2209.95	1325.9
979.7154	2528.5543	2211.6	1327.55
979.8426	2529.8796	2212.6	1329.7
979.9698	2531.2041	2210.45	1325.4
980.0969	2532.5279	2186.55	1301.95
980.224	2533.851	2204.55	1319.85
980.3511	2535.1735	2193.7	1307.5
980.4781	2536.4952	2185.9	1299.9
980.6052	2537.8163	2188.1	1300.85
980.7321	2539.1366	2189.55	1304.15
980.8591	2540.4562	2182.4	1295.95
980.986	2541.7752	2172.7	1287.35
981.1129	2543.0935	2173	1286.55
981.2397	2544.411	2159.45	1273.8
981.3665	2545.7279	2166.5	1282.25
981.4933	2547.0441	2167.85	1280.85
981.62	2548.3596	2163.85	1276.2
981.7467	2549.6744	2151.05	1264.9
981.8734	2550.9885	2159.15	1273.55
982.0001	2552.3019	2144.2	1258.5
982.1267	2553.6146	2160	1272.9
982.2532	2554.9266	2143.5	1258.3
982.3798	2556.2379	2136.9	1250.4
982.5063	2557.5485	2126.9	1243.7
982.6327	2558.8585	2138.05	1246.15
982.7592	2560.1677	2141.05	1251.4
982.8856	2561.4762	2134.7	1250.2
983.0119	2562.7841	2124.45	1235.95
983.1383	2564.0913	2127.75	1244.1
983.2646	2565.3977	2127.9	1242.2
983.3908	2566.7035	2111.5	1223.45
983.517	2568.0086	2128.75	1244.15
983.6432	2569.313	2112.9	1225.15
983.7694	2570.6167	2107.05	1217.25
983.8955	2571.9197	2114	1228.05
984.0216	2573.222	2108.65	1222.2
984.1476	2574.5236	2099.45	1213.2
984.2737	2575.8246	2099.55	1211.4
984.3996	2577.1248	2108.05	1218.5
984.5256	2578.4244	2093.75	1207.75
984.6515	2579.7232	2096.1	1210.6
984.7774	2581.0214	2119.1	1207.75
984.9032	2582.3189	2084.65	1199.35
985.029	2583.6157	2089.45	1199
985.1548	2584.9118	2082.85	1197.25
985.2806	2586.2072	2074.4	1189.05
985.4063	2587.5019	2082.45	1197.05
985.5319	2588.7959	2083.8	1196.75
985.6576	2590.0893	2084.15	1196.3
985.7832	2591.3819	2085.45	1198.25
985.9087	2592.6739	2073.8	1188.6
986.0343	2593.9652	2075.4	1188.8
986.1597	2595.2557	2081.25	1195.75
986.2852	2596.5456	2070.45	1181.55
986.4106	2597.8348	2063.25	1176.7
986.536	2599.1234	2057.35	1171.25
986.6614	2600.4112	2051.35	1165.8
986.7867	2601.6983	2066.35	1178.95
986.912	2602.9848	2056.4	1171.9
987.0372	2604.2705	2056.65	1164.5
987.1624	2605.5556	2046.8	1159.9
987.2876	2606.84	2046.05	1161.25
987.4128	2608.1237	2037.9	1152.5
987.5379	2609.4067	2038.15	1151.05
987.6629	2610.689	2040.55	1148.8
987.788	2611.9707	2036.6	1146.45
987.913	2613.2516	2038	1148.65
988.0379	2614.5319	2022.7	1137.45
988.1629	2615.8115	2007.8	1121.55
988.2878	2617.0903	2008.85	1124.55
988.4126	2618.3685	2006.75	1122.35
988.5375	2619.6461	2001.45	1117.4
988.6622	2620.9229	1993.9	1108.95
988.787	2622.199	1998.25	1112.25
988.9117	2623.4745	1996.65	1111.45
989.0364	2624.7493	1986.05	1101.35
989.161	2626.0234	1984.65	1101.35
989.2857	2627.2968	1987.4	1103.35
989.4102	2628.5695	1988.6	1099.65
989.5348	2629.8415	1983.55	1100.75
989.6593	2631.1128	1984.35	1097.95
989.7837	2632.3835	1969	1084.4
989.9082	2633.6535	1965.6	1079.95
990.0326	2634.9228	1959.45	1076.15
990.1569	2636.1914	1967.6	1081.4
990.2812	2637.4593	1964	1076.65
990.4055	2638.7265	1956.2	1070.65
990.5298	2639.9931	1949.85	1067.95
990.654	2641.259	1951.4	1065
990.7782	2642.5242	1940.75	1056.8
990.9023	2643.7887	1944.55	1059.1
991.0264	2645.0525	1935.25	1051.5
991.1505	2646.3156	1936.85	1050.7
991.2745	2647.5781	1926	1039.3
991.3985	2648.8398	1919.45	1036.25
991.5225	2650.1009	1940.45	1046.55
991.6464	2651.3613	1931.35	1047.05
991.7703	2652.6211	1914.2	1031.15
991.8942	2653.8801	1918.65	1034.15
992.018	2655.1385	1914.9	1027.8
992.1418	2656.3961	1905.85	1021.6
992.2655	2657.6531	1914.3	1027.55
992.3892	2658.9094	1909.45	1024.7
992.5129	2660.1651	1914.65	1031.1
992.6366	2661.42	1909.3	1024.6
992.7602	2662.6743	1914	1030.9
992.8837	2663.9279	1908.85	1023.45
993.0073	2665.1808	1907.4	1024.5
993.1307	2666.433	1910.25	1022.1
993.2542	2667.6846	1894.85	1011.05
993.3776	2668.9354	1910	1024
993.501	2670.1856	1906.4	1020.1
993.6244	2671.4351	1902.05	1017.4
993.7477	2672.6839	1910.05	1025.75
993.8709	2673.9321	1912.1	1030.1
993.9942	2675.1795	1905.1	1019.2
994.1174	2676.4263	1912.3	1028.9
994.2405	2677.6724	1904.15	1021.7
994.3637	2678.9179	1902.3	1017.95
994.4868	2680.1626	1898.7	1013.4
994.6098	2681.4067	1892.65	1007.95
994.7328	2682.6501	1897.35	1012.8
994.8558	2683.8928	1901.15	1016
994.9788	2685.1348	1888.25	1003.65
995.1017	2686.3761	1883.65	1000.5
995.2245	2687.6168	1880.15	996.25
995.3474	2688.8568	1867.65	984
995.4702	2690.0961	1867.2	982.7
995.5929	2691.3348	1859.9	975.3
995.7156	2692.5727	1861.85	974.75
995.8383	2693.81	1859.35	976.5
995.961	2695.0466	1849.4	966.35
996.0836	2696.2826	1861.2	977.05
996.2062	2697.5178	1861.2	973
996.3287	2698.7524	1846.1	962.85
996.4512	2699.9863	1849.1	962.9
996.5737	2701.2195	1847.1	962.6
996.6961	2702.452	1858.35	973.5
996.8185	2703.6839	1854.05	968.7
996.9408	2704.9151	1853.65	971
997.0631	2706.1456	1859.3	974.55
997.1854	2707.3755	1866.35	981.4
997.3077	2708.6046	1865.65	980.35
997.4299	2709.8331	1871.8	988.2
997.552	2711.0609	1871.75	986.5
997.6742	2712.2881	1887.55	1004.15
997.7963	2713.5145	1891.95	1005.7
997.9183	2714.7403	1894.05	1012.95
998.0403	2715.9654	1907	1021.4
998.1623	2717.1899	1917.9	1017.95
998.2842	2718.4136	1924	1040.7
998.4062	2719.6367	1934.65	1051.1
998.528	2720.8591	1942.95	1052.6
998.6498	2722.0809	1946.05	1062.7
998.7716	2723.3019	1942.4	1053.5
998.8934	2724.5223	1965.3	1080.7
999.0151	2725.7421	1956.45	1071.95
999.1368	2726.9611	1970.2	1084
999.2584	2728.1795	1962.1	1072.8
999.38	2729.3972	1957.5	1073.75
999.5016	2730.6142	1950.25	1053.75
999.6231	2731.8306	1916.5	1033.2
999.7446	2733.0462	1910.15	1024.15
999.8661	2734.2612	1895.35	1007.7
999.9875	2735.4756	1877.85	992.3
1000.1089	2736.6892	1854.3	970.1
1000.2302	2737.9022	1840.25	959.4
1000.3515	2739.1145	1836.9	953.45
1000.4728	2740.3262	1818.7	927.35
1000.594	2741.5372	1803.95	921
1000.7152	2742.7475	1792.5	910.05
1000.8363	2743.9571	1777.9	893.3
1000.9575	2745.1661	1769.25	881.75
1001.0785	2746.3744	1759.5	878.35
1001.1996	2747.582	1750.85	868.05
1001.3206	2748.7889	1737.15	854
1001.4415	2749.9952	1726.05	845
1001.5625	2751.2008	1723.5	840.6
1001.6833	2752.4057	1712.7	827.15
1001.8042	2753.61	1714.2	830.9
1001.925	2754.8136	1707.15	825.8
1002.0458	2756.0165	1706.7	822.8
1002.1665	2757.2188	1707.15	824.2
1002.2872	2758.4204	1703.6	820.6
1002.4078	2759.6213	1701.75	815.75
1002.5285	2760.8215	1700.9	815.35
1002.649	2762.0211	1698.4	814.35
1002.7696	2763.22	1697.65	811.75
1002.8901	2764.4182	1700.6	815.4
1003.0106	2765.6158	1689.7	806.45
1003.131	2766.8127	1685.7	804.05
1003.2514	2768.009	1672.55	791.2
1003.3717	2769.2045	1680.45	795.95
1003.492	2770.3994	1665	779.65
1003.6123	2771.5936	1668.3	785.1
1003.7325	2772.7872	1658.55	776.05
1003.8527	2773.9801	1657.55	773.7
1003.9729	2775.1723	1669.6	771.35
1004.093	2776.3639	1653.65	770.95
1004.2131	2777.5548	1661.05	774.8
1004.3331	2778.745	1659.05	774.65
1004.4531	2779.9346	1653.15	770.35
1004.5731	2781.1235	1659.05	773.65
1004.693	2782.3117	1657.1	776.85
1004.8129	2783.4992	1653.1	771.15
1004.9328	2784.6861	1657.15	776.25
1005.0526	2785.8723	1664	782.25
1005.1723	2787.0579	1662.4	777.7
1005.2921	2788.2428	1674.85	791.1
1005.4118	2789.427	1674.5	793.95
1005.5314	2790.6106	1686.15	804.7
1005.651	2791.7935	1697.85	814.5
1005.7706	2792.9757	1699.15	817.6
1005.8902	2794.1573	1714.4	829.85
1006.0097	2795.3382	1716.15	834.85
1006.1291	2796.5184	1725.1	846
1006.2485	2797.698	1743.1	861
1006.3679	2798.8769	1755.4	872.75
1006.4873	2800.0551	1773.7	891.55
1006.6066	2801.2327	1788.95	905.55
1006.7258	2802.4096	1800.2	918.45
1006.8451	2803.5859	1815.95	935.05
1006.9642	2804.7615	1825.95	944.45
1007.0834	2805.9364	1857.2	977
1007.2025	2807.1106	1880.45	999.15
1007.3216	2808.2842	1904.35	1021.2
1007.4406	2809.4572	1923.3	1040.5
1007.5596	2810.6294	1974.45	1087.45
1007.6785	2811.801	2005.7	1125.1
1007.7975	2812.972	2046.45	1165.95
1007.9163	2814.1423	2086.8	1203.95
1008.0352	2815.3119	2127.2	1246.3
1008.154	2816.4808	2167.9	1287.8
1008.2727	2817.6491	2218	1335.95
1008.3914	2818.8167	2264.2	1384.05
1008.5101	2819.9837	2311.75	1424.6
1008.6288	2821.15	2365.15	1484
1008.7474	2822.3157	2390.75	1509.25
1008.8659	2823.4807	2461.4	1577.2
1008.9844	2824.645	2509.65	1629.95
1009.1029	2825.8086	2539.2	1658.85
1009.2214	2826.9716	2591.3	1712.2
1009.3398	2828.134	2638.1	1754.65
1009.4581	2829.2957	2678.65	1795.8
1009.5764	2830.4567	2694.3	1814.4
1009.6947	2831.617	2719.85	1837.45
1009.813	2832.7767	2738.1	1858.75
1009.9312	2833.9358	2729.1	1846.25
1010.0493	2835.0941	2734.9	1853.3
1010.1675	2836.2519	2719.1	1838.25
1010.2855	2837.4089	2699.85	1817.35
1010.4036	2838.5653	2689.65	1809.6
1010.5216	2839.7211	2679.45	1800.5
1010.6396	2840.8761	2707.05	1825.5
1010.7575	2842.0306	2723.1	1845.6
1010.8754	2843.1843	2749.2	1869.2
1010.9932	2844.3374	2780.65	1899.45
1011.111	2845.4899	2842.2	1960.85
1011.2288	2846.6417	2917.4	2034.75
1011.3465	2847.7928	2975.15	2095.9
1011.4642	2848.9433	3034	2152.4
1011.5818	2850.0931	3120.4	2240
1011.6995	2851.2422	3191.2	2310.25
1011.817	2852.3907	3259.6	2378.55
1011.9345	2853.5385	3305.05	2425.4
1012.052	2854.6857	3383.6	2475.95
1012.1695	2855.8323	3408.1	2528
1012.2869	2856.9781	3459	2578.6
1012.4042	2858.1233	3503.45	2621.4
1012.5216	2859.2679	3547.7	2667.35
1012.6389	2860.4118	3610.35	2729.4
1012.7561	2861.555	3641.95	2756.45
1012.8733	2862.6976	3670.9	2789.35
1012.9905	2863.8395	3688.25	2807.3
1013.1076	2864.9808	3720.05	2841.25
1013.2247	2866.1214	3738.85	2859.8
1013.3417	2867.2614	3759.05	2878.75
1013.4587	2868.4007	3766.05	2884
1013.5757	2869.5393	3777.7	2895.6
1013.6926	2870.6773	3791.2	2908
1013.8095	2871.8146	3812.35	2926.05
1013.9263	2872.9513	3820.55	2935.8
1014.0431	2874.0874	3797.55	2916.45
1014.1599	2875.2227	3796.25	2914.65
1014.2766	2876.3574	3762.95	2882.75
1014.3933	2877.4915	3750.5	2869.25
1014.51	2878.6249	3716.75	2837.7
1014.6266	2879.7577	3695.7	2815.3
1014.7431	2880.8898	3686.05	2794.5
1014.8596	2882.0212	3678.7	2799.1
1014.9761	2883.152	3661.45	2781.7
1015.0925	2884.2821	3630.55	2752.15
1015.2089	2885.4116	3629	2749.4
1015.3253	2886.5405	3630.9	2748.1
1015.4416	2887.6686	3621.15	2737.05
1015.5579	2888.7962	3630.9	2752.15
1015.6741	2889.923	3643.95	2765.9
1015.7903	2891.0493	3648.15	2771.45
1015.9065	2892.1748	3669.2	2790.15
1016.0226	2893.2997	3664.75	2783.95
1016.1387	2894.424	3698.45	2820.55
1016.2547	2895.5476	3711.05	2830.9
1016.3707	2896.6706	3739.35	2860.9
1016.4866	2897.7929	3754.15	2874.05
1016.6025	2898.9145	3786.95	2906
1016.7184	2900.0355	3815.05	2935.6
1016.8342	2901.1559	3833.1	2951.7
1016.95	2902.2756	3880.25	3000.5
1017.0658	2903.3946	3890.2	3009.75
1017.1815	2904.513	3927.65	3045.75
1017.2971	2905.6308	3958.55	3077.8
1017.4127	2906.7479	3985.55	3105.7
1017.5283	2907.8643	3991.1	3111.3
1017.6439	2908.9801	4019.2	3142.05
1017.7594	2910.0953	4015.9	3134.45
1017.8748	2911.2098	4028.8	3147.4
1017.9902	2912.3236	4020.35	3134.45
1018.1056	2913.4368	4003.05	3120.35
1018.2209	2914.5494	3987.55	3107.85
1018.3362	2915.6613	3962.6	3077.45
1018.4515	2916.7725	3922	3040.45
1018.5667	2917.8831	3896.4	3015.2
1018.6819	2918.9931	3859.55	2977.15
1018.797	2920.1024	3827.75	2948.45
1018.9121	2921.211	3817.3	2939.4
1019.0271	2922.319	3790.3	2909.8
1019.1421	2923.4264	3783.55	2907.2
1019.2571	2924.5331	3761.5	2884.45
1019.372	2925.6391	3741.5	2863.2
1019.4869	2926.7445	3752.1	2875.1
1019.6017	2927.8493	3739.4	2861.05
1019.7165	2928.9534	3738.85	2859.5
1019.8313	2930.0569	3738.85	2857.25
1019.946	2931.1597	3744.55	2865.5
1020.0606	2932.2619	3727.55	2846.85
1020.1753	2933.3634	3718.45	2840.45
1020.2899	2934.4643	3714.05	2829.1
1020.4044	2935.5645	3695.9	2811.15
1020.5189	2936.6641	3665.6	2782.7
1020.6334	2937.763	3621	2743.6
1020.7478	2938.8613	3581.4	2701.2
1020.8622	2939.959	3524.55	2638.15
1020.9765	2941.056	3460.35	2584.2
1021.0908	2942.1523	3372.05	2491
1021.2051	2943.248	3290.35	2409.5
1021.3193	2944.3431	3196.8	2320.5
1021.4334	2945.4375	3108.45	2230.9
1021.5476	2946.5313	2998.65	2122.35
1021.6617	2947.6244	2904.55	2025.35
1021.7757	2948.7169	2804.6	1924.5
1021.8897	2949.8087	2696.45	1816.25
1022.0037	2950.8999	2608.9	1732.15
1022.1176	2951.9904	2539.9	1663.05
1022.2315	2953.0803	2475.95	1598.2
1022.3453	2954.1696	2399.65	1520.15
1022.4591	2955.2582	2349.65	1470.05
1022.5728	2956.3462	2307.4	1427.4
1022.6865	2957.4335	2268.5	1389.15
1022.8002	2958.5202	2231.4	1349.4
1022.9138	2959.6062	2218.1	1339.1
1023.0274	2960.6916	2189.1	1311.35
1023.141	2961.7764	2168.35	1288.6
1023.2545	2962.8605	2156.4	1278.15
1023.3679	2963.9439	2141.35	1261.65
1023.4813	2965.0267	2129.65	1250.15
1023.5947	2966.1089	2137.4	1236.55
1023.708	2967.1905	2108	1228.6
1023.8213	2968.2714	2109.25	1230.1
1023.9346	2969.3516	2104.9	1225.5
1024.0478	2970.4312	2109.05	1223.7
1024.1609	2971.5102	2104.05	1226.65
1024.274	2972.5885	2108.7	1231.8
1024.3871	2973.6662	2118	1236.1
1024.5002	2974.7432	2101.65	1224.85
1024.6132	2975.8196	2089.1	1210.35
1024.7261	2976.8954	2083.55	1206.75
1024.839	2977.9705	2072	1193.75
1024.9519	2979.045	2059.2	1179.45
1025.0647	2980.1188	2040.65	1165.9
1025.1775	2981.192	2022.35	1145.15
1025.2902	2982.2645	2004	1125.3
1025.4029	2983.3364	1989.35	1111.45
1025.5156	2984.4077	1950	1070.2
1025.6282	2985.4783	1930.55	1046.05
1025.7407	2986.5483	1892.75	1015.5
1025.8532	2987.6177	1860.15	982.3
1025.9657	2988.6864	1825.2	946.55
1026.0782	2989.7545	1791.55	912.6
1026.1906	2990.8219	1756.6	879.6
1026.3029	2991.8887	1722.8	843.7
1026.4152	2992.9548	1701.4	823.8
1026.5275	2994.0204	1666.6	789.6
1026.6397	2995.0852	1634.05	756.9
1026.7519	2996.1495	1616.75	736.8
1026.864	2997.2131	1595.25	719.8
1026.9761	2998.276	1561.7	684.2
1027.0882	2999.3383	1547.85	670.35
1027.2002	3000.4	1530.3	651.3
1027.3122	3001.4611	1512.85	635.9
1027.4241	3002.5215	1494.95	617.35
1027.536	3003.5812	1480.65	601.3
1027.6478	3004.6404	1466.75	587.85
1027.7596	3005.6989	1462	580.35
1027.8714	3006.7567	1449.85	569.8
1027.9831	3007.8139	1476.7	568.1
1028.0947	3008.8705	1438.7	562.75
1028.2064	3009.9264	1432.2	552.25
1028.3179	3010.9818	1417.55	540.05
1028.4295	3012.0364	1412.35	534.5
1028.541	3013.0905	1413.95	536.6
1028.6524	3014.1439	1406	527.55
1028.7638	3015.1966	1401.75	524.95
1028.8752	3016.2487	1402.95	526.25
1028.9865	3017.3002	1409.8	528.45
1029.0978	3018.3511	1393.7	519.4
1029.209	3019.4013	1391.4	513
1029.3202	3020.4509	1395.6	519.45
1029.4314	3021.4998	1388.95	512.05
1029.5425	3022.5481	1391.45	514.65
1029.6535	3023.5958	1394.3	516.95
1029.7645	3024.6428	1400.8	522.45
1029.8755	3025.6892	1391.65	516.05
1029.9864	3026.735	1391.65	512.35
1030.0973	3027.7802	1397.5	522.05
1030.2082	3028.8247	1391.3	515.85
1030.319	3029.8685	1395.35	515.3
1030.4297	3030.9118	1398.55	521.1
1030.5404	3031.9544	1398.35	521.2
1030.6511	3032.9963	1406.4	530.55
1030.7617	3034.0376	1406.05	530.15
1030.8723	3035.0783	1421.15	539.8
1030.9829	3036.1184	1414.55	535.8
1031.0934	3037.1578	1414.25	537.15
1031.2038	3038.1966	1418.8	537.5
1031.3142	3039.2348	1411.8	537.4
1031.4246	3040.2723	1425.8	539.25
1031.5349	3041.3092	1406.9	530.75
1031.6452	3042.3455	1417.25	539.9
1031.7554	3043.3811	1408	530.4
1031.8656	3044.4161	1410.2	531.8
1031.9758	3045.4505	1396.9	519.5
1032.0859	3046.4842	1400.25	522.55
1032.1959	3047.5173	1394.55	518.85
1032.3059	3048.5498	1385.55	508.4
1032.4159	3049.5816	1387	510.25
1032.5258	3050.6128	1383.45	506.9
1032.6357	3051.6434	1374.25	495.85
1032.7455	3052.6734	1373.4	495.8
1032.8553	3053.7027	1356.35	479.55
1032.9651	3054.7314	1359.1	481.8
1033.0748	3055.7594	1354.95	476.75
1033.1845	3056.7868	1343	462.8
1033.2941	3057.8136	1338.1	463
1033.4037	3058.8398	1332.8	454.95
1033.5132	3059.8653	1333.95	457.1
1033.6227	3060.8902	1325.75	447.4
1033.7321	3061.9145	1316.45	442.3
1033.8415	3062.9381	1314.8	438.75
1033.9509	3063.9612	1330.75	438.05
1034.0602	3064.9835	1306.45	430.05
1034.1694	3066.0053	1301.3	422.4
1034.2787	3067.0264	1293.15	416.65
1034.3878	3068.0469	1289.2	412.55
1034.497	3069.0668	1291.85	413.05
1034.6061	3070.086	1279.85	406.45
1034.7151	3071.1046	1268.05	391.25
1034.8241	3072.1226	1257.55	380.3
1034.9331	3073.1399	1252.7	375.75
1035.042	3074.1567	1244.85	366.95
1035.1508	3075.1727	1243.3	365.1
1035.2597	3076.1882	1225.65	347.9
1035.3684	3077.203	1219	344.05
1035.4772	3078.2173	1211.7	334.2
1035.5859	3079.2308	1203.1	324.75
1035.6945	3080.2438	1196.95	316.65
1035.8031	3081.2561	1187.8	310.4
1035.9117	3082.2678	1185.75	310.1
1036.0202	3083.2789	1175.65	299.1
1036.1286	3084.2893	1171.45	295.1
1036.2371	3085.2991	1167.6	291.1
1036.3454	3086.3083	1171.85	291.45
1036.4538	3087.3169	1152.45	275.15
1036.562	3088.3248	1150.7	272.45
1036.6703	3089.3321	1148.25	270.35
1036.7785	3090.3388	1141.5	268.4
1036.8866	3091.3449	1137.75	261.75
1036.9948	3092.3503	1134.9	255.25
1037.1028	3093.3551	1124	249.3
1037.2108	3094.3593	1125.25	250
1037.3188	3095.3629	1120.45	245.05
1037.4267	3096.3658	1120.95	243.2
1037.5346	3097.3681	1117.25	242.7
1037.6425	3098.3698	1112.75	235.25
1037.7503	3099.3708	1114.15	231.5
1037.858	3100.3713	1108.65	234.45
1037.9657	3101.3711	1107.05	230.6
1038.0734	3102.3702	1241.35	229.15
1038.181	3103.3688	1101.9	224.1
1038.2886	3104.3667	1096.45	220.2
1038.3961	3105.364	1094.9	219.6
1038.5036	3106.3607	1094	217.15
1038.611	3107.3568	1091.95	214.55
1038.7184	3108.3522	1085.15	211.15
1038.8257	3109.347	1086.4	208.9
1038.933	3110.3412	1089.6	210.2
1039.0403	3111.3348	1083.1	207.45
1039.1475	3112.3277	1083.85	208.9
1039.2547	3113.32	1078.25	202.95
1039.3618	3114.3117	1078.6	202.45
1039.4689	3115.3028	1071.55	195.9
1039.5759	3116.2932	1075.85	198
1039.6829	3117.2831	1076.95	195.6
1039.7898	3118.2723	1069.25	192.85
1039.8967	3119.2608	1070.55	194.9
1040.0035	3120.2488	1067.3	192.2
1040.1103	3121.2361	1067	191.35
1040.2171	3122.2229	1060.45	184.4
1040.3238	3123.209	1063.1	186.95
1040.4305	3124.1944	1061.6	186.8
1040.5371	3125.1793	1062.9	185.85
1040.6437	3126.1635	1057	181.25
1040.7502	3127.1471	1056.3	180.2
1040.8567	3128.1301	1053.2	178.7
1040.9631	3129.1125	1054.4	178.15
1041.0695	3130.0942	1059.1	183
1041.1759	3131.0753	1062.05	179.05
1041.2822	3132.0558	1056.75	178.2
1041.3884	3133.0357	1047.8	172.1
1041.4946	3134.015	1047.7	169.85
1041.6008	3134.9936	1047.45	170.3
1041.7069	3135.9716	1064.15	164.75
1041.813	3136.949	1042.25	167.05
1041.919	3137.9258	1058.3	164.6
1042.025	3138.902	1045.85	164.5
1042.1309	3139.8775	1040.05	164.75
1042.2368	3140.8524	1035.9	161.25
1042.3427	3141.8267	1040.35	162.85
1042.4485	3142.8004	1035.55	161.45
1042.5542	3143.7735	1041.5	160.1
1042.6599	3144.7459	1038.6	160.6
1042.7656	3145.7178	1034.3	158
1042.8712	3146.689	1030.4	155.8
1042.9768	3147.6596	1032.95	155.9
1043.0823	3148.6295	1028.4	152.4
1043.1878	3149.5989	1031.5	155.15
1043.2932	3150.5676	1026.75	150.5
1043.3986	3151.5357	1024.9	149.3
1043.5039	3152.5032	1023.05	148.3
1043.6092	3153.4701	1020.2	147.05
1043.7145	3154.4364	1024.6	147.45
1043.8197	3155.402	1020.8	148.65
1043.9248	3156.367	1020.45	143.2
1044.03	3157.3315	1049.8	144
1044.135	3158.2952	1015.05	139.65
1044.24	3159.2584	1013.1	137.6
1044.345	3160.221	1016.35	138.7
1044.4499	3161.1829	1013.7	137.55
1044.5548	3162.1442	1013.6	140.85
1044.6596	3163.105	1012.15	136
1044.7644	3164.065	1012.95	138.8
1044.8692	3165.0245	1012.5	133.2
1044.9739	3165.9834	1008.8	136.35
1045.0785	3166.9416	1011.2	135.7
1045.1831	3167.8993	1006.9	131.2
1045.2877	3168.8563	1006.3	131.6
1045.3922	3169.8127	1008.9	134.6
1045.4966	3170.7684	1002.7	128.55
1045.6011	3171.7236	1006.55	131.2
1045.7054	3172.6782	1007.35	130.15
1045.8098	3173.6321	1002.7	125
1045.914	3174.5854	1007.4	127.6
1046.0183	3175.5381	1000.05	126.45
1046.1224	3176.4902	1001.9	128.1
1046.2266	3177.4417	996.75	122.75
1046.3307	3178.3926	996.6	121.2
1046.4347	3179.3428	998.3	126
1046.5387	3180.2924	997.5	123.8
1046.6427	3181.2415	1001.45	126.25
1046.7466	3182.1899	998.45	124.55
1046.8504	3183.1377	990.55	114.15
1046.9542	3184.0848	997.75	119.55
1047.058	3185.0314	992.4	115.45
1047.1617	3185.9773	991.75	116.95
1047.2654	3186.9227	994.4	119.2
1047.369	3187.8674	991.45	118.15
1047.4726	3188.8115	991.95	113.35
1047.5761	3189.755	992.3	118.6
1047.6796	3190.6979	985.95	111.15
1047.783	3191.6402	989.2	116.35
1047.8864	3192.5818	986.55	113.65
1047.9898	3193.5229	1005.15	111.65
1048.0931	3194.4633	989.5	116.2
1048.1963	3195.4031	986	108.8
1048.2995	3196.3423	987.15	112.35
1048.4027	3197.2809	982.15	107.2
1048.5058	3198.2189	983.5	109.5
1048.6089	3199.1563	988.35	108.1
1048.7119	3200.0931	982.1	109.5
1048.8148	3201.0292	985.1	110.75
1048.9178	3201.9648	981.7	107.05
1049.0206	3202.8997	983.25	105.5
1049.1235	3203.834	982.5	107.95
1049.2262	3204.7677	980.65	105.25
1049.329	3205.7008	980.05	103.15
1049.4317	3206.6333	977.25	104.65
1049.5343	3207.5652	978.9	101.3
1049.6369	3208.4964	975.5	100.65
1049.7394	3209.4271	978.85	105.1
1049.8419	3210.3571	977	101.9
1049.9444	3211.2865	973.75	98
1050.0468	3212.2154	974	98.55
1050.1491	3213.1436	976.25	98.75
1050.2514	3214.0712	983.95	101.95
1050.3537	3214.9982	979.15	104.65
1050.4559	3215.9246	975.5	103.1
1050.5581	3216.8503	971.35	99.15
1050.6602	3217.7755	974.55	97.15
1050.7623	3218.7001	973.85	98.6
1050.8643	3219.624	972.3	98.2
1050.9663	3220.5473	969.9	94.25
1051.0682	3221.4701	970.4	92.9
1051.1701	3222.3922	975.85	99.25
1051.2719	3223.3137	970.45	94.95
1051.3737	3224.2346	972.2	97.9
1051.4754	3225.1549	967.6	93.05
1051.5771	3226.0746	969	95.3
1051.6788	3226.9937	970	93.8
1051.7804	3227.9121	967.9	96.55
1051.8819	3228.83	967.3	92.4
1051.9834	3229.7473	963.25	88.45
1052.0849	3230.6639	963.1	86.2
1052.1863	3231.5799	962.7	88.2
1052.2876	3232.4954	964.8	88.2
1052.3889	3233.4102	961.65	88.6
1052.4902	3234.3244	962.55	88
1052.5914	3235.238	961.8	88.7
1052.6926	3236.151	985.7	89.1
1052.7937	3237.0634	963.2	91.15
1052.8948	3237.9752	960.7	86.85
1052.9958	3238.8864	961.25	87.75
1053.0968	3239.797	959.25	84.85
1053.1977	3240.7069	961.7	87
1053.2986	3241.6163	961.15	85
1053.3994	3242.5251	955.6	82.1
1053.5002	3243.4332	953.9	83.35
1053.6009	3244.3408	956.1	81.3
1053.7016	3245.2477	952.8	80.45
1053.8022	3246.154	955.3	79.8
1053.9028	3247.0598	955.15	79.55
1054.0034	3247.9649	953.3	79.15
1054.1039	3248.8694	953.35	76.8
1054.2043	3249.7733	953.75	79.35
1054.3047	3250.6766	953.4	80.35
1054.4051	3251.5793	953.3	79.25
1054.5054	3252.4814	950.15	77.05
1054.6056	3253.3829	949.95	79.95
1054.7058	3254.2838	950.45	76
1054.806	3255.1841	948.65	75.7
1054.9061	3256.0838	946.3	70.75
1055.0061	3256.9829	947.7	75.75
1055.1062	3257.8814	949.1	74.05
1055.2061	3258.7792	949.7	75.95
1055.306	3259.6765	947.1	71.65
1055.4059	3260.5731	944.1	70.05
1055.5057	3261.4692	943.55	70.75
1055.6055	3262.3647	943.25	67.7
1055.7052	3263.2595	939.3	64.8
1055.8049	3264.1538	939	66
1055.9045	3265.0474	939.7	65.2
1056.0041	3265.9404	936.45	64.2
1056.1036	3266.8329	937.25	65.35
1056.2031	3267.7247	943.8	59.75
1056.3025	3268.616	932.45	62.75
1056.4019	3269.5066	933.55	58.15
1056.5013	3270.3966	931.65	56.45
1056.6005	3271.286	927.35	54
