Software Version:	3.9.2.0
Unit SN:	10000200
Spectrometer SN:	6960
Date:	3/8/2024 1:41:29 PM
Data Line Index:	25
Spectral Points:	2048
Integration time (ms):	125
Averages:	20
Delay (ms):	30000
Sequence Number:	1
Processing:	dark subtract
Laser Power (mW):	305
Laser Current (mA):	822
Laser Diode Temp (C):	25
Laser Case Temp (C):	26.2
System Temp (C):	26.2
Spectrometer Temp (C):	24.1
CCD Temp (C):	0.007
Secondary Temp (C):	20.004
Heatsink Temp (C):	21.297
CCDPCB Temp (C):	36.285
SecondaryPCB Temp (C):	30.26

Wavelength	RamanShift	Raw Counts	Dark Subtracted
787.061	30.1047	462.55	55.15
787.2016	32.3739	464.4	57.2
787.3422	34.6426	472.2	64.6
787.4828	36.9109	475.6	65.55
787.6235	39.1787	487.85	73.05
787.7642	41.4461	495.55	78.9
787.9049	43.7131	504.95	82.85
788.0456	45.9796	511.45	87.6
788.1863	48.2456	524.75	95.9
788.3271	50.5112	532.55	101.35
788.4679	52.7764	542.35	106.25
788.6087	55.0411	557.55	117.75
788.7496	57.3054	567.9	122.65
788.8904	59.5692	576.1	129.15
789.0313	61.8326	586.4	139.25
789.1722	64.0955	596.75	145.1
789.3132	66.3579	620.2	161.9
789.4541	68.6199	641.75	179.45
789.5951	70.8815	680.6	215.1
789.7361	73.1426	759.55	288.9
789.8771	75.4032	975.6	501.65
790.0181	77.6634	1504.65	1026.2
790.1592	79.9231	2756.45	2269.45
790.3003	82.1824	5461.85	4958
790.4414	84.4412	10330.75	9798.35
790.5825	86.6995	17065.8	16490.1
790.7237	88.9574	23631.75	23023.95
790.8648	91.2148	28142.55	27512.9
791.006	93.4717	30237.2	29593
791.1472	95.7282	30754.4	30102.1
791.2885	97.9842	30700.4	30045.35
791.4297	100.2398	30228.95	29572
791.571	102.4949	29602.05	28935.45
791.7123	104.7495	28812	28144.55
791.8536	107.0036	28037.35	27368.85
791.9949	109.2573	27295.35	26633.7
792.1363	111.5105	26578.65	25909.55
792.2777	113.7632	25883.75	25213.6
792.4191	116.0154	25295.1	24613.65
792.5605	118.2672	24927.7	24251.8
792.7019	120.5185	24437.85	23757.05
792.8434	122.7693	24091.55	23414.95
792.9849	125.0197	23805.15	23125.85
793.1264	127.2696	23549.95	22858.85
793.2679	129.519	23419.1	22727.65
793.4094	131.7679	23227.4	22533.9
793.551	134.0163	23054.6	22354.75
793.6926	136.2642	22823.55	22122.5
793.8342	138.5117	22662.85	21960.55
793.9758	140.7587	22395.55	21690.5
794.1175	143.0052	22206.35	21497.6
794.2591	145.2512	21967.15	21255.55
794.4008	147.4967	21726.85	21017.6
794.5425	149.7417	21621.6	20910.9
794.6842	151.9863	21502.15	20786.05
794.826	154.2304	21447.25	20726.1
794.9677	156.4739	21287.3	20563.95
795.1095	158.717	21234.05	20508.4
795.2513	160.9596	21101	20369.8
795.3931	163.2017	20852.95	20118.15
795.535	165.4433	20577.8	19844.15
795.6768	167.6844	20236.3	19503.65
795.8187	169.925	19982.75	19245.7
795.9606	172.1651	19593.3	18857.9
796.1025	174.4047	19336.45	18592.6
796.2445	176.6439	19086.75	18342.1
796.3864	178.8825	18848.9	18100
796.5284	181.1206	18685.55	17928.45
796.6704	183.3582	18546.65	17793.65
796.8124	185.5954	18466.4	17710.7
796.9544	187.832	18439.8	17674.1
797.0965	190.0681	18389.75	17625.5
797.2386	192.3037	18399.2	17626.65
797.3806	194.5388	18431.9	17662.05
797.5228	196.7734	18484.35	17707.5
797.6649	199.0075	18559.25	17780.75
797.807	201.2411	18717.9	17939.05
797.9492	203.4742	18799.1	18022
798.0914	205.7068	18992.05	18204.35
798.2336	207.9389	19056.2	18270.75
798.3758	210.1704	19226.55	18450.15
798.518	212.4015	19362.8	18597.25
798.6603	214.632	19563.35	18800.3
798.8025	216.862	19753.55	18993.65
798.9448	219.0915	19897.05	19131.5
799.0871	221.3205	20121.35	19354.8
799.2294	223.549	20400.35	19641.4
799.3718	225.777	20681.45	19922
799.5141	228.0044	20987.6	20219.1
799.6565	230.2314	21417.35	20649.65
799.7989	232.4578	21811.15	21040.55
799.9413	234.6837	22205.45	21425.35
800.0837	236.909	22428.45	21649.4
800.2262	239.1339	22426.1	21619.45
800.3687	241.3582	22215.5	21422.4
800.5111	243.582	21939.05	21117.5
800.6536	245.8053	21659.6	20848.5
800.7961	248.0281	21340.2	20538.4
800.9387	250.2503	21158.85	20351.65
801.0812	252.472	21053.5	20245.1
801.2238	254.6932	21019.85	20211.3
801.3664	256.9139	21003.6	20190.25
801.509	259.134	21059.75	20242.1
801.6516	261.3536	21063.45	20252.25
801.7942	263.5727	21196.9	20382.15
801.9369	265.7912	21185.1	20367.6
802.0795	268.0092	21279	20464.6
802.2222	270.2267	21257.8	20446.7
802.3649	272.4436	21264.6	20450.6
802.5076	274.6601	21222.45	20398.35
802.6504	276.8759	21121.15	20301.7
802.7931	279.0913	21092.6	20270.95
802.9359	281.3061	21039.6	20218.1
803.0787	283.5204	21081.7	20257.35
803.2215	285.7341	21160.65	20329.75
803.3643	287.9473	21340.45	20498.3
803.5071	290.16	21535.35	20708.3
803.6499	292.3721	21800.7	20975.95
803.7928	294.5837	22277.6	21449.6
803.9357	296.7947	22560.9	21733.8
804.0786	299.0052	22786.75	21956.2
804.2215	301.2152	22677.9	21847.5
804.3644	303.4246	22380.5	21554.5
804.5074	305.6334	21858.55	21030.3
804.6503	307.8418	21377.5	20543.95
804.7933	310.0495	20967.85	20132
804.9363	312.2568	20628.25	19790.35
805.0793	314.4635	20448.6	19610.4
805.2223	316.6696	20314.85	19475.2
805.3653	318.8752	20257.35	19413.95
805.5084	321.0802	20314.1	19470.3
805.6514	323.2847	20445.95	19600.3
805.7945	325.4887	20459.65	19615
805.9376	327.692	20416.05	19573.05
806.0807	329.8949	20331.35	19483.1
806.2238	332.0972	20112.05	19266.6
806.367	334.2989	19838.65	18993.5
806.5101	336.5001	19609.7	18757.15
806.6533	338.7007	19417.1	18566.65
806.7965	340.9008	19328.85	18474.45
806.9397	343.1003	19192.2	18339.1
807.0829	345.2992	19159.35	18308.4
807.2261	347.4976	19124.65	18270.65
807.3693	349.6955	19088.1	18227.4
807.5126	351.8927	19194.85	18334.2
807.6559	354.0895	19175.6	18308.05
807.7991	356.2856	19261.1	18394.6
807.9424	358.4812	19234.85	18370.55
808.0857	360.6763	19278.35	18410.1
808.2291	362.8707	19290.5	18422.55
808.3724	365.0646	19355.3	18485.75
808.5158	367.258	19345.55	18477.55
808.6591	369.4508	19369.9	18498.65
808.8025	371.643	19484.6	18613.5
808.9459	373.8346	19477.15	18597.9
809.0893	376.0257	19474	18595.55
809.2327	378.2162	19424.1	18549.6
809.3762	380.4062	19378.15	18507.65
809.5196	382.5956	19217.35	18343
809.6631	384.7844	19121.35	18256.65
809.8066	386.9726	19015.65	18154.15
809.9501	389.1603	18974.75	18111.05
810.0936	391.3474	18967.9	18067.55
810.2371	393.5339	18950.85	18083.5
810.3806	395.7199	18883.5	18020.7
810.5241	397.9052	18886.55	18023.95
810.6677	400.09	18952.15	18085.6
810.8113	402.2743	19060.9	18196.45
810.9548	404.4579	19120.8	18253.9
811.0984	406.641	19300.65	18435.25
811.2421	408.8235	19547.45	18678.4
811.3857	411.0054	19848.65	18974.55
811.5293	413.1868	20283.85	19403.45
811.673	415.3675	20569.35	19689.85
811.8166	417.5477	20756.6	19876.3
811.9603	419.7273	20790.4	19910
812.104	421.9064	20700.1	19812.95
812.2477	424.0848	20562.75	19680.6
812.3914	426.2627	20381.15	19497.15
812.5351	428.4399	20130.7	19250.1
812.6788	430.6166	19749.65	18860.15
812.8226	432.7928	19395.6	18501.5
812.9663	434.9683	19095.25	18208.05
813.1101	437.1432	18882.4	18002.5
813.2539	439.3176	18714.85	17838.65
813.3977	441.4914	18591.8	17713.2
813.5415	443.6645	18587.95	17710.85
813.6853	445.8371	18514.05	17634.15
813.8291	448.0091	18455.6	17574.4
813.973	450.1806	18416.4	17533
814.1168	452.3514	18414.85	17534.4
814.2607	454.5216	18425.35	17531.55
814.4046	456.6913	18326	17437.15
814.5485	458.8603	18375.15	17494.75
814.6924	461.0288	18456.7	17579.05
814.8363	463.1967	18460.45	17585.35
814.9802	465.3639	18604.8	17728
815.1241	467.5306	18705.8	17825.6
815.2681	469.6967	18816.4	17935.3
815.412	471.8622	18953.15	18074.75
815.556	474.0271	19112.05	18230.2
815.7	476.1914	19165.25	18280.15
815.844	478.3551	19157.6	18272
815.988	480.5182	19196.1	18320.4
816.132	482.6807	19177.1	18305.45
816.276	484.8426	19327.45	18458.3
816.4201	487.0039	19642.35	18770.3
816.5641	489.1647	20064.45	19182
816.7082	491.3248	20462.05	19574.05
816.8522	493.4843	20656.4	19776.65
816.9963	495.6432	20656.8	19772.8
817.1404	497.8015	20573	19683.5
817.2845	499.9592	20577.4	19682.45
817.4286	502.1163	20511.35	19615.4
817.5727	504.2728	20267.5	19379.95
817.7168	506.4287	20001.1	19121.2
817.861	508.5839	19580.05	18701.25
818.0051	510.7386	19289.55	18406.55
818.1493	512.8927	19133.4	18243.3
818.2935	515.0461	19037.35	18144.85
818.4377	517.199	19021.9	18127.2
818.5818	519.3512	19049.75	18150
818.726	521.5029	19158.1	18257.25
818.8703	523.6539	19279.1	18384.65
819.0145	525.8043	19329.5	18430.35
819.1587	527.9541	19339	18442.9
819.303	530.1033	19301	18407.35
819.4472	532.2519	19343.65	18450.3
819.5915	534.3999	19426.9	18530.55
819.7357	536.5472	19695.6	18800.05
819.88	538.694	20112.85	19221.65
820.0243	540.8401	20670.65	19771.3
820.1686	542.9856	21155	20250.3
820.3129	545.1305	21292.9	20376.6
820.4572	547.2748	21215.55	20303.9
820.6016	549.4185	20890.35	19976.35
820.7459	551.5615	20550.3	19635.95
820.8902	553.704	20428.15	19516.95
821.0346	555.8458	20391.85	19485.1
821.1789	557.987	20440.8	19540.1
821.3233	560.1276	20481.5	19576.2
821.4677	562.2675	20567.7	19659.4
821.6121	564.4069	20662.5	19756.9
821.7565	566.5456	20736.85	19836.4
821.9009	568.6837	20665.8	19763.75
822.0453	570.8212	20351.85	19449.95
822.1897	572.958	20004.1	19101.1
822.3342	575.0942	19693.3	18795.25
822.4786	577.2299	19454.8	18561.75
822.6231	579.3648	19444.55	18557.25
822.7675	581.4992	19448.25	18573.9
822.912	583.6329	19652.9	18775.8
823.0565	585.766	19846.3	18962.95
823.201	587.8985	20003.9	19118.1
823.3454	590.0304	20055.8	19133.45
823.4899	592.1616	19978.1	19068.45
823.6345	594.2922	19908.1	18996.95
823.779	596.4222	19763	18849
823.9235	598.5515	19552.6	18642.7
824.068	600.6802	19399.9	18489.3
824.2126	602.8083	19195.65	18292.25
824.3571	604.9358	19189.25	18280.15
824.5017	607.0626	19143.35	18228.9
824.6462	609.1888	19151.65	18233.6
824.7908	611.3144	19117	18200.6
824.9354	613.4393	19066.75	18154.35
825.08	615.5636	19008.75	18093.5
825.2246	617.6873	18926.25	18008.3
825.3692	619.8103	18847.65	17929.85
825.5138	621.9327	18775.8	17862.45
825.6584	624.0544	18733.6	17821.5
825.803	626.1756	18679.3	17771.7
825.9477	628.2961	18651.45	17735.9
826.0923	630.4159	18571.9	17656
826.237	632.5351	18577.6	17661.3
826.3816	634.6537	18546.3	17631.8
826.5263	636.7716	18521.15	17593.75
826.6709	638.8889	18561.35	17638.1
826.8156	641.0056	18606.55	17683.05
826.9603	643.1216	18562.3	17641
827.105	645.237	18624.55	17704.4
827.2497	647.3518	18598.65	17685.95
827.3944	649.4659	18611.9	17704.65
827.5391	651.5793	18612.25	17707.25
827.6838	653.6922	18595.3	17682.8
827.8285	655.8043	18611.9	17701.65
827.9733	657.9159	18603.25	17686
828.118	660.0268	18538.5	17624.4
828.2627	662.137	18516.15	17597.8
828.4075	664.2466	18483.6	17558.75
828.5522	666.3556	18495.9	17576.6
828.697	668.4639	18456.1	17537.9
828.8418	670.5716	18521.95	17608
828.9865	672.6786	18578.45	17657.45
829.1313	674.785	18619	17695.05
829.2761	676.8907	18704.4	17784.6
829.4209	678.9958	18764.9	17845.35
829.5657	681.1002	18730.6	17810.25
829.7105	683.204	18732.1	17805.15
829.8553	685.3072	18682.75	17757.4
830.0001	687.4097	18646.85	17726.5
830.1449	689.5115	18625.95	17700.35
830.2898	691.6127	18599.95	17680.65
830.4346	693.7132	18515.4	17595.9
830.5794	695.8131	18523.55	17594.5
830.7243	697.9123	18556.4	17627.15
830.8691	700.0109	18532.05	17600.85
831.014	702.1089	18508.1	17578.1
831.1588	704.2061	18505.25	17580.6
831.3037	706.3028	18585.5	17655.5
831.4486	708.3987	18620.25	17690.1
831.5935	710.4941	18696.75	17771.95
831.7383	712.5887	18868.65	17942.8
831.8832	714.6827	19123.35	18195.2
832.0281	716.7761	19475.6	18553.1
832.173	718.8688	19831.7	18907.35
832.3179	720.9608	20042.15	19110.7
832.4628	723.0522	20100.1	19163.05
832.6077	725.1429	19941.5	19006.15
832.7527	727.233	19745	18818
832.8976	729.3224	19520.4	18591.4
833.0425	731.4112	19284.6	18355.95
833.1874	733.4993	19113.85	18180.15
833.3324	735.5867	18933.5	18003.75
833.4773	737.6735	18829.95	17897.75
833.6222	739.7596	18748.9	17816.4
833.7672	741.845	18682.95	17751.05
833.9122	743.9298	18675.8	17746.9
834.0571	746.014	18659.4	17731.8
834.2021	748.0974	18686.7	17747.8
834.347	750.1802	18703.6	17766.15
834.492	752.2624	18691.7	17756.55
834.637	754.3439	18743.05	17808.4
834.782	756.4247	18810.3	17867.45
834.9269	758.5048	18906.15	17973.9
835.0719	760.5843	19173.8	18236.9
835.2169	762.6631	19487.85	18549.75
835.3619	764.7413	19964.15	19029.35
835.5069	766.8188	20520.15	19580.25
835.6519	768.8956	20983.95	20048.25
835.7969	770.9718	21342.9	20407.45
835.9419	773.0473	21232.85	20298.95
836.0869	775.1221	20881.45	19946.3
836.232	777.1962	20508.4	19572.25
836.377	779.2697	20341.05	19403.6
836.522	781.3426	20405.55	19448.65
836.667	783.4147	20602.7	19664.4
836.8121	785.4862	20877.7	19941.3
836.9571	787.557	20913.05	19974.5
837.1021	789.6271	20556.9	19617.4
837.2472	791.6966	20023.2	19089.2
837.3922	793.7654	19475	18538.3
837.5373	795.8335	19185.5	18250.6
837.6823	797.901	18987.4	18051.55
837.8274	799.9678	18894.55	17954.65
837.9724	802.0339	18897.05	17957.6
838.1175	804.0993	18965.95	18013.7
838.2626	806.1641	18941.55	18001
838.4076	808.2282	18908.05	17968.75
838.5527	810.2916	18815.15	17875.35
838.6978	812.3544	18741.2	17806
838.8428	814.4164	18630.6	17691.15
838.9879	816.4778	18689.35	17752.1
839.133	818.5385	18710.15	17770.6
839.2781	820.5986	18779.4	17838.45
839.4232	822.658	18924.7	17983.3
839.5682	824.7166	19053.3	18115.5
839.7133	826.7747	19313.4	18376.5
839.8584	828.832	19558.1	18616.3
840.0035	830.8886	19762.35	18814.4
840.1486	832.9446	19875.35	18931.75
840.2937	834.9999	19869.35	18925.5
840.4388	837.0545	19892.75	18948.8
840.5839	839.1085	19820.35	18878.8
840.729	841.1618	19760.7	18815.4
840.8741	843.2143	19694.6	18753.4
841.0192	845.2662	19585.15	18644.15
841.1643	847.3175	19590.3	18647.5
841.3095	849.368	19443.3	18499.1
841.4546	851.4179	19353.25	18408.5
841.5997	853.467	19163.4	18224.05
841.7448	855.5155	19082.5	18138.75
841.8899	857.5633	19006.55	18061.8
842.0351	859.6105	18895	17951.05
842.1802	861.6569	18870.7	17921.75
842.3253	863.7027	18782	17834.95
842.4704	865.7478	18815.15	17870.35
842.6156	867.7922	18825.55	17880
842.7607	869.8359	18844.35	17898.75
842.9058	871.8789	18975.4	18026.9
843.0509	873.9212	19170.8	18189.55
843.1961	875.9629	19279.05	18334.6
843.3412	878.0039	19457.2	18513.95
843.4863	880.0441	19592.35	18650.3
843.6315	882.0837	19566.5	18626.3
843.7766	884.1226	19516.4	18572.55
843.9218	886.1609	19431.55	18490.05
844.0669	888.1984	19378.3	18435
844.212	890.2352	19404.15	18458.8
844.3572	892.2714	19410.15	18461.45
844.5023	894.3069	19413.15	18465.05
844.6475	896.3416	19309.5	18364.2
844.7926	898.3757	19252.45	18304.5
844.9377	900.4091	19254.3	18307.6
845.0829	902.4418	19269.5	18316.75
845.228	904.4739	19304.95	18352.8
845.3732	906.5052	19333.95	18387.3
845.5183	908.5358	19211.25	18263.75
845.6635	910.5658	19068.5	18115.55
845.8086	912.595	18909.6	17959.1
845.9538	914.6236	18757.05	17806.2
846.0989	916.6515	18690.7	17747.45
846.2441	918.6786	18662.2	17710.8
846.3892	920.7051	18749.35	17800.55
846.5344	922.7309	18887.4	17937.8
846.6795	924.756	18977.65	18029.25
846.8246	926.7804	19042.35	18089.6
846.9698	928.8041	18962.85	18012.45
847.1149	930.8272	19008.4	18058
847.2601	932.8495	18966	18016.55
847.4052	934.8711	18915.3	17965.8
847.5504	936.892	18770.95	17824.1
847.6955	938.9123	18626.75	17678.45
847.8407	940.9318	18537.55	17583.75
847.9858	942.9506	18469.6	17520.6
848.131	944.9688	18350.15	17401.1
848.2761	946.9862	18341.55	17393.05
848.4213	949.003	18212.55	17265.4
848.5664	951.019	18208.75	17256.1
848.7115	953.0344	18195.75	17244.15
848.8567	955.0491	18245.55	17296.75
849.0018	957.063	18310.15	17362.1
849.147	959.0763	18482.2	17534.65
849.2921	961.0888	18497.9	17548.95
849.4373	963.1007	18601.8	17653.9
849.5824	965.1119	18639.15	17700.35
849.7275	967.1223	18671.75	17738.65
849.8727	969.1321	18679.75	17747.45
850.0178	971.1412	18730.05	17790.45
850.1629	973.1495	18706.65	17761.8
850.3081	975.1572	18790.9	17792.7
850.4532	977.1641	18826.5	17876.85
850.5983	979.1704	18788.3	17838.4
850.7435	981.1759	18780.7	17829.8
850.8886	983.1808	18814.2	17865.1
851.0337	985.1849	18921.8	17964.45
851.1788	987.1884	19060.65	18116.75
851.324	989.1911	19202.65	18254.05
851.4691	991.1932	19298.65	18350.85
851.6142	993.1945	19338.25	18392.3
851.7593	995.1951	19330.55	18384
851.9045	997.1951	19256.2	18301.5
852.0496	999.1943	19207.4	18261.15
852.1947	1001.1928	19170.3	18224.25
852.3398	1003.1906	19126.3	18177.2
852.4849	1005.1877	19191.2	18242.7
852.63	1007.1841	19191.6	18245.9
852.7751	1009.1798	19145.25	18203.25
852.9202	1011.1748	18963.9	18017.2
853.0653	1013.1691	18809.45	17863.9
853.2104	1015.1627	18539.95	17593.9
853.3555	1017.1556	18293.1	17348.7
853.5006	1019.1477	18211.15	17263
853.6457	1021.1392	18140	17202.05
853.7908	1023.1299	18120.3	17183.7
853.9359	1025.12	18104.05	17173.65
854.081	1027.1093	18127.85	17210.1
854.2261	1029.0979	18222	17309.05
854.3712	1031.0859	18293.55	17370.65
854.5163	1033.0731	18298.7	17364.85
854.6613	1035.0596	18256.6	17319.75
854.8064	1037.0454	18073.75	17130.85
854.9515	1039.0304	18010.45	17069.65
855.0965	1041.0148	17854.7	16908.45
855.2416	1042.9985	17729.3	16781.4
855.3867	1044.9814	17729.15	16787.55
855.5317	1046.9636	17682.05	16736.1
855.6768	1048.9452	17631.55	16690.1
855.8219	1050.926	17640.9	16695.65
855.9669	1052.9061	17649	16703.55
856.112	1054.8855	17654.55	16713.2
856.257	1056.8642	17706.55	16760.3
856.4021	1058.8421	17772.35	16818.5
856.5471	1060.8194	17768.2	16822.05
856.6921	1062.7959	17800.8	16854.6
856.8372	1064.7717	17839	16891.15
856.9822	1066.7469	17855.2	16907.55
857.1272	1068.7213	17871.7	16926.85
857.2723	1070.695	17890.8	16948.85
857.4173	1072.6679	17809.5	16866.35
857.5623	1074.6402	17811.1	16863.1
857.7073	1076.6117	17802	16854
857.8523	1078.5826	17770.35	16822.4
857.9973	1080.5527	17728.55	16777.45
858.1423	1082.5221	17756.05	16809.2
858.2873	1084.4908	17972.3	17028
858.4323	1086.4587	18106.7	17159
858.5773	1088.426	18246.15	17298
858.7223	1090.3925	18232.9	17286.2
858.8673	1092.3584	18190.6	17245.85
859.0123	1094.3235	18084	17140.75
859.1573	1096.2879	17992.55	17045.75
859.3022	1098.2515	18019.1	17073.85
859.4472	1100.2145	18143.95	17199.15
859.5922	1102.1767	18214.35	17266.35
859.7371	1104.1382	18356.95	17409.75
859.8821	1106.099	18580.85	17631.65
860.027	1108.0591	18768.6	17823.9
860.172	1110.0185	18907.3	17960.4
860.3169	1111.9771	18947.95	18003
860.4619	1113.9351	18746.05	17802.15
860.6068	1115.8923	18477.25	17532.75
860.7517	1117.8488	18218.35	17270.9
860.8967	1119.8045	17943.2	17001.95
861.0416	1121.7596	17847.25	16901.2
861.1865	1123.7139	17725.7	16783.95
861.3314	1125.6675	17716.4	16771.6
861.4763	1127.6204	17789.25	16843.8
861.6212	1129.5726	17755.95	16814.75
861.7661	1131.524	17775	16833.35
861.911	1133.4748	17737.3	16793.1
862.0559	1135.4248	17701.7	16754.3
862.2008	1137.3741	17690.55	16748.35
862.3457	1139.3226	17606.05	16660
862.4905	1141.2705	17610.65	16666
862.6354	1143.2176	17483.95	16532.8
862.7803	1145.164	17479.95	16535.95
862.9251	1147.1097	17446.45	16503.7
863.07	1149.0546	17487.25	16543.25
863.2148	1150.9989	17404.3	16458.6
863.3597	1152.9424	17242.6	16298.25
863.5045	1154.8852	17108.15	16163.45
863.6493	1156.8272	16987	16041.9
863.7942	1158.7686	16951.3	15999.8
863.939	1160.7092	16937.2	15993.45
864.0838	1162.6491	16898.6	15952.2
864.2286	1164.5883	16999.45	16056.2
864.3734	1166.5267	17089.65	16147.55
864.5182	1168.4644	17253.15	16309.7
864.663	1170.4014	17403.5	16461.9
864.8078	1172.3377	17678.75	16738.25
864.9526	1174.2732	17877.5	16936.5
865.0974	1176.2081	18172.1	17230.8
865.2421	1178.1421	18423.85	17476.7
865.3869	1180.0755	18701.6	17759.55
865.5317	1182.0082	18811.4	17870.45
865.6764	1183.9401	18875.05	17937.85
865.8212	1185.8713	18725.05	17790.5
865.9659	1187.8017	18440.1	17509.95
866.1106	1189.7315	18203.3	17281.4
866.2554	1191.6605	17895.15	16974.65
866.4001	1193.5888	17642.35	16715
866.5448	1195.5163	17541.45	16604.8
866.6895	1197.4432	17436.1	16497
866.8342	1199.3693	17386	16449.45
866.9789	1201.2947	17349.1	16407.2
867.1236	1203.2193	17280.8	16342.5
867.2683	1205.1432	17356.35	16414.15
867.413	1207.0664	17318.55	16380.8
867.5576	1208.9889	17362.95	16421.65
867.7023	1210.9106	17353.3	16413.3
867.847	1212.8316	17369.95	16429.55
867.9916	1214.7519	17443.5	16492.1
868.1363	1216.6715	17434.3	16493.1
868.2809	1218.5903	17473.6	16530.2
868.4255	1220.5084	17417.15	16476.3
868.5701	1222.4257	17474.85	16533.95
868.7148	1224.3424	17407.95	16475.3
868.8594	1226.2583	17475.1	16536.45
869.004	1228.1735	17543.7	16607.05
869.1486	1230.0879	17594.4	16656.35
869.2932	1232.0016	17687.05	16748.75
869.4377	1233.9146	17736.1	16798.05
869.5823	1235.8269	17683.55	16745.85
869.7269	1237.7384	17576.05	16639.65
869.8715	1239.6492	17362.4	16424.7
870.016	1241.5592	17310.15	16371.3
870.1606	1243.4686	17190.95	16252.35
870.3051	1245.3772	17199.85	16259.5
870.4496	1247.285	17190.2	16251.65
870.5941	1249.1922	17175.65	16236.9
870.7387	1251.0986	17193.5	16256.2
870.8832	1253.0042	17201	16262.25
871.0277	1254.9092	17231.65	16295.95
871.1722	1256.8134	17262.45	16328.7
871.3167	1258.7169	17464.2	16525.35
871.4611	1260.6196	17559	16623.55
871.6056	1262.5216	17812.9	16873.95
871.7501	1264.4229	17956.8	17022.95
871.8945	1266.3234	18114.35	17176.3
872.039	1268.2232	18225.75	17288.35
872.1834	1270.1223	18196.65	17260.15
872.3278	1272.0207	18202.15	17265
872.4723	1273.9183	18183.2	17243.65
872.6167	1275.8151	18066.15	17129.5
872.7611	1277.7113	17987.95	17050.05
872.9055	1279.6067	17895.95	16960.95
873.0499	1281.5014	17815.1	16875.45
873.1943	1283.3953	17854.65	16914.4
873.3386	1285.2885	17921.75	16988.65
873.483	1287.181	17998.5	17060.6
873.6274	1289.0727	18164.15	17232.8
873.7717	1290.9637	18228.25	17294.25
873.9161	1292.854	18396.75	17461.45
874.0604	1294.7435	18458.75	17522.95
874.2047	1296.6323	18598.35	17664.9
874.349	1298.5204	18804.25	17864.8
874.4933	1300.4077	18966.4	18025
874.6376	1302.2943	19053.65	18116.6
874.7819	1304.1802	19057.45	18121.45
874.9262	1306.0653	18871.2	17931.4
875.0705	1307.9497	18635.2	17697.75
875.2147	1309.8333	18435.15	17503.45
875.359	1311.7162	18348.15	17411.3
875.5032	1313.5984	18302.8	17362.15
875.6475	1315.4798	18283.55	17345.55
875.7917	1317.3605	18380.85	17439.9
875.9359	1319.2405	18369.65	17432.75
876.0801	1321.1197	18302.7	17360.65
876.2243	1322.9982	18173.2	17233.5
876.3685	1324.876	18062.55	17127.35
876.5127	1326.753	17946.75	17011.2
876.6569	1328.6293	17917.55	16980.3
876.801	1330.5048	17890.2	16951.2
876.9452	1332.3796	17790.65	16854
877.0893	1334.2537	17794.8	16832.45
877.2335	1336.127	17692	16758.1
877.3776	1337.9996	17654.5	16718.25
877.5217	1339.8714	17664	16729.7
877.6658	1341.7426	17622.1	16639.55
877.8099	1343.6129	17598.05	16656.85
877.954	1345.4826	17529.7	16593.75
878.0981	1347.3515	17540.35	16602.6
878.2422	1349.2196	17466.75	16528.95
878.3862	1351.087	17476.3	16539.55
878.5303	1352.9537	17511.9	16573.85
878.6743	1354.8197	17673.25	16734
878.8184	1356.6849	17818.95	16881.45
878.9624	1358.5493	17895.85	16960.25
879.1064	1360.4131	17942.25	17008.15
879.2504	1362.276	17886.95	16951.2
879.3944	1364.1383	17798.25	16861.7
879.5384	1365.9998	17545.3	16600.1
879.6823	1367.8606	17224.4	16284.1
879.8263	1369.7206	16906.15	15968.75
879.9702	1371.5799	16671.6	15733
880.1142	1373.4384	16461.5	15526.5
880.2581	1375.2962	16294.9	15356.3
880.402	1377.1533	16008.25	15072.2
880.5459	1379.0096	15649.8	14717.2
880.6898	1380.8652	15378.05	14446.7
880.8337	1382.7201	15112.75	14182.6
880.9776	1384.5742	14857.3	13920.4
881.1215	1386.4275	14681.95	13744.4
881.2653	1388.2802	14525.95	13594.05
881.4092	1390.132	14406	13472.45
881.553	1391.9832	14358.75	13422.45
881.6968	1393.8336	14228.1	13291.95
881.8406	1395.6832	14182.2	13246.6
881.9844	1397.5322	14118.85	13184.45
882.1282	1399.3803	14091.65	13152.7
882.272	1401.2278	14029.4	13095.4
882.4158	1403.0745	14027.85	13093.7
882.5595	1404.9204	13975.25	13043.65
882.7033	1406.7656	13990.3	13053.9
882.847	1408.6101	13991.15	13055.55
882.9908	1410.4538	13997.65	13062.95
883.1345	1412.2968	14042.2	13107.2
883.2782	1414.139	14060.35	13127.9
883.4219	1415.9805	14122.25	13190
883.5656	1417.8213	14192.6	13253.95
883.7092	1419.6613	14300	13366.05
883.8529	1421.5006	14455.5	13520.05
883.9965	1423.3391	14641.15	13706.45
884.1402	1425.1769	14939.75	14009.1
884.2838	1427.0139	15388.1	14455.4
884.4274	1428.8502	15968.55	15035.75
884.571	1430.6858	16488.45	15552.8
884.7146	1432.5206	16854.8	15922.8
884.8582	1434.3547	17103.55	16169.9
885.0018	1436.188	17148.55	16217.95
885.1453	1438.0206	17080.4	16146.35
885.2889	1439.8524	16892.1	15960.6
885.4324	1441.6835	16763.05	15828.6
885.5759	1443.5139	16645.9	15711.5
885.7194	1445.3435	16605.9	15674.8
885.8629	1447.1724	16527.85	15598.8
886.0064	1449.0005	16455.9	15524.4
886.1499	1450.8279	16370.45	15438.8
886.2933	1452.6545	16328.4	15398.15
886.4368	1454.4804	16328	15400.35
886.5802	1456.3056	16337.35	15403.55
886.7237	1458.13	16228.3	15300.3
886.8671	1459.9536	16029.25	15099.65
887.0105	1461.7766	15729.8	14801.85
887.1539	1463.5987	15303.5	14370.15
887.2972	1465.4202	14935.75	14004.5
887.4406	1467.2409	14560	13629.2
887.584	1469.0608	14275	13343
887.7273	1470.88	14012.8	13079.55
887.8706	1472.6984	13775.85	12844.45
888.0139	1474.5161	13567.95	12637.65
888.1572	1476.3331	13391.05	12460.1
888.3005	1478.1493	13252.15	12320.2
888.4438	1479.9648	13194.35	12264.9
888.5871	1481.7795	13064.75	12133.5
888.7303	1483.5935	12995	12064.7
888.8736	1485.4067	12927.85	11992.45
889.0168	1487.2192	12867.6	11937.15
889.16	1489.031	12830.2	11896.35
889.3032	1490.842	12758.35	11828.15
889.4464	1492.6522	12736.75	11806.05
889.5896	1494.4618	12684.7	11752.85
889.7327	1496.2705	12668.9	11739.8
889.8759	1498.0785	12601.7	11671.1
890.019	1499.8858	12535.05	11606.45
890.1622	1501.6924	12506.5	11577.5
890.3053	1503.4981	12484.7	11556.1
890.4484	1505.3032	12446.95	11518.15
890.5914	1507.1075	12407.5	11477.6
890.7345	1508.911	12371.55	11442.35
890.8776	1510.7138	12274.1	11344.9
891.0206	1512.5159	12240.25	11311.8
891.1637	1514.3172	12190.15	11263.3
891.3067	1516.1178	12139.65	11211.25
891.4497	1517.9176	12133.5	11204.5
891.5927	1519.7166	12072.5	11146.2
891.7357	1521.515	12038.35	11103.95
891.8786	1523.3126	11993.15	11062.6
892.0216	1525.1094	11962.05	11034.5
892.1645	1526.9055	11885.75	10958.7
892.3074	1528.7008	11834.5	10911.5
892.4503	1530.4954	11784.05	10861.1
892.5932	1532.2893	11768.35	10844.3
892.7361	1534.0824	11716.7	10792.95
892.879	1535.8747	11716.25	10795.1
893.0218	1537.6663	11708.35	10783.9
893.1647	1539.4572	11660.75	10736.35
893.3075	1541.2473	11653.85	10730.05
893.4503	1543.0367	11605.9	10685.85
893.5931	1544.8253	11590.05	10662.55
893.7359	1546.6132	11613.7	10689.8
893.8787	1548.4003	11601.65	10671.05
894.0214	1550.1867	11605.35	10671.2
894.1642	1551.9723	11602.15	10676.4
894.3069	1553.7572	11638.05	10715.7
894.4496	1555.5414	11659.4	10738.4
894.5923	1557.3247	11721.5	10804.6
894.735	1559.1074	11783.7	10872.1
894.8777	1560.8893	11856.45	10938.45
895.0204	1562.6705	11945.7	11029.1
895.163	1564.4509	12004.4	11089.85
895.3056	1566.2305	12035.55	11124.5
895.4482	1568.0094	12102.4	11191.25
895.5908	1569.7876	12115.35	11201.75
895.7334	1571.565	12157.85	11240.6
895.876	1573.3417	12123.75	11209.7
896.0186	1575.1176	12098.7	11185.7
896.1611	1576.8928	12058.1	11147.25
896.3036	1578.6672	11957.95	11050.65
896.4461	1580.4409	11861.6	10956.9
896.5886	1582.2138	11753.2	10843.25
896.7311	1583.986	11664.3	10754
896.8736	1585.7575	11632.2	10719.6
897.0161	1587.5282	11572.4	10662.9
897.1585	1589.2981	11556.95	10650.75
897.3009	1591.0673	11495.9	10588.8
897.4433	1592.8358	11516.7	10609.95
897.5857	1594.6035	11561.6	10648.7
897.7281	1596.3704	11554.95	10644
897.8705	1598.1366	11564.8	10652.9
898.0128	1599.9021	11589.65	10680.8
898.1551	1601.6668	11645.75	10734.2
898.2975	1603.4308	11726.6	10817.55
898.4398	1605.194	11837.05	10923.15
898.5821	1606.9564	11953.8	11050.1
898.7243	1608.7182	12106.65	11206.1
898.8666	1610.4791	12246.45	11350.9
899.0088	1612.2394	12427.55	11532.7
899.1511	1613.9988	12596.35	11698.4
899.2933	1615.7576	12812	11911.25
899.4355	1617.5156	13010.25	12094.1
899.5776	1619.2728	13167.8	12256.05
899.7198	1621.0293	13279.6	12369.35
899.862	1622.785	13249.3	12339.4
900.0041	1624.54	13111.7	12205.6
900.1462	1626.2942	12935.35	12035
900.2883	1628.0477	12667.55	11764.85
900.4304	1629.8005	12413.25	11507.45
900.5725	1631.5525	12182.9	11280.8
900.7145	1633.3037	11982.75	11080.7
900.8566	1635.0542	11869.35	10965.1
900.9986	1636.804	11717.6	10815
901.1406	1638.553	11722.5	10745.85
901.2826	1640.3013	11610.15	10707.5
901.4245	1642.0488	11580.3	10677.6
901.5665	1643.7955	11602.4	10701.75
901.7085	1645.5416	11669.3	10769
901.8504	1647.2868	11751.85	10852.45
901.9923	1649.0313	11821.6	10916.55
902.1342	1650.7751	11968.15	11062.45
902.2761	1652.5181	12081.95	11179.75
902.4179	1654.2604	12280.95	11380.45
902.5598	1656.0019	12538.95	11638.85
902.7016	1657.7427	12830.5	11928.15
902.8434	1659.4828	13067.65	12163.2
902.9852	1661.222	13244.05	12339.7
903.127	1662.9606	13245.5	12341.75
903.2687	1664.6984	13011.3	12105.3
903.4105	1666.4354	12648	11739.35
903.5522	1668.1717	12115.45	11207.95
903.6939	1669.9072	11530.5	10622.4
903.8356	1671.642	11134.65	10225.3
903.9773	1673.3761	10793.8	9889.8
904.119	1675.1094	10481	9577.9
904.2606	1676.8419	10223.5	9320.85
904.4022	1678.5737	10025.15	9119.5
904.5439	1680.3048	9902.8	8995.15
904.6855	1682.0351	9772.7	8867.4
904.827	1683.7646	9677	8768.15
904.9686	1685.4934	9610.35	8708.6
905.1101	1687.2215	9516.45	8612.65
905.2517	1688.9488	9421.8	8523.65
905.3932	1690.6754	9359.65	8458.25
905.5347	1692.4012	9301.95	8400.75
905.6761	1694.1263	9263.05	8360.8
905.8176	1695.8506	9230.85	8329.15
905.9591	1697.5742	9184.4	8285.95
906.1005	1699.297	9137.2	8239.3
906.2419	1701.0191	9076.35	8180.35
906.3833	1702.7404	9053.85	8160.6
906.5246	1704.461	8997.25	8093.9
906.666	1706.1808	8966.85	8064.95
906.8073	1707.8999	8917.3	8019.65
906.9487	1709.6182	8872	7974.3
907.09	1711.3358	8844.2	7949.95
907.2313	1713.0527	8807.5	7915.15
907.3725	1714.7688	8750.3	7847.95
907.5138	1716.4841	8746.55	7846.6
907.655	1718.1987	8715.35	7812.45
907.7962	1719.9126	8673.2	7777
907.9374	1721.6257	8628.4	7733.4
908.0786	1723.338	8629.2	7737.65
908.2198	1725.0496	8574.45	7676.4
908.3609	1726.7605	8569.85	7672.4
908.502	1728.4706	8508.5	7612.2
908.6431	1730.18	8487.6	7593.15
908.7842	1731.8886	8441.1	7547.55
908.9253	1733.5964	8452.9	7539.7
909.0664	1735.3036	8418.3	7518.65
909.2074	1737.0099	8388.25	7494.55
909.3484	1738.7156	8350.9	7460.5
909.4894	1740.4204	8299.55	7404
909.6304	1742.1246	8303.6	7406.65
909.7714	1743.8279	8283.95	7391.8
909.9123	1745.5306	8261	7369
910.0532	1747.2325	8212.7	7318.75
910.1941	1748.9336	8196.65	7302.85
910.335	1750.634	8151.6	7257.3
910.4759	1752.3336	8122.8	7229.4
910.6168	1754.0325	8109.35	7219.85
910.7576	1755.7307	8085	7192.55
910.8984	1757.4281	8080.95	7185.15
911.0392	1759.1247	8064.4	7158.3
911.18	1760.8206	8078.15	7176.3
911.3208	1762.5158	8033.25	7131.65
911.4615	1764.2102	8012.05	7115.55
911.6022	1765.9039	7971.45	7078.5
911.7429	1767.5968	7961.45	7072.2
911.8836	1769.289	7917.65	7026.05
912.0243	1770.9804	7891.8	6995.9
912.1649	1772.6711	7889.85	6993.4
912.3056	1774.361	7867.4	6971.15
912.4462	1776.0502	7863.95	6967.8
912.5868	1777.7386	7834.95	6938.6
912.7274	1779.4263	7811.85	6916
912.8679	1781.1132	7807.8	6918.9
913.0084	1782.7994	7773.1	6884.25
913.149	1784.4849	7769.65	6881.9
913.2895	1786.1696	7756.15	6857.85
913.4299	1787.8535	7714.4	6824
913.5704	1789.5367	7719.25	6831.7
913.7108	1791.2192	7698.35	6809.7
913.8513	1792.9009	7686.9	6771.7
913.9917	1794.5818	7677.15	6780
914.132	1796.2621	7630.55	6736.25
914.2724	1797.9415	7621.7	6729
914.4128	1799.6202	7600.5	6706.6
914.5531	1801.2982	7591.55	6696.2
914.6934	1802.9755	7579.15	6681.75
914.8337	1804.6519	7553.55	6659.75
914.9739	1806.3277	7517	6625.35
915.1142	1808.0027	7487.05	6598
915.2544	1809.6769	7481.1	6593.25
915.3946	1811.3504	7459.2	6569.25
915.5348	1813.0231	7442.95	6555.3
915.675	1814.6951	7409	6518.6
915.8151	1816.3664	7422.35	6529.35
915.9553	1818.0369	7406.2	6512.8
916.0954	1819.7067	7389.8	6497.4
916.2355	1821.3757	7373.55	6479.8
916.3755	1823.044	7363.1	6470.9
916.5156	1824.7115	7345.6	6451.4
916.6556	1826.3783	7302.8	6410.25
916.7956	1828.0443	7280.05	6389.05
916.9356	1829.7096	7260.3	6367
917.0756	1831.3741	7263.15	6368.25
917.2155	1833.0379	7243.7	6355.1
917.3555	1834.701	7232.35	6346.15
917.4954	1836.3633	7223.85	6335.9
917.6353	1838.0248	7196.75	6307
917.7751	1839.6856	7198.4	6306.1
917.915	1841.3457	7197.8	6306.5
918.0548	1843.005	7164.25	6270.4
918.1946	1844.6636	7153	6261.75
918.3344	1846.3214	7131.3	6239.1
918.4742	1847.9785	7113.45	6221.7
918.6139	1849.6349	7103.35	6210.55
918.7537	1851.2904	7085.55	6183.2
918.8934	1852.9453	7075.9	6180.85
919.0331	1854.5994	7047.9	6153.55
919.1727	1856.2528	7077.4	6179.9
919.3124	1857.9054	7042.45	6149.1
919.452	1859.5572	7035.05	6144.05
919.5916	1861.2083	7026	6134.55
919.7312	1862.8587	7001.95	6107.4
919.8708	1864.5084	6965.8	6072.1
920.0103	1866.1572	6958	6064.8
920.1498	1867.8054	6931.75	6038.6
920.2893	1869.4528	6911.9	6016.75
920.4288	1871.0994	6898.05	6003.9
920.5683	1872.7453	6881.55	5987.7
920.7077	1874.3905	6880.15	5970.4
920.8471	1876.0349	6852.15	5957.5
920.9865	1877.6786	6864.35	5970.65
921.1259	1879.3215	6835.15	5943.8
921.2653	1880.9637	6832.7	5941.05
921.4046	1882.6051	6802.7	5911.4
921.5439	1884.2458	6776.65	5882.55
921.6832	1885.8858	6755.65	5864.3
921.8225	1887.525	6745.1	5853
921.9617	1889.1634	6723.3	5829.3
922.101	1890.8011	6712	5818.8
922.2402	1892.4381	6696.55	5803.35
922.3794	1894.0743	6691.35	5796.55
922.5185	1895.7098	6700.15	5808.4
922.6577	1897.3446	6673.1	5779.35
922.7968	1898.9786	6658	5762.85
922.9359	1900.6118	6626.95	5735.8
923.075	1902.2443	6602.55	5712.65
923.214	1903.8761	6575.85	5683.75
923.3531	1905.5071	6535.9	5643.4
923.4921	1907.1374	6544.9	5652.4
923.6311	1908.7669	6524.85	5635.2
923.77	1910.3957	6520.1	5628.75
923.909	1912.0237	6461.75	5567.35
924.0479	1913.651	6455.35	5561.85
924.1868	1915.2776	6444.4	5553.15
924.3257	1916.9034	6420.6	5532.15
924.4646	1918.5285	6379.55	5491.25
924.6034	1920.1528	6378.2	5488.2
924.7422	1921.7764	6376.95	5485.6
924.881	1923.3992	6337.4	5446.55
925.0198	1925.0213	6300.55	5409.7
925.1586	1926.6427	6277.05	5386.55
925.2973	1928.2633	6348.85	5252.8
925.436	1929.8832	6267.85	5373.15
925.5747	1931.5023	6224.25	5331.85
925.7134	1933.1207	6219.5	5331.15
925.852	1934.7383	6216.5	5326.15
925.9906	1936.3552	6205.85	5317.4
926.1292	1937.9714	6164.75	5274.7
926.2678	1939.5868	6143.25	5247.75
926.4064	1941.2015	6139.7	5248.8
926.5449	1942.8154	6091.95	5197.3
926.6834	1944.4286	6085.8	5193.95
926.8219	1946.041	6083.25	5168.45
926.9604	1947.6528	6041.7	5145.35
927.0988	1949.2637	6032.45	5141.95
927.2372	1950.8739	6009.4	5121.2
927.3756	1952.4834	5993.25	5105
927.514	1954.0921	5992.5	5098.8
927.6523	1955.7001	5978.65	5085.1
927.7907	1957.3074	5948.45	5060.85
927.929	1958.9139	5905.75	5018.65
928.0673	1960.5197	5905.95	5017.1
928.2055	1962.1247	5880.5	4992.25
928.3438	1963.729	5838.65	4952.15
928.482	1965.3325	5828.8	4939.1
928.6202	1966.9353	5818.85	4933.65
928.7584	1968.5374	5799.85	4912.25
928.8965	1970.1387	5773.2	4886.75
929.0346	1971.7393	5765.8	4878.55
929.1727	1973.3392	5762.95	4878.2
929.3108	1974.9383	5737.05	4850.25
929.4489	1976.5366	5696.65	4812.1
929.5869	1978.1342	5692.8	4807.9
929.7249	1979.7311	5697.35	4812.75
929.8629	1981.3273	5671.55	4786.55
930.0009	1982.9227	5633.1	4746.75
930.1388	1984.5173	5631.3	4746.9
930.2767	1986.1112	5599	4715.55
930.4146	1987.7044	5608	4722.75
930.5525	1989.2968	5582.7	4697.1
930.6904	1990.8885	5578.25	4693.45
930.8282	1992.4795	5544.75	4662.05
930.966	1994.0697	5552.4	4670.45
931.1038	1995.6592	5515.3	4632.25
931.2415	1997.2479	5498.85	4613.65
931.3793	1998.8359	5511.5	4628.65
931.517	2000.4232	5458.35	4579.85
931.6547	2002.0097	5453.85	4578.4
931.7923	2003.5955	5425.5	4544.2
931.93	2005.1805	5427.75	4546
932.0676	2006.7648	5410.8	4529.5
932.2052	2008.3484	5393.55	4512.55
932.3427	2009.9312	5407.65	4526.4
932.4803	2011.5133	5377	4498
932.6178	2013.0946	5369.1	4493.6
932.7553	2014.6752	5346.4	4467.3
932.8928	2016.2551	5329.65	4446.35
933.0302	2017.8342	5328.45	4447.95
933.1676	2019.4126	5303.3	4424.7
933.305	2020.9902	5262.25	4384.6
933.4424	2022.5672	5270.3	4389.9
933.5798	2024.1433	5276	4392.55
933.7171	2025.7188	5232.25	4353.95
933.8544	2027.2935	5229.15	4351.9
933.9917	2028.8674	5226.5	4350.7
934.129	2030.4406	5192.75	4317.3
934.2662	2032.0131	5161.25	4287.1
934.4034	2033.5849	5163.45	4285.3
934.5406	2035.1559	5148.4	4270.8
934.6778	2036.7261	5145	4265.75
934.8149	2038.2957	5134.4	4251.35
934.952	2039.8645	5122	4241.55
935.0891	2041.4325	5127.25	4242.85
935.2262	2042.9998	5111.7	4231.4
935.3632	2044.5664	5102.65	4222.1
935.5002	2046.1323	5079.6	4201.35
935.6372	2047.6974	5055.4	4178.5
935.7742	2049.2617	5054.85	4179.45
935.9111	2050.8254	5067.05	4153.25
936.048	2052.3883	5049.85	4169.4
936.1849	2053.9504	5033.9	4149.4
936.3218	2055.5118	5008.8	4125.2
936.4586	2057.0725	4990.65	4106.8
936.5955	2058.6325	4979.1	4099.2
936.7323	2060.1917	4969.5	4092.9
936.869	2061.7502	4969.8	4087.45
937.0058	2063.3079	4956.9	4082.3
937.1425	2064.8649	4943.1	4063.75
937.2792	2066.4212	4924.5	4044.05
937.4159	2067.9767	4916.1	4036.35
937.5525	2069.5315	4889.95	4009.25
937.6891	2071.0856	4867.1	3989.15
937.8257	2072.6389	4854.5	3975.9
937.9623	2074.1915	4842.5	3966.05
938.0989	2075.7433	4836.15	3956.85
938.2354	2077.2945	4818.15	3937.4
938.3719	2078.8448	4796.8	3914.9
938.5084	2080.3945	4778.5	3894.05
938.6448	2081.9434	4780.6	3897.45
938.7812	2083.4916	4760.2	3878.65
938.9176	2085.039	4759.05	3872.8
939.054	2086.5857	4740.25	3852.65
939.1903	2088.1317	4727.55	3837.25
939.3267	2089.677	4716.95	3826.1
939.463	2091.2215	4691.5	3804.1
939.5992	2092.7652	4696.35	3805.5
939.7355	2094.3083	4678.95	3791.6
939.8717	2095.8506	4680.4	3795.75
940.0079	2097.3921	4673.05	3789.15
940.1441	2098.933	4663.1	3779.75
940.2802	2100.4731	4661.35	3778.25
940.4163	2102.0124	4644.1	3751
940.5524	2103.5511	4637.25	3752.95
940.6885	2105.089	4623	3737.8
940.8245	2106.6261	4606.8	3722.6
940.9606	2108.1626	4594.7	3710.15
941.0965	2109.6983	4619.2	3709.2
941.2325	2111.2332	4577.7	3691.95
941.3684	2112.7675	4579.5	3693.45
941.5044	2114.301	4558.8	3674
941.6403	2115.8337	4586.25	3701.15
941.7761	2117.3657	4550.35	3664.55
941.912	2118.897	4540.7	3656.05
942.0478	2120.4276	4534.6	3642.85
942.1835	2121.9575	4516.6	3630.35
942.3193	2123.4866	4510.85	3610.35
942.455	2125.0149	4486.7	3596.85
942.5907	2126.5426	4463.55	3581.95
942.7264	2128.0695	4453.2	3568.95
942.8621	2129.5956	4439.5	3563.9
942.9977	2131.1211	4441.15	3557.9
943.1333	2132.6458	4413.35	3530.5
943.2689	2134.1698	4434.25	3549.6
943.4044	2135.693	4413	3522.35
943.54	2137.2155	4423.55	3534.8
943.6755	2138.7373	4395.15	3509.3
943.8109	2140.2584	4377.3	3497.6
943.9464	2141.7787	4361.55	3476.6
944.0818	2143.2983	4352.6	3475.35
944.2172	2144.8171	4328.75	3450.75
944.3526	2146.3353	4332.4	3450.7
944.4879	2147.8527	4321.6	3439.75
944.6232	2149.3693	4308.05	3424.3
944.7585	2150.8853	4306.3	3418.95
944.8938	2152.4005	4276.2	3390.5
945.029	2153.9149	4297.55	3410.65
945.1642	2155.4287	4286.4	3399.1
945.2994	2156.9417	4264.4	3378.9
945.4346	2158.454	4262.45	3377.95
945.5697	2159.9655	4241.3	3359.35
945.7048	2161.4764	4226.4	3345.55
945.8399	2162.9865	4212.95	3330.1
945.9749	2164.4958	4211.65	3330.65
946.1099	2166.0045	4208.15	3322.9
946.2449	2167.5124	4195.4	3313.2
946.3799	2169.0195	4184.75	3301.25
946.5148	2170.526	4180.05	3294.15
946.6498	2172.0317	4166.65	3283.05
946.7846	2173.5367	4164.5	3280.85
946.9195	2175.0409	4152.4	3268.35
947.0543	2176.5445	4166.2	3282.45
947.1891	2178.0473	4132.05	3244.1
947.3239	2179.5494	4112.05	3222.35
947.4587	2181.0507	4106.35	3222.35
947.5934	2182.5513	4089.3	3205.55
947.7281	2184.0512	4101.4	3215.45
947.8628	2185.5504	4093.4	3209.25
947.9974	2187.0488	4065	3183.45
948.132	2188.5465	4055.5	3173.6
948.2666	2190.0435	4048.3	3164.55
948.4012	2191.5397	4040.6	3153.65
948.5357	2193.0353	4021.65	3131.6
948.6702	2194.5301	4008	3118.55
948.8047	2196.0241	3996.2	3106.55
948.9392	2197.5175	3989.75	3099.15
949.0736	2199.0101	3964.05	3072.05
949.208	2200.502	3967.8	3081.55
949.3424	2201.9931	3958.4	3077.9
949.4767	2203.4835	3934.25	3052.25
949.611	2204.9733	3934.15	3045.05
949.7453	2206.4622	3906.2	3026.55
949.8796	2207.9505	3909.75	3026.7
950.0138	2209.438	3890.4	3013.95
950.148	2210.9248	3868.75	2987.8
950.2822	2212.4109	3853.35	2969
950.4164	2213.8962	3863.4	2975.05
950.5505	2215.3809	3861.65	2970.15
950.6846	2216.8648	3849.25	2959.6
950.8186	2218.3479	3845.15	2951.35
950.9527	2219.8304	3834.35	2940.75
951.0867	2221.3121	3818.95	2927.6
951.2207	2222.7931	3793.3	2904.25
951.3546	2224.2733	3799.25	2912.7
951.4886	2225.7529	3789.9	2906.7
951.6225	2227.2317	3776.2	2888.75
951.7563	2228.7098	3756.9	2876.15
951.8902	2230.1872	3738.25	2856.2
952.024	2231.6638	3742.6	2861.75
952.1578	2233.1397	3732.15	2848.45
952.2916	2234.6149	3721.2	2839.85
952.4253	2236.0894	3723.6	2840.75
952.559	2237.5632	3720.7	2826.85
952.6927	2239.0362	3695.25	2809.35
952.8263	2240.5085	3697.95	2813.25
952.9599	2241.9801	3674.45	2787.55
953.0935	2243.4509	3671.55	2785.7
953.2271	2244.921	3672.85	2782.25
953.3606	2246.3904	3651.05	2760
953.4941	2247.8591	3633.1	2746.95
953.6276	2249.3271	3631.4	2744.65
953.7611	2250.7943	3615.65	2727.2
953.8945	2252.2608	3598.65	2712
954.0279	2253.7266	3595.15	2706.95
954.1612	2255.1917	3587.9	2702.1
954.2946	2256.656	3567.8	2682.2
954.4279	2258.1197	3575.65	2692.7
954.5612	2259.5826	3553.85	2668.4
954.6944	2261.0447	3556.65	2670.5
954.8276	2262.5062	3551.8	2662.8
954.9608	2263.9669	3542.7	2650.85
955.094	2265.4269	3539.5	2652.6
955.2271	2266.8862	3533.2	2649.45
955.3602	2268.3448	3514.5	2629.95
955.4933	2269.8026	3513.05	2630.4
955.6264	2271.2598	3502.5	2619.7
955.7594	2272.7162	3507.15	2624.75
955.8924	2274.1719	3497.25	2609.3
956.0253	2275.6268	3473.75	2584
956.1583	2277.0811	3475.9	2586.55
956.2912	2278.5346	3473.55	2588.85
956.4241	2279.9874	3462.85	2578.85
956.5569	2281.4395	3466.85	2584.85
956.6897	2282.8908	3454	2564.65
956.8225	2284.3414	3454.9	2569.15
956.9553	2285.7914	3427.95	2545.55
957.088	2287.2406	3441.1	2554
957.2207	2288.689	3433.65	2547.2
957.3534	2290.1368	3418.55	2528.85
957.486	2291.5838	3412.8	2520.6
957.6186	2293.0302	3404.15	2511.35
957.7512	2294.4758	3376	2485.1
957.8838	2295.9206	3374.6	2484.9
958.0163	2297.3648	3367.8	2480.95
958.1488	2298.8082	3367.95	2481.9
958.2813	2300.251	3363.3	2477.45
958.4137	2301.693	3361.8	2469.35
958.5461	2303.1343	3344.25	2455.8
958.6785	2304.5748	3335.6	2450.65
958.8108	2306.0147	3327	2444.95
958.9432	2307.4538	3328.15	2444.05
959.0754	2308.8922	3309.25	2428.7
959.2077	2310.3299	3312.1	2432.15
959.3399	2311.7669	3315.95	2433
959.4721	2313.2031	3284.5	2397.4
959.6043	2314.6387	3292.8	2405.85
959.7365	2316.0735	3273.2	2386.1
959.8686	2317.5076	3254.25	2366.65
960.0006	2318.941	3257.8	2371.25
960.1327	2320.3737	3255.55	2364.45
960.2647	2321.8056	3255.8	2364.05
960.3967	2323.2369	3224.6	2336.2
960.5287	2324.6674	3220.75	2333.55
960.6606	2326.0972	3229.95	2341.85
960.7925	2327.5263	3221.95	2336.35
960.9244	2328.9547	3202.45	2317.95
961.0562	2330.3823	3200.9	2310.85
961.1881	2331.8092	3201.6	2307.1
961.3198	2333.2355	3188.65	2298.55
961.4516	2334.661	3172.25	2282.1
961.5833	2336.0858	3166.9	2275.4
961.715	2337.5098	3157.95	2268.75
961.8467	2338.9332	3154.7	2268.25
961.9783	2340.3558	3149.7	2260.6
962.1099	2341.7778	3143.2	2257.4
962.2415	2343.199	3137.25	2251.5
962.373	2344.6195	3132.15	2247.15
962.5045	2346.0393	3124.65	2240.45
962.636	2347.4583	3129.35	2242.95
962.7675	2348.8767	3111.9	2224.4
962.8989	2350.2943	3122.2	2233
963.0303	2351.7113	3108.95	2219.1
963.1617	2353.1275	3111	2220.65
963.293	2354.543	3106.1	2208.65
963.4243	2355.9578	3093.35	2205.8
963.5556	2357.3718	3072.9	2188.5
963.6868	2358.7852	3058.25	2171.65
963.818	2360.1978	3062.5	2175.7
963.9492	2361.6098	3047.95	2162.85
964.0803	2363.021	3036.45	2146.35
964.2114	2364.4315	3035.8	2150
964.3425	2365.8413	3035.65	2149.65
964.4736	2367.2504	3022.35	2138.1
964.6046	2368.6587	3007.55	2123.1
964.7356	2370.0664	2995.7	2111.45
964.8666	2371.4733	2995	2110.65
964.9975	2372.8795	2993.9	2111.7
965.1284	2374.285	2978.95	2095.55
965.2593	2375.6899	2968.9	2086.45
965.3901	2377.0939	2958	2075.3
965.5209	2378.4973	2959.45	2075.85
965.6517	2379.9	2945.4	2061.5
965.7825	2381.3019	2940.2	2055.85
965.9132	2382.7032	2923.2	2043.65
966.0439	2384.1037	2930.55	2050.65
966.1745	2385.5035	2923.3	2044.15
966.3051	2386.9027	2907.8	2026.7
966.4357	2388.3011	2917.45	2034.6
966.5663	2389.6987	2901.6	2020.35
966.6968	2391.0957	2882.85	2002.4
966.8273	2392.492	2859.3	1977.75
966.9578	2393.8876	2857.2	1973.75
967.0882	2395.2824	2852.45	1970.9
967.2186	2396.6765	2859.85	1977.8
967.349	2398.07	2848.7	1967.55
967.4793	2399.4627	2846.45	1962
967.6097	2400.8547	2836.5	1953.1
967.7399	2402.246	2842.55	1955
967.8702	2403.6366	2830.75	1948.6
968.0004	2405.0265	2818.2	1935.7
968.1306	2406.4156	2818.55	1932.55
968.2607	2407.8041	2806.75	1923.25
968.3909	2409.1918	2795.1	1909.45
968.521	2410.5789	2793.5	1909.45
968.651	2411.9652	2791.25	1905.45
968.781	2413.3508	2776.15	1893.3
968.911	2414.7358	2759.2	1878.35
969.041	2416.12	2760.85	1880.2
969.1709	2417.5035	2760.1	1877.7
969.3008	2418.8863	2745.05	1861.9
969.4307	2420.2684	2738.4	1856.25
969.5606	2421.6497	2730.65	1846.75
969.6904	2423.0304	2716.25	1833.45
969.8201	2424.4104	2720.9	1836.7
969.9499	2425.7896	2711.65	1827.15
970.0796	2427.1682	2709.6	1828
970.2093	2428.546	2702.8	1819.8
970.3389	2429.9232	2692.25	1809
970.4685	2431.2996	2687.4	1805.8
970.5981	2432.6753	2683.75	1800.75
970.7277	2434.0503	2678.65	1795.1
970.8572	2435.4246	2679.9	1796.35
970.9867	2436.7982	2675.2	1787.75
971.1161	2438.1711	2660.4	1777.75
971.2456	2439.5433	2645.4	1760.95
971.375	2440.9148	2647.65	1760.4
971.5043	2442.2856	2629.3	1747.4
971.6336	2443.6557	2629.95	1746.3
971.7629	2445.025	2625.15	1740.8
971.8922	2446.3937	2623.8	1740.05
972.0214	2447.7617	2623.75	1739.6
972.1506	2449.1289	2618.9	1735.4
972.2798	2450.4955	2609.85	1723.2
972.4089	2451.8613	2606.5	1726.6
972.538	2453.2265	2602.8	1717
972.6671	2454.5909	2591.45	1706.5
972.7961	2455.9546	2590.75	1708.45
972.9251	2457.3177	2588.3	1706.95
973.0541	2458.68	2578.85	1692.6
973.1831	2460.0416	2582.15	1698.05
973.312	2461.4025	2577.1	1692.4
973.4408	2462.7627	2571.45	1676.8
973.5697	2464.1222	2558.7	1678.25
973.6985	2465.4811	2542.15	1660.4
973.8273	2466.8392	2554.2	1671.4
973.956	2468.1966	2554.25	1666.45
974.0847	2469.5533	2553.9	1668.4
974.2134	2470.9093	2544.25	1659.9
974.3421	2472.2645	2539.35	1656.75
974.4707	2473.6191	2530.5	1646.75
974.5993	2474.973	2520	1638.25
974.7278	2476.3262	2529.45	1643.55
974.8563	2477.6787	2515.45	1633.15
974.9848	2479.0305	2504.1	1621.45
975.1132	2480.3816	2512.55	1628.35
975.2417	2481.7319	2496.05	1612.85
975.37	2483.0816	2483	1599.15
975.4984	2484.4306	2474.85	1593.2
975.6267	2485.7789	2479.7	1598.05
975.755	2487.1264	2471.3	1588.15
975.8833	2488.4733	2465.4	1582.75
976.0115	2489.8195	2456.65	1565.3
976.1397	2491.165	2452.45	1566.3
976.2678	2492.5097	2444.6	1561.55
976.3959	2493.8538	2431.45	1548.7
976.524	2495.1972	2427.65	1543.55
976.6521	2496.5398	2429.45	1546.55
976.7801	2497.8818	2422.8	1538.3
976.9081	2499.2231	2422.6	1538.45
977.036	2500.5637	2413.25	1526.15
977.164	2501.9035	2412.9	1526.85
977.2918	2503.2427	2404.9	1515.6
977.4197	2504.5812	2403.5	1520.1
977.5475	2505.919	2388.7	1499.85
977.6753	2507.256	2380.2	1496.6
977.8031	2508.5924	2375.1	1491.4
977.9308	2509.9281	2383.7	1495.5
978.0585	2511.2631	2381.1	1498.1
978.1861	2512.5974	2371.95	1488.95
978.3137	2513.9309	2359.4	1475.8
978.4413	2515.2638	2389	1472.95
978.5689	2516.596	2360.9	1476.25
978.6964	2517.9275	2344.5	1460.3
978.8239	2519.2583	2336.75	1452.4
978.9513	2520.5884	2335.4	1451.2
979.0788	2521.9178	2338.1	1452.85
979.2062	2523.2465	2325	1442.25
979.3335	2524.5745	2320.9	1438.85
979.4608	2525.9018	2313.3	1431.5
979.5881	2527.2284	2318.4	1436.25
979.7154	2528.5543	2309.25	1426.6
979.8426	2529.8796	2309.05	1425.55
979.9698	2531.2041	2311.3	1427.45
980.0969	2532.5279	2295.55	1412.3
980.224	2533.851	2294.4	1412.15
980.3511	2535.1735	2295.7	1409.05
980.4781	2536.4952	2283.9	1401.35
980.6052	2537.8163	2279.6	1394.4
980.7321	2539.1366	2271.3	1387.55
980.8591	2540.4562	2280.5	1395.05
980.986	2541.7752	2270.1	1385.45
981.1129	2543.0935	2272.85	1387.05
981.2397	2544.411	2265.95	1380.75
981.3665	2545.7279	2272.3	1386.45
981.4933	2547.0441	2265	1379.8
981.62	2548.3596	2262.65	1372.35
981.7467	2549.6744	2256.8	1372.1
981.8734	2550.9885	2250.7	1363.95
982.0001	2552.3019	2246.85	1362.35
982.1267	2553.6146	2227.5	1342.2
982.2532	2554.9266	2238.3	1355.85
982.3798	2556.2379	2234.8	1349.5
982.5063	2557.5485	2227.45	1344.85
982.6327	2558.8585	2230.05	1337.15
982.7592	2560.1677	2225.9	1338
982.8856	2561.4762	2228.55	1344.05
983.0119	2562.7841	2210.65	1322.45
983.1383	2564.0913	2212.8	1329.95
983.2646	2565.3977	2208.75	1323.3
983.3908	2566.7035	2210.6	1327.1
983.517	2568.0086	2203.3	1314.85
983.6432	2569.313	2211.45	1327.35
983.7694	2570.6167	2207.45	1320.4
983.8955	2571.9197	2202.1	1319.8
984.0216	2573.222	2195.6	1308.2
984.1476	2574.5236	2191.8	1306.7
984.2737	2575.8246	2186.4	1297.6
984.3996	2577.1248	2192.2	1306.6
984.5256	2578.4244	2181.35	1295.05
984.6515	2579.7232	2177.15	1293.15
984.7774	2581.0214	2201.3	1289.2
984.9032	2582.3189	2184.6	1299.15
985.029	2583.6157	2178.6	1290.75
985.1548	2584.9118	2171.5	1286.9
985.2806	2586.2072	2172.6	1289.25
985.4063	2587.5019	2162.05	1278.2
985.5319	2588.7959	2170.6	1285.75
985.6576	2590.0893	2168.9	1281.55
985.7832	2591.3819	2168.6	1286.4
985.9087	2592.6739	2163.25	1277.75
986.0343	2593.9652	2164.3	1279.05
986.1597	2595.2557	2153.9	1268.55
986.2852	2596.5456	2159.8	1273.7
986.4106	2597.8348	2152.3	1267.55
986.536	2599.1234	2153.85	1270.05
986.6614	2600.4112	2155.55	1270
986.7867	2601.6983	2143	1255.6
986.912	2602.9848	2148.15	1262.75
987.0372	2604.2705	2134.45	1240.65
987.1624	2605.5556	2145.25	1259.05
987.2876	2606.84	2127.9	1245
987.4128	2608.1237	2120.25	1235.9
987.5379	2609.4067	2114.15	1230.35
987.6629	2610.689	2121.85	1229.55
987.788	2611.9707	2114.6	1228.4
987.913	2613.2516	2105.55	1216.95
988.0379	2614.5319	2102.5	1218.15
988.1629	2615.8115	2092.8	1206.75
988.2878	2617.0903	2081.9	1196.3
988.4126	2618.3685	2082.75	1197.05
988.5375	2619.6461	2086	1198
988.6622	2620.9229	2080.15	1195.85
988.787	2622.199	2071.15	1185.95
988.9117	2623.4745	2075.2	1191.2
989.0364	2624.7493	2070.45	1188.5
989.161	2626.0234	2068.5	1185.65
989.2857	2627.2968	2060.15	1174.4
989.4102	2628.5695	2071.2	1187.9
989.5348	2629.8415	2048.05	1165.1
989.6593	2631.1128	2045.15	1160.05
989.7837	2632.3835	2041.15	1158.55
989.9082	2633.6535	2041.4	1156.9
990.0326	2634.9228	2033.1	1148.55
990.1569	2636.1914	2031.8	1147.65
990.2812	2637.4593	2042.05	1159.6
990.4055	2638.7265	2027.3	1141.9
990.5298	2639.9931	2023.2	1137.85
990.654	2641.259	2027.85	1144.05
990.7782	2642.5242	2029.9	1145.15
990.9023	2643.7887	2007.75	1123
991.0264	2645.0525	2004.95	1121.9
991.1505	2646.3156	2007.85	1123.95
991.2745	2647.5781	1998.4	1115.65
991.3985	2648.8398	1995.5	1113.5
991.5225	2650.1009	2002.65	1111.75
991.6464	2651.3613	1993.95	1112.3
991.7703	2652.6211	1985.45	1102.9
991.8942	2653.8801	1982.15	1100.45
992.018	2655.1385	1988.65	1102.25
992.1418	2656.3961	1988.9	1105.15
992.2655	2657.6531	1974.2	1092.65
992.3892	2658.9094	1980.35	1096.15
992.5129	2660.1651	1970.55	1087.8
992.6366	2661.42	1970.85	1086.55
992.7602	2662.6743	1976.95	1090.95
992.8837	2663.9279	1980.65	1096.25
993.0073	2665.1808	1973.05	1090.05
993.1307	2666.433	1985.5	1100.5
993.2542	2667.6846	1975.55	1090.75
993.3776	2668.9354	1965.6	1078.75
993.501	2670.1856	1969.25	1083.8
993.6244	2671.4351	1972.8	1090.2
993.7477	2672.6839	1967.8	1083.65
993.8709	2673.9321	1964.25	1084.1
993.9942	2675.1795	1974.1	1089.8
994.1174	2676.4263	1966.95	1085.35
994.2405	2677.6724	1972.45	1090.7
994.3637	2678.9179	1971.75	1087.35
994.4868	2680.1626	1965.15	1081.35
994.6098	2681.4067	1976	1093.25
994.7328	2682.6501	1971.2	1088.05
994.8558	2683.8928	1959.6	1077.55
994.9788	2685.1348	1957.15	1075.4
995.1017	2686.3761	1943.95	1060.1
995.2245	2687.6168	1946.45	1062.4
995.3474	2688.8568	1938.65	1054.95
995.4702	2690.0961	1928.45	1048.15
995.5929	2691.3348	1927.8	1044.9
995.7156	2692.5727	1929.15	1047.25
995.8383	2693.81	1924.4	1043.35
995.961	2695.0466	1913.9	1033.55
996.0836	2696.2826	1920.45	1035.7
996.2062	2697.5178	1925.5	1038.95
996.3287	2698.7524	1916.95	1034.05
996.4512	2699.9863	1912.55	1029.25
996.5737	2701.2195	1907.75	1026.65
996.6961	2702.452	1912.15	1027.5
996.8185	2703.6839	1903.8	1020.65
996.9408	2704.9151	1915.7	1033.05
997.0631	2706.1456	1917.25	1032.2
997.1854	2707.3755	1920.45	1037.25
997.3077	2708.6046	1927.5	1042.2
997.4299	2709.8331	1929.8	1046.25
997.552	2711.0609	1937.7	1055.05
997.6742	2712.2881	1946.05	1063.55
997.7963	2713.5145	1952.15	1066
997.9183	2714.7403	1952.4	1067.9
998.0403	2715.9654	1956.7	1075.05
998.1623	2717.1899	1980.35	1083.8
998.2842	2718.4136	1975.85	1094.8
998.4062	2719.6367	1984.05	1100.95
998.528	2720.8591	1997.8	1108.65
998.6498	2722.0809	1997.95	1115.5
998.7716	2723.3019	2008.65	1122.7
998.8934	2724.5223	2020.15	1138.95
999.0151	2725.7421	2025.8	1142.95
999.1368	2726.9611	2030.05	1145.55
999.2584	2728.1795	2023.95	1137.6
999.38	2729.3972	2007.25	1125.1
999.5016	2730.6142	2007.4	1112.75
999.6231	2731.8306	1979.8	1099
999.7446	2733.0462	1963.25	1078.25
999.8661	2734.2612	1949.4	1063.9
999.9875	2735.4756	1932.95	1050.9
1000.1089	2736.6892	1910.75	1026.55
1000.2302	2737.9022	1895.35	1015
1000.3515	2739.1145	1880.35	995.25
1000.4728	2740.3262	1883.7	993.9
1000.594	2741.5372	1853.7	972.65
1000.7152	2742.7475	1839.3	960.05
1000.8363	2743.9571	1828.25	943.55
1000.9575	2745.1661	1817	930.9
1001.0785	2746.3744	1818.85	936.05
1001.1996	2747.582	1796.5	914.15
1001.3206	2748.7889	1786.45	902.1
1001.4415	2749.9952	1784.5	904.1
1001.5625	2751.2008	1770.75	887.9
1001.6833	2752.4057	1782.35	897.15
1001.8042	2753.61	1759.05	876.45
1001.925	2754.8136	1760.5	878.4
1002.0458	2756.0165	1761.8	880
1002.1665	2757.2188	1750.95	872.1
1002.2872	2758.4204	1750.35	870
1002.4078	2759.6213	1753	869.95
1002.5285	2760.8215	1759.45	873.4
1002.649	2762.0211	1746.8	862.75
1002.7696	2763.22	1742.45	857.35
1002.8901	2764.4182	1739.55	854.2
1003.0106	2765.6158	1735.8	853.15
1003.131	2766.8127	1726.1	843.25
1003.2514	2768.009	1725.9	843.4
1003.3717	2769.2045	1718.9	835.85
1003.492	2770.3994	1729.95	848.25
1003.6123	2771.5936	1718.75	836.25
1003.7325	2772.7872	1708.95	828.6
1003.8527	2773.9801	1710.35	827.2
1003.9729	2775.1723	1718.7	819.8
1004.093	2776.3639	1714	835.05
1004.2131	2777.5548	1712.2	827.45
1004.3331	2778.745	1700.95	819.95
1004.4531	2779.9346	1696.25	815.55
1004.5731	2781.1235	1705.65	824.75
1004.693	2782.3117	1702.9	823.4
1004.8129	2783.4992	1707.95	829.45
1004.9328	2784.6861	1703.15	820.15
1005.0526	2785.8723	1708.35	828.2
1005.1723	2787.0579	1725.5	842.75
1005.2921	2788.2428	1720.8	840.2
1005.4118	2789.427	1730.95	852.7
1005.5314	2790.6106	1726.9	846.25
1005.651	2791.7935	1741.25	858.4
1005.7706	2792.9757	1737.3	857.95
1005.8902	2794.1573	1759.2	875.1
1006.0097	2795.3382	1762.35	880.8
1006.1291	2796.5184	1773.05	893.3
1006.2485	2797.698	1783.5	901.5
1006.3679	2798.8769	1802.9	920.35
1006.4873	2800.0551	1821.75	942.95
1006.6066	2801.2327	1830.55	945.1
1006.7258	2802.4096	1842.55	964.95
1006.8451	2803.5859	1865.35	983.6
1006.9642	2804.7615	1882.7	1002.85
1007.0834	2805.9364	1902.1	1022.25
1007.2025	2807.1106	1927.55	1048.3
1007.3216	2808.2842	1936.15	1055.3
1007.4406	2809.4572	1983.15	1102
1007.5596	2810.6294	2021.35	1140.2
1007.6785	2811.801	2052.55	1171.7
1007.7975	2812.972	2083.2	1205.1
1007.9163	2814.1423	2129.55	1248.7
1008.0352	2815.3119	2175.7	1295.35
1008.154	2816.4808	2230.35	1352
1008.2727	2817.6491	2254.8	1375.4
1008.3914	2818.8167	2305.05	1424.5
1008.5101	2819.9837	2365	1477.95
1008.6288	2821.15	2408	1525.8
1008.7474	2822.3157	2456.8	1578.4
1008.8659	2823.4807	2496.85	1617.05
1008.9844	2824.645	2544.75	1663.2
1009.1029	2825.8086	2589.15	1709.65
1009.2214	2826.9716	2632.9	1755.4
1009.3398	2828.134	2680.6	1799.6
1009.4581	2829.2957	2708.3	1828.25
1009.5764	2830.4567	2741.3	1861.65
1009.6947	2831.617	2769.85	1888
1009.813	2832.7767	2788.7	1908.85
1009.9312	2833.9358	2781.65	1903.55
1010.0493	2835.0941	2772.1	1889.95
1010.1675	2836.2519	2769.95	1890.65
1010.2855	2837.4089	2753.55	1873.9
1010.4036	2838.5653	2737.85	1858.3
1010.5216	2839.7211	2748.95	1866.8
1010.6396	2840.8761	2739.2	1858.3
1010.7575	2842.0306	2760.75	1880.8
1010.8754	2843.1843	2800.1	1920.45
1010.9932	2844.3374	2838.65	1958.95
1011.111	2845.4899	2891.95	2010.65
1011.2288	2846.6417	2953.2	2072.2
1011.3465	2847.7928	3018.55	2140.4
1011.4642	2848.9433	3108.5	2229.95
1011.5818	2850.0931	3181.6	2301.55
1011.6995	2851.2422	3246.3	2366.1
1011.817	2852.3907	3302.1	2421.8
1011.9345	2853.5385	3365.25	2483.85
1012.052	2854.6857	3447.2	2541.5
1012.1695	2855.8323	3475.7	2597.5
1012.2869	2856.9781	3511.55	2632
1012.4042	2858.1233	3565.7	2687.9
1012.5216	2859.2679	3621	2739.85
1012.6389	2860.4118	3658.05	2780.85
1012.7561	2861.555	3705.7	2821.75
1012.8733	2862.6976	3737.9	2856.65
1012.9905	2863.8395	3778.55	2900.25
1013.1076	2864.9808	3799.5	2918
1013.2247	2866.1214	3804.6	2926.75
1013.3417	2867.2614	3816.05	2936.75
1013.4587	2868.4007	3829.95	2949.25
1013.5757	2869.5393	3825.75	2943
1013.6926	2870.6773	3857.35	2976.35
1013.8095	2871.8146	3860.3	2976.8
1013.9263	2872.9513	3862.65	2980.4
1014.0431	2874.0874	3854.15	2975.8
1014.1599	2875.2227	3845.45	2967.05
1014.2766	2876.3574	3835.45	2956.05
1014.3933	2877.4915	3804.4	2926.3
1014.51	2878.6249	3788.1	2911.85
1014.6266	2879.7577	3753.4	2873.5
1014.7431	2880.8898	3750.95	2860.2
1014.8596	2882.0212	3728.8	2854.6
1014.9761	2883.152	3710.05	2830.8
1015.0925	2884.2821	3691.45	2813.75
1015.2089	2885.4116	3679.75	2800.55
1015.3253	2886.5405	3697.05	2817.2
1015.4416	2887.6686	3692.05	2811.1
1015.5579	2888.7962	3690.65	2814.6
1015.6741	2889.923	3687.55	2807.9
1015.7903	2891.0493	3711.85	2834.45
1015.9065	2892.1748	3726.7	2846.05
1016.0226	2893.2997	3729.15	2849.5
1016.1387	2894.424	3745.3	2865.95
1016.2547	2895.5476	3778.55	2900.95
1016.3707	2896.6706	3787.9	2909.4
1016.4866	2897.7929	3818.2	2937.55
1016.6025	2898.9145	3841.8	2964.35
1016.7184	2900.0355	3871.9	2994.1
1016.8342	2901.1559	3900.6	3023.4
1016.95	2902.2756	3940.1	3062.1
1017.0658	2903.3946	3955.05	3076.65
1017.1815	2904.513	4003.05	3122.1
1017.2971	2905.6308	4022.15	3145.4
1017.4127	2906.7479	4029	3149
1017.5283	2907.8643	4049.4	3170.6
1017.6439	2908.9801	4074.9	3196.3
1017.7594	2910.0953	4073.8	3197.05
1017.8748	2911.2098	4082.25	3199.85
1017.9902	2912.3236	4092.45	3206.7
1018.1056	2913.4368	4076.4	3196
1018.2209	2914.5494	4052.1	3172.65
1018.3362	2915.6613	4021.3	3137.75
1018.4515	2916.7725	3985.35	3105.65
1018.5667	2917.8831	3970.3	3089.9
1018.6819	2918.9931	3924.95	3044.55
1018.797	2920.1024	3890.8	3010.55
1018.9121	2921.211	3882.2	3003.5
1019.0271	2922.319	3874.6	2995.3
1019.1421	2923.4264	3828.45	2952.1
1019.2571	2924.5331	3827.8	2950.3
1019.372	2925.6391	3818.75	2941.05
1019.4869	2926.7445	3784.75	2908.1
1019.6017	2927.8493	3802.8	2923.25
1019.7165	2928.9534	3783.2	2905.55
1019.8313	2930.0569	3805	2922.5
1019.946	2931.1597	3792	2914.25
1020.0606	2932.2619	3770.8	2892.7
1020.1753	2933.3634	3770.1	2891.5
1020.2899	2934.4643	3763	2879.35
1020.4044	2935.5645	3753.05	2868.45
1020.5189	2936.6641	3726.2	2844.4
1020.6334	2937.763	3676.3	2799.4
1020.7478	2938.8613	3635.9	2755.45
1020.8622	2939.959	3577.3	2694
1020.9765	2941.056	3507.35	2631.95
1021.0908	2942.1523	3424.75	2545.45
1021.2051	2943.248	3341.85	2463.95
1021.3193	2944.3431	3244.8	2367.9
1021.4334	2945.4375	3158	2280.95
1021.5476	2946.5313	3058.5	2181.25
1021.6617	2947.6244	2949.9	2072.3
1021.7757	2948.7169	2849.1	1970.9
1021.8897	2949.8087	2760.5	1882.85
1022.0037	2950.8999	2664.6	1788.75
1022.1176	2951.9904	2571	1693.75
1022.2315	2953.0803	2510.8	1632.65
1022.3453	2954.1696	2446.85	1570.6
1022.4591	2955.2582	2396.75	1520.85
1022.5728	2956.3462	2353.65	1476.75
1022.6865	2957.4335	2297.45	1418.75
1022.8002	2958.5202	2277.35	1397.05
1022.9138	2959.6062	2244.6	1368.3
1023.0274	2960.6916	2219.9	1342.2
1023.141	2961.7764	2192.5	1315.35
1023.2545	2962.8605	2184.35	1306.75
1023.3679	2963.9439	2178.2	1301.75
1023.4813	2965.0267	2164.1	1286.15
1023.5947	2966.1089	2167.7	1269.5
1023.708	2967.1905	2145.1	1269.7
1023.8213	2968.2714	2135.95	1259.4
1023.9346	2969.3516	2127.35	1248.3
1024.0478	2970.4312	2147.55	1264.25
1024.1609	2971.5102	2139.65	1262.85
1024.274	2972.5885	2128.1	1250
1024.3871	2973.6662	2134.15	1250.65
1024.5002	2974.7432	2142.75	1267.45
1024.6132	2975.8196	2121.55	1244.95
1024.7261	2976.8954	2121.85	1246.2
1024.839	2977.9705	2107.15	1229.1
1024.9519	2979.045	2099.2	1223.05
1025.0647	2980.1188	2075.65	1197.85
1025.1775	2981.192	2054.8	1178.15
1025.2902	2982.2645	2040.95	1163.85
1025.4029	2983.3364	2014.9	1137.05
1025.5156	2984.4077	1972.4	1096.9
1025.6282	2985.4783	1951.6	1068.55
1025.7407	2986.5483	1925.2	1050.45
1025.8532	2987.6177	1894.5	1017.55
1025.9657	2988.6864	1855.4	977
1026.0782	2989.7545	1822.8	945.65
1026.1906	2990.8219	1785.4	909.85
1026.3029	2991.8887	1747.25	868.6
1026.4152	2992.9548	1725.85	849.85
1026.5275	2994.0204	1686.95	809.05
1026.6397	2995.0852	1664.1	788.2
1026.7519	2996.1495	1634	756.15
1026.864	2997.2131	1610.95	733.2
1026.9761	2998.276	1595.05	717.7
1027.0882	2999.3383	1569.2	692.2
1027.2002	3000.4	1548.8	671.7
1027.3122	3001.4611	1545.3	667.5
1027.4241	3002.5215	1517.85	639.1
1027.536	3003.5812	1503.7	628
1027.6478	3004.6404	1495.15	618.35
1027.7596	3005.6989	1480.55	602.55
1027.8714	3006.7567	1468.6	591.65
1027.9831	3007.8139	1495.4	583.9
1028.0947	3008.8705	1450.2	576.25
1028.2064	3009.9264	1448	566.3
1028.3179	3010.9818	1439.05	562.7
1028.4295	3012.0364	1433.55	553.5
1028.541	3013.0905	1433.2	555.8
1028.6524	3014.1439	1426.65	547.75
1028.7638	3015.1966	1422.95	547.6
1028.8752	3016.2487	1423.7	548.3
1028.9865	3017.3002	1417.2	538.25
1029.0978	3018.3511	1421.35	546.75
1029.209	3019.4013	1414.8	537.35
1029.3202	3020.4509	1415.5	540
1029.4314	3021.4998	1421.05	542.8
1029.5425	3022.5481	1416.55	538.75
1029.6535	3023.5958	1414.15	536.75
1029.7645	3024.6428	1416.65	538.3
1029.8755	3025.6892	1401.3	526.95
1029.9864	3026.735	1413.7	537.45
1030.0973	3027.7802	1408.85	530.2
1030.2082	3028.8247	1419.9	543.05
1030.319	3029.8685	1415.4	537.5
1030.4297	3030.9118	1421.65	544.4
1030.5404	3031.9544	1418.95	542.75
1030.6511	3032.9963	1424.25	546.4
1030.7617	3034.0376	1432.9	558.15
1030.8723	3035.0783	1429.65	551
1030.9829	3036.1184	1431.3	554.25
1031.0934	3037.1578	1441.45	565.35
1031.2038	3038.1966	1447.3	571.25
1031.3142	3039.2348	1441.4	566.95
1031.4246	3040.2723	1439.25	554.3
1031.5349	3041.3092	1438.3	564.05
1031.6452	3042.3455	1432.35	555.4
1031.7554	3043.3811	1428.1	551.4
1031.8656	3044.4161	1425.2	548.35
1031.9758	3045.4505	1425.55	552.55
1032.0859	3046.4842	1410.8	534.55
1032.1959	3047.5173	1414.5	539.95
1032.3059	3048.5498	1406.4	530.95
1032.4159	3049.5816	1405.45	530.55
1032.5258	3050.6128	1396.95	520.55
1032.6357	3051.6434	1395.9	519.1
1032.7455	3052.6734	1386.65	509.75
1032.8553	3053.7027	1378.85	503.4
1032.9651	3054.7314	1372.55	497.6
1033.0748	3055.7594	1371.35	494.9
1033.1845	3056.7868	1363.3	485.6
1033.2941	3057.8136	1361.95	485.2
1033.4037	3058.8398	1353.2	477.5
1033.5132	3059.8653	1347.4	472.45
1033.6227	3060.8902	1341.15	466.5
1033.7321	3061.9145	1343.65	469.55
1033.8415	3062.9381	1334.9	458.95
1033.9509	3063.9612	1347.9	456.6
1034.0602	3064.9835	1324.65	450.1
1034.1694	3066.0053	1325.65	448.15
1034.2787	3067.0264	1312.85	437.95
1034.3878	3068.0469	1308.35	429.85
1034.497	3069.0668	1305.65	426.6
1034.6061	3070.086	1290.8	417.25
1034.7151	3071.1046	1285.45	408.75
1034.8241	3072.1226	1280.2	403.3
1034.9331	3073.1399	1265.75	391.05
1035.042	3074.1567	1259.9	385.25
1035.1508	3075.1727	1250.8	372.35
1035.2597	3076.1882	1238.4	361.3
1035.3684	3077.203	1233.15	355.45
1035.4772	3078.2173	1224.35	345.9
1035.5859	3079.2308	1225.9	347.55
1035.6945	3080.2438	1216.35	339.9
1035.8031	3081.2561	1201.05	326.75
1035.9117	3082.2678	1197.9	321.4
1036.0202	3083.2789	1188.25	311.75
1036.1286	3084.2893	1186.75	312.25
1036.2371	3085.2991	1176.85	300.15
1036.3454	3086.3083	1176.55	295.5
1036.4538	3087.3169	1172	295.7
1036.562	3088.3248	1160.55	282.25
1036.6703	3089.3321	1158.55	281.3
1036.7785	3090.3388	1155.4	280.75
1036.8866	3091.3449	1154.2	280
1036.9948	3092.3503	1148	270.2
1037.1028	3093.3551	1136.35	262.9
1037.2108	3094.3593	1144.95	271.1
1037.3188	3095.3629	1129.9	253.6
1037.4267	3096.3658	1129.65	253
1037.5346	3097.3681	1131.5	254.95
1037.6425	3098.3698	1126.85	249.85
1037.7503	3099.3708	1130.1	248.4
1037.858	3100.3713	1120.75	246.25
1037.9657	3101.3711	1113.85	237.05
1038.0734	3102.3702	1250.6	238.9
1038.181	3103.3688	1112.6	235.75
1038.2886	3104.3667	1110.15	235.95
1038.3961	3105.364	1103.45	227
1038.5036	3106.3607	1108.3	230.85
1038.611	3107.3568	1104.4	227.2
1038.7184	3108.3522	1100.55	227.7
1038.8257	3109.347	1096.3	219.5
1038.933	3110.3412	1098.7	218.8
1039.0403	3111.3348	1096.7	222.55
1039.1475	3112.3277	1090.75	215.85
1039.2547	3113.32	1092.8	216.65
1039.3618	3114.3117	1091.1	215.9
1039.4689	3115.3028	1087.9	212.65
1039.5759	3116.2932	1089.2	211.1
1039.6829	3117.2831	1089.45	208.9
1039.7898	3118.2723	1080.45	206.55
1039.8967	3119.2608	1079.75	206.9
1040.0035	3120.2488	1077.1	200.65
1040.1103	3121.2361	1076.35	199.85
1040.2171	3122.2229	1078.1	202.05
1040.3238	3123.209	1078.45	202.25
1040.4305	3124.1944	1072.05	197.5
1040.5371	3125.1793	1069.75	195
1040.6437	3126.1635	1069.8	194.85
1040.7502	3127.1471	1066.95	193.8
1040.8567	3128.1301	1068.85	193.25
1040.9631	3129.1125	1060.5	185.85
1041.0695	3130.0942	1062.35	186.1
1041.1759	3131.0753	1074.75	190.55
1041.2822	3132.0558	1065.4	188.15
1041.3884	3133.0357	1060.35	184.8
1041.4946	3134.015	1057.9	183.1
1041.6008	3134.9936	1054.3	177.85
1041.7069	3135.9716	1078.35	181.55
1041.813	3136.949	1055.15	181.55
1041.919	3137.9258	1064.9	171.8
1042.025	3138.902	1057.55	174.6
1042.1309	3139.8775	1047.8	173.85
1042.2368	3140.8524	1046.15	171.55
1042.3427	3141.8267	1048.9	173.75
1042.4485	3142.8004	1045.05	171
1042.5542	3143.7735	1051.95	171.95
1042.6599	3144.7459	1049.65	173.15
1042.7656	3145.7178	1043.95	168.3
1042.8712	3146.689	1041.9	167.7
1042.9768	3147.6596	1039	160.45
1043.0823	3148.6295	1036.2	160.3
1043.1878	3149.5989	1035.95	160.7
1043.2932	3150.5676	1037.05	164
1043.3986	3151.5357	1033.1	160.6
1043.5039	3152.5032	1032.95	159.8
1043.6092	3153.4701	1031.3	156.45
1043.7145	3154.4364	1032.65	154.05
1043.8197	3155.402	1028.2	154.15
1043.9248	3156.367	1030.1	151.95
1044.03	3157.3315	1057.15	150.5
1044.135	3158.2952	1025.55	150.9
1044.24	3159.2584	1027.65	154.45
1044.345	3160.221	1022.45	145.8
1044.4499	3161.1829	1023.05	145.35
1044.5548	3162.1442	1022	147
1044.6596	3163.105	1022.05	147.55
1044.7644	3164.065	1018.1	143
1044.8692	3165.0245	1022.75	146.65
1044.9739	3165.9834	1022.65	150.15
1045.0785	3166.9416	1017.2	143.75
1045.1831	3167.8993	1015.25	140.55
1045.2877	3168.8563	1016.7	140.85
1045.3922	3169.8127	1017.2	142.4
1045.4966	3170.7684	1010.8	136.35
1045.6011	3171.7236	1012.45	137.15
1045.7054	3172.6782	1011.9	136.15
1045.8098	3173.6321	1014.15	139.5
1045.914	3174.5854	1019.7	140.3
1046.0183	3175.5381	1008.75	134.55
1046.1224	3176.4902	1008.25	134.6
1046.2266	3177.4417	1008.8	136.2
1046.3307	3178.3926	1005.9	133.2
1046.4347	3179.3428	1006.7	132.8
1046.5387	3180.2924	1004	129
1046.6427	3181.2415	1006.7	131.85
1046.7466	3182.1899	1004.75	131.3
1046.8504	3183.1377	1001.7	127.1
1046.9542	3184.0848	1004.55	127.5
1047.058	3185.0314	999.2	126.15
1047.1617	3185.9773	1001.75	125.9
1047.2654	3186.9227	996.15	122.25
1047.369	3187.8674	999.55	124.6
1047.4726	3188.8115	1000.85	122
1047.5761	3189.755	996.75	123.15
1047.6796	3190.6979	994.55	120.65
1047.783	3191.6402	996.3	122.9
1047.8864	3192.5818	995.5	122.3
1047.9898	3193.5229	1010.6	118.6
1048.0931	3194.4633	994.1	120.4
1048.1963	3195.4031	994.65	119.75
1048.2995	3196.3423	995.2	118.85
1048.4027	3197.2809	990.8	114.85
1048.5058	3198.2189	991.6	117.4
1048.6089	3199.1563	999.6	117.35
1048.7119	3200.0931	993.4	118.15
1048.8148	3201.0292	989.2	116.75
1048.9178	3201.9648	985.3	111.9
1049.0206	3202.8997	989.8	113.3
1049.1235	3203.834	987.7	113.65
1049.2262	3204.7677	988.05	112.9
1049.329	3205.7008	989.1	113.45
1049.4317	3206.6333	984.4	109.65
1049.5343	3207.5652	985.55	109.25
1049.6369	3208.4964	986.2	111.25
1049.7394	3209.4271	984.8	111.45
1049.8419	3210.3571	985.25	113.05
1049.9444	3211.2865	987.7	112.95
1050.0468	3212.2154	983.2	112.7
1050.1491	3213.1436	983	107.75
1050.2514	3214.0712	986.85	105
1050.3537	3214.9982	980.6	107.75
1050.4559	3215.9246	982	107.55
1050.5581	3216.8503	980.75	107.75
1050.6602	3217.7755	976.7	102.1
1050.7623	3218.7001	977.6	103.2
1050.8643	3219.624	975.75	101.05
1050.9663	3220.5473	976.55	102.15
1051.0682	3221.4701	977.4	104.05
1051.1701	3222.3922	979.6	105.9
1051.2719	3223.3137	974.75	99.45
1051.3737	3224.2346	974.25	101.6
1051.4754	3225.1549	970.5	96.8
1051.5771	3226.0746	973.05	100.1
1051.6788	3226.9937	970.25	95.95
1051.7804	3227.9121	970.6	97.45
1051.8819	3228.83	970.65	97.95
1051.9834	3229.7473	973	97.25
1052.0849	3230.6639	966.1	92.35
1052.1863	3231.5799	969.55	96.15
1052.2876	3232.4954	971.7	95.15
1052.3889	3233.4102	967.5	93.85
1052.4902	3234.3244	973.2	97.55
1052.5914	3235.238	968.05	95.9
1052.6926	3236.151	988.9	89.95
1052.7937	3237.0634	967.1	94.85
1052.8948	3237.9752	966.6	92.6
1052.9958	3238.8864	965.5	92.4
1053.0968	3239.797	963.95	88.85
1053.1977	3240.7069	963.75	89.65
1053.2986	3241.6163	965.15	91
1053.3994	3242.5251	960.65	89.25
1053.5002	3243.4332	960.15	87.7
1053.6009	3244.3408	961.7	86.75
1053.7016	3245.2477	959.95	87.4
1053.8022	3246.154	961.75	87.15
1053.9028	3247.0598	959.45	85.25
1054.0034	3247.9649	961.6	87.65
1054.1039	3248.8694	956.5	83.65
1054.2043	3249.7733	960.05	87.15
1054.3047	3250.6766	952.8	79.65
1054.4051	3251.5793	959.35	85.75
1054.5054	3252.4814	956.75	85.05
1054.6056	3253.3829	954.85	79.95
1054.7058	3254.2838	952.1	78.25
1054.806	3255.1841	952.5	78.7
1054.9061	3256.0838	951.35	78.25
1055.0061	3256.9829	948.75	78.4
1055.1062	3257.8814	951.95	77.15
1055.2061	3258.7792	956.6	81.05
1055.306	3259.6765	953.6	79.1
1055.4059	3260.5731	952.7	79.65
1055.5057	3261.4692	950.65	76
1055.6055	3262.3647	947.55	72.85
1055.7052	3263.2595	944.25	70.65
1055.8049	3264.1538	940	66
1055.9045	3265.0474	943.1	68.85
1056.0041	3265.9404	941.45	69.3
1056.1036	3266.8329	938.65	67.05
1056.2031	3267.7247	950.55	67.35
1056.3025	3268.616	938.3	69.05
1056.4019	3269.5066	938.15	63.4
1056.5013	3270.3966	937.35	61.6
1056.6005	3271.286	932.3	61
