Software Version:	3.9.2.0
Unit SN:	10000200
Spectrometer SN:	6960
Date:	3/8/2024 11:51:39 AM
Data Line Index:	25
Spectral Points:	2048
Integration time (ms):	125
Averages:	20
Delay (ms):	30000
Sequence Number:	1
Processing:	dark subtract
Laser Power (mW):	300
Laser Current (mA):	823
Laser Diode Temp (C):	25
Laser Case Temp (C):	25.4
System Temp (C):	25.4
Spectrometer Temp (C):	23.2
CCD Temp (C):	0.01
Secondary Temp (C):	20.013
Heatsink Temp (C):	19.909
CCDPCB Temp (C):	34.517
SecondaryPCB Temp (C):	27.959

Wavelength	RamanShift	Raw Counts	Dark Subtracted
787.061	30.1047	413.65	5.4
787.2016	32.3739	412.1	5.7
787.3422	34.6426	415.95	8.05
787.4828	36.9109	416.95	8.15
787.6235	39.1787	421.85	8.45
787.7642	41.4461	426.8	8.1
787.9049	43.7131	428.85	5.8
788.0456	45.9796	431.6	6.95
788.1863	48.2456	437.5	7.45
788.3271	50.5112	441.05	8.5
788.4679	52.7764	445.35	11.45
788.6087	55.0411	449.85	11.05
788.7496	57.3054	458.1	13.7
788.8904	59.5692	458.4	11.3
789.0313	61.8326	462.3	12.85
789.1722	64.0955	464.25	11.4
789.3132	66.3579	474.5	16.2
789.4541	68.6199	479.4	17.9
789.5951	70.8815	489.85	24.45
789.7361	73.1426	508.4	38.25
789.8771	75.4032	545.15	71.5
790.0181	77.6634	613	136
790.1592	79.9231	783.85	301.2
790.3003	82.1824	1127.9	638.7
790.4414	84.4412	1694.75	1185.55
790.5825	86.6995	2401.2	1873.9
790.7237	88.9574	3078.05	2534.8
790.8648	91.2148	3528.25	2972.05
791.006	93.4717	3706.9	3143.5
791.1472	95.7282	3726.2	3157.35
791.2885	97.9842	3704.35	3132.95
791.4297	100.2398	3660.1	3087.4
791.571	102.4949	3592.9	3016.3
791.7123	104.7495	3562.85	2988.2
791.8536	107.0036	3522.6	2945.15
791.9949	109.2573	3432.9	2854.6
792.1363	111.5105	3333.45	2751.75
792.2777	113.7632	3241.95	2658.9
792.4191	116.0154	3150	2555.15
792.5605	118.2672	3035.85	2446.4
792.7019	120.5185	2932.35	2344.1
792.8434	122.7693	2832.65	2236.35
792.9849	125.0197	2764.95	2169.1
793.1264	127.2696	2676.75	2076
793.2679	129.519	2644.8	2038.9
793.4094	131.7679	2625.55	2015.9
793.551	134.0163	2590.2	1980.5
793.6926	136.2642	2576.6	1960.7
793.8342	138.5117	2582.75	1960.7
793.9758	140.7587	2539.65	1923.2
794.1175	143.0052	2502.3	1884.35
794.2591	145.2512	2440	1817.75
794.4008	147.4967	2393.3	1771.95
794.5425	149.7417	2352.5	1731
794.6842	151.9863	2339.85	1713.2
794.826	154.2304	2326.55	1694.6
794.9677	156.4739	2324.15	1685.65
795.1095	158.717	2334.85	1695.35
795.2513	160.9596	2351.25	1708.2
795.3931	163.2017	2366.5	1724.9
795.535	165.4433	2381.75	1736
795.6768	167.6844	2374.9	1724.35
795.8187	169.925	2339.45	1686.2
795.9606	172.1651	2283.7	1628
796.1025	174.4047	2237.6	1579.2
796.2445	176.6439	2197.45	1536.9
796.3864	178.8825	2181.25	1516.8
796.5284	181.1206	2163.3	1495.85
796.6704	183.3582	2159.9	1486.6
796.8124	185.5954	2146.55	1471.65
796.9544	187.832	2149.9	1474
797.0965	190.0681	2152.3	1471.6
797.2386	192.3037	2161.95	1478.25
797.3806	194.5388	2163.35	1479.05
797.5228	196.7734	2184.35	1495.75
797.6649	199.0075	2183.45	1494.2
797.807	201.2411	2212.85	1526.05
797.9492	203.4742	2227.25	1534.95
798.0914	205.7068	2263.6	1564.4
798.2336	207.9389	2270.15	1574.7
798.3758	210.1704	2279.5	1589
798.518	212.4015	2286.1	1604.4
798.6603	214.632	2284.25	1606.35
798.8025	216.862	2281.55	1604.5
798.9448	219.0915	2297.15	1621.7
799.0871	221.3205	2300.4	1624
799.2294	223.549	2306.9	1633.05
799.3718	225.777	2308	1634.5
799.5141	228.0044	2310.2	1629.4
799.6565	230.2314	2295.8	1609.25
799.7989	232.4578	2280.9	1593.3
799.9413	234.6837	2283.45	1586.5
800.0837	236.909	2265.7	1569.35
800.2262	239.1339	2280.45	1556.8
800.3687	241.3582	2262.25	1556.65
800.5111	243.582	2276.9	1538.6
800.6536	245.8053	2284.7	1560.2
800.7961	248.0281	2277.2	1556.65
800.9387	250.2503	2286.85	1564.75
801.0812	252.472	2281.9	1556.5
801.2238	254.6932	2309.25	1585.5
801.3664	256.9139	2322.25	1594.45
801.509	259.134	2328.1	1595
801.6516	261.3536	2350.85	1621.1
801.7942	263.5727	2397.8	1670.35
801.9369	265.7912	2445.9	1713.45
802.0795	268.0092	2505.45	1776.55
802.2222	270.2267	2553.75	1824.6
802.3649	272.4436	2602.95	1871.4
802.5076	274.6601	2641.4	1898.3
802.6504	276.8759	2662.55	1925.65
802.7931	279.0913	2690.35	1953.55
802.9359	281.3061	2688.2	1949.1
803.0787	283.5204	2706.15	1962.45
803.2215	285.7341	2722.85	1974.65
803.3643	287.9473	2766.9	2018.8
803.5071	290.16	2759.85	2009.3
803.6499	292.3721	2708	1964.2
803.7928	294.5837	2677.75	1932.4
803.9357	296.7947	2668.9	1922.1
804.0786	299.0052	2655.6	1910.2
804.2215	301.2152	2650.65	1903.75
804.3644	303.4246	2627.05	1880.35
804.5074	305.6334	2600.4	1852.85
804.6503	307.8418	2580.25	1829.45
804.7933	310.0495	2548.95	1795.45
804.9363	312.2568	2515.25	1763.4
805.0793	314.4635	2470.85	1717.55
805.2223	316.6696	2428.25	1674.55
805.3653	318.8752	2380.5	1616.55
805.5084	321.0802	2357.05	1598.2
805.6514	323.2847	2339	1579.7
805.7945	325.4887	2357.35	1593
805.9376	327.692	2381.75	1618.85
806.0807	329.8949	2416.7	1655.75
806.2238	332.0972	2457.6	1688.55
806.367	334.2989	2480.4	1710.4
806.5101	336.5001	2458.5	1691.45
806.6533	338.7007	2431.15	1658.8
806.7965	340.9008	2393.15	1623.3
806.9397	343.1003	2344.9	1568.45
807.0829	345.2992	2289.35	1515.2
807.2261	347.4976	2267.8	1491.35
807.3693	349.6955	2231.9	1451.95
807.5126	351.8927	2215.65	1435.3
807.6559	354.0895	2207.75	1415.7
807.7991	356.2856	2186.05	1405
807.9424	358.4812	2177.1	1395.55
808.0857	360.6763	2168.2	1383.65
808.2291	362.8707	2171	1385.95
808.3724	365.0646	2177	1387.8
808.5158	367.258	2199.6	1411.95
808.6591	369.4508	2203.4	1407.6
808.8025	371.643	2238.85	1444.05
808.9459	373.8346	2253	1458.85
809.0893	376.0257	2296.65	1498.25
809.2327	378.2162	2309.55	1513.1
809.3762	380.4062	2323.85	1526.65
809.5196	382.5956	2295.65	1500.1
809.6631	384.7844	2253	1459.3
809.8066	386.9726	2220.2	1433.15
809.9501	389.1603	2183.2	1397.65
810.0936	391.3474	2195.3	1373.55
810.2371	393.5339	2185.75	1395.1
810.3806	395.7199	2188.55	1398.15
810.5241	397.9052	2219	1428.75
810.6677	400.09	2252.25	1464.3
810.8113	402.2743	2301.65	1510.25
810.9548	404.4579	2335.5	1540.85
811.0984	406.641	2386.25	1592.65
811.2421	408.8235	2432.35	1634.8
811.3857	411.0054	2464.1	1668.55
811.5293	413.1868	2529.2	1727.8
811.673	415.3675	2578.65	1777.05
811.8166	417.5477	2566.55	1761.3
811.9603	419.7273	2520.35	1713.4
812.104	421.9064	2442.85	1630.2
812.2477	424.0848	2376.05	1567.4
812.3914	426.2627	2330.1	1521.6
812.5351	428.4399	2266.05	1455.95
812.6788	430.6166	2210.75	1397.85
812.8226	432.7928	2159.5	1343.45
812.9663	434.9683	2136.1	1320.95
813.1101	437.1432	2107.15	1290.45
813.2539	439.3176	2085	1273.25
813.3977	441.4914	2072.55	1261
813.5415	443.6645	2066.6	1253.6
813.6853	445.8371	2077.55	1264.05
813.8291	448.0091	2072.6	1257.85
813.973	450.1806	2071.6	1258.5
814.1168	452.3514	2061.35	1246.2
814.2607	454.5216	2067.6	1240.5
814.4046	456.6913	2059.15	1241.65
814.5485	458.8603	2065.2	1247.15
814.6924	461.0288	2062.75	1248.15
814.8363	463.1967	2065.3	1249.5
814.9802	465.3639	2072.15	1252.5
815.1241	467.5306	2053.85	1235.2
815.2681	469.6967	2048.95	1230.5
815.412	471.8622	2041.9	1224.75
815.556	474.0271	2047.5	1228.8
815.7	476.1914	2048.95	1228.45
815.844	478.3551	2039.9	1218.85
815.988	480.5182	2036.8	1216.2
816.132	482.6807	2046.25	1229.35
816.276	484.8426	2060.1	1246.4
816.4201	487.0039	2098.7	1281.5
816.5641	489.1647	2157.1	1333.4
816.7082	491.3248	2202.35	1380.65
816.8522	493.4843	2213.25	1396.3
816.9963	495.6432	2206.3	1384.1
817.1404	497.8015	2174.75	1344.8
817.2845	499.9592	2142.9	1315.35
817.4286	502.1163	2084.65	1255.8
817.5727	504.2728	2042.2	1214.5
817.7168	506.4287	2015.75	1191.85
817.861	508.5839	1997.75	1171.45
818.0051	510.7386	1984.85	1157.9
818.1493	512.8927	1999.2	1164.1
818.2935	515.0461	2010.3	1178.75
818.4377	517.199	2028.65	1195.45
818.5818	519.3512	2068.05	1236.45
818.726	521.5029	2147.15	1313.75
818.8703	523.6539	2197.25	1365.65
819.0145	525.8043	2199.2	1363.25
819.1587	527.9541	2145.65	1311.05
819.303	530.1033	2082.25	1246.5
819.4472	532.2519	2022.85	1187.8
819.5915	534.3999	2014.85	1178.5
819.7357	536.5472	2004	1171.2
819.88	538.694	2007.1	1172.65
820.0243	540.8401	2022.5	1185.7
820.1686	542.9856	2040.5	1199.45
820.3129	545.1305	2062.15	1217.3
820.4572	547.2748	2080.2	1236.05
820.6016	549.4185	2075.25	1231.4
820.7459	551.5615	2090.45	1248.3
820.8902	553.704	2108.8	1264.3
821.0346	555.8458	2115.25	1273.2
821.1789	557.987	2127.4	1287.6
821.3233	560.1276	2147.75	1301.65
821.4677	562.2675	2211.3	1366.75
821.6121	564.4069	2266.4	1420.3
821.7565	566.5456	2306.45	1462.25
821.9009	568.6837	2308.55	1465.7
822.0453	570.8212	2233.15	1392.55
822.1897	572.958	2166.8	1317.9
822.3342	575.0942	2103.15	1258.9
822.4786	577.2299	2073.75	1232.3
822.6231	579.3648	2035.45	1199.35
822.7675	581.4992	2017.2	1183.8
822.912	583.6329	2037.2	1203.55
823.0565	585.766	2056.9	1218.9
823.201	587.8985	2105.65	1265.4
823.3454	590.0304	2156.8	1301.2
823.4899	592.1616	2181.45	1333.95
823.6345	594.2922	2171.7	1322.9
823.779	596.4222	2131.75	1282.65
823.9235	598.5515	2072.55	1222.65
824.068	600.6802	2032.3	1180.25
824.2126	602.8083	1987.9	1138.35
824.3571	604.9358	1980.35	1130.8
824.5017	607.0626	1989.85	1140.1
824.6462	609.1888	1998.8	1145.65
824.7908	611.3144	2022.2	1168.15
824.9354	613.4393	2057.1	1204.55
825.08	615.5636	2113.35	1257.85
825.2246	617.6873	2150.8	1295.9
825.3692	619.8103	2182.9	1328.75
825.5138	621.9327	2169.2	1313.6
825.6584	624.0544	2129.65	1277.85
825.803	626.1756	2076.6	1222.25
825.9477	628.2961	2046.6	1193.7
826.0923	630.4159	2009.55	1154.55
826.237	632.5351	2012.9	1156.6
826.3816	634.6537	2008.55	1149.7
826.5263	636.7716	1995.55	1135.4
826.6709	638.8889	1984.75	1126
826.8156	641.0056	1995.5	1137.45
826.9603	643.1216	1987.1	1124.95
827.105	645.237	2001.1	1141.55
827.2497	647.3518	1978.25	1122.95
827.3944	649.4659	1950.95	1096.6
827.5391	651.5793	1940.25	1084.55
827.6838	653.6922	1927.9	1070.7
827.8285	655.8043	1906.85	1047.6
827.9733	657.9159	1909.85	1049.8
828.118	660.0268	1905.05	1043.7
828.2627	662.137	1904.15	1043.15
828.4075	664.2466	1899.05	1032.05
828.5522	666.3556	1892.4	1030.25
828.697	668.4639	1891.65	1027.05
828.8418	670.5716	1885.8	1028.4
828.9865	672.6786	1885.5	1021.75
829.1313	674.785	1881.4	1016.4
829.2761	676.8907	1872.35	1010.5
829.4209	678.9958	1866.8	1008.35
829.5657	681.1002	1871.55	1009.65
829.7105	683.204	1868.2	1001.3
829.8553	685.3072	1878.15	1010.5
830.0001	687.4097	1863.6	999.85
830.1449	689.5115	1870.7	1003.35
830.2898	691.6127	1862.65	998.95
830.4346	693.7132	1855.95	993.25
830.5794	695.8131	1884.45	998.8
830.7243	697.9123	1879	1008.5
830.8691	700.0109	1874.5	1002.7
831.014	702.1089	1885.25	1016.85
831.1588	704.2061	1900.1	1034.35
831.3037	706.3028	1925.05	1053.85
831.4486	708.3987	1947	1077.2
831.5935	710.4941	1957.1	1089.3
831.7383	712.5887	1959.4	1092.1
831.8832	714.6827	1959.4	1088.25
832.0281	716.7761	1942.55	1073.85
832.173	718.8688	1945.6	1077.4
832.3179	720.9608	1959.1	1083.95
832.4628	723.0522	1968	1088.85
832.6077	725.1429	1978.7	1109.1
832.7527	727.233	2030.5	1155.65
832.8976	729.3224	2090	1217
833.0425	731.4112	2133.6	1258.9
833.1874	733.4993	2146.1	1271.25
833.3324	735.5867	2083.15	1210.6
833.4773	737.6735	2020.85	1148
833.6222	739.7596	1965.8	1091.4
833.7672	741.845	1947	1075.35
833.9122	743.9298	1937.4	1059.05
834.0571	746.014	1946.05	1071.5
834.2021	748.0974	1959.25	1081.3
834.347	750.1802	1958.25	1083.55
834.492	752.2624	1942.9	1067
834.637	754.3439	1943.55	1067.9
834.782	756.4247	1934.5	1048.1
834.9269	758.5048	1942.25	1067.6
835.0719	760.5843	1956.3	1078.4
835.2169	762.6631	1988.45	1110.5
835.3619	764.7413	2038.65	1165.65
835.5069	766.8188	2114.4	1237.2
835.6519	768.8956	2205.65	1327.85
835.7969	770.9718	2258.35	1380.15
835.9419	773.0473	2248.25	1368.25
836.0869	775.1221	2216.5	1340.5
836.232	777.1962	2215.15	1335.65
836.377	779.2697	2258.65	1377.3
836.522	781.3426	2369.9	1470.5
836.667	783.4147	2413.35	1530.6
836.8121	785.4862	2388.8	1511.15
836.9571	787.557	2311.2	1433.2
837.1021	789.6271	2176.5	1296.7
837.2472	791.6966	2070.2	1191.35
837.3922	793.7654	1978.5	1094.05
837.5373	795.8335	1927.65	1050.05
837.6823	797.901	1902.6	1021.65
837.8274	799.9678	1894	1011.8
837.9724	802.0339	1890.75	1007.8
838.1175	804.0993	1900.3	1008.4
838.2626	806.1641	1885.3	1000.45
838.4076	808.2282	1863.2	983.9
838.5527	810.2916	1850.35	966.8
838.6978	812.3544	1838.7	957.45
838.8428	814.4164	1826.7	944.95
838.9879	816.4778	1837.3	954.2
839.133	818.5385	1846.65	965
839.2781	820.5986	1874.25	991.45
839.4232	822.658	1929.95	1045.2
839.5682	824.7166	1996.95	1113
839.7133	826.7747	2070.25	1187.75
839.8584	828.832	2144.85	1261.05
840.0035	830.8886	2216.4	1331.2
840.1486	832.9446	2236.65	1354.1
840.2937	834.9999	2189.4	1308.1
840.4388	837.0545	2129.5	1241.95
840.5839	839.1085	2048.15	1163.05
840.729	841.1618	1985.3	1096.15
840.8741	843.2143	1927.9	1042.9
841.0192	845.2662	1895.45	1008.95
841.1643	847.3175	1886.9	999.6
841.3095	849.368	1865	979.7
841.4546	851.4179	1854.3	971.45
841.5997	853.467	1869.1	985.2
841.7448	855.5155	1874.4	987.45
841.8899	857.5633	1869.15	984.45
842.0351	859.6105	1868.8	983.4
842.1802	861.6569	1852.45	966
842.3253	863.7027	1840.7	952.8
842.4704	865.7478	1831.6	941.9
842.6156	867.7922	1819.35	931.4
842.7607	869.8359	1808.65	921.1
842.9058	871.8789	1809.1	922.2
843.0509	873.9212	1843.55	923.85
843.1961	875.9629	1826.95	938.15
843.3412	878.0039	1831.2	941.2
843.4863	880.0441	1840.45	953.65
843.6315	882.0837	1859.6	972.45
843.7766	884.1226	1892.55	1004
843.9218	886.1609	1921.55	1033.2
844.0669	888.1984	1962.75	1075.75
844.212	890.2352	2013.05	1125.8
844.3572	892.2714	2017.5	1121.6
844.5023	894.3069	1996.05	1106.8
844.6475	896.3416	1941.85	1053.35
844.7926	898.3757	1903.55	1014.75
844.9377	900.4091	1887	996.5
845.0829	902.4418	1888.65	994.45
845.228	904.4739	1902.8	1009.55
845.3732	906.5052	1912.7	1021.6
845.5183	908.5358	1905.95	1018.05
845.6635	910.5658	1889.85	996.4
845.8086	912.595	1851.15	961.2
845.9538	914.6236	1816	924.6
846.0989	916.6515	1788.3	896.5
846.2441	918.6786	1773.7	878.55
846.3892	920.7051	1771.2	877.05
846.5344	922.7309	1769.8	880.95
846.6795	924.756	1764.3	873.3
846.8246	926.7804	1775.85	885.4
846.9698	928.8041	1783.65	890.15
847.1149	930.8272	1806.55	914.3
847.2601	932.8495	1805.25	912.8
847.4052	934.8711	1818.65	929.2
847.5504	936.892	1825.4	931.35
847.6955	938.9123	1845.5	953.35
847.8407	940.9318	1866.55	972.2
847.9858	942.9506	1872.95	980.4
848.131	944.9688	1862.5	970.05
848.2761	946.9862	1843.55	951.1
848.4213	949.003	1802.3	910
848.5664	951.019	1785.7	892.1
848.7115	953.0344	1758.7	864.25
848.8567	955.0491	1752.05	857.9
849.0018	957.063	1751.3	859.35
849.147	959.0763	1760.4	869.65
849.2921	961.0888	1756.35	863.25
849.4373	963.1007	1750.8	857.9
849.5824	965.1119	1739.8	851.6
849.7275	967.1223	1734.05	846.8
849.8727	969.1321	1735.45	848.65
850.0178	971.1412	1733.8	845.1
850.1629	973.1495	1725.95	832.65
850.3081	975.1572	1750.95	827.05
850.4532	977.1641	1731.75	842.75
850.5983	979.1704	1729.7	836
850.7435	981.1759	1723.95	824.35
850.8886	983.1808	1722.65	825.75
851.0337	985.1849	1719.55	813.75
851.1788	987.1884	1711.75	813.65
851.324	989.1911	1723.25	828.45
851.4691	991.1932	1717.95	822.1
851.6142	993.1945	1726.35	832.35
851.7593	995.1951	1721	824.85
851.9045	997.1951	1721.9	822.35
852.0496	999.1943	1716.15	823.35
852.1947	1001.1928	1717.1	823
852.3398	1003.1906	1722.75	828.2
852.4849	1005.1877	1744.4	850.3
852.63	1007.1841	1778.65	883.6
852.7751	1009.1798	1787.15	892.9
852.9202	1011.1748	1772.2	874.9
853.0653	1013.1691	1752.75	858.6
853.2104	1015.1627	1729.1	834.4
853.3555	1017.1556	1691.15	797.3
853.5006	1019.1477	1680.95	788.55
853.6457	1021.1392	1659.05	767.1
853.7908	1023.1299	1652.7	763.2
853.9359	1025.12	1651.05	763.6
854.081	1027.1093	1645.15	761.9
854.2261	1029.0979	1679.85	793.9
854.3712	1031.0859	1700.05	815.65
854.5163	1033.0731	1708.35	816.85
854.6613	1035.0596	1708.25	819.95
854.8064	1037.0454	1703.65	809.15
854.9515	1039.0304	1688.2	795.6
855.0965	1041.0148	1665.35	769.7
855.2416	1042.9985	1659.65	762.85
855.3867	1044.9814	1640.6	747.9
855.5317	1046.9636	1644.35	748.6
855.6768	1048.9452	1646.85	753.45
855.8219	1050.926	1657.8	762.5
855.9669	1052.9061	1678.8	787.15
856.112	1054.8855	1669.45	774.95
856.257	1056.8642	1672.7	777.75
856.4021	1058.8421	1674.75	777.45
856.5471	1060.8194	1675.55	780.3
856.6921	1062.7959	1684.65	788.45
856.8372	1064.7717	1675.35	776.45
856.9822	1066.7469	1677.45	782.5
857.1272	1068.7213	1683.1	785.25
857.2723	1070.695	1693.75	796.85
857.4173	1072.6679	1710.1	810.65
857.5623	1074.6402	1745.05	849.1
857.7073	1076.6117	1736.1	833.25
857.8523	1078.5826	1715.35	817.4
857.9973	1080.5527	1682.85	784.35
858.1423	1082.5221	1650.35	754.55
858.2873	1084.4908	1626.35	729.6
858.4323	1086.4587	1611	717
858.5773	1088.426	1602.3	703.3
858.7223	1090.3925	1614.6	714.35
858.8673	1092.3584	1610.45	714.45
859.0123	1094.3235	1626.05	730.55
859.1573	1096.2879	1628	732.95
859.3022	1098.2515	1659.15	762.45
859.4472	1100.2145	1691.5	794.75
859.5922	1102.1767	1717.6	818.7
859.7371	1104.1382	1755.95	859.7
859.8821	1106.099	1810.75	912.15
860.027	1108.0591	1859.9	964.7
860.172	1110.0185	1882.8	986.2
860.3169	1111.9771	1930.85	1035.55
860.4619	1113.9351	1979.05	1082.85
860.6068	1115.8923	2029.2	1134.6
860.7517	1117.8488	2043.25	1144.85
860.8967	1119.8045	1995	1097.55
861.0416	1121.7596	1897.75	999.75
861.1865	1123.7139	1820.35	926
861.3314	1125.6675	1773.35	877.65
861.4763	1127.6204	1764.35	867.5
861.6212	1129.5726	1787.75	888.4
861.7661	1131.524	1776.85	879.95
861.911	1133.4748	1736.8	839.85
862.0559	1135.4248	1684.5	786.75
862.2008	1137.3741	1653.05	756.7
862.3457	1139.3226	1621.1	724.95
862.4905	1141.2705	1624.5	727.55
862.6354	1143.2176	1633.85	730.95
862.7803	1145.164	1634.25	735.7
862.9251	1147.1097	1638.45	743.1
863.07	1149.0546	1614.2	714.55
863.2148	1150.9989	1597.45	700.95
863.3597	1152.9424	1573.95	674.7
863.5045	1154.8852	1550.9	654.55
863.6493	1156.8272	1562.25	663.75
863.7942	1158.7686	1562.8	657.85
863.939	1160.7092	1561	662.4
864.0838	1162.6491	1563.8	667.05
864.2286	1164.5883	1579.25	681.95
864.3734	1166.5267	1594.35	695.95
864.5182	1168.4644	1622.05	725.8
864.663	1170.4014	1645.2	745.65
864.8078	1172.3377	1674.3	778.35
864.9526	1174.2732	1739.75	841.25
865.0974	1176.2081	1827.2	927.5
865.2421	1178.1421	1930.4	1029
865.3869	1180.0755	2043.7	1148.95
865.5317	1182.0082	2078.85	1181.85
865.6764	1183.9401	2057.35	1159.5
865.8212	1185.8713	1955.25	1063.5
865.9659	1187.8017	1849.15	956.7
866.1106	1189.7315	1743.85	857.8
866.2554	1191.6605	1711.95	795.15
866.4001	1193.5888	1641.3	748.85
866.5448	1195.5163	1620.45	724.85
866.6895	1197.4432	1597.55	701.9
866.8342	1199.3693	1586.45	691.7
866.9789	1201.2947	1573.55	675.25
867.1236	1203.2193	1558.75	663.2
867.2683	1205.1432	1559.65	661.7
867.413	1207.0664	1552.8	654.85
867.5576	1208.9889	1571.95	673.65
867.7023	1210.9106	1564.15	667.85
867.847	1212.8316	1573.85	679.6
867.9916	1214.7519	1581.65	675.7
868.1363	1216.6715	1586.2	689.5
868.2809	1218.5903	1601.4	705.7
868.4255	1220.5084	1617.35	720.6
868.5701	1222.4257	1635.85	741.7
868.7148	1224.3424	1638	741.15
868.8594	1226.2583	1660.5	759.6
869.004	1228.1735	1684.5	787.8
869.1486	1230.0879	1729.95	832.25
869.2932	1232.0016	1772.2	876.05
869.4377	1233.9146	1802.05	904.1
869.5823	1235.8269	1817.2	920.5
869.7269	1237.7384	1824.25	928.35
869.8715	1239.6492	1818.2	920.05
870.016	1241.5592	1847.25	950.15
870.1606	1243.4686	1882.5	985.75
870.3051	1245.3772	1964.95	1065.45
870.4496	1247.285	2034.25	1134.6
870.5941	1249.1922	2114.9	1217.75
870.7387	1251.0986	2188.85	1292.45
870.8832	1253.0042	2247.85	1351.05
871.0277	1254.9092	2330.35	1431.7
871.1722	1256.8134	2404.4	1511.55
871.3167	1258.7169	2456.95	1559.35
871.4611	1260.6196	2474.15	1579.35
871.6056	1262.5216	2478.05	1580.4
871.7501	1264.4229	2458.05	1561.55
871.8945	1266.3234	2435.95	1538.3
872.039	1268.2232	2390.8	1491.9
872.1834	1270.1223	2348.8	1449.6
872.3278	1272.0207	2310	1412.15
872.4723	1273.9183	2301.15	1398.9
872.6167	1275.8151	2309.3	1412
872.7611	1277.7113	2354.65	1454.55
872.9055	1279.6067	2425.8	1528.1
873.0499	1281.5014	2564.9	1665.9
873.1943	1283.3953	2723.05	1822.05
873.3386	1285.2885	2868.15	1970.55
873.483	1287.181	2978.7	2083.75
873.6274	1289.0727	3023.55	2129.55
873.7717	1290.9637	2981.55	2082.6
873.9161	1292.854	2910.65	2013.55
874.0604	1294.7435	2816	1917.15
874.2047	1296.6323	2733.45	1835.1
874.349	1298.5204	2643.3	1740.2
874.4933	1300.4077	2572.6	1672.65
874.6376	1302.2943	2530.15	1633.7
874.7819	1304.1802	2510.9	1616.25
874.9262	1306.0653	2478.35	1581.15
875.0705	1307.9497	2430.3	1532.05
875.2147	1309.8333	2388.95	1492.3
875.359	1311.7162	2359.6	1462.4
875.5032	1313.5984	2332.05	1432.25
875.6475	1315.4798	2312.5	1397.8
875.7917	1317.3605	2299.4	1393.7
875.9359	1319.2405	2283.95	1384.3
876.0801	1321.1197	2262.9	1364.95
876.2243	1322.9982	2213.5	1312.35
876.3685	1324.876	2124.1	1227.3
876.5127	1326.753	2036.65	1137.8
876.6569	1328.6293	1973.05	1069.95
876.801	1330.5048	1891.6	988.95
876.9452	1332.3796	1832.1	934.5
877.0893	1334.2537	1813.9	887.25
877.2335	1336.127	1754.95	856.95
877.3776	1337.9996	1733.15	833.5
877.5217	1339.8714	1708.65	807.35
877.6658	1341.7426	1737.15	795
877.8099	1343.6129	1688.7	787.75
877.954	1345.4826	1670.8	773
878.0981	1347.3515	1671.75	772.65
878.2422	1349.2196	1651.45	751.65
878.3862	1351.087	1644.65	746.25
878.5303	1352.9537	1638.5	739.9
878.6743	1354.8197	1642.45	747.3
878.8184	1356.6849	1651.45	753.05
878.9624	1358.5493	1658.6	761.45
879.1064	1360.4131	1701.8	805
879.2504	1362.276	1725.35	827
879.3944	1364.1383	1755.4	856.05
879.5384	1365.9998	1774.1	870.4
879.6823	1367.8606	1758.1	858.2
879.8263	1369.7206	1746.6	846.45
879.9702	1371.5799	1744.85	845.25
880.1142	1373.4384	1730.2	830.2
880.2581	1375.2962	1703.8	801.55
880.402	1377.1533	1658	761.25
880.5459	1379.0096	1613	716.1
880.6898	1380.8652	1580.55	685.3
880.8337	1382.7201	1554.5	656.55
880.9776	1384.5742	1536.4	639.35
881.1215	1386.4275	1513.65	613.65
881.2653	1388.2802	1502.8	604.95
881.4092	1390.132	1483.9	582.95
881.553	1391.9832	1482.65	582.5
881.6968	1393.8336	1472.75	574.45
881.8406	1395.6832	1468.95	571.9
881.9844	1397.5322	1461.1	562.6
882.1282	1399.3803	1448.4	545.6
882.272	1401.2278	1446.65	549.95
882.4158	1403.0745	1429.4	533.55
882.5595	1404.9204	1432.95	538.3
882.7033	1406.7656	1422.8	525.25
882.847	1408.6101	1421.7	521.1
882.9908	1410.4538	1423	522.2
883.1345	1412.2968	1420.25	522.3
883.2782	1414.139	1425.85	527.3
883.4219	1415.9805	1431.7	533.7
883.5656	1417.8213	1443.4	538.15
883.7092	1419.6613	1452.75	554
883.8529	1421.5006	1485.95	585.9
883.9965	1423.3391	1514.85	614.45
884.1402	1425.1769	1561.95	662
884.2838	1427.0139	1632.85	733.5
884.4274	1428.8502	1705.3	807.3
884.571	1430.6858	1763.1	864.55
884.7146	1432.5206	1783.7	887.3
884.8582	1434.3547	1784.95	886.2
885.0018	1436.188	1765.55	868.6
885.1453	1438.0206	1754.7	855.65
885.2889	1439.8524	1739.1	842.95
885.4324	1441.6835	1742.3	842
885.5759	1443.5139	1738.4	836
885.7194	1445.3435	1738.15	842.05
885.8629	1447.1724	1741.5	844.4
886.0064	1449.0005	1740.95	846.2
886.1499	1450.8279	1735.7	838
886.2933	1452.6545	1730.35	833.7
886.4368	1454.4804	1731	835.25
886.5802	1456.3056	1725.7	819.95
886.7237	1458.13	1707.3	812.8
886.8671	1459.9536	1680.8	785.15
887.0105	1461.7766	1648.65	752.6
887.1539	1463.5987	1614.3	717.5
887.2972	1465.4202	1582.2	685.15
887.4406	1467.2409	1552.25	656.3
887.584	1469.0608	1512.55	615.2
887.7273	1470.88	1492.55	594.4
887.8706	1472.6984	1467.2	570.9
888.0139	1474.5161	1444.6	546.75
888.1572	1476.3331	1430.7	535.65
888.3005	1478.1493	1421	524.95
888.4438	1479.9648	1415.85	519.1
888.5871	1481.7795	1416.05	516.55
888.7303	1483.5935	1412.9	515.7
888.8736	1485.4067	1423.45	525.7
889.0168	1487.2192	1419.2	521.9
889.16	1489.031	1416.85	517.45
889.3032	1490.842	1414	518.85
889.4464	1492.6522	1417	521
889.5896	1494.4618	1413.4	515.6
889.7327	1496.2705	1406.65	510.15
889.8759	1498.0785	1396.25	498.05
890.019	1499.8858	1399.5	503.2
890.1622	1501.6924	1390.45	492.6
890.3053	1503.4981	1386.3	489.65
890.4484	1505.3032	1379.4	481.25
890.5914	1507.1075	1369.3	471.5
890.7345	1508.911	1365	467.65
890.8776	1510.7138	1358	460.2
891.0206	1512.5159	1356.4	457.65
891.1637	1514.3172	1347.5	452.75
891.3067	1516.1178	1342	448.2
891.4497	1517.9176	1341.8	443.3
891.5927	1519.7166	1333.8	438.15
891.7357	1521.515	1335.45	430.15
891.8786	1523.3126	1332.7	433.3
892.0216	1525.1094	1322.7	424.8
892.1645	1526.9055	1317.6	423.9
892.3074	1528.7008	1310.9	415.3
892.4503	1530.4954	1316.9	415.35
892.5932	1532.2893	1307.65	414.7
892.7361	1534.0824	1313.1	414.65
892.879	1535.8747	1304.3	412.75
893.0218	1537.6663	1307.8	413.4
893.1647	1539.4572	1304.4	406.35
893.3075	1541.2473	1306.3	408.65
893.4503	1543.0367	1298.1	404.55
893.5931	1544.8253	1304.9	403.1
893.7359	1546.6132	1309.95	408.65
893.8787	1548.4003	1318.6	416.1
894.0214	1550.1867	1334.5	430.4
894.1642	1551.9723	1330.8	433.3
894.3069	1553.7572	1349.7	452.2
894.4496	1555.5414	1358.6	464.15
894.5923	1557.3247	1374.8	481.85
894.735	1559.1074	1408.4	514.05
894.8777	1560.8893	1453.85	560.5
895.0204	1562.6705	1477.55	583.85
895.163	1564.4509	1500.9	609.6
895.3056	1566.2305	1506.35	616.95
895.4482	1568.0094	1506.6	615.35
895.5908	1569.7876	1505.85	613.15
895.7334	1571.565	1500.8	609.45
895.876	1573.3417	1500.05	608.4
896.0186	1575.1176	1509.75	615.65
896.1611	1576.8928	1514.6	622.95
896.3036	1578.6672	1534.8	645.15
896.4461	1580.4409	1551.8	662.4
896.5886	1582.2138	1587.3	695.4
896.7311	1583.986	1614.2	723.45
896.8736	1585.7575	1645.8	755.45
897.0161	1587.5282	1676.95	788.75
897.1585	1589.2981	1694.4	805.45
897.3009	1591.0673	1709.25	819.65
897.4433	1592.8358	1722.75	833.9
897.5857	1594.6035	1721.35	828.25
897.7281	1596.3704	1719.15	826.65
897.8705	1598.1366	1705.35	815.35
898.0128	1599.9021	1682.75	792.2
898.1551	1601.6668	1672.55	778.65
898.2975	1603.4308	1658.2	764.9
898.4398	1605.194	1666.45	771.3
898.5821	1606.9564	1685.5	798
898.7243	1608.7182	1741.15	852.75
898.8666	1610.4791	1802.6	917.45
899.0088	1612.2394	1881.2	995.65
899.1511	1613.9988	1968.55	1084.35
899.2933	1615.7576	2030.75	1142.85
899.4355	1617.5156	2044	1146.7
899.5776	1619.2728	1993.45	1099.9
899.7198	1621.0293	1925.25	1033.3
899.862	1622.785	1836.05	939.9
900.0041	1624.54	1731.45	839.45
900.1462	1626.2942	1627.2	737.35
900.2883	1628.0477	1544.6	653.45
900.4304	1629.8005	1490.25	597.5
900.5725	1631.5525	1432.3	544.95
900.7145	1633.3037	1380.1	492.35
900.8566	1635.0542	1353.55	466
900.9986	1636.804	1323.5	435.2
901.1406	1638.553	1411.5	416.25
901.2826	1640.3013	1288.35	398
901.4245	1642.0488	1274.05	385.05
901.5665	1643.7955	1258.55	373.35
901.7085	1645.5416	1247.9	362.55
901.8504	1647.2868	1238.4	350.7
901.9923	1649.0313	1237.5	349.4
902.1342	1650.7751	1232.65	340.35
902.2761	1652.5181	1221	333.8
902.4179	1654.2604	1229.75	342.15
902.5598	1656.0019	1236.95	350.3
902.7016	1657.7427	1249.5	361.15
902.8434	1659.4828	1270.65	381.7
902.9852	1661.222	1287.7	398.2
903.127	1662.9606	1316	428.15
903.2687	1664.6984	1335.1	442.65
903.4105	1666.4354	1336.5	444.35
903.5522	1668.1717	1306.65	416.55
903.6939	1669.9072	1276.85	384.35
903.8356	1671.642	1243.15	349.45
903.9773	1673.3761	1208.55	318.95
904.119	1675.1094	1190.4	300.5
904.2606	1676.8419	1169.95	277.8
904.4022	1678.5737	1161.85	271.95
904.5439	1680.3048	1156.95	266.05
904.6855	1682.0351	1147.75	257.45
904.827	1683.7646	1143	252.4
904.9686	1685.4934	1143.65	252.85
905.1101	1687.2215	1133.6	243.55
905.2517	1688.9488	1127.65	238.65
905.3932	1690.6754	1126.3	238.7
905.5347	1692.4012	1129.2	239.3
905.6761	1694.1263	1123.7	233.25
905.8176	1695.8506	1123	234.15
905.9591	1697.5742	1118.1	230.25
906.1005	1699.297	1117	229.75
906.2419	1701.0191	1103.3	217.35
906.3833	1702.7404	1113.75	226.6
906.5246	1704.461	1106.25	215.15
906.666	1706.1808	1110.15	220.3
906.8073	1707.8999	1101	212.1
906.9487	1709.6182	1101.75	215.35
907.09	1711.3358	1097.45	211
907.2313	1713.0527	1093.4	208.55
907.3725	1714.7688	1108.4	218
907.5138	1716.4841	1099.8	207.55
907.655	1718.1987	1101	206.95
907.7962	1719.9126	1094.3	207.35
907.9374	1721.6257	1095.65	208.35
908.0786	1723.338	1092.45	205.25
908.2198	1725.0496	1093.65	207.15
908.3609	1726.7605	1097.15	207.8
908.502	1728.4706	1095.6	205.7
908.6431	1730.18	1088.4	199.45
908.7842	1731.8886	1088.35	202.15
908.9253	1733.5964	1108.95	203.8
909.0664	1735.3036	1087.1	197.6
909.2074	1737.0099	1086.3	198.8
909.3484	1738.7156	1084.9	200.25
909.4894	1740.4204	1084.75	194.35
909.6304	1742.1246	1089.25	199.35
909.7714	1743.8279	1081.8	193.95
909.9123	1745.5306	1084.55	197.75
910.0532	1747.2325	1085.1	199.5
910.1941	1748.9336	1079.5	192.4
910.335	1750.634	1083.45	193.95
910.4759	1752.3336	1078.1	188.7
910.6168	1754.0325	1078.95	193.85
910.7576	1755.7307	1081.1	194.9
910.8984	1757.4281	1073.3	185.9
911.0392	1759.1247	1084.8	188.75
911.18	1760.8206	1088.25	194.25
911.3208	1762.5158	1086.15	193.75
911.4615	1764.2102	1077.8	191.55
911.6022	1765.9039	1073.1	184.65
911.7429	1767.5968	1075.35	191.45
911.8836	1769.289	1076.4	189.65
912.0243	1770.9804	1070.4	181.6
912.1649	1772.6711	1077.9	186.85
912.3056	1774.361	1076.2	185.65
912.4462	1776.0502	1080.35	190.5
912.5868	1777.7386	1077.95	188.05
912.7274	1779.4263	1071.3	185
912.8679	1781.1132	1069.15	183.1
913.0084	1782.7994	1069.45	184.25
913.149	1784.4849	1069.7	183.95
913.2895	1786.1696	1088.75	184.7
913.4299	1787.8535	1069.8	183.9
913.5704	1789.5367	1067.5	185.2
913.7108	1791.2192	1066.75	181.15
913.8513	1792.9009	1092.25	180.4
913.9917	1794.5818	1069.95	180.45
914.132	1796.2621	1063.4	177.1
914.2724	1797.9415	1064.4	177.3
914.4128	1799.6202	1067	179.25
914.5531	1801.2982	1066.4	178.55
914.6934	1802.9755	1067.15	177.85
914.8337	1804.6519	1067.9	180.1
914.9739	1806.3277	1063.65	177.15
915.1142	1808.0027	1058.5	174.35
915.2544	1809.6769	1055.4	169
915.3946	1811.3504	1059.65	175.25
915.5348	1813.0231	1057	172
915.675	1814.6951	1061.95	176.55
915.8151	1816.3664	1059.8	171
915.9553	1818.0369	1057	169.3
916.0954	1819.7067	1057.3	170.55
916.2355	1821.3757	1059.5	169.15
916.3755	1823.044	1059	168.05
916.5156	1824.7115	1053.25	163.5
916.6556	1826.3783	1057.65	170.65
916.7956	1828.0443	1056.15	168.35
916.9356	1829.7096	1055.65	167.35
917.0756	1831.3741	1062.15	171.7
917.2155	1833.0379	1055.1	170.4
917.3555	1834.701	1055.05	168.35
917.4954	1836.3633	1052	165.85
917.6353	1838.0248	1052.7	164.65
917.7751	1839.6856	1051.95	165.45
917.915	1841.3457	1050.1	164.1
918.0548	1843.005	1047.95	158.25
918.1946	1844.6636	1049.4	165.2
918.3344	1846.3214	1051.4	166.4
918.4742	1847.9785	1051.05	164.2
918.6139	1849.6349	1052.15	164.25
918.7537	1851.2904	1061.25	164.95
918.8934	1852.9453	1053.2	164.55
919.0331	1854.5994	1055.25	164.55
919.1727	1856.2528	1055.35	161.1
919.3124	1857.9054	1045.2	156.45
919.452	1859.5572	1046.3	161.55
919.5916	1861.2083	1051.05	162.75
919.7312	1862.8587	1047.15	160.05
919.8708	1864.5084	1046.8	156.8
920.0103	1866.1572	1043.4	156.05
920.1498	1867.8054	1047.35	160.25
920.2893	1869.4528	1046.6	157.5
920.4288	1871.0994	1043.8	153.3
920.5683	1872.7453	1045.75	158.75
920.7077	1874.3905	1051.2	157.8
920.8471	1876.0349	1048.45	159.1
920.9865	1877.6786	1049.05	159.8
921.1259	1879.3215	1043.2	154.55
921.2653	1880.9637	1049.6	161.7
921.4046	1882.6051	1043.25	157.35
921.5439	1884.2458	1041.3	154
921.6832	1885.8858	1040.2	151.6
921.8225	1887.525	1039.2	150
921.9617	1889.1634	1041.5	153.65
922.101	1890.8011	1040.25	151.95
922.2402	1892.4381	1037.75	149.75
922.3794	1894.0743	1040.05	154.3
922.5185	1895.7098	1044.4	157.2
922.6577	1897.3446	1040.6	151.7
922.7968	1898.9786	1042.15	148.4
922.9359	1900.6118	1038.35	151.3
923.075	1902.2443	1035.85	150.15
923.214	1903.8761	1034.3	145.5
923.3531	1905.5071	1040.05	149.55
923.4921	1907.1374	1035.6	149.4
923.6311	1908.7669	1036.15	149.75
923.77	1910.3957	1037.15	153.75
923.909	1912.0237	1035.1	149.2
924.0479	1913.651	1030.8	143.95
924.1868	1915.2776	1029.55	143.35
924.3257	1916.9034	1030.45	145.75
924.4646	1918.5285	1033.55	145.75
924.6034	1920.1528	1035.9	149.2
924.7422	1921.7764	1030.55	141.4
924.881	1923.3992	1030.4	145.4
925.0198	1925.0213	1029.3	141.75
925.1586	1926.6427	1029.7	144.1
925.2973	1928.2633	1238.8	140.05
925.436	1929.8832	1032.45	142.2
925.5747	1931.5023	1032.85	144.8
925.7134	1933.1207	1023.7	137.45
925.852	1934.7383	1030.1	142.75
925.9906	1936.3552	1023.85	137.3
926.1292	1937.9714	1025.9	138.3
926.2678	1939.5868	1026.25	136.15
926.4064	1941.2015	1023.9	135.95
926.5449	1942.8154	1028.6	140.95
926.6834	1944.4286	1027.75	139.65
926.8219	1946.041	1047	136.4
926.9604	1947.6528	1029.55	139.1
927.0988	1949.2637	1023.25	136.65
927.2372	1950.8739	1022.3	134.95
927.3756	1952.4834	1022.7	134.5
927.514	1954.0921	1021.85	136.7
927.6523	1955.7001	1027.95	137.45
927.7907	1957.3074	1020.5	139.05
927.929	1958.9139	1018.6	133.1
928.0673	1960.5197	1024.9	137.75
928.2055	1962.1247	1015.25	129.6
928.3438	1963.729	1016.6	132.4
928.482	1965.3325	1021	132.1
928.6202	1966.9353	1021.25	135.05
928.7584	1968.5374	1018.75	131.4
928.8965	1970.1387	1020.4	134.35
929.0346	1971.7393	1017.45	129.8
929.1727	1973.3392	1013.4	131.35
929.3108	1974.9383	1014.25	128.85
929.4489	1976.5366	1011.4	127.85
929.5869	1978.1342	1013.75	130.4
929.7249	1979.7311	1019	135.2
929.8629	1981.3273	1011.7	129.45
930.0009	1982.9227	1016.55	131.95
930.1388	1984.5173	1011.05	128.6
930.2767	1986.1112	1014.2	132
930.4146	1987.7044	1010.65	126.55
930.5525	1989.2968	1013.05	128.9
930.6904	1990.8885	1010.65	123.8
930.8282	1992.4795	1013.2	133.1
930.966	1994.0697	1009.7	127.95
931.1038	1995.6592	1013.45	130.15
931.2415	1997.2479	1006.6	124.25
931.3793	1998.8359	1012.5	131.25
931.517	2000.4232	1005.3	124.65
931.6547	2002.0097	1002.6	123.7
931.7923	2003.5955	1011.25	131.9
931.93	2005.1805	1008.65	127.55
932.0676	2006.7648	1006.2	125.75
932.2052	2008.3484	1004.45	122.05
932.3427	2009.9312	1007.05	124.85
932.4803	2011.5133	1009.2	128.65
932.6178	2013.0946	1003.9	124.25
932.7553	2014.6752	1004.1	123.7
932.8928	2016.2551	1005.95	124.25
933.0302	2017.8342	1004.45	124.15
933.1676	2019.4126	1002.55	123.35
933.305	2020.9902	1007.55	129.35
933.4424	2022.5672	1001.15	120.5
933.5798	2024.1433	1008.95	124.7
933.7171	2025.7188	999.95	123.1
933.8544	2027.2935	1000.45	120.05
933.9917	2028.8674	997.85	120.1
934.129	2030.4406	996.5	120.05
934.2662	2032.0131	1002	123.65
934.4034	2033.5849	1004.5	117.35
934.5406	2035.1559	1001.55	123.85
934.6778	2036.7261	1005.25	125
934.8149	2038.2957	1003.75	122.5
934.952	2039.8645	1004.15	121.95
935.0891	2041.4325	1008.55	125.25
935.2262	2042.9998	1003.65	125.45
935.3632	2044.5664	1002.25	118.7
935.5002	2046.1323	998.9	121.1
935.6372	2047.6974	999.1	117.35
935.7742	2049.2617	999.8	122.6
935.9111	2050.8254	1004.7	119.6
936.048	2052.3883	1002.3	121.55
936.1849	2053.9504	1000.65	117.9
936.3218	2055.5118	1002.3	119.75
936.4586	2057.0725	1002.45	119.45
936.5955	2058.6325	1001.4	121.95
936.7323	2060.1917	995.25	116.3
936.869	2061.7502	1001.2	120.85
937.0058	2063.3079	1000.45	121.15
937.1425	2064.8649	1000.35	118.2
937.2792	2066.4212	1002.45	121.25
937.4159	2067.9767	1001.35	120.15
937.5525	2069.5315	1000.95	121.4
937.6891	2071.0856	996.65	114.85
937.8257	2072.6389	999.7	119.8
937.9623	2074.1915	1000.55	124.25
938.0989	2075.7433	998	117.6
938.2354	2077.2945	997.05	118.45
938.3719	2078.8448	1000.75	121.5
938.5084	2080.3945	1000.65	120.75
938.6448	2081.9434	998.25	117.35
938.7812	2083.4916	1000.6	117.45
938.9176	2085.039	1000.15	114.95
939.054	2086.5857	1003.45	119.7
939.1903	2088.1317	1001.85	119.25
939.3267	2089.677	1001.9	118.35
939.463	2091.2215	1003	119.6
939.5992	2092.7652	1001.7	116.45
939.7355	2094.3083	998.15	113.9
939.8717	2095.8506	1000.35	118.3
940.0079	2097.3921	995.85	115.45
940.1441	2098.933	996.35	113.8
940.2802	2100.4731	997.85	116.1
940.4163	2102.0124	1012.45	116.1
940.5524	2103.5511	994.45	113.4
940.6885	2105.089	1000.4	118.15
940.8245	2106.6261	1000.9	117.9
940.9606	2108.1626	995.55	114.65
941.0965	2109.6983	1028.95	118.45
941.2325	2111.2332	996.45	113.15
941.3684	2112.7675	999.8	116.6
941.5044	2114.301	1004.45	120.85
941.6403	2115.8337	1000	115.95
941.7761	2117.3657	995.95	116.05
941.912	2118.897	997	114.05
942.0478	2120.4276	1001.7	111.3
942.1835	2121.9575	998.55	115.3
942.3193	2123.4866	999.05	112.85
942.455	2125.0149	1000.2	117.15
942.5907	2126.5426	992.65	112.95
942.7264	2128.0695	999.2	115.4
942.8621	2129.5956	995.4	119.25
942.9977	2131.1211	996.5	114.2
943.1333	2132.6458	992.95	113.9
943.2689	2134.1698	997.9	113.5
943.4044	2135.693	995.85	112.15
943.54	2137.2155	999.25	114.8
943.6755	2138.7373	994.65	112.4
943.8109	2140.2584	990.15	110.7
943.9464	2141.7787	998.95	112.9
944.0818	2143.2983	991.25	113.1
944.2172	2144.8171	988.55	110.95
944.3526	2146.3353	994.35	112.65
944.4879	2147.8527	991.85	112.9
944.6232	2149.3693	997.75	115.2
944.7585	2150.8853	992.85	110.15
944.8938	2152.4005	991.2	108.7
945.029	2153.9149	993.35	111.2
945.1642	2155.4287	995.25	112.55
945.2994	2156.9417	993.15	110.35
945.4346	2158.454	993.85	110.35
945.5697	2159.9655	994.4	113.05
945.7048	2161.4764	990.4	111.05
945.8399	2162.9865	989.95	108.95
945.9749	2164.4958	990.4	110.4
946.1099	2166.0045	994.85	112.85
946.2449	2167.5124	986.7	107.05
946.3799	2169.0195	992.8	112.25
946.5148	2170.526	991.65	107.6
946.6498	2172.0317	990.6	107.1
946.7846	2173.5367	989.25	108.75
946.9195	2175.0409	989.65	107.55
947.0543	2176.5445	991.1	110.85
947.1891	2178.0473	991.9	109
947.3239	2179.5494	998.6	113.25
947.4587	2181.0507	990.6	109.7
947.5934	2182.5513	987.25	106.55
947.7281	2184.0512	990.95	106.85
947.8628	2185.5504	988.9	109.85
947.9974	2187.0488	989.6	108.2
948.132	2188.5465	988.25	107.6
948.2666	2190.0435	989.8	110.15
948.4012	2191.5397	989.05	105.55
948.5357	2193.0353	986.95	105.3
948.6702	2194.5301	993.65	109.3
948.8047	2196.0241	987.5	103.2
948.9392	2197.5175	988.2	106.25
949.0736	2199.0101	993.8	107.75
949.208	2200.502	986.3	104.9
949.3424	2201.9931	985.8	103.35
949.4767	2203.4835	983.9	104.75
949.611	2204.9733	1005.9	110.4
949.7453	2206.4622	987.1	111.75
949.8796	2207.9505	989.35	108.85
950.0138	2209.438	984.65	107.1
950.148	2210.9248	985.7	105.1
950.2822	2212.4109	981	101.2
950.4164	2213.8962	989.05	102.9
950.5505	2215.3809	989.3	106.6
950.6846	2216.8648	987.65	104.35
950.8186	2218.3479	993	102.9
950.9527	2219.8304	989	101.15
951.0867	2221.3121	990.65	105.1
951.2207	2222.7931	984.7	103.95
951.3546	2224.2733	984.45	102.05
951.4886	2225.7529	982.45	100.2
951.6225	2227.2317	984.05	100.7
951.7563	2228.7098	978.65	97.45
951.8902	2230.1872	980.2	101.1
952.024	2231.6638	980.05	100.55
952.1578	2233.1397	986.75	101.9
952.2916	2234.6149	977.25	97.15
952.4253	2236.0894	979.55	98.9
952.559	2237.5632	988.9	99.6
952.6927	2239.0362	980.05	97.95
952.8263	2240.5085	980.75	99.45
952.9599	2241.9801	978.15	94.75
953.0935	2243.4509	980.1	100.5
953.2271	2244.921	981.9	100.3
953.3606	2246.3904	984	100.1
953.4941	2247.8591	980.55	99.8
953.6276	2249.3271	977.4	93.85
953.7611	2250.7943	979.45	96.95
953.8945	2252.2608	977.35	95.7
954.0279	2253.7266	981.15	100.65
954.1612	2255.1917	980.6	97.95
954.2946	2256.656	975.35	94.4
954.4279	2258.1197	976.65	97.75
954.5612	2259.5826	975.5	92.7
954.6944	2261.0447	977.75	93.85
954.8276	2262.5062	980.25	97
954.9608	2263.9669	985.75	102.7
955.094	2265.4269	977.1	96.55
955.2271	2266.8862	976	95.5
955.3602	2268.3448	976.4	96.7
955.4933	2269.8026	975.75	95.35
955.6264	2271.2598	973.2	93.6
955.7594	2272.7162	978.2	100.05
955.8924	2274.1719	979.1	96.95
956.0253	2275.6268	975.15	92.8
956.1583	2277.0811	976.8	93.7
956.2912	2278.5346	976.25	95.9
956.4241	2279.9874	972	91.4
956.5569	2281.4395	971.65	94.45
956.6897	2282.8908	975.75	89.05
956.8225	2284.3414	972.75	89.95
956.9553	2285.7914	972.35	91.25
957.088	2287.2406	976.4	93.8
957.2207	2288.689	975.6	94.2
957.3534	2290.1368	978.15	93.55
957.486	2291.5838	977.1	91.95
957.6186	2293.0302	974.45	90.4
957.7512	2294.4758	972.8	89.45
957.8838	2295.9206	976.5	92.5
958.0163	2297.3648	973.15	92.75
958.1488	2298.8082	973.7	90.5
958.2813	2300.251	971.15	89.15
958.4137	2301.693	971.85	89.85
958.5461	2303.1343	974.7	92.45
958.6785	2304.5748	968.7	86.65
958.8108	2306.0147	972.15	92.5
958.9432	2307.4538	973.85	91.55
959.0754	2308.8922	968.1	88.8
959.2077	2310.3299	968.8	88.95
959.3399	2311.7669	965.75	86.5
959.4721	2313.2031	970.65	88.75
959.6043	2314.6387	971.4	89.2
959.7365	2316.0735	968.7	86.7
959.8686	2317.5076	972.25	91.25
960.0006	2318.941	969.65	86.6
960.1327	2320.3737	970.1	88.2
960.2647	2321.8056	975.1	93.3
960.3967	2323.2369	970.05	88.15
960.5287	2324.6674	978.15	94.5
960.6606	2326.0972	973.8	90.05
960.7925	2327.5263	979.2	98.35
960.9244	2328.9547	980.5	97.65
961.0562	2330.3823	979.25	95.55
961.1881	2331.8092	979.95	92.05
961.3198	2333.2355	969.2	85.55
961.4516	2334.661	972	88.6
961.5833	2336.0858	972.7	91.05
961.715	2337.5098	965.15	81.4
961.8467	2338.9332	968.2	85.15
961.9783	2340.3558	969.8	84.35
962.1099	2341.7778	967.75	85.25
962.2415	2343.199	968.45	84.8
962.373	2344.6195	964.55	81.55
962.5045	2346.0393	967.3	85.95
962.636	2347.4583	965.2	83.15
962.7675	2348.8767	968.15	85
962.8989	2350.2943	965.85	82.15
963.0303	2351.7113	968.65	82.9
963.1617	2353.1275	969.15	86.4
963.293	2354.543	990.9	82.5
963.4243	2355.9578	967.25	82.15
963.5556	2357.3718	965.85	83.7
963.6868	2358.7852	964.55	77.25
963.818	2360.1978	965.9	83.15
963.9492	2361.6098	962	78.3
964.0803	2363.021	971.6	87.65
964.2114	2364.4315	965.35	83.15
964.3425	2365.8413	963.3	81.45
964.4736	2367.2504	963.6	81.5
964.6046	2368.6587	959.85	78.15
964.7356	2370.0664	960.95	77.7
964.8666	2371.4733	963.4	80.4
964.9975	2372.8795	963.3	79.35
965.1284	2374.285	962.6	79.1
965.2593	2375.6899	959.8	77.5
965.3901	2377.0939	962.55	81.8
965.5209	2378.4973	965.25	81.4
965.6517	2379.9	962.75	77.55
965.7825	2381.3019	963.7	82
965.9132	2382.7032	963.95	84.1
966.0439	2384.1037	960.2	79.85
966.1745	2385.5035	961.6	79.05
966.3051	2386.9027	958.35	78.55
966.4357	2388.3011	959.8	73.9
966.5663	2389.6987	962.05	79
966.6968	2391.0957	959.75	78.85
966.8273	2392.492	960.95	77.95
966.9578	2393.8876	959.8	77.15
967.0882	2395.2824	957.3	72.4
967.2186	2396.6765	960.55	77
967.349	2398.07	961.3	79
967.4793	2399.4627	959.7	73.25
967.6097	2400.8547	957.95	73.6
967.7399	2402.246	966.8	75.5
967.8702	2403.6366	957.35	73.45
968.0004	2405.0265	954.9	71.6
968.1306	2406.4156	961.55	72.85
968.2607	2407.8041	962.55	76.1
968.3909	2409.1918	961.3	74.65
968.521	2410.5789	961.3	76.8
968.651	2411.9652	958.2	72.45
968.781	2413.3508	958.9	72.85
968.911	2414.7358	956.9	72.9
969.041	2416.12	954.7	69.3
969.1709	2417.5035	957.3	73.45
969.3008	2418.8863	956.65	72.45
969.4307	2420.2684	958.95	76.8
969.5606	2421.6497	955.95	70.85
969.6904	2423.0304	953.45	70.75
969.8201	2424.4104	955.8	70.35
969.9499	2425.7896	959.85	70.35
970.0796	2427.1682	957.95	71.7
970.2093	2428.546	958.7	74.65
970.3389	2429.9232	954.45	69
970.4685	2431.2996	953.45	70.6
970.5981	2432.6753	954.5	73.1
970.7277	2434.0503	954.1	67.25
970.8572	2435.4246	950.1	67.5
970.9867	2436.7982	959.1	71.9
971.1161	2438.1711	953.6	69.7
971.2456	2439.5433	955.25	70.75
971.375	2440.9148	954.6	68.45
971.5043	2442.2856	951.85	69.45
971.6336	2443.6557	951.95	67.45
971.7629	2445.025	951.6	68.8
971.8922	2446.3937	955.95	72.25
972.0214	2447.7617	955.8	70.5
972.1506	2449.1289	952.6	69.2
972.2798	2450.4955	953.1	67.55
972.4089	2451.8613	949.6	67.15
972.538	2453.2265	952.35	67.55
972.6671	2454.5909	953.65	68.3
972.7961	2455.9546	948.65	66.5
972.9251	2457.3177	949.8	67.6
973.0541	2458.68	948.5	64.75
973.1831	2460.0416	951	67.35
973.312	2461.4025	952.95	70
973.4408	2462.7627	957.45	62.1
973.5697	2464.1222	948.65	65.85
973.6985	2465.4811	950.65	67.25
973.8273	2466.8392	947.95	65.5
973.956	2468.1966	953	67.25
974.0847	2469.5533	951.8	67.75
974.2134	2470.9093	954.2	70.7
974.3421	2472.2645	951.65	66.8
974.4707	2473.6191	947.6	65.5
974.5993	2474.973	947.7	66.1
974.7278	2476.3262	951.05	63.75
974.8563	2477.6787	945.55	62.2
974.9848	2479.0305	947.35	62.9
975.1132	2480.3816	948.25	62.85
975.2417	2481.7319	948.65	66.9
975.37	2483.0816	949.15	64.65
975.4984	2484.4306	950.55	69.65
975.6267	2485.7789	942.75	60.45
975.755	2487.1264	949.5	65.5
975.8833	2488.4733	948.05	67.3
976.0115	2489.8195	954.5	64.2
976.1397	2491.165	949.6	63.55
976.2678	2492.5097	948.75	63.45
976.3959	2493.8538	945	65.45
976.524	2495.1972	947.3	64.9
976.6521	2496.5398	949	63.5
976.7801	2497.8818	947.55	62.7
976.9081	2499.2231	948.3	66.95
977.036	2500.5637	944.85	58.65
977.164	2501.9035	946.75	62.55
977.2918	2503.2427	950.65	63.75
977.4197	2504.5812	943.75	60.4
977.5475	2505.919	948.45	62.55
977.6753	2507.256	943.8	60.5
977.8031	2508.5924	943.75	61.55
977.9308	2509.9281	951.45	62.35
978.0585	2511.2631	943.45	62.05
978.1861	2512.5974	942.25	60.35
978.3137	2513.9309	942.9	57.85
978.4413	2515.2638	972.35	60.9
978.5689	2516.596	944.2	59.7
978.6964	2517.9275	942.45	60.65
978.8239	2519.2583	944.2	60
978.9513	2520.5884	943.95	61.15
979.0788	2521.9178	942.8	60.15
979.2062	2523.2465	942.85	61.45
979.3335	2524.5745	941	59
979.4608	2525.9018	942.25	59.15
979.5881	2527.2284	941.2	59.8
979.7154	2528.5543	943.2	62.95
979.8426	2529.8796	943.3	59.15
979.9698	2531.2041	940.4	56.45
980.0969	2532.5279	939.55	58.1
980.224	2533.851	941.6	58.5
980.3511	2535.1735	942.05	60.85
980.4781	2536.4952	940.8	58.9
980.6052	2537.8163	941.45	58.1
980.7321	2539.1366	942.15	60.05
980.8591	2540.4562	939.25	54.2
980.986	2541.7752	938.8	57.55
981.1129	2543.0935	939.6	55.45
981.2397	2544.411	939.7	57.5
981.3665	2545.7279	937.75	54.95
981.4933	2547.0441	940.85	56.75
981.62	2548.3596	941.65	56.5
981.7467	2549.6744	941.1	58.65
981.8734	2550.9885	942.75	53.6
982.0001	2552.3019	938.25	54.95
982.1267	2553.6146	941	56.4
982.2532	2554.9266	941.05	59.5
982.3798	2556.2379	943.45	58.95
982.5063	2557.5485	938.2	58.15
982.6327	2558.8585	945.85	53.8
982.7592	2560.1677	944.75	58.35
982.8856	2561.4762	937	53.9
983.0119	2562.7841	944.65	57.6
983.1383	2564.0913	936.15	54
983.2646	2565.3977	937.1	55.65
983.3908	2566.7035	939.7	55.4
983.517	2568.0086	937.45	52.9
983.6432	2569.313	941.35	57.75
983.7694	2570.6167	941.95	56.2
983.8955	2571.9197	938.75	56.95
984.0216	2573.222	941.8	55.05
984.1476	2574.5236	939.1	55.35
984.2737	2575.8246	938.7	53.15
984.3996	2577.1248	940.95	56.2
984.5256	2578.4244	935.95	53.45
984.6515	2579.7232	936.6	53.15
984.7774	2581.0214	964.9	55.9
984.9032	2582.3189	936.85	55
985.029	2583.6157	942.05	54.05
985.1548	2584.9118	937.4	55.35
985.2806	2586.2072	937.45	56.15
985.4063	2587.5019	935.35	54.8
985.5319	2588.7959	936.65	53.8
985.6576	2590.0893	939.3	54.85
985.7832	2591.3819	936.6	55.7
985.9087	2592.6739	936.9	54
986.0343	2593.9652	935.9	52.5
986.1597	2595.2557	936.85	54.6
986.2852	2596.5456	939.9	55.45
986.4106	2597.8348	935.7	54.15
986.536	2599.1234	938.55	55.6
986.6614	2600.4112	934.55	52.4
986.7867	2601.6983	940.65	55.15
986.912	2602.9848	937.05	52.4
987.0372	2604.2705	943.7	55.75
987.1624	2605.5556	937.2	54.35
987.2876	2606.84	935.25	53.15
987.4128	2608.1237	936.95	53.8
987.5379	2609.4067	937.35	54
987.6629	2610.689	945.5	56.15
987.788	2611.9707	938.65	52.2
987.913	2613.2516	940.55	54.95
988.0379	2614.5319	930.65	50.1
988.1629	2615.8115	934.65	51.05
988.2878	2617.0903	934.95	52.1
988.4126	2618.3685	936.2	55.7
988.5375	2619.6461	933.3	48.85
988.6622	2620.9229	934.45	53.05
988.787	2622.199	935.3	50.95
988.9117	2623.4745	933.45	51.2
989.0364	2624.7493	933.55	49.55
989.161	2626.0234	930.7	50.8
989.2857	2627.2968	933.45	50.65
989.4102	2628.5695	932.75	48.15
989.5348	2629.8415	931.6	48.2
989.6593	2631.1128	933.55	49.3
989.7837	2632.3835	930.2	48.2
989.9082	2633.6535	929.75	46.8
990.0326	2634.9228	929.65	46.3
990.1569	2636.1914	927.9	49.65
990.2812	2637.4593	936.1	47.95
990.4055	2638.7265	931.1	47.9
990.5298	2639.9931	932	49.75
990.654	2641.259	930.65	44.9
990.7782	2642.5242	930.4	48.05
990.9023	2643.7887	931.3	47.45
991.0264	2645.0525	933.15	52
991.1505	2646.3156	931.15	47.15
991.2745	2647.5781	931.15	49.8
991.3985	2648.8398	929	50.75
991.5225	2650.1009	937.55	45.7
991.6464	2651.3613	927.3	46.4
991.7703	2652.6211	928.05	47.1
991.8942	2653.8801	928.2	47.1
992.018	2655.1385	929.65	44.9
992.1418	2656.3961	928.2	46.65
992.2655	2657.6531	928.65	47.6
992.3892	2658.9094	926.15	43.6
992.5129	2660.1651	926.4	46.35
992.6366	2661.42	925.9	43.45
992.7602	2662.6743	930.7	47.9
992.8837	2663.9279	928.75	47.05
993.0073	2665.1808	930.6	48.6
993.1307	2666.433	931.45	48
993.2542	2667.6846	926.95	47.9
993.3776	2668.9354	931.9	46.6
993.501	2670.1856	929.05	46.9
993.6244	2671.4351	927.75	47
993.7477	2672.6839	929.2	44.7
993.8709	2673.9321	930.25	48.65
993.9942	2675.1795	929.4	47.05
994.1174	2676.4263	927.35	45.3
994.2405	2677.6724	927.3	47.15
994.3637	2678.9179	929.1	46.75
994.4868	2680.1626	929.3	47
994.6098	2681.4067	928.85	48.55
994.7328	2682.6501	928.85	45.5
994.8558	2683.8928	929.95	47.85
994.9788	2685.1348	927.2	46
995.1017	2686.3761	923.35	41.65
995.2245	2687.6168	925.75	44.65
995.3474	2688.8568	924.6	43.35
995.4702	2690.0961	924.4	44.75
995.5929	2691.3348	926.2	45.5
995.7156	2692.5727	924.9	44.7
995.8383	2693.81	923.55	41.95
995.961	2695.0466	924.1	43.7
996.0836	2696.2826	924.5	43.2
996.2062	2697.5178	926.6	43.4
996.3287	2698.7524	923.6	41.45
996.4512	2699.9863	927.2	43.65
996.5737	2701.2195	924.85	43.3
996.6961	2702.452	929.7	45.9
996.8185	2703.6839	927.15	44.5
996.9408	2704.9151	926.4	45.8
997.0631	2706.1456	926.95	45.35
997.1854	2707.3755	925.8	45.1
997.3077	2708.6046	929.75	45.55
997.4299	2709.8331	926.7	46.75
997.552	2711.0609	926.85	43.85
997.6742	2712.2881	926.05	44
997.7963	2713.5145	929.9	45.3
997.9183	2714.7403	927.7	47.8
998.0403	2715.9654	928.15	48
998.1623	2717.1899	946.65	50.75
998.2842	2718.4136	925.65	44.75
998.4062	2719.6367	932.15	50.25
998.528	2720.8591	937.8	50.15
998.6498	2722.0809	932.3	50.25
998.7716	2723.3019	936.1	51.85
998.8934	2724.5223	933.2	51.8
999.0151	2725.7421	936.4	52.95
999.1368	2726.9611	934.9	53.85
999.2584	2728.1795	937.9	52.7
999.38	2729.3972	928.4	47.2
999.5016	2730.6142	936.8	47.8
999.6231	2731.8306	930.9	48.15
999.7446	2733.0462	930.7	48.5
999.8661	2734.2612	930.25	42.55
999.9875	2735.4756	927.55	46.7
1000.1089	2736.6892	923.95	42.55
1000.2302	2737.9022	923.9	42.75
1000.3515	2739.1145	923.8	44.45
1000.4728	2740.3262	930.9	40.35
1000.594	2741.5372	923.4	44.7
1000.7152	2742.7475	923.75	42.75
1000.8363	2743.9571	925.35	42.35
1000.9575	2745.1661	927.45	42
1001.0785	2746.3744	920.25	39.75
1001.1996	2747.582	920.7	38.85
1001.3206	2748.7889	920	38.1
1001.4415	2749.9952	917.1	35.65
1001.5625	2751.2008	921.55	39.8
1001.6833	2752.4057	922.25	41.4
1001.8042	2753.61	921.6	40.6
1001.925	2754.8136	915.8	34.45
1002.0458	2756.0165	920.85	40.45
1002.1665	2757.2188	917.85	36.5
1002.2872	2758.4204	916.4	36.45
1002.4078	2759.6213	919.5	37.55
1002.5285	2760.8215	921	36.2
1002.649	2762.0211	920.35	37.35
1002.7696	2763.22	919.7	35.65
1002.8901	2764.4182	918.8	35.25
1003.0106	2765.6158	916.55	34.3
1003.131	2766.8127	916.55	37.45
1003.2514	2768.009	914.45	34
1003.3717	2769.2045	914.95	33.2
1003.492	2770.3994	917.45	36.2
1003.6123	2771.5936	916.75	34.75
1003.7325	2772.7872	913.95	34.3
1003.8527	2773.9801	915.7	34.25
1003.9729	2775.1723	931.85	33.65
1004.093	2776.3639	913.4	33.8
1004.2131	2777.5548	915.05	30.45
1004.3331	2778.745	913.95	34.35
1004.4531	2779.9346	913.45	33.15
1004.5731	2781.1235	915.85	37.05
1004.693	2782.3117	914.8	38.05
1004.8129	2783.4992	910.75	32.05
1004.9328	2784.6861	914	36.2
1005.0526	2785.8723	915.85	34.75
1005.1723	2787.0579	916.2	36.65
1005.2921	2788.2428	913.55	32.6
1005.4118	2789.427	915.1	36.6
1005.5314	2790.6106	913.95	35.4
1005.651	2791.7935	918.55	38.75
1005.7706	2792.9757	912.9	32.95
1005.8902	2794.1573	916.6	36.6
1006.0097	2795.3382	913.7	34.75
1006.1291	2796.5184	914.65	36.85
1006.2485	2797.698	916.95	35.15
1006.3679	2798.8769	914.35	35.65
1006.4873	2800.0551	913.8	34
1006.6066	2801.2327	918.35	34.55
1006.7258	2802.4096	916.85	37.1
1006.8451	2803.5859	915.45	35.45
1006.9642	2804.7615	918.3	38.9
1007.0834	2805.9364	918.9	40.95
1007.2025	2807.1106	920.5	41.95
1007.3216	2808.2842	921.55	40.35
1007.4406	2809.4572	917.85	39.3
1007.5596	2810.6294	920.95	38.8
1007.6785	2811.801	919.25	41.95
1007.7975	2812.972	926.45	46.45
1007.9163	2814.1423	922.2	42.95
1008.0352	2815.3119	926.95	47.3
1008.154	2816.4808	929.1	51.4
1008.2727	2817.6491	933	52.95
1008.3914	2818.8167	933.7	55.95
1008.5101	2819.9837	941.7	58.05
1008.6288	2821.15	944.9	66.95
1008.7474	2822.3157	945.8	64.3
1008.8659	2823.4807	951.75	72.45
1008.9844	2824.645	957.65	76.05
1009.1029	2825.8086	960.9	80.8
1009.2214	2826.9716	972.4	96.05
1009.3398	2828.134	982.15	102.85
1009.4581	2829.2957	983.25	104.35
1009.5764	2830.4567	989.5	111.15
1009.6947	2831.617	993.3	113.6
1009.813	2832.7767	995.8	117.9
1009.9312	2833.9358	994.15	113.7
1010.0493	2835.0941	997.35	115.8
1010.1675	2836.2519	990.05	112
1010.2855	2837.4089	987.1	105.95
1010.4036	2838.5653	986.95	110.15
1010.5216	2839.7211	981.8	104
1010.6396	2840.8761	981.7	99.4
1010.7575	2842.0306	977.25	99.2
1010.8754	2843.1843	977.5	97
1010.9932	2844.3374	980.2	100.5
1011.111	2845.4899	981.5	101
1011.2288	2846.6417	980.1	100.05
1011.3465	2847.7928	981.55	102.9
1011.4642	2848.9433	984.6	105.7
1011.5818	2850.0931	986.25	107.05
1011.6995	2851.2422	988.55	107.6
1011.817	2852.3907	989.05	109.2
1011.9345	2853.5385	992.05	112.65
1012.052	2854.6857	1017.05	110.2
1012.1695	2855.8323	994.25	115.85
1012.2869	2856.9781	993.85	115.85
1012.4042	2858.1233	998.75	119.95
1012.5216	2859.2679	1002	123.65
1012.6389	2860.4118	1006.05	128.3
1012.7561	2861.555	1010.45	125.7
1012.8733	2862.6976	1010.25	130.2
1012.9905	2863.8395	1005.95	125.85
1013.1076	2864.9808	1012.55	134.5
1013.2247	2866.1214	1010.85	132.25
1013.3417	2867.2614	1010.9	133.9
1013.4587	2868.4007	1017.75	138.55
1013.5757	2869.5393	1015.65	134.6
1013.6926	2870.6773	1017.5	135.35
1013.8095	2871.8146	1022.25	141.35
1013.9263	2872.9513	1022.7	140.3
1014.0431	2874.0874	1022.7	143.95
1014.1599	2875.2227	1023.95	143.5
1014.2766	2876.3574	1024.95	147.05
1014.3933	2877.4915	1026.1	147.75
1014.51	2878.6249	1025.2	148.05
1014.6266	2879.7577	1026.15	144.9
1014.7431	2880.8898	1044.1	152.4
1014.8596	2882.0212	1027.2	148.35
1014.9761	2883.152	1034.15	155.25
1015.0925	2884.2821	1036	156.05
1015.2089	2885.4116	1036.65	158.25
1015.3253	2886.5405	1038.25	158.2
1015.4416	2887.6686	1039.05	158.65
1015.5579	2888.7962	1038.75	161
1015.6741	2889.923	1038.85	161.05
1015.7903	2891.0493	1042.1	163.45
1015.9065	2892.1748	1036.95	158.2
1016.0226	2893.2997	1040.95	161.75
1016.1387	2894.424	1040.2	161.85
1016.2547	2895.5476	1038.95	161.4
1016.3707	2896.6706	1041.15	162.05
1016.4866	2897.7929	1039.05	161.2
1016.6025	2898.9145	1045.4	166.75
1016.7184	2900.0355	1040.2	161.35
1016.8342	2901.1559	1040.5	160.7
1016.95	2902.2756	1043.05	159.25
1017.0658	2903.3946	1040.8	164.8
1017.1815	2904.513	1041.85	159.75
1017.2971	2905.6308	1038.75	160
1017.4127	2906.7479	1041.45	162.2
1017.5283	2907.8643	1041.65	162.65
1017.6439	2908.9801	1043.05	164.05
1017.7594	2910.0953	1037.4	157.55
1017.8748	2911.2098	1044.85	164.25
1017.9902	2912.3236	1047.4	160.65
1018.1056	2913.4368	1039.05	158.45
1018.2209	2914.5494	1034.5	155.15
1018.3362	2915.6613	1037.45	152.1
1018.4515	2916.7725	1038.75	157.75
1018.5667	2917.8831	1030.8	152.1
1018.6819	2918.9931	1030.8	149.3
1018.797	2920.1024	1029.7	151.65
1018.9121	2921.211	1024.2	146.6
1019.0271	2922.319	1021.25	143
1019.1421	2923.4264	1022.95	143
1019.2571	2924.5331	1020.5	143.35
1019.372	2925.6391	1017.55	141.55
1019.4869	2926.7445	1017.95	138
1019.6017	2927.8493	1022.25	141.95
1019.7165	2928.9534	1026.45	146.4
1019.8313	2930.0569	1024.5	144.75
1019.946	2931.1597	1025.15	143.95
1020.0606	2932.2619	1030.25	153.25
1020.1753	2933.3634	1027.2	148.4
1020.2899	2934.4643	1031.8	146.1
1020.4044	2935.5645	1033.2	147.15
1020.5189	2936.6641	1034.15	152.15
1020.6334	2937.763	1028.35	150.6
1020.7478	2938.8613	1028.95	149.5
1020.8622	2939.959	1028.7	143.65
1020.9765	2941.056	1022.8	145.75
1021.0908	2942.1523	1018.45	138.85
1021.2051	2943.248	1012.3	134.25
1021.3193	2944.3431	1007.35	128.4
1021.4334	2945.4375	995.55	117.2
1021.5476	2946.5313	988.1	110.95
1021.6617	2947.6244	985.05	106.7
1021.7757	2948.7169	982.75	103.7
1021.8897	2949.8087	975.9	96.8
1022.0037	2950.8999	971.8	94.75
1022.1176	2951.9904	965.7	87.8
1022.2315	2953.0803	961.6	83.8
1022.3453	2954.1696	958.2	80.15
1022.4591	2955.2582	954.95	76.55
1022.5728	2956.3462	953.2	75.85
1022.6865	2957.4335	951	72.6
1022.8002	2958.5202	952.85	72.85
1022.9138	2959.6062	950.4	72.25
1023.0274	2960.6916	951.15	72.4
1023.141	2961.7764	949.3	70.45
1023.2545	2962.8605	950.9	71.6
1023.3679	2963.9439	949.85	73.1
1023.4813	2965.0267	948.6	68.55
1023.5947	2966.1089	972.45	72.1
1023.708	2967.1905	948.5	72.25
1023.8213	2968.2714	946.75	69.1
1023.9346	2969.3516	946.6	68.2
1024.0478	2970.4312	955.6	71.65
1024.1609	2971.5102	948.55	71.9
1024.274	2972.5885	949.8	72.15
1024.3871	2973.6662	951.15	69.15
1024.5002	2974.7432	948.9	71.05
1024.6132	2975.8196	952.8	74.6
1024.7261	2976.8954	949.9	71.15
1024.839	2977.9705	949.15	74.2
1024.9519	2979.045	948.9	71.05
1025.0647	2980.1188	947.5	70.6
1025.1775	2981.192	946	69.35
1025.2902	2982.2645	949.25	71.75
1025.4029	2983.3364	945.95	68.65
1025.5156	2984.4077	942.4	63.8
1025.6282	2985.4783	945.7	62.35
1025.7407	2986.5483	936.6	60.65
1025.8532	2987.6177	936	58.55
1025.9657	2988.6864	936.7	58.65
1026.0782	2989.7545	932.95	52.65
1026.1906	2990.8219	929.85	52.8
1026.3029	2991.8887	929.2	50.25
1026.4152	2992.9548	926.5	49.7
1026.5275	2994.0204	923.7	47.7
1026.6397	2995.0852	918.05	40.75
1026.7519	2996.1495	920.15	41.25
1026.864	2997.2131	918.25	40.7
1026.9761	2998.276	916.85	38.6
1027.0882	2999.3383	916.1	37.45
1027.2002	3000.4	913.4	35.1
1027.3122	3001.4611	910.55	31.85
1027.4241	3002.5215	910.7	32.45
1027.536	3003.5812	906.8	28.45
1027.6478	3004.6404	908.8	30.95
1027.7596	3005.6989	910.15	30.9
1027.8714	3006.7567	904.7	26
1027.9831	3007.8139	937.35	28.05
1028.0947	3008.8705	905.95	29.45
1028.2064	3009.9264	907.75	26
1028.3179	3010.9818	903.5	26.9
1028.4295	3012.0364	902.9	23.45
1028.541	3013.0905	904.1	26
1028.6524	3014.1439	900.5	21.9
1028.7638	3015.1966	901.75	25.2
1028.8752	3016.2487	901.05	24.55
1028.9865	3017.3002	907.6	23.6
1029.0978	3018.3511	898.9	23.3
1029.209	3019.4013	902.3	23.05
1029.3202	3020.4509	899.85	22.55
1029.4314	3021.4998	901.1	21.05
1029.5425	3022.5481	903.05	26
1029.6535	3023.5958	898.35	20.7
1029.7645	3024.6428	902.35	23.5
1029.8755	3025.6892	898.25	20.95
1029.9864	3026.735	896.8	20.4
1030.0973	3027.7802	897.7	21.15
1030.2082	3028.8247	898.8	21.45
1030.319	3029.8685	900.9	21.85
1030.4297	3030.9118	901.65	24.55
1030.5404	3031.9544	898.6	21.15
1030.6511	3032.9963	899.4	22.15
1030.7617	3034.0376	899.7	21.65
1030.8723	3035.0783	902.5	22.7
1030.9829	3036.1184	901.45	23
1031.0934	3037.1578	898.05	22
1031.2038	3038.1966	900.1	19.85
1031.3142	3039.2348	898.1	22.15
1031.4246	3040.2723	907.85	22.1
1031.5349	3041.3092	899.45	23
1031.6452	3042.3455	901.85	23.45
1031.7554	3043.3811	900.75	22.8
1031.8656	3044.4161	901.05	23.65
1031.9758	3045.4505	898.15	20.55
1032.0859	3046.4842	901.3	23.8
1032.1959	3047.5173	897.45	22.95
1032.3059	3048.5498	900.65	23.3
1032.4159	3049.5816	899.65	22.15
1032.5258	3050.6128	901.25	22.6
1032.6357	3051.6434	899.85	20.25
1032.7455	3052.6734	900.55	23.15
1032.8553	3053.7027	900.55	22.55
1032.9651	3054.7314	901.7	24.7
1033.0748	3055.7594	898.3	21.1
1033.1845	3056.7868	900	22.35
1033.2941	3057.8136	899	22
1033.4037	3058.8398	900.5	22.95
1033.5132	3059.8653	902.65	24
1033.6227	3060.8902	902.75	28.4
1033.7321	3061.9145	900.55	23.25
1033.8415	3062.9381	901.25	24.5
1033.9509	3063.9612	916.75	23.95
1034.0602	3064.9835	899.35	21.3
1034.1694	3066.0053	902.45	22.7
1034.2787	3067.0264	899.35	21.3
1034.3878	3068.0469	902.75	24.05
1034.497	3069.0668	903.25	24.9
1034.6061	3070.086	899.95	23.75
1034.7151	3071.1046	901.1	23.65
1034.8241	3072.1226	900.85	23.25
1034.9331	3073.1399	900.3	24.55
1035.042	3074.1567	901.25	23.85
1035.1508	3075.1727	901	23.25
1035.2597	3076.1882	897.35	19.15
1035.3684	3077.203	899.2	22.85
1035.4772	3078.2173	902.2	25.6
1035.5859	3079.2308	899.8	20.05
1035.6945	3080.2438	898.65	19.45
1035.8031	3081.2561	896.6	18.95
1035.9117	3082.2678	896.5	19.25
1036.0202	3083.2789	894.95	18.3
1036.1286	3084.2893	895.55	17.15
1036.2371	3085.2991	896.55	19.95
1036.3454	3086.3083	899.45	17.8
1036.4538	3087.3169	896.7	20.15
1036.562	3088.3248	894.6	15.55
1036.6703	3089.3321	895.4	17.8
1036.7785	3090.3388	892.05	15.45
1036.8866	3091.3449	894.15	17
1036.9948	3092.3503	896.4	15.85
1037.1028	3093.3551	891.1	15.8
1037.2108	3094.3593	890.9	15.55
1037.3188	3095.3629	892.05	17.9
1037.4267	3096.3658	891.9	13.1
1037.5346	3097.3681	890.65	14.75
1037.6425	3098.3698	894.65	16.4
1037.7503	3099.3708	892.5	17.45
1037.858	3100.3713	890.5	13
1037.9657	3101.3711	892.2	15.6
1038.0734	3102.3702	1027.15	14.3
1038.181	3103.3688	893.95	16.1
1038.2886	3104.3667	889.9	14.7
1038.3961	3105.364	889.05	13.75
1038.5036	3106.3607	892.1	12.9
1038.611	3107.3568	892.25	11.35
1038.7184	3108.3522	890.35	14.35
1038.8257	3109.347	890.95	12.2
1038.933	3110.3412	891.9	14.55
1039.0403	3111.3348	887.85	11.5
1039.1475	3112.3277	891.35	15.2
1039.2547	3113.32	888.2	12.5
1039.3618	3114.3117	890.95	13.05
1039.4689	3115.3028	889.15	13.35
1039.5759	3116.2932	888.8	10.8
1039.6829	3117.2831	894	10.9
1039.7898	3118.2723	888.25	9.75
1039.8967	3119.2608	888.45	12
1040.0035	3120.2488	889.65	11.95
1040.1103	3121.2361	885.95	9.4
1040.2171	3122.2229	886.6	9.95
1040.3238	3123.209	890	14.75
1040.4305	3124.1944	888.55	12.2
1040.5371	3125.1793	889.9	11.7
1040.6437	3126.1635	885.4	8.4
1040.7502	3127.1471	886.4	10.85
1040.8567	3128.1301	886.65	11.2
1040.9631	3129.1125	888.55	10.5
1041.0695	3130.0942	886.05	9.85
1041.1759	3131.0753	896.7	10.45
1041.2822	3132.0558	889.75	10.6
1041.3884	3133.0357	887.35	8.55
1041.4946	3134.015	887.3	7.95
1041.6008	3134.9936	887.55	9.7
1041.7069	3135.9716	909	12.6
1041.813	3136.949	886.7	10.9
1041.919	3137.9258	904.75	8.3
1042.025	3138.902	891	11.05
1042.1309	3139.8775	885.55	9.2
1042.2368	3140.8524	885.9	7.55
1042.3427	3141.8267	887.25	9.65
1042.4485	3142.8004	886.05	8.8
1042.5542	3143.7735	893.5	8.8
1042.6599	3144.7459	887.35	6.75
1042.7656	3145.7178	886.8	8.75
1042.8712	3146.689	884.9	9.8
1042.9768	3147.6596	885.55	6.85
1043.0823	3148.6295	886.6	10.35
1043.1878	3149.5989	884.75	8.9
1043.2932	3150.5676	885.6	10.4
1043.3986	3151.5357	884.95	8.95
1043.5039	3152.5032	886.55	9.2
1043.6092	3153.4701	886.25	10.85
1043.7145	3154.4364	887.6	8.95
1043.8197	3155.402	886.2	9.9
1043.9248	3156.367	886.2	10
1044.03	3157.3315	925.7	6.25
1044.135	3158.2952	885.85	11.55
1044.24	3159.2584	883.7	7.55
1044.345	3160.221	885.75	8.15
1044.4499	3161.1829	886.1	9.25
1044.5548	3162.1442	884.3	7.65
1044.6596	3163.105	883.95	6.1
1044.7644	3164.065	885.25	8.1
1044.8692	3165.0245	885.25	5.85
1044.9739	3165.9834	883.6	9.1
1045.0785	3166.9416	882.75	6.45
1045.1831	3167.8993	886.85	8.2
1045.2877	3168.8563	883.05	6.7
1045.3922	3169.8127	884.1	7
1045.4966	3170.7684	884.55	8.2
1045.6011	3171.7236	885.1	8.55
1045.7054	3172.6782	887.45	11.25
1045.8098	3173.6321	885.35	8.75
1045.914	3174.5854	889.7	10.55
1046.0183	3175.5381	882.9	6.25
1046.1224	3176.4902	883.8	7.75
1046.2266	3177.4417	881.2	4.6
1046.3307	3178.3926	883.3	7.85
1046.4347	3179.3428	882.6	7.85
1046.5387	3180.2924	884.55	10.6
1046.6427	3181.2415	884.7	8.2
1046.7466	3182.1899	884.8	6.3
1046.8504	3183.1377	884.55	8.1
1046.9542	3184.0848	887.55	6.75
1047.058	3185.0314	887.15	11.5
1047.1617	3185.9773	882.6	3.25
1047.2654	3186.9227	883.1	6.45
1047.369	3187.8674	884	7
1047.4726	3188.8115	888.1	7.85
1047.5761	3189.755	884.8	8.05
1047.6796	3190.6979	882.15	6.2
1047.783	3191.6402	882.6	6.45
1047.8864	3192.5818	882.9	7.1
1047.9898	3193.5229	895.6	3.6
1048.0931	3194.4633	882.9	6.4
1048.1963	3195.4031	884.4	8.1
1048.2995	3196.3423	882.2	6.7
1048.4027	3197.2809	884.75	9
1048.5058	3198.2189	883.65	5.9
1048.6089	3199.1563	889.95	6.3
1048.7119	3200.0931	882.55	6.3
1048.8148	3201.0292	882.75	6.85
1048.9178	3201.9648	881.95	5.25
1049.0206	3202.8997	884.75	3.55
1049.1235	3203.834	881.3	5.25
1049.2262	3204.7677	881.75	6
1049.329	3205.7008	885.2	7.2
1049.4317	3206.6333	881.35	7.4
1049.5343	3207.5652	883.9	5.55
1049.6369	3208.4964	880.65	3.55
1049.7394	3209.4271	879.95	5.75
1049.8419	3210.3571	882.05	5.2
1049.9444	3211.2865	883	6.75
1050.0468	3212.2154	881.85	2.8
1050.1491	3213.1436	885.05	5.2
1050.2514	3214.0712	890.65	8.55
1050.3537	3214.9982	880.7	4.7
1050.4559	3215.9246	884.7	8.25
1050.5581	3216.8503	882.2	6.4
1050.6602	3217.7755	880.55	2.1
1050.7623	3218.7001	879.5	4.45
1050.8643	3219.624	879.85	2.4
1050.9663	3220.5473	883.8	6.4
1051.0682	3221.4701	881.5	4.6
1051.1701	3222.3922	883	3.2
1051.2719	3223.3137	882.1	5.45
1051.3737	3224.2346	883.35	6.75
1051.4754	3225.1549	880.3	4
1051.5771	3226.0746	881.5	5.2
1051.6788	3226.9937	881	4
1051.7804	3227.9121	879.6	3.1
1051.8819	3228.83	880.9	6.45
1051.9834	3229.7473	881.35	5.4
1052.0849	3230.6639	881.65	5.45
1052.1863	3231.5799	879.85	3.5
1052.2876	3232.4954	882	4.3
1052.3889	3233.4102	881.9	5.75
1052.4902	3234.3244	881.8	5.8
1052.5914	3235.238	881.45	3.3
1052.6926	3236.151	904.15	4.3
1052.7937	3237.0634	880.35	4.95
1052.8948	3237.9752	882	5.1
1052.9958	3238.8864	882.2	3.95
1053.0968	3239.797	881.35	6
1053.1977	3240.7069	880	1.25
1053.2986	3241.6163	882.35	5.15
1053.3994	3242.5251	878.95	3.6
1053.5002	3243.4332	878.6	2.95
1053.6009	3244.3408	880.4	4.65
1053.7016	3245.2477	881.15	5.75
1053.8022	3246.154	882	4.9
1053.9028	3247.0598	883.05	6
1054.0034	3247.9649	880.05	2.45
1054.1039	3248.8694	882.15	6.85
1054.2043	3249.7733	881.75	8.15
1054.3047	3250.6766	882.45	6.15
1054.4051	3251.5793	881.15	3.35
1054.5054	3252.4814	879.2	1.35
1054.6056	3253.3829	880	4.35
1054.7058	3254.2838	882.65	4.9
1054.806	3255.1841	881.5	4.55
1054.9061	3256.0838	878.85	2.95
1055.0061	3256.9829	879.85	5.6
1055.1062	3257.8814	881.1	1.15
1055.2061	3258.7792	879.9	0.1
1055.306	3259.6765	880.3	3.65
1055.4059	3260.5731	880	5.5
1055.5057	3261.4692	879.6	3.1
1055.6055	3262.3647	881.65	5.9
1055.7052	3263.2595	878.85	3.75
1055.8049	3264.1538	879.65	4.65
1055.9045	3265.0474	881.25	3.15
1056.0041	3265.9404	879.15	2.5
1056.1036	3266.8329	879.25	6.05
1056.2031	3267.7247	889.45	2.6
1056.3025	3268.616	878.75	4.65
1056.4019	3269.5066	879.85	3.95
1056.5013	3270.3966	880.35	1.25
1056.6005	3271.286	878.7	5.1
