Software Version:	3.9.2.0
Unit SN:	10000200
Spectrometer SN:	6960
Date:	3/8/2024 12:43:10 PM
Data Line Index:	25
Spectral Points:	2048
Integration time (ms):	125
Averages:	20
Delay (ms):	30000
Sequence Number:	1
Processing:	dark subtract
Laser Power (mW):	300
Laser Current (mA):	822
Laser Diode Temp (C):	25.1
Laser Case Temp (C):	26.1
System Temp (C):	26.1
Spectrometer Temp (C):	24
CCD Temp (C):	0.007
Secondary Temp (C):	20.01
Heatsink Temp (C):	21.081
CCDPCB Temp (C):	36.007
SecondaryPCB Temp (C):	29.715

Wavelength	RamanShift	Raw Counts	Dark Subtracted
787.061	30.1047	453.2	44.45
787.2016	32.3739	455.15	48.5
787.3422	34.6426	459.35	50.7
787.4828	36.9109	463.9	53.1
787.6235	39.1787	474.5	61.35
787.7642	41.4461	482.6	62.7
787.9049	43.7131	493.8	73.15
788.0456	45.9796	501.5	77.6
788.1863	48.2456	509.2	81.85
788.3271	50.5112	517.95	85
788.4679	52.7764	526.55	91.2
788.6087	55.0411	538.45	98.85
788.7496	57.3054	548.85	103.1
788.8904	59.5692	557.25	108.2
789.0313	61.8326	565.7	115.2
789.1722	64.0955	582.25	130.2
789.3132	66.3579	599	141.2
789.4541	68.6199	616.05	154.4
789.5951	70.8815	654.8	188.7
789.7361	73.1426	737.05	267.15
789.8771	75.4032	948.85	472.6
790.0181	77.6634	1471.8	990.2
790.1592	79.9231	2695.55	2204.45
790.3003	82.1824	5338.8	4829.15
790.4414	84.4412	10073.4	9529.8
790.5825	86.6995	16514.6	15919.75
790.7237	88.9574	22748.5	22118.05
790.8648	91.2148	26889.55	26227.9
791.006	93.4717	28712.85	28037
791.1472	95.7282	28906.4	28222.5
791.2885	97.9842	28581.25	27892.1
791.4297	100.2398	27815.15	27124.4
791.571	102.4949	26960.9	26268.55
791.7123	104.7495	25936	25238.4
791.8536	107.0036	25003.5	24307.75
791.9949	109.2573	24160.5	23464.9
792.1363	111.5105	23420.85	22723.35
792.2777	113.7632	22700.4	21995.05
792.4191	116.0154	22141.25	21427.35
792.5605	118.2672	21716.55	21009.45
792.7019	120.5185	21321.45	20615.75
792.8434	122.7693	20995.4	20283.2
792.9849	125.0197	20751.65	20038.45
793.1264	127.2696	20502.15	19784.85
793.2679	129.519	20294.75	19572.95
793.4094	131.7679	20016.9	19291.45
793.551	134.0163	19735.1	19007.2
793.6926	136.2642	19377.1	18648.2
793.8342	138.5117	18987.8	18243.8
793.9758	140.7587	18583.6	17847.75
794.1175	143.0052	18236.8	17497.55
794.2591	145.2512	17861.7	17121.8
794.4008	147.4967	17539.1	16802.8
794.5425	149.7417	17321.3	16580.15
794.6842	151.9863	17113.55	16366.9
794.826	154.2304	17042.65	16295.55
794.9677	156.4739	16804.9	16048.35
795.1095	158.717	16745.45	15991.05
795.2513	160.9596	16539.45	15778
795.3931	163.2017	16301.2	15539.25
795.535	165.4433	15989.55	15229.5
795.6768	167.6844	15653.2	14885.55
795.8187	169.925	15335.35	14572.4
795.9606	172.1651	15004.55	14236.95
796.1025	174.4047	14745.85	13974.85
796.2445	176.6439	14466.5	13694.3
796.3864	178.8825	14260.6	13482.35
796.5284	181.1206	14114.75	13330.75
796.6704	183.3582	14001.9	13212.25
796.8124	185.5954	13916.75	13130.3
796.9544	187.832	13831.7	13041.1
797.0965	190.0681	13799.35	13003.65
797.2386	192.3037	13787.6	12989.5
797.3806	194.5388	13781.55	12979.75
797.5228	196.7734	13859.75	13054.9
797.6649	199.0075	13903.35	13095.2
797.807	201.2411	14019.6	13212.75
797.9492	203.4742	14107.95	13299
798.0914	205.7068	14268.95	13458.6
798.2336	207.9389	14393	13577.1
798.3758	210.1704	14533.3	13723.4
798.518	212.4015	14639.4	13846.7
798.6603	214.632	14780.8	13992.1
798.8025	216.862	14913.35	14123.45
798.9448	219.0915	15004.45	14212.55
799.0871	221.3205	15099.1	14303.75
799.2294	223.549	15213.2	14424.3
799.3718	225.777	15269.5	14479.1
799.5141	228.0044	15389.15	14593
799.6565	230.2314	15544.2	14744.95
799.7989	232.4578	15619.8	14824.85
799.9413	234.6837	15738.9	14934.8
800.0837	236.909	15806.1	14992.55
800.2262	239.1339	15786.45	14951.95
800.3687	241.3582	15729.2	14907.2
800.5111	243.582	15634.6	14785.55
800.6536	245.8053	15573.65	14737.6
800.7961	248.0281	15534	14707.9
800.9387	250.2503	15519.9	14685.35
801.0812	252.472	15551.25	14716.2
801.2238	254.6932	15673.9	14839.1
801.3664	256.9139	15795.15	14955.85
801.509	259.134	16008.05	15160.8
801.6516	261.3536	16256.8	15414.5
801.7942	263.5727	16560.55	15716.15
801.9369	265.7912	16862.6	16019.75
802.0795	268.0092	17184.5	16339.05
802.2222	270.2267	17398.1	16557.1
802.3649	272.4436	17506.8	16663.5
802.5076	274.6601	17507.35	16652.35
802.6504	276.8759	17428.9	16583.3
802.7931	279.0913	17346.75	16499.1
802.9359	281.3061	17205.25	16353.95
803.0787	283.5204	17183.8	16327.75
803.2215	285.7341	17150.95	16292.95
803.3643	287.9473	17171.75	16299.05
803.5071	290.16	17213.1	16354.95
803.6499	292.3721	17304	16444.2
803.7928	294.5837	17485.55	16625.3
803.9357	296.7947	17700.25	16842.15
804.0786	299.0052	17891	17034.35
804.2215	301.2152	17838.6	16979.65
804.3644	303.4246	17704.1	16845.7
804.5074	305.6334	17339	16484.45
804.6503	307.8418	16939.4	16081.1
804.7933	310.0495	16531.05	15666.4
804.9363	312.2568	16110.4	15249.05
805.0793	314.4635	15678.85	14812.9
805.2223	316.6696	15405.55	14537.4
805.3653	318.8752	15182.55	14302.65
805.5084	321.0802	15096.65	14224.3
805.6514	323.2847	15087.3	14213.2
805.7945	325.4887	15115.75	14241.05
805.9376	327.692	15078.35	14203.1
806.0807	329.8949	15070.35	14195.5
806.2238	332.0972	14881.5	14009.25
806.367	334.2989	14694.35	13812.8
806.5101	336.5001	14451	13574.2
806.6533	338.7007	14215.85	13336.95
806.7965	340.9008	14085.2	13207.05
806.9397	343.1003	13883.1	12999.6
807.0829	345.2992	13781.65	12899.15
807.2261	347.4976	13674.85	12787.7
807.3693	349.6955	13602.15	12708.6
807.5126	351.8927	13585	12696.5
807.6559	354.0895	13525.6	12626.75
807.7991	356.2856	13472.25	12578.75
807.9424	358.4812	13424.95	12535.4
808.0857	360.6763	13416.45	12527.5
808.2291	362.8707	13393.3	12499.15
808.3724	365.0646	13437.1	12542.2
808.5158	367.258	13492.7	12594.35
808.6591	369.4508	13570	12669.5
808.8025	371.643	13693.7	12792.75
808.9459	373.8346	13780.95	12879.1
809.0893	376.0257	13842.45	12937.6
809.2327	378.2162	13856.9	12955.7
809.3762	380.4062	13900.85	13002.7
809.5196	382.5956	13782.9	12882.7
809.6631	384.7844	13655.25	12758.1
809.8066	386.9726	13529.85	12639.35
809.9501	389.1603	13433.55	12544.2
810.0936	391.3474	13412.3	12489.45
810.2371	393.5339	13349.6	12451.55
810.3806	395.7199	13312.1	12416.95
810.5241	397.9052	13352.1	12460.25
810.6677	400.09	13467.8	12576.05
810.8113	402.2743	13595.3	12701.95
810.9548	404.4579	13763	12868.85
811.0984	406.641	13969.4	13076.9
811.2421	408.8235	14145.95	13251.55
811.3857	411.0054	14286	13384.7
811.5293	413.1868	14434.25	13524.7
811.673	415.3675	14485.2	13578.45
811.8166	417.5477	14473.7	13565.85
811.9603	419.7273	14435.25	13526.15
812.104	421.9064	14349.2	13437.2
812.2477	424.0848	14298.45	13390.15
812.3914	426.2627	14174.35	13266.05
812.5351	428.4399	13915.4	13010.05
812.6788	430.6166	13618.7	12707.35
812.8226	432.7928	13269	12354.1
812.9663	434.9683	12961.25	12051.55
813.1101	437.1432	12740.25	11830.85
813.2539	439.3176	12577.35	11675.15
813.3977	441.4914	12485.8	11588.65
813.5415	443.6645	12404.2	11501.15
813.6853	445.8371	12369.1	11459.65
813.8291	448.0091	12327.1	11416.6
813.973	450.1806	12319.4	11412.75
814.1168	452.3514	12290.8	11385.4
814.2607	454.5216	12318.75	11400.65
814.4046	456.6913	12302.5	11395.8
814.5485	458.8603	12366.4	11461.25
814.6924	461.0288	12399.5	11496.95
814.8363	463.1967	12380.75	11484.4
814.9802	465.3639	12421.1	11522.6
815.1241	467.5306	12390.5	11488.05
815.2681	469.6967	12387.3	11487.95
815.412	471.8622	12438.45	11539.1
815.556	474.0271	12460.4	11555.85
815.7	476.1914	12504.5	11590.35
815.844	478.3551	12500.15	11590.85
815.988	480.5182	12561.9	11657.15
816.132	482.6807	12620.85	11722.3
816.276	484.8426	12826.2	11933.35
816.4201	487.0039	13182.6	12288.3
816.5641	489.1647	13531.7	12622.55
816.7082	491.3248	13878.3	12969.4
816.8522	493.4843	13981.55	13078.55
816.9963	495.6432	13947.65	13042.05
817.1404	497.8015	13818.9	12904.45
817.2845	499.9592	13673	12751.4
817.4286	502.1163	13494.3	12570.4
817.5727	504.2728	13164.2	12253.9
817.7168	506.4287	12868.6	11967.05
817.861	508.5839	12570.2	11669.05
818.0051	510.7386	12354.05	11442.85
818.1493	512.8927	12269	11350.2
818.2935	515.0461	12264	11351.65
818.4377	517.199	12349.8	11434.05
818.5818	519.3512	12535.45	11615
818.726	521.5029	12816.25	11894.2
818.8703	523.6539	13042.7	12127.9
819.0145	525.8043	13178	12257.1
819.1587	527.9541	13100.9	12175.55
819.303	530.1033	12928.3	12008.75
819.4472	532.2519	12767.7	11847.95
819.5915	534.3999	12677.4	11756.35
819.7357	536.5472	12719.8	11805.7
819.88	538.694	12883.85	11967.3
820.0243	540.8401	13162.5	12234.7
820.1686	542.9856	13383.55	12450.25
820.3129	545.1305	13438.15	12496.95
820.4572	547.2748	13339.55	12400.15
820.6016	549.4185	13173.3	12231.3
820.7459	551.5615	13064.9	12123.85
820.8902	553.704	13076.4	12140.6
821.0346	555.8458	13141.5	12209.1
821.1789	557.987	13327.95	12397.65
821.3233	560.1276	13551.15	12621.6
821.4677	562.2675	13994.35	13065.05
821.6121	564.4069	14529.45	13598.25
821.7565	566.5456	14973.3	14043.15
821.9009	568.6837	15135	14210.5
822.0453	570.8212	14730.7	13802.9
822.1897	572.958	14049.75	13121.1
822.3342	575.0942	13394.4	12470.25
822.4786	577.2299	12896.1	11975.85
822.6231	579.3648	12671.3	11768.85
822.7675	581.4992	12622.5	11726.35
822.912	583.6329	12699.8	11804.85
823.0565	585.766	12866	11965.2
823.201	587.8985	13020.8	12111.25
823.3454	590.0304	13100.9	12154.3
823.4899	592.1616	13019.55	12086
823.6345	594.2922	12923.25	11987.8
823.779	596.4222	12725.1	11790.7
823.9235	598.5515	12513.15	11576.4
824.068	600.6802	12372.4	11435.15
824.2126	602.8083	12205.9	11273.35
824.3571	604.9358	12156.35	11218.1
824.5017	607.0626	12174.35	11237.75
824.6462	609.1888	12289.35	11343.2
824.7908	611.3144	12446.4	11504
824.9354	613.4393	12606.7	11662.7
825.08	615.5636	12701.15	11760.05
825.2246	617.6873	12740.8	11799.85
825.3692	619.8103	12675.4	11733.8
825.5138	621.9327	12453.35	11515
825.6584	624.0544	12245.55	11314.45
825.803	626.1756	12052	11116.5
825.9477	628.2961	11890.75	10949.3
826.0923	630.4159	11820.05	10882.6
826.237	632.5351	11787	10842.25
826.3816	634.6537	11770.4	10823.95
826.5263	636.7716	11800.2	10849.1
826.6709	638.8889	11797.9	10845
826.8156	641.0056	11820.5	10871.35
826.9603	643.1216	11793.85	10843.8
827.105	645.237	11783.1	10835.75
827.2497	647.3518	11665.9	10729.25
827.3944	649.4659	11575.8	10644.45
827.5391	651.5793	11541.55	10607.8
827.6838	653.6922	11509.4	10577.6
827.8285	655.8043	11481.7	10545.55
827.9733	657.9159	11520.8	10582.95
828.118	660.0268	11477.35	10542.9
828.2627	662.137	11487.35	10545.25
828.4075	664.2466	11505.45	10554.7
828.5522	666.3556	11486.2	10537.95
828.697	668.4639	11422.45	10482.6
828.8418	670.5716	11373.25	10439.55
828.9865	672.6786	11350.75	10412.15
829.1313	674.785	11311.45	10361.9
829.2761	676.8907	11262.5	10320.7
829.4209	678.9958	11249.45	10310.85
829.5657	681.1002	11246.5	10300.3
829.7105	683.204	11259.05	10302.25
829.8553	685.3072	11223.75	10272.1
830.0001	687.4097	11206.05	10257.45
830.1449	689.5115	11205.1	10255.75
830.2898	691.6127	11165.15	10218.55
830.4346	693.7132	11170.95	10229.25
830.5794	695.8131	11203.45	10244.05
830.7243	697.9123	11198.95	10246.2
830.8691	700.0109	11243.45	10288.35
831.014	702.1089	11294.05	10344.15
831.1588	704.2061	11342.8	10395.4
831.3037	706.3028	11393.75	10444.3
831.4486	708.3987	11428.55	10479.2
831.5935	710.4941	11458.75	10512.25
831.7383	712.5887	11515.8	10564.95
831.8832	714.6827	11586.2	10636.7
832.0281	716.7761	11702.4	10757.25
832.173	718.8688	11833.05	10887.9
832.3179	720.9608	11991.45	11031.05
832.4628	723.0522	12121.7	11159.65
832.6077	725.1429	12193.6	11234.5
832.7527	727.233	12289.65	11333.1
832.8976	729.3224	12347.05	11392.4
833.0425	731.4112	12286.15	11332.85
833.1874	733.4993	12153.5	11200.4
833.3324	735.5867	11933.1	10977.55
833.4773	737.6735	11716.6	10762.75
833.6222	739.7596	11507.6	10555.2
833.7672	741.845	11368.6	10415.3
833.9122	743.9298	11256.85	10306.95
834.0571	746.014	11236.25	10285.1
834.2021	748.0974	11220.3	10262.25
834.347	750.1802	11224.5	10264.05
834.492	752.2624	11226.5	10270
834.637	754.3439	11294.35	10332.55
834.782	756.4247	11417.1	10452.75
834.9269	758.5048	11565.8	10604.3
835.0719	760.5843	11857.25	10894.5
835.2169	762.6631	12247.85	11286.75
835.3619	764.7413	12831.05	11877.05
835.5069	766.8188	13571.45	12611.75
835.6519	768.8956	14143.75	13182.85
835.7969	770.9718	14547.2	13590.7
835.9419	773.0473	14486.15	13528.7
836.0869	775.1221	14255.45	13299.5
836.232	777.1962	13969.3	13008.75
836.377	779.2697	13914.95	12950.9
836.522	781.3426	13968.2	12995.2
836.667	783.4147	14065.95	13105.65
836.8121	785.4862	14122.3	13163.6
836.9571	787.557	13947.25	12982
837.1021	789.6271	13447.1	12483.55
837.2472	791.6966	12833.25	11870.5
837.3922	793.7654	12195.75	11237.3
837.5373	795.8335	11770.45	10809.05
837.6823	797.901	11470.25	10507.35
837.8274	799.9678	11292.25	10329.1
837.9724	802.0339	11207.95	10247.15
838.1175	804.0993	11164.2	10189.05
838.2626	806.1641	11073.2	10108.75
838.4076	808.2282	11002.35	10042.25
838.5527	810.2916	10922.75	9961.7
838.6978	812.3544	10849.6	9889.6
838.8428	814.4164	10803	9844
838.9879	816.4778	10836.3	9871.3
839.133	818.5385	10884.5	9918.65
839.2781	820.5986	11030.8	10064
839.4232	822.658	11262.45	10297.15
839.5682	824.7166	11600.9	10634.6
839.7133	826.7747	12168.25	11203.6
839.8584	828.832	12697	11734.7
840.0035	830.8886	13117.3	12151.85
840.1486	832.9446	13310.2	12340.8
840.2937	834.9999	13184.15	12219.95
840.4388	837.0545	12871.95	11903.45
840.5839	839.1085	12503.1	11537.45
840.729	841.1618	12150.1	11181.95
840.8741	843.2143	11916.9	10952.1
841.0192	845.2662	11671.25	10707.7
841.1643	847.3175	11510.55	10542.5
841.3095	849.368	11409.4	10443.7
841.4546	851.4179	11296.35	10327.65
841.5997	853.467	11222.6	10254.7
841.7448	855.5155	11168.25	10202.2
841.8899	857.5633	11070.3	10107.85
842.0351	859.6105	10965.2	10000.4
842.1802	861.6569	10932	9968.3
842.3253	863.7027	10831.1	9860.25
842.4704	865.7478	10785.7	9810.8
842.6156	867.7922	10750.15	9782.2
842.7607	869.8359	10707.05	9738.7
842.9058	871.8789	10731.75	9760.55
843.0509	873.9212	10842.95	9842.95
843.1961	875.9629	10861.8	9892.15
843.3412	878.0039	11003.4	10032.45
843.4863	880.0441	11102.85	10136.1
843.6315	882.0837	11172.35	10203.2
843.7766	884.1226	11189.15	10215.85
843.9218	886.1609	11257.65	10291.25
844.0669	888.1984	11345.9	10380.3
844.212	890.2352	11482.1	10512.45
844.3572	892.2714	11541.7	10567.9
844.5023	894.3069	11477.45	10507.85
844.6475	896.3416	11278.55	10310.5
844.7926	898.3757	11140.1	10167.05
844.9377	900.4091	11067.35	10097.7
845.0829	902.4418	11048.4	10074.6
845.228	904.4739	11065.9	10094.05
845.3732	906.5052	11124.55	10157.7
845.5183	908.5358	11077.9	10105.15
845.6635	910.5658	10966.95	9990.55
845.8086	912.595	10738.05	9765.3
845.9538	914.6236	10525.95	9553.5
846.0989	916.6515	10395.95	9426.35
846.2441	918.6786	10279.2	9307.35
846.3892	920.7051	10281.2	9310.7
846.5344	922.7309	10321.25	9349.95
846.6795	924.756	10339.65	9369.45
846.8246	926.7804	10420.7	9448.85
846.9698	928.8041	10406.25	9433.55
847.1149	930.8272	10504.3	9532.15
847.2601	932.8495	10457.8	9485
847.4052	934.8711	10429.1	9453
847.5504	936.892	10409.9	9438.75
847.6955	938.9123	10405.15	9431.25
847.8407	940.9318	10427.5	9456.85
847.9858	942.9506	10431.5	9460.25
848.131	944.9688	10393.8	9424.75
848.2761	946.9862	10274.3	9305.15
848.4213	949.003	10113.3	9135.55
848.5664	951.019	10019.7	9044.8
848.7115	953.0344	9960.2	8988.2
848.8567	955.0491	9928.95	8953.8
849.0018	957.063	9990.25	9019.65
849.147	959.0763	10070.5	9099.75
849.2921	961.0888	10075.3	9106.55
849.4373	963.1007	10135.05	9169.4
849.5824	965.1119	10126.75	9166.5
849.7275	967.1223	10130.7	9180.6
849.8727	969.1321	10093.25	9141
850.0178	971.1412	10092.05	9131.45
850.1629	973.1495	10098.15	9132.65
850.3081	975.1572	10099.15	9087.3
850.4532	977.1641	10131.3	9158.65
850.5983	979.1704	10119.1	9151.2
850.7435	981.1759	10085.3	9108.65
850.8886	983.1808	10073.2	9102
851.0337	985.1849	10081.7	9098.25
851.1788	987.1884	10160.25	9191.2
851.324	989.1911	10244.4	9274.6
851.4691	991.1932	10304.1	9335.15
851.6142	993.1945	10328.6	9361.05
851.7593	995.1951	10267.85	9297.25
851.9045	997.1951	10240.1	9262.85
852.0496	999.1943	10219.3	9249.4
852.1947	1001.1928	10206.55	9235
852.3398	1003.1906	10273.35	9300.4
852.4849	1005.1877	10368.05	9400.15
852.63	1007.1841	10451.65	9483.1
852.7751	1009.1798	10506.05	9537.6
852.9202	1011.1748	10436.85	9467.3
853.0653	1013.1691	10248.45	9279.6
853.2104	1015.1627	10069	9101.55
853.3555	1017.1556	9853.85	8890.9
853.5006	1019.1477	9752.15	8788.15
853.6457	1021.1392	9603.35	8645.6
853.7908	1023.1299	9582	8627.4
853.9359	1025.12	9590.7	8640.15
854.081	1027.1093	9625.8	8687.45
854.2261	1029.0979	9740.65	8807.3
854.3712	1031.0859	9853.9	8913.6
854.5163	1033.0731	9911.05	8958.7
854.6613	1035.0596	9882.2	8926.4
854.8064	1037.0454	9760.3	8799.55
854.9515	1039.0304	9666.6	8701.6
855.0965	1041.0148	9543.6	8578.1
855.2416	1042.9985	9441.45	8475.2
855.3867	1044.9814	9402.95	8440.6
855.5317	1046.9636	9339.15	8372.35
855.6768	1048.9452	9311.3	8349.1
855.8219	1050.926	9387.05	8422.15
855.9669	1052.9061	9411.25	8445.55
856.112	1054.8855	9395.15	8427.05
856.257	1056.8642	9484.1	8516.8
856.4021	1058.8421	9507.75	8538.1
856.5471	1060.8194	9556.45	8588.85
856.6921	1062.7959	9590.5	8621.7
856.8372	1064.7717	9660.55	8695.55
856.9822	1066.7469	9741.85	8773.9
857.1272	1068.7213	9841.2	8872.95
857.2723	1070.695	9867.5	8900.45
857.4173	1072.6679	9908.95	8944.5
857.5623	1074.6402	9943.6	8975.65
857.7073	1076.6117	9902	8927.35
857.8523	1078.5826	9813.55	8845.15
857.9973	1080.5527	9665.35	8698.05
858.1423	1082.5221	9563	8596.9
858.2873	1084.4908	9514.45	8551.2
858.4323	1086.4587	9503.85	8540.45
858.5773	1088.426	9544.1	8577.2
858.7223	1090.3925	9566.95	8599.15
858.8673	1092.3584	9587.45	8622
859.0123	1094.3235	9640.75	8677.2
859.1573	1096.2879	9704.45	8736.7
859.3022	1098.2515	9844.05	8880.75
859.4472	1100.2145	10034.75	9065.85
859.5922	1102.1767	10207.25	9237.85
859.7371	1104.1382	10444.45	9480.4
859.8821	1106.099	10717.95	9751.5
860.027	1108.0591	10938.45	9975.15
860.172	1110.0185	11098.35	10131.9
860.3169	1111.9771	11155.65	10189.55
860.4619	1113.9351	11093.2	10126.05
860.6068	1115.8923	10963.1	9998.2
860.7517	1117.8488	10824.9	9857.85
860.8967	1119.8045	10637.7	9674.35
861.0416	1121.7596	10507.3	9544.6
861.1865	1123.7139	10378	9418.2
861.3314	1125.6675	10314.4	9354
861.4763	1127.6204	10333	9369.65
861.6212	1129.5726	10278.1	9315.1
861.7661	1131.524	10198.45	9235.15
861.911	1133.4748	10050.1	9084.5
862.0559	1135.4248	9842.35	8880.9
862.2008	1137.3741	9703.2	8740.2
862.3457	1139.3226	9585.15	8622.3
862.4905	1141.2705	9525.45	8562.3
862.6354	1143.2176	9438.8	8468
862.7803	1145.164	9415.7	8451.55
862.9251	1147.1097	9324.8	8359.1
863.07	1149.0546	9235.4	8271.35
863.2148	1150.9989	9117	8150.45
863.3597	1152.9424	9048	8084.6
863.5045	1154.8852	8942.75	7983.6
863.6493	1156.8272	8907.25	7946.4
863.7942	1158.7686	8936.6	7962.7
863.939	1160.7092	8937.15	7976.05
864.0838	1162.6491	8994.45	8029.55
864.2286	1164.5883	9119.85	8154.85
864.3734	1166.5267	9229.25	8263.5
864.5182	1168.4644	9379.15	8416.15
864.663	1170.4014	9573.8	8609.75
864.8078	1172.3377	9853.2	8893
864.9526	1174.2732	10136.95	9179.15
865.0974	1176.2081	10568.2	9603.9
865.2421	1178.1421	11091.1	10126.4
865.3869	1180.0755	11652.5	10692.1
865.5317	1182.0082	12049.5	11089.95
865.6764	1183.9401	12224.65	11263.85
865.8212	1185.8713	12075.75	11123.7
865.9659	1187.8017	11725.1	10779.4
866.1106	1189.7315	11319.05	10382
866.2554	1191.6605	10880.75	9948
866.4001	1193.5888	10584.95	9641.45
866.5448	1195.5163	10429.5	9478.3
866.6895	1197.4432	10311.15	9354.15
866.8342	1199.3693	10297.6	9339.95
866.9789	1201.2947	10244.75	9276.15
867.1236	1203.2193	10225.9	9266
867.2683	1205.1432	10179.8	9220.6
867.413	1207.0664	10158.45	9202.75
867.5576	1208.9889	10136.85	9178.45
867.7023	1210.9106	10118.55	9162.4
867.847	1212.8316	10097.2	9140.8
867.9916	1214.7519	10127.5	9161.55
868.1363	1216.6715	10192.55	9234.65
868.2809	1218.5903	10258.55	9294.25
868.4255	1220.5084	10333.95	9373.15
868.5701	1222.4257	10455.5	9498.85
868.7148	1224.3424	10502.05	9546.05
868.8594	1226.2583	10626.95	9669.6
869.004	1228.1735	10807.9	9852.25
869.1486	1230.0879	10954.1	10000.85
869.2932	1232.0016	11148.7	10191.95
869.4377	1233.9146	11308.6	10349.3
869.5823	1235.8269	11363.7	10405.35
869.7269	1237.7384	11298.15	10343.7
869.8715	1239.6492	11203.1	10245.4
870.016	1241.5592	11191.7	10230.9
870.1606	1243.4686	11262.35	10303.8
870.3051	1245.3772	11453.95	10498.95
870.4496	1247.285	11703.3	10747.5
870.5941	1249.1922	11905.2	10948.55
870.7387	1251.0986	12122	11164.25
870.8832	1253.0042	12207.5	11251.7
871.0277	1254.9092	12320.15	11362.3
871.1722	1256.8134	12416.75	11463.25
871.3167	1258.7169	12575.6	11619.25
871.4611	1260.6196	12737.25	11782.6
871.6056	1262.5216	12965.3	12009.8
871.7501	1264.4229	13156.05	12201.05
871.8945	1266.3234	13390.15	12436.5
872.039	1268.2232	13482.15	12522.3
872.1834	1270.1223	13605.1	12649.3
872.3278	1272.0207	13620.2	12665.6
872.4723	1273.9183	13597.85	12635.25
872.6167	1275.8151	13515.35	12559.6
872.7611	1277.7113	13501.15	12548.7
872.9055	1279.6067	13605.75	12654.8
873.0499	1281.5014	13906.35	12954.7
873.1943	1283.3953	14323.5	13365.2
873.3386	1285.2885	14914.3	13961.55
873.483	1287.181	15491.45	14535.95
873.6274	1289.0727	16070.35	15119.65
873.7717	1290.9637	16424.05	15470.15
873.9161	1292.854	16661.95	15703.8
874.0604	1294.7435	16649.65	15694.6
874.2047	1296.6323	16521.4	15567.5
874.349	1298.5204	16288.9	15333.1
874.4933	1300.4077	16064.35	15109.6
874.6376	1302.2943	15782.25	14825.15
874.7819	1304.1802	15424.2	14470.05
874.9262	1306.0653	14894.05	13941.65
875.0705	1307.9497	14338.05	13383.85
875.2147	1309.8333	13892.05	12937.45
875.359	1311.7162	13540.15	12585.95
875.5032	1313.5984	13321.35	12364
875.6475	1315.4798	13177.75	12205.55
875.7917	1317.3605	13043.1	12082.7
875.9359	1319.2405	12897.65	11944
876.0801	1321.1197	12647.4	11690.25
876.2243	1322.9982	12300.45	11343.55
876.3685	1324.876	11977	11022.7
876.5127	1326.753	11629.6	10676.95
876.6569	1328.6293	11410.65	10454.5
876.801	1330.5048	11210.65	10251.75
876.9452	1332.3796	11022.35	10065.75
877.0893	1334.2537	10925.95	9945.05
877.2335	1336.127	10830.2	9877.65
877.3776	1337.9996	10783.35	9828.15
877.5217	1339.8714	10768.8	9812.15
877.6658	1341.7426	10808.55	9811.35
877.8099	1343.6129	10799.3	9839.35
877.954	1345.4826	10797.45	9838.75
878.0981	1347.3515	10815.25	9857.7
878.2422	1349.2196	10768	9811.35
878.3862	1351.087	10812.1	9857.3
878.5303	1352.9537	10847.5	9892.7
878.6743	1354.8197	10962.3	10006.8
878.8184	1356.6849	11132	10176.3
878.9624	1358.5493	11304.55	10350.75
879.1064	1360.4131	11487.3	10533.35
879.2504	1362.276	11645.95	10692.4
879.3944	1364.1383	11678.15	10722.95
879.5384	1365.9998	11500.9	10538.15
879.6823	1367.8606	11193	10234.9
879.8263	1369.7206	10826.55	9870.9
879.9702	1371.5799	10479.15	9520.7
880.1142	1373.4384	10181.05	9226.8
880.2581	1375.2962	9918.05	8962.35
880.402	1377.1533	9604	8652.9
880.5459	1379.0096	9259	8310.85
880.6898	1380.8652	8903.6	7958.6
880.8337	1382.7201	8616.3	7668.8
880.9776	1384.5742	8365.35	7415.85
881.1215	1386.4275	8169.65	7214.5
881.2653	1388.2802	8029.6	7079.3
881.4092	1390.132	7920.6	6969.3
881.553	1391.9832	7835.25	6879.25
881.6968	1393.8336	7754.2	6800.5
881.8406	1395.6832	7694.05	6740.65
881.9844	1397.5322	7659.65	6706
882.1282	1399.3803	7623.55	6667.75
882.272	1401.2278	7595.3	6645.55
882.4158	1403.0745	7594.05	6642.2
882.5595	1404.9204	7557.8	6610.7
882.7033	1406.7656	7575.65	6623.85
882.847	1408.6101	7586.55	6637.15
882.9908	1410.4538	7628.1	6675
883.1345	1412.2968	7662.1	6712.45
883.2782	1414.139	7688.35	6740.7
883.4219	1415.9805	7767.25	6817.45
883.5656	1417.8213	7847.45	6890.05
883.7092	1419.6613	7919.5	6969.6
883.8529	1421.5006	8087	7140.6
883.9965	1423.3391	8283.75	7333.75
884.1402	1425.1769	8545.25	7592.95
884.2838	1427.0139	8976.3	8027.5
884.4274	1428.8502	9488.55	8534.05
884.571	1430.6858	10023.35	9074.25
884.7146	1432.5206	10422.3	9475.45
884.8582	1434.3547	10628.75	9680.15
885.0018	1436.188	10671.15	9724.05
885.1453	1438.0206	10586.3	9636.35
885.2889	1439.8524	10394.5	9448.2
885.4324	1441.6835	10281	9329.45
885.5759	1443.5139	10209.75	9261.2
885.7194	1445.3435	10144.85	9196.95
885.8629	1447.1724	10104.85	9157.4
886.0064	1449.0005	10053.55	9105.5
886.1499	1450.8279	9981.35	9031.85
886.2933	1452.6545	9987.35	9041.75
886.4368	1454.4804	10036.9	9091.45
886.5802	1456.3056	10033.6	9081.55
886.7237	1458.13	9944	9001.1
886.8671	1459.9536	9775.4	8830.6
887.0105	1461.7766	9520	8573.85
887.1539	1463.5987	9217.05	8271.3
887.2972	1465.4202	8902.05	7955.4
887.4406	1467.2409	8554.75	7608.7
887.584	1469.0608	8317.45	7369.8
887.7273	1470.88	8019.05	7076.3
887.8706	1472.6984	7798.3	6854.3
888.0139	1474.5161	7588.5	6638.5
888.1572	1476.3331	7449.95	6502.2
888.3005	1478.1493	7347.9	6402.7
888.4438	1479.9648	7251.8	6307.35
888.5871	1481.7795	7193.3	6246.45
888.7303	1483.5935	7108.2	6159.4
888.8736	1485.4067	7065.75	6117.8
889.0168	1487.2192	7040.65	6094.35
889.16	1489.031	7013	6064.1
889.3032	1490.842	6952.6	6008.1
889.4464	1492.6522	6928.5	5983.75
889.5896	1494.4618	6896.25	5950.15
889.7327	1496.2705	6873.9	5929
889.8759	1498.0785	6829.15	5884.75
890.019	1499.8858	6779.05	5833.65
890.1622	1501.6924	6726.6	5780.75
890.3053	1503.4981	6693.9	5748.1
890.4484	1505.3032	6671.85	5726.55
890.5914	1507.1075	6609.2	5663.5
890.7345	1508.911	6545.6	5600.45
890.8776	1510.7138	6520.85	5578.45
891.0206	1512.5159	6471.9	5525.6
891.1637	1514.3172	6421.95	5478.35
891.3067	1516.1178	6360.4	5418.65
891.4497	1517.9176	6347.2	5401.3
891.5927	1519.7166	6305.25	5363.25
891.7357	1521.515	6295.6	5346.5
891.8786	1523.3126	6253.5	5317.25
892.0216	1525.1094	6233.3	5288.25
892.1645	1526.9055	6221.85	5281.4
892.3074	1528.7008	6181.6	5240.8
892.4503	1530.4954	6168.85	5225.65
892.5932	1532.2893	6159.45	5222.3
892.7361	1534.0824	6132.2	5190.35
892.879	1535.8747	6115.65	5179.8
893.0218	1537.6663	6110.45	5174
893.1647	1539.4572	6104.65	5165
893.3075	1541.2473	6119.6	5181.95
893.4503	1543.0367	6130	5192.55
893.5931	1544.8253	6132.6	5191.75
893.7359	1546.6132	6183.35	5242.05
893.8787	1548.4003	6206.45	5261.1
894.0214	1550.1867	6269.65	5328.85
894.1642	1551.9723	6322.25	5385.3
894.3069	1553.7572	6423.5	5487.3
894.4496	1555.5414	6543.6	5608.5
894.5923	1557.3247	6687.45	5754.35
894.735	1559.1074	6857.4	5927.85
894.8777	1560.8893	7045.2	6114.5
895.0204	1562.6705	7218.4	6286.75
895.163	1564.4509	7338.05	6411.2
895.3056	1566.2305	7432.35	6506.75
895.4482	1568.0094	7462.05	6535.8
895.5908	1569.7876	7461.3	6534
895.7334	1571.565	7425.65	6496.8
895.876	1573.3417	7420.5	6490.2
896.0186	1575.1176	7413.6	6488.65
896.1611	1576.8928	7410.35	6486.85
896.3036	1578.6672	7422.15	6501.85
896.4461	1580.4409	7463.8	6547.95
896.5886	1582.2138	7500.4	6579.7
896.7311	1583.986	7570.4	6644.25
896.8736	1585.7575	7680	6756.3
897.0161	1587.5282	7793.75	6871.5
897.1585	1589.2981	7908.9	6991.6
897.3009	1591.0673	8036.2	7119.6
897.4433	1592.8358	8149.75	7230.1
897.5857	1594.6035	8238.15	7313.65
897.7281	1596.3704	8359.75	7432.8
897.8705	1598.1366	8457.15	7533.9
898.0128	1599.9021	8580.6	7658.2
898.1551	1601.6668	8665.85	7745.35
898.2975	1603.4308	8806.6	7882.5
898.4398	1605.194	8999.25	8071.2
898.5821	1606.9564	9190.35	8276.6
898.7243	1608.7182	9469.75	8559.65
898.8666	1610.4791	9786.7	8883.85
899.0088	1612.2394	10082.45	9176.25
899.1511	1613.9988	10426.1	9518.55
899.2933	1615.7576	10710.15	9795.7
899.4355	1617.5156	10979.5	10052.65
899.5776	1619.2728	11037.7	10114.05
899.7198	1621.0293	10935.1	10012.2
899.862	1622.785	10682.95	9761.55
900.0041	1624.54	10277.9	9362.95
900.1462	1626.2942	9870.95	8958.8
900.2883	1628.0477	9428.1	8515.2
900.4304	1629.8005	9033.6	8114.5
900.5725	1631.5525	8662.5	7750.95
900.7145	1633.3037	8349.5	7438.95
900.8566	1635.0542	8137.55	7221.5
900.9986	1636.804	7923.45	7012.5
901.1406	1638.553	7878.5	6873.55
901.2826	1640.3013	7721.3	6807.3
901.4245	1642.0488	7656.5	6744.1
901.5665	1643.7955	7675.35	6766.45
901.7085	1645.5416	7713.25	6803.8
901.8504	1647.2868	7798.95	6883.7
901.9923	1649.0313	7911.75	6995.5
902.1342	1650.7751	8056.35	7139
902.2761	1652.5181	8192.95	7280.25
902.4179	1654.2604	8359	7448.5
902.5598	1656.0019	8584.5	7673.9
902.7016	1657.7427	8830.75	7918.85
902.8434	1659.4828	9086.7	8174
902.9852	1661.222	9220.4	8304.65
903.127	1662.9606	9226.35	8310.7
903.2687	1664.6984	9016.15	8098.6
903.4105	1666.4354	8605.4	7683.15
903.5522	1668.1717	8020.25	7102.2
903.6939	1669.9072	7474.1	6555.5
903.8356	1671.642	6986.2	6063.9
903.9773	1673.3761	6602	5688.35
904.119	1675.1094	6302.35	5386.2
904.2606	1676.8419	6007	5092.4
904.4022	1678.5737	5811.9	4897.85
904.5439	1680.3048	5658.25	4741.75
904.6855	1682.0351	5503.4	4585.35
904.827	1683.7646	5398.65	4480.7
904.9686	1685.4934	5303.75	4389.25
905.1101	1687.2215	5224.65	4308.4
905.2517	1688.9488	5136.8	4225.85
905.3932	1690.6754	5088.25	4176.9
905.5347	1692.4012	5027.7	4114.2
905.6761	1694.1263	4978.2	4062.6
905.8176	1695.8506	4935.85	4023.85
905.9591	1697.5742	4894.1	3983.75
906.1005	1699.297	4861.75	3953.7
906.2419	1701.0191	4799.25	3893.5
906.3833	1702.7404	4772.95	3866.15
906.5246	1704.461	4736.7	3825.05
906.666	1706.1808	4716.4	3804.5
906.8073	1707.8999	4671.15	3763.45
906.9487	1709.6182	4627.6	3721.4
907.09	1711.3358	4607.95	3706.05
907.2313	1713.0527	4588.2	3684.25
907.3725	1714.7688	4569.35	3659
907.5138	1716.4841	4553.85	3644.25
907.655	1718.1987	4532.9	3619.45
907.7962	1719.9126	4499.6	3594.5
907.9374	1721.6257	4487.8	3583.8
908.0786	1723.338	4484.9	3579.65
908.2198	1725.0496	4456.55	3549.6
908.3609	1726.7605	4451.25	3545.15
908.502	1728.4706	4437.3	3531.55
908.6431	1730.18	4425.7	3519.95
908.7842	1731.8886	4397.85	3496.4
908.9253	1733.5964	4394.9	3470.7
909.0664	1735.3036	4372.85	3467.2
909.2074	1737.0099	4358.35	3453.15
909.3484	1738.7156	4339.55	3438.15
909.4894	1740.4204	4290.85	3385.25
909.6304	1742.1246	4292	3382.8
909.7714	1743.8279	4259.4	3354
909.9123	1745.5306	4240.95	3336.15
910.0532	1747.2325	4213.7	3312.7
910.1941	1748.9336	4197.9	3292.9
910.335	1750.634	4183.1	3276.7
910.4759	1752.3336	4160.15	3257.05
910.6168	1754.0325	4153.85	3251.7
910.7576	1755.7307	4129.3	3227.85
910.8984	1757.4281	4145.15	3236.95
911.0392	1759.1247	4144.95	3228.6
911.18	1760.8206	4142	3232.45
911.3208	1762.5158	4119.25	3206.3
911.4615	1764.2102	4094.85	3189.3
911.6022	1765.9039	4083.7	3179.25
911.7429	1767.5968	4072.45	3170.2
911.8836	1769.289	4062.2	3160.15
912.0243	1770.9804	4056.85	3151.2
912.1649	1772.6711	4059.3	3147
912.3056	1774.361	4034.6	3123.8
912.4462	1776.0502	4022.95	3115.45
912.5868	1777.7386	4034.55	3126.05
912.7274	1779.4263	4004.55	3099.65
912.8679	1781.1132	4003.85	3104.45
913.0084	1782.7994	3994.35	3092.85
913.149	1784.4849	3987.75	3088.55
913.2895	1786.1696	3982.45	3061.9
913.4299	1787.8535	3971.6	3075.3
913.5704	1789.5367	3959.6	3058.35
913.7108	1791.2192	3948.05	3049.45
913.8513	1792.9009	3966.7	3036.15
913.9917	1794.5818	3943.4	3034.8
914.132	1796.2621	3937.9	3031.65
914.2724	1797.9415	3917.6	3013
914.4128	1799.6202	3911.5	3004.8
914.5531	1801.2982	3902.1	2994.15
914.6934	1802.9755	3899.2	2995.75
914.8337	1804.6519	3889.35	2983.55
914.9739	1806.3277	3867.15	2965.05
915.1142	1808.0027	3863.85	2966.55
915.2544	1809.6769	3867.95	2970.95
915.3946	1811.3504	3852.8	2955.1
915.5348	1813.0231	3843.95	2943.85
915.675	1814.6951	3827.15	2926.4
915.8151	1816.3664	3844.35	2938
915.9553	1818.0369	3815	2908.1
916.0954	1819.7067	3809.25	2907.95
916.2355	1821.3757	3806.5	2899.15
916.3755	1823.044	3811.8	2906.8
916.5156	1824.7115	3804.35	2899.75
916.6556	1826.3783	3801.75	2900.25
916.7956	1828.0443	3789.35	2889
916.9356	1829.7096	3772.1	2867.35
917.0756	1831.3741	3772.95	2867.2
917.2155	1833.0379	3746.55	2844.85
917.3555	1834.701	3754.8	2855.8
917.4954	1836.3633	3730.9	2831.3
917.6353	1838.0248	3744.75	2843.95
917.7751	1839.6856	3725.55	2825.1
917.915	1841.3457	3737.5	2834.5
918.0548	1843.005	3718.95	2816
918.1946	1844.6636	3710.2	2806.4
918.3344	1846.3214	3705.45	2801.15
918.4742	1847.9785	3702.6	2798.65
918.6139	1849.6349	3705.15	2798.15
918.7537	1851.2904	3706.4	2792.45
918.8934	1852.9453	3702.85	2796.75
919.0331	1854.5994	3686.1	2778.05
919.1727	1856.2528	3688.9	2779.6
919.3124	1857.9054	3677.05	2775.35
919.452	1859.5572	3651.6	2750.75
919.5916	1861.2083	3663.4	2758.7
919.7312	1862.8587	3672.95	2770.8
919.8708	1864.5084	3642.6	2735.1
920.0103	1866.1572	3647.9	2741.75
920.1498	1867.8054	3637.9	2732.9
920.2893	1869.4528	3622.45	2714.9
920.4288	1871.0994	3620.8	2713.8
920.5683	1872.7453	3621.3	2716.35
920.7077	1874.3905	3616.3	2707.2
920.8471	1876.0349	3593.7	2689.85
920.9865	1877.6786	3597.7	2692.85
921.1259	1879.3215	3591.6	2687.85
921.2653	1880.9637	3583.35	2681.35
921.4046	1882.6051	3574.55	2672.45
921.5439	1884.2458	3574.85	2671.25
921.6832	1885.8858	3549.6	2645.85
921.8225	1887.525	3548.15	2646.4
921.9617	1889.1634	3535.35	2629.75
922.101	1890.8011	3543.4	2636.8
922.2402	1892.4381	3530.25	2626.85
922.3794	1894.0743	3525.95	2623.2
922.5185	1895.7098	3510.1	2604.8
922.6577	1897.3446	3503.6	2601.1
922.7968	1898.9786	3505.65	2597.5
922.9359	1900.6118	3486.4	2586.1
923.075	1902.2443	3485.65	2584.4
923.214	1903.8761	3479.15	2578.25
923.3531	1905.5071	3456	2551.2
923.4921	1907.1374	3446.55	2542.8
923.6311	1908.7669	3443.35	2541.7
923.77	1910.3957	3439.15	2536.35
923.909	1912.0237	3439.95	2540
924.0479	1913.651	3420	2513.75
924.1868	1915.2776	3412.6	2511.55
924.3257	1916.9034	3400.8	2500.1
924.4646	1918.5285	3390.2	2488.7
924.6034	1920.1528	3378.85	2477
924.7422	1921.7764	3377.55	2475.75
924.881	1923.3992	3388.65	2486.85
925.0198	1925.0213	3357.65	2456.9
925.1586	1926.6427	3340.9	2439.45
925.2973	1928.2633	3405.55	2426.65
925.436	1929.8832	3340.4	2439.25
925.5747	1931.5023	3314	2411.15
925.7134	1933.1207	3314	2410.95
925.852	1934.7383	3326.15	2427.05
925.9906	1936.3552	3296.6	2394.35
926.1292	1937.9714	3291.65	2391.4
926.2678	1939.5868	3271.8	2368.15
926.4064	1941.2015	3281.5	2374.9
926.5449	1942.8154	3264.65	2360.75
926.6834	1944.4286	3265.7	2359.85
926.8219	1946.041	3261.8	2337.3
926.9604	1947.6528	3233.9	2328.45
927.0988	1949.2637	3233	2332.05
927.2372	1950.8739	3232.45	2331.45
927.3756	1952.4834	3219.95	2320.55
927.514	1954.0921	3234.45	2332.75
927.6523	1955.7001	3218.65	2317.8
927.7907	1957.3074	3201.75	2303.35
927.929	1958.9139	3186.8	2290.75
928.0673	1960.5197	3184.3	2286.2
928.2055	1962.1247	3165.55	2267.95
928.3438	1963.729	3158.5	2263
928.482	1965.3325	3161.4	2261.45
928.6202	1966.9353	3140.7	2246
928.7584	1968.5374	3131.85	2233.4
928.8965	1970.1387	3119	2222
929.0346	1971.7393	3116.6	2221.25
929.1727	1973.3392	3116	2219.2
929.3108	1974.9383	3106.9	2212.9
929.4489	1976.5366	3084.4	2190
929.5869	1978.1342	3078.85	2184.15
929.7249	1979.7311	3069.9	2175.95
929.8629	1981.3273	3078.1	2184.3
930.0009	1982.9227	3066.3	2171.7
930.1388	1984.5173	3056.75	2163.2
930.2767	1986.1112	3042.15	2149.85
930.4146	1987.7044	3048.6	2156.3
930.5525	1989.2968	3040.25	2145.9
930.6904	1990.8885	3051.75	2156.5
930.8282	1992.4795	3026.35	2134.3
930.966	1994.0697	3014	2124
931.1038	1995.6592	3017.15	2123.05
931.2415	1997.2479	3020.45	2124.4
931.3793	1998.8359	3007.1	2116.2
931.517	2000.4232	2986.25	2096.3
931.6547	2002.0097	2981.4	2096
931.7923	2003.5955	2966.2	2078.9
931.93	2005.1805	2964.9	2074.95
932.0676	2006.7648	2972.55	2084.3
932.2052	2008.3484	2955.45	2066.6
932.3427	2009.9312	2957.25	2068.7
932.4803	2011.5133	2949.6	2066.25
932.6178	2013.0946	2944.3	2058.15
932.7553	2014.6752	2932.75	2045.35
932.8928	2016.2551	2922.8	2030.65
933.0302	2017.8342	2934.95	2045.75
933.1676	2019.4126	2921.7	2035.45
933.305	2020.9902	2912.65	2027.6
933.4424	2022.5672	2904.85	2019.35
933.5798	2024.1433	2905.8	2017
933.7171	2025.7188	2890.1	2007.35
933.8544	2027.2935	2894.05	2011.5
933.9917	2028.8674	2881.5	1995.6
934.129	2030.4406	2875.1	1995.25
934.2662	2032.0131	2857.45	1976.4
934.4034	2033.5849	2863.7	1973.7
934.5406	2035.1559	2850.25	1968.2
934.6778	2036.7261	2855.65	1970.6
934.8149	2038.2957	2860.45	1972.25
934.952	2039.8645	2850.3	1958.15
935.0891	2041.4325	2851.9	1957.4
935.2262	2042.9998	2835.25	1946.7
935.3632	2044.5664	2821.9	1933.95
935.5002	2046.1323	2815.7	1931.35
935.6372	2047.6974	2826.65	1940.85
935.7742	2049.2617	2814.35	1930.65
935.9111	2050.8254	2829.9	1937.65
936.048	2052.3883	2819.2	1929.25
936.1849	2053.9504	2804	1911.85
936.3218	2055.5118	2796.4	1905
936.4586	2057.0725	2785.35	1891.4
936.5955	2058.6325	2786.6	1898.4
936.7323	2060.1917	2777.1	1892.35
936.869	2061.7502	2771.85	1883.45
937.0058	2063.3079	2757.25	1875.4
937.1425	2064.8649	2759.9	1871.05
937.2792	2066.4212	2750	1861.35
937.4159	2067.9767	2756.85	1868.3
937.5525	2069.5315	2747.1	1859.7
937.6891	2071.0856	2729.45	1840.45
937.8257	2072.6389	2732.75	1844.65
937.9623	2074.1915	2727.15	1844.2
938.0989	2075.7433	2709.8	1823.2
938.2354	2077.2945	2704.9	1820.9
938.3719	2078.8448	2710	1817.5
938.5084	2080.3945	2710.95	1819.7
938.6448	2081.9434	2703.05	1811.9
938.7812	2083.4916	2697.5	1806.4
938.9176	2085.039	2684.1	1787.7
939.054	2086.5857	2684.55	1786.05
939.1903	2088.1317	2689.6	1790.7
939.3267	2089.677	2666.4	1768.1
939.463	2091.2215	2670.1	1770.2
939.5992	2092.7652	2674.75	1776.05
939.7355	2094.3083	2658.25	1760.65
939.8717	2095.8506	2654.55	1761.75
940.0079	2097.3921	2661.8	1770.8
940.1441	2098.933	2656.45	1762.45
940.2802	2100.4731	2639.2	1745.95
940.4163	2102.0124	2661.4	1749
940.5524	2103.5511	2635.1	1740.45
940.6885	2105.089	2637.15	1743.35
940.8245	2106.6261	2629.6	1735.55
940.9606	2108.1626	2625.75	1732.8
941.0965	2109.6983	2651.25	1731.45
941.2325	2111.2332	2626	1733.15
941.3684	2112.7675	2604.3	1709.5
941.5044	2114.301	2613.6	1720
941.6403	2115.8337	2614.25	1718.05
941.7761	2117.3657	2591.5	1696
941.912	2118.897	2598.85	1702.45
942.0478	2120.4276	2603.2	1703.95
942.1835	2121.9575	2581.85	1687.75
942.3193	2123.4866	2593.65	1696.6
942.455	2125.0149	2581.75	1686.2
942.5907	2126.5426	2566.45	1676.3
942.7264	2128.0695	2555.65	1667.4
942.8621	2129.5956	2554.1	1669.95
942.9977	2131.1211	2553.75	1662.3
943.1333	2132.6458	2558.55	1666.3
943.2689	2134.1698	2546.85	1649.5
943.4044	2135.693	2557.45	1658.55
943.54	2137.2155	2546.85	1647.85
943.6755	2138.7373	2537.85	1645.15
943.8109	2140.2584	2523.15	1634.2
943.9464	2141.7787	2516.15	1625.05
944.0818	2143.2983	2512.2	1628.9
944.2172	2144.8171	2502.35	1619.35
944.3526	2146.3353	2502.9	1613.2
944.4879	2147.8527	2489.55	1602.3
944.6232	2149.3693	2496.2	1602.4
944.7585	2150.8853	2504	1609.4
944.8938	2152.4005	2484.5	1587.85
945.029	2153.9149	2490.3	1592.25
945.1642	2155.4287	2472.7	1576.9
945.2994	2156.9417	2485.85	1591.25
945.4346	2158.454	2463.65	1570.35
945.5697	2159.9655	2470.55	1582.65
945.7048	2161.4764	2474.8	1585.1
945.8399	2162.9865	2456.1	1567.45
945.9749	2164.4958	2448.9	1558.35
946.1099	2166.0045	2448.3	1557.85
946.2449	2167.5124	2449.2	1558
946.3799	2169.0195	2442.15	1548.55
946.5148	2170.526	2442.1	1547.4
946.6498	2172.0317	2441.35	1546.9
946.7846	2173.5367	2430.05	1537.75
946.9195	2175.0409	2419.2	1526
947.0543	2176.5445	2426.25	1533.35
947.1891	2178.0473	2418.7	1522.8
947.3239	2179.5494	2419.8	1523.1
947.4587	2181.0507	2405.4	1512.95
947.5934	2182.5513	2407.05	1513.55
947.7281	2184.0512	2408.8	1514.45
947.8628	2185.5504	2411.5	1517.65
947.9974	2187.0488	2376.75	1486.25
948.132	2188.5465	2375.25	1488.9
948.2666	2190.0435	2380.75	1489.95
948.4012	2191.5397	2367.35	1472.85
948.5357	2193.0353	2378.4	1481.45
948.6702	2194.5301	2368.35	1469.4
948.8047	2196.0241	2371.8	1471.95
948.9392	2197.5175	2370.9	1472.2
949.0736	2199.0101	2363.75	1461.8
949.208	2200.502	2356.25	1465
949.3424	2201.9931	2346.65	1456.05
949.4767	2203.4835	2339.75	1449
949.611	2204.9733	2341.65	1436.4
949.7453	2206.4622	2323.35	1434.85
949.8796	2207.9505	2324.95	1435.95
950.0138	2209.438	2306.35	1421.3
950.148	2210.9248	2308.15	1418.55
950.2822	2212.4109	2301.55	1408.85
950.4164	2213.8962	2309.55	1410.3
950.5505	2215.3809	2317.8	1420.1
950.6846	2216.8648	2303.9	1404.1
950.8186	2218.3479	2312.25	1406.65
950.9527	2219.8304	2293.55	1390.85
951.0867	2221.3121	2290.25	1385.95
951.2207	2222.7931	2292.3	1396.6
951.3546	2224.2733	2283.8	1387.2
951.4886	2225.7529	2274.55	1382.1
951.6225	2227.2317	2267.65	1374.5
951.7563	2228.7098	2269.2	1380.4
951.8902	2230.1872	2252.1	1362.05
952.024	2231.6638	2255.75	1368.65
952.1578	2233.1397	2248.75	1354.55
952.2916	2234.6149	2239.45	1350.25
952.4253	2236.0894	2245.75	1355.7
952.559	2237.5632	2238.25	1336.25
952.6927	2239.0362	2233.95	1343.3
952.8263	2240.5085	2234.95	1344.15
952.9599	2241.9801	2225.55	1332.4
953.0935	2243.4509	2232.55	1337.8
953.2271	2244.921	2218.55	1321.85
953.3606	2246.3904	2214.2	1314.5
953.4941	2247.8591	2211.25	1315.4
953.6276	2249.3271	2200.2	1303.55
953.7611	2250.7943	2196.1	1297.2
953.8945	2252.2608	2197.25	1303
954.0279	2253.7266	2186.8	1293.05
954.1612	2255.1917	2187.7	1294.1
954.2946	2256.656	2185.1	1292.85
954.4279	2258.1197	2168.2	1280.8
954.5612	2259.5826	2168.2	1275.55
954.6944	2261.0447	2158.95	1264.9
954.8276	2262.5062	2158.2	1260.65
954.9608	2263.9669	2169.8	1272.85
955.094	2265.4269	2159.7	1265.7
955.2271	2266.8862	2147.25	1253.75
955.3602	2268.3448	2156.8	1265.8
955.4933	2269.8026	2144.4	1256.65
955.6264	2271.2598	2147.45	1256.35
955.7594	2272.7162	2147.7	1258.3
955.8924	2274.1719	2143.15	1249.2
956.0253	2275.6268	2147.75	1250.7
956.1583	2277.0811	2139.1	1241.6
956.2912	2278.5346	2133.7	1241.4
956.4241	2279.9874	2132.7	1243.05
956.5569	2281.4395	2130.3	1241.2
956.6897	2282.8908	2134.55	1237.15
956.8225	2284.3414	2127.55	1232.45
956.9553	2285.7914	2118.45	1224.8
957.088	2287.2406	2115.5	1218.7
957.2207	2288.689	2117.25	1221
957.3534	2290.1368	2118.4	1219.7
957.486	2291.5838	2126.6	1222.75
957.6186	2293.0302	2115.4	1215.65
957.7512	2294.4758	2104.4	1210
957.8838	2295.9206	2111.95	1213.55
958.0163	2297.3648	2099.9	1208.6
958.1488	2298.8082	2092.9	1198.75
958.2813	2300.251	2094.35	1197.7
958.4137	2301.693	2086.65	1186.15
958.5461	2303.1343	2086.3	1188.95
958.6785	2304.5748	2072.9	1180.2
958.8108	2306.0147	2075.1	1183.8
958.9432	2307.4538	2065.5	1174.25
959.0754	2308.8922	2058.85	1171.85
959.2077	2310.3299	2070.05	1178.55
959.3399	2311.7669	2051.95	1158.75
959.4721	2313.2031	2052.95	1157.85
959.6043	2314.6387	2052.05	1156.75
959.7365	2316.0735	2053.7	1158.35
959.8686	2317.5076	2057.7	1161.95
960.0006	2318.941	2044.6	1148.9
960.1327	2320.3737	2039.55	1142.65
960.2647	2321.8056	2038.4	1139.25
960.3967	2323.2369	2031.7	1136.15
960.5287	2324.6674	2033.45	1135.05
960.6606	2326.0972	2030.3	1134.2
960.7925	2327.5263	2018.45	1122.8
960.9244	2328.9547	2017.2	1118.1
961.0562	2330.3823	2026.1	1127
961.1881	2331.8092	2029.2	1126.8
961.3198	2333.2355	2021.55	1122.85
961.4516	2334.661	2017.05	1118.95
961.5833	2336.0858	2012.9	1114.25
961.715	2337.5098	2009.85	1114.15
961.8467	2338.9332	2009.45	1113
961.9783	2340.3558	1995.65	1099.25
962.1099	2341.7778	1989.2	1094.4
962.2415	2343.199	1991.85	1094.65
962.373	2344.6195	1992.6	1097.55
962.5045	2346.0393	1979.9	1086.65
962.636	2347.4583	1990.25	1096.1
962.7675	2348.8767	1984.95	1088.25
962.8989	2350.2943	1983.15	1083.75
963.0303	2351.7113	1991.05	1092.4
963.1617	2353.1275	1975.65	1075.6
963.293	2354.543	1993.3	1085.75
963.4243	2355.9578	1962.3	1065.1
963.5556	2357.3718	1967.1	1075.05
963.6868	2358.7852	1964.15	1069.1
963.818	2360.1978	1965.5	1073.05
963.9492	2361.6098	1954.95	1062.3
964.0803	2363.021	1962.7	1065.4
964.2114	2364.4315	1956.85	1060.95
964.3425	2365.8413	1952.95	1057.2
964.4736	2367.2504	1947.1	1054.1
964.6046	2368.6587	1934.55	1042.1
964.7356	2370.0664	1933.15	1041.25
964.8666	2371.4733	1934.8	1039.15
964.9975	2372.8795	1945.9	1050.35
965.1284	2374.285	1931.85	1036.95
965.2593	2375.6899	1928.9	1035.35
965.3901	2377.0939	1918.75	1023.85
965.5209	2378.4973	1921.3	1029.7
965.6517	2379.9	1914.9	1020.9
965.7825	2381.3019	1908.85	1016.75
965.9132	2382.7032	1902.1	1008.25
966.0439	2384.1037	1904.35	1013.75
966.1745	2385.5035	1895.1	1004.2
966.3051	2386.9027	1899.65	1009.75
966.4357	2388.3011	1892.8	998.35
966.5663	2389.6987	1892.85	999.8
966.6968	2391.0957	1899.25	1006.9
966.8273	2392.492	1883.1	989.95
966.9578	2393.8876	1880.85	987.65
967.0882	2395.2824	1880.05	989.15
967.2186	2396.6765	1872.85	977.75
967.349	2398.07	1878.5	985
967.4793	2399.4627	1864.1	967.5
967.6097	2400.8547	1867	971.05
967.7399	2402.246	1868.65	967.8
967.8702	2403.6366	1852.45	959.45
968.0004	2405.0265	1854.2	961.65
968.1306	2406.4156	1868.55	970.6
968.2607	2407.8041	1854.45	957.5
968.3909	2409.1918	1850.25	953.6
968.521	2410.5789	1840.85	944.75
968.651	2411.9652	1843.95	944.5
968.781	2413.3508	1832.55	937.7
968.911	2414.7358	1838.9	943.15
969.041	2416.12	1836.15	941.75
969.1709	2417.5035	1824.5	930.6
969.3008	2418.8863	1826.55	929.85
969.4307	2420.2684	1833.95	936.75
969.5606	2421.6497	1825.55	927.8
969.6904	2423.0304	1813.85	920.4
969.8201	2424.4104	1815.65	922.35
969.9499	2425.7896	1822	922.4
970.0796	2427.1682	1815	922.55
970.2093	2428.546	1806.35	912.7
970.3389	2429.9232	1819.35	922.25
970.4685	2431.2996	1810.9	915.75
970.5981	2432.6753	1807.4	911.1
970.7277	2434.0503	1808.5	910.35
970.8572	2435.4246	1798.75	902.65
970.9867	2436.7982	1797.8	901.55
971.1161	2438.1711	1792.45	898.55
971.2456	2439.5433	1799.95	903.55
971.375	2440.9148	1787.65	885.85
971.5043	2442.2856	1776.65	882.15
971.6336	2443.6557	1782.9	886.35
971.7629	2445.025	1779.8	882.95
971.8922	2446.3937	1778.9	882.7
972.0214	2447.7617	1771.35	874
972.1506	2449.1289	1765.2	869.65
972.2798	2450.4955	1764.55	867
972.4089	2451.8613	1759.5	867.05
972.538	2453.2265	1758.8	864.2
972.6671	2454.5909	1761.9	865.3
972.7961	2455.9546	1748.35	854.75
972.9251	2457.3177	1756.4	861.05
973.0541	2458.68	1753.3	856.2
973.1831	2460.0416	1751.85	856.25
973.312	2461.4025	1754.25	859.1
973.4408	2462.7627	1768.25	864.8
973.5697	2464.1222	1747.55	856.95
973.6985	2465.4811	1746.95	855
973.8273	2466.8392	1738.35	846.4
973.956	2468.1966	1738.85	842.95
974.0847	2469.5533	1743.65	847.75
974.2134	2470.9093	1746.15	852.5
974.3421	2472.2645	1738.3	842.5
974.4707	2473.6191	1725.1	831.85
974.5993	2474.973	1729.35	834.1
974.7278	2476.3262	1732.75	835.75
974.8563	2477.6787	1727.65	835.25
974.9848	2479.0305	1725.25	831.7
975.1132	2480.3816	1726.8	832
975.2417	2481.7319	1717.1	823.7
975.37	2483.0816	1715.5	821.8
975.4984	2484.4306	1717.15	822.45
975.6267	2485.7789	1711.4	819
975.755	2487.1264	1710.45	816.9
975.8833	2488.4733	1703.75	810.9
976.0115	2489.8195	1706.7	805.95
976.1397	2491.165	1709.2	815.15
976.2678	2492.5097	1690.65	797.35
976.3959	2493.8538	1689.95	798.2
976.524	2495.1972	1696.1	804.1
976.6521	2496.5398	1686.25	790.3
976.7801	2497.8818	1692.8	795.9
976.9081	2499.2231	1691.5	797.9
977.036	2500.5637	1691.55	795.7
977.164	2501.9035	1684.55	787.15
977.2918	2503.2427	1677.45	779.4
977.4197	2504.5812	1673.35	779.05
977.5475	2505.919	1679.7	782.95
977.6753	2507.256	1675.45	779.9
977.8031	2508.5924	1666.25	772.1
977.9308	2509.9281	1671.8	771.2
978.0585	2511.2631	1661.95	769.75
978.1861	2512.5974	1660.6	769.9
978.3137	2513.9309	1664.05	769.2
978.4413	2515.2638	1688.35	766.8
978.5689	2516.596	1662.4	767.45
978.6964	2517.9275	1652.35	756.3
978.8239	2519.2583	1656.25	759.65
978.9513	2520.5884	1654.15	758.15
979.0788	2521.9178	1644.8	751.55
979.2062	2523.2465	1646.6	752.8
979.3335	2524.5745	1647.2	753.75
979.4608	2525.9018	1639.45	744.6
979.5881	2527.2284	1635	740.4
979.7154	2528.5543	1639.2	745
979.8426	2529.8796	1640.05	747
979.9698	2531.2041	1639.8	746.25
980.0969	2532.5279	1636.1	744.55
980.224	2533.851	1624.4	731.4
980.3511	2535.1735	1636.5	742.35
980.4781	2536.4952	1637.2	743.15
980.6052	2537.8163	1631.2	736.2
980.7321	2539.1366	1625	728.35
980.8591	2540.4562	1634.8	738.35
980.986	2541.7752	1630.2	733.95
981.1129	2543.0935	1631.25	736.05
981.2397	2544.411	1628.45	733.05
981.3665	2545.7279	1628.5	734
981.4933	2547.0441	1611.75	718.15
981.62	2548.3596	1629.95	731.05
981.7467	2549.6744	1621.4	726.25
981.8734	2550.9885	1620.3	717.4
982.0001	2552.3019	1619.1	723.4
982.1267	2553.6146	1618.25	720.05
982.2532	2554.9266	1610.25	713.3
982.3798	2556.2379	1606.65	708.6
982.5063	2557.5485	1605.9	714.55
982.6327	2558.8585	1611.05	709.65
982.7592	2560.1677	1606.25	708.05
982.8856	2561.4762	1602.25	706.6
983.0119	2562.7841	1607.25	709.95
983.1383	2564.0913	1598.65	706.75
983.2646	2565.3977	1596.25	705
983.3908	2566.7035	1601.75	707.75
983.517	2568.0086	1596.5	699.2
983.6432	2569.313	1596.95	701.2
983.7694	2570.6167	1595.95	696.3
983.8955	2571.9197	1594.1	699.7
984.0216	2573.222	1597.7	699.9
984.1476	2574.5236	1597.3	702.65
984.2737	2575.8246	1597.3	700.05
984.3996	2577.1248	1600.7	703.5
984.5256	2578.4244	1591.55	699.4
984.6515	2579.7232	1585.3	691.95
984.7774	2581.0214	1615.8	696.25
984.9032	2582.3189	1593.35	699.65
985.029	2583.6157	1595.15	699.05
985.1548	2584.9118	1579.9	685.3
985.2806	2586.2072	1586	693.85
985.4063	2587.5019	1588.05	695.85
985.5319	2588.7959	1584.9	690.6
985.6576	2590.0893	1584.9	689.6
985.7832	2591.3819	1595	701.25
985.9087	2592.6739	1601.35	710.4
986.0343	2593.9652	1590.55	695.7
986.1597	2595.2557	1591.35	697.2
986.2852	2596.5456	1594.85	697.25
986.4106	2597.8348	1589.25	697.65
986.536	2599.1234	1586.4	693.5
986.6614	2600.4112	1586.25	691.7
986.7867	2601.6983	1589.65	692.5
986.912	2602.9848	1583.1	689.95
987.0372	2604.2705	1582.45	683.1
987.1624	2605.5556	1583.75	690.6
987.2876	2606.84	1576.2	685
987.4128	2608.1237	1571.65	678.2
987.5379	2609.4067	1563.15	671.45
987.6629	2610.689	1583.1	683.9
987.788	2611.9707	1579.95	685.2
987.913	2613.2516	1566.5	669.65
988.0379	2614.5319	1554.85	662.65
988.1629	2615.8115	1552.8	660.55
988.2878	2617.0903	1556.1	661.3
988.4126	2618.3685	1546.3	652
988.5375	2619.6461	1545.4	653.45
988.6622	2620.9229	1547	653.55
988.787	2622.199	1553.8	661.6
988.9117	2623.4745	1543.7	653.6
989.0364	2624.7493	1542.45	649
989.161	2626.0234	1537.6	645.3
989.2857	2627.2968	1543.95	651.3
989.4102	2628.5695	1552.1	659.45
989.5348	2629.8415	1529.55	639.8
989.6593	2631.1128	1539.75	646
989.7837	2632.3835	1527.9	639.1
989.9082	2633.6535	1533.05	643
990.0326	2634.9228	1528.1	637.65
990.1569	2636.1914	1533.7	641.55
990.2812	2637.4593	1530.65	638.9
990.4055	2638.7265	1526.55	635.55
990.5298	2639.9931	1525.45	634.65
990.654	2641.259	1533	640.95
990.7782	2642.5242	1520.45	629.1
990.9023	2643.7887	1523	633.1
991.0264	2645.0525	1515.95	626
991.1505	2646.3156	1519.9	628.9
991.2745	2647.5781	1512.15	622.3
991.3985	2648.8398	1520.75	628.65
991.5225	2650.1009	1545.65	615.3
991.6464	2651.3613	1510.9	618.75
991.7703	2652.6211	1504.85	613.2
991.8942	2653.8801	1501.85	610.65
992.018	2655.1385	1513.2	618.15
992.1418	2656.3961	1502.25	611.35
992.2655	2657.6531	1506.9	616.8
992.3892	2658.9094	1498.3	607.5
992.5129	2660.1651	1515.75	626.15
992.6366	2661.42	1505.85	614.7
992.7602	2662.6743	1509.1	616.55
992.8837	2663.9279	1507.8	617.45
993.0073	2665.1808	1505.75	613.05
993.1307	2666.433	1515.45	623.95
993.2542	2667.6846	1517.95	629.95
993.3776	2668.9354	1516.5	623.5
993.501	2670.1856	1513	622.8
993.6244	2671.4351	1518.7	626.55
993.7477	2672.6839	1522.3	629.9
993.8709	2673.9321	1519.85	631.4
993.9942	2675.1795	1523.95	631.5
994.1174	2676.4263	1516.95	626
994.2405	2677.6724	1521.5	631.05
994.3637	2678.9179	1527.9	635.05
994.4868	2680.1626	1526.95	636.05
994.6098	2681.4067	1523.8	631.3
994.7328	2682.6501	1521.4	631.15
994.8558	2683.8928	1514.95	622.7
994.9788	2685.1348	1509.35	619.35
995.1017	2686.3761	1507.15	615.9
995.2245	2687.6168	1495.6	605.55
995.3474	2688.8568	1502.3	610.85
995.4702	2690.0961	1495.1	605.25
995.5929	2691.3348	1484.45	595.3
995.7156	2692.5727	1492.85	603.45
995.8383	2693.81	1492.85	601.9
995.961	2695.0466	1489.2	600.6
996.0836	2696.2826	1491.85	599.75
996.2062	2697.5178	1494	599.75
996.3287	2698.7524	1490.9	599.9
996.4512	2699.9863	1490.85	599.9
996.5737	2701.2195	1494.5	605.55
996.6961	2702.452	1504.4	611.65
996.8185	2703.6839	1500.35	608.2
996.9408	2704.9151	1498.35	607.8
997.0631	2706.1456	1510.05	620.45
997.1854	2707.3755	1513.3	622.35
997.3077	2708.6046	1521.05	628.15
997.4299	2709.8331	1523.6	633.25
997.552	2711.0609	1529	637.8
997.6742	2712.2881	1533.45	642.55
997.7963	2713.5145	1546.55	654.6
997.9183	2714.7403	1539.7	649.6
998.0403	2715.9654	1552.1	661
998.1623	2717.1899	1588.45	685.15
998.2842	2718.4136	1581.75	693.05
998.4062	2719.6367	1583.25	694.45
998.528	2720.8591	1602.85	705.55
998.6498	2722.0809	1609.05	719.5
998.7716	2723.3019	1624.8	733
998.8934	2724.5223	1632.5	741.9
999.0151	2725.7421	1633.8	742.35
999.1368	2726.9611	1637.5	744.85
999.2584	2728.1795	1631.6	736.75
999.38	2729.3972	1626.7	736.4
999.5016	2730.6142	1629.25	726.35
999.6231	2731.8306	1604.8	714.6
999.7446	2733.0462	1586.85	695.5
999.8661	2734.2612	1576.55	681.6
999.9875	2735.4756	1555.3	664.4
1000.1089	2736.6892	1546.85	656.75
1000.2302	2737.9022	1522.75	635
1000.3515	2739.1145	1508.8	618.9
1000.4728	2740.3262	1514	617.1
1000.594	2741.5372	1493.5	605.1
1000.7152	2742.7475	1482.65	594.45
1000.8363	2743.9571	1476.65	586.45
1000.9575	2745.1661	1467.05	576
1001.0785	2746.3744	1459.4	571.25
1001.1996	2747.582	1445.7	555.8
1001.3206	2748.7889	1445.95	556.5
1001.4415	2749.9952	1426.65	536.1
1001.5625	2751.2008	1432.55	543.6
1001.6833	2752.4057	1421.85	531.4
1001.8042	2753.61	1423.8	535.15
1001.925	2754.8136	1425.5	533.3
1002.0458	2756.0165	1419.85	532
1002.1665	2757.2188	1414.15	526.95
1002.2872	2758.4204	1421.6	532.45
1002.4078	2759.6213	1419.9	529.05
1002.5285	2760.8215	1414.55	522.35
1002.649	2762.0211	1418.6	527.2
1002.7696	2763.22	1419.4	527.7
1002.8901	2764.4182	1411.8	521.45
1003.0106	2765.6158	1405.85	517.85
1003.131	2766.8127	1401.55	513.95
1003.2514	2768.009	1403.7	515.2
1003.3717	2769.2045	1395.75	508.05
1003.492	2770.3994	1396.25	505.35
1003.6123	2771.5936	1393.4	502.85
1003.7325	2772.7872	1385.95	498.35
1003.8527	2773.9801	1390.1	502.7
1003.9729	2775.1723	1401.25	495.35
1004.093	2776.3639	1389.7	499.8
1004.2131	2777.5548	1377.9	488.65
1004.3331	2778.745	1389.2	501.4
1004.4531	2779.9346	1382.5	497.05
1004.5731	2781.1235	1383.05	492.45
1004.693	2782.3117	1380.1	492.35
1004.8129	2783.4992	1386.55	500.55
1004.9328	2784.6861	1384.6	497
1005.0526	2785.8723	1390.4	500.3
1005.1723	2787.0579	1385.95	496.25
1005.2921	2788.2428	1391.5	504.35
1005.4118	2789.427	1399.55	512.75
1005.5314	2790.6106	1409.35	522.1
1005.651	2791.7935	1408.05	520.15
1005.7706	2792.9757	1411.65	525.1
1005.8902	2794.1573	1425.95	535.6
1006.0097	2795.3382	1436.3	547.75
1006.1291	2796.5184	1433.6	548.45
1006.2485	2797.698	1448.05	560.5
1006.3679	2798.8769	1458.9	571.35
1006.4873	2800.0551	1468.3	580.7
1006.6066	2801.2327	1486.95	597.3
1006.7258	2802.4096	1497.5	612.25
1006.8451	2803.5859	1507.65	620.5
1006.9642	2804.7615	1524.25	637.15
1007.0834	2805.9364	1538	650.65
1007.2025	2807.1106	1559.85	672.6
1007.3216	2808.2842	1589.6	704.3
1007.4406	2809.4572	1607.1	720.6
1007.5596	2810.6294	1629.3	742.4
1007.6785	2811.801	1667.7	781.25
1007.7975	2812.972	1694.65	807.35
1007.9163	2814.1423	1734.5	848.7
1008.0352	2815.3119	1778.9	891.7
1008.154	2816.4808	1815.9	928.8
1008.2727	2817.6491	1866.15	979.1
1008.3914	2818.8167	1916.05	1031.35
1008.5101	2819.9837	1979.55	1088.4
1008.6288	2821.15	2023.55	1137.75
1008.7474	2822.3157	2084.5	1201
1008.8659	2823.4807	2142.25	1258.2
1008.9844	2824.645	2201.7	1312.25
1009.1029	2825.8086	2263	1374.7
1009.2214	2826.9716	2309.75	1424.45
1009.3398	2828.134	2356.15	1470.05
1009.4581	2829.2957	2403.85	1518.05
1009.5764	2830.4567	2439.2	1551.6
1009.6947	2831.617	2460.4	1572.9
1009.813	2832.7767	2478.85	1592.7
1009.9312	2833.9358	2483.9	1598.55
1010.0493	2835.0941	2467.9	1580.85
1010.1675	2836.2519	2452.05	1567.35
1010.2855	2837.4089	2445.8	1558.45
1010.4036	2838.5653	2415.9	1531.45
1010.5216	2839.7211	2415.05	1528.2
1010.6396	2840.8761	2411.8	1524.95
1010.7575	2842.0306	2403.2	1519.1
1010.8754	2843.1843	2421.25	1535.8
1010.9932	2844.3374	2457.2	1571.05
1011.111	2845.4899	2503.8	1618.75
1011.2288	2846.6417	2552.95	1666.95
1011.3465	2847.7928	2604.9	1717.9
1011.4642	2848.9433	2679.2	1791.55
1011.5818	2850.0931	2706.75	1819.85
1011.6995	2851.2422	2781.25	1892.65
1011.817	2852.3907	2834.95	1948.65
1011.9345	2853.5385	2889.25	2002.75
1012.052	2854.6857	2947.85	2037.25
1012.1695	2855.8323	2993.3	2106.9
1012.2869	2856.9781	3017.7	2131.5
1012.4042	2858.1233	3078.2	2191.85
1012.5216	2859.2679	3130.05	2245.55
1012.6389	2860.4118	3169.6	2284.55
1012.7561	2861.555	3226.1	2336.4
1012.8733	2862.6976	3272.45	2383.25
1012.9905	2863.8395	3303.45	2418.65
1013.1076	2864.9808	3328.65	2443.55
1013.2247	2866.1214	3356.65	2472.7
1013.3417	2867.2614	3364.65	2480
1013.4587	2868.4007	3384.6	2497.5
1013.5757	2869.5393	3406	2516.95
1013.6926	2870.6773	3410.1	2522.05
1013.8095	2871.8146	3427.65	2538.3
1013.9263	2872.9513	3422.6	2532.65
1014.0431	2874.0874	3412.75	2525.2
1014.1599	2875.2227	3391.05	2503.4
1014.2766	2876.3574	3396.4	2512.1
1014.3933	2877.4915	3353.3	2469.15
1014.51	2878.6249	3332	2447.15
1014.6266	2879.7577	3317.45	2432.9
1014.7431	2880.8898	3290.85	2395.2
1014.8596	2882.0212	3270.25	2384.8
1014.9761	2883.152	3268.05	2382.4
1015.0925	2884.2821	3252.8	2368.15
1015.2089	2885.4116	3241.45	2357.3
1015.3253	2886.5405	3245.9	2362.7
1015.4416	2887.6686	3257.9	2370.15
1015.5579	2888.7962	3263.3	2381
1015.6741	2889.923	3274.8	2390.85
1015.7903	2891.0493	3278.75	2395.65
1015.9065	2892.1748	3290.7	2406.2
1016.0226	2893.2997	3298.25	2414.85
1016.1387	2894.424	3317.75	2431.9
1016.2547	2895.5476	3322.15	2435.7
1016.3707	2896.6706	3358	2473.05
1016.4866	2897.7929	3378.65	2491
1016.6025	2898.9145	3393.35	2511.15
1016.7184	2900.0355	3419.6	2533.75
1016.8342	2901.1559	3439.1	2554.9
1016.95	2902.2756	3488.8	2601.1
1017.0658	2903.3946	3503.25	2617.6
1017.1815	2904.513	3524.35	2637.65
1017.2971	2905.6308	3559.8	2675
1017.4127	2906.7479	3573.25	2688.9
1017.5283	2907.8643	3598.4	2713.9
1017.6439	2908.9801	3603.85	2720.6
1017.7594	2910.0953	3609.1	2723.45
1017.8748	2911.2098	3621.25	2734.2
1017.9902	2912.3236	3618.55	2727.45
1018.1056	2913.4368	3612.55	2727.5
1018.2209	2914.5494	3587.4	2703.15
1018.3362	2915.6613	3544.9	2652.75
1018.4515	2916.7725	3505.6	2618.25
1018.5667	2917.8831	3509.6	2622.85
1018.6819	2918.9931	3468.85	2585.2
1018.797	2920.1024	3437.35	2552.2
1018.9121	2921.211	3429.4	2545.5
1019.0271	2922.319	3417.3	2532.65
1019.1421	2923.4264	3401.1	2517.15
1019.2571	2924.5331	3388.5	2505.5
1019.372	2925.6391	3385.15	2502.75
1019.4869	2926.7445	3379.2	2497.7
1019.6017	2927.8493	3363.3	2479.5
1019.7165	2928.9534	3371.7	2486.55
1019.8313	2930.0569	3380.9	2493.9
1019.946	2931.1597	3383.85	2497.85
1020.0606	2932.2619	3396.25	2511.35
1020.1753	2933.3634	3416.85	2533.35
1020.2899	2934.4643	3420.8	2528.8
1020.4044	2935.5645	3393.35	2505.55
1020.5189	2936.6641	3390.35	2501.8
1020.6334	2937.763	3337.9	2454.65
1020.7478	2938.8613	3320.9	2438.15
1020.8622	2939.959	3270.75	2382.9
1020.9765	2941.056	3220.7	2336.3
1021.0908	2942.1523	3149.1	2263.4
1021.2051	2943.248	3073.2	2190.8
1021.3193	2944.3431	2999.1	2114.7
1021.4334	2945.4375	2904.8	2022.4
1021.5476	2946.5313	2800.95	1918.6
1021.6617	2947.6244	2708.45	1824.65
1021.7757	2948.7169	2616	1731.95
1021.8897	2949.8087	2536.7	1652.9
1022.0037	2950.8999	2446.05	1560.45
1022.1176	2951.9904	2380.65	1497.45
1022.2315	2953.0803	2302.9	1417.4
1022.3453	2954.1696	2242.35	1360.2
1022.4591	2955.2582	2189.8	1306.4
1022.5728	2956.3462	2151.4	1268.8
1022.6865	2957.4335	2113.75	1230.55
1022.8002	2958.5202	2072.25	1186.8
1022.9138	2959.6062	2043.4	1159.8
1023.0274	2960.6916	2024.25	1141.85
1023.141	2961.7764	2013.2	1128.2
1023.2545	2962.8605	1989.35	1104.55
1023.3679	2963.9439	1976.15	1092.25
1023.4813	2965.0267	1961.9	1076.85
1023.5947	2966.1089	1973.95	1069
1023.708	2967.1905	1953.6	1071.5
1023.8213	2968.2714	1954.15	1072.2
1023.9346	2969.3516	1950.95	1067.3
1024.0478	2970.4312	1960.6	1070.4
1024.1609	2971.5102	1957.75	1076.45
1024.274	2972.5885	1955.05	1071.7
1024.3871	2973.6662	1968.2	1081.15
1024.5002	2974.7432	1957.05	1075.45
1024.6132	2975.8196	1956.2	1074.15
1024.7261	2976.8954	1950.6	1068.35
1024.839	2977.9705	1944.35	1060.3
1024.9519	2979.045	1937.95	1056.15
1025.0647	2980.1188	1923.45	1041.55
1025.1775	2981.192	1894.35	1012.8
1025.2902	2982.2645	1894.9	1011.8
1025.4029	2983.3364	1869.35	988.4
1025.5156	2984.4077	1842.3	959.3
1025.6282	2985.4783	1817	928.25
1025.7407	2986.5483	1795.65	914.05
1025.8532	2987.6177	1757.9	874.4
1025.9657	2988.6864	1733.7	851.15
1026.0782	2989.7545	1692	806.55
1026.1906	2990.8219	1656.15	775.2
1026.3029	2991.8887	1637.95	752.4
1026.4152	2992.9548	1601.45	718.3
1026.5275	2994.0204	1569.3	687.05
1026.6397	2995.0852	1543.85	661.05
1026.7519	2996.1495	1514.7	630.55
1026.864	2997.2131	1485.65	602.35
1026.9761	2998.276	1464.7	583.55
1027.0882	2999.3383	1450.35	567
1027.2002	3000.4	1425.55	543.25
1027.3122	3001.4611	1411.6	529.7
1027.4241	3002.5215	1389.7	504.2
1027.536	3003.5812	1377.35	495.45
1027.6478	3004.6404	1362	481.5
1027.7596	3005.6989	1359.75	475.75
1027.8714	3006.7567	1341	457.7
1027.9831	3007.8139	1358.45	443.9
1028.0947	3008.8705	1324.75	443.5
1028.2064	3009.9264	1313.7	427.2
1028.3179	3010.9818	1302.7	419.7
1028.4295	3012.0364	1303.55	421.45
1028.541	3013.0905	1292.4	411.05
1028.6524	3014.1439	1282.75	400.7
1028.7638	3015.1966	1277.8	395.9
1028.8752	3016.2487	1274.55	393.6
1028.9865	3017.3002	1278.85	390.75
1029.0978	3018.3511	1263.75	384.5
1029.209	3019.4013	1261.45	381.4
1029.3202	3020.4509	1263.55	381.45
1029.4314	3021.4998	1264.2	381.95
1029.5425	3022.5481	1259.9	378.35
1029.6535	3023.5958	1258.45	377.1
1029.7645	3024.6428	1255	371.6
1029.8755	3025.6892	1251.85	370.5
1029.9864	3026.735	1256.35	375.6
1030.0973	3027.7802	1256.65	371.55
1030.2082	3028.8247	1253.9	371.5
1030.319	3029.8685	1257.7	377.4
1030.4297	3030.9118	1256.45	371.85
1030.5404	3031.9544	1252.15	370.9
1030.6511	3032.9963	1257.25	374.9
1030.7617	3034.0376	1260.65	380.3
1030.8723	3035.0783	1270.1	386.2
1030.9829	3036.1184	1255.5	372.3
1031.0934	3037.1578	1262.2	382
1031.2038	3038.1966	1267.9	384.85
1031.3142	3039.2348	1264.9	382.35
1031.4246	3040.2723	1277.15	385.6
1031.5349	3041.3092	1260.45	380.55
1031.6452	3042.3455	1261.45	380.25
1031.7554	3043.3811	1264.65	381.8
1031.8656	3044.4161	1267.35	383.7
1031.9758	3045.4505	1259.9	377.45
1032.0859	3046.4842	1265.1	383.75
1032.1959	3047.5173	1253.4	373.35
1032.3059	3048.5498	1258.3	374.65
1032.4159	3049.5816	1247.9	366.35
1032.5258	3050.6128	1250.6	368.65
1032.6357	3051.6434	1248.85	365.95
1032.7455	3052.6734	1250.25	368.6
1032.8553	3053.7027	1242.9	360.65
1032.9651	3054.7314	1238.85	358.65
1033.0748	3055.7594	1241.65	358.25
1033.1845	3056.7868	1239.5	355.9
1033.2941	3057.8136	1229.25	348.85
1033.4037	3058.8398	1230.3	349.45
1033.5132	3059.8653	1229.15	348.45
1033.6227	3060.8902	1227.05	345.6
1033.7321	3061.9145	1227.4	345.95
1033.8415	3062.9381	1223.4	343.7
1033.9509	3063.9612	1237.4	338.65
1034.0602	3064.9835	1216.1	331.85
1034.1694	3066.0053	1220.55	338.2
1034.2787	3067.0264	1206.55	325.35
1034.3878	3068.0469	1211.65	328.7
1034.497	3069.0668	1213.6	328
1034.6061	3070.086	1197.95	319.3
1034.7151	3071.1046	1192.9	311.55
1034.8241	3072.1226	1191	308
1034.9331	3073.1399	1179.35	298.75
1035.042	3074.1567	1181.1	301.15
1035.1508	3075.1727	1176.85	292.4
1035.2597	3076.1882	1169	289.5
1035.3684	3077.203	1161.85	281.65
1035.4772	3078.2173	1156.3	275.5
1035.5859	3079.2308	1152.4	269.7
1035.6945	3080.2438	1142.9	259.5
1035.8031	3081.2561	1129.95	248.1
1035.9117	3082.2678	1125.5	243.95
1036.0202	3083.2789	1126.1	244.6
1036.1286	3084.2893	1123.75	242.35
1036.2371	3085.2991	1122.7	242.85
1036.3454	3086.3083	1112.9	224
1036.4538	3087.3169	1104.95	223
1036.562	3088.3248	1106.95	224.8
1036.6703	3089.3321	1099.15	215.85
1036.7785	3090.3388	1094.65	215.3
1036.8866	3091.3449	1091	210.1
1036.9948	3092.3503	1089.85	206.35
1037.1028	3093.3551	1079.15	198.1
1037.2108	3094.3593	1080.25	197.75
1037.3188	3095.3629	1075.85	196.7
1037.4267	3096.3658	1074.65	193.25
1037.5346	3097.3681	1072.5	191.2
1037.6425	3098.3698	1072.3	190.1
1037.7503	3099.3708	1074.9	185.9
1037.858	3100.3713	1063.6	181.8
1037.9657	3101.3711	1063.15	181.2
1038.0734	3102.3702	1168	171.1
1038.181	3103.3688	1061.8	179.25
1038.2886	3104.3667	1053.4	175.75
1038.3961	3105.364	1053.55	172.85
1038.5036	3106.3607	1051.45	166.35
1038.611	3107.3568	1047.4	165.05
1038.7184	3108.3522	1048.5	168.4
1038.8257	3109.347	1047.55	164.8
1038.933	3110.3412	1047	160.85
1039.0403	3111.3348	1040.4	159.8
1039.1475	3112.3277	1041.35	160.75
1039.2547	3113.32	1034.05	158
1039.3618	3114.3117	1031.4	149.95
1039.4689	3115.3028	1033.4	151.9
1039.5759	3116.2932	1034.15	152
1039.6829	3117.2831	1031.3	145.45
1039.7898	3118.2723	1028.2	148.7
1039.8967	3119.2608	1023.8	142.95
1040.0035	3120.2488	1024.95	144.85
1040.1103	3121.2361	1023.95	144.5
1040.2171	3122.2229	1022.15	143.1
1040.3238	3123.209	1020.95	139.8
1040.4305	3124.1944	1015.15	135.5
1040.5371	3125.1793	1014.3	130.85
1040.6437	3126.1635	1013.35	133.1
1040.7502	3127.1471	1018.55	137.5
1040.8567	3128.1301	1013.15	134.95
1040.9631	3129.1125	1008.05	127.45
1041.0695	3130.0942	1014.05	134.55
1041.1759	3131.0753	1017.35	129.2
1041.2822	3132.0558	1009.75	125.55
1041.3884	3133.0357	1006.7	127.05
1041.4946	3134.015	1004.7	122.55
1041.6008	3134.9936	1005.9	122.15
1041.7069	3135.9716	1025.3	124.7
1041.813	3136.949	1000.8	120.85
1041.919	3137.9258	1018.15	118.5
1042.025	3138.902	1005.5	119.9
1042.1309	3139.8775	1001.75	121.95
1042.2368	3140.8524	994.85	114.2
1042.3427	3141.8267	1000.35	120.45
1042.4485	3142.8004	999.65	118.95
1042.5542	3143.7735	1005.7	118.3
1042.6599	3144.7459	997.7	114.1
1042.7656	3145.7178	996.15	114.45
1042.8712	3146.689	990.65	113.5
1042.9768	3147.6596	996.3	113.7
1043.0823	3148.6295	996.35	116.95
1043.1878	3149.5989	989.35	108.4
1043.2932	3150.5676	987.9	110.65
1043.3986	3151.5357	990.5	112.7
1043.5039	3152.5032	987.05	108.65
1043.6092	3153.4701	987.9	108.75
1043.7145	3154.4364	990.1	105.6
1043.8197	3155.402	987.85	108.55
1043.9248	3156.367	988.55	105.1
1044.03	3157.3315	1019.8	102.25
1044.135	3158.2952	986.3	105.65
1044.24	3159.2584	980.7	101.3
1044.345	3160.221	980.65	99.8
1044.4499	3161.1829	982.65	102.65
1044.5548	3162.1442	982.2	101.95
1044.6596	3163.105	980.4	101.25
1044.7644	3164.065	978.1	96.95
1044.8692	3165.0245	982.45	98.05
1044.9739	3165.9834	976.8	97.7
1045.0785	3166.9416	977.85	96.6
1045.1831	3167.8993	978.35	97.8
1045.2877	3168.8563	980	100.2
1045.3922	3169.8127	973.65	94.4
1045.4966	3170.7684	973.95	95.85
1045.6011	3171.7236	976.9	94.75
1045.7054	3172.6782	974.25	94.3
1045.8098	3173.6321	973	92.4
1045.914	3174.5854	977.3	93.35
1046.0183	3175.5381	971.9	92.65
1046.1224	3176.4902	971.3	90.8
1046.2266	3177.4417	968.4	89.3
1046.3307	3178.3926	966.4	85.4
1046.4347	3179.3428	966	87.25
1046.5387	3180.2924	970.2	90.05
1046.6427	3181.2415	970.5	89.55
1046.7466	3182.1899	968	86.9
1046.8504	3183.1377	968.5	89.15
1046.9542	3184.0848	970.3	88.4
1047.058	3185.0314	968.45	89.2
1047.1617	3185.9773	963.8	83.45
1047.2654	3186.9227	965.05	84.65
1047.369	3187.8674	963.95	85.95
1047.4726	3188.8115	968.25	83.9
1047.5761	3189.755	961.55	82.15
1047.6796	3190.6979	964.45	85.05
1047.783	3191.6402	959.2	80.1
1047.8864	3192.5818	963.05	83.65
1047.9898	3193.5229	968.2	82.05
1048.0931	3194.4633	961.5	82.05
1048.1963	3195.4031	961.85	82.35
1048.2995	3196.3423	958.35	78.45
1048.4027	3197.2809	957.6	79.1
1048.5058	3198.2189	961.6	80.1
1048.6089	3199.1563	976.2	79
1048.7119	3200.0931	957.6	77
1048.8148	3201.0292	956.65	75.6
1048.9178	3201.9648	957.35	77.6
1049.0206	3202.8997	958.35	76.25
1049.1235	3203.834	955.1	75.7
1049.2262	3204.7677	957.1	76.9
1049.329	3205.7008	958.05	76.2
1049.4317	3206.6333	952.75	75.4
1049.5343	3207.5652	954.05	71.15
1049.6369	3208.4964	952.9	73.55
1049.7394	3209.4271	951.85	72.75
1049.8419	3210.3571	953.4	74.85
1049.9444	3211.2865	953.25	72.5
1050.0468	3212.2154	952.2	73.25
1050.1491	3213.1436	953.6	72.4
1050.2514	3214.0712	958.7	73.55
1050.3537	3214.9982	951.35	73.75
1050.4559	3215.9246	947.15	67.25
1050.5581	3216.8503	947.1	68.3
1050.6602	3217.7755	946.5	68.05
1050.7623	3218.7001	950	70.85
1050.8643	3219.624	947.65	67.85
1050.9663	3220.5473	949.4	68.85
1051.0682	3221.4701	950.4	70.5
1051.1701	3222.3922	946.85	65.1
1051.2719	3223.3137	944.95	66.4
1051.3737	3224.2346	951.45	71.85
1051.4754	3225.1549	945.85	67.4
1051.5771	3226.0746	943.05	64.2
1051.6788	3226.9937	944.1	65.2
1051.7804	3227.9121	944.95	67.65
1051.8819	3228.83	945.15	69.15
1051.9834	3229.7473	945.1	66.75
1052.0849	3230.6639	942.7	63
1052.1863	3231.5799	940.45	62.9
1052.2876	3232.4954	943.35	62.5
1052.3889	3233.4102	945.15	65.55
1052.4902	3234.3244	944.7	66.25
1052.5914	3235.238	940.2	60.55
1052.6926	3236.151	963.45	62.75
1052.7937	3237.0634	941.25	64.2
1052.8948	3237.9752	941.5	63.4
1052.9958	3238.8864	939.25	60.45
1053.0968	3239.797	935.9	58.25
1053.1977	3240.7069	939.8	61.15
1053.2986	3241.6163	939.6	59.35
1053.3994	3242.5251	935.4	58.05
1053.5002	3243.4332	937.7	59.35
1053.6009	3244.3408	936.3	58.4
1053.7016	3245.2477	936.9	60.65
1053.8022	3246.154	934.9	55.75
1053.9028	3247.0598	934.7	54.45
1054.0034	3247.9649	935.65	56.65
1054.1039	3248.8694	930.4	52
1054.2043	3249.7733	933.75	57.7
1054.3047	3250.6766	934	54.65
1054.4051	3251.5793	932.6	52.35
1054.5054	3252.4814	930.85	53.25
1054.6056	3253.3829	931.9	51.1
1054.7058	3254.2838	931	51.85
1054.806	3255.1841	929.3	48.6
1054.9061	3256.0838	932.3	54.35
1055.0061	3256.9829	930.95	54.3
1055.1062	3257.8814	932.1	50.75
1055.2061	3258.7792	930.35	50.35
1055.306	3259.6765	928.85	49
1055.4059	3260.5731	924.55	45
1055.5057	3261.4692	923.7	44.55
1055.6055	3262.3647	928	47.4
1055.7052	3263.2595	925.25	46.15
1055.8049	3264.1538	926.5	47.15
1055.9045	3265.0474	923.5	47.65
1056.0041	3265.9404	923.1	46.55
1056.1036	3266.8329	920.85	41.7
1056.2031	3267.7247	929.85	41.7
1056.3025	3268.616	919.75	41.55
1056.4019	3269.5066	918.35	40.15
1056.5013	3270.3966	921.4	39.9
1056.6005	3271.286	915.25	37.45
