Software Version:	3.9.2.0
Unit SN:	10000200
Spectrometer SN:	6960
Date:	3/8/2024 1:05:14 PM
Data Line Index:	25
Spectral Points:	2048
Integration time (ms):	125
Averages:	20
Delay (ms):	30000
Sequence Number:	1
Processing:	dark subtract
Laser Power (mW):	300
Laser Current (mA):	822
Laser Diode Temp (C):	25.1
Laser Case Temp (C):	26.1
System Temp (C):	26.1
Spectrometer Temp (C):	24
CCD Temp (C):	0.012
Secondary Temp (C):	20.007
Heatsink Temp (C):	21.092
CCDPCB Temp (C):	36.318
SecondaryPCB Temp (C):	29.337

Wavelength	RamanShift	Raw Counts	Dark Subtracted
787.061	30.1047	459.35	53.2
787.2016	32.3739	457.75	52.05
787.3422	34.6426	465.4	57.95
787.4828	36.9109	469.6	60.3
787.6235	39.1787	479.4	66.55
787.7642	41.4461	491.4	72.7
787.9049	43.7131	495.1	75.1
788.0456	45.9796	503.95	80.6
788.1863	48.2456	514.15	87.5
788.3271	50.5112	523.15	90.85
788.4679	52.7764	530.35	94.9
788.6087	55.0411	544.95	104.8
788.7496	57.3054	557.7	111.05
788.8904	59.5692	562.25	114.8
789.0313	61.8326	573.5	125.05
789.1722	64.0955	586.6	133.05
789.3132	66.3579	600.8	142.7
789.4541	68.6199	624.1	162.15
789.5951	70.8815	659.55	192.15
789.7361	73.1426	744.15	274.95
789.8771	75.4032	953.85	478.85
790.0181	77.6634	1475.45	996.75
790.1592	79.9231	2699.7	2209.5
790.3003	82.1824	5345.55	4835.65
790.4414	84.4412	10084.35	9541.8
790.5825	86.6995	16607.7	16020.1
790.7237	88.9574	22878.05	22253.1
790.8648	91.2148	27197.1	26549
791.006	93.4717	29178.45	28512.75
791.1472	95.7282	29429.7	28755.95
791.2885	97.9842	29283.55	28602.55
791.4297	100.2398	28586.7	27905.05
791.571	102.4949	27832.8	27148.6
791.7123	104.7495	26980.9	26298.35
791.8536	107.0036	26093.6	25406.35
791.9949	109.2573	25259.55	24573.5
792.1363	111.5105	24557.35	23873.35
792.2777	113.7632	23840.2	23151.6
792.4191	116.0154	23257.5	22553.2
792.5605	118.2672	22839.3	22146.35
792.7019	120.5185	22415.05	21717
792.8434	122.7693	22091.15	21391.2
792.9849	125.0197	21808.45	21104.05
793.1264	127.2696	21545.05	20839.1
793.2679	129.519	21335.6	20622.8
793.4094	131.7679	21092.65	20378.5
793.551	134.0163	20912.7	20199.3
793.6926	136.2642	20563.3	19844.95
793.8342	138.5117	20285.45	19555.1
793.9758	140.7587	19962.5	19241.8
794.1175	143.0052	19678.2	18952.9
794.2591	145.2512	19363.35	18639.3
794.4008	147.4967	19094.7	18369.7
794.5425	149.7417	18902.9	18171.95
794.6842	151.9863	18754.4	18022.95
794.826	154.2304	18652.4	17913.9
794.9677	156.4739	18537.45	17791.9
795.1095	158.717	18402.7	17657.6
795.2513	160.9596	18245.5	17493.5
795.3931	163.2017	17983.5	17231.7
795.535	165.4433	17703.2	16948.6
795.6768	167.6844	17365.9	16607.3
795.8187	169.925	17077.3	16319.7
795.9606	172.1651	16678.45	15923.15
796.1025	174.4047	16448.5	15686.75
796.2445	176.6439	16189.05	15428.15
796.3864	178.8825	15946.85	15182.7
796.5284	181.1206	15819.45	15049.2
796.6704	183.3582	15690.4	14911.7
796.8124	185.5954	15567.65	14788.35
796.9544	187.832	15489.85	14709.2
797.0965	190.0681	15455.05	14672.2
797.2386	192.3037	15462.6	14668.35
797.3806	194.5388	15456.95	14664.7
797.5228	196.7734	15512.05	14719.65
797.6649	199.0075	15565.3	14769.2
797.807	201.2411	15720.5	14919.4
797.9492	203.4742	15800.4	15001.3
798.0914	205.7068	15970.6	15165.8
798.2336	207.9389	16089.05	15282.95
798.3758	210.1704	16264.45	15465.65
798.518	212.4015	16330.1	15537.9
798.6603	214.632	16508.3	15719.25
798.8025	216.862	16673.3	15893.55
798.9448	219.0915	16810.4	16026.45
799.0871	221.3205	16958.8	16173.25
799.2294	223.549	17132.2	16350.4
799.3718	225.777	17335.15	16557.55
799.5141	228.0044	17579.3	16793.65
799.6565	230.2314	17864.3	17075.4
799.7989	232.4578	18116.95	17327.85
799.9413	234.6837	18346.5	17555.4
800.0837	236.909	18496.25	17692.9
800.2262	239.1339	18485.65	17659.85
800.3687	241.3582	18360.75	17548.4
800.5111	243.582	18181.5	17338.1
800.6536	245.8053	17989.4	17159.3
800.7961	248.0281	17800.15	16977.7
800.9387	250.2503	17678.05	16847.85
801.0812	252.472	17663.6	16836.75
801.2238	254.6932	17727.65	16900.3
801.3664	256.9139	17761.75	16933.35
801.509	259.134	17876.25	17044.15
801.6516	261.3536	18013.3	17177.45
801.7942	263.5727	18209.9	17374.4
801.9369	265.7912	18368.9	17532.75
802.0795	268.0092	18573.9	17739.2
802.2222	270.2267	18628.4	17795
802.3649	272.4436	18669.45	17837.95
802.5076	274.6601	18657.65	17814.5
802.6504	276.8759	18563.8	17727.8
802.7931	279.0913	18497.85	17660.15
802.9359	281.3061	18428.45	17585.7
803.0787	283.5204	18389.65	17545.2
803.2215	285.7341	18382.1	17531.9
803.3643	287.9473	18495.2	17642.4
803.5071	290.16	18618.2	17766.5
803.6499	292.3721	18848.1	18003.25
803.7928	294.5837	19150.3	18302.4
803.9357	296.7947	19439.55	18590.45
804.0786	299.0052	19593.4	18746.3
804.2215	301.2152	19527.5	18680
804.3644	303.4246	19285.4	18442.1
804.5074	305.6334	18868.1	18028.15
804.6503	307.8418	18397.7	17547.9
804.7933	310.0495	17945	17091.25
804.9363	312.2568	17589.3	16735.55
805.0793	314.4635	17282.3	16429.2
805.2223	316.6696	17062.45	16203.7
805.3653	318.8752	16952.85	16085.65
805.5084	321.0802	16943.65	16083.55
805.6514	323.2847	17017.1	16153.65
805.7945	325.4887	17015	16151.55
805.9376	327.692	16987.75	16123.95
806.0807	329.8949	16944.7	16083.95
806.2238	332.0972	16727.3	15864.3
806.367	334.2989	16462.15	15591.95
806.5101	336.5001	16228.85	15362.75
806.6533	338.7007	16043.9	15173.65
806.7965	340.9008	15891.9	15019.75
806.9397	343.1003	15760.4	14885.95
807.0829	345.2992	15651.95	14776.9
807.2261	347.4976	15625.45	14754.05
807.3693	349.6955	15588.4	14711.2
807.5126	351.8927	15628.05	14745.5
807.6559	354.0895	15593.05	14701.25
807.7991	356.2856	15568.75	14686.1
807.9424	358.4812	15524.55	14644.4
808.0857	360.6763	15554.95	14670.65
808.2291	362.8707	15551.5	14664.55
808.3724	365.0646	15597.05	14708.1
808.5158	367.258	15611.45	14726.15
808.6591	369.4508	15696.9	14807
808.8025	371.643	15830.3	14941.6
808.9459	373.8346	15834.8	14942.95
809.0893	376.0257	15892.35	14995.95
809.2327	378.2162	15834.3	14938.5
809.3762	380.4062	15799.2	14907.65
809.5196	382.5956	15665.35	14774.2
809.6631	384.7844	15581.8	14693.9
809.8066	386.9726	15435.1	14547.6
809.9501	389.1603	15400.5	14513.95
810.0936	391.3474	15354.55	14437.65
810.2371	393.5339	15295.5	14407.6
810.3806	395.7199	15268.75	14381.4
810.5241	397.9052	15290.05	14407.5
810.6677	400.09	15375.3	14492.15
810.8113	402.2743	15493.6	14610.15
810.9548	404.4579	15611.8	14726.45
811.0984	406.641	15835.15	14946.5
811.2421	408.8235	16020.7	15134.85
811.3857	411.0054	16208.9	15318.85
811.5293	413.1868	16535.15	15638
811.673	415.3675	16745.75	15843
811.8166	417.5477	16826.35	15930.4
811.9603	419.7273	16815.35	15914.1
812.104	421.9064	16730.55	15824.8
812.2477	424.0848	16631.8	15733.95
812.3914	426.2627	16493.35	15595.9
812.5351	428.4399	16229.05	15327.55
812.6788	430.6166	15880.3	14971.7
812.8226	432.7928	15528.95	14624.45
812.9663	434.9683	15251.15	14349
813.1101	437.1432	15005.9	14105.4
813.2539	439.3176	14849.25	13954.7
813.3977	441.4914	14714.7	13824.55
813.5415	443.6645	14681.3	13788.4
813.6853	445.8371	14628.5	13732.3
813.8291	448.0091	14586.2	13684.65
813.973	450.1806	14555.8	13652.4
814.1168	452.3514	14527.6	13634.25
814.2607	454.5216	14563.6	13655.9
814.4046	456.6913	14494	13592.4
814.5485	458.8603	14583.1	13685.3
814.6924	461.0288	14637.15	13744.35
814.8363	463.1967	14639.75	13748.45
814.9802	465.3639	14704.7	13810.7
815.1241	467.5306	14726.15	13824.9
815.2681	469.6967	14782.65	13888.35
815.412	471.8622	14880.7	13986.5
815.556	474.0271	14980.3	14082.05
815.7	476.1914	15037.35	14136.15
815.844	478.3551	15026.85	14126.95
815.988	480.5182	15086.65	14193.15
816.132	482.6807	15119.05	14229.95
816.276	484.8426	15291.15	14407.05
816.4201	487.0039	15601.8	14711.9
816.5641	489.1647	16005.9	15106.6
816.7082	491.3248	16375.7	15473.5
816.8522	493.4843	16512.5	15614.1
816.9963	495.6432	16490.05	15595.85
817.1404	497.8015	16360.1	15453.5
817.2845	499.9592	16297.2	15386
817.4286	502.1163	16169.95	15259.35
817.5727	504.2728	15922.8	15019.7
817.7168	506.4287	15608.45	14718.9
817.861	508.5839	15243.9	14353.3
818.0051	510.7386	15004.6	14102.8
818.1493	512.8927	14880.6	13968.35
818.2935	515.0461	14855.15	13946.45
818.4377	517.199	14856	13943.75
818.5818	519.3512	14956.1	14042.7
818.726	521.5029	15154.85	14240.2
818.8703	523.6539	15326.65	14417.8
819.0145	525.8043	15405.15	14492.8
819.1587	527.9541	15379.65	14463.7
819.303	530.1033	15275.1	14365.35
819.4472	532.2519	15204.85	14294.7
819.5915	534.3999	15240.8	14327.4
819.7357	536.5472	15399	14486.8
819.88	538.694	15694.1	14791.7
820.0243	540.8401	16149.85	15238.7
820.1686	542.9856	16434.7	15515.55
820.3129	545.1305	16560.1	15632.9
820.4572	547.2748	16496.8	15568.4
820.6016	549.4185	16218.75	15291.15
820.7459	551.5615	15979.5	15051.55
820.8902	553.704	15925.35	14997.15
821.0346	555.8458	15924.2	15006
821.1789	557.987	16036	15116.05
821.3233	560.1276	16191.75	15266.75
821.4677	562.2675	16433.2	15511.9
821.6121	564.4069	16731.8	15811.95
821.7565	566.5456	16982.9	16063.15
821.9009	568.6837	17049.6	16130.05
822.0453	570.8212	16699.95	15779.3
822.1897	572.958	16127.75	15207.85
822.3342	575.0942	15644.95	14729.95
822.4786	577.2299	15314.55	14401.9
822.6231	579.3648	15178.6	14276.9
822.7675	581.4992	15174.3	14285.6
822.912	583.6329	15329.3	14439.3
823.0565	585.766	15522.7	14630.8
823.201	587.8985	15661.3	14757.25
823.3454	590.0304	15709.3	14769.15
823.4899	592.1616	15648.2	14724.7
823.6345	594.2922	15533.5	14609.2
823.779	596.4222	15359.85	14433.75
823.9235	598.5515	15157.3	14228.5
824.068	600.6802	15010.9	14083.1
824.2126	602.8083	14829.7	13908
824.3571	604.9358	14807.15	13881.95
824.5017	607.0626	14800.15	13874.05
824.6462	609.1888	14834.3	13898.25
824.7908	611.3144	14925.6	13990.55
824.9354	613.4393	14937.3	14004.8
825.08	615.5636	14950.3	14019.25
825.2246	617.6873	14912.3	13979.05
825.3692	619.8103	14858.2	13925.45
825.5138	621.9327	14725.8	13796.5
825.6584	624.0544	14540.1	13619.8
825.803	626.1756	14468.7	13548.75
825.9477	628.2961	14359.75	13429.9
826.0923	630.4159	14288.45	13357.2
826.237	632.5351	14277.4	13343.05
826.3816	634.6537	14231	13296.1
826.5263	636.7716	14221.45	13279.15
826.6709	638.8889	14239.3	13300.35
826.8156	641.0056	14308.55	13367.7
826.9603	643.1216	14279.1	13339.8
827.105	645.237	14276.85	13339.9
827.2497	647.3518	14238.85	13311.15
827.3944	649.4659	14199.1	13275.5
827.5391	651.5793	14157.6	13232.6
827.6838	653.6922	14128.55	13199.3
827.8285	655.8043	14144.5	13215.9
827.9733	657.9159	14111.05	13182.45
828.118	660.0268	14059.8	13126.8
828.2627	662.137	14057.3	13128.05
828.4075	664.2466	14082.85	13141.25
828.5522	666.3556	14084.95	13147.8
828.697	668.4639	13972.5	13039.9
828.8418	670.5716	14003.9	13078.5
828.9865	672.6786	14037.75	13104.25
829.1313	674.785	14021.05	13078.2
829.2761	676.8907	14056.6	13122.55
829.4209	678.9958	14058.95	13130.5
829.5657	681.1002	14080.3	13147.7
829.7105	683.204	14071.25	13126.5
829.8553	685.3072	14051.7	13109.5
830.0001	687.4097	14010.6	13074.25
830.1449	689.5115	13988.85	13047.9
830.2898	691.6127	13973.1	13036.3
830.4346	693.7132	13934.85	12998.45
830.5794	695.8131	13923.95	12975.6
830.7243	697.9123	13940.2	12994.6
830.8691	700.0109	13918.4	12971.65
831.014	702.1089	13937.5	12992.9
831.1588	704.2061	13988	13044.6
831.3037	706.3028	14012.5	13069.45
831.4486	708.3987	14060.6	13117.7
831.5935	710.4941	14082.45	13143.65
831.7383	712.5887	14222.7	13281.75
831.8832	714.6827	14374.7	13431.6
832.0281	716.7761	14600.1	13664.05
832.173	718.8688	14858.25	13923.55
832.3179	720.9608	15037.55	14088.65
832.4628	723.0522	15165.25	14210.35
832.6077	725.1429	15124.8	14175.2
832.7527	727.233	15051.05	14107.4
832.8976	729.3224	14950	14007.45
833.0425	731.4112	14787.7	13844.05
833.1874	733.4993	14646.4	13700.2
833.3324	735.5867	14448.3	13504.95
833.4773	737.6735	14287.7	13342.9
833.6222	739.7596	14152.55	13207.35
833.7672	741.845	14048.85	13102.95
833.9122	743.9298	13967.6	13019.95
834.0571	746.014	13963.15	13015.65
834.2021	748.0974	13984.05	13032.6
834.347	750.1802	14004.3	13051.05
834.492	752.2624	14013.85	13062.5
834.637	754.3439	14053.2	13100.1
834.782	756.4247	14170.85	13212.7
834.9269	758.5048	14315.25	13367.15
835.0719	760.5843	14575.1	13623.05
835.2169	762.6631	14976.65	14022
835.3619	764.7413	15441.95	14491.8
835.5069	766.8188	16126.95	15174.25
835.6519	768.8956	16679.9	15727.2
835.7969	770.9718	17027.05	16076.3
835.9419	773.0473	16899.35	15949.05
836.0869	775.1221	16606.25	15659.35
836.232	777.1962	16277.35	15328.35
836.377	779.2697	16141.75	15187.55
836.522	781.3426	16158.85	15198.55
836.667	783.4147	16327.8	15375.95
836.8121	785.4862	16483	15530.05
836.9571	787.557	16409.35	15459.95
837.1021	789.6271	16019.8	15063.05
837.2472	791.6966	15420.65	14466.75
837.3922	793.7654	14850.1	13897.45
837.5373	795.8335	14464.4	13515.8
837.6823	797.901	14233.6	13280.7
837.8274	799.9678	14125.45	13169.2
837.9724	802.0339	14062.4	13111.05
838.1175	804.0993	14046.85	13080.65
838.2626	806.1641	14011.9	13054.3
838.4076	808.2282	13933.8	12979.05
838.5527	810.2916	13865.7	12913.2
838.6978	812.3544	13804.95	12854.55
838.8428	814.4164	13715.55	12765.65
838.9879	816.4778	13771.1	12812.75
839.133	818.5385	13791.2	12831.95
839.2781	820.5986	13937.2	12985.7
839.4232	822.658	14119.2	13163.05
839.5682	824.7166	14350.7	13397.85
839.7133	826.7747	14751.35	13796.25
839.8584	828.832	15138.55	14183.7
840.0035	830.8886	15373.15	14417.35
840.1486	832.9446	15551.65	14588.95
840.2937	834.9999	15493.7	14536.9
840.4388	837.0545	15344.15	14388.2
840.5839	839.1085	15144.8	14187.7
840.729	841.1618	14912.5	13949.9
840.8741	843.2143	14773.25	13811.6
841.0192	845.2662	14597.25	13639.4
841.1643	847.3175	14495	13536
841.3095	849.368	14390.85	13432.3
841.4546	851.4179	14302.1	13342.2
841.5997	853.467	14172.85	13217.4
841.7448	855.5155	14092.85	13134.2
841.8899	857.5633	14013.8	13054.3
842.0351	859.6105	13901.1	12941
842.1802	861.6569	13863.2	12905.5
842.3253	863.7027	13778.75	12818.2
842.4704	865.7478	13770.4	12808.9
842.6156	867.7922	13748.15	12789.35
842.7607	869.8359	13773.25	12813.65
842.9058	871.8789	13835.5	12876.8
843.0509	873.9212	13958.85	12965.25
843.1961	875.9629	14048.7	13088.95
843.3412	878.0039	14208.85	13245.8
843.4863	880.0441	14319.8	13358.85
843.6315	882.0837	14343.45	13384.3
843.7766	884.1226	14334.15	13372.95
843.9218	886.1609	14317.55	13358.4
844.0669	888.1984	14312.35	13352.4
844.212	890.2352	14391.5	13430.6
844.3572	892.2714	14432.05	13469.6
844.5023	894.3069	14382.3	13417.4
844.6475	896.3416	14203.7	13246.8
844.7926	898.3757	14154.95	13194.6
844.9377	900.4091	14105.75	13143.6
845.0829	902.4418	14106.15	13140.65
845.228	904.4739	14129.75	13164.4
845.3732	906.5052	14176.85	13214.2
845.5183	908.5358	14121	13157.8
845.6635	910.5658	13944.7	12980.4
845.8086	912.595	13733.5	12773.25
845.9538	914.6236	13564.35	12601
846.0989	916.6515	13472.7	12511.65
846.2441	918.6786	13398.15	12430.25
846.3892	920.7051	13491.45	12530.5
846.5344	922.7309	13564.4	12599.05
846.6795	924.756	13570	12608.55
846.8246	926.7804	13660.3	12697.15
846.9698	928.8041	13621	12658.55
847.1149	930.8272	13700.8	12735.95
847.2601	932.8495	13647.15	12679.3
847.4052	934.8711	13606.05	12638.9
847.5504	936.892	13538.05	12574.9
847.6955	938.9123	13437.15	12471.85
847.8407	940.9318	13434.5	12472
847.9858	942.9506	13379.75	12416.9
848.131	944.9688	13279.05	12317.1
848.2761	946.9862	13196.65	12235.75
848.4213	949.003	13094.05	12131.4
848.5664	951.019	13024.7	12062.7
848.7115	953.0344	13010.35	12045.4
848.8567	955.0491	13054.4	12089.85
849.0018	957.063	13142.25	12182.75
849.147	959.0763	13185.85	12221.95
849.2921	961.0888	13239.15	12278.85
849.4373	963.1007	13308.15	12348.15
849.5824	965.1119	13328.2	12378.85
849.7275	967.1223	13335.25	12393.1
849.8727	969.1321	13316.6	12368.25
850.0178	971.1412	13343.4	12389.75
850.1629	973.1495	13319.45	12360.4
850.3081	975.1572	13400.7	12385.35
850.4532	977.1641	13386.05	12425.8
850.5983	979.1704	13378.7	12413.35
850.7435	981.1759	13379.45	12413.5
850.8886	983.1808	13377	12411.75
851.0337	985.1849	13406.85	12433.55
851.1788	987.1884	13531.7	12567.2
851.324	989.1911	13658	12695.65
851.4691	991.1932	13742.35	12780.35
851.6142	993.1945	13764	12801.4
851.7593	995.1951	13737.9	12773.3
851.9045	997.1951	13713.5	12747.3
852.0496	999.1943	13662.3	12701.5
852.1947	1001.1928	13640.5	12678.75
852.3398	1003.1906	13653	12687.75
852.4849	1005.1877	13732.8	12771.3
852.63	1007.1841	13774.15	12815.15
852.7751	1009.1798	13719.6	12762.7
852.9202	1011.1748	13620.55	12659.75
853.0653	1013.1691	13439.95	12478.3
853.2104	1015.1627	13257.1	12295.4
853.3555	1017.1556	13029.35	12071.3
853.5006	1019.1477	12922.85	11968.45
853.6457	1021.1392	12803.8	11849.4
853.7908	1023.1299	12770.15	11821.75
853.9359	1025.12	12800.6	11856.05
854.081	1027.1093	12861.2	11935.8
854.2261	1029.0979	12949.95	12025.85
854.3712	1031.0859	13017.35	12085.15
854.5163	1033.0731	13056.2	12109.7
854.6613	1035.0596	13005.35	12056.1
854.8064	1037.0454	12894.5	11940.7
854.9515	1039.0304	12764.7	11807.45
855.0965	1041.0148	12630.5	11671.6
855.2416	1042.9985	12575.15	11616.75
855.3867	1044.9814	12510.55	11554.1
855.5317	1046.9636	12465.5	11507.9
855.6768	1048.9452	12436.8	11483.35
855.8219	1050.926	12443.65	11490.25
855.9669	1052.9061	12473.45	11514.15
856.112	1054.8855	12455.4	11497.4
856.257	1056.8642	12525.9	11564.85
856.4021	1058.8421	12611.15	11647.7
856.5471	1060.8194	12641.7	11679.9
856.6921	1062.7959	12676.1	11714.05
856.8372	1064.7717	12745.85	11787.8
856.9822	1066.7469	12767.75	11810.9
857.1272	1068.7213	12798.1	11835.15
857.2723	1070.695	12815.85	11854.95
857.4173	1072.6679	12804	11845.05
857.5623	1074.6402	12813.35	11854.15
857.7073	1076.6117	12794	11829.95
857.8523	1078.5826	12725.05	11764.35
857.9973	1080.5527	12626.9	11664.3
858.1423	1082.5221	12618.7	11658.8
858.2873	1084.4908	12680.55	11720.2
858.4323	1086.4587	12763.4	11804.35
858.5773	1088.426	12844	11885.95
858.7223	1090.3925	12891	11924.8
858.8673	1092.3584	12881.75	11923.6
859.0123	1094.3235	12831.2	11874.45
859.1573	1096.2879	12850.9	11891.05
859.3022	1098.2515	12895.95	11938.5
859.4472	1100.2145	13032.95	12078.1
859.5922	1102.1767	13215.7	12257
859.7371	1104.1382	13412.1	12458.55
859.8821	1106.099	13625.75	12669.55
860.027	1108.0591	13843.3	12887.75
860.172	1110.0185	13972.1	13015.05
860.3169	1111.9771	14021.05	13063.8
860.4619	1113.9351	13865.65	12907.75
860.6068	1115.8923	13701.45	12741.95
860.7517	1117.8488	13475.85	12515.85
860.8967	1119.8045	13236.35	12281.95
861.0416	1121.7596	13132.55	12177.9
861.1865	1123.7139	13020.6	12064.45
861.3314	1125.6675	12995.85	12039.2
861.4763	1127.6204	13042.7	12084.05
861.6212	1129.5726	13008.5	12051.35
861.7661	1131.524	12958.8	11999.75
861.911	1133.4748	12882.75	11925.8
862.0559	1135.4248	12743.35	11783.3
862.2008	1137.3741	12652.4	11698.15
862.3457	1139.3226	12560.8	11602.75
862.4905	1141.2705	12526.25	11570.65
862.6354	1143.2176	12411.7	11449.9
862.7803	1145.164	12390.6	11432.8
862.9251	1147.1097	12356.7	11398.3
863.07	1149.0546	12272.55	11315.75
863.2148	1150.9989	12209.7	11249.3
863.3597	1152.9424	12088.85	11130.25
863.5045	1154.8852	11990.4	11030.4
863.6493	1156.8272	11892.15	10935.6
863.7942	1158.7686	11922.55	10954.6
863.939	1160.7092	11887	10928.1
864.0838	1162.6491	11911.05	10949.9
864.2286	1164.5883	12025.15	11064.45
864.3734	1166.5267	12095.25	11138.35
864.5182	1168.4644	12290.1	11334.6
864.663	1170.4014	12450.3	11495.1
864.8078	1172.3377	12731.5	11781.45
864.9526	1174.2732	12997.65	12044.35
865.0974	1176.2081	13369.3	12417.2
865.2421	1178.1421	13711.1	12749.7
865.3869	1180.0755	14152.05	13194.1
865.5317	1182.0082	14383.5	13431.15
865.6764	1183.9401	14493.35	13541
865.8212	1185.8713	14341.4	13391.55
865.9659	1187.8017	14084.25	13142.7
866.1106	1189.7315	13733.15	12803.65
866.2554	1191.6605	13366.1	12433.7
866.4001	1193.5888	13113.5	12175.7
866.5448	1195.5163	12978.15	12032.25
866.6895	1197.4432	12911.55	11959.35
866.8342	1199.3693	12873.7	11924.2
866.9789	1201.2947	12848.55	11891.05
867.1236	1203.2193	12815.25	11862.05
867.2683	1205.1432	12822.75	11869.75
867.413	1207.0664	12815.75	11864.4
867.5576	1208.9889	12816.65	11861.75
867.7023	1210.9106	12805	11851.45
867.847	1212.8316	12796.65	11845.2
867.9916	1214.7519	12853.2	11891
868.1363	1216.6715	12870.8	11914.55
868.2809	1218.5903	12919	11967.55
868.4255	1220.5084	12966.95	12016.55
868.5701	1222.4257	13031.15	12079.6
868.7148	1224.3424	13029.45	12080.9
868.8594	1226.2583	13109	12151.7
869.004	1228.1735	13202.4	12252.95
869.1486	1230.0879	13342.9	12390.05
869.2932	1232.0016	13469.8	12516
869.4377	1233.9146	13582.75	12630.7
869.5823	1235.8269	13515.85	12561.4
869.7269	1237.7384	13433.55	12486.45
869.8715	1239.6492	13269.1	12318.35
870.016	1241.5592	13210.6	12258.45
870.1606	1243.4686	13223.15	12274.7
870.3051	1245.3772	13284.9	12333.4
870.4496	1247.285	13409.25	12457.2
870.5941	1249.1922	13462.7	12512.1
870.7387	1251.0986	13552.7	12600.15
870.8832	1253.0042	13608.8	12658.1
871.0277	1254.9092	13647.1	12697.75
871.1722	1256.8134	13748.15	12799.4
871.3167	1258.7169	13880.9	12933.45
871.4611	1260.6196	14028.9	13078.9
871.6056	1262.5216	14277.6	13325.85
871.7501	1264.4229	14447.7	13501.4
871.8945	1266.3234	14648.45	13699.65
872.039	1268.2232	14764.6	13811.95
872.1834	1270.1223	14811.2	13857.6
872.3278	1272.0207	14819.9	13869.8
872.4723	1273.9183	14776.95	13824.05
872.6167	1275.8151	14722.7	13774.1
872.7611	1277.7113	14697.35	13748.5
872.9055	1279.6067	14647.9	13703.15
873.0499	1281.5014	14783.85	13831.25
873.1943	1283.3953	14990.2	14039.05
873.3386	1285.2885	15282.25	14331.2
873.483	1287.181	15601.4	14653.9
873.6274	1289.0727	15917.85	14976.15
873.7717	1290.9637	16099.3	15152.3
873.9161	1292.854	16262.05	15313.4
874.0604	1294.7435	16323.35	15375.4
874.2047	1296.6323	16323.95	15375.2
874.349	1298.5204	16307.85	15355
874.4933	1300.4077	16289.65	15339.2
874.6376	1302.2943	16200.6	15252.25
874.7819	1304.1802	16056.8	15107.8
874.9262	1306.0653	15748.9	14798.9
875.0705	1307.9497	15369.25	14420.9
875.2147	1309.8333	15059.5	14115.45
875.359	1311.7162	14855.45	13906.55
875.5032	1313.5984	14732.55	13781.2
875.6475	1315.4798	14654.3	13694.95
875.7917	1317.3605	14636.6	13673.6
875.9359	1319.2405	14581.6	13633.1
876.0801	1321.1197	14408.75	13456.45
876.2243	1322.9982	14215.9	13261.45
876.3685	1324.876	14003.2	13055.25
876.5127	1326.753	13775.1	12826.75
876.6569	1328.6293	13675.5	12727.9
876.801	1330.5048	13561.6	12614.7
876.9452	1332.3796	13428.55	12481.3
877.0893	1334.2537	13399.05	12420.9
877.2335	1336.127	13331.7	12385.4
877.3776	1337.9996	13294.65	12344.6
877.5217	1339.8714	13289.85	12339.9
877.6658	1341.7426	13299.7	12307.55
877.8099	1343.6129	13289.65	12337.05
877.954	1345.4826	13289.15	12339.35
878.0981	1347.3515	13283.5	12329.35
878.2422	1349.2196	13248.95	12301.4
878.3862	1351.087	13267.85	12318.7
878.5303	1352.9537	13312.95	12362.4
878.6743	1354.8197	13432.85	12484.6
878.8184	1356.6849	13584.35	12635.95
878.9624	1358.5493	13729.8	12781.3
879.1064	1360.4131	13858.95	12912.6
879.2504	1362.276	13903.15	12956.75
879.3944	1364.1383	13822.55	12876.05
879.5384	1365.9998	13629.2	12677.55
879.6823	1367.8606	13278.55	12325.7
879.8263	1369.7206	12939.1	11989.55
879.9702	1371.5799	12634	11682.15
880.1142	1373.4384	12396.8	11447
880.2581	1375.2962	12190.7	11242.7
880.402	1377.1533	11863.15	10915.95
880.5459	1379.0096	11527.7	10583.35
880.6898	1380.8652	11204.85	10265.15
880.8337	1382.7201	10909.25	9965.1
880.9776	1384.5742	10645.85	9700.1
881.1215	1386.4275	10480.45	9533.95
881.2653	1388.2802	10343.85	9398.95
881.4092	1390.132	10227.2	9279
881.553	1391.9832	10186.75	9238.8
881.6968	1393.8336	10070.45	9122.5
881.8406	1395.6832	10021.55	9075.05
881.9844	1397.5322	9968.8	9023.2
882.1282	1399.3803	9965.8	9013.65
882.272	1401.2278	9894.9	8951.6
882.4158	1403.0745	9898.5	8955.15
882.5595	1404.9204	9887.5	8943.55
882.7033	1406.7656	9892.5	8944.75
882.847	1408.6101	9910.35	8962.95
882.9908	1410.4538	9940.1	8995.05
883.1345	1412.2968	9960.95	9014.3
883.2782	1414.139	10025.75	9082.15
883.4219	1415.9805	10101.05	9158.2
883.5656	1417.8213	10167.55	9215.65
883.7092	1419.6613	10248.8	9306.25
883.8529	1421.5006	10439.6	9498.9
883.9965	1423.3391	10649.1	9706.15
884.1402	1425.1769	10937.9	9990.8
884.2838	1427.0139	11391.95	10447.8
884.4274	1428.8502	11919.15	10973.25
884.571	1430.6858	12455.9	11513.55
884.7146	1432.5206	12857.75	11913
884.8582	1434.3547	13073	12130.7
885.0018	1436.188	13100.65	12158.7
885.1453	1438.0206	12972.85	12028.55
885.2889	1439.8524	12816.2	11872.6
885.4324	1441.6835	12714	11771.75
885.5759	1443.5139	12607.1	11660.25
885.7194	1445.3435	12537.4	11596.7
885.8629	1447.1724	12503.2	11562.15
886.0064	1449.0005	12433.6	11494.35
886.1499	1450.8279	12360.9	11416.55
886.2933	1452.6545	12343.05	11401.35
886.4368	1454.4804	12352.6	11412.9
886.5802	1456.3056	12351.65	11406.5
886.7237	1458.13	12278.7	11339.15
886.8671	1459.9536	12105.25	11165.1
887.0105	1461.7766	11788.45	10848.5
887.1539	1463.5987	11419.85	10477.8
887.2972	1465.4202	11071.2	10129.6
887.4406	1467.2409	10739.2	9795.85
887.584	1469.0608	10470.2	9530.2
887.7273	1470.88	10181.8	9238.8
887.8706	1472.6984	9964.8	9026.75
888.0139	1474.5161	9769.4	8827.7
888.1572	1476.3331	9590	8649.6
888.3005	1478.1493	9458.35	8518.8
888.4438	1479.9648	9393.5	8453.35
888.5871	1481.7795	9290.3	8349.75
888.7303	1483.5935	9241.3	8302.1
888.8736	1485.4067	9130.85	8191.6
889.0168	1487.2192	9100.8	8156.8
889.16	1489.031	9081.45	8137.8
889.3032	1490.842	9032.95	8095.3
889.4464	1492.6522	8987.3	8045.95
889.5896	1494.4618	8948.45	8006
889.7327	1496.2705	8918.85	7978.1
889.8759	1498.0785	8871.3	7931.25
890.019	1499.8858	8837.5	7896.4
890.1622	1501.6924	8791.7	7854.75
890.3053	1503.4981	8779.35	7840.75
890.4484	1505.3032	8707.55	7768.35
890.5914	1507.1075	8674.4	7732.85
890.7345	1508.911	8639.9	7700.1
890.8776	1510.7138	8603.25	7660.95
891.0206	1512.5159	8544	7603.3
891.1637	1514.3172	8482.45	7544.05
891.3067	1516.1178	8430.4	7491.05
891.4497	1517.9176	8419.45	7479.1
891.5927	1519.7166	8364.3	7426.7
891.7357	1521.515	8357.15	7413.8
891.8786	1523.3126	8323.85	7389.85
892.0216	1525.1094	8278.25	7341.3
892.1645	1526.9055	8277.25	7344.6
892.3074	1528.7008	8247.7	7310.55
892.4503	1530.4954	8162.5	7224.8
892.5932	1532.2893	8181.85	7250.9
892.7361	1534.0824	8117.05	7180.85
892.879	1535.8747	8132	7199.8
893.0218	1537.6663	8125.85	7195.8
893.1647	1539.4572	8077	7141
893.3075	1541.2473	8093.2	7159.2
893.4503	1543.0367	8098.35	7166.3
893.5931	1544.8253	8074.7	7134.6
893.7359	1546.6132	8116.2	7180.5
893.8787	1548.4003	8130.15	7187.1
894.0214	1550.1867	8167.1	7228.25
894.1642	1551.9723	8207.4	7274.05
894.3069	1553.7572	8257.2	7326.95
894.4496	1555.5414	8348.4	7421.05
894.5923	1557.3247	8449	7524.55
894.735	1559.1074	8571.1	7645.6
894.8777	1560.8893	8719.05	7796.05
895.0204	1562.6705	8818.45	7893.4
895.163	1564.4509	8918.9	7991.45
895.3056	1566.2305	8981.4	8061.45
895.4482	1568.0094	9036.85	8115.3
895.5908	1569.7876	9025.45	8103.95
895.7334	1571.565	9005.6	8078.8
895.876	1573.3417	8995.85	8073
896.0186	1575.1176	8966.15	8043.55
896.1611	1576.8928	8935.45	8013.95
896.3036	1578.6672	8891.75	7979.65
896.4461	1580.4409	8878.1	7965.55
896.5886	1582.2138	8840.45	7923.7
896.7311	1583.986	8836.95	7914.2
896.8736	1585.7575	8842.25	7921.05
897.0161	1587.5282	8862.45	7946.85
897.1585	1589.2981	8917.05	8001.8
897.3009	1591.0673	8941.85	8027.5
897.4433	1592.8358	9016.3	8103.95
897.5857	1594.6035	9092.35	8170.15
897.7281	1596.3704	9156.35	8237.4
897.8705	1598.1366	9202.5	8281.7
898.0128	1599.9021	9293.7	8376.2
898.1551	1601.6668	9394	8477.25
898.2975	1603.4308	9499.25	8576.45
898.4398	1605.194	9637.9	8716.4
898.5821	1606.9564	9809.45	8902.55
898.7243	1608.7182	10027.6	9117.8
898.8666	1610.4791	10249.8	9349.1
899.0088	1612.2394	10479.5	9576.8
899.1511	1613.9988	10744.35	9841.2
899.2933	1615.7576	11004.15	10096.65
899.4355	1617.5156	11212.2	10288.5
899.5776	1619.2728	11332	10415.1
899.7198	1621.0293	11316.45	10398.95
899.862	1622.785	11185.35	10266.75
900.0041	1624.54	10936.9	10024.2
900.1462	1626.2942	10687.35	9777.65
900.2883	1628.0477	10341.85	9428.15
900.4304	1629.8005	10061.2	9146.9
900.5725	1631.5525	9791.6	8881.55
900.7145	1633.3037	9549.6	8642.6
900.8566	1635.0542	9346.05	8436.5
900.9986	1636.804	9232.5	8323.85
901.1406	1638.553	9204.4	8206.05
901.2826	1640.3013	9074.8	8160.9
901.4245	1642.0488	9068	8156.2
901.5665	1643.7955	9079.6	8172.05
901.7085	1645.5416	9134.7	8230.4
901.8504	1647.2868	9250.2	8342.4
901.9923	1649.0313	9361.9	8449.05
902.1342	1650.7751	9521.1	8607.9
902.2761	1652.5181	9669.05	8759.2
902.4179	1654.2604	9825.7	8924.05
902.5598	1656.0019	10074.8	9168.35
902.7016	1657.7427	10322.05	9413.35
902.8434	1659.4828	10600	9689.25
902.9852	1661.222	10746.5	9834.9
903.127	1662.9606	10707	9795.35
903.2687	1664.6984	10460.75	9549.45
903.4105	1666.4354	10038.5	9123.7
903.5522	1668.1717	9505.85	8591.05
903.6939	1669.9072	8945.4	8031.4
903.8356	1671.642	8493.45	7577.6
903.9773	1673.3761	8095.7	7184.3
904.119	1675.1094	7799.25	6889.25
904.2606	1676.8419	7543.15	6632.75
904.4022	1678.5737	7350.35	6438.65
904.5439	1680.3048	7174.3	6261.7
904.6855	1682.0351	7050.85	6137.55
904.827	1683.7646	6959.75	6044.05
904.9686	1685.4934	6848.35	5936.85
905.1101	1687.2215	6779.8	5869.5
905.2517	1688.9488	6719.8	5813.95
905.3932	1690.6754	6633.35	5723.25
905.5347	1692.4012	6631.35	5718.7
905.6761	1694.1263	6570.8	5657.65
905.8176	1695.8506	6519.35	5607.85
905.9591	1697.5742	6491.7	5583.95
906.1005	1699.297	6429.8	5526.8
906.2419	1701.0191	6358.6	5455.85
906.3833	1702.7404	6322.6	5420.2
906.5246	1704.461	6303.15	5393.4
906.666	1706.1808	6251.9	5344.25
906.8073	1707.8999	6243.15	5341.2
906.9487	1709.6182	6200.5	5295.85
907.09	1711.3358	6165.5	5266.1
907.2313	1713.0527	6139.35	5242.35
907.3725	1714.7688	6122.6	5216.45
907.5138	1716.4841	6085.55	5179.95
907.655	1718.1987	6069.2	5159.25
907.7962	1719.9126	6039.85	5139.9
907.9374	1721.6257	5998.55	5097.6
908.0786	1723.338	6016.05	5116.9
908.2198	1725.0496	5965.75	5064.95
908.3609	1726.7605	5958.3	5054.55
908.502	1728.4706	5934.6	5033.45
908.6431	1730.18	5899.05	4999.1
908.7842	1731.8886	5887.4	4987.2
908.9253	1733.5964	5894.1	4973.65
909.0664	1735.3036	5861.75	4957.1
909.2074	1737.0099	5847.2	4945.9
909.3484	1738.7156	5828.95	4928
909.4894	1740.4204	5775.2	4871.15
909.6304	1742.1246	5769.2	4864.95
909.7714	1743.8279	5739.95	4839.1
909.9123	1745.5306	5705.15	4806.7
910.0532	1747.2325	5705.75	4810
910.1941	1748.9336	5671.7	4770.6
910.335	1750.634	5637.65	4732.85
910.4759	1752.3336	5631.05	4732.55
910.6168	1754.0325	5611.3	4716.7
910.7576	1755.7307	5598.45	4700.4
910.8984	1757.4281	5610.2	4709.05
911.0392	1759.1247	5605.2	4692
911.18	1760.8206	5574	4664.15
911.3208	1762.5158	5564.2	4656.4
911.4615	1764.2102	5538.75	4635.1
911.6022	1765.9039	5518.05	4615.75
911.7429	1767.5968	5525.4	4630.3
911.8836	1769.289	5510	4614.25
912.0243	1770.9804	5478.05	4577.55
912.1649	1772.6711	5477.1	4571.4
912.3056	1774.361	5454.7	4549
912.4462	1776.0502	5442	4539.25
912.5868	1777.7386	5435.55	4532.4
912.7274	1779.4263	5429.55	4530.7
912.8679	1781.1132	5416.25	4519.75
913.0084	1782.7994	5389.85	4494.3
913.149	1784.4849	5388.15	4491.7
913.2895	1786.1696	5368.2	4466.3
913.4299	1787.8535	5336.7	4440.9
913.5704	1789.5367	5349.7	4456
913.7108	1791.2192	5318	4421.9
913.8513	1792.9009	5318.25	4397.7
913.9917	1794.5818	5306.75	4406.75
914.132	1796.2621	5303.35	4403.8
914.2724	1797.9415	5296	4396.3
914.4128	1799.6202	5278.9	4376.9
914.5531	1801.2982	5260.05	4358.8
914.6934	1802.9755	5248.8	4346.65
914.8337	1804.6519	5252.95	4352.1
914.9739	1806.3277	5217.2	4321.85
915.1142	1808.0027	5201.9	4310.85
915.2544	1809.6769	5204.55	4308.95
915.3946	1811.3504	5170.4	4276.9
915.5348	1813.0231	5156.85	4263.75
915.675	1814.6951	5168.2	4271.2
915.8151	1816.3664	5176.9	4277.2
915.9553	1818.0369	5156	4257.9
916.0954	1819.7067	5143.4	4244.55
916.2355	1821.3757	5149.25	4249.15
916.3755	1823.044	5124.95	4226.6
916.5156	1824.7115	5124.6	4225.55
916.6556	1826.3783	5100.95	4202.55
916.7956	1828.0443	5076.4	4179
916.9356	1829.7096	5064.95	4166.85
917.0756	1831.3741	5051.55	4153.25
917.2155	1833.0379	5044.9	4147.1
917.3555	1834.701	5039.65	4144.8
917.4954	1836.3633	5017.1	4122.6
917.6353	1838.0248	5019.9	4125.25
917.7751	1839.6856	5013.5	4115.9
917.915	1841.3457	5006.15	4108.25
918.0548	1843.005	4991.95	4094.1
918.1946	1844.6636	4993.65	4094.95
918.3344	1846.3214	4983.3	4086.95
918.4742	1847.9785	4980.5	4084.4
918.6139	1849.6349	4953.45	4052.35
918.7537	1851.2904	4961.05	4051.05
918.8934	1852.9453	4941.05	4041.85
919.0331	1854.5994	4936.65	4034.8
919.1727	1856.2528	4937.05	4033.15
919.3124	1857.9054	4937.35	4038.8
919.452	1859.5572	4913.3	4015.5
919.5916	1861.2083	4908.2	4012.45
919.7312	1862.8587	4917.6	4020.5
919.8708	1864.5084	4894.85	3991.55
920.0103	1866.1572	4903.9	4001.75
920.1498	1867.8054	4856.5	3955
920.2893	1869.4528	4850.75	3946.95
920.4288	1871.0994	4839.15	3939.25
920.5683	1872.7453	4844.15	3945.45
920.7077	1874.3905	4828.45	3926
920.8471	1876.0349	4803.8	3903.65
920.9865	1877.6786	4807.35	3907.85
921.1259	1879.3215	4802.35	3905.05
921.2653	1880.9637	4787	3888.1
921.4046	1882.6051	4792	3894.55
921.5439	1884.2458	4767.9	3866.6
921.6832	1885.8858	4752.2	3855.5
921.8225	1887.525	4739.1	3839.95
921.9617	1889.1634	4732.1	3832.65
922.101	1890.8011	4711.5	3809.25
922.2402	1892.4381	4709.5	3812.3
922.3794	1894.0743	4697.45	3795.65
922.5185	1895.7098	4679.1	3779.5
922.6577	1897.3446	4676.6	3777.7
922.7968	1898.9786	4678.5	3774.95
922.9359	1900.6118	4658.9	3764
923.075	1902.2443	4633.8	3735.25
923.214	1903.8761	4624.1	3726.6
923.3531	1905.5071	4611.75	3714.5
923.4921	1907.1374	4599.5	3703
923.6311	1908.7669	4596.75	3702.75
923.77	1910.3957	4597.75	3700.95
923.909	1912.0237	4564.95	3668.95
924.0479	1913.651	4546.95	3648.7
924.1868	1915.2776	4545.55	3650.8
924.3257	1916.9034	4536.2	3642.55
924.4646	1918.5285	4510.85	3615.7
924.6034	1920.1528	4498.15	3602.05
924.7422	1921.7764	4494	3598.85
924.881	1923.3992	4476.8	3580.05
925.0198	1925.0213	4456.9	3561.35
925.1586	1926.6427	4434.05	3537.55
925.2973	1928.2633	4597.95	3494.05
925.436	1929.8832	4451.35	3551.45
925.5747	1931.5023	4412.5	3516
925.7134	1933.1207	4411.35	3514.25
925.852	1934.7383	4383.35	3488.65
925.9906	1936.3552	4387.65	3492.4
926.1292	1937.9714	4381.3	3486.15
926.2678	1939.5868	4355	3457.25
926.4064	1941.2015	4331.5	3432.4
926.5449	1942.8154	4321.75	3424.65
926.6834	1944.4286	4314.5	3415
926.8219	1946.041	4314.7	3399.7
926.9604	1947.6528	4288.45	3389.05
927.0988	1949.2637	4280.85	3382.25
927.2372	1950.8739	4260.75	3365.05
927.3756	1952.4834	4266.2	3370.6
927.514	1954.0921	4241.3	3346.95
927.6523	1955.7001	4236	3336.3
927.7907	1957.3074	4217.75	3323.45
927.929	1958.9139	4217.9	3328.55
928.0673	1960.5197	4214.15	3318.25
928.2055	1962.1247	4188.3	3296.35
928.3438	1963.729	4182.5	3292.2
928.482	1965.3325	4156.65	3258.85
928.6202	1966.9353	4134.75	3245.45
928.7584	1968.5374	4121.75	3227.95
928.8965	1970.1387	4134.5	3240.4
929.0346	1971.7393	4118.4	3224.45
929.1727	1973.3392	4107.4	3214.45
929.3108	1974.9383	4078.75	3188
929.4489	1976.5366	4064.3	3175.3
929.5869	1978.1342	4073.25	3182.45
929.7249	1979.7311	4041.25	3150.1
929.8629	1981.3273	4030.4	3138.3
930.0009	1982.9227	4030.25	3139.55
930.1388	1984.5173	4028.8	3142.9
930.2767	1986.1112	4008.35	3121.4
930.4146	1987.7044	3997.9	3111.8
930.5525	1989.2968	3993.5	3103.2
930.6904	1990.8885	3978.6	3085.15
930.8282	1992.4795	3981.2	3093.1
930.966	1994.0697	3964.35	3076.65
931.1038	1995.6592	3951.7	3063.25
931.2415	1997.2479	3947.65	3058.85
931.3793	1998.8359	3933.95	3045.05
931.517	2000.4232	3920.15	3037.1
931.6547	2002.0097	3900	3018.5
931.7923	2003.5955	3885.4	3002.85
931.93	2005.1805	3887.9	3001.75
932.0676	2006.7648	3875.75	2990.85
932.2052	2008.3484	3878.05	2991.7
932.3427	2009.9312	3876.1	2992.6
932.4803	2011.5133	3857.7	2979
932.6178	2013.0946	3850.2	2967.85
932.7553	2014.6752	3845.3	2963.1
932.8928	2016.2551	3842.2	2956.1
933.0302	2017.8342	3824.1	2937.9
933.1676	2019.4126	3814.85	2932.1
933.305	2020.9902	3791.3	2910.1
933.4424	2022.5672	3801.1	2918.1
933.5798	2024.1433	3782.6	2896.85
933.7171	2025.7188	3765.1	2885.2
933.8544	2027.2935	3756.7	2874.4
933.9917	2028.8674	3746.65	2865.8
934.129	2030.4406	3733.4	2855
934.2662	2032.0131	3732.9	2855.15
934.4034	2033.5849	3719.9	2833.3
934.5406	2035.1559	3717.45	2836.1
934.6778	2036.7261	3721.15	2836.8
934.8149	2038.2957	3699	2813.5
934.952	2039.8645	3705.55	2820.05
935.0891	2041.4325	3712.9	2822.5
935.2262	2042.9998	3697	2811.75
935.3632	2044.5664	3682.9	2799.55
935.5002	2046.1323	3671.6	2789.65
935.6372	2047.6974	3644.2	2762.6
935.7742	2049.2617	3647.4	2766.45
935.9111	2050.8254	3667.15	2762.7
936.048	2052.3883	3648.95	2763.55
936.1849	2053.9504	3632.4	2747.5
936.3218	2055.5118	3640.45	2753.65
936.4586	2057.0725	3630.4	2741.9
936.5955	2058.6325	3621	2736.35
936.7323	2060.1917	3605.6	2722.2
936.869	2061.7502	3591.6	2704.7
937.0058	2063.3079	3587.5	2707.95
937.1425	2064.8649	3573.1	2689.1
937.2792	2066.4212	3573.2	2690.45
937.4159	2067.9767	3558.85	2674.85
937.5525	2069.5315	3560.95	2675.65
937.6891	2071.0856	3543.95	2659.5
937.8257	2072.6389	3512.75	2628.7
937.9623	2074.1915	3503.7	2623.5
938.0989	2075.7433	3504.55	2622.15
938.2354	2077.2945	3504.25	2618.55
938.3719	2078.8448	3496.75	2608.9
938.5084	2080.3945	3488.05	2603.8
938.6448	2081.9434	3488.55	2604.1
938.7812	2083.4916	3475.45	2588.1
938.9176	2085.039	3473.2	2581.9
939.054	2086.5857	3477.85	2584
939.1903	2088.1317	3463.25	2569.5
939.3267	2089.677	3440.15	2545
939.463	2091.2215	3445.45	2551.65
939.5992	2092.7652	3442.15	2547.65
939.7355	2094.3083	3433.6	2542.2
939.8717	2095.8506	3417.1	2527.95
940.0079	2097.3921	3427.15	2539.3
940.1441	2098.933	3418.45	2529.85
940.2802	2100.4731	3392.7	2501.5
940.4163	2102.0124	3411.4	2515.75
940.5524	2103.5511	3397.5	2506.6
940.6885	2105.089	3380.05	2490
940.8245	2106.6261	3381.6	2492.55
940.9606	2108.1626	3360.7	2472.85
941.0965	2109.6983	3387.25	2468.6
941.2325	2111.2332	3373.65	2485
941.3684	2112.7675	3357.3	2467.15
941.5044	2114.301	3348.95	2456.65
941.6403	2115.8337	3345.95	2456.55
941.7761	2117.3657	3324.65	2434.25
941.912	2118.897	3336.75	2444.95
942.0478	2120.4276	3331.8	2435.1
942.1835	2121.9575	3294.6	2401.65
942.3193	2123.4866	3314.5	2419.85
942.455	2125.0149	3299.95	2407.95
942.5907	2126.5426	3271	2387
942.7264	2128.0695	3272.3	2385.05
942.8621	2129.5956	3261.7	2379.4
942.9977	2131.1211	3260.85	2372.15
943.1333	2132.6458	3259.35	2372.25
943.2689	2134.1698	3259.3	2365.35
943.4044	2135.693	3263.5	2369.6
943.54	2137.2155	3247.6	2352.6
943.6755	2138.7373	3243.95	2354.55
943.8109	2140.2584	3229.6	2345.3
943.9464	2141.7787	3216.15	2329.45
944.0818	2143.2983	3215	2333.5
944.2172	2144.8171	3194.1	2313.6
944.3526	2146.3353	3191.85	2307.55
944.4879	2147.8527	3177.4	2290.35
944.6232	2149.3693	3196	2306.45
944.7585	2150.8853	3187.4	2294.6
944.8938	2152.4005	3176.7	2284.35
945.029	2153.9149	3173.3	2279.3
945.1642	2155.4287	3160.65	2270.2
945.2994	2156.9417	3159.2	2270.15
945.4346	2158.454	3156.75	2268.9
945.5697	2159.9655	3141.8	2255.1
945.7048	2161.4764	3131.95	2245.15
945.8399	2162.9865	3125.9	2239.7
945.9749	2164.4958	3100.25	2213.9
946.1099	2166.0045	3122.3	2232.05
946.2449	2167.5124	3098.65	2209.35
946.3799	2169.0195	3099.4	2210.8
946.5148	2170.526	3101.9	2211.9
946.6498	2172.0317	3092	2202.15
946.7846	2173.5367	3085.2	2198.35
946.9195	2175.0409	3087.7	2201.45
947.0543	2176.5445	3085.45	2197.6
947.1891	2178.0473	3075.45	2184.6
947.3239	2179.5494	3071.5	2178.5
947.4587	2181.0507	3069	2179.5
947.5934	2182.5513	3050.3	2161.85
947.7281	2184.0512	3053.3	2164.25
947.8628	2185.5504	3041.95	2151.75
947.9974	2187.0488	3038.4	2153.8
948.132	2188.5465	3014.85	2130.55
948.2666	2190.0435	3012.85	2123.65
948.4012	2191.5397	3014.8	2123.8
948.5357	2193.0353	3009.45	2117.1
948.6702	2194.5301	3002.6	2107.85
948.8047	2196.0241	2993.35	2097.4
948.9392	2197.5175	2992.65	2096.6
949.0736	2199.0101	2988.45	2089.85
949.208	2200.502	2975.9	2086.8
949.3424	2201.9931	2959.45	2071.9
949.4767	2203.4835	2952.45	2065.55
949.611	2204.9733	2949	2057.9
949.7453	2206.4622	2948.05	2062.35
949.8796	2207.9505	2930.6	2045
950.0138	2209.438	2919.25	2037.55
950.148	2210.9248	2913.6	2024.5
950.2822	2212.4109	2902.15	2013.95
950.4164	2213.8962	2911.7	2019.1
950.5505	2215.3809	2902.5	2006
950.6846	2216.8648	2893.75	1998.25
950.8186	2218.3479	2895.65	1994.6
950.9527	2219.8304	2890.65	1991.65
951.0867	2221.3121	2884.45	1985.65
951.2207	2222.7931	2866.75	1974.8
951.3546	2224.2733	2855.25	1962
951.4886	2225.7529	2841	1950.4
951.6225	2227.2317	2851.05	1959.1
951.7563	2228.7098	2839.25	1954.1
951.8902	2230.1872	2828.6	1942.7
952.024	2231.6638	2830.85	1944.9
952.1578	2233.1397	2820.55	1928.65
952.2916	2234.6149	2815.85	1929.6
952.4253	2236.0894	2810.2	1921.95
952.559	2237.5632	2818.2	1919.55
952.6927	2239.0362	2802.35	1914.35
952.8263	2240.5085	2787.7	1901
952.9599	2241.9801	2769.85	1879.75
953.0935	2243.4509	2781.8	1891.9
953.2271	2244.921	2770.45	1877
953.3606	2246.3904	2774.45	1882.45
953.4941	2247.8591	2751.25	1861.7
953.6276	2249.3271	2755.55	1862.75
953.7611	2250.7943	2749.65	1857.45
953.8945	2252.2608	2731.6	1840.9
954.0279	2253.7266	2731.25	1837.45
954.1612	2255.1917	2720.1	1830.2
954.2946	2256.656	2711.05	1821.4
954.4279	2258.1197	2708	1820.9
954.5612	2259.5826	2709.95	1819.3
954.6944	2261.0447	2708.45	1816.55
954.8276	2262.5062	2700.45	1806.4
954.9608	2263.9669	2696.75	1802.4
955.094	2265.4269	2688	1797.9
955.2271	2266.8862	2673.65	1785.65
955.3602	2268.3448	2678.65	1789.9
955.4933	2269.8026	2661.65	1774.6
955.6264	2271.2598	2664.85	1776.35
955.7594	2272.7162	2654.7	1766.9
955.8924	2274.1719	2660.5	1768.4
956.0253	2275.6268	2651.45	1758.55
956.1583	2277.0811	2665.2	1772.35
956.2912	2278.5346	2646.25	1754.4
956.4241	2279.9874	2647.35	1760.1
956.5569	2281.4395	2633.45	1748
956.6897	2282.8908	2637	1745.6
956.8225	2284.3414	2632.6	1738.75
956.9553	2285.7914	2623.9	1734.55
957.088	2287.2406	2617.75	1725.3
957.2207	2288.689	2619.2	1726.05
957.3534	2290.1368	2621	1724.5
957.486	2291.5838	2613.85	1715.3
957.6186	2293.0302	2621.15	1723.85
957.7512	2294.4758	2599.4	1705.15
957.8838	2295.9206	2595	1701.6
958.0163	2297.3648	2578.8	1690.2
958.1488	2298.8082	2582.65	1694
958.2813	2300.251	2584.3	1691.7
958.4137	2301.693	2578.55	1682.25
958.5461	2303.1343	2572.55	1679.45
958.6785	2304.5748	2564.8	1673.6
958.8108	2306.0147	2560.35	1672.1
958.9432	2307.4538	2541.8	1652.2
959.0754	2308.8922	2534.65	1650.65
959.2077	2310.3299	2535.25	1648.05
959.3399	2311.7669	2536.7	1649.1
959.4721	2313.2031	2524.6	1635.25
959.6043	2314.6387	2524.6	1631.8
959.7365	2316.0735	2515.2	1626.6
959.8686	2317.5076	2528.9	1636.75
960.0006	2318.941	2508.35	1615.2
960.1327	2320.3737	2513.75	1620.85
960.2647	2321.8056	2510	1613.55
960.3967	2323.2369	2490.5	1597.15
960.5287	2324.6674	2498.7	1606.35
960.6606	2326.0972	2482.55	1588.2
960.7925	2327.5263	2481.3	1587.5
960.9244	2328.9547	2471.8	1579.8
961.0562	2330.3823	2471.05	1576.15
961.1881	2331.8092	2480.35	1583.35
961.3198	2333.2355	2469.55	1575.75
961.4516	2334.661	2460.25	1566.55
961.5833	2336.0858	2448.95	1557.1
961.715	2337.5098	2453.25	1558.85
961.8467	2338.9332	2444.75	1553.95
961.9783	2340.3558	2448.2	1553.35
962.1099	2341.7778	2439.9	1553.25
962.2415	2343.199	2445.1	1552.8
962.373	2344.6195	2426.45	1537.35
962.5045	2346.0393	2428.65	1540.6
962.636	2347.4583	2428.5	1537.55
962.7675	2348.8767	2416.9	1522.15
962.8989	2350.2943	2423.5	1528.9
963.0303	2351.7113	2416.8	1518.2
963.1617	2353.1275	2414.2	1518.9
963.293	2354.543	2425.85	1521.1
963.4243	2355.9578	2414.55	1523.65
963.5556	2357.3718	2386.35	1496.8
963.6868	2358.7852	2403.65	1512.8
963.818	2360.1978	2390.65	1500.85
963.9492	2361.6098	2384.6	1494.05
964.0803	2363.021	2382.15	1486.95
964.2114	2364.4315	2381.15	1489.6
964.3425	2365.8413	2371.65	1479.85
964.4736	2367.2504	2367.3	1478.65
964.6046	2368.6587	2352.65	1463.85
964.7356	2370.0664	2358.65	1468.65
964.8666	2371.4733	2351.9	1462
964.9975	2372.8795	2345.9	1456.55
965.1284	2374.285	2336.8	1447.85
965.2593	2375.6899	2329.6	1439.75
965.3901	2377.0939	2325.95	1436.2
965.5209	2378.4973	2313.65	1425.4
965.6517	2379.9	2319.2	1427.65
965.7825	2381.3019	2310.4	1420.4
965.9132	2382.7032	2304.7	1416.3
966.0439	2384.1037	2300.15	1412.35
966.1745	2385.5035	2291.9	1406.1
966.3051	2386.9027	2286.7	1400.95
966.4357	2388.3011	2284.85	1394.05
966.5663	2389.6987	2286.95	1400.05
966.6968	2391.0957	2283.95	1396.9
966.8273	2392.492	2267.3	1381.05
966.9578	2393.8876	2259.85	1371.65
967.0882	2395.2824	2258	1369.15
967.2186	2396.6765	2257.45	1369.4
967.349	2398.07	2247.6	1359.9
967.4793	2399.4627	2249.65	1358.5
967.6097	2400.8547	2248.7	1359.55
967.7399	2402.246	2248.2	1352.65
967.8702	2403.6366	2229.5	1337.95
968.0004	2405.0265	2230.05	1341.8
968.1306	2406.4156	2225.2	1332.15
968.2607	2407.8041	2228	1338.15
968.3909	2409.1918	2220	1327.65
968.521	2410.5789	2212.1	1324
968.651	2411.9652	2203.7	1309.35
968.781	2413.3508	2201.35	1312.35
968.911	2414.7358	2194.35	1304.9
969.041	2416.12	2193.45	1305.35
969.1709	2417.5035	2189.85	1302.05
969.3008	2418.8863	2188	1296.8
969.4307	2420.2684	2184.85	1294.5
969.5606	2421.6497	2171.4	1281.5
969.6904	2423.0304	2164.5	1277.2
969.8201	2424.4104	2161.55	1271.75
969.9499	2425.7896	2169.15	1276.75
970.0796	2427.1682	2171.8	1282.9
970.2093	2428.546	2157.55	1266.85
970.3389	2429.9232	2159.65	1270.4
970.4685	2431.2996	2165.3	1275.25
970.5981	2432.6753	2144.25	1252.45
970.7277	2434.0503	2148.25	1257.4
970.8572	2435.4246	2136.35	1247.45
970.9867	2436.7982	2135.05	1243.25
971.1161	2438.1711	2132.05	1242.6
971.2456	2439.5433	2131.95	1239.8
971.375	2440.9148	2122.95	1228.4
971.5043	2442.2856	2108.95	1220.9
971.6336	2443.6557	2118.2	1227.4
971.7629	2445.025	2107.45	1218.7
971.8922	2446.3937	2110.6	1219.35
972.0214	2447.7617	2102.85	1212.4
972.1506	2449.1289	2113.95	1224.6
972.2798	2450.4955	2100	1205.3
972.4089	2451.8613	2095.5	1204.5
972.538	2453.2265	2095.25	1205.8
972.6671	2454.5909	2087.35	1196.65
972.7961	2455.9546	2081.9	1194.35
972.9251	2457.3177	2067.95	1180.4
973.0541	2458.68	2071.25	1179.35
973.1831	2460.0416	2068.45	1177.4
973.312	2461.4025	2065.9	1173.45
973.4408	2462.7627	2072.2	1170.7
973.5697	2464.1222	2056.85	1169.55
973.6985	2465.4811	2064.4	1176.2
973.8273	2466.8392	2060.75	1173.6
973.956	2468.1966	2060.55	1168.65
974.0847	2469.5533	2055.4	1163.15
974.2134	2470.9093	2052.3	1161
974.3421	2472.2645	2056	1166.1
974.4707	2473.6191	2040.25	1151.9
974.5993	2474.973	2038.4	1147.95
974.7278	2476.3262	2053.05	1161.35
974.8563	2477.6787	2048.2	1160.6
974.9848	2479.0305	2028.55	1139.85
975.1132	2480.3816	2023.7	1132.4
975.2417	2481.7319	2026.35	1134.45
975.37	2483.0816	2018.25	1127.35
975.4984	2484.4306	2011.15	1121.7
975.6267	2485.7789	2006.95	1119.85
975.755	2487.1264	2000.55	1111.45
975.8833	2488.4733	2004.8	1116.65
976.0115	2489.8195	1997.65	1103.85
976.1397	2491.165	1993	1104.05
976.2678	2492.5097	1986.05	1099
976.3959	2493.8538	1976.8	1086.9
976.524	2495.1972	1977.7	1090.4
976.6521	2496.5398	1976.95	1085.25
976.7801	2497.8818	1972.85	1079.7
976.9081	2499.2231	1966.7	1078.55
977.036	2500.5637	1965.9	1075.75
977.164	2501.9035	1967.7	1076.85
977.2918	2503.2427	1969.25	1074.8
977.4197	2504.5812	1958.15	1070.15
977.5475	2505.919	1965.15	1074.1
977.6753	2507.256	1960.95	1071.85
977.8031	2508.5924	1948.15	1057.15
977.9308	2509.9281	1944	1048.1
978.0585	2511.2631	1948.9	1060.9
978.1861	2512.5974	1938.35	1048.25
978.3137	2513.9309	1936.85	1046.45
978.4413	2515.2638	1957.1	1041.4
978.5689	2516.596	1933.3	1043.45
978.6964	2517.9275	1930.25	1039.05
978.8239	2519.2583	1918.55	1030.45
978.9513	2520.5884	1914.6	1024.55
979.0788	2521.9178	1921.5	1031.2
979.2062	2523.2465	1915.05	1027.4
979.3335	2524.5745	1910.25	1023.45
979.4608	2525.9018	1910.05	1020.85
979.5881	2527.2284	1904.55	1018.25
979.7154	2528.5543	1903.75	1015.7
979.8426	2529.8796	1910.1	1019.85
979.9698	2531.2041	1894.3	1006.15
980.0969	2532.5279	1897.95	1011
980.224	2533.851	1892.05	1003.1
980.3511	2535.1735	1888.95	1001.4
980.4781	2536.4952	1892.25	1004
980.6052	2537.8163	1885.2	993.9
980.7321	2539.1366	1886.2	996.15
980.8591	2540.4562	1881.05	988.15
980.986	2541.7752	1877.65	986.95
981.1129	2543.0935	1882.65	992.8
981.2397	2544.411	1879.45	988.05
981.3665	2545.7279	1881.45	991.5
981.4933	2547.0441	1877.25	984.05
981.62	2548.3596	1877.25	983.35
981.7467	2549.6744	1872.65	981.5
981.8734	2550.9885	1871.2	979.3
982.0001	2552.3019	1871.65	981.6
982.1267	2553.6146	1862.95	971.45
982.2532	2554.9266	1849.9	958.9
982.3798	2556.2379	1849.2	959.6
982.5063	2557.5485	1858.15	970.1
982.6327	2558.8585	1860.95	963.5
982.7592	2560.1677	1849.75	954.35
982.8856	2561.4762	1851.15	959.45
983.0119	2562.7841	1854.15	961.6
983.1383	2564.0913	1836.95	951.1
983.2646	2565.3977	1844.7	955.55
983.3908	2566.7035	1844.05	954.3
983.517	2568.0086	1834.8	944.45
983.6432	2569.313	1837.3	946.1
983.7694	2570.6167	1834.7	940.05
983.8955	2571.9197	1825.85	936.15
984.0216	2573.222	1832.65	940.15
984.1476	2574.5236	1825.7	935.2
984.2737	2575.8246	1824.3	929.4
984.3996	2577.1248	1819.8	928.25
984.5256	2578.4244	1827.45	939.2
984.6515	2579.7232	1820.85	929.7
984.7774	2581.0214	1842	927.7
984.9032	2582.3189	1818.9	929.55
985.029	2583.6157	1825.75	929.9
985.1548	2584.9118	1825.85	934.65
985.2806	2586.2072	1813.75	925.1
985.4063	2587.5019	1810.5	921.7
985.5319	2588.7959	1816.55	926.45
985.6576	2590.0893	1823.55	932.45
985.7832	2591.3819	1807.6	919.8
985.9087	2592.6739	1804.95	915.8
986.0343	2593.9652	1811.2	919.1
986.1597	2595.2557	1813.35	922
986.2852	2596.5456	1812.5	920.55
986.4106	2597.8348	1804.4	915.2
986.536	2599.1234	1808.5	920.05
986.6614	2600.4112	1817.3	926.4
986.7867	2601.6983	1798.85	906.2
986.912	2602.9848	1799.3	909.25
987.0372	2604.2705	1800.65	904.6
987.1624	2605.5556	1797.1	907.1
987.2876	2606.84	1795.9	908.15
987.4128	2608.1237	1788.9	898.15
987.5379	2609.4067	1793.75	902.9
987.6629	2610.689	1794.95	897.1
987.788	2611.9707	1782.25	890.35
987.913	2613.2516	1779.3	885.5
988.0379	2614.5319	1769.35	882.2
988.1629	2615.8115	1766.5	877.2
988.2878	2617.0903	1765.6	877.15
988.4126	2618.3685	1764.8	875.35
988.5375	2619.6461	1770.85	882.4
988.6622	2620.9229	1749.5	860.55
988.787	2622.199	1763.05	874
988.9117	2623.4745	1763.1	873.35
989.0364	2624.7493	1754.1	866.2
989.161	2626.0234	1756.85	869.65
989.2857	2627.2968	1747	858.55
989.4102	2628.5695	1749.75	857.9
989.5348	2629.8415	1741	852.65
989.6593	2631.1128	1748.55	858.45
989.7837	2632.3835	1739.25	851.35
989.9082	2633.6535	1733.05	844.95
990.0326	2634.9228	1731.75	843.95
990.1569	2636.1914	1730.35	843.55
990.2812	2637.4593	1734.15	844.75
990.4055	2638.7265	1733.4	843.05
990.5298	2639.9931	1730.15	842.05
990.654	2641.259	1725.35	835.3
990.7782	2642.5242	1733.25	846.7
990.9023	2643.7887	1720.85	834.35
991.0264	2645.0525	1719.3	831.3
991.1505	2646.3156	1710.7	821.3
991.2745	2647.5781	1707.8	820.6
991.3985	2648.8398	1707.55	819.8
991.5225	2650.1009	1739.2	813.15
991.6464	2651.3613	1705.9	818.15
991.7703	2652.6211	1696.1	809
991.8942	2653.8801	1698.75	809.85
992.018	2655.1385	1694.9	806.95
992.1418	2656.3961	1690.25	802.65
992.2655	2657.6531	1705.35	816.2
992.3892	2658.9094	1696.05	808.15
992.5129	2660.1651	1696.6	810.4
992.6366	2661.42	1689.85	799.45
992.7602	2662.6743	1694.7	805.6
992.8837	2663.9279	1700.45	812.15
993.0073	2665.1808	1705.35	818.05
993.1307	2666.433	1695.7	807.4
993.2542	2667.6846	1701.9	814.75
993.3776	2668.9354	1698.35	808.1
993.501	2670.1856	1700.6	811.45
993.6244	2671.4351	1696.25	808.75
993.7477	2672.6839	1708.1	820.75
993.8709	2673.9321	1709.55	822.2
993.9942	2675.1795	1699.95	813.55
994.1174	2676.4263	1706.15	819.4
994.2405	2677.6724	1705.65	818.8
994.3637	2678.9179	1702.25	815.45
994.4868	2680.1626	1712.45	826.8
994.6098	2681.4067	1702.2	815.35
994.7328	2682.6501	1696.55	808.95
994.8558	2683.8928	1701.7	814.55
994.9788	2685.1348	1690.1	803.1
995.1017	2686.3761	1689.8	804.65
995.2245	2687.6168	1683.75	796.15
995.3474	2688.8568	1679.7	792.8
995.4702	2690.0961	1672.55	785.6
995.5929	2691.3348	1667.75	782.15
995.7156	2692.5727	1673.2	785.2
995.8383	2693.81	1664.55	778.65
995.961	2695.0466	1654.2	767.85
996.0836	2696.2826	1662.25	772.4
996.2062	2697.5178	1680.7	773.45
996.3287	2698.7524	1668.65	783.5
996.4512	2699.9863	1665.2	774.85
996.5737	2701.2195	1654.15	768.05
996.6961	2702.452	1667.4	778.85
996.8185	2703.6839	1672.4	784.35
996.9408	2704.9151	1673	786.35
997.0631	2706.1456	1672.35	785.5
997.1854	2707.3755	1678.85	791.4
997.3077	2708.6046	1684.5	794.55
997.4299	2709.8331	1689.4	801.15
997.552	2711.0609	1695.1	806.65
997.6742	2712.2881	1697.25	808.65
997.7963	2713.5145	1713.75	826.55
997.9183	2714.7403	1716.15	829.35
998.0403	2715.9654	1717.05	828.55
998.1623	2717.1899	1742.5	840.15
998.2842	2718.4136	1741.45	853.85
998.4062	2719.6367	1756.65	869.2
998.528	2720.8591	1769.6	875.65
998.6498	2722.0809	1776.9	890.3
998.7716	2723.3019	1785.4	894.45
998.8934	2724.5223	1792.4	906.65
999.0151	2725.7421	1787	900.05
999.1368	2726.9611	1799.45	911.8
999.2584	2728.1795	1797.5	904.65
999.38	2729.3972	1771.6	884.45
999.5016	2730.6142	1777.7	876
999.6231	2731.8306	1759.9	873.1
999.7446	2733.0462	1743.3	855.55
999.8661	2734.2612	1736.2	846.15
999.9875	2735.4756	1714.3	825.45
1000.1089	2736.6892	1690.6	805.4
1000.2302	2737.9022	1677.8	791.4
1000.3515	2739.1145	1664.25	778.5
1000.4728	2740.3262	1654.7	760.95
1000.594	2741.5372	1643.6	756.5
1000.7152	2742.7475	1621.45	736.5
1000.8363	2743.9571	1626.25	739.5
1000.9575	2745.1661	1616.3	724.7
1001.0785	2746.3744	1597.6	712.75
1001.1996	2747.582	1584.75	698.7
1001.3206	2748.7889	1586.45	699.1
1001.4415	2749.9952	1575.55	692.55
1001.5625	2751.2008	1563.3	676.55
1001.6833	2752.4057	1561.2	673.1
1001.8042	2753.61	1562.9	676.2
1001.925	2754.8136	1564.35	676.3
1002.0458	2756.0165	1561.7	676.25
1002.1665	2757.2188	1549.4	665
1002.2872	2758.4204	1557.8	673.6
1002.4078	2759.6213	1557.95	669.35
1002.5285	2760.8215	1557.95	666.55
1002.649	2762.0211	1552.45	663.7
1002.7696	2763.22	1545.85	657.25
1002.8901	2764.4182	1546.4	659.15
1003.0106	2765.6158	1536.8	650.9
1003.131	2766.8127	1539.7	653.8
1003.2514	2768.009	1530.25	645
1003.3717	2769.2045	1536.45	649.1
1003.492	2770.3994	1527.5	639.3
1003.6123	2771.5936	1537.7	650.75
1003.7325	2772.7872	1522.35	637.8
1003.8527	2773.9801	1514.8	630.15
1003.9729	2775.1723	1533.45	628.6
1004.093	2776.3639	1511.9	629.05
1004.2131	2777.5548	1513.6	627.8
1004.3331	2778.745	1517.65	630.8
1004.4531	2779.9346	1510.9	628.35
1004.5731	2781.1235	1514.2	627.45
1004.693	2782.3117	1512.6	629.4
1004.8129	2783.4992	1518.15	632.7
1004.9328	2784.6861	1523.85	639.25
1005.0526	2785.8723	1532.05	646.5
1005.1723	2787.0579	1526.5	640.55
1005.2921	2788.2428	1527.95	642.4
1005.4118	2789.427	1533.25	649.7
1005.5314	2790.6106	1546.1	661.25
1005.651	2791.7935	1547.7	664.4
1005.7706	2792.9757	1553.4	671.85
1005.8902	2794.1573	1559.55	672.2
1006.0097	2795.3382	1582	698
1006.1291	2796.5184	1588.1	703.6
1006.2485	2797.698	1596.4	710.65
1006.3679	2798.8769	1604.4	721.3
1006.4873	2800.0551	1608.8	723.05
1006.6066	2801.2327	1632.65	745.2
1006.7258	2802.4096	1650.75	766.3
1006.8451	2803.5859	1664.75	778.65
1006.9642	2804.7615	1683.3	799.05
1007.0834	2805.9364	1709.15	827.05
1007.2025	2807.1106	1725.7	841.2
1007.3216	2808.2842	1747.2	864.55
1007.4406	2809.4572	1780.4	896.35
1007.5596	2810.6294	1804.85	920.1
1007.6785	2811.801	1842.1	959.65
1007.7975	2812.972	1876.5	993.3
1007.9163	2814.1423	1914.6	1030.95
1008.0352	2815.3119	1955.8	1072.3
1008.154	2816.4808	2004.75	1122.45
1008.2727	2817.6491	2059.45	1175.2
1008.3914	2818.8167	2104.85	1222.15
1008.5101	2819.9837	2163.5	1274.2
1008.6288	2821.15	2206.8	1323.3
1008.7474	2822.3157	2260.6	1376.4
1008.8659	2823.4807	2309.75	1428.1
1008.9844	2824.645	2363.7	1478.5
1009.1029	2825.8086	2417.9	1535.95
1009.2214	2826.9716	2466	1584.8
1009.3398	2828.134	2514.95	1631.2
1009.4581	2829.2957	2545.8	1664.6
1009.5764	2830.4567	2587.8	1705.2
1009.6947	2831.617	2616.15	1730.7
1009.813	2832.7767	2609.4	1726.75
1009.9312	2833.9358	2619.75	1737.35
1010.0493	2835.0941	2629.7	1743.7
1010.1675	2836.2519	2611.6	1727.05
1010.2855	2837.4089	2594.9	1712.55
1010.4036	2838.5653	2567.1	1685.15
1010.5216	2839.7211	2569.45	1685.85
1010.6396	2840.8761	2571.35	1688.35
1010.7575	2842.0306	2585.65	1705.45
1010.8754	2843.1843	2611.7	1729.25
1010.9932	2844.3374	2644.75	1762
1011.111	2845.4899	2688.65	1804.2
1011.2288	2846.6417	2743.7	1862.7
1011.3465	2847.7928	2813.95	1930.55
1011.4642	2848.9433	2874.35	1992.25
1011.5818	2850.0931	2943.65	2059.8
1011.6995	2851.2422	3013.25	2128.05
1011.817	2852.3907	3073	2189
1011.9345	2853.5385	3129.7	2247.1
1012.052	2854.6857	3169.05	2275.45
1012.1695	2855.8323	3236.35	2354.2
1012.2869	2856.9781	3267.05	2384.85
1012.4042	2858.1233	3325.15	2441.55
1012.5216	2859.2679	3381.5	2500.15
1012.6389	2860.4118	3422.65	2538.8
1012.7561	2861.555	3460.1	2573.45
1012.8733	2862.6976	3504.55	2619.1
1012.9905	2863.8395	3545	2662.05
1013.1076	2864.9808	3570.45	2687.95
1013.2247	2866.1214	3585.8	2703.9
1013.3417	2867.2614	3603.25	2721.2
1013.4587	2868.4007	3602.15	2718.4
1013.5757	2869.5393	3608.55	2724.1
1013.6926	2870.6773	3646.6	2762.3
1013.8095	2871.8146	3660.05	2773.35
1013.9263	2872.9513	3644.35	2759.1
1014.0431	2874.0874	3646.1	2764.35
1014.1599	2875.2227	3628.45	2743.15
1014.2766	2876.3574	3628.5	2743.95
1014.3933	2877.4915	3589.65	2705.4
1014.51	2878.6249	3566.75	2685.55
1014.6266	2879.7577	3546	2660.15
1014.7431	2880.8898	3530.2	2638.55
1014.8596	2882.0212	3502.45	2619.9
1014.9761	2883.152	3501.8	2619.5
1015.0925	2884.2821	3488.65	2607.95
1015.2089	2885.4116	3482.45	2601.3
1015.3253	2886.5405	3490.45	2607.65
1015.4416	2887.6686	3489.55	2603.35
1015.5579	2888.7962	3480.05	2599
1015.6741	2889.923	3501.85	2619.85
1015.7903	2891.0493	3511.5	2631.7
1015.9065	2892.1748	3523.9	2641.05
1016.0226	2893.2997	3531.45	2651.8
1016.1387	2894.424	3549.85	2670.1
1016.2547	2895.5476	3560.85	2679.9
1016.3707	2896.6706	3588.1	2705.3
1016.4866	2897.7929	3601.95	2718.9
1016.6025	2898.9145	3621.7	2740.65
1016.7184	2900.0355	3657.55	2775.6
1016.8342	2901.1559	3693.3	2809.2
1016.95	2902.2756	3727.15	2844.5
1017.0658	2903.3946	3750.35	2867.7
1017.1815	2904.513	3781.7	2899.5
1017.2971	2905.6308	3791.65	2911.25
1017.4127	2906.7479	3838.85	2957.3
1017.5283	2907.8643	3843.25	2961.25
1017.6439	2908.9801	3854.65	2974.35
1017.7594	2910.0953	3866.2	2985.15
1017.8748	2911.2098	3878.5	2993.15
1017.9902	2912.3236	3882.45	2993.3
1018.1056	2913.4368	3863.65	2979.6
1018.2209	2914.5494	3822.1	2941.3
1018.3362	2915.6613	3807.95	2921.65
1018.4515	2916.7725	3767.2	2882.7
1018.5667	2917.8831	3747.45	2864.75
1018.6819	2918.9931	3726.3	2841.4
1018.797	2920.1024	3685.4	2803.3
1018.9121	2921.211	3659.35	2778.75
1019.0271	2922.319	3646.5	2765.45
1019.1421	2923.4264	3634.15	2753.75
1019.2571	2924.5331	3607.35	2727.5
1019.372	2925.6391	3606.55	2723.45
1019.4869	2926.7445	3599.75	2721.25
1019.6017	2927.8493	3598.35	2717
1019.7165	2928.9534	3594.3	2714.6
1019.8313	2930.0569	3602.05	2717.9
1019.946	2931.1597	3605.9	2722.85
1020.0606	2932.2619	3600.95	2719.25
1020.1753	2933.3634	3602.05	2721.25
1020.2899	2934.4643	3595.4	2705.7
1020.4044	2935.5645	3594.45	2708.25
1020.5189	2936.6641	3553.5	2668.2
1020.6334	2937.763	3529	2648.15
1020.7478	2938.8613	3490.3	2607.9
1020.8622	2939.959	3424.45	2537.95
1020.9765	2941.056	3370	2490.5
1021.0908	2942.1523	3283.6	2401.9
1021.2051	2943.248	3226.75	2345.25
1021.3193	2944.3431	3128.35	2247.4
1021.4334	2945.4375	3029	2149.5
1021.5476	2946.5313	2934.1	2056
1021.6617	2947.6244	2841.9	1961.7
1021.7757	2948.7169	2726.15	1845.35
1021.8897	2949.8087	2645	1765.85
1022.0037	2950.8999	2553.8	1672.75
1022.1176	2951.9904	2475.75	1595.05
1022.2315	2953.0803	2403.65	1522.6
1022.3453	2954.1696	2338.4	1457
1022.4591	2955.2582	2289.35	1408.6
1022.5728	2956.3462	2250.25	1371.4
1022.6865	2957.4335	2206.3	1325.2
1022.8002	2958.5202	2176.4	1295.45
1022.9138	2959.6062	2145.05	1264.35
1023.0274	2960.6916	2117.1	1237.1
1023.141	2961.7764	2100.15	1217.5
1023.2545	2962.8605	2076.3	1194.8
1023.3679	2963.9439	2078.65	1198.9
1023.4813	2965.0267	2066.15	1182.75
1023.5947	2966.1089	2062.15	1159
1023.708	2967.1905	2053.95	1172.2
1023.8213	2968.2714	2045.55	1164.45
1023.9346	2969.3516	2045.75	1166.65
1024.0478	2970.4312	2050.2	1162.15
1024.1609	2971.5102	2046.4	1167.05
1024.274	2972.5885	2051.4	1175
1024.3871	2973.6662	2052.7	1167.15
1024.5002	2974.7432	2052.3	1174.15
1024.6132	2975.8196	2042.5	1160.65
1024.7261	2976.8954	2028.5	1151.25
1024.839	2977.9705	2019.5	1141.5
1024.9519	2979.045	2006.35	1125.9
1025.0647	2980.1188	1999.3	1119.75
1025.1775	2981.192	1977.4	1096.9
1025.2902	2982.2645	1962.45	1083.35
1025.4029	2983.3364	1936.15	1057.7
1025.5156	2984.4077	1914.5	1033.15
1025.6282	2985.4783	1886.65	1002
1025.7407	2986.5483	1842.6	960.7
1025.8532	2987.6177	1819.2	940.25
1025.9657	2988.6864	1787.45	907.25
1026.0782	2989.7545	1752.9	871.15
1026.1906	2990.8219	1709.45	829.75
1026.3029	2991.8887	1687.65	807.1
1026.4152	2992.9548	1659.15	781
1026.5275	2994.0204	1626.3	744.95
1026.6397	2995.0852	1589.3	710.95
1026.7519	2996.1495	1574.25	693
1026.864	2997.2131	1549.35	670.8
1026.9761	2998.276	1522.2	644.05
1027.0882	2999.3383	1501.25	621.9
1027.2002	3000.4	1483.25	601.75
1027.3122	3001.4611	1466.65	588.15
1027.4241	3002.5215	1448.2	566.8
1027.536	3003.5812	1433.5	556.4
1027.6478	3004.6404	1417.65	538.25
1027.7596	3005.6989	1411.9	531.1
1027.8714	3006.7567	1396.5	515.95
1027.9831	3007.8139	1417.3	510.65
1028.0947	3008.8705	1377.55	497.65
1028.2064	3009.9264	1376.85	492.55
1028.3179	3010.9818	1367.05	489.55
1028.4295	3012.0364	1353.35	474.7
1028.541	3013.0905	1353.5	473.85
1028.6524	3014.1439	1346.4	464.8
1028.7638	3015.1966	1346.35	468.05
1028.8752	3016.2487	1341.1	461.5
1028.9865	3017.3002	1345.35	459.05
1029.0978	3018.3511	1343.2	465
1029.209	3019.4013	1332.65	452.25
1029.3202	3020.4509	1333.4	455.6
1029.4314	3021.4998	1334.55	455.45
1029.5425	3022.5481	1330.2	450.55
1029.6535	3023.5958	1332	455.15
1029.7645	3024.6428	1329.2	449.4
1029.8755	3025.6892	1324.1	444.95
1029.9864	3026.735	1333	451.75
1030.0973	3027.7802	1338.65	460.65
1030.2082	3028.8247	1328.25	448.7
1030.319	3029.8685	1323	440.95
1030.4297	3030.9118	1332.7	454.25
1030.5404	3031.9544	1335.25	458.4
1030.6511	3032.9963	1340	463.15
1030.7617	3034.0376	1330.6	450.65
1030.8723	3035.0783	1343	463
1030.9829	3036.1184	1341.2	461.55
1031.0934	3037.1578	1342.4	465.55
1031.2038	3038.1966	1347.35	467.25
1031.3142	3039.2348	1349.65	472.4
1031.4246	3040.2723	1355.95	467.05
1031.5349	3041.3092	1345.95	468.8
1031.6452	3042.3455	1348.8	470.5
1031.7554	3043.3811	1344.05	464.65
1031.8656	3044.4161	1346.95	466.1
1031.9758	3045.4505	1334.15	457.45
1032.0859	3046.4842	1332	451.85
1032.1959	3047.5173	1334.75	456.75
1032.3059	3048.5498	1325.3	445.8
1032.4159	3049.5816	1324	444.95
1032.5258	3050.6128	1324.55	445.9
1032.6357	3051.6434	1320.85	441.6
1032.7455	3052.6734	1308.5	428.15
1032.8553	3053.7027	1307.3	427.6
1032.9651	3054.7314	1306	427.95
1033.0748	3055.7594	1296.3	419.55
1033.1845	3056.7868	1287	409.85
1033.2941	3057.8136	1294.55	416.05
1033.4037	3058.8398	1288.2	409.45
1033.5132	3059.8653	1283.05	405.3
1033.6227	3060.8902	1285.3	408.45
1033.7321	3061.9145	1280.6	401.35
1033.8415	3062.9381	1278.55	401.35
1033.9509	3063.9612	1280.9	386.15
1034.0602	3064.9835	1267.95	390.75
1034.1694	3066.0053	1257.85	379.2
1034.2787	3067.0264	1262	383.6
1034.3878	3068.0469	1258.1	379.15
1034.497	3069.0668	1254.95	373.85
1034.6061	3070.086	1240.3	361.1
1034.7151	3071.1046	1238.35	359.55
1034.8241	3072.1226	1230.25	350.3
1034.9331	3073.1399	1217.75	339.3
1035.042	3074.1567	1217.05	339.85
1035.1508	3075.1727	1207.4	327.3
1035.2597	3076.1882	1193.55	316.1
1035.3684	3077.203	1188.75	310.85
1035.4772	3078.2173	1183.05	303.25
1035.5859	3079.2308	1182.85	302.1
1035.6945	3080.2438	1173.7	294.9
1035.8031	3081.2561	1165.3	287.5
1035.9117	3082.2678	1155.25	278.1
1036.0202	3083.2789	1156.25	277.6
1036.1286	3084.2893	1143.55	265.9
1036.2371	3085.2991	1139.15	261.1
1036.3454	3086.3083	1135.25	252.25
1036.4538	3087.3169	1131.9	251.3
1036.562	3088.3248	1133.4	253.45
1036.6703	3089.3321	1120.15	237.95
1036.7785	3090.3388	1117.9	240.3
1036.8866	3091.3449	1117.35	238.35
1036.9948	3092.3503	1109.75	228.25
1037.1028	3093.3551	1100.95	224.4
1037.2108	3094.3593	1099.05	222.95
1037.3188	3095.3629	1098.05	222.8
1037.4267	3096.3658	1100.95	222.55
1037.5346	3097.3681	1098.15	221.1
1037.6425	3098.3698	1096.45	216.65
1037.7503	3099.3708	1092.35	208.05
1037.858	3100.3713	1084.15	208.7
1037.9657	3101.3711	1079.5	200.25
1038.0734	3102.3702	1214.3	201.15
1038.181	3103.3688	1080.05	200.45
1038.2886	3104.3667	1073.95	197.85
1038.3961	3105.364	1071.35	193.35
1038.5036	3106.3607	1072.1	194.5
1038.611	3107.3568	1071.7	192.2
1038.7184	3108.3522	1067.85	191.15
1038.8257	3109.347	1068.05	188.1
1038.933	3110.3412	1068.35	186.55
1039.0403	3111.3348	1064.1	186.3
1039.1475	3112.3277	1063.35	187.55
1039.2547	3113.32	1056.15	179.1
1039.3618	3114.3117	1057.8	180.5
1039.4689	3115.3028	1053.15	174.4
1039.5759	3116.2932	1051.25	170.85
1039.6829	3117.2831	1054.6	170.05
1039.7898	3118.2723	1053.85	178.9
1039.8967	3119.2608	1047.7	167.95
1040.0035	3120.2488	1045.65	167.3
1040.1103	3121.2361	1048.85	170.05
1040.2171	3122.2229	1042.05	164.1
1040.3238	3123.209	1040.65	163.45
1040.4305	3124.1944	1040.15	162.95
1040.5371	3125.1793	1039.15	160.1
1040.6437	3126.1635	1036.6	160.95
1040.7502	3127.1471	1038.05	162.45
1040.8567	3128.1301	1036.3	160.25
1040.9631	3129.1125	1033.35	156.4
1041.0695	3130.0942	1035	157.25
1041.1759	3131.0753	1038.1	150.9
1041.2822	3132.0558	1035.1	155.7
1041.3884	3133.0357	1028.8	151.5
1041.4946	3134.015	1030.7	151
1041.6008	3134.9936	1026.5	145.85
1041.7069	3135.9716	1040.25	140.95
1041.813	3136.949	1022.95	145.2
1041.919	3137.9258	1042.05	145.8
1042.025	3138.902	1028.7	145.75
1042.1309	3139.8775	1021.7	145.1
1042.2368	3140.8524	1020.25	141.9
1042.3427	3141.8267	1020	141.2
1042.4485	3142.8004	1017.35	140.8
1042.5542	3143.7735	1023.6	140.7
1042.6599	3144.7459	1016.85	136.7
1042.7656	3145.7178	1015.4	140.15
1042.8712	3146.689	1013.85	136.9
1042.9768	3147.6596	1014.5	135.6
1043.0823	3148.6295	1012.45	135.05
1043.1878	3149.5989	1010.65	133.25
1043.2932	3150.5676	1006.55	131.25
1043.3986	3151.5357	1005.5	129.9
1043.5039	3152.5032	1003	126.3
1043.6092	3153.4701	1005.5	129.05
1043.7145	3154.4364	1004.45	124.15
1043.8197	3155.402	1005.65	131.1
1043.9248	3156.367	1003.6	124.25
1044.03	3157.3315	1034.75	127.25
1044.135	3158.2952	998.8	119
1044.24	3159.2584	999.75	122.55
1044.345	3160.221	999.25	122.05
1044.4499	3161.1829	1000.7	123.8
1044.5548	3162.1442	997.7	122.05
1044.6596	3163.105	994.15	118.55
1044.7644	3164.065	996.1	119.2
1044.8692	3165.0245	998.2	117.45
1044.9739	3165.9834	993.55	118.75
1045.0785	3166.9416	991.25	114.35
1045.1831	3167.8993	992.9	114.95
1045.2877	3168.8563	994.45	117.8
1045.3922	3169.8127	986.7	110.5
1045.4966	3170.7684	989.9	112.8
1045.6011	3171.7236	991.75	114.6
1045.7054	3172.6782	989.55	113.4
1045.8098	3173.6321	987.75	110.3
1045.914	3174.5854	991.85	109.25
1046.0183	3175.5381	986.8	107.7
1046.1224	3176.4902	987.3	113.25
1046.2266	3177.4417	984.7	108.05
1046.3307	3178.3926	983.15	105.85
1046.4347	3179.3428	983.1	107.45
1046.5387	3180.2924	985.55	109.85
1046.6427	3181.2415	983.05	106.3
1046.7466	3182.1899	983.5	104.65
1046.8504	3183.1377	984.4	108.3
1046.9542	3184.0848	982	100.7
1047.058	3185.0314	979	103.1
1047.1617	3185.9773	981.2	103.5
1047.2654	3186.9227	979.4	104
1047.369	3187.8674	978.1	100.85
1047.4726	3188.8115	979.7	99.6
1047.5761	3189.755	976.6	99.85
1047.6796	3190.6979	976.45	98.6
1047.783	3191.6402	973.35	99.2
1047.8864	3192.5818	977.65	101.35
1047.9898	3193.5229	992.5	96.65
1048.0931	3194.4633	977.05	100.8
1048.1963	3195.4031	972.2	95.2
1048.2995	3196.3423	970.55	93.55
1048.4027	3197.2809	974.6	98
1048.5058	3198.2189	971.5	94.75
1048.6089	3199.1563	980.05	97.95
1048.7119	3200.0931	972.2	94.5
1048.8148	3201.0292	966.9	91.55
1048.9178	3201.9648	970.6	93.4
1049.0206	3202.8997	970.2	91.7
1049.1235	3203.834	969.25	92.25
1049.2262	3204.7677	967.65	91.2
1049.329	3205.7008	970.9	89.15
1049.4317	3206.6333	965.65	88.95
1049.5343	3207.5652	968.2	91.35
1049.6369	3208.4964	967.4	91.55
1049.7394	3209.4271	965.15	89.7
1049.8419	3210.3571	963.65	88.25
1049.9444	3211.2865	969.7	91.6
1050.0468	3212.2154	965.6	89.65
1050.1491	3213.1436	963.05	83.9
1050.2514	3214.0712	969.2	86.6
1050.3537	3214.9982	959.55	83.75
1050.4559	3215.9246	964.2	85.75
1050.5581	3216.8503	963.75	89.15
1050.6602	3217.7755	958.9	84.4
1050.7623	3218.7001	960.3	83.5
1050.8643	3219.624	958.85	83.35
1050.9663	3220.5473	962	86.3
1051.0682	3221.4701	959.6	82.95
1051.1701	3222.3922	960.65	82.7
1051.2719	3223.3137	956.95	79.75
1051.3737	3224.2346	958.65	83.2
1051.4754	3225.1549	957.9	81
1051.5771	3226.0746	956.55	79.25
1051.6788	3226.9937	956.55	79.6
1051.7804	3227.9121	955.15	78.6
1051.8819	3228.83	955.15	79.3
1051.9834	3229.7473	955.15	78.9
1052.0849	3230.6639	954.35	79.25
1052.1863	3231.5799	954.75	78.25
1052.2876	3232.4954	953.7	77.45
1052.3889	3233.4102	952.95	77.15
1052.4902	3234.3244	953.5	78.85
1052.5914	3235.238	950.55	75.6
1052.6926	3236.151	972.85	71.95
1052.7937	3237.0634	951.05	77.4
1052.8948	3237.9752	951.05	73.35
1052.9958	3238.8864	952.6	75.4
1053.0968	3239.797	948.1	72.75
1053.1977	3240.7069	949.7	72.35
1053.2986	3241.6163	949.95	72.4
1053.3994	3242.5251	948.7	75.15
1053.5002	3243.4332	945.5	69.75
1053.6009	3244.3408	947.8	72.1
1053.7016	3245.2477	945.25	70
1053.8022	3246.154	948.15	69.25
1053.9028	3247.0598	944.05	66.3
1054.0034	3247.9649	946.75	70.35
1054.1039	3248.8694	940.3	63.9
1054.2043	3249.7733	943.4	68.8
1054.3047	3250.6766	944.35	67.6
1054.4051	3251.5793	941.15	63.85
1054.5054	3252.4814	941.55	65.45
1054.6056	3253.3829	939.45	65.1
1054.7058	3254.2838	937.6	62.2
1054.806	3255.1841	939.8	64.4
1054.9061	3256.0838	941.65	65.55
1055.0061	3256.9829	937.7	63.55
1055.1062	3257.8814	939.3	60.45
1055.2061	3258.7792	938.35	61.4
1055.306	3259.6765	938.3	62.2
1055.4059	3260.5731	938.7	63.8
1055.5057	3261.4692	935.35	59.65
1055.6055	3262.3647	935.85	58.9
1055.7052	3263.2595	933.1	57.5
1055.8049	3264.1538	933.5	56.5
1055.9045	3265.0474	933.95	58.7
1056.0041	3265.9404	931.3	56.55
1056.1036	3266.8329	930.95	56.05
1056.2031	3267.7247	940.3	55.9
1056.3025	3268.616	927.7	53.8
1056.4019	3269.5066	926.05	50.8
1056.5013	3270.3966	927.05	52.15
1056.6005	3271.286	921.8	46.7
