Software Version:	3.9.2.0
Unit SN:	10000200
Spectrometer SN:	6960
Date:	3/8/2024 12:18:46 PM
Data Line Index:	25
Spectral Points:	2048
Integration time (ms):	125
Averages:	20
Delay (ms):	30000
Sequence Number:	1
Processing:	dark subtract
Laser Power (mW):	300
Laser Current (mA):	822
Laser Diode Temp (C):	25.1
Laser Case Temp (C):	25.7
System Temp (C):	25.7
Spectrometer Temp (C):	23.5
CCD Temp (C):	-0.003
Secondary Temp (C):	20.008
Heatsink Temp (C):	20.565
CCDPCB Temp (C):	35.14
SecondaryPCB Temp (C):	28.77

Wavelength	RamanShift	Raw Counts	Dark Subtracted
787.061	30.1047	430.25	22.3
787.2016	32.3739	431.25	25.3
787.3422	34.6426	436.1	28.2
787.4828	36.9109	438.15	27.9
787.6235	39.1787	445.25	31.9
787.7642	41.4461	449.25	31
787.9049	43.7131	455.65	34.2
788.0456	45.9796	460.25	35.35
788.1863	48.2456	465.65	36.25
788.3271	50.5112	474.8	42.9
788.4679	52.7764	482.55	45.75
788.6087	55.0411	489.5	49.75
788.7496	57.3054	496	50.45
788.8904	59.5692	503.9	56.9
789.0313	61.8326	507.8	58.6
789.1722	64.0955	516.85	63.75
789.3132	66.3579	529	71.45
789.4541	68.6199	541.45	81.95
789.5951	70.8815	564.95	100.65
789.7361	73.1426	615.7	145.45
789.8771	75.4032	742.45	268.9
790.0181	77.6634	1038.85	561.25
790.1592	79.9231	1738.3	1255.1
790.3003	82.1824	3221.15	2725.45
790.4414	84.4412	5828.85	5312.8
790.5825	86.6995	9276.55	8734.3
790.7237	88.9574	12546.35	11983.7
790.8648	91.2148	14695.05	14116.3
791.006	93.4717	15586.95	14996.25
791.1472	95.7282	15638.5	15039.75
791.2885	97.9842	15409	14812
791.4297	100.2398	14882.95	14283.85
791.571	102.4949	14351.2	13746.1
791.7123	104.7495	13769.75	13162.95
791.8536	107.0036	13154.8	12547.3
791.9949	109.2573	12637.3	12033.7
792.1363	111.5105	12178.1	11570.1
792.2777	113.7632	11765.25	11153.4
792.4191	116.0154	11418.95	10797.15
792.5605	118.2672	11189.4	10572.8
792.7019	120.5185	10917.8	10300.1
792.8434	122.7693	10738.9	10118.7
792.9849	125.0197	10598.8	9975.45
793.1264	127.2696	10422.4	9794.8
793.2679	129.519	10284.35	9653.75
793.4094	131.7679	10087.1	9450.85
793.551	134.0163	9900.6	9264.15
793.6926	136.2642	9678.3	9037.75
793.8342	138.5117	9451.8	8800.65
793.9758	140.7587	9198.7	8553.35
794.1175	143.0052	8993.75	8344.85
794.2591	145.2512	8737.1	8091.5
794.4008	147.4967	8547.9	7897.7
794.5425	149.7417	8411.9	7760.25
794.6842	151.9863	8279.45	7622.55
794.826	154.2304	8199.75	7539.85
794.9677	156.4739	8101.75	7437
795.1095	158.717	8022.5	7359.6
795.2513	160.9596	7939.1	7266.3
795.3931	163.2017	7778.15	7106.45
795.535	165.4433	7616.1	6942.85
795.6768	167.6844	7417.85	6745.15
795.8187	169.925	7251.2	6571.65
795.9606	172.1651	7041.75	6360.45
796.1025	174.4047	6876.45	6193.6
796.2445	176.6439	6756.55	6071.75
796.3864	178.8825	6624.15	5932.9
796.5284	181.1206	6547.5	5853.65
796.6704	183.3582	6466.15	5767.35
796.8124	185.5954	6419	5719.3
796.9544	187.832	6356.05	5648.45
797.0965	190.0681	6367	5664.2
797.2386	192.3037	6359.3	5650.5
797.3806	194.5388	6337	5622.95
797.5228	196.7734	6361.15	5647.5
797.6649	199.0075	6399.9	5684.3
797.807	201.2411	6448.25	5729.6
797.9492	203.4742	6493.8	5777
798.0914	205.7068	6588.1	5860.6
798.2336	207.9389	6644.2	5919.2
798.3758	210.1704	6754.35	6036.75
798.518	212.4015	6809.35	6101.15
798.6603	214.632	6886.1	6184.05
798.8025	216.862	6945.85	6241.95
798.9448	219.0915	6986.85	6280
799.0871	221.3205	7027.4	6324
799.2294	223.549	7057.8	6356.35
799.3718	225.777	7064.3	6358
799.5141	228.0044	7101.45	6391.2
799.6565	230.2314	7151.65	6442.15
799.7989	232.4578	7154.2	6441.1
799.9413	234.6837	7209.35	6487
800.0837	236.909	7205.5	6483.95
800.2262	239.1339	7225.85	6474.95
800.3687	241.3582	7179.9	6446.85
800.5111	243.582	7166.95	6405.3
800.6536	245.8053	7170.4	6419.1
800.7961	248.0281	7147.9	6402.8
800.9387	250.2503	7174.7	6422.35
801.0812	252.472	7226.55	6474.45
801.2238	254.6932	7314.55	6564.1
801.3664	256.9139	7373.45	6620.8
801.509	259.134	7532.25	6774.2
801.6516	261.3536	7691.5	6934.85
801.7942	263.5727	7898.7	7141.65
801.9369	265.7912	8096.75	7337.65
802.0795	268.0092	8302.65	7546.45
802.2222	270.2267	8457.9	7703.55
802.3649	272.4436	8545.4	7789.25
802.5076	274.6601	8579.6	7810.2
802.6504	276.8759	8565.25	7799.4
802.7931	279.0913	8502	7738
802.9359	281.3061	8414.95	7650.55
803.0787	283.5204	8380.9	7613.4
803.2215	285.7341	8323.7	7551.55
803.3643	287.9473	8348.85	7575.55
803.5071	290.16	8370.85	7594.1
803.6499	292.3721	8386.3	7617.95
803.7928	294.5837	8471.35	7700.6
803.9357	296.7947	8543.3	7770.75
804.0786	299.0052	8650.2	7878.2
804.2215	301.2152	8656.8	7881.1
804.3644	303.4246	8593.4	7820.25
804.5074	305.6334	8407.95	7633.35
804.6503	307.8418	8217.7	7443.85
804.7933	310.0495	7966.05	7186.65
804.9363	312.2568	7721.35	6945.45
805.0793	314.4635	7452.75	6673.2
805.2223	316.6696	7251.4	6468.65
805.3653	318.8752	7096.2	6302.05
805.5084	321.0802	7037.65	6253.5
805.6514	323.2847	7038.1	6251.85
805.7945	325.4887	7071.55	6284.95
805.9376	327.692	7046.15	6256.55
806.0807	329.8949	7035.05	6244.35
806.2238	332.0972	6947.35	6158.45
806.367	334.2989	6847.45	6052.1
806.5101	336.5001	6696.05	5902.8
806.6533	338.7007	6591.45	5793.3
806.7965	340.9008	6488.75	5693.6
806.9397	343.1003	6384.9	5585.8
807.0829	345.2992	6284.55	5487.95
807.2261	347.4976	6228.15	5429.65
807.3693	349.6955	6154.3	5347.65
807.5126	351.8927	6144.55	5337.3
807.6559	354.0895	6093.55	5280.75
807.7991	356.2856	6080.15	5271.85
807.9424	358.4812	6021.6	5214.5
808.0857	360.6763	6031.9	5218.65
808.2291	362.8707	6019.5	5210.1
808.3724	365.0646	6052.8	5241.35
808.5158	367.258	6044.25	5231.4
808.6591	369.4508	6089.1	5271.95
808.8025	371.643	6185.55	5371.5
808.9459	373.8346	6258.25	5438.95
809.0893	376.0257	6330.7	5509.3
809.2327	378.2162	6359.1	5539.15
809.3762	380.4062	6368.6	5547
809.5196	382.5956	6319.4	5499.55
809.6631	384.7844	6235.25	5419.6
809.8066	386.9726	6161.35	5351.5
809.9501	389.1603	6119	5309.3
810.0936	391.3474	6086.2	5239.25
810.2371	393.5339	6064.4	5249.4
810.3806	395.7199	6041.05	5226.05
810.5241	397.9052	6088.5	5276.65
810.6677	400.09	6157.25	5343.3
810.8113	402.2743	6248.85	5435.25
810.9548	404.4579	6374.3	5561.2
811.0984	406.641	6480.7	5663.55
811.2421	408.8235	6580.4	5763.2
811.3857	411.0054	6670.75	5849.6
811.5293	413.1868	6777.4	5948.3
811.673	415.3675	6783.05	5956.1
811.8166	417.5477	6762.65	5934.2
811.9603	419.7273	6692.2	5858.65
812.104	421.9064	6630.6	5789.7
812.2477	424.0848	6561.25	5730.05
812.3914	426.2627	6495.85	5666.1
812.5351	428.4399	6373.3	5539.6
812.6788	430.6166	6184.2	5347.8
812.8226	432.7928	6015.45	5176.35
812.9663	434.9683	5823.95	4989.25
813.1101	437.1432	5706.25	4869.8
813.2539	439.3176	5604.9	4771.65
813.3977	441.4914	5542.05	4711.25
813.5415	443.6645	5542.5	4706.45
813.6853	445.8371	5517.1	4678.25
813.8291	448.0091	5480.15	4643.25
813.973	450.1806	5481.2	4643.95
814.1168	452.3514	5493.45	4653.8
814.2607	454.5216	5503.2	4658.05
814.4046	456.6913	5502	4661.85
814.5485	458.8603	5538.9	4706.35
814.6924	461.0288	5558.25	4724.4
814.8363	463.1967	5546.8	4712.4
814.9802	465.3639	5559.75	4724.2
815.1241	467.5306	5542.7	4698.35
815.2681	469.6967	5535.85	4699.45
815.412	471.8622	5524.15	4688.4
815.556	474.0271	5544.15	4707.25
815.7	476.1914	5558.25	4712.85
815.844	478.3551	5572.65	4733.25
815.988	480.5182	5604.85	4766.55
816.132	482.6807	5654.75	4817.65
816.276	484.8426	5766.6	4934.6
816.4201	487.0039	5971.8	5133.95
816.5641	489.1647	6193.6	5352.1
816.7082	491.3248	6378.15	5532.95
816.8522	493.4843	6408.1	5570.1
816.9963	495.6432	6382.25	5541.5
817.1404	497.8015	6307	5459.4
817.2845	499.9592	6239.35	5389.6
817.4286	502.1163	6070.65	5221
817.5727	504.2728	5913.7	5064.75
817.7168	506.4287	5751.2	4910.35
817.861	508.5839	5576.3	4733.25
818.0051	510.7386	5482.65	4638.35
818.1493	512.8927	5429.7	4576.75
818.2935	515.0461	5462.5	4614.25
818.4377	517.199	5516.7	4665.25
818.5818	519.3512	5634.35	4783.3
818.726	521.5029	5832.1	4975.35
818.8703	523.6539	6022.95	5172.3
819.0145	525.8043	6085.2	5230.85
819.1587	527.9541	6037.9	5186.4
819.303	530.1033	5885.65	5033.45
819.4472	532.2519	5770.25	4914.5
819.5915	534.3999	5708.65	4852.35
819.7357	536.5472	5715.25	4861.85
819.88	538.694	5791.35	4938.7
820.0243	540.8401	5903.45	5046.5
820.1686	542.9856	5995	5135.4
820.3129	545.1305	6012.2	5145.5
820.4572	547.2748	5991	5127.6
820.6016	549.4185	5905.4	5033.5
820.7459	551.5615	5863.75	4993.65
820.8902	553.704	5883.25	5017.35
821.0346	555.8458	5956.3	5094.15
821.1789	557.987	6084.5	5224.3
821.3233	560.1276	6230.8	5368.25
821.4677	562.2675	6496.7	5636.1
821.6121	564.4069	6863.4	5999.55
821.7565	566.5456	7169.5	6310.7
821.9009	568.6837	7298.8	6440.55
822.0453	570.8212	7083.25	6222.85
822.1897	572.958	6646.15	5784.45
822.3342	575.0942	6210.45	5349.3
822.4786	577.2299	5933.3	5072.1
822.6231	579.3648	5801.6	4949.05
822.7675	581.4992	5731.25	4883.45
822.912	583.6329	5746.55	4899
823.0565	585.766	5853.5	5002.8
823.201	587.8985	5956.85	5099.65
823.3454	590.0304	6003.2	5118.2
823.4899	592.1616	5994.6	5128.25
823.6345	594.2922	5929.35	5058.5
823.779	596.4222	5815.6	4946.75
823.9235	598.5515	5706.8	4834.15
824.068	600.6802	5605.85	4734.95
824.2126	602.8083	5512.05	4643
824.3571	604.9358	5502.85	4633.95
824.5017	607.0626	5511.15	4637.45
824.6462	609.1888	5611.65	4738.35
824.7908	611.3144	5727.5	4851.4
824.9354	613.4393	5842.65	4968.85
825.08	615.5636	5936.85	5062.5
825.2246	617.6873	5979.15	5104.55
825.3692	619.8103	5924.7	5048.65
825.5138	621.9327	5803.55	4925.55
825.6584	624.0544	5665.45	4794.25
825.803	626.1756	5528.05	4656.4
825.9477	628.2961	5448.55	4576.5
826.0923	630.4159	5395.4	4521.1
826.237	632.5351	5387.45	4510.6
826.3816	634.6537	5379.7	4502.35
826.5263	636.7716	5374.55	4493.75
826.6709	638.8889	5410.7	4533.6
826.8156	641.0056	5412.85	4532.3
826.9603	643.1216	5395.8	4515.35
827.105	645.237	5377	4496.9
827.2497	647.3518	5295.8	4421.3
827.3944	649.4659	5268.25	4397.85
827.5391	651.5793	5230.3	4354.6
827.6838	653.6922	5197.5	4321
827.8285	655.8043	5201.15	4327.65
827.9733	657.9159	5206.65	4327.75
828.118	660.0268	5206.75	4329.55
828.2627	662.137	5184.2	4303.65
828.4075	664.2466	5203.45	4319.7
828.5522	666.3556	5188.6	4306.45
828.697	668.4639	5180.1	4298.35
828.8418	670.5716	5145	4269.1
828.9865	672.6786	5102.5	4223
829.1313	674.785	5076.95	4194.65
829.2761	676.8907	5036.05	4154.35
829.4209	678.9958	5022.95	4143.8
829.5657	681.1002	5031	4147.95
829.7105	683.204	5037	4147.95
829.8553	685.3072	5033.85	4146.05
830.0001	687.4097	5008.5	4127.2
830.1449	689.5115	5014.95	4129.9
830.2898	691.6127	5018.25	4135.35
830.4346	693.7132	5021.7	4141.25
830.5794	695.8131	5052.05	4147.7
830.7243	697.9123	5077	4188.3
830.8691	700.0109	5077.8	4188.45
831.014	702.1089	5110.05	4224.55
831.1588	704.2061	5147.1	4259.3
831.3037	706.3028	5205.95	4315.4
831.4486	708.3987	5231.75	4346.35
831.5935	710.4941	5237.3	4351.85
831.7383	712.5887	5244.75	4359.05
831.8832	714.6827	5277.3	4389.1
832.0281	716.7761	5311.85	4424.55
832.173	718.8688	5382.4	4496.15
832.3179	720.9608	5451.4	4557.25
832.4628	723.0522	5550.15	4655.95
832.6077	725.1429	5636.45	4745.95
832.7527	727.233	5721.2	4831.3
832.8976	729.3224	5786.3	4895.5
833.0425	731.4112	5800	4910.25
833.1874	733.4993	5702.65	4812
833.3324	735.5867	5580.8	4688.9
833.4773	737.6735	5422.8	4529.6
833.6222	739.7596	5311.55	4420.1
833.7672	741.845	5207.65	4315.35
833.9122	743.9298	5175.7	4283.1
834.0571	746.014	5140.4	4248.1
834.2021	748.0974	5142.6	4244.75
834.347	750.1802	5139.35	4246
834.492	752.2624	5165.2	4271.3
834.637	754.3439	5191.7	4298.2
834.782	756.4247	5260.6	4356.5
834.9269	758.5048	5347.85	4451.6
835.0719	760.5843	5525.2	4627.55
835.2169	762.6631	5790.6	4895.95
835.3619	764.7413	6091.5	5196.05
835.5069	766.8188	6526.65	5629.85
835.6519	768.8956	6901.1	6004.05
835.7969	770.9718	7152.15	6255.6
835.9419	773.0473	7139.95	6243.35
836.0869	775.1221	7001.3	6103.35
836.232	777.1962	6877.95	5983.1
836.377	779.2697	6843.7	5945.25
836.522	781.3426	6912.05	5997
836.667	783.4147	6976.05	6078.9
836.8121	785.4862	6987.5	6091.15
836.9571	787.557	6820.55	5920.25
837.1021	789.6271	6526.4	5628.1
837.2472	791.6966	6145.25	5245.5
837.3922	793.7654	5782.45	4883.95
837.5373	795.8335	5513.25	4618.05
837.6823	797.901	5329.95	4430.5
837.8274	799.9678	5240.25	4340.7
837.9724	802.0339	5176.5	4275.4
838.1175	804.0993	5158.9	4252.95
838.2626	806.1641	5092.4	4191.5
838.4076	808.2282	5038.85	4139.7
838.5527	810.2916	5014.15	4112.6
838.6978	812.3544	4971.9	4075.75
838.8428	814.4164	4945.05	4048.9
838.9879	816.4778	4970.05	4067.7
839.133	818.5385	5006.5	4103.8
839.2781	820.5986	5079.7	4179.35
839.4232	822.658	5243.3	4338.65
839.5682	824.7166	5453.4	4552.95
839.7133	826.7747	5806.7	4906.85
839.8584	828.832	6171.05	5270.05
840.0035	830.8886	6453.5	5548.35
840.1486	832.9446	6576.65	5672.6
840.2937	834.9999	6471.75	5570.25
840.4388	837.0545	6256	5350.7
840.5839	839.1085	6011.65	5109.05
840.729	841.1618	5775.45	4870.55
840.8741	843.2143	5593.7	4688.65
841.0192	845.2662	5466.95	4561.8
841.1643	847.3175	5371.05	4467.15
841.3095	849.368	5282.85	4377.35
841.4546	851.4179	5263.6	4358.45
841.5997	853.467	5214.75	4310.6
841.7448	855.5155	5191	4283.35
841.8899	857.5633	5155.7	4250.5
842.0351	859.6105	5104.6	4198.6
842.1802	861.6569	5063.4	4156.65
842.3253	863.7027	5024.9	4116.25
842.4704	865.7478	4992.3	4088.1
842.6156	867.7922	4952.65	4047.65
842.7607	869.8359	4940.2	4032.8
842.9058	871.8789	4943.55	4039.05
843.0509	873.9212	4984.35	4045
843.1961	875.9629	5023.35	4117.75
843.3412	878.0039	5068.75	4160.9
843.4863	880.0441	5108.6	4201.3
843.6315	882.0837	5166.6	4263.1
843.7766	884.1226	5206.95	4299.4
843.9218	886.1609	5245.5	4342
844.0669	888.1984	5357.05	4449
844.212	890.2352	5470.4	4563.65
844.3572	892.2714	5484.4	4570.05
844.5023	894.3069	5463.7	4557.4
844.6475	896.3416	5341	4434.7
844.7926	898.3757	5248.7	4342.65
844.9377	900.4091	5177.2	4268.1
845.0829	902.4418	5168	4256.95
845.228	904.4739	5179.7	4270.7
845.3732	906.5052	5224.05	4314.05
845.5183	908.5358	5207.65	4298.85
845.6635	910.5658	5133.3	4224.25
845.8086	912.595	5017.25	4107.95
845.9538	914.6236	4880.25	3969.7
846.0989	916.6515	4803.25	3897.35
846.2441	918.6786	4732.6	3821.25
846.3892	920.7051	4706.95	3793.95
846.5344	922.7309	4744.7	3836.3
846.6795	924.756	4761.7	3854.75
846.8246	926.7804	4795.35	3885.9
846.9698	928.8041	4800.9	3890.65
847.1149	930.8272	4842.7	3931.6
847.2601	932.8495	4848.25	3937.7
847.4052	934.8711	4845.45	3933.65
847.5504	936.892	4840.7	3930.1
847.6955	938.9123	4856	3945
847.8407	940.9318	4908.3	3998.35
847.9858	942.9506	4931.95	4022.2
848.131	944.9688	4887.95	3978.9
848.2761	946.9862	4817.55	3906
848.4213	949.003	4726.95	3817.2
848.5664	951.019	4669.35	3757.6
848.7115	953.0344	4624.2	3711.95
848.8567	955.0491	4604.85	3691.45
849.0018	957.063	4620.55	3707.75
849.147	959.0763	4662.2	3751.95
849.2921	961.0888	4685.25	3772.05
849.4373	963.1007	4715.3	3803.8
849.5824	965.1119	4706.4	3799.8
849.7275	967.1223	4694.55	3793.35
849.8727	969.1321	4668.45	3766.8
850.0178	971.1412	4666.2	3758.8
850.1629	973.1495	4657.65	3747.35
850.3081	975.1572	4697.95	3755.75
850.4532	977.1641	4669.3	3759.1
850.5983	979.1704	4659.35	3747.85
850.7435	981.1759	4652.25	3734
850.8886	983.1808	4662.1	3750.35
851.0337	985.1849	4663.45	3741.3
851.1788	987.1884	4694.3	3783.15
851.324	989.1911	4716.9	3804.8
851.4691	991.1932	4722.45	3807.75
851.6142	993.1945	4750.5	3839.75
851.7593	995.1951	4732.55	3821.5
851.9045	997.1951	4722.65	3802.1
852.0496	999.1943	4714.1	3802.85
852.1947	1001.1928	4732.65	3822.1
852.3398	1003.1906	4768.3	3857.85
852.4849	1005.1877	4856.55	3942.35
852.63	1007.1841	4910.6	3999.2
852.7751	1009.1798	4940.7	4031.1
852.9202	1011.1748	4916.3	4006.45
853.0653	1013.1691	4847.2	3935.75
853.2104	1015.1627	4731.7	3818.85
853.3555	1017.1556	4600.7	3686.7
853.5006	1019.1477	4536	3624.25
853.6457	1021.1392	4467.55	3561.65
853.7908	1023.1299	4425.55	3519.4
853.9359	1025.12	4447.3	3549.15
854.081	1027.1093	4496.65	3602.05
854.2261	1029.0979	4568.6	3674.95
854.3712	1031.0859	4642.95	3747.35
854.5163	1033.0731	4671.75	3767.65
854.6613	1035.0596	4659.5	3754.85
854.8064	1037.0454	4578.1	3669.3
854.9515	1039.0304	4539.55	3629.3
855.0965	1041.0148	4482.35	3573.25
855.2416	1042.9985	4411.4	3500.8
855.3867	1044.9814	4402.05	3494.25
855.5317	1046.9636	4356.25	3444
855.6768	1048.9452	4379.2	3470.35
855.8219	1050.926	4408.85	3500.85
855.9669	1052.9061	4433.05	3523.4
856.112	1054.8855	4435.8	3523.25
856.257	1056.8642	4465.75	3554.2
856.4021	1058.8421	4501.15	3588
856.5471	1060.8194	4522.65	3612.4
856.6921	1062.7959	4530.35	3620.85
856.8372	1064.7717	4585.45	3674.8
856.9822	1066.7469	4631.3	3716.45
857.1272	1068.7213	4685.55	3771.6
857.2723	1070.695	4760.45	3850
857.4173	1072.6679	4791.9	3879.85
857.5623	1074.6402	4801.55	3891.45
857.7073	1076.6117	4810.75	3893.45
857.8523	1078.5826	4728.3	3815.9
857.9973	1080.5527	4613.25	3699.4
858.1423	1082.5221	4534.9	3621.5
858.2873	1084.4908	4509.35	3598.95
858.4323	1086.4587	4491.85	3578.65
858.5773	1088.426	4488.5	3576.4
858.7223	1090.3925	4500.5	3582.4
858.8673	1092.3584	4532.65	3621.65
859.0123	1094.3235	4543.65	3634.4
859.1573	1096.2879	4616.15	3707.15
859.3022	1098.2515	4725.8	3815.3
859.4472	1100.2145	4833.75	3923.75
859.5922	1102.1767	4969.3	4055.6
859.7371	1104.1382	5094.85	4186
859.8821	1106.099	5263	4349.4
860.027	1108.0591	5409.15	4496
860.172	1110.0185	5482.5	4569.7
860.3169	1111.9771	5553.8	4644.6
860.4619	1113.9351	5509.9	4598.05
860.6068	1115.8923	5467.65	4555.05
860.7517	1117.8488	5428.45	4514.5
860.8967	1119.8045	5317.8	4407.55
861.0416	1121.7596	5231.75	4321.4
861.1865	1123.7139	5141.95	4231
861.3314	1125.6675	5100.6	4187.15
861.4763	1127.6204	5112	4200.1
861.6212	1129.5726	5093.8	4181.65
861.7661	1131.524	5052.5	4143.2
861.911	1133.4748	4933.1	4021.3
862.0559	1135.4248	4827.8	3919.45
862.2008	1137.3741	4699.1	3790.3
862.3457	1139.3226	4631.45	3719.85
862.4905	1141.2705	4618.4	3707.45
862.6354	1143.2176	4563.2	3645.95
862.7803	1145.164	4528	3614.25
862.9251	1147.1097	4488	3575.6
863.07	1149.0546	4418.4	3506.6
863.2148	1150.9989	4342.05	3431.35
863.3597	1152.9424	4294.4	3381.25
863.5045	1154.8852	4257	3344.3
863.6493	1156.8272	4247.3	3337.25
863.7942	1158.7686	4273.8	3356.65
863.939	1160.7092	4281.95	3369.95
864.0838	1162.6491	4304	3390.9
864.2286	1164.5883	4367.35	3459.1
864.3734	1166.5267	4458.35	3545.1
864.5182	1168.4644	4555.5	3644.75
864.663	1170.4014	4681.7	3764.5
864.8078	1172.3377	4831.5	3921.4
864.9526	1174.2732	5007.7	4097.1
865.0974	1176.2081	5287.75	4377.15
865.2421	1178.1421	5619.05	4706.8
865.3869	1180.0755	5987.15	5076.75
865.5317	1182.0082	6224.85	5315.75
865.6764	1183.9401	6344.35	5436.95
865.8212	1185.8713	6252.65	5344.55
865.9659	1187.8017	6008.85	5103
866.1106	1189.7315	5732	4833.95
866.2554	1191.6605	5469.1	4568.8
866.4001	1193.5888	5302.6	4402.45
866.5448	1195.5163	5208.05	4304.2
866.6895	1197.4432	5140.05	4229.6
866.8342	1199.3693	5102.1	4191.5
866.9789	1201.2947	5087.75	4176.75
867.1236	1203.2193	5066.65	4157.8
867.2683	1205.1432	5047.2	4138.1
867.413	1207.0664	5030	4123.2
867.5576	1208.9889	5003.5	4092.95
867.7023	1210.9106	4979.8	4073.5
867.847	1212.8316	5000.35	4093.55
867.9916	1214.7519	5017.85	4099.85
868.1363	1216.6715	5061.15	4150.4
868.2809	1218.5903	5105.1	4197.25
868.4255	1220.5084	5162.75	4254.45
868.5701	1222.4257	5254.6	4343.7
868.7148	1224.3424	5305.65	4397.15
868.8594	1226.2583	5396.9	4484.15
869.004	1228.1735	5483.6	4571.55
869.1486	1230.0879	5604.3	4696
869.2932	1232.0016	5731.5	4822.5
869.4377	1233.9146	5834.65	4923.15
869.5823	1235.8269	5878.6	4968.8
869.7269	1237.7384	5875.3	4967.35
869.8715	1239.6492	5832.95	4924.3
870.016	1241.5592	5855.95	4945.95
870.1606	1243.4686	5902.7	4993.4
870.3051	1245.3772	6044.75	5137.55
870.4496	1247.285	6221.35	5311.15
870.5941	1249.1922	6418.35	5511.1
870.7387	1251.0986	6542.85	5636.3
870.8832	1253.0042	6642.9	5733.55
871.0277	1254.9092	6737.55	5828.2
871.1722	1256.8134	6789.75	5883.8
871.3167	1258.7169	6879.65	5970.35
871.4611	1260.6196	6959.95	6051.7
871.6056	1262.5216	7087.65	6178.2
871.7501	1264.4229	7202.2	6297
871.8945	1266.3234	7294.8	6386.45
872.039	1268.2232	7406.35	6496.3
872.1834	1270.1223	7439.6	6527.2
872.3278	1272.0207	7484.85	6576.85
872.4723	1273.9183	7475.35	6560.6
872.6167	1275.8151	7433	6525
872.7611	1277.7113	7449.75	6540.95
872.9055	1279.6067	7533.55	6625.75
873.0499	1281.5014	7766.55	6857.1
873.1943	1283.3953	8109.65	7197.25
873.3386	1285.2885	8520.5	7614.9
873.483	1287.181	8927.5	8020.15
873.6274	1289.0727	9317.1	8411.65
873.7717	1290.9637	9576.75	8667.6
873.9161	1292.854	9699.4	8793.65
874.0604	1294.7435	9682.4	8776.5
874.2047	1296.6323	9562.15	8654.1
874.349	1298.5204	9381.4	8470.65
874.4933	1300.4077	9180.7	8270.85
874.6376	1302.2943	8930.9	8022.4
874.7819	1304.1802	8682.9	7773.9
874.9262	1306.0653	8343.15	7431.75
875.0705	1307.9497	7988.75	7081.45
875.2147	1309.8333	7667.6	6762.05
875.359	1311.7162	7469.45	6562.1
875.5032	1313.5984	7305.4	6393.55
875.6475	1315.4798	7191	6280.7
875.7917	1317.3605	7094.6	6170.95
875.9359	1319.2405	7019.4	6108.55
876.0801	1321.1197	6810.2	5899.85
876.2243	1322.9982	6601.85	5689.9
876.3685	1324.876	6382.65	5475.7
876.5127	1326.753	6180	5271.95
876.6569	1328.6293	5995.65	5086.2
876.801	1330.5048	5872.9	4961.05
876.9452	1332.3796	5738.7	4831.4
877.0893	1334.2537	5657.2	4722.95
877.2335	1336.127	5562	4654.8
877.3776	1337.9996	5542.25	4634.4
877.5217	1339.8714	5552.95	4644.9
877.6658	1341.7426	5577.45	4623.4
877.8099	1343.6129	5565.85	4656.9
877.954	1345.4826	5552.7	4646
878.0981	1347.3515	5557.35	4643.8
878.2422	1349.2196	5543.4	4634.35
878.3862	1351.087	5574.35	4665.6
878.5303	1352.9537	5567.7	4659.9
878.6743	1354.8197	5638.3	4729.55
878.8184	1356.6849	5743.5	4834.75
878.9624	1358.5493	5846.5	4936.15
879.1064	1360.4131	5976.1	5068.35
879.2504	1362.276	6075.9	5166
879.3944	1364.1383	6130.15	5223.55
879.5384	1365.9998	6036.05	5123.45
879.6823	1367.8606	5866.05	4958.2
879.8263	1369.7206	5672.35	4765.8
879.9702	1371.5799	5497.95	4586.6
880.1142	1373.4384	5298.35	4388.65
880.2581	1375.2962	5157.7	4249.4
880.402	1377.1533	4948.65	4041.5
880.5459	1379.0096	4761	3855.85
880.6898	1380.8652	4545.65	3641.4
880.8337	1382.7201	4377.8	3470.75
880.9776	1384.5742	4243.3	3334.8
881.1215	1386.4275	4144.25	3233.9
881.2653	1388.2802	4071.1	3163.1
881.4092	1390.132	3990.7	3082.8
881.553	1391.9832	3957.95	3046.95
881.6968	1393.8336	3924.95	3015.55
881.8406	1395.6832	3901.75	2993.15
881.9844	1397.5322	3868.4	2959.35
882.1282	1399.3803	3858.15	2946.35
882.272	1401.2278	3835.6	2926.6
882.4158	1403.0745	3829.85	2920.15
882.5595	1404.9204	3805.8	2902.45
882.7033	1406.7656	3818.7	2909.45
882.847	1408.6101	3828.7	2922.5
882.9908	1410.4538	3835	2926.1
883.1345	1412.2968	3860.35	2952.6
883.2782	1414.139	3891.7	2982.8
883.4219	1415.9805	3924.3	3017.25
883.5656	1417.8213	3976.45	3062.1
883.7092	1419.6613	4029.5	3122.6
883.8529	1421.5006	4097.45	3189.75
883.9965	1423.3391	4233.8	3328.25
884.1402	1425.1769	4378.5	3472.15
884.2838	1427.0139	4621.95	3714.45
884.4274	1428.8502	4937.25	4029.65
884.571	1430.6858	5223.45	4315.15
884.7146	1432.5206	5446.9	4541.05
884.8582	1434.3547	5580.3	4673.35
885.0018	1436.188	5573.85	4667.55
885.1453	1438.0206	5546.65	4639.8
885.2889	1439.8524	5432.45	4528.4
885.4324	1441.6835	5385.1	4478.95
885.5759	1443.5139	5340.1	4428.4
885.7194	1445.3435	5295.5	4389.15
885.8629	1447.1724	5277.25	4372.8
886.0064	1449.0005	5267.15	4361.9
886.1499	1450.8279	5245.1	4337
886.2933	1452.6545	5250.75	4342.1
886.4368	1454.4804	5236.05	4330.95
886.5802	1456.3056	5262.35	4348.4
886.7237	1458.13	5208.15	4302.95
886.8671	1459.9536	5120.8	4216.3
887.0105	1461.7766	4997.05	4092.8
887.1539	1463.5987	4829.45	3921.5
887.2972	1465.4202	4643.8	3737.35
887.4406	1467.2409	4469	3564
887.584	1469.0608	4288.35	3384.85
887.7273	1470.88	4153.7	3247.5
887.8706	1472.6984	4036.8	3131.25
888.0139	1474.5161	3923.4	3015.9
888.1572	1476.3331	3841.65	2935.45
888.3005	1478.1493	3792	2886.25
888.4438	1479.9648	3731.1	2826.4
888.5871	1481.7795	3695.65	2792
888.7303	1483.5935	3656.35	2749
888.8736	1485.4067	3630.1	2722.35
889.0168	1487.2192	3621.05	2715.1
889.16	1489.031	3605.8	2697.45
889.3032	1490.842	3585.85	2683.05
889.4464	1492.6522	3573.05	2668.9
889.5896	1494.4618	3554.8	2648.75
889.7327	1496.2705	3534.4	2629.65
889.8759	1498.0785	3521.3	2615.55
890.019	1499.8858	3508.2	2603.35
890.1622	1501.6924	3467.4	2563.4
890.3053	1503.4981	3445.95	2542.05
890.4484	1505.3032	3409.45	2502.85
890.5914	1507.1075	3376.3	2472.95
890.7345	1508.911	3368.4	2463.15
890.8776	1510.7138	3329.9	2423.25
891.0206	1512.5159	3314.4	2410.05
891.1637	1514.3172	3294.7	2391.1
891.3067	1516.1178	3265.3	2360.75
891.4497	1517.9176	3253.05	2349
891.5927	1519.7166	3224.2	2319.5
891.7357	1521.515	3227.9	2318.9
891.8786	1523.3126	3200.45	2298
892.0216	1525.1094	3197.95	2294.8
892.1645	1526.9055	3178.95	2277.85
892.3074	1528.7008	3155.05	2251.25
892.4503	1530.4954	3151.15	2248.45
892.5932	1532.2893	3149.45	2249.05
892.7361	1534.0824	3146.1	2242.8
892.879	1535.8747	3148.65	2247.15
893.0218	1537.6663	3151.15	2250.55
893.1647	1539.4572	3144.3	2243.6
893.3075	1541.2473	3158.4	2256.5
893.4503	1543.0367	3162.3	2264.5
893.5931	1544.8253	3187.2	2282.65
893.7359	1546.6132	3204.85	2299.8
893.8787	1548.4003	3225.7	2316.25
894.0214	1550.1867	3256.4	2347.4
894.1642	1551.9723	3300.7	2396.9
894.3069	1553.7572	3357.55	2457.7
894.4496	1555.5414	3436.05	2537.75
894.5923	1557.3247	3540.7	2642.8
894.735	1559.1074	3656.55	2761.2
894.8777	1560.8893	3792.75	2896.7
895.0204	1562.6705	3882.65	2985
895.163	1564.4509	3963.05	3065
895.3056	1566.2305	4015.85	3120.9
895.4482	1568.0094	4045.6	3152.4
895.5908	1569.7876	4048.15	3153.1
895.7334	1571.565	4039.55	3142.65
895.876	1573.3417	4027.45	3130.2
896.0186	1575.1176	4036.9	3140.5
896.1611	1576.8928	4047.55	3152.6
896.3036	1578.6672	4054.05	3161.9
896.4461	1580.4409	4104.15	3215.6
896.5886	1582.2138	4150.9	3257.6
896.7311	1583.986	4212.75	3318.25
896.8736	1585.7575	4303.55	3409.8
897.0161	1587.5282	4371.4	3479.6
897.1585	1589.2981	4457.55	3567.75
897.3009	1591.0673	4543.45	3651.65
897.4433	1592.8358	4640.1	3750.35
897.5857	1594.6035	4723.35	3828.35
897.7281	1596.3704	4767.7	3875.1
897.8705	1598.1366	4827.7	3933.1
898.0128	1599.9021	4890.05	3997.85
898.1551	1601.6668	4942.5	4047.8
898.2975	1603.4308	5014.4	4119.4
898.4398	1605.194	5122.25	4223
898.5821	1606.9564	5256.35	4366.65
898.7243	1608.7182	5426.65	4535.35
898.8666	1610.4791	5646.55	4760.7
899.0088	1612.2394	5854.45	4967.35
899.1511	1613.9988	6077.2	5190.2
899.2933	1615.7576	6271.4	5380.85
899.4355	1617.5156	6409.05	5510.75
899.5776	1619.2728	6423.2	5526.3
899.7198	1621.0293	6337.55	5444.95
899.862	1622.785	6155.65	5258.8
900.0041	1624.54	5871.55	4978.8
900.1462	1626.2942	5590.85	4701
900.2883	1628.0477	5297.8	4406.1
900.4304	1629.8005	5047.8	4155.15
900.5725	1631.5525	4807.15	3919.4
900.7145	1633.3037	4610.6	3721.3
900.8566	1635.0542	4448.4	3560
900.9986	1636.804	4331.25	3441.75
901.1406	1638.553	4273.2	3312.15
901.2826	1640.3013	4178.25	3287.2
901.4245	1642.0488	4129.3	3239
901.5665	1643.7955	4123.45	3237.45
901.7085	1645.5416	4142	3255.85
901.8504	1647.2868	4184.35	3297
901.9923	1649.0313	4239.2	3348.3
902.1342	1650.7751	4314.9	3421.25
902.2761	1652.5181	4392.65	3502.5
902.4179	1654.2604	4487.15	3596.75
902.5598	1656.0019	4620.7	3731.95
902.7016	1657.7427	4744.55	3854.8
902.8434	1659.4828	4910.85	4022.4
902.9852	1661.222	5011.9	4121.5
903.127	1662.9606	4998.7	4110.6
903.2687	1664.6984	4880.6	3989.8
903.4105	1666.4354	4649.1	3755
903.5522	1668.1717	4326.95	3438.85
903.6939	1669.9072	4014.25	3123.45
903.8356	1671.642	3757.55	2865.35
903.9773	1673.3761	3537.75	2648.75
904.119	1675.1094	3348.45	2458.95
904.2606	1676.8419	3206.05	2316.55
904.4022	1678.5737	3091	2200.55
904.5439	1680.3048	3012.6	2122.45
904.6855	1682.0351	2933.25	2042.75
904.827	1683.7646	2877.4	1986.15
904.9686	1685.4934	2828.4	1939.95
905.1101	1687.2215	2782	1893.4
905.2517	1688.9488	2737.7	1851.5
905.3932	1690.6754	2700.75	1814.3
905.5347	1692.4012	2679.55	1791.6
905.6761	1694.1263	2648.1	1758.3
905.8176	1695.8506	2626.15	1735.6
905.9591	1697.5742	2608.95	1719.8
906.1005	1699.297	2583.45	1697.45
906.2419	1701.0191	2554.65	1669.6
906.3833	1702.7404	2545.4	1660.1
906.5246	1704.461	2525.8	1638.2
906.666	1706.1808	2501.7	1613.8
906.8073	1707.8999	2492.2	1604.25
906.9487	1709.6182	2474.1	1587.75
907.09	1711.3358	2457.6	1573.05
907.2313	1713.0527	2451.3	1566.8
907.3725	1714.7688	2436.3	1544.25
907.5138	1716.4841	2437.25	1549.3
907.655	1718.1987	2424.45	1532.2
907.7962	1719.9126	2403.15	1518.45
907.9374	1721.6257	2406.5	1517.2
908.0786	1723.338	2387.85	1502.95
908.2198	1725.0496	2382.8	1495.7
908.3609	1726.7605	2380.7	1494.6
908.502	1728.4706	2376.7	1490.75
908.6431	1730.18	2376.25	1489.5
908.7842	1731.8886	2360.2	1478.35
908.9253	1733.5964	2366.15	1460.8
909.0664	1735.3036	2351.25	1466.15
909.2074	1737.0099	2340.15	1453.35
909.3484	1738.7156	2327.85	1443.4
909.4894	1740.4204	2307.55	1419.6
909.6304	1742.1246	2309.3	1421.85
909.7714	1743.8279	2304.9	1421.05
909.9123	1745.5306	2284.1	1399
910.0532	1747.2325	2264.8	1378.7
910.1941	1748.9336	2259.35	1376.25
910.335	1750.634	2271.2	1382.85
910.4759	1752.3336	2244.7	1360.15
910.6168	1754.0325	2244	1358.9
910.7576	1755.7307	2234.05	1348.3
910.8984	1757.4281	2242.25	1357.1
911.0392	1759.1247	2247.35	1353.05
911.18	1760.8206	2235.6	1343
911.3208	1762.5158	2223.25	1334.65
911.4615	1764.2102	2214.5	1329.5
911.6022	1765.9039	2209.25	1324.95
911.7429	1767.5968	2207.5	1326.05
911.8836	1769.289	2206.2	1319.85
912.0243	1770.9804	2198.6	1311.85
912.1649	1772.6711	2205.3	1316.3
912.3056	1774.361	2194.35	1307.55
912.4462	1776.0502	2201.8	1315.55
912.5868	1777.7386	2194.65	1304.3
912.7274	1779.4263	2183.85	1297.45
912.8679	1781.1132	2183.55	1296.65
913.0084	1782.7994	2181.25	1295.55
913.149	1784.4849	2180.85	1296.9
913.2895	1786.1696	2192.95	1291.05
913.4299	1787.8535	2171.6	1287.5
913.5704	1789.5367	2156.7	1272.2
913.7108	1791.2192	2156.8	1274.8
913.8513	1792.9009	2176.35	1268.05
913.9917	1794.5818	2153	1268.8
914.132	1796.2621	2146.45	1264.1
914.2724	1797.9415	2148.8	1263.65
914.4128	1799.6202	2134.75	1250.25
914.5531	1801.2982	2142.15	1254.45
914.6934	1802.9755	2135.4	1247.95
914.8337	1804.6519	2135.3	1247.85
914.9739	1806.3277	2132.3	1247.65
915.1142	1808.0027	2120.65	1238.2
915.2544	1809.6769	2125.1	1243.1
915.3946	1811.3504	2121.5	1238.15
915.5348	1813.0231	2115.75	1230.3
915.675	1814.6951	2118.4	1231.65
915.8151	1816.3664	2117.65	1230.5
915.9553	1818.0369	2111.5	1226.95
916.0954	1819.7067	2101.3	1217
916.2355	1821.3757	2105.9	1218.55
916.3755	1823.044	2102.4	1216.5
916.5156	1824.7115	2096.35	1211.35
916.6556	1826.3783	2100.55	1216.3
916.7956	1828.0443	2090.85	1208.2
916.9356	1829.7096	2093.35	1206.15
917.0756	1831.3741	2100.9	1213.35
917.2155	1833.0379	2085	1199.85
917.3555	1834.701	2082.2	1199.6
917.4954	1836.3633	2087.55	1203.6
917.6353	1838.0248	2081.4	1197
917.7751	1839.6856	2072.9	1189.8
917.915	1841.3457	2067.9	1182.8
918.0548	1843.005	2066.8	1181.75
918.1946	1844.6636	2072.95	1189.35
918.3344	1846.3214	2069.5	1184.15
918.4742	1847.9785	2066.45	1181.7
918.6139	1849.6349	2066.05	1178.3
918.7537	1851.2904	2065.5	1170.45
918.8934	1852.9453	2053.55	1167.8
919.0331	1854.5994	2061.6	1173.75
919.1727	1856.2528	2062.7	1172.5
919.3124	1857.9054	2046.3	1158.4
919.452	1859.5572	2051.45	1167.85
919.5916	1861.2083	2038.6	1153.55
919.7312	1862.8587	2048.3	1163.75
919.8708	1864.5084	2040.4	1154.3
920.0103	1866.1572	2035.85	1150.6
920.1498	1867.8054	2038.95	1151.35
920.2893	1869.4528	2034.35	1148.35
920.4288	1871.0994	2032.3	1146.7
920.5683	1872.7453	2034.85	1147.15
920.7077	1874.3905	2026.65	1135.3
920.8471	1876.0349	2017	1129.65
920.9865	1877.6786	2012.45	1125.65
921.1259	1879.3215	2022.35	1138.15
921.2653	1880.9637	2011.6	1127.15
921.4046	1882.6051	2013.65	1129.5
921.5439	1884.2458	2004.3	1119.4
921.6832	1885.8858	2008.15	1122.65
921.8225	1887.525	2003.9	1116.85
921.9617	1889.1634	2000.2	1114.2
922.101	1890.8011	2003.25	1116.6
922.2402	1892.4381	1996.1	1111.75
922.3794	1894.0743	1981.15	1095.85
922.5185	1895.7098	1989.25	1105.4
922.6577	1897.3446	1985.1	1097.85
922.7968	1898.9786	1984.45	1094.9
922.9359	1900.6118	1970.8	1088.35
923.075	1902.2443	1973	1085.6
923.214	1903.8761	1979	1096.5
923.3531	1905.5071	1962.8	1077.3
923.4921	1907.1374	1955.45	1068.65
923.6311	1908.7669	1957.95	1074
923.77	1910.3957	1954.25	1070.8
923.909	1912.0237	1957.25	1073
924.0479	1913.651	1950.6	1063.05
924.1868	1915.2776	1935.4	1054.6
924.3257	1916.9034	1933.4	1050.6
924.4646	1918.5285	1938.25	1054.7
924.6034	1920.1528	1929.9	1046.5
924.7422	1921.7764	1932.3	1047.1
924.881	1923.3992	1924.6	1040.9
925.0198	1925.0213	1916.75	1031.1
925.1586	1926.6427	1924.05	1042.4
925.2973	1928.2633	1987	1016.5
925.436	1929.8832	1925.45	1040.05
925.5747	1931.5023	1912.2	1028.35
925.7134	1933.1207	1911.65	1027.95
925.852	1934.7383	1907.05	1022.45
925.9906	1936.3552	1897.6	1013.9
926.1292	1937.9714	1904.2	1020.55
926.2678	1939.5868	1905.05	1020.2
926.4064	1941.2015	1898.8	1013.6
926.5449	1942.8154	1890.15	1003.45
926.6834	1944.4286	1884.15	998.95
926.8219	1946.041	1899.6	992.15
926.9604	1947.6528	1880.8	992.5
927.0988	1949.2637	1875.25	993.55
927.2372	1950.8739	1872.9	990.1
927.3756	1952.4834	1870.8	986.55
927.514	1954.0921	1874.85	990.2
927.6523	1955.7001	1863.75	976.75
927.7907	1957.3074	1867.8	984.05
927.929	1958.9139	1849.55	968.6
928.0673	1960.5197	1851	966.05
928.2055	1962.1247	1851.4	968.05
928.3438	1963.729	1844.8	964.55
928.482	1965.3325	1850.75	963.1
928.6202	1966.9353	1840.65	959.6
928.7584	1968.5374	1840.1	956.45
928.8965	1970.1387	1829.8	946.75
929.0346	1971.7393	1831.1	947.95
929.1727	1973.3392	1826.75	946.35
929.3108	1974.9383	1818.1	936.35
929.4489	1976.5366	1818.8	935.45
929.5869	1978.1342	1818.25	935.3
929.7249	1979.7311	1827.65	946.35
929.8629	1981.3273	1812.65	930.55
930.0009	1982.9227	1810.15	926.25
930.1388	1984.5173	1797.25	916.7
930.2767	1986.1112	1799.5	917.5
930.4146	1987.7044	1805.45	923.8
930.5525	1989.2968	1797.55	915.2
930.6904	1990.8885	1804.6	917.8
930.8282	1992.4795	1801.4	919.85
930.966	1994.0697	1793.35	913.7
931.1038	1995.6592	1785.3	903.1
931.2415	1997.2479	1785.15	902.9
931.3793	1998.8359	1786.45	906.95
931.517	2000.4232	1780.9	900.9
931.6547	2002.0097	1774.7	897.4
931.7923	2003.5955	1770.75	891.55
931.93	2005.1805	1777.4	895.65
932.0676	2006.7648	1774.25	894
932.2052	2008.3484	1773.8	892.85
932.3427	2009.9312	1765.95	885.45
932.4803	2011.5133	1758.25	878.45
932.6178	2013.0946	1764.4	886.2
932.7553	2014.6752	1761.85	883.2
932.8928	2016.2551	1751.55	869.5
933.0302	2017.8342	1750.75	871.9
933.1676	2019.4126	1759.05	880.4
933.305	2020.9902	1747.45	869.1
933.4424	2022.5672	1748.1	869.35
933.5798	2024.1433	1748.3	864.3
933.7171	2025.7188	1746.65	870.5
933.8544	2027.2935	1739.8	859.85
933.9917	2028.8674	1739.2	862.9
934.129	2030.4406	1740.3	863.7
934.2662	2032.0131	1737.55	859.35
934.4034	2033.5849	1730.05	847.55
934.5406	2035.1559	1727.55	852.9
934.6778	2036.7261	1728.2	849.9
934.8149	2038.2957	1723.7	842.65
934.952	2039.8645	1726	847.1
935.0891	2041.4325	1730.9	846.25
935.2262	2042.9998	1725.7	847.4
935.3632	2044.5664	1718.8	836.25
935.5002	2046.1323	1714.1	837.1
935.6372	2047.6974	1713.5	835.2
935.7742	2049.2617	1710.95	832.35
935.9111	2050.8254	1711.7	826.65
936.048	2052.3883	1707.9	826.4
936.1849	2053.9504	1712.95	831.95
936.3218	2055.5118	1703.4	820.95
936.4586	2057.0725	1708.55	824.6
936.5955	2058.6325	1701.85	820.05
936.7323	2060.1917	1697.8	819.7
936.869	2061.7502	1691.5	809.65
937.0058	2063.3079	1688.9	810.25
937.1425	2064.8649	1696.25	814.35
937.2792	2066.4212	1696.45	814.6
937.4159	2067.9767	1694.65	813.75
937.5525	2069.5315	1693.7	814.85
937.6891	2071.0856	1692.6	812.8
937.8257	2072.6389	1686.75	808.25
937.9623	2074.1915	1679.1	802.8
938.0989	2075.7433	1662.9	783.15
938.2354	2077.2945	1661.9	783.15
938.3719	2078.8448	1672.45	791
938.5084	2080.3945	1664.45	784.05
938.6448	2081.9434	1674.2	792.35
938.7812	2083.4916	1665.95	784.55
938.9176	2085.039	1658.95	775.6
939.054	2086.5857	1659.4	773.95
939.1903	2088.1317	1661.7	778.45
939.3267	2089.677	1657.2	774.65
939.463	2091.2215	1658.2	774.7
939.5992	2092.7652	1655.85	768.8
939.7355	2094.3083	1648.55	766.2
939.8717	2095.8506	1646.8	764
940.0079	2097.3921	1646.95	765.05
940.1441	2098.933	1651.2	768.7
940.2802	2100.4731	1641.8	759.45
940.4163	2102.0124	1671.6	770.5
940.5524	2103.5511	1646.65	764.1
940.6885	2105.089	1649.3	768.6
940.8245	2106.6261	1646.6	760.8
940.9606	2108.1626	1643.35	763.25
941.0965	2109.6983	1662.4	751.25
941.2325	2111.2332	1641.05	757.1
941.3684	2112.7675	1633.85	750.5
941.5044	2114.301	1631.4	745.95
941.6403	2115.8337	1631.45	748.2
941.7761	2117.3657	1638.25	756.6
941.912	2118.897	1625.9	743.35
942.0478	2120.4276	1642.3	756.85
942.1835	2121.9575	1620.7	737.45
942.3193	2123.4866	1633.8	744.55
942.455	2125.0149	1623.2	737.5
942.5907	2126.5426	1617.55	735.3
942.7264	2128.0695	1608.1	725.15
942.8621	2129.5956	1612.8	735.45
942.9977	2131.1211	1613.7	726.25
943.1333	2132.6458	1609.45	727.2
943.2689	2134.1698	1610.1	726.95
943.4044	2135.693	1606.65	722.45
943.54	2137.2155	1612.75	728.7
943.6755	2138.7373	1590.8	708.9
943.8109	2140.2584	1599.1	718.6
943.9464	2141.7787	1603.95	717.25
944.0818	2143.2983	1590.4	713.75
944.2172	2144.8171	1588.9	710.3
944.3526	2146.3353	1595.45	712.35
944.4879	2147.8527	1584.2	705
944.6232	2149.3693	1588.85	707.3
944.7585	2150.8853	1587.8	703.85
944.8938	2152.4005	1588.4	703.45
945.029	2153.9149	1586.45	703.35
945.1642	2155.4287	1582.25	699.6
945.2994	2156.9417	1584.55	700.65
945.4346	2158.454	1581.1	696.25
945.5697	2159.9655	1579.8	698.15
945.7048	2161.4764	1570.25	689.5
945.8399	2162.9865	1570.7	689.1
945.9749	2164.4958	1569.9	687.9
946.1099	2166.0045	1571.4	687.2
946.2449	2167.5124	1566.2	687.35
946.3799	2169.0195	1573.25	693.35
946.5148	2170.526	1570.85	686.1
946.6498	2172.0317	1564.35	682.7
946.7846	2173.5367	1568.55	685.2
946.9195	2175.0409	1562.2	681.4
947.0543	2176.5445	1559.65	677.7
947.1891	2178.0473	1560.7	677.9
947.3239	2179.5494	1566.85	681
947.4587	2181.0507	1553.45	671
947.5934	2182.5513	1553.95	671.5
947.7281	2184.0512	1555.6	672.15
947.8628	2185.5504	1559.95	676.95
947.9974	2187.0488	1553.9	672.5
948.132	2188.5465	1544.2	664
948.2666	2190.0435	1557.25	675.9
948.4012	2191.5397	1548.1	664.9
948.5357	2193.0353	1546.35	664.15
948.6702	2194.5301	1548.65	662.55
948.8047	2196.0241	1544.1	656.85
948.9392	2197.5175	1539.05	654.6
949.0736	2199.0101	1538.15	649.6
949.208	2200.502	1526.7	643.6
949.3424	2201.9931	1528.85	648.7
949.4767	2203.4835	1533.25	650.2
949.611	2204.9733	1545.95	647.45
949.7453	2206.4622	1531.55	652.65
949.8796	2207.9505	1526.95	644.25
950.0138	2209.438	1513.6	634.25
950.148	2210.9248	1515.35	633.9
950.2822	2212.4109	1522.25	641.45
950.4164	2213.8962	1518.8	631.75
950.5505	2215.3809	1524.7	639.8
950.6846	2216.8648	1515.35	628.35
950.8186	2218.3479	1516.35	627.4
950.9527	2219.8304	1512.45	623.9
951.0867	2221.3121	1512.1	624.65
951.2207	2222.7931	1508.1	624.5
951.3546	2224.2733	1504	618.55
951.4886	2225.7529	1498.8	615.45
951.6225	2227.2317	1500.4	615.4
951.7563	2228.7098	1501.65	619.85
951.8902	2230.1872	1488.8	604.65
952.024	2231.6638	1492.3	613.35
952.1578	2233.1397	1495.65	612.3
952.2916	2234.6149	1495.9	614.8
952.4253	2236.0894	1488.6	607.65
952.559	2237.5632	1497.45	604.75
952.6927	2239.0362	1476.05	593.2
952.8263	2240.5085	1491.5	609.2
952.9599	2241.9801	1484.45	601.5
953.0935	2243.4509	1477	593.15
953.2271	2244.921	1482.3	597.7
953.3606	2246.3904	1479.85	592.35
953.4941	2247.8591	1471.35	586.1
953.6276	2249.3271	1472.4	589.55
953.7611	2250.7943	1473.85	588.85
953.8945	2252.2608	1470.15	587.1
954.0279	2253.7266	1469.9	588.25
954.1612	2255.1917	1463.7	579.85
954.2946	2256.656	1463.95	580.35
954.4279	2258.1197	1459.95	580.95
954.5612	2259.5826	1457.35	574.5
954.6944	2261.0447	1467.1	582.7
954.8276	2262.5062	1460.75	573.75
954.9608	2263.9669	1460.5	574.1
955.094	2265.4269	1458.25	575.85
955.2271	2266.8862	1450.7	566.5
955.3602	2268.3448	1451.05	567.65
955.4933	2269.8026	1449.9	567.1
955.6264	2271.2598	1454.25	572.15
955.7594	2272.7162	1447.1	565.95
955.8924	2274.1719	1450.8	566.7
956.0253	2275.6268	1452.65	569.35
956.1583	2277.0811	1451.3	565.75
956.2912	2278.5346	1452.7	569.75
956.4241	2279.9874	1438.1	555.15
956.5569	2281.4395	1437.15	556.65
956.6897	2282.8908	1440.75	551.6
956.8225	2284.3414	1448.7	566
956.9553	2285.7914	1437.2	553.2
957.088	2287.2406	1436.2	551.3
957.2207	2288.689	1437.55	552.8
957.3534	2290.1368	1440.8	554.65
957.486	2291.5838	1441.25	553.1
957.6186	2293.0302	1441.85	553.95
957.7512	2294.4758	1430.05	545.25
957.8838	2295.9206	1429.45	541.45
958.0163	2297.3648	1422.8	539.25
958.1488	2298.8082	1436.1	552.6
958.2813	2300.251	1433.25	549.8
958.4137	2301.693	1434.6	548.8
958.5461	2303.1343	1430.9	547.7
958.6785	2304.5748	1428.6	543.75
958.8108	2306.0147	1417.35	531.65
958.9432	2307.4538	1425.5	539.9
959.0754	2308.8922	1412.5	531.9
959.2077	2310.3299	1413.05	528.8
959.3399	2311.7669	1422.35	541.55
959.4721	2313.2031	1420.35	537.15
959.6043	2314.6387	1417.1	532.85
959.7365	2316.0735	1415.1	532.4
959.8686	2317.5076	1414.55	531.4
960.0006	2318.941	1408.8	525.7
960.1327	2320.3737	1414.3	528.05
960.2647	2321.8056	1408.1	520.65
960.3967	2323.2369	1412.3	529.5
960.5287	2324.6674	1414.75	528.9
960.6606	2326.0972	1408.9	522.75
960.7925	2327.5263	1403.45	521.25
960.9244	2328.9547	1403.15	517.55
961.0562	2330.3823	1405.55	520.15
961.1881	2331.8092	1404.6	517.45
961.3198	2333.2355	1402.35	516.7
961.4516	2334.661	1397.2	513.45
961.5833	2336.0858	1397.95	510.9
961.715	2337.5098	1393.5	508.75
961.8467	2338.9332	1395	510.5
961.9783	2340.3558	1393.05	506.45
962.1099	2341.7778	1387.5	503.4
962.2415	2343.199	1384.7	498.05
962.373	2344.6195	1383.9	499.95
962.5045	2346.0393	1387.85	503
962.636	2347.4583	1381.95	496.75
962.7675	2348.8767	1383.25	499.1
962.8989	2350.2943	1386.55	501.3
963.0303	2351.7113	1388.25	500.6
963.1617	2353.1275	1380.85	493.7
963.293	2354.543	1414.65	504.9
963.4243	2355.9578	1386	500
963.5556	2357.3718	1375.55	492.3
963.6868	2358.7852	1380.85	494.75
963.818	2360.1978	1379.65	496.05
963.9492	2361.6098	1372.3	488.4
964.0803	2363.021	1377.75	489.3
964.2114	2364.4315	1377.55	493.5
964.3425	2365.8413	1373.6	489.4
964.4736	2367.2504	1368.95	485.7
964.6046	2368.6587	1376.5	491.6
964.7356	2370.0664	1369	485.65
964.8666	2371.4733	1368.45	484
964.9975	2372.8795	1365	481.35
965.1284	2374.285	1363.05	478.8
965.2593	2375.6899	1364.1	480.8
965.3901	2377.0939	1363.3	480.1
965.5209	2378.4973	1354.45	471.2
965.6517	2379.9	1357.3	471.55
965.7825	2381.3019	1355.15	472.6
965.9132	2382.7032	1355	470.55
966.0439	2384.1037	1356.35	474.85
966.1745	2385.5035	1357.65	474.9
966.3051	2386.9027	1348.4	467.6
966.4357	2388.3011	1351.55	464.95
966.5663	2389.6987	1353.55	469
966.6968	2391.0957	1342.35	459.9
966.8273	2392.492	1343.95	458.25
966.9578	2393.8876	1341.1	457.55
967.0882	2395.2824	1338.95	454.45
967.2186	2396.6765	1337.95	454.35
967.349	2398.07	1337.3	451.95
967.4793	2399.4627	1342.65	457.6
967.6097	2400.8547	1336	450.95
967.7399	2402.246	1350.7	459.3
967.8702	2403.6366	1327.65	442.1
968.0004	2405.0265	1337.45	454.85
968.1306	2406.4156	1338.75	450.05
968.2607	2407.8041	1332.2	443.2
968.3909	2409.1918	1332.8	446.4
968.521	2410.5789	1325.15	439.8
968.651	2411.9652	1327.4	442.6
968.781	2413.3508	1321.7	436.95
968.911	2414.7358	1327.7	443.1
969.041	2416.12	1323.65	439.3
969.1709	2417.5035	1317.35	434.75
969.3008	2418.8863	1327.9	443.3
969.4307	2420.2684	1315.9	431.4
969.5606	2421.6497	1323.75	437.6
969.6904	2423.0304	1315.8	431.15
969.8201	2424.4104	1313.25	427.15
969.9499	2425.7896	1323.4	432.95
970.0796	2427.1682	1318.5	434
970.2093	2428.546	1316.8	431
970.3389	2429.9232	1317.85	433.15
970.4685	2431.2996	1316	431.65
970.5981	2432.6753	1306.05	421.35
970.7277	2434.0503	1311	426.6
970.8572	2435.4246	1307.85	423.6
970.9867	2436.7982	1309.65	421.25
971.1161	2438.1711	1305.65	421.75
971.2456	2439.5433	1307	420.85
971.375	2440.9148	1305.75	417.05
971.5043	2442.2856	1306.5	421.2
971.6336	2443.6557	1297.4	412.3
971.7629	2445.025	1301.7	417.1
971.8922	2446.3937	1306.45	419.55
972.0214	2447.7617	1299.15	415.05
972.1506	2449.1289	1295.85	413.1
972.2798	2450.4955	1300.85	411.45
972.4089	2451.8613	1295.25	413.75
972.538	2453.2265	1292.45	409.95
972.6671	2454.5909	1292.15	408.7
972.7961	2455.9546	1295.6	409.15
972.9251	2457.3177	1284.7	402.2
973.0541	2458.68	1295.15	410.8
973.1831	2460.0416	1289.75	408.2
973.312	2461.4025	1291.5	406.05
973.4408	2462.7627	1300.25	405.3
973.5697	2464.1222	1287.2	404.7
973.6985	2465.4811	1287.65	403.1
973.8273	2466.8392	1284.15	400.3
973.956	2468.1966	1292.55	406.6
974.0847	2469.5533	1289.3	403.9
974.2134	2470.9093	1290.5	405.65
974.3421	2472.2645	1277.65	392.6
974.4707	2473.6191	1282.15	397.9
974.5993	2474.973	1277.25	392.85
974.7278	2476.3262	1285.15	401.35
974.8563	2477.6787	1278.85	395.9
974.9848	2479.0305	1282.4	397.65
975.1132	2480.3816	1275.9	388.75
975.2417	2481.7319	1279.05	396.4
975.37	2483.0816	1276	390.15
975.4984	2484.4306	1276.3	391.6
975.6267	2485.7789	1271.3	389.45
975.755	2487.1264	1275.25	388.8
975.8833	2488.4733	1273.6	389.25
976.0115	2489.8195	1292.05	392.6
976.1397	2491.165	1278.75	391
976.2678	2492.5097	1264.5	381.2
976.3959	2493.8538	1264.65	380.5
976.524	2495.1972	1265.4	383
976.6521	2496.5398	1262.95	375.2
976.7801	2497.8818	1268.85	383.65
976.9081	2499.2231	1269.05	386.45
977.036	2500.5637	1269.6	383.6
977.164	2501.9035	1264	380
977.2918	2503.2427	1265.35	376.4
977.4197	2504.5812	1258.95	375.7
977.5475	2505.919	1258.3	370.25
977.6753	2507.256	1261.3	374.7
977.8031	2508.5924	1252.5	368.55
977.9308	2509.9281	1260.95	372.4
978.0585	2511.2631	1255.65	372.45
978.1861	2512.5974	1249.9	366.1
978.3137	2513.9309	1253.25	369.1
978.4413	2515.2638	1277.95	365
978.5689	2516.596	1253.8	370.05
978.6964	2517.9275	1258.1	372.3
978.8239	2519.2583	1258.75	375.8
978.9513	2520.5884	1249.25	361.9
979.0788	2521.9178	1249.9	366.35
979.2062	2523.2465	1242.2	360.25
979.3335	2524.5745	1242.35	358.1
979.4608	2525.9018	1246.05	363.9
979.5881	2527.2284	1243.85	361.75
979.7154	2528.5543	1245.45	362.8
979.8426	2529.8796	1244.45	363.1
979.9698	2531.2041	1244.1	360.3
980.0969	2532.5279	1241.3	357.95
980.224	2533.851	1248.8	362.55
980.3511	2535.1735	1240.8	359.55
980.4781	2536.4952	1243.5	359.75
980.6052	2537.8163	1240.7	356.25
980.7321	2539.1366	1241.55	358.4
980.8591	2540.4562	1239.85	355.05
980.986	2541.7752	1239.1	354.75
981.1129	2543.0935	1247.15	363.45
981.2397	2544.411	1241.9	355.85
981.3665	2545.7279	1236.8	354.6
981.4933	2547.0441	1242.1	357.35
981.62	2548.3596	1241.45	353.55
981.7467	2549.6744	1234.4	349.85
981.8734	2550.9885	1243.25	351.1
982.0001	2552.3019	1240.75	358.45
982.1267	2553.6146	1226.45	343.75
982.2532	2554.9266	1232.6	348.9
982.3798	2556.2379	1233.8	349
982.5063	2557.5485	1234.5	351.9
982.6327	2558.8585	1238.6	348.45
982.7592	2560.1677	1236.8	348
982.8856	2561.4762	1229.25	343.15
983.0119	2562.7841	1234.95	350.2
983.1383	2564.0913	1230.3	347.8
983.2646	2565.3977	1231.7	348.45
983.3908	2566.7035	1225.5	342.45
983.517	2568.0086	1227.2	339.25
983.6432	2569.313	1229.85	346.55
983.7694	2570.6167	1231.5	343.6
983.8955	2571.9197	1226.95	343.25
984.0216	2573.222	1235	348.35
984.1476	2574.5236	1228.15	341.95
984.2737	2575.8246	1229.95	344.5
984.3996	2577.1248	1234.25	348.1
984.5256	2578.4244	1232.6	350.85
984.6515	2579.7232	1220.2	337
984.7774	2581.0214	1254.45	344.2
984.9032	2582.3189	1224.65	339.55
985.029	2583.6157	1231.75	344.1
985.1548	2584.9118	1226.6	343.7
985.2806	2586.2072	1217.25	333.7
985.4063	2587.5019	1226.45	342.9
985.5319	2588.7959	1227	343.35
985.6576	2590.0893	1225.3	337.8
985.7832	2591.3819	1222.8	339.65
985.9087	2592.6739	1221.2	339.55
986.0343	2593.9652	1225.8	342.65
986.1597	2595.2557	1225.5	345.2
986.2852	2596.5456	1225.9	338.3
986.4106	2597.8348	1225.05	342.1
986.536	2599.1234	1222.7	340
986.6614	2600.4112	1217.65	333.95
986.7867	2601.6983	1226.6	340.8
986.912	2602.9848	1228.9	345
987.0372	2604.2705	1235.1	345.3
987.1624	2605.5556	1221.6	336.85
987.2876	2606.84	1222.35	338
987.4128	2608.1237	1216.3	332.95
987.5379	2609.4067	1219.2	338.55
987.6629	2610.689	1227.2	336.85
987.788	2611.9707	1221.25	336.2
987.913	2613.2516	1219	332.05
988.0379	2614.5319	1214.75	332.85
988.1629	2615.8115	1216.6	334.45
988.2878	2617.0903	1212.55	327.65
988.4126	2618.3685	1209.25	327.4
988.5375	2619.6461	1208.95	326.95
988.6622	2620.9229	1208.6	326.75
988.787	2622.199	1211.9	329.9
988.9117	2623.4745	1209.05	326.9
989.0364	2624.7493	1200.65	320.95
989.161	2626.0234	1204.25	323.2
989.2857	2627.2968	1200.75	318.05
989.4102	2628.5695	1208.55	324.55
989.5348	2629.8415	1206.3	325.15
989.6593	2631.1128	1202.6	318.15
989.7837	2632.3835	1203.9	323.1
989.9082	2633.6535	1201.25	320.6
990.0326	2634.9228	1199.35	318.4
990.1569	2636.1914	1201.45	318.25
990.2812	2637.4593	1198.9	316.65
990.4055	2638.7265	1201.3	318.85
990.5298	2639.9931	1197.35	316.25
990.654	2641.259	1195.95	315.15
990.7782	2642.5242	1198.4	316.6
990.9023	2643.7887	1193.25	310.35
991.0264	2645.0525	1198.45	317.6
991.1505	2646.3156	1192.35	308.35
991.2745	2647.5781	1184.4	305.2
991.3985	2648.8398	1188.9	308.65
991.5225	2650.1009	1221.9	305.1
991.6464	2651.3613	1190.8	309.4
991.7703	2652.6211	1187.1	305.3
991.8942	2653.8801	1189.2	307.6
992.018	2655.1385	1193	307.1
992.1418	2656.3961	1200.9	319.35
992.2655	2657.6531	1188.45	307.4
992.3892	2658.9094	1188.9	306.25
992.5129	2660.1651	1190.65	307.85
992.6366	2661.42	1190.15	308.7
992.7602	2662.6743	1190.9	308.75
992.8837	2663.9279	1196.85	314.9
993.0073	2665.1808	1197	314.2
993.1307	2666.433	1192.55	310.85
993.2542	2667.6846	1196.25	314.8
993.3776	2668.9354	1198.95	315.35
993.501	2670.1856	1194.85	311.5
993.6244	2671.4351	1192.7	311.2
993.7477	2672.6839	1198.9	315.8
993.8709	2673.9321	1203.2	322.6
993.9942	2675.1795	1199.95	318.25
994.1174	2676.4263	1204.2	322.35
994.2405	2677.6724	1198.3	316.55
994.3637	2678.9179	1201.65	319.55
994.4868	2680.1626	1198.45	316.85
994.6098	2681.4067	1198.1	316.45
994.7328	2682.6501	1195.25	312.6
994.8558	2683.8928	1193.15	312.05
994.9788	2685.1348	1197.15	319.1
995.1017	2686.3761	1192.95	311.95
995.2245	2687.6168	1194.75	313.75
995.3474	2688.8568	1188.6	307.25
995.4702	2690.0961	1185.25	305.65
995.5929	2691.3348	1187.95	306.3
995.7156	2692.5727	1188.5	304.75
995.8383	2693.81	1181.55	300.65
995.961	2695.0466	1179.15	299.9
996.0836	2696.2826	1185.75	303.75
996.2062	2697.5178	1205.35	302.9
996.3287	2698.7524	1184.35	304.4
996.4512	2699.9863	1189.35	305.25
996.5737	2701.2195	1187.75	307.9
996.6961	2702.452	1192.1	308.75
996.8185	2703.6839	1191.95	309.8
996.9408	2704.9151	1197.5	316.05
997.0631	2706.1456	1196.35	314.8
997.1854	2707.3755	1199.7	321.65
997.3077	2708.6046	1206.8	320.85
997.4299	2709.8331	1204.85	322.7
997.552	2711.0609	1209.15	327.15
997.6742	2712.2881	1212.35	331.15
997.7963	2713.5145	1212	326.9
997.9183	2714.7403	1220.65	342.15
998.0403	2715.9654	1228.95	346.25
998.1623	2717.1899	1243.45	346.6
998.2842	2718.4136	1232.8	352.95
998.4062	2719.6367	1247.25	365.75
998.528	2720.8591	1258.85	371.7
998.6498	2722.0809	1259.35	377.6
998.7716	2723.3019	1263.15	376.95
998.8934	2724.5223	1268.95	386.85
999.0151	2725.7421	1264.35	382
999.1368	2726.9611	1274.7	392.3
999.2584	2728.1795	1274.95	389.35
999.38	2729.3972	1263.15	382.35
999.5016	2730.6142	1258.15	367.9
999.6231	2731.8306	1250.85	370.1
999.7446	2733.0462	1242.85	359.5
999.8661	2734.2612	1234.35	347.6
999.9875	2735.4756	1228.35	344.6
1000.1089	2736.6892	1210.9	330.2
1000.2302	2737.9022	1204.05	323.55
1000.3515	2739.1145	1202.25	320.45
1000.4728	2740.3262	1199.8	310.7
1000.594	2741.5372	1192.35	313.95
1000.7152	2742.7475	1186.6	305
1000.8363	2743.9571	1181.8	298.8
1000.9575	2745.1661	1179.9	292.65
1001.0785	2746.3744	1171.45	289.25
1001.1996	2747.582	1165.05	283.35
1001.3206	2748.7889	1164.85	283.4
1001.4415	2749.9952	1158.85	279.05
1001.5625	2751.2008	1159.45	277.85
1001.6833	2752.4057	1159.1	276.95
1001.8042	2753.61	1155.35	273.5
1001.925	2754.8136	1155.6	273.25
1002.0458	2756.0165	1148.1	267.4
1002.1665	2757.2188	1152.15	273.05
1002.2872	2758.4204	1152.05	270.1
1002.4078	2759.6213	1155.65	272.7
1002.5285	2760.8215	1152.5	268.45
1002.649	2762.0211	1148.95	266.35
1002.7696	2763.22	1149.15	264.6
1002.8901	2764.4182	1146.7	264.65
1003.0106	2765.6158	1145.3	264.05
1003.131	2766.8127	1144.8	263.95
1003.2514	2768.009	1143.85	264.3
1003.3717	2769.2045	1143.25	261.35
1003.492	2770.3994	1144.4	260.9
1003.6123	2771.5936	1143.2	260.45
1003.7325	2772.7872	1134.6	254.75
1003.8527	2773.9801	1138.9	257.3
1003.9729	2775.1723	1150.15	253.3
1004.093	2776.3639	1134.4	254.9
1004.2131	2777.5548	1134.3	252.85
1004.3331	2778.745	1133.2	252
1004.4531	2779.9346	1130.55	248.6
1004.5731	2781.1235	1136.25	257.05
1004.693	2782.3117	1135.75	255.4
1004.8129	2783.4992	1135.85	255.35
1004.9328	2784.6861	1136.45	255.9
1005.0526	2785.8723	1142.75	262.3
1005.1723	2787.0579	1142.9	261.55
1005.2921	2788.2428	1136	255.45
1005.4118	2789.427	1138.35	257.5
1005.5314	2790.6106	1145.35	266.8
1005.651	2791.7935	1150.3	270.7
1005.7706	2792.9757	1151.7	274.2
1005.8902	2794.1573	1156.55	273.6
1006.0097	2795.3382	1157.55	279.05
1006.1291	2796.5184	1164.15	285.2
1006.2485	2797.698	1170.1	287.95
1006.3679	2798.8769	1173.45	294
1006.4873	2800.0551	1176.95	295.9
1006.6066	2801.2327	1183.25	300.15
1006.7258	2802.4096	1188.3	307.55
1006.8451	2803.5859	1200.95	319.85
1006.9642	2804.7615	1204.55	324.55
1007.0834	2805.9364	1209.5	329.05
1007.2025	2807.1106	1224.45	345.15
1007.3216	2808.2842	1240.35	360.05
1007.4406	2809.4572	1249.4	368.35
1007.5596	2810.6294	1266.65	385.9
1007.6785	2811.801	1284.7	404.25
1007.7975	2812.972	1299.9	420.55
1007.9163	2814.1423	1316.45	437.35
1008.0352	2815.3119	1340.25	461.45
1008.154	2816.4808	1371.05	492.85
1008.2727	2817.6491	1396.75	517
1008.3914	2818.8167	1425.65	547.6
1008.5101	2819.9837	1452.2	567.9
1008.6288	2821.15	1488.35	607.55
1008.7474	2822.3157	1510.05	629.85
1008.8659	2823.4807	1549.75	669.8
1008.9844	2824.645	1584.05	702.6
1009.1029	2825.8086	1611.8	732.05
1009.2214	2826.9716	1640.9	761.9
1009.3398	2828.134	1665	785.8
1009.4581	2829.2957	1692.6	811.75
1009.5764	2830.4567	1717.75	839.3
1009.6947	2831.617	1743.4	863.1
1009.813	2832.7767	1741.05	862.2
1009.9312	2833.9358	1740.85	863
1010.0493	2835.0941	1740.8	859.45
1010.1675	2836.2519	1730.1	853.05
1010.2855	2837.4089	1720.35	839.5
1010.4036	2838.5653	1704.5	825.05
1010.5216	2839.7211	1695.35	815.4
1010.6396	2840.8761	1693.3	811.6
1010.7575	2842.0306	1690	809.3
1010.8754	2843.1843	1711.3	833.4
1010.9932	2844.3374	1729.65	849.2
1011.111	2845.4899	1743.1	861.7
1011.2288	2846.6417	1769.45	888.45
1011.3465	2847.7928	1801.3	920.1
1011.4642	2848.9433	1826.4	947.6
1011.5818	2850.0931	1847.2	968
1011.6995	2851.2422	1883	1002.35
1011.817	2852.3907	1915.25	1034.4
1011.9345	2853.5385	1940.25	1057.3
1012.052	2854.6857	1992.3	1086.8
1012.1695	2855.8323	1992.45	1113.4
1012.2869	2856.9781	2011.55	1132.9
1012.4042	2858.1233	2048.95	1169.3
1012.5216	2859.2679	2077.35	1199.3
1012.6389	2860.4118	2105.75	1226.25
1012.7561	2861.555	2130.1	1246.2
1012.8733	2862.6976	2140.7	1259.25
1012.9905	2863.8395	2161.65	1284
1013.1076	2864.9808	2177.85	1299.15
1013.2247	2866.1214	2191	1311.75
1013.3417	2867.2614	2208.35	1327
1013.4587	2868.4007	2214.4	1334.55
1013.5757	2869.5393	2230.6	1348.9
1013.6926	2870.6773	2233.65	1348.7
1013.8095	2871.8146	2237.5	1356.1
1013.9263	2872.9513	2241.1	1359.7
1014.0431	2874.0874	2229.4	1350.75
1014.1599	2875.2227	2234.85	1354.5
1014.2766	2876.3574	2221.85	1342.3
1014.3933	2877.4915	2194.9	1317.2
1014.51	2878.6249	2185.6	1307.35
1014.6266	2879.7577	2179.65	1298.45
1014.7431	2880.8898	2176.2	1287.05
1014.8596	2882.0212	2160.65	1281.05
1014.9761	2883.152	2153.1	1275.3
1015.0925	2884.2821	2144.65	1264.5
1015.2089	2885.4116	2141.25	1260.4
1015.3253	2886.5405	2146.5	1267.75
1015.4416	2887.6686	2151.7	1269.25
1015.5579	2888.7962	2142.2	1265.45
1015.6741	2889.923	2166.25	1287.65
1015.7903	2891.0493	2166.95	1289.15
1015.9065	2892.1748	2170.75	1291.7
1016.0226	2893.2997	2189.65	1310.25
1016.1387	2894.424	2181.6	1303.1
1016.2547	2895.5476	2196.65	1319.7
1016.3707	2896.6706	2201.45	1322.1
1016.4866	2897.7929	2208.6	1327.35
1016.6025	2898.9145	2223.55	1345.55
1016.7184	2900.0355	2249.35	1371.45
1016.8342	2901.1559	2266.8	1387.25
1016.95	2902.2756	2266.85	1386
1017.0658	2903.3946	2282.65	1405.25
1017.1815	2904.513	2293.95	1411.7
1017.2971	2905.6308	2301.25	1424.1
1017.4127	2906.7479	2325.45	1445.4
1017.5283	2907.8643	2334.9	1456.9
1017.6439	2908.9801	2338.85	1459.8
1017.7594	2910.0953	2334.7	1453.8
1017.8748	2911.2098	2346.25	1465.85
1017.9902	2912.3236	2352.35	1466.85
1018.1056	2913.4368	2338.6	1458.8
1018.2209	2914.5494	2324.85	1446.05
1018.3362	2915.6613	2309	1424.45
1018.4515	2916.7725	2301.3	1420.5
1018.5667	2917.8831	2269.6	1390.7
1018.6819	2918.9931	2264.45	1381.75
1018.797	2920.1024	2251.5	1372.6
1018.9121	2921.211	2235.8	1355.45
1019.0271	2922.319	2225.65	1346.95
1019.1421	2923.4264	2205.4	1327.55
1019.2571	2924.5331	2209.35	1332.7
1019.372	2925.6391	2210.95	1330.9
1019.4869	2926.7445	2215.5	1339.2
1019.6017	2927.8493	2207.65	1329.45
1019.7165	2928.9534	2215.8	1337.45
1019.8313	2930.0569	2229.2	1346.55
1019.946	2931.1597	2222.2	1343.6
1020.0606	2932.2619	2234.7	1355.75
1020.1753	2933.3634	2242.65	1363.95
1020.2899	2934.4643	2241.15	1353.95
1020.4044	2935.5645	2241.7	1358.3
1020.5189	2936.6641	2217.7	1334.25
1020.6334	2937.763	2205	1327.7
1020.7478	2938.8613	2191.95	1312.3
1020.8622	2939.959	2183.35	1299
1020.9765	2941.056	2144.7	1267.3
1021.0908	2942.1523	2107.85	1228.4
1021.2051	2943.248	2062	1181.3
1021.3193	2944.3431	2019.35	1141.75
1021.4334	2945.4375	1968.9	1091.2
1021.5476	2946.5313	1910.1	1031.75
1021.6617	2947.6244	1859.8	980.75
1021.7757	2948.7169	1816.7	937.95
1021.8897	2949.8087	1766.65	888.75
1022.0037	2950.8999	1720.75	843
1022.1176	2951.9904	1678.2	801.1
1022.2315	2953.0803	1640.75	759.1
1022.3453	2954.1696	1615.85	737.9
1022.4591	2955.2582	1579.7	701.45
1022.5728	2956.3462	1557.45	680.7
1022.6865	2957.4335	1544.75	668.6
1022.8002	2958.5202	1524.8	645.55
1022.9138	2959.6062	1509.1	628.8
1023.0274	2960.6916	1495.45	619.5
1023.141	2961.7764	1487.25	609.15
1023.2545	2962.8605	1473.05	592.5
1023.3679	2963.9439	1467.15	589.05
1023.4813	2965.0267	1470.7	589.15
1023.5947	2966.1089	1481.1	580.85
1023.708	2967.1905	1457.3	579.85
1023.8213	2968.2714	1463.45	584.75
1023.9346	2969.3516	1453.85	576.85
1024.0478	2970.4312	1472.3	586.85
1024.1609	2971.5102	1464.5	588.2
1024.274	2972.5885	1459.05	581.15
1024.3871	2973.6662	1471	590.15
1024.5002	2974.7432	1473.2	594.95
1024.6132	2975.8196	1469.7	591.55
1024.7261	2976.8954	1461.35	583.75
1024.839	2977.9705	1460.3	581.75
1024.9519	2979.045	1452.3	574.65
1025.0647	2980.1188	1447.15	570.15
1025.1775	2981.192	1437.25	560.5
1025.2902	2982.2645	1428.35	549.65
1025.4029	2983.3364	1416.9	538.4
1025.5156	2984.4077	1399.75	521.75
1025.6282	2985.4783	1397.85	513.45
1025.7407	2986.5483	1384.1	506.55
1025.8532	2987.6177	1353.75	475.8
1025.9657	2988.6864	1343.35	465.55
1026.0782	2989.7545	1329.3	449.2
1026.1906	2990.8219	1307.25	429.3
1026.3029	2991.8887	1291.95	411.9
1026.4152	2992.9548	1266.4	387
1026.5275	2994.0204	1253	377.15
1026.6397	2995.0852	1238.1	361.45
1026.7519	2996.1495	1226.9	347
1026.864	2997.2131	1216.1	337.35
1026.9761	2998.276	1202.35	325.1
1027.0882	2999.3383	1183.75	303.85
1027.2002	3000.4	1170.1	292.85
1027.3122	3001.4611	1165.55	287.25
1027.4241	3002.5215	1156.95	277.55
1027.536	3003.5812	1141.25	262.05
1027.6478	3004.6404	1137.8	261.05
1027.7596	3005.6989	1136.25	255.9
1027.8714	3006.7567	1127.95	250.05
1027.9831	3007.8139	1141.7	236.25
1028.0947	3008.8705	1114	235.1
1028.2064	3009.9264	1108.55	227.4
1028.3179	3010.9818	1108.55	229.6
1028.4295	3012.0364	1098	221.1
1028.541	3013.0905	1099.45	220
1028.6524	3014.1439	1093.3	216.55
1028.7638	3015.1966	1087.85	210.65
1028.8752	3016.2487	1089.45	211.7
1028.9865	3017.3002	1089.5	205.85
1029.0978	3018.3511	1082.4	206.25
1029.209	3019.4013	1080.8	204
1029.3202	3020.4509	1079.05	202.35
1029.4314	3021.4998	1075.05	196.3
1029.5425	3022.5481	1079.25	201.15
1029.6535	3023.5958	1074.3	196.5
1029.7645	3024.6428	1075.6	196.8
1029.8755	3025.6892	1074.85	198.65
1029.9864	3026.735	1072.5	193.8
1030.0973	3027.7802	1072.2	194.4
1030.2082	3028.8247	1072.9	194.3
1030.319	3029.8685	1074.55	195.35
1030.4297	3030.9118	1072.65	195.9
1030.5404	3031.9544	1069.55	192.75
1030.6511	3032.9963	1069.3	192
1030.7617	3034.0376	1074.3	195.9
1030.8723	3035.0783	1079.65	200.4
1030.9829	3036.1184	1076.95	198
1031.0934	3037.1578	1074.45	196.75
1031.2038	3038.1966	1077.95	198.45
1031.3142	3039.2348	1076.45	200.75
1031.4246	3040.2723	1088.05	202
1031.5349	3041.3092	1079.85	203.45
1031.6452	3042.3455	1079	200
1031.7554	3043.3811	1075.35	196.5
1031.8656	3044.4161	1077.4	200.3
1031.9758	3045.4505	1079.05	202.65
1032.0859	3046.4842	1078.05	200.4
1032.1959	3047.5173	1077.4	200.95
1032.3059	3048.5498	1074.75	197.1
1032.4159	3049.5816	1075.95	199.3
1032.5258	3050.6128	1078.05	199.95
1032.6357	3051.6434	1075.45	195.95
1032.7455	3052.6734	1075.2	196.35
1032.8553	3053.7027	1068.9	189.8
1032.9651	3054.7314	1066.75	190.2
1033.0748	3055.7594	1070.75	193.7
1033.1845	3056.7868	1070.7	193.8
1033.2941	3057.8136	1067.05	191.45
1033.4037	3058.8398	1064.05	188
1033.5132	3059.8653	1062.65	186.95
1033.6227	3060.8902	1065.95	187.05
1033.7321	3061.9145	1068.35	190.05
1033.8415	3062.9381	1061.95	184
1033.9509	3063.9612	1080.5	186
1034.0602	3064.9835	1060.25	184.3
1034.1694	3066.0053	1062.6	182.75
1034.2787	3067.0264	1056.35	179.55
1034.3878	3068.0469	1055.35	176.65
1034.497	3069.0668	1061.4	180.65
1034.6061	3070.086	1048.7	172.5
1034.7151	3071.1046	1051	172.45
1034.8241	3072.1226	1047.4	168.65
1034.9331	3073.1399	1041.75	165.4
1035.042	3074.1567	1040.65	161.5
1035.1508	3075.1727	1040.2	161.65
1035.2597	3076.1882	1032.55	154.7
1035.3684	3077.203	1031.4	153.35
1035.4772	3078.2173	1028.4	148.15
1035.5859	3079.2308	1028.75	147.3
1035.6945	3080.2438	1021	141.55
1035.8031	3081.2561	1017.7	139.7
1035.9117	3082.2678	1012.15	135.8
1036.0202	3083.2789	1010.7	133.7
1036.1286	3084.2893	1009.6	132.9
1036.2371	3085.2991	1010	132.6
1036.3454	3086.3083	1005.65	123.85
1036.4538	3087.3169	999.45	118.6
1036.562	3088.3248	1000.15	122.8
1036.6703	3089.3321	998.9	121.35
1036.7785	3090.3388	994.6	118.75
1036.8866	3091.3449	993.9	116.95
1036.9948	3092.3503	990.55	109.95
1037.1028	3093.3551	988.45	111.5
1037.2108	3094.3593	989.1	113.4
1037.3188	3095.3629	983.55	106.85
1037.4267	3096.3658	984	103.85
1037.5346	3097.3681	981.9	106.4
1037.6425	3098.3698	979	101.65
1037.7503	3099.3708	987.85	103.75
1037.858	3100.3713	979.05	102.6
1037.9657	3101.3711	979.95	102
1038.0734	3102.3702	1092.1	102.25
1038.181	3103.3688	976.85	97.35
1038.2886	3104.3667	973.05	96.8
1038.3961	3105.364	971.65	95.4
1038.5036	3106.3607	973.95	94.6
1038.611	3107.3568	969.75	91.5
1038.7184	3108.3522	965.8	90.9
1038.8257	3109.347	966.35	86.45
1038.933	3110.3412	967.35	87.15
1039.0403	3111.3348	964.45	86.5
1039.1475	3112.3277	965.8	86.95
1039.2547	3113.32	963.25	86.7
1039.3618	3114.3117	964.7	88.15
1039.4689	3115.3028	960.9	81.55
1039.5759	3116.2932	960.1	81.05
1039.6829	3117.2831	966.6	82.25
1039.7898	3118.2723	958.85	82.4
1039.8967	3119.2608	955.65	79.05
1040.0035	3120.2488	956.65	79.95
1040.1103	3121.2361	956.75	79.7
1040.2171	3122.2229	955.9	78.6
1040.3238	3123.209	954.5	77.35
1040.4305	3124.1944	952.65	74.95
1040.5371	3125.1793	951.5	74.4
1040.6437	3126.1635	951.8	73.55
1040.7502	3127.1471	951.4	73.45
1040.8567	3128.1301	952.25	75.75
1040.9631	3129.1125	946.45	69.8
1041.0695	3130.0942	947.4	69.65
1041.1759	3131.0753	956.4	72.35
1041.2822	3132.0558	953.4	76.35
1041.3884	3133.0357	948	69.25
1041.4946	3134.015	949.35	72.55
1041.6008	3134.9936	947.35	69.5
1041.7069	3135.9716	963.75	65.75
1041.813	3136.949	945.65	68
1041.919	3137.9258	965.05	69
1042.025	3138.902	949.65	65.1
1042.1309	3139.8775	942.15	64.8
1042.2368	3140.8524	942.45	65.7
1042.3427	3141.8267	943.55	64.2
1042.4485	3142.8004	944.55	66.9
1042.5542	3143.7735	951.1	67.5
1042.6599	3144.7459	943.85	67.8
1042.7656	3145.7178	939.6	62.9
1042.8712	3146.689	936.3	59.5
1042.9768	3147.6596	939.8	62.2
1043.0823	3148.6295	939	61.1
1043.1878	3149.5989	942.65	64.25
1043.2932	3150.5676	939.55	64.3
1043.3986	3151.5357	939.1	62.15
1043.5039	3152.5032	937.2	63.25
1043.6092	3153.4701	934.95	58.05
1043.7145	3154.4364	938.55	59.45
1043.8197	3155.402	934.45	58.65
1043.9248	3156.367	936.45	57.2
1044.03	3157.3315	971.2	58.6
1044.135	3158.2952	934.45	57.9
1044.24	3159.2584	934.1	58
1044.345	3160.221	934.05	58.15
1044.4499	3161.1829	933.45	54.65
1044.5548	3162.1442	933.9	57.55
1044.6596	3163.105	929	52.4
1044.7644	3164.065	932.4	54.55
1044.8692	3165.0245	934.85	57.2
1044.9739	3165.9834	931.35	56.65
1045.0785	3166.9416	929.4	54.05
1045.1831	3167.8993	928.25	50.9
1045.2877	3168.8563	928.65	51.7
1045.3922	3169.8127	929.5	53.05
1045.4966	3170.7684	929	54.05
1045.6011	3171.7236	930.75	53.2
1045.7054	3172.6782	930.25	53.25
1045.8098	3173.6321	929.75	51.4
1045.914	3174.5854	931.3	50.95
1046.0183	3175.5381	926.5	46.55
1046.1224	3176.4902	927.6	52.8
1046.2266	3177.4417	925.9	49.5
1046.3307	3178.3926	926.4	50.4
1046.4347	3179.3428	924.05	49.5
1046.5387	3180.2924	924.55	47.9
1046.6427	3181.2415	929.95	54.65
1046.7466	3182.1899	928.85	50.4
1046.8504	3183.1377	925.75	47.65
1046.9542	3184.0848	928.55	48.4
1047.058	3185.0314	926.6	49.4
1047.1617	3185.9773	925.95	48.4
1047.2654	3186.9227	923.85	47
1047.369	3187.8674	925.4	47.9
1047.4726	3188.8115	926.8	46.5
1047.5761	3189.755	925.05	49.7
1047.6796	3190.6979	923.4	45.05
1047.783	3191.6402	923.85	48.3
1047.8864	3192.5818	922.75	47.5
1047.9898	3193.5229	936.8	47.5
1048.0931	3194.4633	924.75	47.8
1048.1963	3195.4031	924.65	48.3
1048.2995	3196.3423	920.15	45.85
1048.4027	3197.2809	921.65	44.65
1048.5058	3198.2189	919.8	44.1
1048.6089	3199.1563	940	46.05
1048.7119	3200.0931	920	44.65
1048.8148	3201.0292	916.55	40.85
1048.9178	3201.9648	917.25	40.65
1049.0206	3202.8997	923.2	45.6
1049.1235	3203.834	918.4	40.4
1049.2262	3204.7677	920.75	43.55
1049.329	3205.7008	918.75	39.7
1049.4317	3206.6333	917.8	41.3
1049.5343	3207.5652	918.75	40.1
1049.6369	3208.4964	914.7	37.1
1049.7394	3209.4271	916.4	40.9
1049.8419	3210.3571	913.55	37.3
1049.9444	3211.2865	919.15	41.35
1050.0468	3212.2154	917.95	39.6
1050.1491	3213.1436	920.4	40.95
1050.2514	3214.0712	924.3	41.55
1050.3537	3214.9982	916.9	40.75
1050.4559	3215.9246	914.7	38.05
1050.5581	3216.8503	914.3	36.6
1050.6602	3217.7755	914.85	36.05
1050.7623	3218.7001	913.2	36.4
1050.8643	3219.624	916	40.7
1050.9663	3220.5473	916.15	40.55
1051.0682	3221.4701	914.45	36.1
1051.1701	3222.3922	918.3	40.95
1051.2719	3223.3137	916.1	40
1051.3737	3224.2346	913.25	38.4
1051.4754	3225.1549	915.15	39.8
1051.5771	3226.0746	912.5	36.7
1051.6788	3226.9937	914.25	37.95
1051.7804	3227.9121	915.35	38.55
1051.8819	3228.83	913.65	38.75
1051.9834	3229.7473	913.75	36.95
1052.0849	3230.6639	915.35	36.7
1052.1863	3231.5799	912.45	37.3
1052.2876	3232.4954	912.35	33.85
1052.3889	3233.4102	912.8	36.85
1052.4902	3234.3244	909.95	32.25
1052.5914	3235.238	911.9	36.85
1052.6926	3236.151	934.4	33.25
1052.7937	3237.0634	912.8	37
1052.8948	3237.9752	908.1	31.6
1052.9958	3238.8864	909.75	33
1053.0968	3239.797	911.3	33.8
1053.1977	3240.7069	913.35	37.4
1053.2986	3241.6163	910.9	31.8
1053.3994	3242.5251	906.5	31.75
1053.5002	3243.4332	906.6	31.5
1053.6009	3244.3408	912	32.3
1053.7016	3245.2477	908.25	32.75
1053.8022	3246.154	910.25	33.1
1053.9028	3247.0598	907.65	30.95
1054.0034	3247.9649	908.45	33.45
1054.1039	3248.8694	906.85	30.95
1054.2043	3249.7733	907.9	31.85
1054.3047	3250.6766	907.6	30.25
1054.4051	3251.5793	906.75	29.85
1054.5054	3252.4814	908.55	32.55
1054.6056	3253.3829	906.7	29.1
1054.7058	3254.2838	905.95	29.65
1054.806	3255.1841	905.95	29.5
1054.9061	3256.0838	905.6	28.55
1055.0061	3256.9829	904.25	29.3
1055.1062	3257.8814	909.6	32.4
1055.2061	3258.7792	908.8	30.9
1055.306	3259.6765	907.3	29.9
1055.4059	3260.5731	904.85	29.6
1055.5057	3261.4692	904.55	27.2
1055.6055	3262.3647	903.7	25.8
1055.7052	3263.2595	904.85	29.7
1055.8049	3264.1538	903.05	27.25
1055.9045	3265.0474	903.95	26.1
1056.0041	3265.9404	900.4	24.85
1056.1036	3266.8329	896.9	20.7
1056.2031	3267.7247	910.7	24.6
1056.3025	3268.616	898.25	24.5
1056.4019	3269.5066	899.8	22.15
1056.5013	3270.3966	900.35	21.45
1056.6005	3271.286	895.85	22.25
