Software Version:	3.9.2.0
Unit SN:	10000200
Spectrometer SN:	6960
Date:	3/8/2024 1:01:17 PM
Data Line Index:	25
Spectral Points:	2048
Integration time (ms):	125
Averages:	20
Delay (ms):	30000
Sequence Number:	1
Processing:	dark subtract
Laser Power (mW):	300
Laser Current (mA):	822
Laser Diode Temp (C):	25
Laser Case Temp (C):	26.1
System Temp (C):	26.1
Spectrometer Temp (C):	23.9
CCD Temp (C):	0.002
Secondary Temp (C):	20.016
Heatsink Temp (C):	20.777
CCDPCB Temp (C):	36.04
SecondaryPCB Temp (C):	29.059

Wavelength	RamanShift	Raw Counts	Dark Subtracted
787.061	30.1047	456.35	46.55
787.2016	32.3739	455.05	48.65
787.3422	34.6426	460.9	53.2
787.4828	36.9109	466.85	58.25
787.6235	39.1787	476.95	62.55
787.7642	41.4461	485.25	68.65
787.9049	43.7131	495.4	73.35
788.0456	45.9796	503	78.9
788.1863	48.2456	509.85	82.6
788.3271	50.5112	519.25	87.65
788.4679	52.7764	529.8	93.55
788.6087	55.0411	538.4	96.35
788.7496	57.3054	554.4	109.1
788.8904	59.5692	561.85	116.7
789.0313	61.8326	570.45	121.85
789.1722	64.0955	585.8	132.9
789.3132	66.3579	598.4	139.15
789.4541	68.6199	619.6	156.65
789.5951	70.8815	663.45	195.65
789.7361	73.1426	740.35	270.5
789.8771	75.4032	956.5	482.25
790.0181	77.6634	1476.5	996.1
790.1592	79.9231	2697.1	2206.25
790.3003	82.1824	5340.4	4833.1
790.4414	84.4412	10076.2	9534.75
790.5825	86.6995	16561	15978.95
790.7237	88.9574	22804.5	22182.4
790.8648	91.2148	27047.95	26400.4
791.006	93.4717	28951.15	28291.8
791.1472	95.7282	29246.95	28576.3
791.2885	97.9842	28989.95	28315.55
791.4297	100.2398	28276.25	27597.05
791.571	102.4949	27487.25	26808.25
791.7123	104.7495	26580.7	25895.1
791.8536	107.0036	25676.7	24995.3
791.9949	109.2573	24853.9	24173.2
792.1363	111.5105	24092	23406.35
792.2777	113.7632	23368.55	22678.8
792.4191	116.0154	22786.55	22088.95
792.5605	118.2672	22360.45	21667
792.7019	120.5185	21893.55	21192.95
792.8434	122.7693	21590.9	20888.4
792.9849	125.0197	21282.5	20581.8
793.1264	127.2696	20999.15	20297.35
793.2679	129.519	20826.2	20119.05
793.4094	131.7679	20557.85	19849.95
793.551	134.0163	20302.55	19587.95
793.6926	136.2642	19984.85	19265.95
793.8342	138.5117	19692.4	18962.45
793.9758	140.7587	19309.55	18583.9
794.1175	143.0052	19034.4	18306.25
794.2591	145.2512	18704.3	17976.35
794.4008	147.4967	18422.2	17696.35
794.5425	149.7417	18218.45	17493
794.6842	151.9863	18060.1	17323.85
794.826	154.2304	17951.2	17213.5
794.9677	156.4739	17784.6	17039.7
795.1095	158.717	17692.15	16946.1
795.2513	160.9596	17548.75	16802.4
795.3931	163.2017	17285.65	16536.45
795.535	165.4433	16951.15	16197.9
795.6768	167.6844	16640.9	15884.8
795.8187	169.925	16308.8	15550.95
795.9606	172.1651	15939.9	15183.7
796.1025	174.4047	15640.75	14878.65
796.2445	176.6439	15415.45	14651.6
796.3864	178.8825	15185.4	14419.95
796.5284	181.1206	15051.3	14281.05
796.6704	183.3582	14889.55	14116.8
796.8124	185.5954	14779.45	13999.85
796.9544	187.832	14699.05	13913.9
797.0965	190.0681	14665.85	13879.4
797.2386	192.3037	14698.45	13912.25
797.3806	194.5388	14680.75	13891.15
797.5228	196.7734	14703.6	13914.65
797.6649	199.0075	14781.8	13989.55
797.807	201.2411	14917.15	14124.7
797.9492	203.4742	14995.85	14199.75
798.0914	205.7068	15164.85	14365.25
798.2336	207.9389	15295.2	14495.45
798.3758	210.1704	15443.15	14648.3
798.518	212.4015	15564	14781.9
798.6603	214.632	15679.05	14902.55
798.8025	216.862	15867.9	15091.75
798.9448	219.0915	15991.4	15212.5
799.0871	221.3205	16158.15	15379.9
799.2294	223.549	16305.05	15530.25
799.3718	225.777	16461.15	15681.35
799.5141	228.0044	16689.55	15900.25
799.6565	230.2314	16945.3	16158.75
799.7989	232.4578	17171.15	16379.5
799.9413	234.6837	17391.25	16595.3
800.0837	236.909	17554.25	16752.5
800.2262	239.1339	17545.15	16718.65
800.3687	241.3582	17425.45	16613.85
800.5111	243.582	17209.9	16367.3
800.6536	245.8053	17025.85	16196.65
800.7961	248.0281	16887.6	16069.85
800.9387	250.2503	16775	15950.15
801.0812	252.472	16771.35	15947.7
801.2238	254.6932	16859.75	16032.25
801.3664	256.9139	16899.1	16070.85
801.509	259.134	17048.6	16216.55
801.6516	261.3536	17189.65	16361.25
801.7942	263.5727	17412.1	16583.45
801.9369	265.7912	17573.6	16742.45
802.0795	268.0092	17816.15	16985.7
802.2222	270.2267	17910.75	17079.3
802.3649	272.4436	17978	17143.3
802.5076	274.6601	17976.6	17133.2
802.6504	276.8759	17876.4	17036
802.7931	279.0913	17792.2	16952.95
802.9359	281.3061	17636.3	16800.85
803.0787	283.5204	17656.85	16813.3
803.2215	285.7341	17647.2	16795.95
803.3643	287.9473	17715.3	16856.15
803.5071	290.16	17836.75	16984.1
803.6499	292.3721	18023.65	17180.05
803.7928	294.5837	18345.05	17496.85
803.9357	296.7947	18638.95	17791.55
804.0786	299.0052	18796.25	17946.6
804.2215	301.2152	18735.05	17887.7
804.3644	303.4246	18475.35	17630.25
804.5074	305.6334	18039.95	17196.5
804.6503	307.8418	17602.5	16758.3
804.7933	310.0495	17145.45	16296.15
804.9363	312.2568	16768.8	15914.9
805.0793	314.4635	16426.85	15572.15
805.2223	316.6696	16217.45	15362.7
805.3653	318.8752	16083.55	15217.4
805.5084	321.0802	16026	15168.65
805.6514	323.2847	16088.25	15229.65
805.7945	325.4887	16122	15264
805.9376	327.692	16111.35	15246.7
806.0807	329.8949	16036.45	15178.45
806.2238	332.0972	15816.1	14953.65
806.367	334.2989	15600.55	14736.7
806.5101	336.5001	15329.3	14464
806.6533	338.7007	15092.15	14224.7
806.7965	340.9008	14963.7	14095.45
806.9397	343.1003	14826.1	13961.9
807.0829	345.2992	14719.4	13850.8
807.2261	347.4976	14677.1	13806.25
807.3693	349.6955	14631.85	13753.6
807.5126	351.8927	14676.95	13796.5
807.6559	354.0895	14594.5	13704.7
807.7991	356.2856	14608.5	13728.25
807.9424	358.4812	14558.1	13678.8
808.0857	360.6763	14577.15	13696
808.2291	362.8707	14563.25	13683.4
808.3724	365.0646	14614.85	13727.3
808.5158	367.258	14662.95	13779.8
808.6591	369.4508	14713.45	13826.65
808.8025	371.643	14814.4	13924.85
808.9459	373.8346	14872.25	13978.5
809.0893	376.0257	14952.9	14063.45
809.2327	378.2162	14956	14066.95
809.3762	380.4062	14881	13994
809.5196	382.5956	14739.45	13850.85
809.6631	384.7844	14621.1	13740
809.8066	386.9726	14493.2	13612.25
809.9501	389.1603	14440.3	13560.65
810.0936	391.3474	14387.25	13478.85
810.2371	393.5339	14336.4	13456.45
810.3806	395.7199	14304.6	13422.1
810.5241	397.9052	14364.45	13483.6
810.6677	400.09	14412.65	13529.3
810.8113	402.2743	14550.05	13668.3
810.9548	404.4579	14679.6	13796.65
811.0984	406.641	14874.35	13987.5
811.2421	408.8235	15067.8	14183.2
811.3857	411.0054	15305.15	14415.05
811.5293	413.1868	15581.95	14684.7
811.673	415.3675	15739.05	14836.7
811.8166	417.5477	15826.25	14927.95
811.9603	419.7273	15822.65	14927.95
812.104	421.9064	15717.05	14817.75
812.2477	424.0848	15603.6	14708.75
812.3914	426.2627	15410.7	14515.3
812.5351	428.4399	15230.05	14333.4
812.6788	430.6166	14884.8	13981.45
812.8226	432.7928	14523.9	13623.65
812.9663	434.9683	14230.4	13330
813.1101	437.1432	14004.5	13106.75
813.2539	439.3176	13829	12936.3
813.3977	441.4914	13693.05	12807.1
813.5415	443.6645	13635.8	12740.05
813.6853	445.8371	13633.65	12734.55
813.8291	448.0091	13547.6	12650.75
813.973	450.1806	13531.65	12636.45
814.1168	452.3514	13498.75	12609.9
814.2607	454.5216	13552.5	12648.4
814.4046	456.6913	13502.1	12605.35
814.5485	458.8603	13542.55	12644.9
814.6924	461.0288	13629.45	12738
814.8363	463.1967	13599.95	12713.15
814.9802	465.3639	13678.55	12787.15
815.1241	467.5306	13708.05	12815.85
815.2681	469.6967	13779.3	12888.7
815.412	471.8622	13830.35	12941.15
815.556	474.0271	13919.25	13031.05
815.7	476.1914	13971.45	13072.2
815.844	478.3551	13997.85	13101.15
815.988	480.5182	14011.25	13117.05
816.132	482.6807	14090.1	13205.55
816.276	484.8426	14224.2	13341.4
816.4201	487.0039	14559.4	13671.25
816.5641	489.1647	14945.25	14049.8
816.7082	491.3248	15338	14435.85
816.8522	493.4843	15486.3	14597.45
816.9963	495.6432	15444.65	14552.2
817.1404	497.8015	15341.1	14439.75
817.2845	499.9592	15249.6	14339.25
817.4286	502.1163	15108.8	14199.75
817.5727	504.2728	14809.15	13908.95
817.7168	506.4287	14550.55	13663.15
817.861	508.5839	14175.5	13279.5
818.0051	510.7386	13910.95	13011.8
818.1493	512.8927	13768.3	12856.15
818.2935	515.0461	13750.65	12845.5
818.4377	517.199	13824.6	12919.9
818.5818	519.3512	13881.15	12973.85
818.726	521.5029	14114.7	13203.1
818.8703	523.6539	14287	13376.9
819.0145	525.8043	14391.65	13485.4
819.1587	527.9541	14345.65	13433.4
819.303	530.1033	14234.15	13325.5
819.4472	532.2519	14127.7	13218.95
819.5915	534.3999	14144.85	13233.5
819.7357	536.5472	14275.5	13367.35
819.88	538.694	14568.55	13667.4
820.0243	540.8401	14982.9	14073
820.1686	542.9856	15317.8	14398.35
820.3129	545.1305	15412.4	14488.3
820.4572	547.2748	15304.45	14375.45
820.6016	549.4185	15056.8	14127.25
820.7459	551.5615	14829.7	13903.25
820.8902	553.704	14796.85	13873.5
821.0346	555.8458	14816.2	13897.25
821.1789	557.987	14945.45	14029
821.3233	560.1276	15101.05	14182
821.4677	562.2675	15350.55	14428.35
821.6121	564.4069	15692.6	14772.45
821.7565	566.5456	16022.3	15103.35
821.9009	568.6837	16090.55	15174.2
822.0453	570.8212	15741.65	14826.2
822.1897	572.958	15158.45	14241.55
822.3342	575.0942	14623.45	13712.85
822.4786	577.2299	14263.8	13354.15
822.6231	579.3648	14118.85	13220.1
822.7675	581.4992	14117.3	13226.45
822.912	583.6329	14237.25	13349.2
823.0565	585.766	14418.35	13524.25
823.201	587.8985	14585.4	13683.75
823.3454	590.0304	14609.25	13673.25
823.4899	592.1616	14536.8	13615.65
823.6345	594.2922	14447.95	13522.95
823.779	596.4222	14260.4	13333.55
823.9235	598.5515	14041.25	13115.6
824.068	600.6802	13871.7	12950
824.2126	602.8083	13724.2	12805.3
824.3571	604.9358	13707.75	12781.55
824.5017	607.0626	13693.5	12766.1
824.6462	609.1888	13775.5	12841.1
824.7908	611.3144	13834.35	12901.55
824.9354	613.4393	13879.3	12947.95
825.08	615.5636	13895.6	12965.6
825.2246	617.6873	13892.15	12962.35
825.3692	619.8103	13827.45	12899.7
825.5138	621.9327	13660.9	12732.95
825.6584	624.0544	13516	12595.5
825.803	626.1756	13394.05	12470
825.9477	628.2961	13265.85	12338.4
826.0923	630.4159	13215.85	12290.3
826.237	632.5351	13224.35	12292.7
826.3816	634.6537	13179.7	12250.55
826.5263	636.7716	13152.6	12220.1
826.6709	638.8889	13151.25	12214.7
826.8156	641.0056	13203.15	12267.4
826.9603	643.1216	13176.3	12237.75
827.105	645.237	13183.75	12252.4
827.2497	647.3518	13104.1	12177.3
827.3944	649.4659	13074.35	12156.55
827.5391	651.5793	13035.1	12115.4
827.6838	653.6922	12999.05	12076.7
827.8285	655.8043	12991	12067.3
827.9733	657.9159	12990.05	12061.3
828.118	660.0268	12925.25	11996.1
828.2627	662.137	12915.5	11984.1
828.4075	664.2466	12913.8	11975.1
828.5522	666.3556	12927.95	11991.85
828.697	668.4639	12898.1	11967.4
828.8418	670.5716	12880	11956.9
828.9865	672.6786	12871.7	11942.9
829.1313	674.785	12867.5	11932.65
829.2761	676.8907	12873.7	11940.8
829.4209	678.9958	12918.55	11993.4
829.5657	681.1002	12923.65	11989.55
829.7105	683.204	12919.1	11974.5
829.8553	685.3072	12871.3	11931.5
830.0001	687.4097	12827.6	11893.9
830.1449	689.5115	12827.05	11893
830.2898	691.6127	12788.75	11856.35
830.4346	693.7132	12763.6	11832
830.5794	695.8131	12781.05	11835.3
830.7243	697.9123	12771.8	11831.6
830.8691	700.0109	12777.5	11834.7
831.014	702.1089	12798.65	11860
831.1588	704.2061	12839.35	11902.5
831.3037	706.3028	12888.5	11948.25
831.4486	708.3987	12926.1	11982.1
831.5935	710.4941	12987.4	12051.35
831.7383	712.5887	13092.25	12154.5
831.8832	714.6827	13209.85	12269.7
832.0281	716.7761	13426.25	12491.45
832.173	718.8688	13698.15	12762.4
832.3179	720.9608	13868.7	12926.3
832.4628	723.0522	13995.35	13047.75
832.6077	725.1429	13952.9	13008.45
832.7527	727.233	13891.75	12951.6
832.8976	729.3224	13848.45	12908.05
833.0425	731.4112	13713	12775.45
833.1874	733.4993	13541.9	12601.7
833.3324	735.5867	13343.95	12403.9
833.4773	737.6735	13178.4	12238.65
833.6222	739.7596	13025.7	12083.05
833.7672	741.845	12889.8	11951.75
833.9122	743.9298	12847	11908.1
834.0571	746.014	12817.8	11880.25
834.2021	748.0974	12835.2	11890.05
834.347	750.1802	12830.1	11878.95
834.492	752.2624	12817.05	11871.5
834.637	754.3439	12881	11931.15
834.782	756.4247	13000	12047.9
834.9269	758.5048	13163.6	12216
835.0719	760.5843	13420.15	12472.65
835.2169	762.6631	13797.05	12849.9
835.3619	764.7413	14371.8	13427.25
835.5069	766.8188	15047.4	14096.05
835.6519	768.8956	15589.95	14640.05
835.7969	770.9718	15950.7	15004.45
835.9419	773.0473	15819.65	14873.75
836.0869	775.1221	15550.05	14607.5
836.232	777.1962	15201.3	14256.5
836.377	779.2697	15097.55	14147.7
836.522	781.3426	15163.3	14203.9
836.667	783.4147	15283.95	14337.25
836.8121	785.4862	15443.05	14494.8
836.9571	787.557	15342.35	14393.55
837.1021	789.6271	14913.55	13959.75
837.2472	791.6966	14307.7	13359.75
837.3922	793.7654	13702.15	12751.6
837.5373	795.8335	13351.15	12402.35
837.6823	797.901	13072.35	12125
837.8274	799.9678	12931	11979.65
837.9724	802.0339	12889.7	11938.9
838.1175	804.0993	12876.3	11911.4
838.2626	806.1641	12820.95	11871.25
838.4076	808.2282	12779.05	11830.25
838.5527	810.2916	12694.2	11743.2
838.6978	812.3544	12615.1	11670.25
838.8428	814.4164	12541.7	11593.2
838.9879	816.4778	12559.35	11605.5
839.133	818.5385	12613.05	11661.7
839.2781	820.5986	12760.2	11808.05
839.4232	822.658	12955.55	11998.85
839.5682	824.7166	13202.35	12254.45
839.7133	826.7747	13651.55	12701.6
839.8584	828.832	14066.7	13110.7
840.0035	830.8886	14353.3	13400.1
840.1486	832.9446	14529.1	13572.1
840.2937	834.9999	14418.25	13467.95
840.4388	837.0545	14219.15	13264.75
840.5839	839.1085	13979.4	13027.4
840.729	841.1618	13784.05	12828.8
840.8741	843.2143	13599.3	12645.55
841.0192	845.2662	13457.4	12505.25
841.1643	847.3175	13342.6	12388.6
841.3095	849.368	13190.75	12235.75
841.4546	851.4179	13107.45	12153
841.5997	853.467	13001.3	12052.65
841.7448	855.5155	12945.55	11990.65
841.8899	857.5633	12815.55	11862.75
842.0351	859.6105	12710.5	11756.65
842.1802	861.6569	12676.6	11721.5
842.3253	863.7027	12588.2	11630.1
842.4704	865.7478	12570.65	11610.2
842.6156	867.7922	12552.65	11597
842.7607	869.8359	12550.75	11591.1
842.9058	871.8789	12635.4	11677.3
843.0509	873.9212	12768.75	11778.7
843.1961	875.9629	12853.5	11898.2
843.3412	878.0039	13000.6	12043.35
843.4863	880.0441	13111.55	12158
843.6315	882.0837	13139.3	12185
843.7766	884.1226	13115.8	12158.85
843.9218	886.1609	13118.9	12164.75
844.0669	888.1984	13159.75	12202.3
844.212	890.2352	13254.75	12297.7
844.3572	892.2714	13239.25	12279.55
844.5023	894.3069	13194.6	12235
844.6475	896.3416	13062.65	12107.7
844.7926	898.3757	12946.2	11987.95
844.9377	900.4091	12913.65	11954.25
845.0829	902.4418	12896.8	11932.65
845.228	904.4739	12931.85	11966.15
845.3732	906.5052	12948.75	11988.05
845.5183	908.5358	12922.1	11963.2
845.6635	910.5658	12758.3	11797.85
845.8086	912.595	12595.65	11636.4
845.9538	914.6236	12384.65	11425.75
846.0989	916.6515	12294.3	11332.4
846.2441	918.6786	12196.7	11238
846.3892	920.7051	12208.7	11246
846.5344	922.7309	12289.5	11330.95
846.6795	924.756	12318.9	11360.55
846.8246	926.7804	12418.85	11460.5
846.9698	928.8041	12402.65	11444.95
847.1149	930.8272	12439.4	11482.7
847.2601	932.8495	12432.6	11472.95
847.4052	934.8711	12394.7	11435.5
847.5504	936.892	12304.8	11344.9
847.6955	938.9123	12245.55	11283.7
847.8407	940.9318	12213.85	11254.15
847.9858	942.9506	12177.95	11218
848.131	944.9688	12104.4	11144.6
848.2761	946.9862	12033.7	11074
848.4213	949.003	11932.4	10974.9
848.5664	951.019	11823.45	10863.75
848.7115	953.0344	11817.85	10857.75
848.8567	955.0491	11802.75	10843.5
849.0018	957.063	11881.35	10923.75
849.147	959.0763	11979.4	11017.25
849.2921	961.0888	11998.45	11036
849.4373	963.1007	12088.05	11131.6
849.5824	965.1119	12098.2	11155.1
849.7275	967.1223	12073.65	11132.8
849.8727	969.1321	12112.9	11172.35
850.0178	971.1412	12100.7	11152.8
850.1629	973.1495	12095.2	11143.4
850.3081	975.1572	12149.8	11138.8
850.4532	977.1641	12167.3	11207.6
850.5983	979.1704	12121.75	11161.2
850.7435	981.1759	12125.1	11166.55
850.8886	983.1808	12140.45	11176.75
851.0337	985.1849	12193	11220.9
851.1788	987.1884	12286	11326.85
851.324	989.1911	12380.4	11420.9
851.4691	991.1932	12495.15	11539.3
851.6142	993.1945	12542.15	11586.3
851.7593	995.1951	12485.1	11525.5
851.9045	997.1951	12484.95	11520.45
852.0496	999.1943	12413.75	11459.3
852.1947	1001.1928	12359.75	11400.35
852.3398	1003.1906	12424.7	11464.45
852.4849	1005.1877	12555.1	11600.05
852.63	1007.1841	12563.05	11604.2
852.7751	1009.1798	12548.95	11593.1
852.9202	1011.1748	12433.9	11473.3
853.0653	1013.1691	12257.6	11296.05
853.2104	1015.1627	12049.85	11092.9
853.3555	1017.1556	11858.1	10900.45
853.5006	1019.1477	11730.35	10776.3
853.6457	1021.1392	11604.6	10656.2
853.7908	1023.1299	11592.95	10650.4
853.9359	1025.12	11586.65	10650
854.081	1027.1093	11636.4	10712.75
854.2261	1029.0979	11748.6	10825.05
854.3712	1031.0859	11827.85	10899.25
854.5163	1033.0731	11890.65	10949.15
854.6613	1035.0596	11843.25	10897.5
854.8064	1037.0454	11711.35	10760.6
854.9515	1039.0304	11601	10651.05
855.0965	1041.0148	11481.15	10526
855.2416	1042.9985	11376.75	10419.2
855.3867	1044.9814	11325.25	10370.35
855.5317	1046.9636	11247.5	10292.3
855.6768	1048.9452	11251.75	10301.25
855.8219	1050.926	11273.4	10324.55
855.9669	1052.9061	11293.1	10340.5
856.112	1054.8855	11325.55	10370.95
856.257	1056.8642	11342.3	10387.05
856.4021	1058.8421	11438.6	10479.55
856.5471	1060.8194	11463.95	10507.8
856.6921	1062.7959	11506.1	10549.2
856.8372	1064.7717	11550	10593.75
856.9822	1066.7469	11600.55	10643.9
857.1272	1068.7213	11672.85	10718
857.2723	1070.695	11698.5	10742.65
857.4173	1072.6679	11693.8	10737.55
857.5623	1074.6402	11715.7	10762.7
857.7073	1076.6117	11639.65	10678.05
857.8523	1078.5826	11583.45	10626.15
857.9973	1080.5527	11480.5	10523.6
858.1423	1082.5221	11458.75	10505.85
858.2873	1084.4908	11531.95	10575.5
858.4323	1086.4587	11617.2	10662.35
858.5773	1088.426	11705	10746.25
858.7223	1090.3925	11698.3	10740.5
858.8673	1092.3584	11698.1	10740.25
859.0123	1094.3235	11645.3	10690.45
859.1573	1096.2879	11677.05	10723.85
859.3022	1098.2515	11763.9	10809.35
859.4472	1100.2145	11905.15	10947.3
859.5922	1102.1767	12049.55	11092.95
859.7371	1104.1382	12279.45	11327.95
859.8821	1106.099	12515	11559.65
860.027	1108.0591	12742.3	11788
860.172	1110.0185	12910.15	11955.8
860.3169	1111.9771	12945	11987.5
860.4619	1113.9351	12798.15	11845.05
860.6068	1115.8923	12606.75	11650.7
860.7517	1117.8488	12430.2	11475.55
860.8967	1119.8045	12213.8	11260.1
861.0416	1121.7596	12061.85	11113.65
861.1865	1123.7139	11966.65	11017.2
861.3314	1125.6675	11962	11011.35
861.4763	1127.6204	12001.05	11046.3
861.6212	1129.5726	11954.4	10997
861.7661	1131.524	11871	10919.55
861.911	1133.4748	11774.4	10818.75
862.0559	1135.4248	11650.5	10695.95
862.2008	1137.3741	11537.5	10583.25
862.3457	1139.3226	11442.55	10490.1
862.4905	1141.2705	11382.3	10429.2
862.6354	1143.2176	11289.65	10329.55
862.7803	1145.164	11247.65	10290.85
862.9251	1147.1097	11207.9	10254.55
863.07	1149.0546	11148.95	10196.15
863.2148	1150.9989	11061.35	10106.05
863.3597	1152.9424	10970.6	10016.8
863.5045	1154.8852	10850.25	9899.4
863.6493	1156.8272	10785.3	9833.6
863.7942	1158.7686	10799.9	9841.4
863.939	1160.7092	10798.65	9844.3
864.0838	1162.6491	10790.6	9837.85
864.2286	1164.5883	10886.35	9936.5
864.3734	1166.5267	10999.8	10042.1
864.5182	1168.4644	11172.55	10223.15
864.663	1170.4014	11369.75	10415.45
864.8078	1172.3377	11621.65	10673.35
864.9526	1174.2732	11872.35	10923.35
865.0974	1176.2081	12296.75	11348.15
865.2421	1178.1421	12680.95	11725
865.3869	1180.0755	13130.75	12180.65
865.5317	1182.0082	13410.95	12464.05
865.6764	1183.9401	13509.45	12562.25
865.8212	1185.8713	13399.9	12455.8
865.9659	1187.8017	13111	12174.85
866.1106	1189.7315	12763.35	11839.1
866.2554	1191.6605	12384.05	11454.1
866.4001	1193.5888	12146.85	11213
866.5448	1195.5163	12001.3	11061.55
866.6895	1197.4432	11904.3	10955.55
866.8342	1199.3693	11851.9	10900.85
866.9789	1201.2947	11846.85	10888.65
867.1236	1203.2193	11806.4	10857.95
867.2683	1205.1432	11808.3	10859
867.413	1207.0664	11785.45	10836.5
867.5576	1208.9889	11768.45	10816.95
867.7023	1210.9106	11774.95	10829.3
867.847	1212.8316	11765.85	10817.85
867.9916	1214.7519	11833.85	10876.95
868.1363	1216.6715	11843.25	10897.35
868.2809	1218.5903	11916.45	10966.85
868.4255	1220.5084	11947.8	11002.1
868.5701	1222.4257	12017.55	11072.6
868.7148	1224.3424	12018.5	11077.75
868.8594	1226.2583	12141.15	11190.6
869.004	1228.1735	12243.35	11297.3
869.1486	1230.0879	12343.6	11394.1
869.2932	1232.0016	12526.5	11578.95
869.4377	1233.9146	12627.9	11677.65
869.5823	1235.8269	12579	11630.3
869.7269	1237.7384	12512.15	11566.8
869.8715	1239.6492	12370.8	11425.7
870.016	1241.5592	12313.05	11363.8
870.1606	1243.4686	12304	11357.15
870.3051	1245.3772	12407.9	11461.1
870.4496	1247.285	12549.3	11602.25
870.5941	1249.1922	12652.45	11704.7
870.7387	1251.0986	12709.7	11762.05
870.8832	1253.0042	12777	11830.35
871.0277	1254.9092	12867.95	11925.25
871.1722	1256.8134	12951.7	12008.9
871.3167	1258.7169	13097.85	12153.5
871.4611	1260.6196	13274.95	12331
871.6056	1262.5216	13514.55	12567.4
871.7501	1264.4229	13678.25	12736
871.8945	1266.3234	13870.6	12925.85
872.039	1268.2232	14032.1	13084.05
872.1834	1270.1223	14060.45	13114.65
872.3278	1272.0207	14087.25	13139.1
872.4723	1273.9183	14040.95	13087.75
872.6167	1275.8151	13962.55	13018.95
872.7611	1277.7113	13914.15	12969.8
872.9055	1279.6067	13976.4	13030.7
873.0499	1281.5014	14089.7	13143.9
873.1943	1283.3953	14323.15	13373.7
873.3386	1285.2885	14682.3	13741.75
873.483	1287.181	15039.25	14092.2
873.6274	1289.0727	15381.65	14441.9
873.7717	1290.9637	15602.7	14660.3
873.9161	1292.854	15806	14857.7
874.0604	1294.7435	15833.75	14888.25
874.2047	1296.6323	15831.45	14887.45
874.349	1298.5204	15766.25	14816.35
874.4933	1300.4077	15707.65	14765.55
874.6376	1302.2943	15600.9	14655.75
874.7819	1304.1802	15426.7	14478.95
874.9262	1306.0653	15070.2	14125.35
875.0705	1307.9497	14716.2	13771.85
875.2147	1309.8333	14375.1	13434.5
875.359	1311.7162	14096.7	13151.65
875.5032	1313.5984	13954	13008.6
875.6475	1315.4798	13885.4	12931.55
875.7917	1317.3605	13867.6	12906.8
875.9359	1319.2405	13783.5	12838.15
876.0801	1321.1197	13600.4	12650.15
876.2243	1322.9982	13340.5	12392.45
876.3685	1324.876	13135.3	12190.85
876.5127	1326.753	12905.1	11962.8
876.6569	1328.6293	12783.65	11838.5
876.801	1330.5048	12660.7	11715.45
876.9452	1332.3796	12535.1	11591.45
877.0893	1334.2537	12495.6	11526
877.2335	1336.127	12410.15	11464.65
877.3776	1337.9996	12367.85	11421.9
877.5217	1339.8714	12374.65	11429.65
877.6658	1341.7426	12374.9	11382.1
877.8099	1343.6129	12341.95	11395.1
877.954	1345.4826	12333.4	11386.75
878.0981	1347.3515	12368.7	11423.2
878.2422	1349.2196	12324.35	11379.3
878.3862	1351.087	12339.7	11393.55
878.5303	1352.9537	12410.7	11464.4
878.6743	1354.8197	12514	11567
878.8184	1356.6849	12669.4	11723.65
878.9624	1358.5493	12834	11888.9
879.1064	1360.4131	12999.9	12056.15
879.2504	1362.276	13029.35	12083.75
879.3944	1364.1383	13000.65	12058.2
879.5384	1365.9998	12790.45	11838.85
879.6823	1367.8606	12449.35	11502.95
879.8263	1369.7206	12100.45	11154.5
879.9702	1371.5799	11777.1	10829.65
880.1142	1373.4384	11522.25	10576.35
880.2581	1375.2962	11297.25	10353.85
880.402	1377.1533	10977.9	10035.5
880.5459	1379.0096	10607.65	9668.15
880.6898	1380.8652	10290.55	9353.85
880.8337	1382.7201	9986.9	9046.65
880.9776	1384.5742	9771.1	8829.85
881.1215	1386.4275	9561.8	8616.75
881.2653	1388.2802	9421.3	8476.25
881.4092	1390.132	9329.55	8385.55
881.553	1391.9832	9259.2	8315.5
881.6968	1393.8336	9154.75	8210.65
881.8406	1395.6832	9107.05	8161.75
881.9844	1397.5322	9069.6	8122.45
882.1282	1399.3803	9047.3	8098.55
882.272	1401.2278	9010.9	8068.4
882.4158	1403.0745	8990.6	8048
882.5595	1404.9204	8988.8	8047.7
882.7033	1406.7656	9007.6	8065.95
882.847	1408.6101	9018.85	8075.75
882.9908	1410.4538	9028.5	8088.8
883.1345	1412.2968	9089.2	8148.7
883.2782	1414.139	9134.55	8192.6
883.4219	1415.9805	9210.35	8271.7
883.5656	1417.8213	9267.85	8319.1
883.7092	1419.6613	9407.75	8468
883.8529	1421.5006	9551.65	8609.95
883.9965	1423.3391	9772.8	8826.75
884.1402	1425.1769	10064.45	9123.8
884.2838	1427.0139	10523.4	9582.45
884.4274	1428.8502	11065.65	10126.45
884.571	1430.6858	11613.9	10674.95
884.7146	1432.5206	12015.05	11076.35
884.8582	1434.3547	12231.5	11291.9
885.0018	1436.188	12282.9	11340.4
885.1453	1438.0206	12183.2	11241.65
885.2889	1439.8524	11999	11058
885.4324	1441.6835	11889.45	10948.8
885.5759	1443.5139	11799.95	10857.05
885.7194	1445.3435	11705.85	10765.25
885.8629	1447.1724	11678.35	10743.95
886.0064	1449.0005	11598.75	10661.8
886.1499	1450.8279	11554.7	10617.8
886.2933	1452.6545	11521.75	10581.2
886.4368	1454.4804	11539.1	10601
886.5802	1456.3056	11559.1	10616.3
886.7237	1458.13	11455.95	10517.05
886.8671	1459.9536	11245.8	10310.55
887.0105	1461.7766	10986.9	10050.9
887.1539	1463.5987	10621.7	9680.9
887.2972	1465.4202	10267	9329.3
887.4406	1467.2409	9917.4	8979.35
887.584	1469.0608	9658.15	8721.2
887.7273	1470.88	9348.95	8410.1
887.8706	1472.6984	9135.15	8200
888.0139	1474.5161	8924.6	7983.05
888.1572	1476.3331	8770.9	7834.5
888.3005	1478.1493	8644.8	7706.85
888.4438	1479.9648	8568.4	7630.25
888.5871	1481.7795	8474.65	7534.9
888.7303	1483.5935	8407.1	7468.8
888.8736	1485.4067	8334.35	7395.6
889.0168	1487.2192	8305.4	7365.3
889.16	1489.031	8277.05	7334.75
889.3032	1490.842	8208.45	7270.55
889.4464	1492.6522	8176.95	7239.95
889.5896	1494.4618	8158.4	7218.75
889.7327	1496.2705	8123.35	7187
889.8759	1498.0785	8087.4	7152.95
890.019	1499.8858	8036.95	7099.7
890.1622	1501.6924	7990.5	7056.7
890.3053	1503.4981	7944.9	7007.5
890.4484	1505.3032	7879.25	6940.55
890.5914	1507.1075	7847.55	6907.15
890.7345	1508.911	7829.95	6891
890.8776	1510.7138	7793.25	6858
891.0206	1512.5159	7741.7	6807.05
891.1637	1514.3172	7657.3	6721.95
891.3067	1516.1178	7637.4	6707.6
891.4497	1517.9176	7611	6671.7
891.5927	1519.7166	7563.7	6629.45
891.7357	1521.515	7534.1	6593.55
891.8786	1523.3126	7519.15	6585.85
892.0216	1525.1094	7503.45	6568.6
892.1645	1526.9055	7456.7	6524.75
892.3074	1528.7008	7428	6494.15
892.4503	1530.4954	7359.8	6429.9
892.5932	1532.2893	7378.3	6449.5
892.7361	1534.0824	7322.5	6389.1
892.879	1535.8747	7332.5	6404.9
893.0218	1537.6663	7326.05	6398.6
893.1647	1539.4572	7338.75	6407.55
893.3075	1541.2473	7348.75	6416.55
893.4503	1543.0367	7318.25	6387.7
893.5931	1544.8253	7324.4	6389.7
893.7359	1546.6132	7353.4	6421.3
893.8787	1548.4003	7361.45	6423.25
894.0214	1550.1867	7405.8	6468.5
894.1642	1551.9723	7457.15	6527.7
894.3069	1553.7572	7527.65	6597.55
894.4496	1555.5414	7636.35	6710.8
894.5923	1557.3247	7719.2	6792.7
894.735	1559.1074	7887.8	6966
894.8777	1560.8893	8010.55	7090.05
895.0204	1562.6705	8119.95	7195.15
895.163	1564.4509	8255.3	7335.95
895.3056	1566.2305	8310.65	7392
895.4482	1568.0094	8343.25	7423.9
895.5908	1569.7876	8350.85	7432
895.7334	1571.565	8330.8	7406.35
895.876	1573.3417	8333.4	7411.2
896.0186	1575.1176	8309.75	7390.2
896.1611	1576.8928	8308.95	7391.75
896.3036	1578.6672	8272.45	7361.1
896.4461	1580.4409	8226.7	7315.6
896.5886	1582.2138	8213.85	7297.8
896.7311	1583.986	8225.2	7306.6
896.8736	1585.7575	8250	7331.55
897.0161	1587.5282	8283.6	7372.9
897.1585	1589.2981	8324.95	7414.1
897.3009	1591.0673	8358.55	7445.75
897.4433	1592.8358	8463.45	7551.25
897.5857	1594.6035	8535.05	7616.3
897.7281	1596.3704	8608.2	7690.05
897.8705	1598.1366	8695.1	7778.9
898.0128	1599.9021	8765.65	7852.85
898.1551	1601.6668	8896.55	7978.35
898.2975	1603.4308	8980.6	8061.6
898.4398	1605.194	9146.35	8224.65
898.5821	1606.9564	9335.8	8429.2
898.7243	1608.7182	9570.6	8664.55
898.8666	1610.4791	9803.75	8904.15
899.0088	1612.2394	10078.45	9177.55
899.1511	1613.9988	10334.25	9431.45
899.2933	1615.7576	10617.25	9709.95
899.4355	1617.5156	10797.65	9877.3
899.5776	1619.2728	10934.9	10018.65
899.7198	1621.0293	10891.85	9974.65
899.862	1622.785	10745.35	9833.75
900.0041	1624.54	10496.15	9587.4
900.1462	1626.2942	10188.45	9279.9
900.2883	1628.0477	9856.4	8949.3
900.4304	1629.8005	9544.25	8632.2
900.5725	1631.5525	9249.9	8343.55
900.7145	1633.3037	8996.05	8090.5
900.8566	1635.0542	8812.85	7906.9
900.9986	1636.804	8667.45	7760.15
901.1406	1638.553	8673.2	7675.35
901.2826	1640.3013	8539.65	7629.25
901.4245	1642.0488	8477.45	7567.8
901.5665	1643.7955	8533.7	7628.45
901.7085	1645.5416	8589.75	7683.65
901.8504	1647.2868	8686.25	7780.7
901.9923	1649.0313	8781.4	7872.05
902.1342	1650.7751	8968.95	8058.1
902.2761	1652.5181	9117.45	8213.05
902.4179	1654.2604	9297.65	8396.4
902.5598	1656.0019	9529.35	8625.35
902.7016	1657.7427	9779.05	8871.55
902.8434	1659.4828	10077.95	9169.85
902.9852	1661.222	10233.7	9322.95
903.127	1662.9606	10209.75	9301.6
903.2687	1664.6984	9956.5	9046.35
903.4105	1666.4354	9518.85	8604.8
903.5522	1668.1717	8956.1	8044.95
903.6939	1669.9072	8384.2	7471.65
903.8356	1671.642	7895.6	6979.2
903.9773	1673.3761	7523.1	6612.5
904.119	1675.1094	7197.35	6291.45
904.2606	1676.8419	6932.9	6025.4
904.4022	1678.5737	6753.5	5844.05
904.5439	1680.3048	6610.6	5701.95
904.6855	1682.0351	6455.95	5546.05
904.827	1683.7646	6354.45	5437.95
904.9686	1685.4934	6253	5344.65
905.1101	1687.2215	6183.35	5277.15
905.2517	1688.9488	6083.25	5176.7
905.3932	1690.6754	6045.9	5138.7
905.5347	1692.4012	6003.5	5094.1
905.6761	1694.1263	5946.05	5036.05
905.8176	1695.8506	5916.55	5011.5
905.9591	1697.5742	5858.45	4953.6
906.1005	1699.297	5826.6	4922.55
906.2419	1701.0191	5779.55	4878.35
906.3833	1702.7404	5738.05	4837.6
906.5246	1704.461	5700.2	4795.35
906.666	1706.1808	5669.65	4763.25
906.8073	1707.8999	5649.45	4746.8
906.9487	1709.6182	5614.1	4715.25
907.09	1711.3358	5579.25	4680.3
907.2313	1713.0527	5552.4	4657.2
907.3725	1714.7688	5533	4625.9
907.5138	1716.4841	5502.2	4598.45
907.655	1718.1987	5507.35	4600.8
907.7962	1719.9126	5451.6	4553.85
907.9374	1721.6257	5423	4522.8
908.0786	1723.338	5415.15	4517.3
908.2198	1725.0496	5399.8	4500.75
908.3609	1726.7605	5391.55	4491.7
908.502	1728.4706	5364.65	4464.9
908.6431	1730.18	5342.5	4442.85
908.7842	1731.8886	5332.95	4437.55
908.9253	1733.5964	5336.65	4418.15
909.0664	1735.3036	5300.85	4400.35
909.2074	1737.0099	5281.85	4385.9
909.3484	1738.7156	5264.3	4368.05
909.4894	1740.4204	5215.95	4315.4
909.6304	1742.1246	5194.6	4294.8
909.7714	1743.8279	5179.8	4280.1
909.9123	1745.5306	5158.35	4261
910.0532	1747.2325	5139.1	4243.85
910.1941	1748.9336	5109.2	4211.85
910.335	1750.634	5082.15	4180.45
910.4759	1752.3336	5080.85	4180.7
910.6168	1754.0325	5080.25	4186.35
910.7576	1755.7307	5045.7	4150.35
910.8984	1757.4281	5050.3	4150.9
911.0392	1759.1247	5023.75	4116.25
911.18	1760.8206	5020.65	4115.3
911.3208	1762.5158	5023.55	4116.4
911.4615	1764.2102	4985.35	4087.6
911.6022	1765.9039	4967.5	4069.6
911.7429	1767.5968	4972.85	4078.95
911.8836	1769.289	4949.25	4053.85
912.0243	1770.9804	4937.3	4039
912.1649	1772.6711	4948.35	4043.65
912.3056	1774.361	4923.8	4021.9
912.4462	1776.0502	4914.05	4011
912.5868	1777.7386	4901.55	4000.15
912.7274	1779.4263	4893.75	3995.55
912.8679	1781.1132	4874.85	3979.75
913.0084	1782.7994	4865.65	3971.55
913.149	1784.4849	4857.95	3964.75
913.2895	1786.1696	4856.8	3944.25
913.4299	1787.8535	4827.3	3935.4
913.5704	1789.5367	4808.15	3916.1
913.7108	1791.2192	4815.85	3924.05
913.8513	1792.9009	4801.15	3878.8
913.9917	1794.5818	4778.5	3876.9
914.132	1796.2621	4766.5	3867.55
914.2724	1797.9415	4747.15	3848.8
914.4128	1799.6202	4736.4	3837.45
914.5531	1801.2982	4733.25	3833.05
914.6934	1802.9755	4733.65	3835.4
914.8337	1804.6519	4720.05	3822.55
914.9739	1806.3277	4712.2	3818
915.1142	1808.0027	4699.05	3804.95
915.2544	1809.6769	4689.6	3798.4
915.3946	1811.3504	4686.9	3796.25
915.5348	1813.0231	4668.15	3774.85
915.675	1814.6951	4661.45	3768.7
915.8151	1816.3664	4680.4	3780.55
915.9553	1818.0369	4648.4	3754.35
916.0954	1819.7067	4632.2	3736.05
916.2355	1821.3757	4630.6	3731.9
916.3755	1823.044	4624.3	3725.2
916.5156	1824.7115	4607.5	3708.85
916.6556	1826.3783	4595	3700.45
916.7956	1828.0443	4588.1	3693.75
916.9356	1829.7096	4595.8	3697.25
917.0756	1831.3741	4580.6	3684.95
917.2155	1833.0379	4546.7	3655.1
917.3555	1834.701	4551.3	3655.65
917.4954	1836.3633	4538.45	3647.85
917.6353	1838.0248	4531.95	3636.7
917.7751	1839.6856	4511.2	3616
917.915	1841.3457	4522.55	3627.1
918.0548	1843.005	4532.1	3635.8
918.1946	1844.6636	4516.2	3619.45
918.3344	1846.3214	4506.7	3610.8
918.4742	1847.9785	4499.1	3604.75
918.6139	1849.6349	4499.75	3601.2
918.7537	1851.2904	4491.8	3581.9
918.8934	1852.9453	4478	3578.85
919.0331	1854.5994	4456.4	3557.75
919.1727	1856.2528	4477	3574.55
919.3124	1857.9054	4460.3	3563.3
919.452	1859.5572	4441	3547.85
919.5916	1861.2083	4444.65	3548.15
919.7312	1862.8587	4427.8	3529.7
919.8708	1864.5084	4416.05	3516.45
920.0103	1866.1572	4409.1	3509.6
920.1498	1867.8054	4388.05	3487.1
920.2893	1869.4528	4382.35	3483.2
920.4288	1871.0994	4363.7	3463.55
920.5683	1872.7453	4366.35	3467.75
920.7077	1874.3905	4381.25	3478.15
920.8471	1876.0349	4342.5	3446.45
920.9865	1877.6786	4359.45	3461.8
921.1259	1879.3215	4328.95	3434
921.2653	1880.9637	4334.55	3437.8
921.4046	1882.6051	4339.75	3443.6
921.5439	1884.2458	4321.1	3423.6
921.6832	1885.8858	4297.05	3401.6
921.8225	1887.525	4286.95	3388.15
921.9617	1889.1634	4262.65	3366.3
922.101	1890.8011	4256.05	3357.7
922.2402	1892.4381	4262.4	3364.45
922.3794	1894.0743	4263.2	3366.35
922.5185	1895.7098	4261.95	3368.4
922.6577	1897.3446	4236.2	3340.55
922.7968	1898.9786	4225.65	3325.35
922.9359	1900.6118	4218.4	3323.6
923.075	1902.2443	4198.35	3304.15
923.214	1903.8761	4199.7	3304.2
923.3531	1905.5071	4176.2	3280.9
923.4921	1907.1374	4163.55	3268.6
923.6311	1908.7669	4164.6	3267.85
923.77	1910.3957	4155.8	3259.45
923.909	1912.0237	4121.1	3227.25
924.0479	1913.651	4124.15	3229.1
924.1868	1915.2776	4105.85	3211.1
924.3257	1916.9034	4100.75	3209.6
924.4646	1918.5285	4092.45	3200.75
924.6034	1920.1528	4071.1	3178.6
924.7422	1921.7764	4075.6	3181.15
924.881	1923.3992	4079.15	3185.1
925.0198	1925.0213	4036.3	3140.9
925.1586	1926.6427	4031.9	3138.7
925.2973	1928.2633	4093.45	3119.1
925.436	1929.8832	4022.55	3125.25
925.5747	1931.5023	4014.2	3121.9
925.7134	1933.1207	4002.8	3106.7
925.852	1934.7383	3997.1	3102.35
925.9906	1936.3552	3981.9	3087.15
926.1292	1937.9714	3972.15	3080.35
926.2678	1939.5868	3953.6	3056.45
926.4064	1941.2015	3933.2	3036.6
926.5449	1942.8154	3917.5	3021.8
926.6834	1944.4286	3918.4	3022.65
926.8219	1946.041	3913	2997.25
926.9604	1947.6528	3878.15	2976.95
927.0988	1949.2637	3861.4	2968.35
927.2372	1950.8739	3869.15	2971.5
927.3756	1952.4834	3859.65	2966.65
927.514	1954.0921	3854	2963.7
927.6523	1955.7001	3833.6	2938
927.7907	1957.3074	3835.4	2943.5
927.929	1958.9139	3820.1	2931.55
928.0673	1960.5197	3803.45	2913.5
928.2055	1962.1247	3791.45	2898.65
928.3438	1963.729	3779.1	2888.15
928.482	1965.3325	3775.15	2879.9
928.6202	1966.9353	3753.9	2865.3
928.7584	1968.5374	3740.3	2850.95
928.8965	1970.1387	3734.05	2843.55
929.0346	1971.7393	3746.45	2856.8
929.1727	1973.3392	3739.75	2848.5
929.3108	1974.9383	3708.3	2820
929.4489	1976.5366	3695.55	2809.2
929.5869	1978.1342	3689.2	2802.45
929.7249	1979.7311	3679.8	2791.35
929.8629	1981.3273	3678.85	2790.8
930.0009	1982.9227	3663.55	2776.15
930.1388	1984.5173	3661.95	2776.5
930.2767	1986.1112	3649.55	2763.9
930.4146	1987.7044	3627.6	2739.95
930.5525	1989.2968	3644.4	2757.55
930.6904	1990.8885	3632.35	2743.25
930.8282	1992.4795	3625.95	2739.3
930.966	1994.0697	3608.65	2724.95
931.1038	1995.6592	3598.5	2713.5
931.2415	1997.2479	3593.35	2705.1
931.3793	1998.8359	3583.05	2699.45
931.517	2000.4232	3549.05	2668.95
931.6547	2002.0097	3552.1	2671.1
931.7923	2003.5955	3545.75	2662.7
931.93	2005.1805	3543.85	2661.4
932.0676	2006.7648	3548.85	2666.25
932.2052	2008.3484	3529.8	2646.3
932.3427	2009.9312	3544.2	2662.2
932.4803	2011.5133	3524.15	2645.95
932.6178	2013.0946	3506.15	2624.85
932.7553	2014.6752	3504.25	2623.55
932.8928	2016.2551	3487.2	2603.35
933.0302	2017.8342	3485	2600.6
933.1676	2019.4126	3467.35	2586.95
933.305	2020.9902	3482.45	2602.4
933.4424	2022.5672	3462.25	2581.6
933.5798	2024.1433	3464.1	2578.45
933.7171	2025.7188	3437.95	2562
933.8544	2027.2935	3442.25	2561.25
933.9917	2028.8674	3411.3	2533.95
934.129	2030.4406	3418.95	2539.65
934.2662	2032.0131	3401.2	2524.95
934.4034	2033.5849	3404.45	2517.9
934.5406	2035.1559	3396.25	2518.05
934.6778	2036.7261	3392.85	2513.15
934.8149	2038.2957	3383.1	2500.3
934.952	2039.8645	3372.55	2486.75
935.0891	2041.4325	3377.55	2487.8
935.2262	2042.9998	3360.05	2478.6
935.3632	2044.5664	3375.25	2491.85
935.5002	2046.1323	3354	2473.7
935.6372	2047.6974	3345.25	2466.5
935.7742	2049.2617	3333.95	2455.1
935.9111	2050.8254	3352.2	2448.85
936.048	2052.3883	3329.2	2447.3
936.1849	2053.9504	3326.9	2442.1
936.3218	2055.5118	3307.7	2420.7
936.4586	2057.0725	3303.25	2418.7
936.5955	2058.6325	3296.95	2414.85
936.7323	2060.1917	3287	2408.7
936.869	2061.7502	3292.15	2406.9
937.0058	2063.3079	3260.65	2384
937.1425	2064.8649	3258.25	2374.7
937.2792	2066.4212	3267.1	2385.45
937.4159	2067.9767	3269.35	2386
937.5525	2069.5315	3249.45	2365.7
937.6891	2071.0856	3239.6	2357.6
937.8257	2072.6389	3226.2	2343.2
937.9623	2074.1915	3201.15	2323.45
938.0989	2075.7433	3193.7	2311.15
938.2354	2077.2945	3199.05	2318.3
938.3719	2078.8448	3197.25	2312.85
938.5084	2080.3945	3196	2313
938.6448	2081.9434	3184.35	2298.3
938.7812	2083.4916	3177.65	2290.8
938.9176	2085.039	3176.2	2284.15
939.054	2086.5857	3186.6	2293.5
939.1903	2088.1317	3164.05	2270.55
939.3267	2089.677	3147	2253.65
939.463	2091.2215	3144.25	2252.2
939.5992	2092.7652	3140.15	2249
939.7355	2094.3083	3133.75	2243.55
939.8717	2095.8506	3129.05	2242.75
940.0079	2097.3921	3128.5	2244.05
940.1441	2098.933	3118.95	2230.95
940.2802	2100.4731	3121.1	2234.85
940.4163	2102.0124	3112.15	2216.55
940.5524	2103.5511	3097.5	2208.75
940.6885	2105.089	3110.35	2220.75
940.8245	2106.6261	3103.3	2216.35
940.9606	2108.1626	3083.25	2196.35
941.0965	2109.6983	3098.9	2185.15
941.2325	2111.2332	3082.95	2195.35
941.3684	2112.7675	3076.25	2186.2
941.5044	2114.301	3059.4	2171.25
941.6403	2115.8337	3080.3	2193.8
941.7761	2117.3657	3056.2	2168.2
941.912	2118.897	3049.3	2157.9
942.0478	2120.4276	3055	2158.95
942.1835	2121.9575	3029.3	2139
942.3193	2123.4866	3036.2	2142.8
942.455	2125.0149	3041.15	2148.75
942.5907	2126.5426	3004.75	2121.8
942.7264	2128.0695	3008.1	2122.45
942.8621	2129.5956	2996.9	2118.1
942.9977	2131.1211	3000.55	2114.05
943.1333	2132.6458	2988.3	2103.2
943.2689	2134.1698	2983.8	2094.6
943.4044	2135.693	2996.6	2099.4
943.54	2137.2155	2993.05	2100.55
943.6755	2138.7373	2976.3	2091.05
943.8109	2140.2584	2964.4	2081
943.9464	2141.7787	2949.85	2064.1
944.0818	2143.2983	2954.4	2074.6
944.2172	2144.8171	2938.2	2057.8
944.3526	2146.3353	2941.95	2058.3
944.4879	2147.8527	2919.75	2037.1
944.6232	2149.3693	2928.8	2038.55
944.7585	2150.8853	2927.7	2036.75
944.8938	2152.4005	2915.9	2025.15
945.029	2153.9149	2910.35	2021.65
945.1642	2155.4287	2906.2	2017.55
945.2994	2156.9417	2888.3	1999.35
945.4346	2158.454	2891.1	2003.45
945.5697	2159.9655	2877.25	1994.3
945.7048	2161.4764	2880.85	1997.85
945.8399	2162.9865	2868.15	1983.45
945.9749	2164.4958	2866.4	1980.5
946.1099	2166.0045	2852.25	1965.55
946.2449	2167.5124	2847.45	1962.35
946.3799	2169.0195	2865	1977.8
946.5148	2170.526	2854.1	1966.65
946.6498	2172.0317	2843.1	1956.55
946.7846	2173.5367	2838.45	1952.45
946.9195	2175.0409	2837.25	1953
947.0543	2176.5445	2841.15	1952.9
947.1891	2178.0473	2832.5	1942.15
947.3239	2179.5494	2816.8	1924.75
947.4587	2181.0507	2798.3	1908.55
947.5934	2182.5513	2795.5	1905.9
947.7281	2184.0512	2803.75	1915.15
947.8628	2185.5504	2790.85	1904.95
947.9974	2187.0488	2774.55	1891.3
948.132	2188.5465	2785.6	1903.95
948.2666	2190.0435	2776.1	1888.85
948.4012	2191.5397	2780.15	1892.95
948.5357	2193.0353	2766.45	1876.85
948.6702	2194.5301	2750.1	1859.35
948.8047	2196.0241	2753.05	1860.8
948.9392	2197.5175	2756.4	1861.2
949.0736	2199.0101	2749.9	1852.4
949.208	2200.502	2726.05	1839.15
949.3424	2201.9931	2710.3	1825.2
949.4767	2203.4835	2715.2	1832.25
949.611	2204.9733	2719.8	1830
949.7453	2206.4622	2690.1	1805.7
949.8796	2207.9505	2707.45	1823.85
950.0138	2209.438	2690.35	1810.15
950.148	2210.9248	2677.9	1793.95
950.2822	2212.4109	2684.15	1797.25
950.4164	2213.8962	2689.25	1796.65
950.5505	2215.3809	2672.15	1778.25
950.6846	2216.8648	2672.6	1777.45
950.8186	2218.3479	2673.25	1774.35
950.9527	2219.8304	2666.2	1769.35
951.0867	2221.3121	2650.4	1754.7
951.2207	2222.7931	2646.8	1755.65
951.3546	2224.2733	2640.9	1750.2
951.4886	2225.7529	2622.65	1734.75
951.6225	2227.2317	2631.25	1742.05
951.7563	2228.7098	2626.05	1744.05
951.8902	2230.1872	2597.4	1714.7
952.024	2231.6638	2604.15	1719.6
952.1578	2233.1397	2592.9	1705.05
952.2916	2234.6149	2593.55	1708.25
952.4253	2236.0894	2583.95	1697.85
952.559	2237.5632	2584.4	1687.8
952.6927	2239.0362	2583.65	1695.45
952.8263	2240.5085	2576.95	1689.85
952.9599	2241.9801	2562.65	1673.4
953.0935	2243.4509	2554.05	1664.2
953.2271	2244.921	2563.35	1670.8
953.3606	2246.3904	2543.25	1650.15
953.4941	2247.8591	2543.35	1654.25
953.6276	2249.3271	2544.05	1655.7
953.7611	2250.7943	2548.15	1657.7
953.8945	2252.2608	2536.9	1646.05
954.0279	2253.7266	2527.5	1636.5
954.1612	2255.1917	2517.8	1627.75
954.2946	2256.656	2510.85	1622.45
954.4279	2258.1197	2497.05	1612.75
954.5612	2259.5826	2508.05	1620.9
954.6944	2261.0447	2500.75	1608.85
954.8276	2262.5062	2499.6	1606.95
954.9608	2263.9669	2501.5	1610.25
955.094	2265.4269	2486.25	1597.45
955.2271	2266.8862	2481.45	1593.9
955.3602	2268.3448	2491	1603.45
955.4933	2269.8026	2472.65	1586.35
955.6264	2271.2598	2471.9	1584.75
955.7594	2272.7162	2473.7	1584.95
955.8924	2274.1719	2472.5	1581
956.0253	2275.6268	2468.05	1577.05
956.1583	2277.0811	2460.65	1568.75
956.2912	2278.5346	2451.5	1563.9
956.4241	2279.9874	2451.1	1564.65
956.5569	2281.4395	2449.3	1564.15
956.6897	2282.8908	2442.4	1552.35
956.8225	2284.3414	2442.8	1552.3
956.9553	2285.7914	2438.85	1550.85
957.088	2287.2406	2431.05	1540.25
957.2207	2288.689	2424.85	1533.5
957.3534	2290.1368	2424.7	1531.05
957.486	2291.5838	2420.2	1521
957.6186	2293.0302	2423.3	1527.75
957.7512	2294.4758	2409.4	1515.15
957.8838	2295.9206	2398.1	1507.8
958.0163	2297.3648	2401.25	1514.55
958.1488	2298.8082	2387.55	1499.85
958.2813	2300.251	2390.95	1501.05
958.4137	2301.693	2391.05	1497.7
958.5461	2303.1343	2385.75	1494.55
958.6785	2304.5748	2374.55	1483.15
958.8108	2306.0147	2377.65	1490.9
958.9432	2307.4538	2374.5	1489.4
959.0754	2308.8922	2361.85	1478.55
959.2077	2310.3299	2356.35	1469.75
959.3399	2311.7669	2354.65	1471.8
959.4721	2313.2031	2346.9	1460.25
959.6043	2314.6387	2348.15	1461.1
959.7365	2316.0735	2329.85	1440.75
959.8686	2317.5076	2345.95	1455.95
960.0006	2318.941	2335.85	1446
960.1327	2320.3737	2320.7	1428.6
960.2647	2321.8056	2330.4	1435.75
960.3967	2323.2369	2318.75	1428.65
960.5287	2324.6674	2313.85	1424.15
960.6606	2326.0972	2305.95	1415.2
960.7925	2327.5263	2310.1	1420.45
960.9244	2328.9547	2305.25	1415.65
961.0562	2330.3823	2304.05	1413.1
961.1881	2331.8092	2305.95	1408.35
961.3198	2333.2355	2297.15	1402.9
961.4516	2334.661	2295.65	1399.7
961.5833	2336.0858	2290.05	1397.3
961.715	2337.5098	2281.05	1387.9
961.8467	2338.9332	2276.75	1387.1
961.9783	2340.3558	2279.15	1389.3
962.1099	2341.7778	2280.7	1393.55
962.2415	2343.199	2267.2	1377.2
962.373	2344.6195	2258.7	1371.55
962.5045	2346.0393	2269.15	1381.45
962.636	2347.4583	2273.3	1385.85
962.7675	2348.8767	2255.5	1365.6
962.8989	2350.2943	2245.75	1350.65
963.0303	2351.7113	2258.45	1363.45
963.1617	2353.1275	2258.05	1362.95
963.293	2354.543	2250	1349.45
963.4243	2355.9578	2238.3	1346.75
963.5556	2357.3718	2224.45	1337.4
963.6868	2358.7852	2226	1336.95
963.818	2360.1978	2210.2	1322.75
963.9492	2361.6098	2219.75	1332.35
964.0803	2363.021	2213.05	1321.05
964.2114	2364.4315	2213.55	1324.05
964.3425	2365.8413	2201.9	1312.9
964.4736	2367.2504	2199.6	1313.85
964.6046	2368.6587	2200.05	1313.9
964.7356	2370.0664	2199.6	1310.95
964.8666	2371.4733	2195.45	1308.3
964.9975	2372.8795	2187.4	1300.1
965.1284	2374.285	2175.3	1286.3
965.2593	2375.6899	2178.1	1290.3
965.3901	2377.0939	2167.9	1279.6
965.5209	2378.4973	2167.25	1279.9
965.6517	2379.9	2162.95	1274.95
965.7825	2381.3019	2158.3	1271.85
965.9132	2382.7032	2155.7	1268.2
966.0439	2384.1037	2149.8	1264.3
966.1745	2385.5035	2146.4	1264.5
966.3051	2386.9027	2132.7	1248.95
966.4357	2388.3011	2136.55	1247.85
966.5663	2389.6987	2131.35	1245.7
966.6968	2391.0957	2126.65	1241.75
966.8273	2392.492	2122.55	1237.55
966.9578	2393.8876	2126.85	1240.25
967.0882	2395.2824	2114.85	1227.75
967.2186	2396.6765	2112.3	1224.65
967.349	2398.07	2112.35	1224.7
967.4793	2399.4627	2102.7	1212.65
967.6097	2400.8547	2097.5	1209.5
967.7399	2402.246	2103.75	1211.25
967.8702	2403.6366	2082.6	1193.5
968.0004	2405.0265	2083.3	1196
968.1306	2406.4156	2086.15	1195.55
968.2607	2407.8041	2075.25	1185.7
968.3909	2409.1918	2069.65	1178.65
968.521	2410.5789	2074.85	1186.05
968.651	2411.9652	2066.25	1175.95
968.781	2413.3508	2059.5	1170.95
968.911	2414.7358	2060.95	1173.4
969.041	2416.12	2055.9	1169.25
969.1709	2417.5035	2059.2	1173
969.3008	2418.8863	2048.2	1159.5
969.4307	2420.2684	2045.25	1156.35
969.5606	2421.6497	2042.35	1152.4
969.6904	2423.0304	2039.4	1152
969.8201	2424.4104	2022.15	1134.3
969.9499	2425.7896	2033.9	1145.95
970.0796	2427.1682	2026.55	1140.25
970.2093	2428.546	2018.25	1130.65
970.3389	2429.9232	2023.3	1132.6
970.4685	2431.2996	2016.3	1127.7
970.5981	2432.6753	2016.25	1129.3
970.7277	2434.0503	2010.7	1121.65
970.8572	2435.4246	2001.4	1113.4
970.9867	2436.7982	2011.85	1121.3
971.1161	2438.1711	1992.55	1104.9
971.2456	2439.5433	2002.65	1112.4
971.375	2440.9148	1996.4	1103.05
971.5043	2442.2856	1991.65	1103.9
971.6336	2443.6557	1978.05	1087.2
971.7629	2445.025	1978.9	1090
971.8922	2446.3937	1986.45	1097.35
972.0214	2447.7617	1966.35	1076.65
972.1506	2449.1289	1968	1081.5
972.2798	2450.4955	1975.65	1084.4
972.4089	2451.8613	1957.25	1071.45
972.538	2453.2265	1958.9	1071.4
972.6671	2454.5909	1967.15	1079.55
972.7961	2455.9546	1958.4	1069.75
972.9251	2457.3177	1951.65	1067
973.0541	2458.68	1947.35	1057.1
973.1831	2460.0416	1953.8	1064.25
973.312	2461.4025	1951.1	1063.2
973.4408	2462.7627	1950.1	1051.45
973.5697	2464.1222	1929.45	1044.3
973.6985	2465.4811	1932.35	1046.25
973.8273	2466.8392	1932.2	1046.95
973.956	2468.1966	1934.35	1045.85
974.0847	2469.5533	1936.4	1046.45
974.2134	2470.9093	1929.15	1043.2
974.3421	2472.2645	1921.5	1032.2
974.4707	2473.6191	1930.3	1043.6
974.5993	2474.973	1917.05	1027.85
974.7278	2476.3262	1917.9	1027.85
974.8563	2477.6787	1912.15	1025.2
974.9848	2479.0305	1898.3	1011.65
975.1132	2480.3816	1899.95	1011.1
975.2417	2481.7319	1902.8	1014.25
975.37	2483.0816	1900.15	1011.2
975.4984	2484.4306	1898.3	1010.5
975.6267	2485.7789	1892.2	1006.6
975.755	2487.1264	1895.05	1006.55
975.8833	2488.4733	1886.75	1000.8
976.0115	2489.8195	1888.15	994
976.1397	2491.165	1889.1	998.55
976.2678	2492.5097	1876.75	986.85
976.3959	2493.8538	1867.35	982.9
976.524	2495.1972	1862.15	975.1
976.6521	2496.5398	1860.25	970.65
976.7801	2497.8818	1865.3	975
976.9081	2499.2231	1857.7	968.7
977.036	2500.5637	1854.3	964.8
977.164	2501.9035	1854.9	966
977.2918	2503.2427	1856.6	967
977.4197	2504.5812	1848.5	960.05
977.5475	2505.919	1845.3	956.55
977.6753	2507.256	1844.7	956.75
977.8031	2508.5924	1838.95	951.9
977.9308	2509.9281	1846	953.6
978.0585	2511.2631	1837.65	951.05
978.1861	2512.5974	1832.5	944.85
978.3137	2513.9309	1831	943.55
978.4413	2515.2638	1856.7	944.45
978.5689	2516.596	1817.3	931.9
978.6964	2517.9275	1821.45	934.3
978.8239	2519.2583	1820.1	930.45
978.9513	2520.5884	1817.85	928.75
979.0788	2521.9178	1811	924.95
979.2062	2523.2465	1801.55	914.7
979.3335	2524.5745	1804.15	917.7
979.4608	2525.9018	1807.8	918.6
979.5881	2527.2284	1799.3	911.55
979.7154	2528.5543	1801.15	916.55
979.8426	2529.8796	1790.25	901.65
979.9698	2531.2041	1799.15	913.2
980.0969	2532.5279	1788.8	900.15
980.224	2533.851	1783.3	895.15
980.3511	2535.1735	1788.3	900.55
980.4781	2536.4952	1787	896.4
980.6052	2537.8163	1793.95	903.5
980.7321	2539.1366	1777.6	891.05
980.8591	2540.4562	1789.3	897.1
980.986	2541.7752	1785.75	898.55
981.1129	2543.0935	1782.15	891.15
981.2397	2544.411	1783.9	893.75
981.3665	2545.7279	1772.8	884.15
981.4933	2547.0441	1776.05	889
981.62	2548.3596	1783.15	892.6
981.7467	2549.6744	1769.35	878.7
981.8734	2550.9885	1763.5	872.45
982.0001	2552.3019	1764.1	875.9
982.1267	2553.6146	1764.85	876.95
982.2532	2554.9266	1754.25	867.4
982.3798	2556.2379	1758.5	869.25
982.5063	2557.5485	1753.45	867.6
982.6327	2558.8585	1757.35	860.45
982.7592	2560.1677	1757.3	866.55
982.8856	2561.4762	1757.7	869.8
983.0119	2562.7841	1747.3	855.4
983.1383	2564.0913	1747.9	860.9
983.2646	2565.3977	1739.15	851.1
983.3908	2566.7035	1740.2	851.95
983.517	2568.0086	1743.05	853.15
983.6432	2569.313	1746.85	857
983.7694	2570.6167	1745	852.6
983.8955	2571.9197	1736.75	848.3
984.0216	2573.222	1739.9	848.75
984.1476	2574.5236	1738.45	850.05
984.2737	2575.8246	1734.65	843.9
984.3996	2577.1248	1729.2	837.4
984.5256	2578.4244	1732	845.3
984.6515	2579.7232	1734.65	845
984.7774	2581.0214	1749.25	836.5
984.9032	2582.3189	1733.4	844.25
985.029	2583.6157	1735.85	843.75
985.1548	2584.9118	1730.8	842.3
985.2806	2586.2072	1728	842.2
985.4063	2587.5019	1727.45	841.65
985.5319	2588.7959	1725.35	838
985.6576	2590.0893	1725	833.35
985.7832	2591.3819	1723.55	835.9
985.9087	2592.6739	1728.45	839.8
986.0343	2593.9652	1727.4	837.05
986.1597	2595.2557	1728.7	839.65
986.2852	2596.5456	1726.65	834.65
986.4106	2597.8348	1710.25	823.8
986.536	2599.1234	1716	828.3
986.6614	2600.4112	1724.9	836.5
986.7867	2601.6983	1714.95	823.7
986.912	2602.9848	1719.75	829.85
987.0372	2604.2705	1721.2	826.2
987.1624	2605.5556	1714.2	827.3
987.2876	2606.84	1711.15	826.5
987.4128	2608.1237	1704.65	815.95
987.5379	2609.4067	1701.55	814.65
987.6629	2610.689	1704.95	808.85
987.788	2611.9707	1699.5	808.7
987.913	2613.2516	1692	801.2
988.0379	2614.5319	1682.8	797.2
988.1629	2615.8115	1691	803
988.2878	2617.0903	1684.9	798.15
988.4126	2618.3685	1685.4	797.95
988.5375	2619.6461	1676.2	788.5
988.6622	2620.9229	1677.45	791.25
988.787	2622.199	1670.95	783.6
988.9117	2623.4745	1682.15	796.15
989.0364	2624.7493	1666.85	780.7
989.161	2626.0234	1670.45	786.25
989.2857	2627.2968	1664.45	777.4
989.4102	2628.5695	1664.75	776.25
989.5348	2629.8415	1668.95	782.25
989.6593	2631.1128	1669.15	780.35
989.7837	2632.3835	1659.7	772.5
989.9082	2633.6535	1668.2	781.95
990.0326	2634.9228	1665.8	780.6
990.1569	2636.1914	1646.3	759.05
990.2812	2637.4593	1658.75	772.45
990.4055	2638.7265	1653.05	765.4
990.5298	2639.9931	1641.4	755.35
990.654	2641.259	1645.85	757.35
990.7782	2642.5242	1645.95	760.95
990.9023	2643.7887	1640.95	751.55
991.0264	2645.0525	1644.7	758.55
991.1505	2646.3156	1635.15	747.15
991.2745	2647.5781	1620.05	733.15
991.3985	2648.8398	1628	743.4
991.5225	2650.1009	1667.6	742.9
991.6464	2651.3613	1628	742.35
991.7703	2652.6211	1624.1	737.85
991.8942	2653.8801	1618.2	732.5
992.018	2655.1385	1621.55	733.3
992.1418	2656.3961	1625.85	740.2
992.2655	2657.6531	1626.75	740.7
992.3892	2658.9094	1616.35	729.5
992.5129	2660.1651	1625.95	741.65
992.6366	2661.42	1623.2	736.4
992.7602	2662.6743	1621.05	735.05
992.8837	2663.9279	1620.35	736.25
993.0073	2665.1808	1627.45	739.95
993.1307	2666.433	1620.85	734.15
993.2542	2667.6846	1627.55	742.9
993.3776	2668.9354	1630.05	739.95
993.501	2670.1856	1625.75	739.2
993.6244	2671.4351	1628.15	741.8
993.7477	2672.6839	1632.05	742.4
993.8709	2673.9321	1630.85	746.05
993.9942	2675.1795	1633.3	745.8
994.1174	2676.4263	1624.35	738.25
994.2405	2677.6724	1630.65	746.85
994.3637	2678.9179	1631.95	745.45
994.4868	2680.1626	1625.55	740.5
994.6098	2681.4067	1635.1	749.6
994.7328	2682.6501	1628.7	743.5
994.8558	2683.8928	1619.6	731.4
994.9788	2685.1348	1623.3	738.2
995.1017	2686.3761	1617.15	730.75
995.2245	2687.6168	1609.05	723.75
995.3474	2688.8568	1607.15	721.15
995.4702	2690.0961	1605.2	720.9
995.5929	2691.3348	1596.75	710.7
995.7156	2692.5727	1595.05	710.05
995.8383	2693.81	1595.6	710.9
995.961	2695.0466	1592.45	707.55
996.0836	2696.2826	1596.15	710.15
996.2062	2697.5178	1609.1	707.1
996.3287	2698.7524	1595.3	710.25
996.4512	2699.9863	1611.65	725.8
996.5737	2701.2195	1592.95	710.45
996.6961	2702.452	1602.05	715.1
996.8185	2703.6839	1606.05	721.2
996.9408	2704.9151	1609.3	722.8
997.0631	2706.1456	1614.75	728.35
997.1854	2707.3755	1607.05	720.2
997.3077	2708.6046	1620.05	733.15
997.4299	2709.8331	1621.8	736
997.552	2711.0609	1625.5	740.3
997.6742	2712.2881	1635.2	750.5
997.7963	2713.5145	1656.6	768.15
997.9183	2714.7403	1653.4	768.35
998.0403	2715.9654	1662.3	778.85
998.1623	2717.1899	1687.35	785.35
998.2842	2718.4136	1689.15	807.15
998.4062	2719.6367	1687.6	799.6
998.528	2720.8591	1711.65	821.15
998.6498	2722.0809	1708.75	823.2
998.7716	2723.3019	1718.65	831.9
998.8934	2724.5223	1729.3	844.95
999.0151	2725.7421	1734.2	849.3
999.1368	2726.9611	1738.75	851.55
999.2584	2728.1795	1734.3	846.65
999.38	2729.3972	1728.85	844.6
999.5016	2730.6142	1725.7	825.8
999.6231	2731.8306	1702.6	815.8
999.7446	2733.0462	1686.35	800.75
999.8661	2734.2612	1663.95	776.35
999.9875	2735.4756	1651.55	766.35
1000.1089	2736.6892	1636.6	753.1
1000.2302	2737.9022	1617.45	732.5
1000.3515	2739.1145	1605.7	721
1000.4728	2740.3262	1600.7	706.9
1000.594	2741.5372	1584.25	698.85
1000.7152	2742.7475	1570.2	685.8
1000.8363	2743.9571	1563.5	677.4
1000.9575	2745.1661	1562.55	674
1001.0785	2746.3744	1554.9	668.95
1001.1996	2747.582	1535.3	650.75
1001.3206	2748.7889	1530.1	645.35
1001.4415	2749.9952	1521.15	639.3
1001.5625	2751.2008	1509.35	624.2
1001.6833	2752.4057	1519.4	635.3
1001.8042	2753.61	1507.55	623.15
1001.925	2754.8136	1508.45	624.6
1002.0458	2756.0165	1503.1	619.45
1002.1665	2757.2188	1500.55	617.4
1002.2872	2758.4204	1504.9	622.2
1002.4078	2759.6213	1497.2	612.55
1002.5285	2760.8215	1500.15	610.65
1002.649	2762.0211	1500.9	616.75
1002.7696	2763.22	1497.5	612.2
1002.8901	2764.4182	1493.55	608.05
1003.0106	2765.6158	1487.55	602.25
1003.131	2766.8127	1484	601.3
1003.2514	2768.009	1483.8	602.6
1003.3717	2769.2045	1474.8	589
1003.492	2770.3994	1478.95	594.05
1003.6123	2771.5936	1478.95	597.55
1003.7325	2772.7872	1477.65	596.4
1003.8527	2773.9801	1468.25	585.95
1003.9729	2775.1723	1483.85	585.5
1004.093	2776.3639	1462	580.85
1004.2131	2777.5548	1462.55	577.1
1004.3331	2778.745	1467.8	582.65
1004.4531	2779.9346	1462.35	579.2
1004.5731	2781.1235	1460.5	577.75
1004.693	2782.3117	1463.95	580.9
1004.8129	2783.4992	1465.9	583.95
1004.9328	2784.6861	1468.4	585.25
1005.0526	2785.8723	1475.1	593.15
1005.1723	2787.0579	1478	595.05
1005.2921	2788.2428	1480.4	595.8
1005.4118	2789.427	1483.95	603
1005.5314	2790.6106	1490.4	607.8
1005.651	2791.7935	1500.35	615.7
1005.7706	2792.9757	1506.8	626.1
1005.8902	2794.1573	1513	627.1
1006.0097	2795.3382	1529.6	648.05
1006.1291	2796.5184	1537.2	656.25
1006.2485	2797.698	1551.8	668.8
1006.3679	2798.8769	1568.9	687.05
1006.4873	2800.0551	1575.4	691.2
1006.6066	2801.2327	1585.4	700.2
1006.7258	2802.4096	1597.1	714.15
1006.8451	2803.5859	1615.95	734.05
1006.9642	2804.7615	1628	746.35
1007.0834	2805.9364	1647.95	767.8
1007.2025	2807.1106	1671.85	792.15
1007.3216	2808.2842	1699.55	817.2
1007.4406	2809.4572	1726.45	846.1
1007.5596	2810.6294	1760.85	877.35
1007.6785	2811.801	1797.95	918.3
1007.7975	2812.972	1829.45	948.05
1007.9163	2814.1423	1870.4	988.45
1008.0352	2815.3119	1913.1	1030.75
1008.154	2816.4808	1949.9	1068.35
1008.2727	2817.6491	2004.85	1121.35
1008.3914	2818.8167	2052.75	1171.2
1008.5101	2819.9837	2111.1	1223.65
1008.6288	2821.15	2156.35	1274.9
1008.7474	2822.3157	2228.2	1346.65
1008.8659	2823.4807	2279.05	1396.85
1008.9844	2824.645	2333.7	1451.95
1009.1029	2825.8086	2385.35	1503.85
1009.2214	2826.9716	2429.25	1547.8
1009.3398	2828.134	2474.5	1594.35
1009.4581	2829.2957	2528.65	1644.6
1009.5764	2830.4567	2562.3	1683.2
1009.6947	2831.617	2576.95	1693
1009.813	2832.7767	2596.45	1715.7
1009.9312	2833.9358	2597.1	1715.15
1010.0493	2835.0941	2592.65	1707.6
1010.1675	2836.2519	2579.05	1696.75
1010.2855	2837.4089	2566.05	1685.2
1010.4036	2838.5653	2553.55	1672.05
1010.5216	2839.7211	2541.05	1661.7
1010.6396	2840.8761	2530.4	1647.8
1010.7575	2842.0306	2546.65	1666.75
1010.8754	2843.1843	2572.05	1690.15
1010.9932	2844.3374	2609.15	1728.65
1011.111	2845.4899	2661.55	1781.25
1011.2288	2846.6417	2711.3	1827.9
1011.3465	2847.7928	2778	1899.15
1011.4642	2848.9433	2841.7	1960.35
1011.5818	2850.0931	2919.3	2037.55
1011.6995	2851.2422	2993.95	2111.9
1011.817	2852.3907	3054.45	2171.1
1011.9345	2853.5385	3092.3	2210.2
1012.052	2854.6857	3155.75	2263.6
1012.1695	2855.8323	3186.85	2304.5
1012.2869	2856.9781	3248.25	2366.6
1012.4042	2858.1233	3306.75	2426.25
1012.5216	2859.2679	3329.7	2450.6
1012.6389	2860.4118	3400.5	2520.4
1012.7561	2861.555	3446.95	2562.85
1012.8733	2862.6976	3488.25	2606.05
1012.9905	2863.8395	3521.4	2639.45
1013.1076	2864.9808	3547.2	2667.5
1013.2247	2866.1214	3576.4	2697.9
1013.3417	2867.2614	3571.1	2689.1
1013.4587	2868.4007	3602.1	2719.85
1013.5757	2869.5393	3599.3	2718
1013.6926	2870.6773	3627.35	2741.2
1013.8095	2871.8146	3624.85	2738.05
1013.9263	2872.9513	3638.4	2753.15
1014.0431	2874.0874	3630.1	2750.3
1014.1599	2875.2227	3621	2737.35
1014.2766	2876.3574	3609.15	2728.1
1014.3933	2877.4915	3574.8	2696.8
1014.51	2878.6249	3539.65	2661.7
1014.6266	2879.7577	3535.65	2655.1
1014.7431	2880.8898	3502.15	2611.55
1014.8596	2882.0212	3494.35	2615.1
1014.9761	2883.152	3476.9	2594.85
1015.0925	2884.2821	3463.95	2582.7
1015.2089	2885.4116	3466.45	2588
1015.3253	2886.5405	3458.05	2577.8
1015.4416	2887.6686	3473.4	2591.9
1015.5579	2888.7962	3472.45	2593.15
1015.6741	2889.923	3475.6	2596.35
1015.7903	2891.0493	3489.4	2612.05
1015.9065	2892.1748	3492.7	2611.7
1016.0226	2893.2997	3514.75	2635.75
1016.1387	2894.424	3541.3	2662.5
1016.2547	2895.5476	3540.25	2660.95
1016.3707	2896.6706	3568.2	2687.95
1016.4866	2897.7929	3580.45	2699.9
1016.6025	2898.9145	3595.05	2713.55
1016.7184	2900.0355	3630.7	2751.1
1016.8342	2901.1559	3671.1	2791.15
1016.95	2902.2756	3706.4	2820.4
1017.0658	2903.3946	3724.25	2844.05
1017.1815	2904.513	3752.95	2869.6
1017.2971	2905.6308	3774.85	2893.95
1017.4127	2906.7479	3800.35	2920.85
1017.5283	2907.8643	3832.15	2953.6
1017.6439	2908.9801	3849.15	2968.3
1017.7594	2910.0953	3844.15	2964.95
1017.8748	2911.2098	3854.15	2970.65
1017.9902	2912.3236	3852.2	2962.55
1018.1056	2913.4368	3811.75	2929.55
1018.2209	2914.5494	3812.45	2931.6
1018.3362	2915.6613	3783.15	2897.55
1018.4515	2916.7725	3737.3	2853.65
1018.5667	2917.8831	3728.5	2847.85
1018.6819	2918.9931	3702.6	2819.75
1018.797	2920.1024	3652.85	2774.85
1018.9121	2921.211	3649.2	2768.4
1019.0271	2922.319	3635.8	2757.25
1019.1421	2923.4264	3615.25	2736.4
1019.2571	2924.5331	3597.4	2719
1019.372	2925.6391	3591.55	2711.8
1019.4869	2926.7445	3595.25	2716.95
1019.6017	2927.8493	3594.15	2713.8
1019.7165	2928.9534	3590.15	2711.55
1019.8313	2930.0569	3588.85	2703.25
1019.946	2931.1597	3591.3	2713.55
1020.0606	2932.2619	3595.35	2717.7
1020.1753	2933.3634	3599.3	2720.45
1020.2899	2934.4643	3587.9	2700.6
1020.4044	2935.5645	3573	2684.35
1020.5189	2936.6641	3556.7	2673.3
1020.6334	2937.763	3529.75	2649.9
1020.7478	2938.8613	3475.65	2594.6
1020.8622	2939.959	3437.6	2553.2
1020.9765	2941.056	3362.85	2485.45
1021.0908	2942.1523	3277.85	2397.65
1021.2051	2943.248	3202.35	2322.35
1021.3193	2944.3431	3114.35	2236.25
1021.4334	2945.4375	3021.9	2143.9
1021.5476	2946.5313	2915.55	2037.9
1021.6617	2947.6244	2815.4	1937.55
1021.7757	2948.7169	2712.9	1831.45
1021.8897	2949.8087	2628.35	1750.4
1022.0037	2950.8999	2539.45	1660.9
1022.1176	2951.9904	2459.35	1580.55
1022.2315	2953.0803	2387.6	1507.8
1022.3453	2954.1696	2331.4	1453.6
1022.4591	2955.2582	2275.15	1397.4
1022.5728	2956.3462	2232	1353.55
1022.6865	2957.4335	2190.3	1311.35
1022.8002	2958.5202	2161.8	1281
1022.9138	2959.6062	2130.5	1252.45
1023.0274	2960.6916	2104.3	1226.15
1023.141	2961.7764	2083.15	1201.7
1023.2545	2962.8605	2069.7	1189.85
1023.3679	2963.9439	2062.55	1185.6
1023.4813	2965.0267	2047.4	1166.9
1023.5947	2966.1089	2052.5	1151.5
1023.708	2967.1905	2036.75	1158.5
1023.8213	2968.2714	2014.5	1133.85
1023.9346	2969.3516	2021.45	1143.25
1024.0478	2970.4312	2022.85	1138.1
1024.1609	2971.5102	2027.4	1147.75
1024.274	2972.5885	2032.8	1153.25
1024.3871	2973.6662	2030.8	1147.15
1024.5002	2974.7432	2025.4	1149.4
1024.6132	2975.8196	2027.45	1147.35
1024.7261	2976.8954	2015.8	1134.65
1024.839	2977.9705	2004.65	1126
1024.9519	2979.045	2003.6	1124.7
1025.0647	2980.1188	1979.4	1103.25
1025.1775	2981.192	1962.9	1085.1
1025.2902	2982.2645	1949.95	1072.85
1025.4029	2983.3364	1922.9	1044.85
1025.5156	2984.4077	1899.1	1021.1
1025.6282	2985.4783	1872	988.3
1025.7407	2986.5483	1839.55	963.3
1025.8532	2987.6177	1805.6	927.9
1025.9657	2988.6864	1778.85	900.3
1026.0782	2989.7545	1743.75	864.95
1026.1906	2990.8219	1708.3	830.8
1026.3029	2991.8887	1677.1	798.2
1026.4152	2992.9548	1645.05	766.55
1026.5275	2994.0204	1610.75	734.2
1026.6397	2995.0852	1575.35	698.8
1026.7519	2996.1495	1553.5	675.35
1026.864	2997.2131	1526.95	647.7
1026.9761	2998.276	1510.1	634.25
1027.0882	2999.3383	1486.75	610.6
1027.2002	3000.4	1467.15	587.25
1027.3122	3001.4611	1450.25	571.6
1027.4241	3002.5215	1431.3	552.95
1027.536	3003.5812	1411.6	532.7
1027.6478	3004.6404	1407.5	528.65
1027.7596	3005.6989	1395.25	514.7
1027.8714	3006.7567	1381.15	502.75
1027.9831	3007.8139	1393.45	489.1
1028.0947	3008.8705	1358.45	481.4
1028.2064	3009.9264	1355	473.1
1028.3179	3010.9818	1349.1	471.05
1028.4295	3012.0364	1337.3	460.35
1028.541	3013.0905	1333.9	457.05
1028.6524	3014.1439	1326.05	449.5
1028.7638	3015.1966	1327.5	451.3
1028.8752	3016.2487	1320.3	442
1028.9865	3017.3002	1327.8	443.65
1029.0978	3018.3511	1314.8	437.9
1029.209	3019.4013	1320	441.05
1029.3202	3020.4509	1313.85	436.8
1029.4314	3021.4998	1306.65	427.45
1029.5425	3022.5481	1310.65	430.9
1029.6535	3023.5958	1302.45	426
1029.7645	3024.6428	1310.7	430.85
1029.8755	3025.6892	1302.4	425.9
1029.9864	3026.735	1307.2	430.2
1030.0973	3027.7802	1307.5	429.45
1030.2082	3028.8247	1312.5	434.85
1030.319	3029.8685	1306.8	428.6
1030.4297	3030.9118	1308.8	430.35
1030.5404	3031.9544	1310.7	433.7
1030.6511	3032.9963	1319.65	440.1
1030.7617	3034.0376	1316.8	440.05
1030.8723	3035.0783	1322.05	441.65
1030.9829	3036.1184	1330.15	450.35
1031.0934	3037.1578	1326.1	448.85
1031.2038	3038.1966	1328.3	448.9
1031.3142	3039.2348	1329.35	451.5
1031.4246	3040.2723	1338.75	452.05
1031.5349	3041.3092	1325.05	448.55
1031.6452	3042.3455	1321.5	443.25
1031.7554	3043.3811	1323.35	446.15
1031.8656	3044.4161	1326.5	447.9
1031.9758	3045.4505	1318	443.1
1032.0859	3046.4842	1315.6	439.5
1032.1959	3047.5173	1311.75	436.45
1032.3059	3048.5498	1310.55	430.9
1032.4159	3049.5816	1306.4	431.75
1032.5258	3050.6128	1298.95	421.1
1032.6357	3051.6434	1296.05	417.3
1032.7455	3052.6734	1295.65	417.2
1032.8553	3053.7027	1289.85	414.05
1032.9651	3054.7314	1285.1	407.4
1033.0748	3055.7594	1279.55	402.5
1033.1845	3056.7868	1284.05	405.2
1033.2941	3057.8136	1274.2	399
1033.4037	3058.8398	1261.3	385.2
1033.5132	3059.8653	1267.25	392.8
1033.6227	3060.8902	1257.6	381.7
1033.7321	3061.9145	1263.45	387.2
1033.8415	3062.9381	1261.25	386
1033.9509	3063.9612	1272.85	378.95
1034.0602	3064.9835	1255.1	379.6
1034.1694	3066.0053	1244.05	366.65
1034.2787	3067.0264	1237.95	362.45
1034.3878	3068.0469	1241.55	364.2
1034.497	3069.0668	1231.1	350.85
1034.6061	3070.086	1221.35	347.5
1034.7151	3071.1046	1221.25	344.95
1034.8241	3072.1226	1210.3	330.6
1034.9331	3073.1399	1207.8	333.25
1035.042	3074.1567	1199.7	321.6
1035.1508	3075.1727	1196.9	316.15
1035.2597	3076.1882	1186.85	310.6
1035.3684	3077.203	1179.6	302.45
1035.4772	3078.2173	1174.3	297.9
1035.5859	3079.2308	1167.35	285.95
1035.6945	3080.2438	1156.8	277
1035.8031	3081.2561	1155.05	277.05
1035.9117	3082.2678	1142.85	266.75
1036.0202	3083.2789	1143.7	266.2
1036.1286	3084.2893	1131.85	254.7
1036.2371	3085.2991	1127.4	249.15
1036.3454	3086.3083	1127.5	246.85
1036.4538	3087.3169	1120.9	242
1036.562	3088.3248	1110.35	233
1036.6703	3089.3321	1110.7	231.7
1036.7785	3090.3388	1101.45	226.05
1036.8866	3091.3449	1101.25	223.05
1036.9948	3092.3503	1098.35	219.45
1037.1028	3093.3551	1094.3	218.5
1037.2108	3094.3593	1091.9	217.7
1037.3188	3095.3629	1086.65	209.65
1037.4267	3096.3658	1079.75	202.8
1037.5346	3097.3681	1078	201.05
1037.6425	3098.3698	1079.6	203.95
1037.7503	3099.3708	1079.6	195.4
1037.858	3100.3713	1074	199.5
1037.9657	3101.3711	1072.35	195.9
1038.0734	3102.3702	1201.85	191.3
1038.181	3103.3688	1064.5	186.35
1038.2886	3104.3667	1066.5	190
1038.3961	3105.364	1059.6	184.85
1038.5036	3106.3607	1062.3	184.5
1038.611	3107.3568	1061.7	184.8
1038.7184	3108.3522	1056.9	181.65
1038.8257	3109.347	1060.5	183.85
1038.933	3110.3412	1053.85	173.5
1039.0403	3111.3348	1044.8	169.45
1039.1475	3112.3277	1049.2	172.95
1039.2547	3113.32	1047.7	172
1039.3618	3114.3117	1044.4	167
1039.4689	3115.3028	1040.45	164.2
1039.5759	3116.2932	1043	164.95
1039.6829	3117.2831	1043.05	163.65
1039.7898	3118.2723	1038.4	162
1039.8967	3119.2608	1031.3	156
1040.0035	3120.2488	1030.9	152.55
1040.1103	3121.2361	1033.85	155.55
1040.2171	3122.2229	1029.75	155.3
1040.3238	3123.209	1027.95	151.55
1040.4305	3124.1944	1027.95	151.45
1040.5371	3125.1793	1031.9	152.3
1040.6437	3126.1635	1027.05	153.4
1040.7502	3127.1471	1025.1	149.05
1040.8567	3128.1301	1022	145.85
1040.9631	3129.1125	1023.55	148.5
1041.0695	3130.0942	1020.85	145.15
1041.1759	3131.0753	1027.35	144.15
1041.2822	3132.0558	1019.65	141.85
1041.3884	3133.0357	1018.7	142.05
1041.4946	3134.015	1013.75	136.05
1041.6008	3134.9936	1014	136.5
1041.7069	3135.9716	1040.2	143.6
1041.813	3136.949	1015.1	141.4
1041.919	3137.9258	1028.4	132.95
1042.025	3138.902	1018.55	136.35
1042.1309	3139.8775	1007.4	130.4
1042.2368	3140.8524	1008.7	133.15
1042.3427	3141.8267	1009.55	129.7
1042.4485	3142.8004	1005.85	127.95
1042.5542	3143.7735	1013	132.7
1042.6599	3144.7459	1005.75	129.95
1042.7656	3145.7178	1003.5	126.1
1042.8712	3146.689	1002.3	129.75
1042.9768	3147.6596	999.65	123.3
1043.0823	3148.6295	1000	125.1
1043.1878	3149.5989	1000.45	124.65
1043.2932	3150.5676	997.45	121.65
1043.3986	3151.5357	996.4	122.75
1043.5039	3152.5032	997.15	120.65
1043.6092	3153.4701	997.55	124.15
1043.7145	3154.4364	998.05	120.5
1043.8197	3155.402	996.6	122.35
1043.9248	3156.367	995.05	116.8
1044.03	3157.3315	1023	110.05
1044.135	3158.2952	990.7	113.4
1044.24	3159.2584	989.35	114.05
1044.345	3160.221	989.6	110.95
1044.4499	3161.1829	988.05	111.2
1044.5548	3162.1442	985.85	109.4
1044.6596	3163.105	983.9	109.75
1044.7644	3164.065	985.45	108.25
1044.8692	3165.0245	989.75	111.95
1044.9739	3165.9834	984.7	110.5
1045.0785	3166.9416	987.65	112.05
1045.1831	3167.8993	984	108.75
1045.2877	3168.8563	983.9	110
1045.3922	3169.8127	982.05	108.8
1045.4966	3170.7684	983.1	107.05
1045.6011	3171.7236	979.35	102.7
1045.7054	3172.6782	983.8	109.5
1045.8098	3173.6321	979.85	103.6
1045.914	3174.5854	986.35	103.7
1046.0183	3175.5381	978.65	103.8
1046.1224	3176.4902	975	100.55
1046.2266	3177.4417	974.95	101.85
1046.3307	3178.3926	974.5	99
1046.4347	3179.3428	975.1	101.7
1046.5387	3180.2924	973.45	98.7
1046.6427	3181.2415	974.35	101.55
1046.7466	3182.1899	975.2	98.7
1046.8504	3183.1377	968.25	93.6
1046.9542	3184.0848	975.55	97.5
1047.058	3185.0314	970.6	95.4
1047.1617	3185.9773	970.6	95.35
1047.2654	3186.9227	968.85	92.55
1047.369	3187.8674	969.4	93.45
1047.4726	3188.8115	973.7	91.85
1047.5761	3189.755	967.65	92.95
1047.6796	3190.6979	967.55	92.55
1047.783	3191.6402	969.45	96.8
1047.8864	3192.5818	966.15	90.55
1047.9898	3193.5229	971.7	90.45
1048.0931	3194.4633	968.3	93.25
1048.1963	3195.4031	961.7	86.55
1048.2995	3196.3423	963.25	89.3
1048.4027	3197.2809	961.3	86.55
1048.5058	3198.2189	964.8	89.5
1048.6089	3199.1563	971.65	89
1048.7119	3200.0931	962.05	85.9
1048.8148	3201.0292	958.05	83.35
1048.9178	3201.9648	959	82.6
1049.0206	3202.8997	962.9	83.3
1049.1235	3203.834	956.15	80.05
1049.2262	3204.7677	958.85	83.85
1049.329	3205.7008	963.55	86.65
1049.4317	3206.6333	952.85	80.05
1049.5343	3207.5652	959.95	80.85
1049.6369	3208.4964	955.45	80.5
1049.7394	3209.4271	955.35	81.5
1049.8419	3210.3571	954	78.4
1049.9444	3211.2865	952.45	77.55
1050.0468	3212.2154	958.65	83.75
1050.1491	3213.1436	960.25	81.35
1050.2514	3214.0712	959.75	80.45
1050.3537	3214.9982	955	80.4
1050.4559	3215.9246	954.25	79.65
1050.5581	3216.8503	950.95	75.4
1050.6602	3217.7755	952.6	78.35
1050.7623	3218.7001	950.3	75.85
1050.8643	3219.624	950.7	76.4
1050.9663	3220.5473	953.8	79.65
1051.0682	3221.4701	953.2	76.75
1051.1701	3222.3922	956.75	79.75
1051.2719	3223.3137	949.2	74.9
1051.3737	3224.2346	949.8	75.5
1051.4754	3225.1549	948.7	74.2
1051.5771	3226.0746	947	73.4
1051.6788	3226.9937	949.05	74.7
1051.7804	3227.9121	946.3	72.7
1051.8819	3228.83	947.75	70.8
1051.9834	3229.7473	950.8	74.65
1052.0849	3230.6639	944.55	70
1052.1863	3231.5799	947.85	72.5
1052.2876	3232.4954	947.3	72.1
1052.3889	3233.4102	943.95	69.2
1052.4902	3234.3244	946.8	72.55
1052.5914	3235.238	944.35	68.45
1052.6926	3236.151	962.75	65.45
1052.7937	3237.0634	945.95	72.65
1052.8948	3237.9752	944.05	69.2
1052.9958	3238.8864	947.05	72.75
1053.0968	3239.797	942.65	68.8
1053.1977	3240.7069	942.25	68.1
1053.2986	3241.6163	943.2	69.25
1053.3994	3242.5251	940.1	67.15
1053.5002	3243.4332	939.35	66.55
1053.6009	3244.3408	943	67.05
1053.7016	3245.2477	937.9	64.9
1053.8022	3246.154	940.5	64.15
1053.9028	3247.0598	938.45	63.5
1054.0034	3247.9649	935.05	63.15
1054.1039	3248.8694	934.85	59.5
1054.2043	3249.7733	934.25	60.1
1054.3047	3250.6766	939.7	65.1
1054.4051	3251.5793	937.15	63.2
1054.5054	3252.4814	936.55	61.1
1054.6056	3253.3829	934.25	62.15
1054.7058	3254.2838	934.15	60.65
1054.806	3255.1841	930.65	58.35
1054.9061	3256.0838	931.95	57.9
1055.0061	3256.9829	934.35	61.45
1055.1062	3257.8814	934.3	57.05
1055.2061	3258.7792	936.15	60.65
1055.306	3259.6765	934.45	59.3
1055.4059	3260.5731	929.75	55.3
1055.5057	3261.4692	930.9	56.1
1055.6055	3262.3647	929.45	55.2
1055.7052	3263.2595	927.25	53.95
1055.8049	3264.1538	926.2	53.8
1055.9045	3265.0474	926.65	51.95
1056.0041	3265.9404	925.55	50.7
1056.1036	3266.8329	924	51.15
1056.2031	3267.7247	933.9	49.1
1056.3025	3268.616	921.35	49.15
1056.4019	3269.5066	921.3	45.45
1056.5013	3270.3966	922.9	46.9
1056.6005	3271.286	915.2	41.35
