Software Version:	3.9.2.0
Unit SN:	10000200
Spectrometer SN:	6960
Date:	3/8/2024 12:29:00 PM
Data Line Index:	25
Spectral Points:	2048
Integration time (ms):	125
Averages:	20
Delay (ms):	30000
Sequence Number:	1
Processing:	dark subtract
Laser Power (mW):	305
Laser Current (mA):	821
Laser Diode Temp (C):	25
Laser Case Temp (C):	26
System Temp (C):	26
Spectrometer Temp (C):	23.8
CCD Temp (C):	0.004
Secondary Temp (C):	20.013
Heatsink Temp (C):	20.707
CCDPCB Temp (C):	36.262
SecondaryPCB Temp (C):	30.527

Wavelength	RamanShift	Raw Counts	Dark Subtracted
787.061	30.1047	443.85	34.75
787.2016	32.3739	445.75	37.45
787.3422	34.6426	447.4	39.6
787.4828	36.9109	454.3	41.95
787.6235	39.1787	464.2	51.65
787.7642	41.4461	471.4	51.1
787.9049	43.7131	474.2	52.15
788.0456	45.9796	484.9	59.05
788.1863	48.2456	490.7	63.05
788.3271	50.5112	503.2	72.25
788.4679	52.7764	506.75	71.7
788.6087	55.0411	518.05	76.9
788.7496	57.3054	530.65	83.45
788.8904	59.5692	532.7	85.4
789.0313	61.8326	545.7	96.35
789.1722	64.0955	554.85	101.05
789.3132	66.3579	570.3	113.25
789.4541	68.6199	586.3	124.45
789.5951	70.8815	614.65	147.3
789.7361	73.1426	692.9	222.85
789.8771	75.4032	870.6	395.65
790.0181	77.6634	1315.75	834.55
790.1592	79.9231	2353.2	1865.7
790.3003	82.1824	4573.1	4069.4
790.4414	84.4412	8491.2	7959.25
790.5825	86.6995	13830.45	13261.8
790.7237	88.9574	18881.45	18281.8
790.8648	91.2148	22294.4	21671.35
791.006	93.4717	23725.15	23090.9
791.1472	95.7282	23846.15	23206.35
791.2885	97.9842	23497.5	22854.75
791.4297	100.2398	22779	22133
791.571	102.4949	21942.05	21290.5
791.7123	104.7495	21073.2	20420.7
791.8536	107.0036	20237.45	19581.45
791.9949	109.2573	19482.05	18830.15
792.1363	111.5105	18806.2	18148.95
792.2777	113.7632	18206.35	17545.65
792.4191	116.0154	17699.2	17031.7
792.5605	118.2672	17361.2	16697.6
792.7019	120.5185	17013	16347.55
792.8434	122.7693	16752.65	16082.8
792.9849	125.0197	16505.55	15833.3
793.1264	127.2696	16263.7	15588
793.2679	129.519	16064	15383.9
793.4094	131.7679	15808.55	15126
793.551	134.0163	15543.7	14858.2
793.6926	136.2642	15216.35	14526.1
793.8342	138.5117	14872.45	14172.55
793.9758	140.7587	14503.9	13811.15
794.1175	143.0052	14202.25	13506.8
794.2591	145.2512	13858.35	13162.45
794.4008	147.4967	13584.35	12885.9
794.5425	149.7417	13345.15	12646.2
794.6842	151.9863	13172.1	12474.25
794.826	154.2304	13053.35	12344.15
794.9677	156.4739	12897.2	12185.8
795.1095	158.717	12811.35	12097.2
795.2513	160.9596	12630.8	11913.25
795.3931	163.2017	12398.5	11674.35
795.535	165.4433	12154	11433.9
795.6768	167.6844	11867.75	11145.55
795.8187	169.925	11604.75	10883.8
795.9606	172.1651	11308.95	10579.9
796.1025	174.4047	11071.45	10342.65
796.2445	176.6439	10860.8	10129.85
796.3864	178.8825	10686.6	9951.3
796.5284	181.1206	10568.45	9829.75
796.6704	183.3582	10445.15	9702.1
796.8124	185.5954	10376.4	9627.75
796.9544	187.832	10320.4	9572.15
797.0965	190.0681	10280.7	9526.95
797.2386	192.3037	10277.65	9524.4
797.3806	194.5388	10258.4	9499.65
797.5228	196.7734	10272.15	9514.3
797.6649	199.0075	10349.65	9586.05
797.807	201.2411	10432.9	9673.15
797.9492	203.4742	10519.5	9753.95
798.0914	205.7068	10652	9883.6
798.2336	207.9389	10748.5	9977.55
798.3758	210.1704	10890.8	10121.35
798.518	212.4015	10957.6	10205.4
798.6603	214.632	11076.4	10326.45
798.8025	216.862	11210.5	10464.45
798.9448	219.0915	11261.45	10508.9
799.0871	221.3205	11360.55	10605.75
799.2294	223.549	11401.5	10651.25
799.3718	225.777	11433.55	10685.4
799.5141	228.0044	11502.25	10744.3
799.6565	230.2314	11562.25	10805.95
799.7989	232.4578	11618.45	10859.45
799.9413	234.6837	11680	10916.1
800.0837	236.909	11716.65	10948.65
800.2262	239.1339	11736.05	10941.85
800.3687	241.3582	11672.35	10893.95
800.5111	243.582	11646.9	10838.15
800.6536	245.8053	11593.05	10795.65
800.7961	248.0281	11571.75	10780.95
800.9387	250.2503	11610.2	10818.1
801.0812	252.472	11676.55	10880.8
801.2238	254.6932	11793.75	10997.4
801.3664	256.9139	11935.55	11138.05
801.509	259.134	12114.7	11311.05
801.6516	261.3536	12362.95	11560.45
801.7942	263.5727	12681.55	11878.2
801.9369	265.7912	12933.65	12130.5
802.0795	268.0092	13231.05	12426.2
802.2222	270.2267	13439.4	12636.95
802.3649	272.4436	13568.4	12764.9
802.5076	274.6601	13630.1	12816.05
802.6504	276.8759	13574.05	12763.45
802.7931	279.0913	13471.8	12662.4
802.9359	281.3061	13331.4	12522.4
803.0787	283.5204	13261.05	12452.1
803.2215	285.7341	13250	12429.3
803.3643	287.9473	13264.35	12433.4
803.5071	290.16	13301.35	12478.75
803.6499	292.3721	13331.6	12515
803.7928	294.5837	13448.5	12628.8
803.9357	296.7947	13631.05	12814.25
804.0786	299.0052	13763	12948.1
804.2215	301.2152	13769.75	12948.45
804.3644	303.4246	13660.3	12842.4
804.5074	305.6334	13389.2	12574.1
804.6503	307.8418	13039.65	12220.25
804.7933	310.0495	12723.6	11903.15
804.9363	312.2568	12322.15	11497.85
805.0793	314.4635	11979.25	11152.9
805.2223	316.6696	11665.95	10836.3
805.3653	318.8752	11442.8	10604.8
805.5084	321.0802	11330.45	10502.5
805.6514	323.2847	11355.1	10519.4
805.7945	325.4887	11357.55	10523
805.9376	327.692	11373.05	10541.5
806.0807	329.8949	11338.25	10504.35
806.2238	332.0972	11190.65	10348.25
806.367	334.2989	11034	10191.5
806.5101	336.5001	10826.95	9986.25
806.6533	338.7007	10665.8	9826.7
806.7965	340.9008	10517.9	9675.05
806.9397	343.1003	10363.8	9522.2
807.0829	345.2992	10219.3	9371.3
807.2261	347.4976	10126.95	9283.65
807.3693	349.6955	10050.1	9201.5
807.5126	351.8927	10017.4	9169.55
807.6559	354.0895	9945.75	9085.6
807.7991	356.2856	9909.65	9058.45
807.9424	358.4812	9852.35	9003.65
808.0857	360.6763	9850.1	8992.75
808.2291	362.8707	9843.9	8987.65
808.3724	365.0646	9875.7	9018.25
808.5158	367.258	9916.5	9060.25
808.6591	369.4508	10011.7	9151.3
808.8025	371.643	10103.75	9246.1
808.9459	373.8346	10208.1	9342.4
809.0893	376.0257	10297.55	9431.65
809.2327	378.2162	10338.3	9474.4
809.3762	380.4062	10326.05	9458.95
809.5196	382.5956	10244.2	9382.45
809.6631	384.7844	10140.05	9284.15
809.8066	386.9726	10042.1	9187.4
809.9501	389.1603	9960.2	9109.2
810.0936	391.3474	9916.15	9020.75
810.2371	393.5339	9890.45	9031.1
810.3806	395.7199	9844.3	8989.8
810.5241	397.9052	9887.95	9033.95
810.6677	400.09	9976.4	9119.35
810.8113	402.2743	10146.4	9290.65
810.9548	404.4579	10297.7	9439.55
811.0984	406.641	10495.2	9635.2
811.2421	408.8235	10618	9759.55
811.3857	411.0054	10723.15	9859.8
811.5293	413.1868	10841.65	9973.15
811.673	415.3675	10864.15	9995.35
811.8166	417.5477	10850.7	9979.15
811.9603	419.7273	10788.05	9915.4
812.104	421.9064	10715.2	9836.55
812.2477	424.0848	10641.65	9769.95
812.3914	426.2627	10532.1	9656.95
812.5351	428.4399	10356.45	9484.95
812.6788	430.6166	10104.6	9225.6
812.8226	432.7928	9805.2	8926.05
812.9663	434.9683	9538.4	8662.2
813.1101	437.1432	9353.1	8474.9
813.2539	439.3176	9188.6	8321.75
813.3977	441.4914	9082.55	8213.25
813.5415	443.6645	9057.15	8183.4
813.6853	445.8371	9030.4	8158.45
813.8291	448.0091	8997.8	8122.4
813.973	450.1806	9006.15	8129.05
814.1168	452.3514	9006.85	8131.55
814.2607	454.5216	9055.1	8174
814.4046	456.6913	9020.55	8143.5
814.5485	458.8603	9076.45	8204.45
814.6924	461.0288	9116	8244.45
814.8363	463.1967	9100.5	8229.8
814.9802	465.3639	9103.95	8232.05
815.1241	467.5306	9091.8	8215.85
815.2681	469.6967	9073.7	8202.1
815.412	471.8622	9074.85	8207
815.556	474.0271	9120.05	8242.9
815.7	476.1914	9129.05	8250.2
815.844	478.3551	9149.2	8274.2
815.988	480.5182	9198	8322.5
816.132	482.6807	9292.1	8425.05
816.276	484.8426	9434.85	8571.95
816.4201	487.0039	9755.5	8887.6
816.5641	489.1647	10075.3	9197.85
816.7082	491.3248	10349.1	9464.45
816.8522	493.4843	10420.55	9546.3
816.9963	495.6432	10373.25	9499.2
817.1404	497.8015	10258.9	9375.85
817.2845	499.9592	10155.2	9265.9
817.4286	502.1163	9941.7	9054.25
817.5727	504.2728	9687.2	8804.95
817.7168	506.4287	9439.95	8566.6
817.861	508.5839	9181.95	8310.15
818.0051	510.7386	9040.85	8162.15
818.1493	512.8927	8986.85	8099.4
818.2935	515.0461	8979.15	8093.05
818.4377	517.199	9067.4	8178.5
818.5818	519.3512	9244.7	8354.95
818.726	521.5029	9495.7	8600.7
818.8703	523.6539	9752.65	8865.95
819.0145	525.8043	9852.25	8959.7
819.1587	527.9541	9783.65	8890.55
819.303	530.1033	9574.1	8687.95
819.4472	532.2519	9396.85	8506.15
819.5915	534.3999	9339.75	8449
819.7357	536.5472	9378.1	8489.25
819.88	538.694	9522.3	8634.1
820.0243	540.8401	9707.2	8815
820.1686	542.9856	9831.95	8930.25
820.3129	545.1305	9832.3	8928.9
820.4572	547.2748	9814.05	8908.5
820.6016	549.4185	9712.7	8804.25
820.7459	551.5615	9632.4	8728.8
820.8902	553.704	9635.6	8735.25
821.0346	555.8458	9702.4	8802.5
821.1789	557.987	9907.6	9009.3
821.3233	560.1276	10137.4	9236.8
821.4677	562.2675	10521.8	9623.6
821.6121	564.4069	11015	10113.85
821.7565	566.5456	11516.55	10618
821.9009	568.6837	11652.1	10751.85
822.0453	570.8212	11303.85	10406.6
822.1897	572.958	10677.2	9778.65
822.3342	575.0942	10077.6	9181.85
822.4786	577.2299	9623.3	8730.7
822.6231	579.3648	9442.75	8561
822.7675	581.4992	9330	8455.4
822.912	583.6329	9421.35	8547.9
823.0565	585.766	9555.85	8679.25
823.201	587.8985	9683.55	8797.7
823.3454	590.0304	9765.8	8846.15
823.4899	592.1616	9710.75	8809.25
823.6345	594.2922	9623.15	8718.6
823.779	596.4222	9462.35	8552.45
823.9235	598.5515	9294.75	8386.15
824.068	600.6802	9132.65	8229.25
824.2126	602.8083	8994.2	8092.65
824.3571	604.9358	9000.1	8098
824.5017	607.0626	9031.4	8123.05
824.6462	609.1888	9134.55	8224.45
824.7908	611.3144	9283.35	8371.75
824.9354	613.4393	9428.25	8516.15
825.08	615.5636	9584.55	8671.05
825.2246	617.6873	9594.35	8685.5
825.3692	619.8103	9536.05	8622.05
825.5138	621.9327	9383.2	8474.3
825.6584	624.0544	9156.7	8253.75
825.803	626.1756	8971.7	8065.9
825.9477	628.2961	8841.05	7930.1
826.0923	630.4159	8753.85	7839.05
826.237	632.5351	8760.6	7847.6
826.3816	634.6537	8746.7	7834.4
826.5263	636.7716	8746.25	7830.8
826.6709	638.8889	8757.85	7834.6
826.8156	641.0056	8818.5	7899.8
826.9603	643.1216	8762.65	7847.1
827.105	645.237	8738.7	7821.3
827.2497	647.3518	8653.8	7747.15
827.3944	649.4659	8580.85	7677.1
827.5391	651.5793	8531.9	7626.8
827.6838	653.6922	8496.65	7588.6
827.8285	655.8043	8477.15	7569.15
827.9733	657.9159	8474.05	7564
828.118	660.0268	8471.45	7562.1
828.2627	662.137	8468.65	7553
828.4075	664.2466	8501.75	7578.95
828.5522	666.3556	8500.5	7582.45
828.697	668.4639	8459.25	7549.05
828.8418	670.5716	8424.2	7513.4
828.9865	672.6786	8350.35	7434.25
829.1313	674.785	8298	7377
829.2761	676.8907	8264.4	7349.15
829.4209	678.9958	8266.7	7356.1
829.5657	681.1002	8234.35	7318.65
829.7105	683.204	8247.35	7323.9
829.8553	685.3072	8231.15	7308.15
830.0001	687.4097	8200.2	7280.75
830.1449	689.5115	8205.8	7283.35
830.2898	691.6127	8218.55	7305.4
830.4346	693.7132	8212.3	7295.4
830.5794	695.8131	8266.25	7328.35
830.7243	697.9123	8274.55	7349.25
830.8691	700.0109	8289.55	7367.55
831.014	702.1089	8322.35	7400
831.1588	704.2061	8396.35	7474.9
831.3037	706.3028	8464.55	7541.6
831.4486	708.3987	8498.35	7576.65
831.5935	710.4941	8499.15	7579.55
831.7383	712.5887	8532.1	7613.65
831.8832	714.6827	8587.9	7665.1
832.0281	716.7761	8665.25	7746.55
832.173	718.8688	8773.75	7851.9
832.3179	720.9608	8898	7967.4
832.4628	723.0522	9013.75	8084.25
832.6077	725.1429	9139.2	8215.95
832.7527	727.233	9234.75	8311.7
832.8976	729.3224	9324.15	8402.05
833.0425	731.4112	9295.7	8370.55
833.1874	733.4993	9190.95	8263.9
833.3324	735.5867	8972.2	8047.3
833.4773	737.6735	8764.95	7839.8
833.6222	739.7596	8593.75	7667.6
833.7672	741.845	8441.9	7516.45
833.9122	743.9298	8375.15	7445.05
834.0571	746.014	8367.05	7441.45
834.2021	748.0974	8332.55	7399.85
834.347	750.1802	8346.25	7415.5
834.492	752.2624	8356.25	7426.05
834.637	754.3439	8423.5	7490
834.782	756.4247	8516.9	7575.7
834.9269	758.5048	8678.45	7745.9
835.0719	760.5843	8921	7989.65
835.2169	762.6631	9285.9	8355.55
835.3619	764.7413	9805.85	8874.55
835.5069	766.8188	10441.4	9508.7
835.6519	768.8956	10972.9	10039.4
835.7969	770.9718	11306.25	10376.4
835.9419	773.0473	11303.65	10376.5
836.0869	775.1221	11086.2	10156
836.232	777.1962	10874.6	9944.55
836.377	779.2697	10833.5	9900.7
836.522	781.3426	10940.95	9998.85
836.667	783.4147	11006.7	10079.2
836.8121	785.4862	11013.75	10083.75
836.9571	787.557	10799.6	9871.3
837.1021	789.6271	10392.85	9458.4
837.2472	791.6966	9818.1	8883.55
837.3922	793.7654	9279.7	8347.1
837.5373	795.8335	8879.45	7951.65
837.6823	797.901	8619.35	7690.05
837.8274	799.9678	8468.8	7535.7
837.9724	802.0339	8375.35	7439.2
838.1175	804.0993	8314.75	7372.05
838.2626	806.1641	8249.05	7312.15
838.4076	808.2282	8181.15	7247.55
838.5527	810.2916	8119.6	7185.3
838.6978	812.3544	8051.8	7120.35
838.8428	814.4164	8036.4	7106
838.9879	816.4778	8069.75	7131
839.133	818.5385	8100.9	7165.65
839.2781	820.5986	8237	7301.85
839.4232	822.658	8479.1	7541.95
839.5682	824.7166	8815.2	7880.9
839.7133	826.7747	9315.05	8376.8
839.8584	828.832	9806.85	8867.75
840.0035	830.8886	10211.95	9268
840.1486	832.9446	10375.6	9438.1
840.2937	834.9999	10226.05	9288.3
840.4388	837.0545	9945.25	9004.65
840.5839	839.1085	9597.75	8659.25
840.729	841.1618	9274.7	8333.35
840.8741	843.2143	8988.4	8049.45
841.0192	845.2662	8824.9	7887.75
841.1643	847.3175	8695.85	7760.6
841.3095	849.368	8586.9	7644.3
841.4546	851.4179	8506.15	7568.45
841.5997	853.467	8429.85	7490.6
841.7448	855.5155	8373.8	7435.8
841.8899	857.5633	8302.5	7361.55
842.0351	859.6105	8243	7306.45
842.1802	861.6569	8173.85	7233.2
842.3253	863.7027	8082.7	7142.2
842.4704	865.7478	8056.45	7117.4
842.6156	867.7922	8007.5	7066.85
842.7607	869.8359	7994.35	7054.75
842.9058	871.8789	7988.6	7046.45
843.0509	873.9212	8074.3	7102.1
843.1961	875.9629	8105.9	7165.2
843.3412	878.0039	8200.85	7260.1
843.4863	880.0441	8269.05	7331.1
843.6315	882.0837	8318.05	7376.7
843.7766	884.1226	8380.3	7435.25
843.9218	886.1609	8476.3	7537.2
844.0669	888.1984	8603.3	7665.75
844.212	890.2352	8723.4	7783.25
844.3572	892.2714	8753.35	7807.25
844.5023	894.3069	8708.1	7765.7
844.6475	896.3416	8560.3	7616.8
844.7926	898.3757	8402.25	7460.4
844.9377	900.4091	8325.9	7381.5
845.0829	902.4418	8285.3	7337.75
845.228	904.4739	8319.8	7373
845.3732	906.5052	8380	7435.6
845.5183	908.5358	8356.1	7415.3
845.6635	910.5658	8243.3	7297.05
845.8086	912.595	8035.7	7090.35
845.9538	914.6236	7884.4	6940.6
846.0989	916.6515	7759.75	6819
846.2441	918.6786	7657.65	6715.05
846.3892	920.7051	7628.8	6684
846.5344	922.7309	7651.9	6710.7
846.6795	924.756	7682.65	6738.5
846.8246	926.7804	7756.75	6813.45
846.9698	928.8041	7763.2	6822.55
847.1149	930.8272	7808.65	6868
847.2601	932.8495	7799.3	6851.35
847.4052	934.8711	7808.35	6863
847.5504	936.892	7766.8	6827.3
847.6955	938.9123	7803.1	6861.1
847.8407	940.9318	7856.2	6910.85
847.9858	942.9506	7866.6	6924.3
848.131	944.9688	7830.2	6887.55
848.2761	946.9862	7730	6785.7
848.4213	949.003	7577.1	6635.8
848.5664	951.019	7504.25	6564
848.7115	953.0344	7441.85	6496.45
848.8567	955.0491	7397.1	6450.3
849.0018	957.063	7432.75	6490.65
849.147	959.0763	7521.6	6579.2
849.2921	961.0888	7525.05	6580.55
849.4373	963.1007	7555.75	6612.75
849.5824	965.1119	7570.45	6635.3
849.7275	967.1223	7561.05	6630.7
849.8727	969.1321	7530.4	6599.4
850.0178	971.1412	7520.15	6585.5
850.1629	973.1495	7506.4	6565.2
850.3081	975.1572	7565.9	6576.95
850.4532	977.1641	7533.85	6588.45
850.5983	979.1704	7536.45	6592
850.7435	981.1759	7491.05	6540.5
850.8886	983.1808	7490.3	6545.8
851.0337	985.1849	7521.5	6566.3
851.1788	987.1884	7537.45	6592.45
851.324	989.1911	7589.5	6643.5
851.4691	991.1932	7657.2	6711.45
851.6142	993.1945	7669	6727.8
851.7593	995.1951	7637.4	6691.15
851.9045	997.1951	7624.15	6676.5
852.0496	999.1943	7610.15	6664.4
852.1947	1001.1928	7601	6656.2
852.3398	1003.1906	7644	6699.45
852.4849	1005.1877	7767.4	6820.65
852.63	1007.1841	7850.8	6908.6
852.7751	1009.1798	7905.2	6963.45
852.9202	1011.1748	7850.15	6903.75
853.0653	1013.1691	7755.65	6811.1
853.2104	1015.1627	7569.55	6626.6
853.3555	1017.1556	7390.65	6447.8
853.5006	1019.1477	7299.3	6356.15
853.6457	1021.1392	7173.45	6239.7
853.7908	1023.1299	7158.25	6224.1
853.9359	1025.12	7155.65	6231.25
854.081	1027.1093	7197.2	6280.15
854.2261	1029.0979	7299.35	6388.65
854.3712	1031.0859	7399.4	6479.25
854.5163	1033.0731	7436.85	6506.35
854.6613	1035.0596	7426.8	6489.9
854.8064	1037.0454	7333.8	6393.35
854.9515	1039.0304	7241.75	6303.6
855.0965	1041.0148	7150.8	6209.95
855.2416	1042.9985	7071.85	6130.6
855.3867	1044.9814	7054.05	6113.35
855.5317	1046.9636	6990	6046.3
855.6768	1048.9452	6987	6048.2
855.8219	1050.926	7031.5	6091.45
855.9669	1052.9061	7048	6104.65
856.112	1054.8855	7074.35	6132.2
856.257	1056.8642	7116.9	6178.7
856.4021	1058.8421	7151.1	6204.4
856.5471	1060.8194	7192.45	6251.85
856.6921	1062.7959	7228.6	6285.6
856.8372	1064.7717	7305.1	6364
856.9822	1066.7469	7385.9	6443.8
857.1272	1068.7213	7440.5	6491.55
857.2723	1070.695	7521.05	6581.2
857.4173	1072.6679	7596.75	6655.9
857.5623	1074.6402	7603.2	6658.4
857.7073	1076.6117	7592.25	6646.85
857.8523	1078.5826	7478.75	6536.85
857.9973	1080.5527	7325.75	6380.35
858.1423	1082.5221	7236.95	6293.9
858.2873	1084.4908	7154.8	6212.3
858.4323	1086.4587	7136.2	6196.35
858.5773	1088.426	7142.5	6201.7
858.7223	1090.3925	7182.1	6238.3
858.8673	1092.3584	7230.4	6288.75
859.0123	1094.3235	7263.1	6321.7
859.1573	1096.2879	7339.65	6400.65
859.3022	1098.2515	7474.8	6535
859.4472	1100.2145	7671.2	6729.6
859.5922	1102.1767	7825.9	6882.5
859.7371	1104.1382	8044.5	7104.65
859.8821	1106.099	8270.7	7327.45
860.027	1108.0591	8480.5	7539.35
860.172	1110.0185	8604.8	7662.4
860.3169	1111.9771	8661.1	7720.1
860.4619	1113.9351	8628.65	7684.6
860.6068	1115.8923	8554.7	7613.85
860.7517	1117.8488	8446.6	7505.4
860.8967	1119.8045	8311.45	7369.6
861.0416	1121.7596	8186.85	7243.85
861.1865	1123.7139	8063.85	7125
861.3314	1125.6675	7995.35	7058.15
861.4763	1127.6204	8001.4	7060.4
861.6212	1129.5726	7969.3	7028.6
861.7661	1131.524	7886.1	6948.4
861.911	1133.4748	7762.55	6821.1
862.0559	1135.4248	7571.55	6631.75
862.2008	1137.3741	7403.05	6462.3
862.3457	1139.3226	7314.35	6374.45
862.4905	1141.2705	7246.75	6305.2
862.6354	1143.2176	7210.35	6264.3
862.7803	1145.164	7160.05	6221.95
862.9251	1147.1097	7077.4	6134.7
863.07	1149.0546	6981.35	6043.15
863.2148	1150.9989	6874.5	5933.35
863.3597	1152.9424	6809.1	5865.75
863.5045	1154.8852	6757.65	5818.5
863.6493	1156.8272	6728.65	5787.7
863.7942	1158.7686	6765.2	5816.55
863.939	1160.7092	6765.3	5820.45
864.0838	1162.6491	6819.65	5878.5
864.2286	1164.5883	6929	5988.35
864.3734	1166.5267	7027.5	6084.9
864.5182	1168.4644	7168.2	6230.1
864.663	1170.4014	7337.05	6393.75
864.8078	1172.3377	7568.2	6627.25
864.9526	1174.2732	7857.9	6922.75
865.0974	1176.2081	8256.5	7316.55
865.2421	1178.1421	8751.65	7811.4
865.3869	1180.0755	9240.6	8305.3
865.5317	1182.0082	9618.35	8682.9
865.6764	1183.9401	9791.8	8855.75
865.8212	1185.8713	9632.3	8700.35
865.9659	1187.8017	9312.35	8385.1
866.1106	1189.7315	8932	8013.85
866.2554	1191.6605	8552.6	7632.45
866.4001	1193.5888	8310.8	7383.2
866.5448	1195.5163	8154.55	7225
866.6895	1197.4432	8081.5	7148
866.8342	1199.3693	8037.6	7101.4
866.9789	1201.2947	8004	7064.4
867.1236	1203.2193	7945.95	7005.85
867.2683	1205.1432	7925.7	6988.95
867.413	1207.0664	7886.25	6952.15
867.5576	1208.9889	7872.7	6936.6
867.7023	1210.9106	7833.6	6900.65
867.847	1212.8316	7864.1	6929.55
867.9916	1214.7519	7913.6	6971.15
868.1363	1216.6715	7936.85	6999
868.2809	1218.5903	8017.1	7080.45
868.4255	1220.5084	8086.6	7150.6
868.5701	1222.4257	8193.6	7256.95
868.7148	1224.3424	8262.9	7329.4
868.8594	1226.2583	8382.45	7443
869.004	1228.1735	8511.4	7577.55
869.1486	1230.0879	8665.85	7733.15
869.2932	1232.0016	8866.5	7928.85
869.4377	1233.9146	9021.65	8082.95
869.5823	1235.8269	9075.85	8141.1
869.7269	1237.7384	9089.15	8155
869.8715	1239.6492	8998.3	8066.45
870.016	1241.5592	9006.65	8070.4
870.1606	1243.4686	9086.55	8148.25
870.3051	1245.3772	9286.35	8351.95
870.4496	1247.285	9499.3	8563.5
870.5941	1249.1922	9740.45	8807.1
870.7387	1251.0986	9924.5	8991.3
870.8832	1253.0042	10054.1	9122
871.0277	1254.9092	10151.25	9221.45
871.1722	1256.8134	10255.6	9324.55
871.3167	1258.7169	10361.25	9426.55
871.4611	1260.6196	10508.85	9575.15
871.6056	1262.5216	10703.85	9765.65
871.7501	1264.4229	10880.1	9949
871.8945	1266.3234	11040.45	10106.6
872.039	1268.2232	11175.65	10241.05
872.1834	1270.1223	11229.55	10291.45
872.3278	1272.0207	11287.7	10355.5
872.4723	1273.9183	11292.15	10353.25
872.6167	1275.8151	11217.5	10283.7
872.7611	1277.7113	11257.4	10324.15
872.9055	1279.6067	11338.55	10408.4
873.0499	1281.5014	11658.7	10724.35
873.1943	1283.3953	12106.95	11170.5
873.3386	1285.2885	12694.3	11760.5
873.483	1287.181	13272.4	12340.15
873.6274	1289.0727	13834.9	12904.45
873.7717	1290.9637	14154.95	13221.2
873.9161	1292.854	14381.7	13450.1
874.0604	1294.7435	14362.2	13429.15
874.2047	1296.6323	14220.45	13288.75
874.349	1298.5204	13976	13041.4
874.4933	1300.4077	13687.9	12753.5
874.6376	1302.2943	13359.5	12423.95
874.7819	1304.1802	12967.9	12037.95
874.9262	1306.0653	12497.15	11562.55
875.0705	1307.9497	12014.45	11082.3
875.2147	1309.8333	11577.4	10646.3
875.359	1311.7162	11275.75	10346.4
875.5032	1313.5984	11023.25	10086.8
875.6475	1315.4798	10834.15	9899.3
875.7917	1317.3605	10729.55	9779.6
875.9359	1319.2405	10598.3	9664.35
876.0801	1321.1197	10343.1	9405.1
876.2243	1322.9982	10031.8	9094.35
876.3685	1324.876	9726.6	8792.2
876.5127	1326.753	9434.6	8501.25
876.6569	1328.6293	9184.25	8249.95
876.801	1330.5048	9000.15	8064.65
876.9452	1332.3796	8823.25	7890.35
877.0893	1334.2537	8697.25	7737.1
877.2335	1336.127	8589.05	7657.65
877.3776	1337.9996	8561.9	7630.95
877.5217	1339.8714	8582.4	7649.3
877.6658	1341.7426	8589.7	7614.4
877.8099	1343.6129	8587.9	7653.75
877.954	1345.4826	8572.85	7637
878.0981	1347.3515	8591.75	7655.4
878.2422	1349.2196	8584.5	7649.8
878.3862	1351.087	8608.2	7672.25
878.5303	1352.9537	8620.75	7687.45
878.6743	1354.8197	8730.95	7798.7
878.8184	1356.6849	8875.95	7943.8
878.9624	1358.5493	9025.3	8091.2
879.1064	1360.4131	9210.6	8280.65
879.2504	1362.276	9355.1	8421.1
879.3944	1364.1383	9404.8	8473.8
879.5384	1365.9998	9295	8357.6
879.6823	1367.8606	8994.2	8057.4
879.8263	1369.7206	8684.4	7750.35
879.9702	1371.5799	8374.95	7438
880.1142	1373.4384	8129.9	7196.65
880.2581	1375.2962	7901.55	6966.6
880.402	1377.1533	7629.55	6699.95
880.5459	1379.0096	7305	6377.05
880.6898	1380.8652	7010.15	6080.5
880.8337	1382.7201	6747.45	5818.9
880.9776	1384.5742	6522.45	5590.8
881.1215	1386.4275	6386.95	5451.55
881.2653	1388.2802	6235.8	5304.2
881.4092	1390.132	6142	5210.5
881.553	1391.9832	6074	5140.9
881.6968	1393.8336	6021.65	5089.4
881.8406	1395.6832	5985.3	5052.95
881.9844	1397.5322	5945.9	5015.85
882.1282	1399.3803	5936.6	5000.95
882.272	1401.2278	5877.5	4948.05
882.4158	1403.0745	5880	4949.5
882.5595	1404.9204	5879.2	4949.5
882.7033	1406.7656	5875.8	4946.4
882.847	1408.6101	5892.4	4958.65
882.9908	1410.4538	5909.4	4977.7
883.1345	1412.2968	5949.6	5020.55
883.2782	1414.139	5973.75	5042.55
883.4219	1415.9805	6037	5107.3
883.5656	1417.8213	6107.8	5171.85
883.7092	1419.6613	6184.65	5256.75
883.8529	1421.5006	6304.9	5376.05
883.9965	1423.3391	6466.95	5536.65
884.1402	1425.1769	6691.35	5760.85
884.2838	1427.0139	7063.15	6131.85
884.4274	1428.8502	7519.35	6589.4
884.571	1430.6858	7957.25	7029.75
884.7146	1432.5206	8298.85	7370.25
884.8582	1434.3547	8492.65	7562.45
885.0018	1436.188	8519.85	7593.1
885.1453	1438.0206	8457.1	7524.95
885.2889	1439.8524	8309.95	7379.15
885.4324	1441.6835	8196.95	7267.45
885.5759	1443.5139	8113.7	7180.6
885.7194	1445.3435	8088.65	7160.4
885.8629	1447.1724	8054.05	7125.35
886.0064	1449.0005	8011.8	7083.9
886.1499	1450.8279	7977.15	7048.9
886.2933	1452.6545	7958.6	7030.35
886.4368	1454.4804	7991.6	7065.4
886.5802	1456.3056	8001.15	7066.65
886.7237	1458.13	7933.25	7008.15
886.8671	1459.9536	7811.15	6885.25
887.0105	1461.7766	7601.35	6674.1
887.1539	1463.5987	7322.05	6393.95
887.2972	1465.4202	7075.7	6146.6
887.4406	1467.2409	6799.75	5873.25
887.584	1469.0608	6548.4	5624.55
887.7273	1470.88	6324.95	5398.2
887.8706	1472.6984	6139.6	5213.3
888.0139	1474.5161	5973.35	5042.2
888.1572	1476.3331	5843.2	4916.35
888.3005	1478.1493	5746.95	4820.9
888.4438	1479.9648	5688.7	4763.5
888.5871	1481.7795	5610.8	4685.7
888.7303	1483.5935	5563.75	4636.3
888.8736	1485.4067	5523.65	4598.45
889.0168	1487.2192	5509.9	4584
889.16	1489.031	5467	4539.2
889.3032	1490.842	5447.15	4519.4
889.4464	1492.6522	5427.15	4499.85
889.5896	1494.4618	5382.05	4456.6
889.7327	1496.2705	5363.25	4438.85
889.8759	1498.0785	5338.9	4412.15
890.019	1499.8858	5307.85	4379.55
890.1622	1501.6924	5247.15	4323.25
890.3053	1503.4981	5217	4293.25
890.4484	1505.3032	5183.25	4260.2
890.5914	1507.1075	5154	4229.3
890.7345	1508.911	5104.2	4180.85
890.8776	1510.7138	5062.9	4139.9
891.0206	1512.5159	5021.55	4095.2
891.1637	1514.3172	4974.8	4050.45
891.3067	1516.1178	4949.3	4026.25
891.4497	1517.9176	4932.55	4004.3
891.5927	1519.7166	4899.65	3978.35
891.7357	1521.515	4882.25	3955.05
891.8786	1523.3126	4856.45	3933.7
892.0216	1525.1094	4833.45	3909.85
892.1645	1526.9055	4813.05	3890.85
892.3074	1528.7008	4785.65	3864
892.4503	1530.4954	4763.85	3842.65
892.5932	1532.2893	4776.85	3857.45
892.7361	1534.0824	4749.8	3824.4
892.879	1535.8747	4754.5	3836.2
893.0218	1537.6663	4747.9	3828
893.1647	1539.4572	4740.1	3819.55
893.3075	1541.2473	4738.2	3819.7
893.4503	1543.0367	4771.15	3855.45
893.5931	1544.8253	4777.35	3852.45
893.7359	1546.6132	4806.45	3883.85
893.8787	1548.4003	4833.7	3903.65
894.0214	1550.1867	4893.7	3966.8
894.1642	1551.9723	4961.55	4039
894.3069	1553.7572	5065.3	4145.9
894.4496	1555.5414	5179.8	4262.95
894.5923	1557.3247	5306.8	4389.05
894.735	1559.1074	5475.2	4563.15
894.8777	1560.8893	5645.45	4730.15
895.0204	1562.6705	5788.35	4876.3
895.163	1564.4509	5908.85	4997.05
895.3056	1566.2305	6000.6	5091.5
895.4482	1568.0094	6034.05	5124.65
895.5908	1569.7876	6028.1	5116.95
895.7334	1571.565	6011.2	5098.05
895.876	1573.3417	5999.45	5088.6
896.0186	1575.1176	5991.75	5079.55
896.1611	1576.8928	5991.45	5081.15
896.3036	1578.6672	6014.65	5108.35
896.4461	1580.4409	6089.4	5182.95
896.5886	1582.2138	6140.4	5234.35
896.7311	1583.986	6224.75	5316.25
896.8736	1585.7575	6313.15	5402.8
897.0161	1587.5282	6457.15	5553.3
897.1585	1589.2981	6581.5	5676.05
897.3009	1591.0673	6683.45	5778.95
897.4433	1592.8358	6793.5	5885.5
897.5857	1594.6035	6935.05	6023.7
897.7281	1596.3704	7010.95	6097.9
897.8705	1598.1366	7097.55	6191.35
898.0128	1599.9021	7195.05	6290.05
898.1551	1601.6668	7271.75	6362.35
898.2975	1603.4308	7390.1	6479.5
898.4398	1605.194	7573.7	6662.05
898.5821	1606.9564	7746.55	6843
898.7243	1608.7182	8008.2	7107.6
898.8666	1610.4791	8295.95	7400.9
899.0088	1612.2394	8599.75	7704.25
899.1511	1613.9988	8912.3	8014.1
899.2933	1615.7576	9184.2	8281.05
899.4355	1617.5156	9375.15	8461.6
899.5776	1619.2728	9397.55	8488.7
899.7198	1621.0293	9294.1	8388.5
899.862	1622.785	9074.25	8164.25
900.0041	1624.54	8691.15	7788.65
900.1462	1626.2942	8300.8	7399
900.2883	1628.0477	7864.65	6960.65
900.4304	1629.8005	7504.35	6597.85
900.5725	1631.5525	7167.1	6264.75
900.7145	1633.3037	6874.55	5972.5
900.8566	1635.0542	6646.9	5748.1
900.9986	1636.804	6465.85	5566.05
901.1406	1638.553	6367.7	5407.1
901.2826	1640.3013	6249.05	5347.05
901.4245	1642.0488	6188.2	5284.35
901.5665	1643.7955	6181.55	5283.1
901.7085	1645.5416	6222.85	5320.85
901.8504	1647.2868	6310.65	5411.65
901.9923	1649.0313	6381.75	5480.8
902.1342	1650.7751	6500.95	5596.3
902.2761	1652.5181	6678.55	5778.25
902.4179	1654.2604	6791.6	5891.6
902.5598	1656.0019	6994.55	6096.55
902.7016	1657.7427	7202.3	6301.2
902.8434	1659.4828	7437.45	6534.35
902.9852	1661.222	7562.15	6658.1
903.127	1662.9606	7532.45	6630.45
903.2687	1664.6984	7361.45	6456.55
903.4105	1666.4354	6968.1	6061.5
903.5522	1668.1717	6505	5599.55
903.6939	1669.9072	6043.95	5137.65
903.8356	1671.642	5619.85	4713.7
903.9773	1673.3761	5282.4	4378.7
904.119	1675.1094	5007.5	4107.05
904.2606	1676.8419	4799.6	3899.6
904.4022	1678.5737	4613.4	3712.9
904.5439	1680.3048	4480.65	3578.95
904.6855	1682.0351	4369.95	3467.4
904.827	1683.7646	4256.75	3350.4
904.9686	1685.4934	4177.25	3276.35
905.1101	1687.2215	4115.05	3213.15
905.2517	1688.9488	4030.8	3131.45
905.3932	1690.6754	3995.15	3096
905.5347	1692.4012	3953.3	3050.95
905.6761	1694.1263	3906.2	3005.4
905.8176	1695.8506	3885.25	2982.55
905.9591	1697.5742	3831.55	2931.35
906.1005	1699.297	3791.4	2894.35
906.2419	1701.0191	3754.4	2859.1
906.3833	1702.7404	3718.35	2821.55
906.5246	1704.461	3699.35	2797.75
906.666	1706.1808	3668.75	2767.7
906.8073	1707.8999	3653.5	2754.45
906.9487	1709.6182	3640.55	2745.3
907.09	1711.3358	3607	2712.3
907.2313	1713.0527	3578.6	2684.6
907.3725	1714.7688	3570.25	2667.25
907.5138	1716.4841	3542.3	2641.7
907.655	1718.1987	3542.55	2638.1
907.7962	1719.9126	3517.45	2624.5
907.9374	1721.6257	3504.95	2608.3
908.0786	1723.338	3505.9	2613.65
908.2198	1725.0496	3475	2580.2
908.3609	1726.7605	3468.45	2569.75
908.502	1728.4706	3456.35	2560
908.6431	1730.18	3440.9	2544.15
908.7842	1731.8886	3441.95	2547.3
908.9253	1733.5964	3447.55	2532.9
909.0664	1735.3036	3428.35	2529.1
909.2074	1737.0099	3395.75	2501.55
909.3484	1738.7156	3372.9	2480.4
909.4894	1740.4204	3364.85	2468.3
909.6304	1742.1246	3328.55	2432.65
909.7714	1743.8279	3323.85	2429.2
909.9123	1745.5306	3303.6	2409.8
910.0532	1747.2325	3298.3	2403.8
910.1941	1748.9336	3274	2377.95
910.335	1750.634	3264.05	2367.05
910.4759	1752.3336	3260.85	2364.35
910.6168	1754.0325	3242.8	2352.3
910.7576	1755.7307	3236.2	2343.9
910.8984	1757.4281	3231.55	2336.25
911.0392	1759.1247	3229.85	2325.7
911.18	1760.8206	3231.65	2328.35
911.3208	1762.5158	3214	2311.5
911.4615	1764.2102	3189.95	2295.75
911.6022	1765.9039	3195.35	2300.6
911.7429	1767.5968	3194.4	2302.3
911.8836	1769.289	3183.65	2291.5
912.0243	1770.9804	3169.35	2274.5
912.1649	1772.6711	3174.45	2275.45
912.3056	1774.361	3151.65	2254.85
912.4462	1776.0502	3147.75	2250.65
912.5868	1777.7386	3143.85	2243.6
912.7274	1779.4263	3142	2247.15
912.8679	1781.1132	3141.25	2248.45
913.0084	1782.7994	3124.5	2229.55
913.149	1784.4849	3115.45	2223.55
913.2895	1786.1696	3125.1	2214.6
913.4299	1787.8535	3117.65	2226.15
913.5704	1789.5367	3090	2198.7
913.7108	1791.2192	3096	2203.25
913.8513	1792.9009	3101.05	2183.35
913.9917	1794.5818	3081.95	2185.1
914.132	1796.2621	3081.4	2189.35
914.2724	1797.9415	3070.5	2174.85
914.4128	1799.6202	3070	2174.75
914.5531	1801.2982	3059.75	2164.85
914.6934	1802.9755	3039.95	2140.75
914.8337	1804.6519	3037.95	2143.45
914.9739	1806.3277	3029.85	2137.5
915.1142	1808.0027	3028.6	2137.75
915.2544	1809.6769	3016.2	2125.2
915.3946	1811.3504	3001.7	2110.75
915.5348	1813.0231	3010.6	2117.75
915.675	1814.6951	3017.3	2124.3
915.8151	1816.3664	3009.6	2110.95
915.9553	1818.0369	3010.4	2113.7
916.0954	1819.7067	2996.2	2102.6
916.2355	1821.3757	2974	2076.75
916.3755	1823.044	2996.65	2101.75
916.5156	1824.7115	2984.75	2089.15
916.6556	1826.3783	2971.75	2076.35
916.7956	1828.0443	2964.15	2070.55
916.9356	1829.7096	2965	2069
917.0756	1831.3741	2964.95	2067.25
917.2155	1833.0379	2962.55	2069.75
917.3555	1834.701	2947.9	2055.85
917.4954	1836.3633	2934.7	2042.8
917.6353	1838.0248	2935.15	2043.2
917.7751	1839.6856	2937.15	2043.95
917.915	1841.3457	2934.35	2042.2
918.0548	1843.005	2920.4	2027.7
918.1946	1844.6636	2912.55	2021.5
918.3344	1846.3214	2921.3	2028
918.4742	1847.9785	2910.95	2014.8
918.6139	1849.6349	2911.05	2014.3
918.7537	1851.2904	2912.7	2008.1
918.8934	1852.9453	2910.95	2014.2
919.0331	1854.5994	2888.45	1991.05
919.1727	1856.2528	2915.25	2015.95
919.3124	1857.9054	2889.6	1995.55
919.452	1859.5572	2891.6	1999.95
919.5916	1861.2083	2894.7	2000.8
919.7312	1862.8587	2880.4	1987.45
919.8708	1864.5084	2867.1	1970.4
920.0103	1866.1572	2865.75	1968.75
920.1498	1867.8054	2867.6	1973.15
920.2893	1869.4528	2870.4	1975.4
920.4288	1871.0994	2853.85	1959.85
920.5683	1872.7453	2852.35	1955.4
920.7077	1874.3905	2840.4	1939.35
920.8471	1876.0349	2840.1	1946.5
920.9865	1877.6786	2829.5	1933.95
921.1259	1879.3215	2840.55	1946.35
921.2653	1880.9637	2812.4	1920
921.4046	1882.6051	2819.8	1927.1
921.5439	1884.2458	2817	1923.75
921.6832	1885.8858	2812.3	1918.35
921.8225	1887.525	2800.15	1906.75
921.9617	1889.1634	2790	1896.5
922.101	1890.8011	2791.8	1897.95
922.2402	1892.4381	2788.5	1894.65
922.3794	1894.0743	2785.8	1892.65
922.5185	1895.7098	2781.5	1887.55
922.6577	1897.3446	2784.55	1890.75
922.7968	1898.9786	2767.65	1868.9
922.9359	1900.6118	2756.05	1862.9
923.075	1902.2443	2756.6	1859.95
923.214	1903.8761	2754.65	1860.85
923.3531	1905.5071	2744.45	1850.95
923.4921	1907.1374	2734.2	1841
923.6311	1908.7669	2728.85	1838.35
923.77	1910.3957	2719.2	1825.85
923.909	1912.0237	2719.5	1827.45
924.0479	1913.651	2723	1830.2
924.1868	1915.2776	2705	1814.7
924.3257	1916.9034	2701.3	1808.2
924.4646	1918.5285	2684.65	1793.25
924.6034	1920.1528	2684.25	1793.25
924.7422	1921.7764	2679.55	1786.9
924.881	1923.3992	2677.2	1786.45
925.0198	1925.0213	2666.45	1773.15
925.1586	1926.6427	2659.65	1766.7
925.2973	1928.2633	2732.6	1753.25
925.436	1929.8832	2652.25	1756.8
925.5747	1931.5023	2641.75	1750.05
925.7134	1933.1207	2635.7	1740.95
925.852	1934.7383	2627.05	1733.25
925.9906	1936.3552	2619.45	1727.55
926.1292	1937.9714	2620.8	1729.6
926.2678	1939.5868	2615.5	1720.75
926.4064	1941.2015	2603.05	1709.05
926.5449	1942.8154	2604.25	1711.5
926.6834	1944.4286	2603.75	1711.85
926.8219	1946.041	2604.15	1690.7
926.9604	1947.6528	2588.7	1690.5
927.0988	1949.2637	2591.45	1699.55
927.2372	1950.8739	2587.25	1694.4
927.3756	1952.4834	2569.95	1674.95
927.514	1954.0921	2569.2	1676.65
927.6523	1955.7001	2563.55	1669.6
927.7907	1957.3074	2543.75	1654.8
927.929	1958.9139	2535.95	1646.35
928.0673	1960.5197	2543	1650.85
928.2055	1962.1247	2531.4	1641.25
928.3438	1963.729	2528.1	1639.45
928.482	1965.3325	2528.2	1635.85
928.6202	1966.9353	2513.2	1623.5
928.7584	1968.5374	2513.55	1623.55
928.8965	1970.1387	2509.6	1617.85
929.0346	1971.7393	2494.85	1606.05
929.1727	1973.3392	2495.35	1606.45
929.3108	1974.9383	2489.75	1602.15
929.4489	1976.5366	2471.25	1582.95
929.5869	1978.1342	2466.65	1579.15
929.7249	1979.7311	2467.35	1579.05
929.8629	1981.3273	2463.45	1575.6
930.0009	1982.9227	2465.15	1576.7
930.1388	1984.5173	2441.55	1556.15
930.2767	1986.1112	2441.4	1554.4
930.4146	1987.7044	2446.25	1559.75
930.5525	1989.2968	2440.3	1551.35
930.6904	1990.8885	2448.05	1555.25
930.8282	1992.4795	2431.65	1543.95
930.966	1994.0697	2414.75	1528.1
931.1038	1995.6592	2422.3	1533.6
931.2415	1997.2479	2416.75	1529.35
931.3793	1998.8359	2415.15	1528.8
931.517	2000.4232	2407.6	1524.9
931.6547	2002.0097	2402.75	1519.75
931.7923	2003.5955	2393.95	1509
931.93	2005.1805	2404.25	1516.45
932.0676	2006.7648	2398.75	1514.95
932.2052	2008.3484	2389	1504.05
932.3427	2009.9312	2395.9	1508.45
932.4803	2011.5133	2377.3	1495.6
932.6178	2013.0946	2367.6	1482.75
932.7553	2014.6752	2374.7	1492.05
932.8928	2016.2551	2359.55	1474.45
933.0302	2017.8342	2372.1	1486.1
933.1676	2019.4126	2364.15	1480.5
933.305	2020.9902	2355.8	1474.9
933.4424	2022.5672	2355.25	1471.15
933.5798	2024.1433	2353.6	1464.85
933.7171	2025.7188	2340.15	1457.65
933.8544	2027.2935	2330.75	1446.45
933.9917	2028.8674	2325.85	1443.6
934.129	2030.4406	2324.05	1443
934.2662	2032.0131	2330	1448.4
934.4034	2033.5849	2323.95	1435.35
934.5406	2035.1559	2311.1	1429.15
934.6778	2036.7261	2316.85	1433.05
934.8149	2038.2957	2314.8	1428.8
934.952	2039.8645	2310.45	1422.4
935.0891	2041.4325	2310.25	1421.9
935.2262	2042.9998	2291.85	1407.35
935.3632	2044.5664	2295.75	1411.4
935.5002	2046.1323	2294.55	1413.05
935.6372	2047.6974	2293.4	1410.95
935.7742	2049.2617	2273.65	1391.15
935.9111	2050.8254	2291.15	1402.25
936.048	2052.3883	2282.85	1397.6
936.1849	2053.9504	2267.05	1380.8
936.3218	2055.5118	2273.1	1385.35
936.4586	2057.0725	2266.45	1376.45
936.5955	2058.6325	2265.1	1378.1
936.7323	2060.1917	2263.85	1380.95
936.869	2061.7502	2254.25	1370.1
937.0058	2063.3079	2246.8	1365.9
937.1425	2064.8649	2245.15	1358.6
937.2792	2066.4212	2244.75	1358.45
937.4159	2067.9767	2246.75	1361.6
937.5525	2069.5315	2230.25	1345.25
937.6891	2071.0856	2233.95	1349.45
937.8257	2072.6389	2216.35	1330.3
937.9623	2074.1915	2214.45	1333.2
938.0989	2075.7433	2211.1	1326.65
938.2354	2077.2945	2212.4	1328.4
938.3719	2078.8448	2212.55	1327.4
938.5084	2080.3945	2201.8	1315.15
938.6448	2081.9434	2204.05	1318.5
938.7812	2083.4916	2198.45	1310.95
938.9176	2085.039	2206.05	1314.05
939.054	2086.5857	2192.75	1300.05
939.1903	2088.1317	2185.25	1292.85
939.3267	2089.677	2187.45	1295.8
939.463	2091.2215	2184	1292.45
939.5992	2092.7652	2189.7	1297.9
939.7355	2094.3083	2185.05	1295.25
939.8717	2095.8506	2175	1286.65
940.0079	2097.3921	2172.2	1285.65
940.1441	2098.933	2157.6	1271.85
940.2802	2100.4731	2165.15	1278
940.4163	2102.0124	2176	1268.2
940.5524	2103.5511	2166.55	1276.55
940.6885	2105.089	2146.4	1258.3
940.8245	2106.6261	2152.55	1263.75
940.9606	2108.1626	2155	1268.45
941.0965	2109.6983	2180.4	1265.15
941.2325	2111.2332	2151.05	1261.2
941.3684	2112.7675	2144.75	1251.4
941.5044	2114.301	2141.45	1248.85
941.6403	2115.8337	2130.55	1239.85
941.7761	2117.3657	2135.55	1247
941.912	2118.897	2137.05	1247.25
942.0478	2120.4276	2138.05	1242.2
942.1835	2121.9575	2136.7	1245.7
942.3193	2123.4866	2122.7	1232
942.455	2125.0149	2113.55	1221.8
942.5907	2126.5426	2108.85	1224.4
942.7264	2128.0695	2108.25	1220.1
942.8621	2129.5956	2095.15	1214.4
942.9977	2131.1211	2110.05	1219.9
943.1333	2132.6458	2097.55	1209.2
943.2689	2134.1698	2099.8	1209.9
943.4044	2135.693	2098.35	1205
943.54	2137.2155	2092	1197.9
943.6755	2138.7373	2096	1206
943.8109	2140.2584	2075.8	1191.9
943.9464	2141.7787	2079.6	1190.5
944.0818	2143.2983	2070.05	1188.95
944.2172	2144.8171	2071.4	1186.8
944.3526	2146.3353	2064.7	1178.95
944.4879	2147.8527	2057.2	1170.2
944.6232	2149.3693	2055.9	1165.3
944.7585	2150.8853	2057.95	1167.35
944.8938	2152.4005	2064.95	1172.8
945.029	2153.9149	2052.25	1162
945.1642	2155.4287	2047.7	1158.65
945.2994	2156.9417	2045.85	1154.1
945.4346	2158.454	2052.7	1164.5
945.5697	2159.9655	2042.35	1156.4
945.7048	2161.4764	2042.1	1156.2
945.8399	2162.9865	2033.8	1146.8
945.9749	2164.4958	2030.4	1144.1
946.1099	2166.0045	2019.5	1129.7
946.2449	2167.5124	2013.75	1125.5
946.3799	2169.0195	2023.25	1133.45
946.5148	2170.526	2027.65	1137.4
946.6498	2172.0317	2019.6	1130
946.7846	2173.5367	2021.9	1134.75
946.9195	2175.0409	2004.9	1116.75
947.0543	2176.5445	2012.4	1123.6
947.1891	2178.0473	2010.35	1118.25
947.3239	2179.5494	2012.25	1118.75
947.4587	2181.0507	2000.85	1109.95
947.5934	2182.5513	1996.85	1109.55
947.7281	2184.0512	1999.8	1109.15
947.8628	2185.5504	1993.9	1104.4
947.9974	2187.0488	1991.55	1103.75
948.132	2188.5465	1991.6	1106.6
948.2666	2190.0435	1982.65	1096.1
948.4012	2191.5397	1972.35	1083
948.5357	2193.0353	1967.05	1075.65
948.6702	2194.5301	1975.75	1082.15
948.8047	2196.0241	1971	1078.05
948.9392	2197.5175	1971.65	1078.8
949.0736	2199.0101	1971.25	1075.2
949.208	2200.502	1956.9	1068.85
949.3424	2201.9931	1950.1	1065.75
949.4767	2203.4835	1945.85	1059.7
949.611	2204.9733	1958.85	1055.15
949.7453	2206.4622	1947	1061.8
949.8796	2207.9505	1941.35	1053
950.0138	2209.438	1932	1048.35
950.148	2210.9248	1921.75	1035.5
950.2822	2212.4109	1945.1	1056.65
950.4164	2213.8962	1937.55	1044.65
950.5505	2215.3809	1930.45	1039.2
950.6846	2216.8648	1919.95	1024.4
950.8186	2218.3479	1936.6	1037.7
950.9527	2219.8304	1917.7	1017.9
951.0867	2221.3121	1911.25	1014.8
951.2207	2222.7931	1912.85	1020.3
951.3546	2224.2733	1906.05	1015
951.4886	2225.7529	1905.85	1014.5
951.6225	2227.2317	1898.75	1008.45
951.7563	2228.7098	1901.35	1015.55
951.8902	2230.1872	1886.4	1001.3
952.024	2231.6638	1886.55	1000.65
952.1578	2233.1397	1891.6	1000.35
952.2916	2234.6149	1887.45	1000.2
952.4253	2236.0894	1881.35	991.6
952.559	2237.5632	1881.35	983.3
952.6927	2239.0362	1870.8	982.45
952.8263	2240.5085	1871.55	984.8
952.9599	2241.9801	1864.9	973.55
953.0935	2243.4509	1862.1	971.25
953.2271	2244.921	1860.45	969.1
953.3606	2246.3904	1863.2	969.35
953.4941	2247.8591	1859.15	968.65
953.6276	2249.3271	1865.3	974.35
953.7611	2250.7943	1855.65	961.6
953.8945	2252.2608	1843.45	953.1
954.0279	2253.7266	1844.45	952.65
954.1612	2255.1917	1845	954.4
954.2946	2256.656	1838.4	948.75
954.4279	2258.1197	1837	950.7
954.5612	2259.5826	1823.6	931.75
954.6944	2261.0447	1833.1	941.15
954.8276	2262.5062	1820.85	929.45
954.9608	2263.9669	1821.55	928.9
955.094	2265.4269	1824.2	932.65
955.2271	2266.8862	1823.85	933.2
955.3602	2268.3448	1824	936.35
955.4933	2269.8026	1814.35	925.75
955.6264	2271.2598	1808.6	922.85
955.7594	2272.7162	1810.65	923
955.8924	2274.1719	1810.65	919.9
956.0253	2275.6268	1817.6	926.1
956.1583	2277.0811	1810.25	919.25
956.2912	2278.5346	1809.2	919.6
956.4241	2279.9874	1806.3	918.55
956.5569	2281.4395	1811	923.2
956.6897	2282.8908	1806.15	912.55
956.8225	2284.3414	1796.05	905.75
956.9553	2285.7914	1797.2	906.9
957.088	2287.2406	1794.2	901.1
957.2207	2288.689	1784.65	892.9
957.3534	2290.1368	1796.6	901.1
957.486	2291.5838	1791.35	894.8
957.6186	2293.0302	1789.95	894.6
957.7512	2294.4758	1776.4	883.15
957.8838	2295.9206	1785.65	892.35
958.0163	2297.3648	1777.7	888.45
958.1488	2298.8082	1780.5	890.55
958.2813	2300.251	1771.65	881.6
958.4137	2301.693	1776.2	880.95
958.5461	2303.1343	1782.9	891.3
958.6785	2304.5748	1765.85	877.4
958.8108	2306.0147	1764.9	874.85
958.9432	2307.4538	1761.55	871.9
959.0754	2308.8922	1756	871.9
959.2077	2310.3299	1756.1	867.3
959.3399	2311.7669	1750.45	863.25
959.4721	2313.2031	1751.6	860.9
959.6043	2314.6387	1754.6	862.45
959.7365	2316.0735	1745.85	856.05
959.8686	2317.5076	1739.55	848.6
960.0006	2318.941	1743.7	852.05
960.1327	2320.3737	1738.9	846.4
960.2647	2321.8056	1738.5	845.8
960.3967	2323.2369	1737.05	845.15
960.5287	2324.6674	1731.3	838.5
960.6606	2326.0972	1731.55	839.85
960.7925	2327.5263	1721.35	831.85
960.9244	2328.9547	1734.45	842.55
961.0562	2330.3823	1730.35	837.25
961.1881	2331.8092	1731.2	835.6
961.3198	2333.2355	1722.15	826.95
961.4516	2334.661	1716.95	822.2
961.5833	2336.0858	1713.75	821
961.715	2337.5098	1705.7	813
961.8467	2338.9332	1716.45	824.85
961.9783	2340.3558	1702.5	810.15
962.1099	2341.7778	1701.3	811.45
962.2415	2343.199	1703.35	811.55
962.373	2344.6195	1705.85	817
962.5045	2346.0393	1699.15	811.35
962.636	2347.4583	1706.85	815.1
962.7675	2348.8767	1705.3	811.55
962.8989	2350.2943	1701.35	807.35
963.0303	2351.7113	1700.6	806.95
963.1617	2353.1275	1701.9	806.95
963.293	2354.543	1706	803.95
963.4243	2355.9578	1696.45	802.35
963.5556	2357.3718	1684.6	793.65
963.6868	2358.7852	1680.85	791.6
963.818	2360.1978	1682.7	793.45
963.9492	2361.6098	1684.8	793.1
964.0803	2363.021	1684.45	788.85
964.2114	2364.4315	1685.85	792.7
964.3425	2365.8413	1675.45	783.2
964.4736	2367.2504	1662.5	773.5
964.6046	2368.6587	1676	786.7
964.7356	2370.0664	1668.4	777.45
964.8666	2371.4733	1669.2	775.65
964.9975	2372.8795	1666.95	775.9
965.1284	2374.285	1661.35	769.8
965.2593	2375.6899	1659.55	767.45
965.3901	2377.0939	1665.4	775.35
965.5209	2378.4973	1660.45	771.4
965.6517	2379.9	1658.35	767.8
965.7825	2381.3019	1653.25	762.05
965.9132	2382.7032	1643.65	756.15
966.0439	2384.1037	1648.5	760.9
966.1745	2385.5035	1641.45	753.7
966.3051	2386.9027	1639.15	751.4
966.4357	2388.3011	1640.2	747.9
966.5663	2389.6987	1634.7	745.55
966.6968	2391.0957	1627.95	737
966.8273	2392.492	1629.55	739.4
966.9578	2393.8876	1630.25	741.4
967.0882	2395.2824	1622.7	733.1
967.2186	2396.6765	1623.5	732.45
967.349	2398.07	1619.2	727.5
967.4793	2399.4627	1621.4	729.4
967.6097	2400.8547	1617.2	724.5
967.7399	2402.246	1613	712.95
967.8702	2403.6366	1605.85	715.3
968.0004	2405.0265	1599.35	711.1
968.1306	2406.4156	1606.1	713.7
968.2607	2407.8041	1603.3	712.2
968.3909	2409.1918	1601.95	710.65
968.521	2410.5789	1596.4	704.85
968.651	2411.9652	1601.7	707.85
968.781	2413.3508	1596.1	704.95
968.911	2414.7358	1593.3	702.85
969.041	2416.12	1591.8	702.45
969.1709	2417.5035	1600.1	709.85
969.3008	2418.8863	1594	703.2
969.4307	2420.2684	1587.45	696.15
969.5606	2421.6497	1591.8	698.9
969.6904	2423.0304	1585.8	695.75
969.8201	2424.4104	1578.95	686.3
969.9499	2425.7896	1589.4	692.95
970.0796	2427.1682	1577.1	686.6
970.2093	2428.546	1575.8	686.1
970.3389	2429.9232	1581.05	687.15
970.4685	2431.2996	1578.8	687.45
970.5981	2432.6753	1578.5	687.55
970.7277	2434.0503	1565.65	675.55
970.8572	2435.4246	1572.65	681.8
970.9867	2436.7982	1569.05	674.85
971.1161	2438.1711	1567.85	677.6
971.2456	2439.5433	1560.45	666.55
971.375	2440.9148	1564.1	666.85
971.5043	2442.2856	1553.75	664.45
971.6336	2443.6557	1552.8	660.4
971.7629	2445.025	1553.35	663.2
971.8922	2446.3937	1552.25	661.2
972.0214	2447.7617	1545.9	654.6
972.1506	2449.1289	1540.05	649.65
972.2798	2450.4955	1547	653
972.4089	2451.8613	1539.1	650.2
972.538	2453.2265	1546.8	656.05
972.6671	2454.5909	1543.6	651.55
972.7961	2455.9546	1537.6	645.25
972.9251	2457.3177	1534.5	642.35
973.0541	2458.68	1537.8	645.25
973.1831	2460.0416	1528.6	637.45
973.312	2461.4025	1532.75	640.25
973.4408	2462.7627	1543.25	643.85
973.5697	2464.1222	1526.7	639.2
973.6985	2465.4811	1530.15	638.8
973.8273	2466.8392	1529.2	641.55
973.956	2468.1966	1536.65	643.55
974.0847	2469.5533	1536.1	641.15
974.2134	2470.9093	1525.1	633.7
974.3421	2472.2645	1525.7	632.95
974.4707	2473.6191	1530.55	640.4
974.5993	2474.973	1508.85	617.9
974.7278	2476.3262	1519.85	627.5
974.8563	2477.6787	1516.8	628.05
974.9848	2479.0305	1510.9	621.45
975.1132	2480.3816	1515.3	622.1
975.2417	2481.7319	1510.7	620.6
975.37	2483.0816	1510.7	619.65
975.4984	2484.4306	1506.9	614.75
975.6267	2485.7789	1506.9	617.4
975.755	2487.1264	1499.55	608.4
975.8833	2488.4733	1502.7	615.25
976.0115	2489.8195	1507.35	600.85
976.1397	2491.165	1499.3	606.05
976.2678	2492.5097	1497.7	606.8
976.3959	2493.8538	1494.6	606.65
976.524	2495.1972	1494.25	603.75
976.6521	2496.5398	1485.6	592.35
976.7801	2497.8818	1488.55	596
976.9081	2499.2231	1496.3	603.5
977.036	2500.5637	1485.5	592
977.164	2501.9035	1491.2	599
977.2918	2503.2427	1492.85	598
977.4197	2504.5812	1473	583.15
977.5475	2505.919	1481.25	589.05
977.6753	2507.256	1482.05	592.5
977.8031	2508.5924	1475.45	586.1
977.9308	2509.9281	1481.65	586.7
978.0585	2511.2631	1478.5	588.55
978.1861	2512.5974	1473.4	583.95
978.3137	2513.9309	1481.35	593
978.4413	2515.2638	1501.2	582.1
978.5689	2516.596	1466.85	578.6
978.6964	2517.9275	1469.45	577.1
978.8239	2519.2583	1458.8	566.2
978.9513	2520.5884	1460.35	567.85
979.0788	2521.9178	1446.3	557.7
979.2062	2523.2465	1457.65	570.1
979.3335	2524.5745	1456.8	571.6
979.4608	2525.9018	1449	559.1
979.5881	2527.2284	1464.85	574
979.7154	2528.5543	1456.75	567.8
979.8426	2529.8796	1451.75	561.6
979.9698	2531.2041	1455.35	567.6
980.0969	2532.5279	1458.5	569.35
980.224	2533.851	1455.7	564.75
980.3511	2535.1735	1447.25	557.1
980.4781	2536.4952	1457.2	567.35
980.6052	2537.8163	1453.65	560.9
980.7321	2539.1366	1448.25	558.55
980.8591	2540.4562	1450.75	558.05
980.986	2541.7752	1446.7	554.35
981.1129	2543.0935	1445.15	554
981.2397	2544.411	1450.3	557.1
981.3665	2545.7279	1445.5	555.1
981.4933	2547.0441	1445.2	555.05
981.62	2548.3596	1443	550.8
981.7467	2549.6744	1442.45	551.85
981.8734	2550.9885	1449.45	551.05
982.0001	2552.3019	1441.2	550.1
982.1267	2553.6146	1434.55	544.2
982.2532	2554.9266	1434.8	544.1
982.3798	2556.2379	1439.2	546.7
982.5063	2557.5485	1435.65	548.35
982.6327	2558.8585	1436.75	539.35
982.7592	2560.1677	1433.65	539.45
982.8856	2561.4762	1423.1	534.6
983.0119	2562.7841	1429.15	536.15
983.1383	2564.0913	1424	534.8
983.2646	2565.3977	1426.65	537.95
983.3908	2566.7035	1429.95	539.4
983.517	2568.0086	1428.35	535.65
983.6432	2569.313	1427.8	535.8
983.7694	2570.6167	1428.85	534.45
983.8955	2571.9197	1425.4	534.85
984.0216	2573.222	1426.6	531.35
984.1476	2574.5236	1426.8	536.35
984.2737	2575.8246	1420.95	526
984.3996	2577.1248	1423.2	529.15
984.5256	2578.4244	1424.95	534.4
984.6515	2579.7232	1417.35	526.35
984.7774	2581.0214	1448.25	524.6
984.9032	2582.3189	1425.45	537.5
985.029	2583.6157	1426.15	533.75
985.1548	2584.9118	1424.75	534.3
985.2806	2586.2072	1428.3	538.3
985.4063	2587.5019	1418.5	529.5
985.5319	2588.7959	1426.7	532.7
985.6576	2590.0893	1427.1	536.05
985.7832	2591.3819	1416.9	527.7
985.9087	2592.6739	1421.05	531.7
986.0343	2593.9652	1417.6	526.1
986.1597	2595.2557	1424.55	533.25
986.2852	2596.5456	1422.35	530.05
986.4106	2597.8348	1416.85	529.25
986.536	2599.1234	1422.65	532.8
986.6614	2600.4112	1427.7	538.95
986.7867	2601.6983	1424.85	532
986.912	2602.9848	1421.2	531.8
987.0372	2604.2705	1416.5	519.4
987.1624	2605.5556	1425.9	536.1
987.2876	2606.84	1411.95	524.3
987.4128	2608.1237	1412.9	522.35
987.5379	2609.4067	1413.95	522.85
987.6629	2610.689	1419.35	523.85
987.788	2611.9707	1415.35	522.2
987.913	2613.2516	1405.8	513.35
988.0379	2614.5319	1403.95	516.1
988.1629	2615.8115	1398.3	508.1
988.2878	2617.0903	1395.7	507.85
988.4126	2618.3685	1399.2	510.2
988.5375	2619.6461	1390.95	503.05
988.6622	2620.9229	1392.7	506.8
988.787	2622.199	1386.55	497.6
988.9117	2623.4745	1391	503.45
989.0364	2624.7493	1387.1	499.8
989.161	2626.0234	1390	502.7
989.2857	2627.2968	1384.25	496.4
989.4102	2628.5695	1387.05	497.85
989.5348	2629.8415	1383.65	495.15
989.6593	2631.1128	1389.25	501.6
989.7837	2632.3835	1382.35	494.35
989.9082	2633.6535	1382.1	496
990.0326	2634.9228	1381.1	492
990.1569	2636.1914	1384.7	498.55
990.2812	2637.4593	1381.9	493.5
990.4055	2638.7265	1370.15	479.7
990.5298	2639.9931	1380.25	491.65
990.654	2641.259	1378.7	490.8
990.7782	2642.5242	1379.4	490.45
990.9023	2643.7887	1373	482.95
991.0264	2645.0525	1371.95	484.25
991.1505	2646.3156	1367.1	477.55
991.2745	2647.5781	1370.6	480.75
991.3985	2648.8398	1357.4	471.5
991.5225	2650.1009	1399.15	473.95
991.6464	2651.3613	1362.6	476.1
991.7703	2652.6211	1363.1	477.3
991.8942	2653.8801	1365.45	479.85
992.018	2655.1385	1366.55	476.85
992.1418	2656.3961	1361.25	474.5
992.2655	2657.6531	1362.8	475.55
992.3892	2658.9094	1365.3	476.2
992.5129	2660.1651	1367.85	482.35
992.6366	2661.42	1363.85	476.95
992.7602	2662.6743	1361.55	473.25
992.8837	2663.9279	1365.25	478.9
993.0073	2665.1808	1375.75	487.6
993.1307	2666.433	1375.25	486.05
993.2542	2667.6846	1370.95	485.4
993.3776	2668.9354	1372.4	480.5
993.501	2670.1856	1370.8	482.6
993.6244	2671.4351	1370.1	484.05
993.7477	2672.6839	1382.45	492.85
993.8709	2673.9321	1372.55	485.8
993.9942	2675.1795	1372.85	486.9
994.1174	2676.4263	1383.9	496.3
994.2405	2677.6724	1378.7	491.35
994.3637	2678.9179	1381.4	494.25
994.4868	2680.1626	1371.3	483.7
994.6098	2681.4067	1375.45	487.8
994.7328	2682.6501	1372.05	483.7
994.8558	2683.8928	1371.9	485.85
994.9788	2685.1348	1364	477.4
995.1017	2686.3761	1367.3	479.8
995.2245	2687.6168	1362.5	474.6
995.3474	2688.8568	1359.05	471.5
995.4702	2690.0961	1355.2	469.7
995.5929	2691.3348	1356.35	468.35
995.7156	2692.5727	1349.15	460.8
995.8383	2693.81	1345.05	459.55
995.961	2695.0466	1357.55	471.25
996.0836	2696.2826	1353.05	465.5
996.2062	2697.5178	1359.85	468.05
996.3287	2698.7524	1356.75	470.35
996.4512	2699.9863	1358.6	471.15
996.5737	2701.2195	1353.5	466.8
996.6961	2702.452	1361.4	475.8
996.8185	2703.6839	1363.1	477.05
996.9408	2704.9151	1372.25	486.85
997.0631	2706.1456	1375.35	489.15
997.1854	2707.3755	1379.9	492
997.3077	2708.6046	1384.75	492.9
997.4299	2709.8331	1385.5	496.7
997.552	2711.0609	1392.45	505
997.6742	2712.2881	1393.45	506.4
997.7963	2713.5145	1399.8	510.6
997.9183	2714.7403	1409.75	524.95
998.0403	2715.9654	1420.4	534.45
998.1623	2717.1899	1432.25	530.25
998.2842	2718.4136	1437.3	551.3
998.4062	2719.6367	1438.7	551.95
998.528	2720.8591	1457.7	563.5
998.6498	2722.0809	1452.1	564.7
998.7716	2723.3019	1473.3	584.5
998.8934	2724.5223	1470	583.3
999.0151	2725.7421	1482.5	594.15
999.1368	2726.9611	1486.55	598.05
999.2584	2728.1795	1483.45	594.55
999.38	2729.3972	1472.45	584.85
999.5016	2730.6142	1472.85	579.5
999.6231	2731.8306	1448.05	559.75
999.7446	2733.0462	1442.45	554.3
999.8661	2734.2612	1425.95	536.3
999.9875	2735.4756	1422.05	535.25
1000.1089	2736.6892	1409.9	522.1
1000.2302	2737.9022	1390.2	504.9
1000.3515	2739.1145	1384.5	497.3
1000.4728	2740.3262	1382.65	489.8
1000.594	2741.5372	1363.6	478.9
1000.7152	2742.7475	1352.85	465.45
1000.8363	2743.9571	1344.9	457.45
1000.9575	2745.1661	1342.4	452
1001.0785	2746.3744	1331.2	443.85
1001.1996	2747.582	1320.3	432.55
1001.3206	2748.7889	1317.35	428.95
1001.4415	2749.9952	1318	432.75
1001.5625	2751.2008	1310.1	421.55
1001.6833	2752.4057	1304.3	418.65
1001.8042	2753.61	1301.25	413.35
1001.925	2754.8136	1304.35	415.55
1002.0458	2756.0165	1309.35	423.4
1002.1665	2757.2188	1304.8	417.95
1002.2872	2758.4204	1294.45	410.1
1002.4078	2759.6213	1294.6	404.9
1002.5285	2760.8215	1297.35	408.35
1002.649	2762.0211	1294.9	409.7
1002.7696	2763.22	1298.55	407.6
1002.8901	2764.4182	1295.5	409.7
1003.0106	2765.6158	1292.6	403.8
1003.131	2766.8127	1297.05	410.6
1003.2514	2768.009	1292.45	408.55
1003.3717	2769.2045	1285.8	398.25
1003.492	2770.3994	1286.75	399.9
1003.6123	2771.5936	1283.2	397.1
1003.7325	2772.7872	1275.3	389.55
1003.8527	2773.9801	1280.85	394.55
1003.9729	2775.1723	1289.25	385.65
1004.093	2776.3639	1281.15	395.45
1004.2131	2777.5548	1276.8	388.25
1004.3331	2778.745	1271.7	384.45
1004.4531	2779.9346	1272.75	389.45
1004.5731	2781.1235	1271.75	387.1
1004.693	2782.3117	1268.45	386.5
1004.8129	2783.4992	1278.6	394.2
1004.9328	2784.6861	1281.15	395.8
1005.0526	2785.8723	1280.7	395.15
1005.1723	2787.0579	1282.85	396.5
1005.2921	2788.2428	1281.05	396
1005.4118	2789.427	1290.25	403.65
1005.5314	2790.6106	1290.25	405.65
1005.651	2791.7935	1304.45	419.45
1005.7706	2792.9757	1299.8	415.9
1005.8902	2794.1573	1304.3	418.4
1006.0097	2795.3382	1313.3	429.5
1006.1291	2796.5184	1321.45	439.2
1006.2485	2797.698	1330.6	442.9
1006.3679	2798.8769	1332.3	445.8
1006.4873	2800.0551	1346.75	461.75
1006.6066	2801.2327	1356.75	469.55
1006.7258	2802.4096	1364.9	482
1006.8451	2803.5859	1372.75	489.8
1006.9642	2804.7615	1389.6	504.25
1007.0834	2805.9364	1402.55	518
1007.2025	2807.1106	1411.9	527.95
1007.3216	2808.2842	1440.5	554.1
1007.4406	2809.4572	1467.85	581.45
1007.5596	2810.6294	1479.8	593.9
1007.6785	2811.801	1502.55	618.75
1007.7975	2812.972	1540.45	657.85
1007.9163	2814.1423	1563.2	677.85
1008.0352	2815.3119	1600.6	716.3
1008.154	2816.4808	1632	747.55
1008.2727	2817.6491	1677.75	793.3
1008.3914	2818.8167	1724.3	840.25
1008.5101	2819.9837	1774.05	884.3
1008.6288	2821.15	1812.3	929.35
1008.7474	2822.3157	1870.75	989.4
1008.8659	2823.4807	1920.7	1036.25
1008.9844	2824.645	1974.35	1087
1009.1029	2825.8086	2021.85	1137.8
1009.2214	2826.9716	2066.45	1184.85
1009.3398	2828.134	2117.95	1234.15
1009.4581	2829.2957	2148.65	1263.75
1009.5764	2830.4567	2182.6	1300.05
1009.6947	2831.617	2204.1	1318
1009.813	2832.7767	2224.35	1341.7
1009.9312	2833.9358	2212.75	1330.3
1010.0493	2835.0941	2193.95	1307.65
1010.1675	2836.2519	2197.5	1313.2
1010.2855	2837.4089	2181.65	1296
1010.4036	2838.5653	2166.3	1281.65
1010.5216	2839.7211	2147.3	1263.85
1010.6396	2840.8761	2147.85	1261.4
1010.7575	2842.0306	2143.45	1261.05
1010.8754	2843.1843	2163.2	1278.25
1010.9932	2844.3374	2190.7	1307.65
1011.111	2845.4899	2213.7	1328.55
1011.2288	2846.6417	2254.5	1371.7
1011.3465	2847.7928	2305.45	1422.2
1011.4642	2848.9433	2348.9	1466.15
1011.5818	2850.0931	2391.9	1507.8
1011.6995	2851.2422	2440.85	1554.75
1011.817	2852.3907	2492	1608.3
1011.9345	2853.5385	2540.8	1654.4
1012.052	2854.6857	2599	1688.8
1012.1695	2855.8323	2619.9	1736.15
1012.2869	2856.9781	2660.45	1776.8
1012.4042	2858.1233	2685.6	1800.35
1012.5216	2859.2679	2724.65	1843.35
1012.6389	2860.4118	2775.25	1891.95
1012.7561	2861.555	2817.55	1928.95
1012.8733	2862.6976	2856.55	1970.2
1012.9905	2863.8395	2879.05	1995.35
1013.1076	2864.9808	2914.3	2029.55
1013.2247	2866.1214	2934.15	2048.85
1013.3417	2867.2614	2952	2067.3
1013.4587	2868.4007	2956.8	2069.7
1013.5757	2869.5393	2974.1	2087.2
1013.6926	2870.6773	2991.15	2104.45
1013.8095	2871.8146	3008.35	2120
1013.9263	2872.9513	3006	2119.7
1014.0431	2874.0874	2992.6	2109.15
1014.1599	2875.2227	2968.45	2082.3
1014.2766	2876.3574	2960	2075.55
1014.3933	2877.4915	2939.4	2056.85
1014.51	2878.6249	2912.7	2029.7
1014.6266	2879.7577	2905.4	2021.3
1014.7431	2880.8898	2895.55	2001.1
1014.8596	2882.0212	2861.4	1978.2
1014.9761	2883.152	2866.25	1982.25
1015.0925	2884.2821	2850.85	1969.3
1015.2089	2885.4116	2855.35	1973.35
1015.3253	2886.5405	2843.75	1960.05
1015.4416	2887.6686	2856.4	1971.3
1015.5579	2888.7962	2863.8	1981.7
1015.6741	2889.923	2870.1	1987.15
1015.7903	2891.0493	2868.7	1985.8
1015.9065	2892.1748	2877.3	1993.6
1016.0226	2893.2997	2887.45	2002.6
1016.1387	2894.424	2896.1	2012.8
1016.2547	2895.5476	2915.5	2032.35
1016.3707	2896.6706	2923.25	2041.8
1016.4866	2897.7929	2946	2060.55
1016.6025	2898.9145	2956.85	2073.95
1016.7184	2900.0355	2996.9	2113.35
1016.8342	2901.1559	3011.25	2126.9
1016.95	2902.2756	3040.75	2153.5
1017.0658	2903.3946	3072.3	2187.35
1017.1815	2904.513	3083.3	2197.7
1017.2971	2905.6308	3114.2	2230.85
1017.4127	2906.7479	3127.75	2243.1
1017.5283	2907.8643	3161.4	2279.05
1017.6439	2908.9801	3148.8	2267.4
1017.7594	2910.0953	3167.35	2285.85
1017.8748	2911.2098	3163.85	2277.1
1017.9902	2912.3236	3158.25	2267.8
1018.1056	2913.4368	3149.15	2264.15
1018.2209	2914.5494	3131.75	2247.05
1018.3362	2915.6613	3102.15	2212.3
1018.4515	2916.7725	3083.95	2199.55
1018.5667	2917.8831	3059	2174.3
1018.6819	2918.9931	3035.1	2151.6
1018.797	2920.1024	3001.55	2118.3
1018.9121	2921.211	2993.45	2110.9
1019.0271	2922.319	2979.9	2096.85
1019.1421	2923.4264	2980.55	2098.55
1019.2571	2924.5331	2960.55	2080.6
1019.372	2925.6391	2957.35	2076.35
1019.4869	2926.7445	2962.95	2081.45
1019.6017	2927.8493	2962.85	2080.5
1019.7165	2928.9534	2970.05	2084.55
1019.8313	2930.0569	2978.55	2092.9
1019.946	2931.1597	2975.75	2092
1020.0606	2932.2619	2968.35	2087.2
1020.1753	2933.3634	2982.8	2099.6
1020.2899	2934.4643	2993.55	2102.65
1020.4044	2935.5645	2993.5	2106.1
1020.5189	2936.6641	2981.8	2094.35
1020.6334	2937.763	2952	2071.05
1020.7478	2938.8613	2931.85	2050.95
1020.8622	2939.959	2899.1	2011.75
1020.9765	2941.056	2845.35	1963
1021.0908	2942.1523	2779.15	1895.7
1021.2051	2943.248	2728.2	1847.55
1021.3193	2944.3431	2652.75	1770.9
1021.4334	2945.4375	2580	1696.2
1021.5476	2946.5313	2481.75	1602.45
1021.6617	2947.6244	2404.05	1521.6
1021.7757	2948.7169	2339.6	1456.15
1021.8897	2949.8087	2254.7	1372.95
1022.0037	2950.8999	2193.1	1311.35
1022.1176	2951.9904	2118.2	1235.9
1022.2315	2953.0803	2067.5	1183.5
1022.3453	2954.1696	2015.6	1133.75
1022.4591	2955.2582	1966.4	1086.1
1022.5728	2956.3462	1933.45	1051.55
1022.6865	2957.4335	1914.2	1030.95
1022.8002	2958.5202	1883.55	999.4
1022.9138	2959.6062	1857.7	976.1
1023.0274	2960.6916	1840.55	958.35
1023.141	2961.7764	1821.25	937.6
1023.2545	2962.8605	1810.05	929.15
1023.3679	2963.9439	1782	900.2
1023.4813	2965.0267	1790.95	906.5
1023.5947	2966.1089	1802.6	898.1
1023.708	2967.1905	1767.3	884.55
1023.8213	2968.2714	1776.7	896.35
1023.9346	2969.3516	1770.15	887.85
1024.0478	2970.4312	1779.35	889.55
1024.1609	2971.5102	1774.9	892.45
1024.274	2972.5885	1777.2	895.35
1024.3871	2973.6662	1785.85	900.2
1024.5002	2974.7432	1787.7	907
1024.6132	2975.8196	1787	903.9
1024.7261	2976.8954	1773	893.65
1024.839	2977.9705	1769.65	887.05
1024.9519	2979.045	1770.35	888.55
1025.0647	2980.1188	1750.1	868.55
1025.1775	2981.192	1733	851.4
1025.2902	2982.2645	1738.1	855.55
1025.4029	2983.3364	1712.2	831.45
1025.5156	2984.4077	1687.7	804.85
1025.6282	2985.4783	1670	781.7
1025.7407	2986.5483	1642.3	760.1
1025.8532	2987.6177	1619.3	737.95
1025.9657	2988.6864	1589.8	709.25
1026.0782	2989.7545	1566	682.2
1026.1906	2990.8219	1527.85	647.6
1026.3029	2991.8887	1513.05	628
1026.4152	2992.9548	1477.6	594.6
1026.5275	2994.0204	1461.45	580.7
1026.6397	2995.0852	1430.7	547.35
1026.7519	2996.1495	1410.6	528.2
1026.864	2997.2131	1384.75	502.75
1026.9761	2998.276	1374.5	492.75
1027.0882	2999.3383	1349.7	467.55
1027.2002	3000.4	1330.6	448.2
1027.3122	3001.4611	1313.65	431.1
1027.4241	3002.5215	1305.7	424.95
1027.536	3003.5812	1285.75	403.8
1027.6478	3004.6404	1277.75	396.65
1027.7596	3005.6989	1271.45	388.15
1027.8714	3006.7567	1259.6	376.95
1027.9831	3007.8139	1280.65	367.35
1028.0947	3008.8705	1231.65	348.55
1028.2064	3009.9264	1240.1	353
1028.3179	3010.9818	1219.75	336.85
1028.4295	3012.0364	1217.55	337.75
1028.541	3013.0905	1220.85	340.05
1028.6524	3014.1439	1210.75	329.75
1028.7638	3015.1966	1202.65	323.2
1028.8752	3016.2487	1209.25	329.4
1028.9865	3017.3002	1202.65	314
1029.0978	3018.3511	1194.95	316.6
1029.209	3019.4013	1197.4	315.3
1029.3202	3020.4509	1191.25	311
1029.4314	3021.4998	1190	310.1
1029.5425	3022.5481	1190.05	308.2
1029.6535	3023.5958	1186.15	307.85
1029.7645	3024.6428	1184.5	302.5
1029.8755	3025.6892	1183.05	304.2
1029.9864	3026.735	1181.6	298.9
1030.0973	3027.7802	1181.2	299.3
1030.2082	3028.8247	1180.65	300.2
1030.319	3029.8685	1179.55	297.4
1030.4297	3030.9118	1181.3	300
1030.5404	3031.9544	1185.05	303.3
1030.6511	3032.9963	1183.85	302.5
1030.7617	3034.0376	1179.05	297.65
1030.8723	3035.0783	1181.3	295.1
1030.9829	3036.1184	1184.55	303.3
1031.0934	3037.1578	1188.55	306.5
1031.2038	3038.1966	1192.75	310.45
1031.3142	3039.2348	1184.55	303.05
1031.4246	3040.2723	1201.55	310
1031.5349	3041.3092	1183.3	303.75
1031.6452	3042.3455	1189.45	307
1031.7554	3043.3811	1185.65	304.35
1031.8656	3044.4161	1187.35	305.35
1031.9758	3045.4505	1183.7	304.1
1032.0859	3046.4842	1189.45	306.8
1032.1959	3047.5173	1188.3	308.45
1032.3059	3048.5498	1185.1	301.2
1032.4159	3049.5816	1181.65	301.45
1032.5258	3050.6128	1181.65	297.7
1032.6357	3051.6434	1179.6	298.45
1032.7455	3052.6734	1174.75	294.1
1032.8553	3053.7027	1170.8	290.4
1032.9651	3054.7314	1168.85	287.8
1033.0748	3055.7594	1167	285.05
1033.1845	3056.7868	1177.15	297.5
1033.2941	3057.8136	1163.9	281.8
1033.4037	3058.8398	1166.5	287.5
1033.5132	3059.8653	1167.45	286.95
1033.6227	3060.8902	1163.35	281.5
1033.7321	3061.9145	1163.5	281.45
1033.8415	3062.9381	1159.85	280.55
1033.9509	3063.9612	1177.8	278.1
1034.0602	3064.9835	1159.7	279.45
1034.1694	3066.0053	1154.05	273.75
1034.2787	3067.0264	1147.45	267.9
1034.3878	3068.0469	1148.7	267.1
1034.497	3069.0668	1146.55	261.25
1034.6061	3070.086	1141.25	261.7
1034.7151	3071.1046	1149.2	266.8
1034.8241	3072.1226	1139.65	258.35
1034.9331	3073.1399	1134.15	252.5
1035.042	3074.1567	1131.35	248.6
1035.1508	3075.1727	1119.25	236.75
1035.2597	3076.1882	1115.9	235.3
1035.3684	3077.203	1111.05	229.1
1035.4772	3078.2173	1105.95	225.65
1035.5859	3079.2308	1104.85	222.25
1035.6945	3080.2438	1097.7	215.65
1035.8031	3081.2561	1091.65	212.15
1035.9117	3082.2678	1088.6	208.7
1036.0202	3083.2789	1076.6	197.25
1036.1286	3084.2893	1076.4	195.8
1036.2371	3085.2991	1069.5	189.35
1036.3454	3086.3083	1069.6	181.8
1036.4538	3087.3169	1068.45	184.4
1036.562	3088.3248	1058.25	176.9
1036.6703	3089.3321	1060.45	177.4
1036.7785	3090.3388	1056.15	178.35
1036.8866	3091.3449	1052.1	173.4
1036.9948	3092.3503	1056.3	173.4
1037.1028	3093.3551	1047.2	169.4
1037.2108	3094.3593	1042.8	162.9
1037.3188	3095.3629	1042.8	163.4
1037.4267	3096.3658	1038	155.9
1037.5346	3097.3681	1036.95	157.25
1037.6425	3098.3698	1037.8	157.55
1037.7503	3099.3708	1041.2	154.35
1037.858	3100.3713	1033	153.75
1037.9657	3101.3711	1032.5	151.3
1038.0734	3102.3702	1141.35	149.9
1038.181	3103.3688	1022.6	140.75
1038.2886	3104.3667	1017.8	137.05
1038.3961	3105.364	1018.4	138.4
1038.5036	3106.3607	1019.4	136.75
1038.611	3107.3568	1020.5	139.6
1038.7184	3108.3522	1013.7	134.65
1038.8257	3109.347	1015.1	132.65
1038.933	3110.3412	1018.85	134.55
1039.0403	3111.3348	1008.55	128.6
1039.1475	3112.3277	1005.25	125.65
1039.2547	3113.32	1001.35	119.75
1039.3618	3114.3117	1006	127.25
1039.4689	3115.3028	1006.95	127.2
1039.5759	3116.2932	1005.8	123.1
1039.6829	3117.2831	1005.95	121.15
1039.7898	3118.2723	998.55	119.3
1039.8967	3119.2608	995.2	115.3
1040.0035	3120.2488	1002.05	121.5
1040.1103	3121.2361	994.95	113.85
1040.2171	3122.2229	996.85	117.45
1040.3238	3123.209	992.15	110.25
1040.4305	3124.1944	994.8	113.65
1040.5371	3125.1793	993.1	110.5
1040.6437	3126.1635	989.4	109.2
1040.7502	3127.1471	986.45	106.45
1040.8567	3128.1301	988.5	108.25
1040.9631	3129.1125	986.1	106.75
1041.0695	3130.0942	986.65	107.35
1041.1759	3131.0753	997.65	110.15
1041.2822	3132.0558	986.55	103.85
1041.3884	3133.0357	983.65	103.5
1041.4946	3134.015	984.05	101.9
1041.6008	3134.9936	981.85	100.8
1041.7069	3135.9716	998.05	98.1
1041.813	3136.949	976.1	95.65
1041.919	3137.9258	997.3	97.05
1042.025	3138.902	980.2	95.2
1042.1309	3139.8775	979.8	100.55
1042.2368	3140.8524	974.55	95.4
1042.3427	3141.8267	975.25	94.15
1042.4485	3142.8004	976.05	96.05
1042.5542	3143.7735	977.55	89.85
1042.6599	3144.7459	976.85	95.95
1042.7656	3145.7178	971.65	88.4
1042.8712	3146.689	967.95	90.65
1042.9768	3147.6596	969.2	86.4
1043.0823	3148.6295	971.75	92.35
1043.1878	3149.5989	969.9	89.75
1043.2932	3150.5676	970.6	91.45
1043.3986	3151.5357	965.65	88.65
1043.5039	3152.5032	964.7	85.45
1043.6092	3153.4701	967.95	85.7
1043.7145	3154.4364	968.35	84.6
1043.8197	3155.402	966.1	87.45
1043.9248	3156.367	966.95	84.95
1044.03	3157.3315	1003.5	86.4
1044.135	3158.2952	964.75	85
1044.24	3159.2584	963.95	84.25
1044.345	3160.221	961.8	81.5
1044.4499	3161.1829	962.05	80.6
1044.5548	3162.1442	960.4	79.75
1044.6596	3163.105	964.5	83.35
1044.7644	3164.065	958.5	79
1044.8692	3165.0245	961.7	79.1
1044.9739	3165.9834	957.55	79.05
1045.0785	3166.9416	956.25	77.4
1045.1831	3167.8993	958	77.65
1045.2877	3168.8563	959.45	78.7
1045.3922	3169.8127	961.05	80.4
1045.4966	3170.7684	956.05	77.8
1045.6011	3171.7236	957.9	77.3
1045.7054	3172.6782	956	75.4
1045.8098	3173.6321	958.7	77.25
1045.914	3174.5854	958.35	74.65
1046.0183	3175.5381	954.7	74.7
1046.1224	3176.4902	953.45	74.55
1046.2266	3177.4417	953.05	73.7
1046.3307	3178.3926	953.3	74.85
1046.4347	3179.3428	950.5	71.8
1046.5387	3180.2924	949.2	69.55
1046.6427	3181.2415	950.35	70.65
1046.7466	3182.1899	952	71.35
1046.8504	3183.1377	949.4	70.8
1046.9542	3184.0848	953.6	70.5
1047.058	3185.0314	950.55	69.65
1047.1617	3185.9773	947.5	67.85
1047.2654	3186.9227	947.5	67.5
1047.369	3187.8674	944.9	65.1
1047.4726	3188.8115	953.2	70.65
1047.5761	3189.755	946.9	68.25
1047.6796	3190.6979	946.6	68.65
1047.783	3191.6402	946.55	68.45
1047.8864	3192.5818	944.55	66.15
1047.9898	3193.5229	951.25	66.4
1048.0931	3194.4633	944.1	64.6
1048.1963	3195.4031	946.3	66.3
1048.2995	3196.3423	945	63.85
1048.4027	3197.2809	946.25	64.25
1048.5058	3198.2189	944.25	65.05
1048.6089	3199.1563	960.5	65.05
1048.7119	3200.0931	939.65	61
1048.8148	3201.0292	940.8	61.55
1048.9178	3201.9648	939.5	60.3
1049.0206	3202.8997	943.4	62.3
1049.1235	3203.834	940.85	59.1
1049.2262	3204.7677	937.3	56.35
1049.329	3205.7008	941.15	60.75
1049.4317	3206.6333	935.5	56.4
1049.5343	3207.5652	944.85	62.5
1049.6369	3208.4964	940.2	60.75
1049.7394	3209.4271	935.65	56.7
1049.8419	3210.3571	938.1	60.2
1049.9444	3211.2865	937.85	58.15
1050.0468	3212.2154	939.15	59.55
1050.1491	3213.1436	940.25	56.55
1050.2514	3214.0712	944.95	56.85
1050.3537	3214.9982	937.4	58.45
1050.4559	3215.9246	937.85	56.95
1050.5581	3216.8503	934.6	57.2
1050.6602	3217.7755	934.75	55.45
1050.7623	3218.7001	933.05	54.9
1050.8643	3219.624	937.5	57.25
1050.9663	3220.5473	938.75	60.45
1051.0682	3221.4701	934.45	55.2
1051.1701	3222.3922	933.75	51.85
1051.2719	3223.3137	935.65	55.15
1051.3737	3224.2346	933.2	53.1
1051.4754	3225.1549	931.05	52.65
1051.5771	3226.0746	932.7	53.65
1051.6788	3226.9937	932.45	52.65
1051.7804	3227.9121	931.25	51.8
1051.8819	3228.83	929.2	49.8
1051.9834	3229.7473	931.55	51.55
1052.0849	3230.6639	932	51.15
1052.1863	3231.5799	930.05	51.5
1052.2876	3232.4954	930.75	48.7
1052.3889	3233.4102	927.6	48.3
1052.4902	3234.3244	929.85	47.65
1052.5914	3235.238	928.25	50.95
1052.6926	3236.151	952.15	50.75
1052.7937	3237.0634	927.2	48.7
1052.8948	3237.9752	930.15	51.65
1052.9958	3238.8864	927.65	45.45
1053.0968	3239.797	928.1	48.35
1053.1977	3240.7069	927.65	46.8
1053.2986	3241.6163	931.6	49.7
1053.3994	3242.5251	927.25	47.8
1053.5002	3243.4332	925.05	47.3
1053.6009	3244.3408	924.05	43
1053.7016	3245.2477	923.25	45.6
1053.8022	3246.154	926.6	46.9
1053.9028	3247.0598	925.8	47.05
1054.0034	3247.9649	923.35	43.95
1054.1039	3248.8694	924.85	44.25
1054.2043	3249.7733	922	44.1
1054.3047	3250.6766	922.15	43.55
1054.4051	3251.5793	922.8	41.9
1054.5054	3252.4814	922.7	43.7
1054.6056	3253.3829	921.9	43.1
1054.7058	3254.2838	920.55	41.95
1054.806	3255.1841	919.45	40.8
1054.9061	3256.0838	922.3	44.65
1055.0061	3256.9829	921.5	45.1
1055.1062	3257.8814	921.1	41
1055.2061	3258.7792	920.95	40.65
1055.306	3259.6765	920.65	40.1
1055.4059	3260.5731	917.45	37.85
1055.5057	3261.4692	918.5	39.05
1055.6055	3262.3647	917.4	36.95
1055.7052	3263.2595	914	35.3
1055.8049	3264.1538	914.4	34.95
1055.9045	3265.0474	917.1	38.3
1056.0041	3265.9404	913.3	35.9
1056.1036	3266.8329	912.55	33.4
1056.2031	3267.7247	923.95	35.7
1056.3025	3268.616	910.7	32.65
1056.4019	3269.5066	912.35	31.65
1056.5013	3270.3966	913.5	32.6
1056.6005	3271.286	908.65	30
