Software Version:	3.9.2.0
Unit SN:	10000200
Spectrometer SN:	6960
Date:	3/8/2024 12:28:13 PM
Data Line Index:	25
Spectral Points:	2048
Integration time (ms):	125
Averages:	20
Delay (ms):	30000
Sequence Number:	1
Processing:	dark subtract
Laser Power (mW):	305
Laser Current (mA):	821
Laser Diode Temp (C):	25
Laser Case Temp (C):	26
System Temp (C):	25.9
Spectrometer Temp (C):	23.8
CCD Temp (C):	0.002
Secondary Temp (C):	20.013
Heatsink Temp (C):	20.696
CCDPCB Temp (C):	36.262
SecondaryPCB Temp (C):	29.893

Wavelength	RamanShift	Raw Counts	Dark Subtracted
787.061	30.1047	440.65	33.1
787.2016	32.3739	443.75	35.75
787.3422	34.6426	448.65	41
787.4828	36.9109	453.15	42.8
787.6235	39.1787	460.7	45
787.7642	41.4461	471.3	52.65
787.9049	43.7131	478.5	55.6
788.0456	45.9796	485.1	58.8
788.1863	48.2456	491.55	61.55
788.3271	50.5112	500	67.4
788.4679	52.7764	508.4	71.4
788.6087	55.0411	518.55	77.2
788.7496	57.3054	528.1	81.3
788.8904	59.5692	535.3	88.25
789.0313	61.8326	543.1	93
789.1722	64.0955	555.85	103.05
789.3132	66.3579	571.6	113
789.4541	68.6199	588.45	124.9
789.5951	70.8815	620.75	153.45
789.7361	73.1426	691	219.35
789.8771	75.4032	876.45	402.85
790.0181	77.6634	1325.2	845.8
790.1592	79.9231	2383.35	1896.3
790.3003	82.1824	4638.7	4134.6
790.4414	84.4412	8638.6	8104.75
790.5825	86.6995	14005.55	13439.85
790.7237	88.9574	19164.8	18568.4
790.8648	91.2148	22597.25	21978.2
791.006	93.4717	24094.75	23465.15
791.1472	95.7282	24198.1	23561.05
791.2885	97.9842	23816.9	23177.3
791.4297	100.2398	23024.95	22381.55
791.571	102.4949	22234.8	21589.25
791.7123	104.7495	21344.4	20695.6
791.8536	107.0036	20472.2	19820.5
791.9949	109.2573	19667.65	19017.8
792.1363	111.5105	18954.2	18302.9
792.2777	113.7632	18333.1	17682.75
792.4191	116.0154	17848.15	17182.2
792.5605	118.2672	17451	16788.45
792.7019	120.5185	17096.3	16433.6
792.8434	122.7693	16802.3	16136.35
792.9849	125.0197	16589.85	15918.8
793.1264	127.2696	16321.2	15650.2
793.2679	129.519	16152.85	15479.9
793.4094	131.7679	15834.1	15152.65
793.551	134.0163	15588.95	14904.1
793.6926	136.2642	15231.85	14546.15
793.8342	138.5117	14878.6	14181.85
793.9758	140.7587	14485.7	13796.4
794.1175	143.0052	14153.05	13461
794.2591	145.2512	13807.45	13113.4
794.4008	147.4967	13512.05	12818.35
794.5425	149.7417	13275.9	12582
794.6842	151.9863	13123.05	12421.6
794.826	154.2304	12970.2	12264.55
794.9677	156.4739	12843	12135.8
795.1095	158.717	12718.4	12008.75
795.2513	160.9596	12567.9	11851.5
795.3931	163.2017	12339.6	11625
795.535	165.4433	12056.1	11338.05
795.6768	167.6844	11767.75	11047.1
795.8187	169.925	11489.25	10764.95
795.9606	172.1651	11175.1	10448.6
796.1025	174.4047	10938.75	10216
796.2445	176.6439	10727.25	9999.45
796.3864	178.8825	10553.35	9820.65
796.5284	181.1206	10405.05	9665.8
796.6704	183.3582	10278.4	9536.95
796.8124	185.5954	10209.15	9464.85
796.9544	187.832	10156.3	9406.7
797.0965	190.0681	10114.85	9364
797.2386	192.3037	10108.3	9352.35
797.3806	194.5388	10090.3	9331.3
797.5228	196.7734	10131.85	9372.4
797.6649	199.0075	10167.7	9409.25
797.807	201.2411	10270.7	9509.5
797.9492	203.4742	10371.1	9604.9
798.0914	205.7068	10475.45	9704.2
798.2336	207.9389	10577.2	9808.3
798.3758	210.1704	10723.1	9958.85
798.518	212.4015	10794.25	10044.8
798.6603	214.632	10937.5	10189.85
798.8025	216.862	11054.7	10310.2
798.9448	219.0915	11122.6	10372.55
799.0871	221.3205	11197.65	10448.15
799.2294	223.549	11256.5	10514.65
799.3718	225.777	11304.95	10556.55
799.5141	228.0044	11364.7	10609.5
799.6565	230.2314	11406.25	10654.5
799.7989	232.4578	11468.4	10712.25
799.9413	234.6837	11536.7	10773.3
800.0837	236.909	11591.35	10826.7
800.2262	239.1339	11583.2	10793.1
800.3687	241.3582	11529	10752.65
800.5111	243.582	11479	10671.35
800.6536	245.8053	11446.35	10651.4
800.7961	248.0281	11416.85	10631.15
800.9387	250.2503	11443.55	10647.5
801.0812	252.472	11518.7	10723.2
801.2238	254.6932	11656.1	10863.65
801.3664	256.9139	11797.55	11001.9
801.509	259.134	11981.35	11181.25
801.6516	261.3536	12201.25	11402.35
801.7942	263.5727	12560.45	11759.7
801.9369	265.7912	12842.1	12044.8
802.0795	268.0092	13133.95	12336.35
802.2222	270.2267	13351.75	12553.75
802.3649	272.4436	13457.7	12655.5
802.5076	274.6601	13530.3	12716
802.6504	276.8759	13463.5	12660.25
802.7931	279.0913	13383.85	12577.35
802.9359	281.3061	13251.4	12443.2
803.0787	283.5204	13171.85	12359.8
803.2215	285.7341	13155.2	12340.65
803.3643	287.9473	13175.65	12350.3
803.5071	290.16	13162.4	12345.65
803.6499	292.3721	13217.85	12406.5
803.7928	294.5837	13361.45	12543
803.9357	296.7947	13515.9	12700.15
804.0786	299.0052	13669.7	12850.65
804.2215	301.2152	13636.2	12817.65
804.3644	303.4246	13553.4	12740.25
804.5074	305.6334	13301.3	12486.9
804.6503	307.8418	12954.6	12138.1
804.7933	310.0495	12567.3	11745.7
804.9363	312.2568	12223.3	11400.8
805.0793	314.4635	11817.5	10996.75
805.2223	316.6696	11522.15	10695.55
805.3653	318.8752	11274.2	10438.3
805.5084	321.0802	11196	10367.05
805.6514	323.2847	11194	10359.9
805.7945	325.4887	11183.7	10354.75
805.9376	327.692	11194.75	10364.3
806.0807	329.8949	11163.35	10331.7
806.2238	332.0972	11005.5	10173.75
806.367	334.2989	10863.6	10024.55
806.5101	336.5001	10655.3	9817.55
806.6533	338.7007	10458.2	9620.2
806.7965	340.9008	10283.85	9448.8
806.9397	343.1003	10151.6	9312.4
807.0829	345.2992	10009.35	9168.3
807.2261	347.4976	9902	9064.8
807.3693	349.6955	9838.45	8990.25
807.5126	351.8927	9804.9	8957.2
807.6559	354.0895	9734.4	8875.35
807.7991	356.2856	9697.2	8847.15
807.9424	358.4812	9635.75	8788.85
808.0857	360.6763	9637.95	8786.75
808.2291	362.8707	9618.45	8765.8
808.3724	365.0646	9666.6	8815.1
808.5158	367.258	9716.05	8860.35
808.6591	369.4508	9760	8900.3
808.8025	371.643	9894.45	9033
808.9459	373.8346	10018.35	9153.75
809.0893	376.0257	10099.75	9239.6
809.2327	378.2162	10139.05	9280.9
809.3762	380.4062	10130.65	9268.8
809.5196	382.5956	10058	9200.8
809.6631	384.7844	9948.7	9096.65
809.8066	386.9726	9815.05	8959.45
809.9501	389.1603	9743.4	8890.5
810.0936	391.3474	9704.95	8810.75
810.2371	393.5339	9664.6	8809.95
810.3806	395.7199	9624.9	8775.9
810.5241	397.9052	9679.65	8823
810.6677	400.09	9788.05	8934.55
810.8113	402.2743	9934.2	9078.2
810.9548	404.4579	10085.8	9228.4
811.0984	406.641	10287.8	9428.55
811.2421	408.8235	10439.75	9580.7
811.3857	411.0054	10541.6	9677.5
811.5293	413.1868	10673.4	9807.25
811.673	415.3675	10674.7	9805.1
811.8166	417.5477	10621.35	9751.1
811.9603	419.7273	10565.15	9694.65
812.104	421.9064	10541.25	9664.05
812.2477	424.0848	10474.35	9608.7
812.3914	426.2627	10344.9	9472
812.5351	428.4399	10147.3	9276.7
812.6788	430.6166	9898.85	9027.3
812.8226	432.7928	9587.75	8711.5
812.9663	434.9683	9302.8	8429.4
813.1101	437.1432	9127.1	8252.05
813.2539	439.3176	8967.6	8099.8
813.3977	441.4914	8897.2	8034.25
813.5415	443.6645	8844.25	7976.2
813.6853	445.8371	8782.9	7910.95
813.8291	448.0091	8754.95	7881.75
813.973	450.1806	8780.15	7908.45
814.1168	452.3514	8764.1	7892.5
814.2607	454.5216	8804.9	7923.3
814.4046	456.6913	8805.3	7928.3
814.5485	458.8603	8856.25	7983.1
814.6924	461.0288	8887.4	8019.45
814.8363	463.1967	8854.4	7988.9
814.9802	465.3639	8886.25	8014.75
815.1241	467.5306	8829.9	7955
815.2681	469.6967	8829.7	7961.75
815.412	471.8622	8838.95	7970.25
815.556	474.0271	8882.2	8012.65
815.7	476.1914	8896.3	8016.4
815.844	478.3551	8925.9	8049.65
815.988	480.5182	8958.75	8084.55
816.132	482.6807	9034.2	8165.2
816.276	484.8426	9246.25	8383.95
816.4201	487.0039	9558.55	8689.5
816.5641	489.1647	9861	8984.2
816.7082	491.3248	10149.15	9271.6
816.8522	493.4843	10235.5	9363.9
816.9963	495.6432	10174.7	9303.05
817.1404	497.8015	10062.25	9176.65
817.2845	499.9592	9917.3	9029.8
817.4286	502.1163	9728.4	8844.1
817.5727	504.2728	9475.7	8593.85
817.7168	506.4287	9207.9	8333.65
817.861	508.5839	8969.5	8095.9
818.0051	510.7386	8805.4	7927.8
818.1493	512.8927	8733.55	7850.25
818.2935	515.0461	8737.5	7853.45
818.4377	517.199	8837.55	7948.25
818.5818	519.3512	9033.25	8145.1
818.726	521.5029	9297.8	8407.8
818.8703	523.6539	9549.95	8664.7
819.0145	525.8043	9669.65	8778.25
819.1587	527.9541	9584.15	8694.7
819.303	530.1033	9382.5	8496
819.4472	532.2519	9217.9	8327.25
819.5915	534.3999	9118.9	8231.9
819.7357	536.5472	9138.25	8249.5
819.88	538.694	9285.7	8401.6
820.0243	540.8401	9493.55	8603.55
820.1686	542.9856	9612.85	8717.7
820.3129	545.1305	9654.35	8750.95
820.4572	547.2748	9583.95	8676.1
820.6016	549.4185	9456.4	8552.7
820.7459	551.5615	9369.65	8467.6
820.8902	553.704	9426.1	8523.15
821.0346	555.8458	9510.65	8609.2
821.1789	557.987	9692.6	8795.35
821.3233	560.1276	9965.85	9066.85
821.4677	562.2675	10346.6	9447.2
821.6121	564.4069	10890.35	9988.15
821.7565	566.5456	11373.55	10473.85
821.9009	568.6837	11515.95	10618.5
822.0453	570.8212	11160.35	10263.05
822.1897	572.958	10505.6	9607.65
822.3342	575.0942	9871.6	8977.25
822.4786	577.2299	9448.05	8557.95
822.6231	579.3648	9212.5	8332.65
822.7675	581.4992	9114.5	8241.7
822.912	583.6329	9194.6	8321.4
823.0565	585.766	9350.9	8471.5
823.201	587.8985	9483.1	8598.8
823.3454	590.0304	9574.85	8656.1
823.4899	592.1616	9549.85	8648.55
823.6345	594.2922	9441.3	8542.45
823.779	596.4222	9273.2	8369.6
823.9235	598.5515	9079.45	8171.5
824.068	600.6802	8911.5	8006.8
824.2126	602.8083	8805.45	7902.55
824.3571	604.9358	8790.3	7886.9
824.5017	607.0626	8830.05	7921.1
824.6462	609.1888	8923.55	8009.8
824.7908	611.3144	9099.9	8188.55
824.9354	613.4393	9255.65	8347.4
825.08	615.5636	9377.4	8471.25
825.2246	617.6873	9411.5	8504.8
825.3692	619.8103	9378.6	8469.85
825.5138	621.9327	9177.7	8269.2
825.6584	624.0544	8957.2	8049.95
825.803	626.1756	8771.5	7869.65
825.9477	628.2961	8627.7	7717.05
826.0923	630.4159	8555.05	7644.3
826.237	632.5351	8555.45	7644.9
826.3816	634.6537	8543.55	7634.8
826.5263	636.7716	8545.9	7632.1
826.6709	638.8889	8563.85	7649.9
826.8156	641.0056	8583.4	7666.15
826.9603	643.1216	8560.2	7644.55
827.105	645.237	8524.05	7608.65
827.2497	647.3518	8423.1	7515.7
827.3944	649.4659	8351.3	7446.35
827.5391	651.5793	8310.1	7405.35
827.6838	653.6922	8266.5	7360.5
827.8285	655.8043	8258.4	7352
827.9733	657.9159	8262.7	7353.45
828.118	660.0268	8251.25	7343.65
828.2627	662.137	8277.25	7365.65
828.4075	664.2466	8293.2	7379.75
828.5522	666.3556	8282.85	7364.85
828.697	668.4639	8227.15	7314.7
828.8418	670.5716	8196.5	7290.6
828.9865	672.6786	8166.75	7253.9
829.1313	674.785	8088.55	7172.05
829.2761	676.8907	8029.85	7115.2
829.4209	678.9958	8029.95	7121.45
829.5657	681.1002	8019.95	7106.1
829.7105	683.204	7996.1	7070.9
829.8553	685.3072	7990.3	7068.3
830.0001	687.4097	8000.2	7082.55
830.1449	689.5115	7991.95	7073.55
830.2898	691.6127	7984.9	7068.4
830.4346	693.7132	7986.7	7072.95
830.5794	695.8131	8044.15	7111.6
830.7243	697.9123	8058.55	7137.05
830.8691	700.0109	8088.25	7163.35
831.014	702.1089	8114.95	7193.25
831.1588	704.2061	8196.05	7276.9
831.3037	706.3028	8264.65	7341.95
831.4486	708.3987	8291.45	7371.95
831.5935	710.4941	8310.1	7393.45
831.7383	712.5887	8371.95	7451.25
831.8832	714.6827	8371.05	7449.4
832.0281	716.7761	8459.45	7544.4
832.173	718.8688	8599	7676.7
832.3179	720.9608	8698.7	7770.6
832.4628	723.0522	8822.95	7892.05
832.6077	725.1429	8943.55	8018.35
832.7527	727.233	9067.8	8139.65
832.8976	729.3224	9163.5	8243.2
833.0425	731.4112	9112.05	8190.45
833.1874	733.4993	9021.7	8100.15
833.3324	735.5867	8806.7	7886.1
833.4773	737.6735	8560.65	7637.45
833.6222	739.7596	8404.05	7478.45
833.7672	741.845	8250	7328.3
833.9122	743.9298	8182.65	7261
834.0571	746.014	8137.65	7215.6
834.2021	748.0974	8140.05	7211.95
834.347	750.1802	8125.5	7195.9
834.492	752.2624	8148.65	7219.4
834.637	754.3439	8215.8	7285.5
834.782	756.4247	8335.3	7398.6
834.9269	758.5048	8493.15	7566.6
835.0719	760.5843	8734.9	7805.85
835.2169	762.6631	9125.9	8196.05
835.3619	764.7413	9650.25	8721.3
835.5069	766.8188	10283.55	9355.7
835.6519	768.8956	10862.35	9932.55
835.7969	770.9718	11252.5	10322.7
835.9419	773.0473	11217.35	10287.5
836.0869	775.1221	11002.9	10073.6
836.232	777.1962	10789.95	9855.95
836.377	779.2697	10734.8	9804.9
836.522	781.3426	10810.95	9865.8
836.667	783.4147	10882.95	9952.1
836.8121	785.4862	10903	9976.65
836.9571	787.557	10688.15	9753.35
837.1021	789.6271	10265.55	9337.15
837.2472	791.6966	9663.7	8732.8
837.3922	793.7654	9108.9	8176.7
837.5373	795.8335	8722.95	7790.8
837.6823	797.901	8442.3	7515.2
837.8274	799.9678	8274.25	7340.05
837.9724	802.0339	8162	7231.7
838.1175	804.0993	8140.15	7197.05
838.2626	806.1641	8057.1	7122.7
838.4076	808.2282	7996.35	7067.05
838.5527	810.2916	7949.2	7010
838.6978	812.3544	7873.9	6944.95
838.8428	814.4164	7840.8	6909.2
838.9879	816.4778	7881.3	6945.85
839.133	818.5385	7929.2	6992.25
839.2781	820.5986	8064.05	7131.15
839.4232	822.658	8319.25	7383.45
839.5682	824.7166	8655.6	7721.85
839.7133	826.7747	9148.6	8214.25
839.8584	828.832	9718.2	8781.65
840.0035	830.8886	10095.95	9161.7
840.1486	832.9446	10284.15	9348.3
840.2937	834.9999	10136.35	9200.05
840.4388	837.0545	9831.7	8892.1
840.5839	839.1085	9439.5	8498.55
840.729	841.1618	9114.7	8173.65
840.8741	843.2143	8825.8	7890.3
841.0192	845.2662	8628.65	7687.25
841.1643	847.3175	8509.35	7570.65
841.3095	849.368	8413.6	7474.75
841.4546	851.4179	8336.7	7402.05
841.5997	853.467	8251	7313.9
841.7448	855.5155	8205.25	7269.75
841.8899	857.5633	8132.75	7196.2
842.0351	859.6105	8052.6	7117.45
842.1802	861.6569	7983.9	7040.95
842.3253	863.7027	7929.45	6990.05
842.4704	865.7478	7864.05	6925.25
842.6156	867.7922	7830.75	6892.15
842.7607	869.8359	7808.95	6873.05
842.9058	871.8789	7823.9	6883.2
843.0509	873.9212	7919.1	6950.15
843.1961	875.9629	7953.15	7012.25
843.3412	878.0039	8023.45	7089.15
843.4863	880.0441	8095.25	7156.85
843.6315	882.0837	8186	7247.35
843.7766	884.1226	8203.05	7262.6
843.9218	886.1609	8296	7356.15
844.0669	888.1984	8439.45	7500.9
844.212	890.2352	8565.25	7627.5
844.3572	892.2714	8612.95	7669.35
844.5023	894.3069	8565.75	7627.85
844.6475	896.3416	8388.5	7451.95
844.7926	898.3757	8232	7295.25
844.9377	900.4091	8143.85	7200.95
845.0829	902.4418	8165.05	7218.1
845.228	904.4739	8162.35	7216.45
845.3732	906.5052	8228.15	7284.45
845.5183	908.5358	8206.2	7264.45
845.6635	910.5658	8102.8	7159.25
845.8086	912.595	7905.6	6963.25
845.9538	914.6236	7692.45	6751.9
846.0989	916.6515	7560.7	6615.1
846.2441	918.6786	7488.65	6543.4
846.3892	920.7051	7459.95	6515.05
846.5344	922.7309	7496.3	6556.1
846.6795	924.756	7527.2	6583.35
846.8246	926.7804	7559.45	6616.4
846.9698	928.8041	7579.7	6637.85
847.1149	930.8272	7636.9	6696.2
847.2601	932.8495	7630.95	6688.75
847.4052	934.8711	7659.7	6713.7
847.5504	936.892	7608.7	6664.45
847.6955	938.9123	7637.15	6693.6
847.8407	940.9318	7664.8	6724.35
847.9858	942.9506	7695.5	6753.7
848.131	944.9688	7652.65	6708.4
848.2761	946.9862	7555.65	6616.75
848.4213	949.003	7417.8	6472.7
848.5664	951.019	7306.75	6362.8
848.7115	953.0344	7257.15	6312.85
848.8567	955.0491	7245.65	6302.95
849.0018	957.063	7261.9	6320.35
849.147	959.0763	7313.05	6368.9
849.2921	961.0888	7348.65	6405.55
849.4373	963.1007	7411.5	6471.65
849.5824	965.1119	7408.05	6472.6
849.7275	967.1223	7391.9	6464.4
849.8727	969.1321	7373.95	6445.25
850.0178	971.1412	7338.35	6403.85
850.1629	973.1495	7333.85	6396.55
850.3081	975.1572	7371.5	6382.15
850.4532	977.1641	7373.8	6431.25
850.5983	979.1704	7350.65	6410.1
850.7435	981.1759	7310.55	6365.75
850.8886	983.1808	7315.2	6371.1
851.0337	985.1849	7349.6	6396.95
851.1788	987.1884	7384.8	6440.55
851.324	989.1911	7445.1	6501.25
851.4691	991.1932	7498.55	6558.75
851.6142	993.1945	7495.3	6556.35
851.7593	995.1951	7481.1	6542.55
851.9045	997.1951	7470.45	6522.55
852.0496	999.1943	7434.2	6490
852.1947	1001.1928	7436.2	6491.2
852.3398	1003.1906	7491.95	6550.65
852.4849	1005.1877	7617.9	6674.2
852.63	1007.1841	7727.25	6785.25
852.7751	1009.1798	7754.15	6815.2
852.9202	1011.1748	7696.55	6756
853.0653	1013.1691	7579	6637.45
853.2104	1015.1627	7405.95	6467
853.3555	1017.1556	7235.7	6296.25
853.5006	1019.1477	7103.95	6166.65
853.6457	1021.1392	7031.2	6100.05
853.7908	1023.1299	7008.9	6076.35
853.9359	1025.12	7007.15	6080.25
854.081	1027.1093	7052.55	6135.85
854.2261	1029.0979	7168.85	6255.35
854.3712	1031.0859	7261.5	6340.4
854.5163	1033.0731	7280.5	6354.3
854.6613	1035.0596	7273.3	6342.2
854.8064	1037.0454	7192.7	6254.25
854.9515	1039.0304	7090.2	6154.35
855.0965	1041.0148	7012.45	6075.25
855.2416	1042.9985	6927.2	5987
855.3867	1044.9814	6885.4	5946.4
855.5317	1046.9636	6843.1	5901.45
855.6768	1048.9452	6836.25	5897.15
855.8219	1050.926	6883.4	5945.65
855.9669	1052.9061	6911.25	5972.2
856.112	1054.8855	6943.4	6003.95
856.257	1056.8642	6973.45	6033.55
856.4021	1058.8421	7018.25	6072.05
856.5471	1060.8194	7040.9	6098.1
856.6921	1062.7959	7094.3	6154.35
856.8372	1064.7717	7133.7	6193.2
856.9822	1066.7469	7225	6286.85
857.1272	1068.7213	7330.75	6387.85
857.2723	1070.695	7404.85	6466.95
857.4173	1072.6679	7450.95	6509.95
857.5623	1074.6402	7491.1	6549.1
857.7073	1076.6117	7436.6	6494.95
857.8523	1078.5826	7338.3	6397.95
857.9973	1080.5527	7208	6264.7
858.1423	1082.5221	7092.05	6150.8
858.2873	1084.4908	7024.4	6085.1
858.4323	1086.4587	7018.15	6077.9
858.5773	1088.426	7027.4	6086.95
858.7223	1090.3925	7042.45	6095.8
858.8673	1092.3584	7080.15	6140.95
859.0123	1094.3235	7123.1	6184.25
859.1573	1096.2879	7224.5	6282.85
859.3022	1098.2515	7363.1	6423.95
859.4472	1100.2145	7517.1	6579.1
859.5922	1102.1767	7735.15	6793.4
859.7371	1104.1382	7928.4	6990.7
859.8821	1106.099	8161.8	7219.65
860.027	1108.0591	8387.25	7450.2
860.172	1110.0185	8509.45	7568.25
860.3169	1111.9771	8574.4	7637.8
860.4619	1113.9351	8542.95	7604.55
860.6068	1115.8923	8434.85	7493.95
860.7517	1117.8488	8346.5	7404.9
860.8967	1119.8045	8213.55	7272.9
861.0416	1121.7596	8106.2	7167.1
861.1865	1123.7139	7956.5	7019.05
861.3314	1125.6675	7886.85	6948.75
861.4763	1127.6204	7948.2	7012.4
861.6212	1129.5726	7904.1	6964.65
861.7661	1131.524	7790.1	6854.2
861.911	1133.4748	7652.45	6714.1
862.0559	1135.4248	7460.6	6521.8
862.2008	1137.3741	7309.8	6373.5
862.3457	1139.3226	7192.9	6254.05
862.4905	1141.2705	7148.5	6210.1
862.6354	1143.2176	7078.45	6134.25
862.7803	1145.164	7047.55	6108.35
862.9251	1147.1097	6966.85	6028.55
863.07	1149.0546	6855.4	5916.3
863.2148	1150.9989	6764.2	5824.8
863.3597	1152.9424	6686.85	5747.4
863.5045	1154.8852	6614.05	5675.9
863.6493	1156.8272	6595.75	5657.8
863.7942	1158.7686	6637.1	5688.2
863.939	1160.7092	6648.1	5706.3
864.0838	1162.6491	6695.55	5758.6
864.2286	1164.5883	6812.3	5873.4
864.3734	1166.5267	6911.85	5973.8
864.5182	1168.4644	7057.4	6119.3
864.663	1170.4014	7234.6	6292.15
864.8078	1172.3377	7448.8	6515.85
864.9526	1174.2732	7770.55	6836.8
865.0974	1176.2081	8180.8	7243.4
865.2421	1178.1421	8673.9	7731.7
865.3869	1180.0755	9204.8	8270.5
865.5317	1182.0082	9613.3	8677.95
865.6764	1183.9401	9764.5	8828.6
865.8212	1185.8713	9620.7	8690.95
865.9659	1187.8017	9287.55	8361.3
866.1106	1189.7315	8881.2	7964.5
866.2554	1191.6605	8492.75	7572.4
866.4001	1193.5888	8224.95	7302.65
866.5448	1195.5163	8068.9	7139.05
866.6895	1197.4432	7968.25	7036.6
866.8342	1199.3693	7926.75	6991.65
866.9789	1201.2947	7893.75	6956.6
867.1236	1203.2193	7875.4	6941.95
867.2683	1205.1432	7858.8	6923.65
867.413	1207.0664	7816.55	6880.6
867.5576	1208.9889	7819.9	6881.35
867.7023	1210.9106	7781	6849.25
867.847	1212.8316	7764.95	6828.3
867.9916	1214.7519	7805.7	6860.3
868.1363	1216.6715	7833.55	6900.2
868.2809	1218.5903	7924.4	6990.45
868.4255	1220.5084	8000.8	7065.4
868.5701	1222.4257	8112.4	7177.55
868.7148	1224.3424	8208.75	7275.6
868.8594	1226.2583	8340.05	7406.4
869.004	1228.1735	8472.8	7541.95
869.1486	1230.0879	8614.3	7679.75
869.2932	1232.0016	8828.2	7894
869.4377	1233.9146	8990.6	8055.9
869.5823	1235.8269	9051.7	8118.5
869.7269	1237.7384	9007.6	8075.55
869.8715	1239.6492	8955.45	8022.95
870.016	1241.5592	8956.5	8021.15
870.1606	1243.4686	9060.25	8128.95
870.3051	1245.3772	9256.8	8325.7
870.4496	1247.285	9518.15	8582.9
870.5941	1249.1922	9749.55	8820.2
870.7387	1251.0986	9927.25	8995.25
870.8832	1253.0042	10090	9157.5
871.0277	1254.9092	10192.05	9261.75
871.1722	1256.8134	10284.7	9351
871.3167	1258.7169	10408.65	9477.45
871.4611	1260.6196	10531.45	9601.95
871.6056	1262.5216	10725.1	9790.8
871.7501	1264.4229	10904.7	9975.15
871.8945	1266.3234	11110.35	10178.3
872.039	1268.2232	11245.1	10312.15
872.1834	1270.1223	11310.55	10376.9
872.3278	1272.0207	11366.55	10435.15
872.4723	1273.9183	11355.1	10417.15
872.6167	1275.8151	11301.9	10370.7
872.7611	1277.7113	11303.8	10375.65
872.9055	1279.6067	11425.4	10495.65
873.0499	1281.5014	11740.75	10806.15
873.1943	1283.3953	12209.3	11274.9
873.3386	1285.2885	12815.1	11884.7
873.483	1287.181	13404.5	12475.3
873.6274	1289.0727	13973.9	13044.45
873.7717	1290.9637	14348.85	13417.6
873.9161	1292.854	14563.5	13632.7
874.0604	1294.7435	14534.95	13604.2
874.2047	1296.6323	14378.75	13444.5
874.349	1298.5204	14115.9	13182.25
874.4933	1300.4077	13817.5	12884.6
874.6376	1302.2943	13483.95	12554
874.7819	1304.1802	13120.3	12190.15
874.9262	1306.0653	12613.15	11678.6
875.0705	1307.9497	12096.7	11169.55
875.2147	1309.8333	11655.35	10724.85
875.359	1311.7162	11284.25	10353.25
875.5032	1313.5984	11059.3	10123.85
875.6475	1315.4798	10922.5	9989.45
875.7917	1317.3605	10794.25	9849.6
875.9359	1319.2405	10624.6	9692.55
876.0801	1321.1197	10400.15	9465.85
876.2243	1322.9982	10073.05	9138.5
876.3685	1324.876	9765.4	8836.45
876.5127	1326.753	9417.8	8485.85
876.6569	1328.6293	9183.15	8248.65
876.801	1330.5048	8971.95	8037.2
876.9452	1332.3796	8764.1	7830.75
877.0893	1334.2537	8694.8	7735.15
877.2335	1336.127	8580.2	7646.8
877.3776	1337.9996	8514.8	7581.35
877.5217	1339.8714	8498.65	7565.8
877.6658	1341.7426	8578	7599.25
877.8099	1343.6129	8568	7635.2
877.954	1345.4826	8537.25	7606.4
878.0981	1347.3515	8544.05	7606.35
878.2422	1349.2196	8533.2	7597.95
878.3862	1351.087	8568.05	7632.85
878.5303	1352.9537	8622.15	7690.05
878.6743	1354.8197	8692.25	7758.9
878.8184	1356.6849	8836.9	7902.9
878.9624	1358.5493	8984.8	8054.65
879.1064	1360.4131	9189.6	8259
879.2504	1362.276	9375.7	8446.15
879.3944	1364.1383	9418.6	8487.9
879.5384	1365.9998	9255.7	8316.6
879.6823	1367.8606	8964.1	8030.05
879.8263	1369.7206	8640.65	7705.2
879.9702	1371.5799	8385.7	7449.85
880.1142	1373.4384	8087.2	7158.6
880.2581	1375.2962	7879.05	6949.25
880.402	1377.1533	7583.15	6653.45
880.5459	1379.0096	7255.15	6326.75
880.6898	1380.8652	6932.5	6006.45
880.8337	1382.7201	6674.45	5747.95
880.9776	1384.5742	6464.05	5535.45
881.1215	1386.4275	6311	5380.25
881.2653	1388.2802	6175.4	5245.65
881.4092	1390.132	6079.35	5146.9
881.553	1391.9832	6009.35	5075.35
881.6968	1393.8336	5946.55	5016.05
881.8406	1395.6832	5901.9	4968.25
881.9844	1397.5322	5851.9	4924.8
882.1282	1399.3803	5837.8	4902.6
882.272	1401.2278	5798.05	4868
882.4158	1403.0745	5818.2	4888.6
882.5595	1404.9204	5792.05	4864.5
882.7033	1406.7656	5785	4856.35
882.847	1408.6101	5797.3	4867.45
882.9908	1410.4538	5815.2	4885.9
883.1345	1412.2968	5871.75	4941.35
883.2782	1414.139	5888.85	4958.95
883.4219	1415.9805	5964.35	5039.1
883.5656	1417.8213	6015.4	5081.75
883.7092	1419.6613	6122.2	5193.35
883.8529	1421.5006	6247.35	5319.35
883.9965	1423.3391	6405.1	5477.2
884.1402	1425.1769	6662.85	5733.4
884.2838	1427.0139	7023.45	6097.6
884.4274	1428.8502	7495	6564.5
884.571	1430.6858	7956.1	7028.8
884.7146	1432.5206	8296.4	7368.9
884.8582	1434.3547	8502.25	7576.7
885.0018	1436.188	8519.05	7591.65
885.1453	1438.0206	8444.75	7514.15
885.2889	1439.8524	8300.8	7371.95
885.4324	1441.6835	8194.65	7266.6
885.5759	1443.5139	8136.55	7205.9
885.7194	1445.3435	8054.2	7126.55
885.8629	1447.1724	8046.4	7121.25
886.0064	1449.0005	7994.2	7068.95
886.1499	1450.8279	7964.45	7037.3
886.2933	1452.6545	7934.85	7008.4
886.4368	1454.4804	7982.35	7058.55
886.5802	1456.3056	7969.35	7039.55
886.7237	1458.13	7921.25	6998.35
886.8671	1459.9536	7796.45	6870.1
887.0105	1461.7766	7585.7	6662.2
887.1539	1463.5987	7321.95	6392.75
887.2972	1465.4202	7031.75	6101.6
887.4406	1467.2409	6745.2	5820.3
887.584	1469.0608	6507.3	5580.3
887.7273	1470.88	6274.3	5349.95
887.8706	1472.6984	6068.3	5143.3
888.0139	1474.5161	5903.2	4975.35
888.1572	1476.3331	5764.1	4839.35
888.3005	1478.1493	5688.3	4762.15
888.4438	1479.9648	5618.8	4692.55
888.5871	1481.7795	5545.25	4618
888.7303	1483.5935	5490.45	4565.6
888.8736	1485.4067	5445.4	4518.6
889.0168	1487.2192	5430.7	4503.7
889.16	1489.031	5410.45	4484.45
889.3032	1490.842	5368.7	4445.55
889.4464	1492.6522	5342.1	4418.9
889.5896	1494.4618	5300.3	4376.65
889.7327	1496.2705	5273.8	4348.85
889.8759	1498.0785	5253.75	4328.4
890.019	1499.8858	5201.45	4275.8
890.1622	1501.6924	5178.5	4254.55
890.3053	1503.4981	5134.65	4211.2
890.4484	1505.3032	5099.05	4173.35
890.5914	1507.1075	5036.6	4110.8
890.7345	1508.911	5005.75	4080.8
890.8776	1510.7138	4991.75	4065.25
891.0206	1512.5159	4942.55	4020.6
891.1637	1514.3172	4897.8	3975.9
891.3067	1516.1178	4854.05	3932.6
891.4497	1517.9176	4826.45	3904.5
891.5927	1519.7166	4805.9	3888
891.7357	1521.515	4785.3	3854.4
891.8786	1523.3126	4778.1	3855.95
892.0216	1525.1094	4766.85	3843.95
892.1645	1526.9055	4732.7	3812.35
892.3074	1528.7008	4712.8	3789.75
892.4503	1530.4954	4686.75	3767.7
892.5932	1532.2893	4680.4	3761.7
892.7361	1534.0824	4662	3736.2
892.879	1535.8747	4670.3	3753.15
893.0218	1537.6663	4655.35	3737.1
893.1647	1539.4572	4666.85	3746.9
893.3075	1541.2473	4669.75	3750.85
893.4503	1543.0367	4685.45	3764.95
893.5931	1544.8253	4675.95	3754.75
893.7359	1546.6132	4740.7	3816.95
893.8787	1548.4003	4773.3	3844.7
894.0214	1550.1867	4827.65	3901.35
894.1642	1551.9723	4889.05	3967.5
894.3069	1553.7572	4986.1	4070.15
894.4496	1555.5414	5104.95	4187.45
894.5923	1557.3247	5246.4	4332.2
894.735	1559.1074	5404.4	4491.45
894.8777	1560.8893	5575.3	4662.5
895.0204	1562.6705	5745.95	4834.6
895.163	1564.4509	5876.6	4962.2
895.3056	1566.2305	5940	5030.95
895.4482	1568.0094	5993.75	5083.95
895.5908	1569.7876	5963.85	5055.75
895.7334	1571.565	5961.8	5050.8
895.876	1573.3417	5959.9	5047.6
896.0186	1575.1176	5971.6	5061.5
896.1611	1576.8928	5977.6	5068.35
896.3036	1578.6672	5994.05	5088.8
896.4461	1580.4409	6052.45	5149.75
896.5886	1582.2138	6112.5	5204.7
896.7311	1583.986	6207.35	5299.95
896.8736	1585.7575	6305.15	5395.9
897.0161	1587.5282	6419.95	5513.85
897.1585	1589.2981	6549.8	5643.8
897.3009	1591.0673	6678.45	5771.9
897.4433	1592.8358	6794.3	5887.85
897.5857	1594.6035	6929.8	6020.35
897.7281	1596.3704	7016.45	6107.05
897.8705	1598.1366	7124.1	6216.4
898.0128	1599.9021	7221.1	6315.85
898.1551	1601.6668	7310	6399.45
898.2975	1603.4308	7408.55	6500.35
898.4398	1605.194	7593.75	6681
898.5821	1606.9564	7782.6	6879.6
898.7243	1608.7182	8050.7	7150.2
898.8666	1610.4791	8341.95	7445.8
899.0088	1612.2394	8673.25	7778.25
899.1511	1613.9988	9002.1	8102.25
899.2933	1615.7576	9294.15	8394.35
899.4355	1617.5156	9472.15	8560.85
899.5776	1619.2728	9536.45	8627.5
899.7198	1621.0293	9377.45	8473.45
899.862	1622.785	9135.85	8227.65
900.0041	1624.54	8753.1	7850.55
900.1462	1626.2942	8331.05	7429.45
900.2883	1628.0477	7911.2	7009.25
900.4304	1629.8005	7518.1	6614.95
900.5725	1631.5525	7189.95	6287
900.7145	1633.3037	6872.65	5972.65
900.8566	1635.0542	6637.8	5736
900.9986	1636.804	6463.9	5561.5
901.1406	1638.553	6370.9	5409.7
901.2826	1640.3013	6233.5	5330.7
901.4245	1642.0488	6174.8	5274.4
901.5665	1643.7955	6170.65	5273.2
901.7085	1645.5416	6213.9	5315.45
901.8504	1647.2868	6291.25	5390.3
901.9923	1649.0313	6390.8	5488.45
902.1342	1650.7751	6517.05	5613.85
902.2761	1652.5181	6648.7	5749.75
902.4179	1654.2604	6788.75	5888.6
902.5598	1656.0019	7006.3	6107.9
902.7016	1657.7427	7227.7	6326.25
902.8434	1659.4828	7455.6	6553.9
902.9852	1661.222	7591.95	6690.95
903.127	1662.9606	7584.7	6683.65
903.2687	1664.6984	7378.45	6475.35
903.4105	1666.4354	7006.45	6103.1
903.5522	1668.1717	6504.6	5600.35
903.6939	1669.9072	6028.3	5125
903.8356	1671.642	5613.85	4707.6
903.9773	1673.3761	5252.6	4350.25
904.119	1675.1094	4945.35	4044.25
904.2606	1676.8419	4740.35	3839.25
904.4022	1678.5737	4546.45	3644.5
904.5439	1680.3048	4413.6	3508.6
904.6855	1682.0351	4295.95	3395.2
904.827	1683.7646	4202	3298.2
904.9686	1685.4934	4122.85	3221.5
905.1101	1687.2215	4047.25	3149.15
905.2517	1688.9488	3973.55	3073.65
905.3932	1690.6754	3924.85	3027.05
905.5347	1692.4012	3887.1	2986.3
905.6761	1694.1263	3833.5	2935.45
905.8176	1695.8506	3789.35	2890.65
905.9591	1697.5742	3782.45	2883.15
906.1005	1699.297	3723.85	2828.4
906.2419	1701.0191	3693.4	2795.55
906.3833	1702.7404	3640.75	2743.15
906.5246	1704.461	3616.45	2718
906.666	1706.1808	3596	2694.85
906.8073	1707.8999	3574.5	2677.75
906.9487	1709.6182	3550.15	2654.35
907.09	1711.3358	3543.5	2648.35
907.2313	1713.0527	3522.3	2630.2
907.3725	1714.7688	3494.15	2593.85
907.5138	1716.4841	3476.5	2578.2
907.655	1718.1987	3457.85	2554
907.7962	1719.9126	3448.75	2553.4
907.9374	1721.6257	3415.3	2520.15
908.0786	1723.338	3421.65	2526.3
908.2198	1725.0496	3411.15	2514
908.3609	1726.7605	3401.05	2504.85
908.502	1728.4706	3392.7	2496.05
908.6431	1730.18	3368.55	2471.7
908.7842	1731.8886	3367	2474.05
908.9253	1733.5964	3369.5	2453.5
909.0664	1735.3036	3353.65	2455.95
909.2074	1737.0099	3325.6	2432.55
909.3484	1738.7156	3308.35	2416.3
909.4894	1740.4204	3280.95	2384.4
909.6304	1742.1246	3273.25	2375.1
909.7714	1743.8279	3242.2	2348.35
909.9123	1745.5306	3237.55	2342.65
910.0532	1747.2325	3222.55	2330.35
910.1941	1748.9336	3201.25	2306.8
910.335	1750.634	3192.4	2294.8
910.4759	1752.3336	3179.35	2287.2
910.6168	1754.0325	3167.6	2275.1
910.7576	1755.7307	3155.9	2264.1
910.8984	1757.4281	3151.5	2255.45
911.0392	1759.1247	3168.75	2262.8
911.18	1760.8206	3147.2	2244.05
911.3208	1762.5158	3145.25	2246
911.4615	1764.2102	3139.05	2242.9
911.6022	1765.9039	3123.05	2230.4
911.7429	1767.5968	3103.65	2210.4
911.8836	1769.289	3099.6	2206.35
912.0243	1770.9804	3097.05	2201.8
912.1649	1772.6711	3097.75	2198.2
912.3056	1774.361	3086.5	2190.05
912.4462	1776.0502	3089.55	2193.6
912.5868	1777.7386	3082.25	2182.45
912.7274	1779.4263	3066.7	2172.35
912.8679	1781.1132	3063.05	2168.9
913.0084	1782.7994	3046.05	2152.6
913.149	1784.4849	3044.85	2151.75
913.2895	1786.1696	3053.45	2141.5
913.4299	1787.8535	3045.95	2155.5
913.5704	1789.5367	3020.55	2130.2
913.7108	1791.2192	3018.95	2127.75
913.8513	1792.9009	3024.8	2105
913.9917	1794.5818	3016.2	2119.6
914.132	1796.2621	3010.65	2117.2
914.2724	1797.9415	2991.95	2095
914.4128	1799.6202	2989.05	2092.85
914.5531	1801.2982	2984	2089.55
914.6934	1802.9755	2986.25	2090.15
914.8337	1804.6519	2972.65	2078.25
914.9739	1806.3277	2970.8	2079.15
915.1142	1808.0027	2949.75	2059.4
915.2544	1809.6769	2948.95	2058.25
915.3946	1811.3504	2932.15	2041.95
915.5348	1813.0231	2931.45	2042.4
915.675	1814.6951	2935.85	2043.65
915.8151	1816.3664	2942.75	2046.1
915.9553	1818.0369	2931.5	2036.7
916.0954	1819.7067	2920.65	2028.85
916.2355	1821.3757	2926.95	2029.45
916.3755	1823.044	2917.9	2024.65
916.5156	1824.7115	2917.6	2023.3
916.6556	1826.3783	2903.25	2010.6
916.7956	1828.0443	2890.4	1999.25
916.9356	1829.7096	2892.9	1997.2
917.0756	1831.3741	2905	2007.55
917.2155	1833.0379	2896.9	2004.3
917.3555	1834.701	2881.7	1988.5
917.4954	1836.3633	2870.9	1979.15
917.6353	1838.0248	2858.3	1965.2
917.7751	1839.6856	2866.2	1975.85
917.915	1841.3457	2859.25	1966.1
918.0548	1843.005	2860.8	1968
918.1946	1844.6636	2855.15	1960.3
918.3344	1846.3214	2855.5	1961.55
918.4742	1847.9785	2854.35	1962.5
918.6139	1849.6349	2845.45	1950.75
918.7537	1851.2904	2864.2	1958.05
918.8934	1852.9453	2848.3	1952.95
919.0331	1854.5994	2851.3	1956.75
919.1727	1856.2528	2849.4	1950.75
919.3124	1857.9054	2828.4	1935.4
919.452	1859.5572	2837.25	1946.2
919.5916	1861.2083	2819.95	1925.15
919.7312	1862.8587	2820.85	1926.6
919.8708	1864.5084	2822.2	1925.35
920.0103	1866.1572	2799.55	1903
920.1498	1867.8054	2798.45	1901.1
920.2893	1869.4528	2794.7	1899.7
920.4288	1871.0994	2790.85	1896.45
920.5683	1872.7453	2781.05	1885.35
920.7077	1874.3905	2783.25	1884.85
920.8471	1876.0349	2767.6	1872.35
920.9865	1877.6786	2780.85	1885.6
921.1259	1879.3215	2757.6	1863.85
921.2653	1880.9637	2768.1	1875.25
921.4046	1882.6051	2761.35	1870.35
921.5439	1884.2458	2767.6	1875
921.6832	1885.8858	2747.8	1853.25
921.8225	1887.525	2749.3	1856.4
921.9617	1889.1634	2737.5	1844.25
922.101	1890.8011	2726.75	1830.4
922.2402	1892.4381	2720.9	1826.95
922.3794	1894.0743	2727.2	1834.9
922.5185	1895.7098	2719	1825.8
922.6577	1897.3446	2715.1	1819.55
922.7968	1898.9786	2712.15	1814.6
922.9359	1900.6118	2701.55	1808.7
923.075	1902.2443	2707.85	1813.1
923.214	1903.8761	2690.85	1796.9
923.3531	1905.5071	2675.95	1781.8
923.4921	1907.1374	2676.85	1785.15
923.6311	1908.7669	2663.85	1771.15
923.77	1910.3957	2668.4	1776.3
923.909	1912.0237	2648.35	1754.5
924.0479	1913.651	2652.55	1757.25
924.1868	1915.2776	2647.75	1759.05
924.3257	1916.9034	2635.35	1743.65
924.4646	1918.5285	2643.5	1754.6
924.6034	1920.1528	2634.7	1741.85
924.7422	1921.7764	2619.5	1727.05
924.881	1923.3992	2614.1	1723.05
925.0198	1925.0213	2612.9	1721.3
925.1586	1926.6427	2597.4	1707.65
925.2973	1928.2633	2669.1	1690.35
925.436	1929.8832	2599.1	1703.3
925.5747	1931.5023	2598.5	1708.15
925.7134	1933.1207	2582.5	1691.75
925.852	1934.7383	2578	1687.75
925.9906	1936.3552	2578.95	1687.95
926.1292	1937.9714	2561.4	1670.1
926.2678	1939.5868	2561.1	1664.9
926.4064	1941.2015	2554.8	1658.65
926.5449	1942.8154	2547.4	1653.65
926.6834	1944.4286	2546.1	1650.5
926.8219	1946.041	2559	1645.1
926.9604	1947.6528	2532.3	1636.45
927.0988	1949.2637	2523.4	1632.6
927.2372	1950.8739	2516.85	1625.65
927.3756	1952.4834	2509.75	1617
927.514	1954.0921	2509.25	1616.2
927.6523	1955.7001	2503.2	1607.7
927.7907	1957.3074	2503.45	1614.7
927.929	1958.9139	2497.9	1607.6
928.0673	1960.5197	2482.45	1592.2
928.2055	1962.1247	2478.4	1587.65
928.3438	1963.729	2461.85	1572.95
928.482	1965.3325	2455.05	1558.9
928.6202	1966.9353	2461.15	1572.85
928.7584	1968.5374	2446	1555.75
928.8965	1970.1387	2443.5	1554.25
929.0346	1971.7393	2453.5	1562.05
929.1727	1973.3392	2440.05	1550.25
929.3108	1974.9383	2426.45	1537.25
929.4489	1976.5366	2425.65	1537
929.5869	1978.1342	2417.05	1528.1
929.7249	1979.7311	2422.65	1534.05
929.8629	1981.3273	2425.1	1537.1
930.0009	1982.9227	2405.7	1516.25
930.1388	1984.5173	2407.75	1521.65
930.2767	1986.1112	2400.4	1513.65
930.4146	1987.7044	2398.6	1512.65
930.5525	1989.2968	2393.7	1504.3
930.6904	1990.8885	2393.95	1502.75
930.8282	1992.4795	2385	1496.05
930.966	1994.0697	2378.9	1492.95
931.1038	1995.6592	2368.9	1481.65
931.2415	1997.2479	2366.9	1479.65
931.3793	1998.8359	2367.85	1482.35
931.517	2000.4232	2348.5	1465.1
931.6547	2002.0097	2345.9	1463.15
931.7923	2003.5955	2338.4	1454.05
931.93	2005.1805	2352.6	1465.3
932.0676	2006.7648	2353	1468.75
932.2052	2008.3484	2335.2	1451.75
932.3427	2009.9312	2341.45	1457.6
932.4803	2011.5133	2328.5	1447.75
932.6178	2013.0946	2330.35	1445.3
932.7553	2014.6752	2326.4	1443.2
932.8928	2016.2551	2317.75	1430.7
933.0302	2017.8342	2315.8	1430.25
933.1676	2019.4126	2314.9	1432.8
933.305	2020.9902	2300.9	1418
933.4424	2022.5672	2304.65	1420.3
933.5798	2024.1433	2293.8	1407.1
933.7171	2025.7188	2288.55	1408.9
933.8544	2027.2935	2297.05	1411.9
933.9917	2028.8674	2279.7	1398.3
934.129	2030.4406	2274.25	1393.75
934.2662	2032.0131	2267.95	1387.25
934.4034	2033.5849	2268.75	1384.35
934.5406	2035.1559	2274.85	1393.7
934.6778	2036.7261	2274	1390.1
934.8149	2038.2957	2274.75	1389.1
934.952	2039.8645	2263.8	1376.75
935.0891	2041.4325	2265.95	1377.5
935.2262	2042.9998	2259	1373.2
935.3632	2044.5664	2239.8	1352.5
935.5002	2046.1323	2241.95	1358.8
935.6372	2047.6974	2233.4	1351.4
935.7742	2049.2617	2238	1355.65
935.9111	2050.8254	2236.95	1349.2
936.048	2052.3883	2239.4	1354.25
936.1849	2053.9504	2234.05	1348.15
936.3218	2055.5118	2232.3	1347.45
936.4586	2057.0725	2224.45	1336.95
936.5955	2058.6325	2203.9	1319.5
936.7323	2060.1917	2210.15	1327.6
936.869	2061.7502	2212.25	1325.9
937.0058	2063.3079	2203.7	1321.15
937.1425	2064.8649	2206.95	1320.6
937.2792	2066.4212	2194.6	1308.7
937.4159	2067.9767	2197.1	1312.45
937.5525	2069.5315	2188.95	1303.85
937.6891	2071.0856	2182.65	1297.8
937.8257	2072.6389	2170.75	1286.7
937.9623	2074.1915	2176.45	1294.95
938.0989	2075.7433	2177.25	1290.3
938.2354	2077.2945	2157.85	1274.65
938.3719	2078.8448	2165.3	1278.25
938.5084	2080.3945	2165.3	1277.6
938.6448	2081.9434	2164.65	1278.6
938.7812	2083.4916	2154.45	1266.15
938.9176	2085.039	2149.65	1258.3
939.054	2086.5857	2151	1260.3
939.1903	2088.1317	2142.3	1250.9
939.3267	2089.677	2145.2	1253.65
939.463	2091.2215	2139.9	1247
939.5992	2092.7652	2139	1245.8
939.7355	2094.3083	2139.4	1249
939.8717	2095.8506	2132.25	1244.9
940.0079	2097.3921	2127.05	1239.85
940.1441	2098.933	2124.6	1235.1
940.2802	2100.4731	2122.45	1234.15
940.4163	2102.0124	2141.6	1236.25
940.5524	2103.5511	2120.95	1232.2
940.6885	2105.089	2120.1	1231.7
940.8245	2106.6261	2117	1227.65
940.9606	2108.1626	2114.45	1225.4
941.0965	2109.6983	2137.7	1223.3
941.2325	2111.2332	2111.25	1219.9
941.3684	2112.7675	2106.45	1217.25
941.5044	2114.301	2093.5	1201.45
941.6403	2115.8337	2106.05	1217.25
941.7761	2117.3657	2096.95	1207.55
941.912	2118.897	2091.15	1203.45
942.0478	2120.4276	2095.75	1199.3
942.1835	2121.9575	2074.2	1183.45
942.3193	2123.4866	2071.85	1181.15
942.455	2125.0149	2086.85	1195.05
942.5907	2126.5426	2065.65	1180.85
942.7264	2128.0695	2068.25	1181.45
942.8621	2129.5956	2061.9	1179.7
942.9977	2131.1211	2056.65	1167.05
943.1333	2132.6458	2050.55	1164.65
943.2689	2134.1698	2051.45	1161.8
943.4044	2135.693	2055.3	1162.45
943.54	2137.2155	2052.45	1159.6
943.6755	2138.7373	2047.15	1158.75
943.8109	2140.2584	2040.15	1156.25
943.9464	2141.7787	2036.4	1147.3
944.0818	2143.2983	2032.75	1149.1
944.2172	2144.8171	2021.5	1139.85
944.3526	2146.3353	2029.25	1142.6
944.4879	2147.8527	2020.3	1135.15
944.6232	2149.3693	2022.95	1133.6
944.7585	2150.8853	2023.15	1132.55
944.8938	2152.4005	2012.4	1124.8
945.029	2153.9149	2023.4	1132.85
945.1642	2155.4287	2019.2	1130.9
945.2994	2156.9417	2015.95	1127.5
945.4346	2158.454	2000.7	1111.05
945.5697	2159.9655	2000.55	1112.6
945.7048	2161.4764	2000.85	1113.55
945.8399	2162.9865	1992.3	1107.1
945.9749	2164.4958	1999.25	1110.85
946.1099	2166.0045	1980.4	1091.2
946.2449	2167.5124	1995.15	1109.2
946.3799	2169.0195	1984.9	1096.1
946.5148	2170.526	1986.45	1097.9
946.6498	2172.0317	1984.1	1092.7
946.7846	2173.5367	1976.75	1089.35
946.9195	2175.0409	1976.35	1088.7
947.0543	2176.5445	1980.75	1089.95
947.1891	2178.0473	1972.65	1082.85
947.3239	2179.5494	1969.65	1075.8
947.4587	2181.0507	1958.9	1069.95
947.5934	2182.5513	1967.8	1078
947.7281	2184.0512	1966.25	1078.25
947.8628	2185.5504	1958.4	1069.5
947.9974	2187.0488	1950	1064.75
948.132	2188.5465	1949.9	1063.25
948.2666	2190.0435	1946.75	1059.3
948.4012	2191.5397	1945.8	1055.75
948.5357	2193.0353	1949.85	1059.8
948.6702	2194.5301	1942.05	1049.65
948.8047	2196.0241	1942.85	1051.85
948.9392	2197.5175	1946.85	1051.75
949.0736	2199.0101	1942.5	1045.7
949.208	2200.502	1923.85	1034.65
949.3424	2201.9931	1927.2	1039.6
949.4767	2203.4835	1921.35	1033.7
949.611	2204.9733	1919.2	1016.45
949.7453	2206.4622	1905.7	1020.15
949.8796	2207.9505	1910.55	1024.45
950.0138	2209.438	1902.55	1019.05
950.148	2210.9248	1898.75	1011.6
950.2822	2212.4109	1907.3	1018.8
950.4164	2213.8962	1906.45	1013.15
950.5505	2215.3809	1896	1004.8
950.6846	2216.8648	1891.75	1000.5
950.8186	2218.3479	1899.35	1002.35
950.9527	2219.8304	1888.9	990.85
951.0867	2221.3121	1885.15	988
951.2207	2222.7931	1876.75	987.1
951.3546	2224.2733	1874.8	984.25
951.4886	2225.7529	1871.05	980.95
951.6225	2227.2317	1871.4	981.7
951.7563	2228.7098	1874.85	988.1
951.8902	2230.1872	1864.9	978
952.024	2231.6638	1866.6	980.6
952.1578	2233.1397	1857.5	969.25
952.2916	2234.6149	1856.2	969.5
952.4253	2236.0894	1848.55	962.15
952.559	2237.5632	1854.25	957.75
952.6927	2239.0362	1847.1	959
952.8263	2240.5085	1837.55	948.8
952.9599	2241.9801	1831.8	942.85
953.0935	2243.4509	1837.45	945.6
953.2271	2244.921	1836.8	945.15
953.3606	2246.3904	1837.95	943.85
953.4941	2247.8591	1821.55	931.5
953.6276	2249.3271	1820.35	928.35
953.7611	2250.7943	1816.1	921.6
953.8945	2252.2608	1814.05	922.55
954.0279	2253.7266	1806.4	915.85
954.1612	2255.1917	1805.5	918.15
954.2946	2256.656	1806.85	917.1
954.4279	2258.1197	1799.35	914.9
954.5612	2259.5826	1801.15	912.55
954.6944	2261.0447	1803.2	912.45
954.8276	2262.5062	1796.9	904.6
954.9608	2263.9669	1798.75	906.3
955.094	2265.4269	1790.95	901.75
955.2271	2266.8862	1788.05	898.95
955.3602	2268.3448	1789.65	900.85
955.4933	2269.8026	1781	895.65
955.6264	2271.2598	1782.65	894.6
955.7594	2272.7162	1779	892.4
955.8924	2274.1719	1780.25	888.9
956.0253	2275.6268	1780.05	887.95
956.1583	2277.0811	1781.6	889.55
956.2912	2278.5346	1782.4	894.6
956.4241	2279.9874	1770.35	883.7
956.5569	2281.4395	1778.3	890.25
956.6897	2282.8908	1765.25	870.85
956.8225	2284.3414	1767.7	875.55
956.9553	2285.7914	1768.35	879.75
957.088	2287.2406	1774.2	882.95
957.2207	2288.689	1758	865.15
957.3534	2290.1368	1762.65	867.65
957.486	2291.5838	1765.75	868.7
957.6186	2293.0302	1761.25	865.65
957.7512	2294.4758	1760.4	868.65
957.8838	2295.9206	1752.2	859.25
958.0163	2297.3648	1746.25	856.45
958.1488	2298.8082	1753.1	862.8
958.2813	2300.251	1758.9	869.75
958.4137	2301.693	1749.8	854.65
958.5461	2303.1343	1744.95	852.4
958.6785	2304.5748	1738.3	846.5
958.8108	2306.0147	1739.95	852.45
958.9432	2307.4538	1736.5	844.75
959.0754	2308.8922	1732.1	847.15
959.2077	2310.3299	1727.3	839.25
959.3399	2311.7669	1729.05	840.95
959.4721	2313.2031	1723	833.4
959.6043	2314.6387	1728.85	841.5
959.7365	2316.0735	1715.6	826.1
959.8686	2317.5076	1715.85	825.5
960.0006	2318.941	1709.6	816.95
960.1327	2320.3737	1720.15	827
960.2647	2321.8056	1717.7	822.75
960.3967	2323.2369	1717.7	825.45
960.5287	2324.6674	1701.85	809.2
960.6606	2326.0972	1709.85	819.25
960.7925	2327.5263	1701.7	812.75
960.9244	2328.9547	1703.65	810.8
961.0562	2330.3823	1704.6	811.6
961.1881	2331.8092	1696.4	800.7
961.3198	2333.2355	1698	806.3
961.4516	2334.661	1688.85	797.15
961.5833	2336.0858	1687.25	791.95
961.715	2337.5098	1686.45	794.95
961.8467	2338.9332	1688.25	796.9
961.9783	2340.3558	1683.65	792.1
962.1099	2341.7778	1679.95	789.75
962.2415	2343.199	1685.55	793.15
962.373	2344.6195	1676	784.95
962.5045	2346.0393	1672.9	782.85
962.636	2347.4583	1681.75	791.15
962.7675	2348.8767	1672.2	780.55
962.8989	2350.2943	1674.25	780.75
963.0303	2351.7113	1676.2	781.25
963.1617	2353.1275	1675.8	782.75
963.293	2354.543	1685.05	784.6
963.4243	2355.9578	1672.55	780.95
963.5556	2357.3718	1660.45	772.2
963.6868	2358.7852	1667.25	775.6
963.818	2360.1978	1656.15	767.55
963.9492	2361.6098	1662.7	775
964.0803	2363.021	1661.05	766.3
964.2114	2364.4315	1657.25	765.5
964.3425	2365.8413	1657.45	763.5
964.4736	2367.2504	1658.15	768.85
964.6046	2368.6587	1650.9	762.4
964.7356	2370.0664	1643.95	752.65
964.8666	2371.4733	1643.15	751.8
964.9975	2372.8795	1649.8	761.05
965.1284	2374.285	1642.35	750.25
965.2593	2375.6899	1648.9	759.25
965.3901	2377.0939	1634.35	744.5
965.5209	2378.4973	1639.45	750.05
965.6517	2379.9	1633.9	743
965.7825	2381.3019	1619.85	729.85
965.9132	2382.7032	1628.4	740.05
966.0439	2384.1037	1623.2	736.55
966.1745	2385.5035	1621.95	735.55
966.3051	2386.9027	1615.9	728.1
966.4357	2388.3011	1617.6	725.3
966.5663	2389.6987	1616.55	729.45
966.6968	2391.0957	1611.05	723.25
966.8273	2392.492	1607.1	717.6
966.9578	2393.8876	1608	717.2
967.0882	2395.2824	1605.7	716
967.2186	2396.6765	1594.9	704.55
967.349	2398.07	1593.95	703.95
967.4793	2399.4627	1604.45	711.85
967.6097	2400.8547	1595.55	704.6
967.7399	2402.246	1607.25	710.8
967.8702	2403.6366	1596.8	709.55
968.0004	2405.0265	1586.95	698.85
968.1306	2406.4156	1579.05	684.25
968.2607	2407.8041	1589.6	694.3
968.3909	2409.1918	1581.15	686.1
968.521	2410.5789	1577.75	688.6
968.651	2411.9652	1575.35	681.45
968.781	2413.3508	1582.1	690.65
968.911	2414.7358	1573.4	680.65
969.041	2416.12	1569.45	679.55
969.1709	2417.5035	1580.4	692.95
969.3008	2418.8863	1567.95	675.75
969.4307	2420.2684	1567.5	677.1
969.5606	2421.6497	1565.15	674.65
969.6904	2423.0304	1563.7	674
969.8201	2424.4104	1562.95	670.75
969.9499	2425.7896	1560.15	664.35
970.0796	2427.1682	1561.65	672.35
970.2093	2428.546	1555.4	664.3
970.3389	2429.9232	1559.75	668.8
970.4685	2431.2996	1555.9	666.65
970.5981	2432.6753	1558.9	667.25
970.7277	2434.0503	1552.05	660.3
970.8572	2435.4246	1548.35	657.3
970.9867	2436.7982	1551.2	656.4
971.1161	2438.1711	1549.45	659.85
971.2456	2439.5433	1541.35	650.25
971.375	2440.9148	1541.45	645.85
971.5043	2442.2856	1535.15	644.3
971.6336	2443.6557	1539	646.05
971.7629	2445.025	1537.75	645.25
971.8922	2446.3937	1536.3	643.75
972.0214	2447.7617	1534.6	641.55
972.1506	2449.1289	1523.95	632.75
972.2798	2450.4955	1526.9	632.65
972.4089	2451.8613	1529.35	639.55
972.538	2453.2265	1524	632.65
972.6671	2454.5909	1528	637.4
972.7961	2455.9546	1526.95	636.55
972.9251	2457.3177	1515.55	624.25
973.0541	2458.68	1519.7	627.55
973.1831	2460.0416	1521.35	630.2
973.312	2461.4025	1520.85	628.45
973.4408	2462.7627	1524.4	623.45
973.5697	2464.1222	1503.85	618.05
973.6985	2465.4811	1516.25	627.4
973.8273	2466.8392	1507.65	620.15
973.956	2468.1966	1513.45	623.2
974.0847	2469.5533	1507.55	615.95
974.2134	2470.9093	1508.25	617.05
974.3421	2472.2645	1515.5	622.8
974.4707	2473.6191	1507.15	616.05
974.5993	2474.973	1507.75	617.3
974.7278	2476.3262	1507.9	615.8
974.8563	2477.6787	1506.8	618.7
974.9848	2479.0305	1494.4	603.85
975.1132	2480.3816	1501.2	609.75
975.2417	2481.7319	1491.35	600.6
975.37	2483.0816	1494.6	605
975.4984	2484.4306	1496.75	607
975.6267	2485.7789	1490.25	599.85
975.755	2487.1264	1484.8	594.2
975.8833	2488.4733	1479.5	591.55
976.0115	2489.8195	1503.35	597.5
976.1397	2491.165	1489.6	596.75
976.2678	2492.5097	1486.8	597
976.3959	2493.8538	1472.75	584.25
976.524	2495.1972	1474.1	584.55
976.6521	2496.5398	1477.2	589
976.7801	2497.8818	1480.25	589.75
976.9081	2499.2231	1480.8	589.75
977.036	2500.5637	1475.9	580.8
977.164	2501.9035	1471.5	579.2
977.2918	2503.2427	1472	574.15
977.4197	2504.5812	1465.1	575.25
977.5475	2505.919	1465.2	574.5
977.6753	2507.256	1463.6	573.05
977.8031	2508.5924	1453.9	563.8
977.9308	2509.9281	1471.1	575.3
978.0585	2511.2631	1462.95	574.6
978.1861	2512.5974	1461	573.5
978.3137	2513.9309	1454.45	565.75
978.4413	2515.2638	1477.95	556.6
978.5689	2516.596	1453.4	563.4
978.6964	2517.9275	1449	557.55
978.8239	2519.2583	1448.15	557.25
978.9513	2520.5884	1447.1	554.85
979.0788	2521.9178	1448.8	560.3
979.2062	2523.2465	1442.5	553.15
979.3335	2524.5745	1451.3	562.25
979.4608	2525.9018	1442.25	552
979.5881	2527.2284	1443.45	554.4
979.7154	2528.5543	1442	554.9
979.8426	2529.8796	1446	554.05
979.9698	2531.2041	1441.75	553
980.0969	2532.5279	1435.8	547
980.224	2533.851	1435.5	544.8
980.3511	2535.1735	1437.05	547.15
980.4781	2536.4952	1440.05	549.95
980.6052	2537.8163	1443.9	555.85
980.7321	2539.1366	1438.65	549.8
980.8591	2540.4562	1446.95	554.9
980.986	2541.7752	1440	549.05
981.1129	2543.0935	1434.25	542.45
981.2397	2544.411	1439.05	546.75
981.3665	2545.7279	1436.35	546.85
981.4933	2547.0441	1431.7	541.55
981.62	2548.3596	1435.55	542.4
981.7467	2549.6744	1428.2	538.25
981.8734	2550.9885	1441.85	543.25
982.0001	2552.3019	1427.5	538.4
982.1267	2553.6146	1426.8	535.55
982.2532	2554.9266	1431.45	540.8
982.3798	2556.2379	1428.35	537.65
982.5063	2557.5485	1421.9	532.9
982.6327	2558.8585	1433.25	536
982.7592	2560.1677	1423.65	529.35
982.8856	2561.4762	1418.05	528.1
983.0119	2562.7841	1426.7	533.75
983.1383	2564.0913	1419.65	530.25
983.2646	2565.3977	1419.4	531.4
983.3908	2566.7035	1413.6	522.9
983.517	2568.0086	1415.3	522.95
983.6432	2569.313	1415.4	524.8
983.7694	2570.6167	1415.7	524.7
983.8955	2571.9197	1417	526.05
984.0216	2573.222	1409.95	516
984.1476	2574.5236	1418.95	527.25
984.2737	2575.8246	1417.45	523.75
984.3996	2577.1248	1412.4	519.95
984.5256	2578.4244	1406.35	517.1
984.6515	2579.7232	1416.95	528.35
984.7774	2581.0214	1440.35	517
984.9032	2582.3189	1409.1	521.05
985.029	2583.6157	1407.65	513.9
985.1548	2584.9118	1408.7	516.55
985.2806	2586.2072	1408.2	520.3
985.4063	2587.5019	1415.3	526
985.5319	2588.7959	1408.95	519.65
985.6576	2590.0893	1413.05	521.75
985.7832	2591.3819	1413.6	524.25
985.9087	2592.6739	1410.95	522
986.0343	2593.9652	1410.45	519.35
986.1597	2595.2557	1416.2	526.6
986.2852	2596.5456	1416.85	525.05
986.4106	2597.8348	1420.75	531.8
986.536	2599.1234	1417.5	530.2
986.6614	2600.4112	1415.4	526.55
986.7867	2601.6983	1409.4	517.4
986.912	2602.9848	1407.5	518.4
987.0372	2604.2705	1410.7	516.35
987.1624	2605.5556	1409.9	523.45
987.2876	2606.84	1405.95	518.9
987.4128	2608.1237	1403.85	514.35
987.5379	2609.4067	1400.15	513.2
987.6629	2610.689	1407.1	511.55
987.788	2611.9707	1400.8	509.2
987.913	2613.2516	1402.65	511.45
988.0379	2614.5319	1392.85	505.7
988.1629	2615.8115	1397.25	509.6
988.2878	2617.0903	1386.6	497.5
988.4126	2618.3685	1385	494.2
988.5375	2619.6461	1378.4	490.8
988.6622	2620.9229	1385.85	497
988.787	2622.199	1384	497
988.9117	2623.4745	1381.65	492.95
989.0364	2624.7493	1377	490.6
989.161	2626.0234	1376.15	490.6
989.2857	2627.2968	1379.4	491.2
989.4102	2628.5695	1383.85	495.75
989.5348	2629.8415	1377.95	492.75
989.6593	2631.1128	1380.65	492
989.7837	2632.3835	1367.5	481.2
989.9082	2633.6535	1370.05	484.45
990.0326	2634.9228	1374.35	486.15
990.1569	2636.1914	1377.35	491.35
990.2812	2637.4593	1368.85	480.4
990.4055	2638.7265	1370.95	482.25
990.5298	2639.9931	1364.35	475.25
990.654	2641.259	1375.35	487.2
990.7782	2642.5242	1362.7	476.05
990.9023	2643.7887	1366.7	479
991.0264	2645.0525	1361.65	475.65
991.1505	2646.3156	1357.55	467.85
991.2745	2647.5781	1359.4	474.2
991.3985	2648.8398	1356.5	469.55
991.5225	2650.1009	1390.95	464.65
991.6464	2651.3613	1356.5	468.5
991.7703	2652.6211	1355.75	466.85
991.8942	2653.8801	1353.35	468.05
992.018	2655.1385	1355.85	466.7
992.1418	2656.3961	1354.45	466.5
992.2655	2657.6531	1351.45	465.2
992.3892	2658.9094	1353.35	467.65
992.5129	2660.1651	1349.75	463.7
992.6366	2661.42	1351.2	464.65
992.7602	2662.6743	1359	472.45
992.8837	2663.9279	1357.9	471.35
993.0073	2665.1808	1362.65	475.2
993.1307	2666.433	1362.7	473.4
993.2542	2667.6846	1359.05	469.25
993.3776	2668.9354	1368.25	476.95
993.501	2670.1856	1362.85	473.75
993.6244	2671.4351	1368.75	483.65
993.7477	2672.6839	1364.5	476.1
993.8709	2673.9321	1371.05	485.1
993.9942	2675.1795	1368.1	479.85
994.1174	2676.4263	1370.1	484.5
994.2405	2677.6724	1370.05	483.25
994.3637	2678.9179	1383.8	494.65
994.4868	2680.1626	1377.2	491.05
994.6098	2681.4067	1366	477.85
994.7328	2682.6501	1368.25	482.4
994.8558	2683.8928	1364.5	477.1
994.9788	2685.1348	1363.1	477.7
995.1017	2686.3761	1364.65	477.75
995.2245	2687.6168	1347.5	459.9
995.3474	2688.8568	1349.85	462.8
995.4702	2690.0961	1350.2	464.8
995.5929	2691.3348	1352	465
995.7156	2692.5727	1347.9	460.7
995.8383	2693.81	1349.65	462.9
995.961	2695.0466	1352.85	466
996.0836	2696.2826	1346.65	458.55
996.2062	2697.5178	1349.25	457.9
996.3287	2698.7524	1349.7	463.2
996.4512	2699.9863	1356.85	467.4
996.5737	2701.2195	1350.05	466.3
996.6961	2702.452	1355.9	467.05
996.8185	2703.6839	1358.7	471.75
996.9408	2704.9151	1363.45	477.75
997.0631	2706.1456	1364.65	479.8
997.1854	2707.3755	1376.65	488.7
997.3077	2708.6046	1388.15	498.05
997.4299	2709.8331	1377.9	490.05
997.552	2711.0609	1384.8	497.65
997.6742	2712.2881	1396.45	509.2
997.7963	2713.5145	1394.7	505.75
997.9183	2714.7403	1409	524.45
998.0403	2715.9654	1415.5	529.85
998.1623	2717.1899	1433	532.55
998.2842	2718.4136	1427.5	540.4
998.4062	2719.6367	1431.25	545.1
998.528	2720.8591	1450.3	557.25
998.6498	2722.0809	1453.6	566.4
998.7716	2723.3019	1471.15	584.15
998.8934	2724.5223	1478.8	593.25
999.0151	2725.7421	1477.95	590.3
999.1368	2726.9611	1484.65	597.25
999.2584	2728.1795	1475.35	585.2
999.38	2729.3972	1472.6	587.3
999.5016	2730.6142	1470.2	575.55
999.6231	2731.8306	1450.3	560.2
999.7446	2733.0462	1439.75	552.8
999.8661	2734.2612	1434.2	541.65
999.9875	2735.4756	1418.65	531.6
1000.1089	2736.6892	1399.45	513.4
1000.2302	2737.9022	1388.2	502.8
1000.3515	2739.1145	1375.3	490.7
1000.4728	2740.3262	1374.75	479.45
1000.594	2741.5372	1357.1	471.1
1000.7152	2742.7475	1351.15	464.85
1000.8363	2743.9571	1344.9	458.35
1000.9575	2745.1661	1342.8	451.8
1001.0785	2746.3744	1328.55	443.1
1001.1996	2747.582	1323.1	436.1
1001.3206	2748.7889	1319.55	432.55
1001.4415	2749.9952	1312.3	427
1001.5625	2751.2008	1311.65	427.7
1001.6833	2752.4057	1306.5	417.25
1001.8042	2753.61	1301.05	412.6
1001.925	2754.8136	1307.9	420.4
1002.0458	2756.0165	1295.8	409.75
1002.1665	2757.2188	1294.6	409.9
1002.2872	2758.4204	1298.2	413.75
1002.4078	2759.6213	1291.45	404.8
1002.5285	2760.8215	1298.65	408.5
1002.649	2762.0211	1296.05	407.7
1002.7696	2763.22	1300.4	411.75
1002.8901	2764.4182	1293.5	406.9
1003.0106	2765.6158	1289.2	402.25
1003.131	2766.8127	1286.65	401.95
1003.2514	2768.009	1286.2	400.3
1003.3717	2769.2045	1282.35	397.8
1003.492	2770.3994	1282.05	394
1003.6123	2771.5936	1275.8	390.5
1003.7325	2772.7872	1278.05	394.05
1003.8527	2773.9801	1274.2	389.6
1003.9729	2775.1723	1283.95	381.25
1004.093	2776.3639	1265.9	380.4
1004.2131	2777.5548	1272.15	385.1
1004.3331	2778.745	1266.95	381.25
1004.4531	2779.9346	1270.6	387.2
1004.5731	2781.1235	1272.65	389.5
1004.693	2782.3117	1275.35	389
1004.8129	2783.4992	1272.65	390.3
1004.9328	2784.6861	1274.75	388.55
1005.0526	2785.8723	1282.5	399.2
1005.1723	2787.0579	1282.45	396.75
1005.2921	2788.2428	1280.95	395.55
1005.4118	2789.427	1281.5	396.7
1005.5314	2790.6106	1291.8	408.25
1005.651	2791.7935	1295.35	411.45
1005.7706	2792.9757	1297.8	414.75
1005.8902	2794.1573	1310.15	422.8
1006.0097	2795.3382	1312.6	428.2
1006.1291	2796.5184	1325	440.7
1006.2485	2797.698	1326.35	439.75
1006.3679	2798.8769	1330.15	444.95
1006.4873	2800.0551	1339.2	453.5
1006.6066	2801.2327	1355.15	466.5
1006.7258	2802.4096	1356.85	473.65
1006.8451	2803.5859	1366.7	482.9
1006.9642	2804.7615	1387.75	501.15
1007.0834	2805.9364	1400.4	516.05
1007.2025	2807.1106	1422.75	537
1007.3216	2808.2842	1436.9	552.25
1007.4406	2809.4572	1460.55	576.3
1007.5596	2810.6294	1481.25	594.5
1007.6785	2811.801	1512.55	628.9
1007.7975	2812.972	1543.7	661.4
1007.9163	2814.1423	1582.7	695.95
1008.0352	2815.3119	1605.95	721.25
1008.154	2816.4808	1646.8	763.1
1008.2727	2817.6491	1690	803.1
1008.3914	2818.8167	1737.4	856.25
1008.5101	2819.9837	1783.6	893.3
1008.6288	2821.15	1835.6	951.15
1008.7474	2822.3157	1875	992.65
1008.8659	2823.4807	1935.65	1051.2
1008.9844	2824.645	1982.9	1099.6
1009.1029	2825.8086	2029.95	1147.8
1009.2214	2826.9716	2075.95	1192.35
1009.3398	2828.134	2123.55	1238.75
1009.4581	2829.2957	2175.25	1291.1
1009.5764	2830.4567	2199.7	1314.35
1009.6947	2831.617	2232.3	1348.3
1009.813	2832.7767	2228.85	1345.5
1009.9312	2833.9358	2230.7	1347.15
1010.0493	2835.0941	2228.75	1342.4
1010.1675	2836.2519	2213.25	1329.5
1010.2855	2837.4089	2190.55	1306.25
1010.4036	2838.5653	2184.15	1300.6
1010.5216	2839.7211	2171.15	1288.55
1010.6396	2840.8761	2172.25	1283.4
1010.7575	2842.0306	2171.1	1286.8
1010.8754	2843.1843	2182.2	1300.1
1010.9932	2844.3374	2206.05	1323.2
1011.111	2845.4899	2248.65	1366
1011.2288	2846.6417	2291.05	1406.1
1011.3465	2847.7928	2328.5	1446
1011.4642	2848.9433	2372.8	1488.55
1011.5818	2850.0931	2423.05	1539.6
1011.6995	2851.2422	2486.7	1600.1
1011.817	2852.3907	2514.9	1629.4
1011.9345	2853.5385	2569.5	1684.15
1012.052	2854.6857	2625.2	1715
1012.1695	2855.8323	2642.75	1759.2
1012.2869	2856.9781	2687.3	1803.7
1012.4042	2858.1233	2732.5	1849.05
1012.5216	2859.2679	2774.5	1892.6
1012.6389	2860.4118	2824.2	1942.55
1012.7561	2861.555	2864.2	1974.7
1012.8733	2862.6976	2898.35	2013.55
1012.9905	2863.8395	2932.6	2050.6
1013.1076	2864.9808	2963.05	2079.6
1013.2247	2866.1214	2984.8	2102.25
1013.3417	2867.2614	2995.2	2111.95
1013.4587	2868.4007	2999.85	2114.95
1013.5757	2869.5393	3013.65	2129.55
1013.6926	2870.6773	3038.25	2150.6
1013.8095	2871.8146	3035	2146.05
1013.9263	2872.9513	3031.15	2146.15
1014.0431	2874.0874	3040.95	2156.6
1014.1599	2875.2227	3017	2132.4
1014.2766	2876.3574	3004.8	2119.25
1014.3933	2877.4915	2981.4	2099.95
1014.51	2878.6249	2974.25	2091.7
1014.6266	2879.7577	2939.8	2055.8
1014.7431	2880.8898	2934.65	2040.65
1014.8596	2882.0212	2915.5	2032.3
1014.9761	2883.152	2916.8	2033.5
1015.0925	2884.2821	2896	2013.65
1015.2089	2885.4116	2885.1	2003.85
1015.3253	2886.5405	2893.35	2011.5
1015.4416	2887.6686	2919.55	2033.45
1015.5579	2888.7962	2909.7	2029.25
1015.6741	2889.923	2915.45	2032.6
1015.7903	2891.0493	2923.1	2041.95
1015.9065	2892.1748	2924.7	2043.55
1016.0226	2893.2997	2952.6	2068
1016.1387	2894.424	2956.1	2075.85
1016.2547	2895.5476	2958.1	2075.65
1016.3707	2896.6706	2987.4	2105.45
1016.4866	2897.7929	2999.5	2116.2
1016.6025	2898.9145	3016.8	2132.95
1016.7184	2900.0355	3034.45	2150.95
1016.8342	2901.1559	3054.8	2169.8
1016.95	2902.2756	3095.95	2210.6
1017.0658	2903.3946	3109.7	2228.2
1017.1815	2904.513	3150.8	2265.65
1017.2971	2905.6308	3159.7	2279.15
1017.4127	2906.7479	3173.55	2290.2
1017.5283	2907.8643	3197.6	2314.3
1017.6439	2908.9801	3215.95	2334.45
1017.7594	2910.0953	3224.65	2342.8
1017.8748	2911.2098	3222.2	2337.65
1017.9902	2912.3236	3215.45	2326.35
1018.1056	2913.4368	3214.55	2328.8
1018.2209	2914.5494	3171.7	2289.9
1018.3362	2915.6613	3157.65	2270
1018.4515	2916.7725	3139.55	2254.85
1018.5667	2917.8831	3108.5	2225.75
1018.6819	2918.9931	3070.95	2185.4
1018.797	2920.1024	3053.95	2171.35
1018.9121	2921.211	3045.15	2160.15
1019.0271	2922.319	3021.55	2137.25
1019.1421	2923.4264	3014.9	2133.15
1019.2571	2924.5331	3016.9	2136.75
1019.372	2925.6391	3002.65	2120.9
1019.4869	2926.7445	2999.7	2117.45
1019.6017	2927.8493	3001.85	2120.6
1019.7165	2928.9534	3016.9	2134.2
1019.8313	2930.0569	3028.85	2140.45
1019.946	2931.1597	3024.55	2141.1
1020.0606	2932.2619	3024.05	2142.25
1020.1753	2933.3634	3027.9	2145.55
1020.2899	2934.4643	3038.8	2148.95
1020.4044	2935.5645	3035.2	2145.45
1020.5189	2936.6641	3023.1	2134.65
1020.6334	2937.763	2992.85	2110.35
1020.7478	2938.8613	2973.3	2088.8
1020.8622	2939.959	2936.3	2048.1
1020.9765	2941.056	2889.1	2008.75
1021.0908	2942.1523	2827.85	1945.15
1021.2051	2943.248	2765.2	1882.4
1021.3193	2944.3431	2700.4	1819.75
1021.4334	2945.4375	2601.45	1719.1
1021.5476	2946.5313	2533.9	1653.7
1021.6617	2947.6244	2446.05	1563.25
1021.7757	2948.7169	2363.3	1479.25
1021.8897	2949.8087	2279.75	1398.05
1022.0037	2950.8999	2213.75	1330.75
1022.1176	2951.9904	2144.55	1264.9
1022.2315	2953.0803	2076.7	1192.75
1022.3453	2954.1696	2046.9	1163.5
1022.4591	2955.2582	1998.4	1118.65
1022.5728	2956.3462	1949.8	1068
1022.6865	2957.4335	1924.7	1042.75
1022.8002	2958.5202	1894.65	1010.1
1022.9138	2959.6062	1865.25	983
1023.0274	2960.6916	1856.45	976.25
1023.141	2961.7764	1837.5	955.05
1023.2545	2962.8605	1825.7	943.6
1023.3679	2963.9439	1812.4	931.6
1023.4813	2965.0267	1808.3	925.6
1023.5947	2966.1089	1815.95	912.15
1023.708	2967.1905	1788.55	907.3
1023.8213	2968.2714	1787.45	907.2
1023.9346	2969.3516	1789.75	908.1
1024.0478	2970.4312	1805.4	916.4
1024.1609	2971.5102	1803.2	922
1024.274	2972.5885	1793.65	910
1024.3871	2973.6662	1802.95	918.2
1024.5002	2974.7432	1804.35	921.95
1024.6132	2975.8196	1805.15	923.05
1024.7261	2976.8954	1795.55	916.45
1024.839	2977.9705	1788.2	906
1024.9519	2979.045	1784.85	904.25
1025.0647	2980.1188	1760.2	876.8
1025.1775	2981.192	1753.85	873.7
1025.2902	2982.2645	1735.45	853.55
1025.4029	2983.3364	1723.7	841.3
1025.5156	2984.4077	1699.4	819.55
1025.6282	2985.4783	1683.5	795.7
1025.7407	2986.5483	1654.2	773.9
1025.8532	2987.6177	1631.4	751.3
1025.9657	2988.6864	1601.55	721.15
1026.0782	2989.7545	1572.75	690.15
1026.1906	2990.8219	1540.75	660.5
1026.3029	2991.8887	1517.05	633.2
1026.4152	2992.9548	1497.4	617.3
1026.5275	2994.0204	1458.55	577.75
1026.6397	2995.0852	1436.8	556.1
1026.7519	2996.1495	1420.8	537.9
1026.864	2997.2131	1398.7	518.75
1026.9761	2998.276	1375.45	493.7
1027.0882	2999.3383	1360.15	476.75
1027.2002	3000.4	1347.45	467.15
1027.3122	3001.4611	1330.2	449.4
1027.4241	3002.5215	1304.7	422.85
1027.536	3003.5812	1292	408.8
1027.6478	3004.6404	1283.2	402.6
1027.7596	3005.6989	1279.25	396.55
1027.8714	3006.7567	1266.1	383.5
1027.9831	3007.8139	1284.15	372.1
1028.0947	3008.8705	1241.95	361.3
1028.2064	3009.9264	1241.65	355.65
1028.3179	3010.9818	1232.45	352.65
1028.4295	3012.0364	1224.35	342.6
1028.541	3013.0905	1219.7	337.95
1028.6524	3014.1439	1215.4	334.4
1028.7638	3015.1966	1207.25	325.55
1028.8752	3016.2487	1205.95	324.4
1028.9865	3017.3002	1204.75	318.6
1029.0978	3018.3511	1191.5	311.9
1029.209	3019.4013	1195.9	314.7
1029.3202	3020.4509	1185.1	304.1
1029.4314	3021.4998	1185.7	305.8
1029.5425	3022.5481	1182.15	302.05
1029.6535	3023.5958	1186.2	305.1
1029.7645	3024.6428	1187.25	303.55
1029.8755	3025.6892	1185.55	307.4
1029.9864	3026.735	1185.55	303.4
1030.0973	3027.7802	1184.85	303.95
1030.2082	3028.8247	1179.25	296.8
1030.319	3029.8685	1181.05	298.9
1030.4297	3030.9118	1180.7	300.3
1030.5404	3031.9544	1183.3	303.3
1030.6511	3032.9963	1180.95	303.1
1030.7617	3034.0376	1188.55	307.8
1030.8723	3035.0783	1189.9	307.15
1030.9829	3036.1184	1191.4	309.55
1031.0934	3037.1578	1190.05	309.35
1031.2038	3038.1966	1195	312.95
1031.3142	3039.2348	1192.45	311.15
1031.4246	3040.2723	1200.9	310.55
1031.5349	3041.3092	1191.35	311.05
1031.6452	3042.3455	1194.2	315
1031.7554	3043.3811	1194.2	313.65
1031.8656	3044.4161	1192.7	309.7
1031.9758	3045.4505	1191.15	312.8
1032.0859	3046.4842	1195.5	313.3
1032.1959	3047.5173	1185.75	306.15
1032.3059	3048.5498	1186.55	304.9
1032.4159	3049.5816	1186.15	305.7
1032.5258	3050.6128	1183.65	302.8
1032.6357	3051.6434	1185.5	304.15
1032.7455	3052.6734	1182.6	300.35
1032.8553	3053.7027	1179.15	297.25
1032.9651	3054.7314	1177.3	297.35
1033.0748	3055.7594	1173.55	294.15
1033.1845	3056.7868	1177.65	295.55
1033.2941	3057.8136	1170.05	288.8
1033.4037	3058.8398	1167.05	286.3
1033.5132	3059.8653	1166.6	286.65
1033.6227	3060.8902	1164.95	283.35
1033.7321	3061.9145	1167.4	287.2
1033.8415	3062.9381	1161.2	278.95
1033.9509	3063.9612	1175.7	280.25
1034.0602	3064.9835	1163.55	281.25
1034.1694	3066.0053	1158.15	274.7
1034.2787	3067.0264	1153.45	273.05
1034.3878	3068.0469	1154.75	271.95
1034.497	3069.0668	1147.85	263.75
1034.6061	3070.086	1148.3	269.2
1034.7151	3071.1046	1142.9	261.55
1034.8241	3072.1226	1141.05	259.65
1034.9331	3073.1399	1131.05	248.75
1035.042	3074.1567	1130.05	248.25
1035.1508	3075.1727	1128.35	246.7
1035.2597	3076.1882	1112.9	232.55
1035.3684	3077.203	1113.65	234
1035.4772	3078.2173	1101.4	218.8
1035.5859	3079.2308	1102.9	220.05
1035.6945	3080.2438	1098.3	217.75
1035.8031	3081.2561	1094.85	215.15
1035.9117	3082.2678	1090.35	209.35
1036.0202	3083.2789	1084.35	202.85
1036.1286	3084.2893	1077.8	196.6
1036.2371	3085.2991	1072.65	192.65
1036.3454	3086.3083	1073.9	188.9
1036.4538	3087.3169	1068.2	187.1
1036.562	3088.3248	1064.25	182.05
1036.6703	3089.3321	1061.7	180.8
1036.7785	3090.3388	1056.85	178.65
1036.8866	3091.3449	1051	171.15
1036.9948	3092.3503	1049.75	166.55
1037.1028	3093.3551	1043.45	164.35
1037.2108	3094.3593	1045.3	165.75
1037.3188	3095.3629	1044.4	164.95
1037.4267	3096.3658	1044.95	162.6
1037.5346	3097.3681	1038.1	157.25
1037.6425	3098.3698	1036.05	154.35
1037.7503	3099.3708	1038.95	152.65
1037.858	3100.3713	1028.4	148.55
1037.9657	3101.3711	1030.5	148.25
1038.0734	3102.3702	1141.35	144.3
1038.181	3103.3688	1032.55	150.25
1038.2886	3104.3667	1022.4	142.15
1038.3961	3105.364	1019.75	138.95
1038.5036	3106.3607	1022.35	140.95
1038.611	3107.3568	1018.3	137.8
1038.7184	3108.3522	1010.65	131.9
1038.8257	3109.347	1008.75	127.85
1038.933	3110.3412	1015.95	130.65
1039.0403	3111.3348	1010.6	130.8
1039.1475	3112.3277	1009	127.8
1039.2547	3113.32	1007.15	127.9
1039.3618	3114.3117	1003.65	122.55
1039.4689	3115.3028	1001.9	122.2
1039.5759	3116.2932	1009.15	125.95
1039.6829	3117.2831	1005.2	118.85
1039.7898	3118.2723	999.45	119.55
1039.8967	3119.2608	998.05	118.5
1040.0035	3120.2488	997.05	115.7
1040.1103	3121.2361	993.55	111.85
1040.2171	3122.2229	994.9	113.65
1040.3238	3123.209	991.7	111.45
1040.4305	3124.1944	990.15	110.5
1040.5371	3125.1793	991.8	109.65
1040.6437	3126.1635	986.7	108.15
1040.7502	3127.1471	989.2	110.1
1040.8567	3128.1301	990.05	110.65
1040.9631	3129.1125	987.45	106.5
1041.0695	3130.0942	985.2	105.9
1041.1759	3131.0753	993.75	105.2
1041.2822	3132.0558	984.15	99.15
1041.3884	3133.0357	982.45	102.35
1041.4946	3134.015	976.55	95.3
1041.6008	3134.9936	981.8	99.9
1041.7069	3135.9716	998.85	98.85
1041.813	3136.949	980.1	99.8
1041.919	3137.9258	996.75	97.7
1042.025	3138.902	985.2	99.25
1042.1309	3139.8775	975.5	96.7
1042.2368	3140.8524	974.5	94.1
1042.3427	3141.8267	976.45	93.55
1042.4485	3142.8004	972.3	92.15
1042.5542	3143.7735	984.45	97.6
1042.6599	3144.7459	973.85	91.15
1042.7656	3145.7178	973.15	93.5
1042.8712	3146.689	969.4	91.65
1042.9768	3147.6596	970.65	88.9
1043.0823	3148.6295	970.6	90.65
1043.1878	3149.5989	966.15	84.8
1043.2932	3150.5676	966.85	88.9
1043.3986	3151.5357	965.8	86.9
1043.5039	3152.5032	967.2	86.85
1043.6092	3153.4701	968.65	91.55
1043.7145	3154.4364	964.85	81.95
1043.8197	3155.402	964.55	86.85
1043.9248	3156.367	965.05	84.7
1044.03	3157.3315	999.45	82.35
1044.135	3158.2952	964.25	85.25
1044.24	3159.2584	960.15	82.6
1044.345	3160.221	965.3	82.65
1044.4499	3161.1829	959.95	80.3
1044.5548	3162.1442	958.5	76.3
1044.6596	3163.105	957.95	76.55
1044.7644	3164.065	961.55	81.75
1044.8692	3165.0245	961.6	77.1
1044.9739	3165.9834	958.65	80.6
1045.0785	3166.9416	958.1	77.85
1045.1831	3167.8993	959.85	79.15
1045.2877	3168.8563	956.9	75.95
1045.3922	3169.8127	955.7	75.2
1045.4966	3170.7684	955.5	74.95
1045.6011	3171.7236	955.55	74.7
1045.7054	3172.6782	952.55	71.65
1045.8098	3173.6321	955.4	77.55
1045.914	3174.5854	964.05	80.1
1046.0183	3175.5381	955	76.75
1046.1224	3176.4902	955.1	74.8
1046.2266	3177.4417	951.9	72.25
1046.3307	3178.3926	950.15	69.9
1046.4347	3179.3428	950	70.6
1046.5387	3180.2924	950.55	72.1
1046.6427	3181.2415	952.15	74
1046.7466	3182.1899	951.6	70.9
1046.8504	3183.1377	947.25	69.05
1046.9542	3184.0848	950.15	65.95
1047.058	3185.0314	947.4	68.7
1047.1617	3185.9773	946.05	66.4
1047.2654	3186.9227	949.4	69
1047.369	3187.8674	942.6	60.3
1047.4726	3188.8115	946.85	60
1047.5761	3189.755	948.05	69.2
1047.6796	3190.6979	943.2	63.4
1047.783	3191.6402	942.95	61.05
1047.8864	3192.5818	944.8	65.8
1047.9898	3193.5229	951.55	65.8
1048.0931	3194.4633	944.25	65.1
1048.1963	3195.4031	943.8	62.8
1048.2995	3196.3423	942.3	62
1048.4027	3197.2809	942.95	63.85
1048.5058	3198.2189	944.25	64.2
1048.6089	3199.1563	960.1	61.75
1048.7119	3200.0931	941.15	63.45
1048.8148	3201.0292	941.25	62.95
1048.9178	3201.9648	941.45	62.6
1049.0206	3202.8997	943.75	61.15
1049.1235	3203.834	941.3	61.95
1049.2262	3204.7677	937.9	58.8
1049.329	3205.7008	942.6	61.35
1049.4317	3206.6333	935.9	58.05
1049.5343	3207.5652	937.75	56.4
1049.6369	3208.4964	936.6	58.2
1049.7394	3209.4271	935.45	55.35
1049.8419	3210.3571	934.95	54.15
1049.9444	3211.2865	939.15	58.1
1050.0468	3212.2154	937.7	56.55
1050.1491	3213.1436	939.85	55.9
1050.2514	3214.0712	943.25	57.55
1050.3537	3214.9982	936.2	57.9
1050.4559	3215.9246	932.7	53.9
1050.5581	3216.8503	932.25	55.15
1050.6602	3217.7755	933.35	53.5
1050.7623	3218.7001	933.45	51.7
1050.8643	3219.624	933.55	54.6
1050.9663	3220.5473	932.15	50.95
1051.0682	3221.4701	938	57.55
1051.1701	3222.3922	934.2	51.5
1051.2719	3223.3137	932.85	54.2
1051.3737	3224.2346	932.55	55.3
1051.4754	3225.1549	930.3	50.05
1051.5771	3226.0746	930.6	51.15
1051.6788	3226.9937	932.4	54.25
1051.7804	3227.9121	930.1	51.65
1051.8819	3228.83	931.25	54.55
1051.9834	3229.7473	931.95	51.8
1052.0849	3230.6639	934.5	56.5
1052.1863	3231.5799	932.8	53.9
1052.2876	3232.4954	929.1	48.05
1052.3889	3233.4102	929.25	51.55
1052.4902	3234.3244	931.55	50.25
1052.5914	3235.238	927.45	48.95
1052.6926	3236.151	954.6	49.65
1052.7937	3237.0634	929.35	50.2
1052.8948	3237.9752	929.95	50.85
1052.9958	3238.8864	926.4	45.95
1053.0968	3239.797	927.85	49.55
1053.1977	3240.7069	929.75	49.9
1053.2986	3241.6163	927.15	44.75
1053.3994	3242.5251	922.05	42.2
1053.5002	3243.4332	924.4	46.4
1053.6009	3244.3408	924.2	43.95
1053.7016	3245.2477	923.75	44.8
1053.8022	3246.154	920.7	39.5
1053.9028	3247.0598	924.7	46
1054.0034	3247.9649	923.4	44.45
1054.1039	3248.8694	923.65	44.85
1054.2043	3249.7733	921.3	42.35
1054.3047	3250.6766	921.05	42.85
1054.4051	3251.5793	921.4	41.55
1054.5054	3252.4814	920.5	40.75
1054.6056	3253.3829	923.2	42.45
1054.7058	3254.2838	922.2	45.45
1054.806	3255.1841	918.3	37.5
1054.9061	3256.0838	921.3	42.9
1055.0061	3256.9829	920.4	42.05
1055.1062	3257.8814	921.9	41.5
1055.2061	3258.7792	921.7	39.85
1055.306	3259.6765	920.8	39.6
1055.4059	3260.5731	916.45	39.05
1055.5057	3261.4692	917.9	38.25
1055.6055	3262.3647	917.95	36.35
1055.7052	3263.2595	917.45	41.1
1055.8049	3264.1538	913.65	34.9
1055.9045	3265.0474	913.3	35.1
1056.0041	3265.9404	914.5	35.2
1056.1036	3266.8329	912.55	34.95
1056.2031	3267.7247	924.3	36.3
1056.3025	3268.616	910.2	32.5
1056.4019	3269.5066	909.2	31.25
1056.5013	3270.3966	913.55	32.8
1056.6005	3271.286	907.6	29.65
