Software Version:	3.9.2.0
Unit SN:	10000200
Spectrometer SN:	6960
Date:	3/8/2024 11:46:52 AM
Data Line Index:	25
Spectral Points:	2048
Integration time (ms):	125
Averages:	20
Delay (ms):	30000
Sequence Number:	1
Processing:	dark subtract
Laser Power (mW):	305
Laser Current (mA):	821
Laser Diode Temp (C):	25
Laser Case Temp (C):	25.3
System Temp (C):	25.3
Spectrometer Temp (C):	23.2
CCD Temp (C):	0.005
Secondary Temp (C):	20.004
Heatsink Temp (C):	19.962
CCDPCB Temp (C):	34.984
SecondaryPCB Temp (C):	27.881

Wavelength	RamanShift	Raw Counts	Dark Subtracted
787.061	30.1047	414.95	6.1
787.2016	32.3739	412.7	3.6
787.3422	34.6426	413.65	3.8
787.4828	36.9109	417.4	5.75
787.6235	39.1787	419.75	5.5
787.7642	41.4461	426.05	7.65
787.9049	43.7131	428.85	7.25
788.0456	45.9796	431.65	8.15
788.1863	48.2456	436.95	7.3
788.3271	50.5112	442.3	8.4
788.4679	52.7764	445.85	11
788.6087	55.0411	448.65	8.75
788.7496	57.3054	458.3	13.45
788.8904	59.5692	459.85	13
789.0313	61.8326	464.55	14.65
789.1722	64.0955	466.45	15.3
789.3132	66.3579	474	15.9
789.4541	68.6199	480.9	19.1
789.5951	70.8815	490.95	25.85
789.7361	73.1426	507.45	36.95
789.8771	75.4032	542.45	69.7
790.0181	77.6634	612.7	135.15
790.1592	79.9231	777.6	294.8
790.3003	82.1824	1120.7	630.85
790.4414	84.4412	1686.7	1178.55
790.5825	86.6995	2384	1861.05
790.7237	88.9574	3064.25	2522.15
790.8648	91.2148	3508.65	2953.8
791.006	93.4717	3702.7	3138.5
791.1472	95.7282	3720.8	3154.7
791.2885	97.9842	3706.3	3138.25
791.4297	100.2398	3643.7	3072.5
791.571	102.4949	3586.5	3015.85
791.7123	104.7495	3561.85	2984.35
791.8536	107.0036	3519.6	2944.95
791.9949	109.2573	3431.45	2854.35
792.1363	111.5105	3341	2764.45
792.2777	113.7632	3239.6	2658.15
792.4191	116.0154	3143.8	2553.6
792.5605	118.2672	3026.55	2438.15
792.7019	120.5185	2923.3	2336.85
792.8434	122.7693	2841.6	2248.5
792.9849	125.0197	2758.6	2161.15
793.1264	127.2696	2677.6	2077.2
793.2679	129.519	2638.75	2037
793.4094	131.7679	2607.8	2003.65
793.551	134.0163	2600.35	1994.15
793.6926	136.2642	2589.05	1978.05
793.8342	138.5117	2575.8	1960.5
793.9758	140.7587	2539.4	1924.5
794.1175	143.0052	2493.75	1879.8
794.2591	145.2512	2452.45	1834.65
794.4008	147.4967	2394.2	1776.45
794.5425	149.7417	2352.65	1730.2
794.6842	151.9863	2333.35	1706.25
794.826	154.2304	2332.2	1706.15
794.9677	156.4739	2314.15	1679.95
795.1095	158.717	2325.35	1686.45
795.2513	160.9596	2348.25	1705.2
795.3931	163.2017	2366	1724.35
795.535	165.4433	2382.05	1739
795.6768	167.6844	2378.6	1736.95
795.8187	169.925	2347.6	1699.2
795.9606	172.1651	2290	1640.15
796.1025	174.4047	2235.85	1579.55
796.2445	176.6439	2210.75	1552
796.3864	178.8825	2185	1521.45
796.5284	181.1206	2172.45	1509.5
796.6704	183.3582	2162.95	1493.65
796.8124	185.5954	2157.4	1484.45
796.9544	187.832	2150.4	1473.3
797.0965	190.0681	2159.65	1483.7
797.2386	192.3037	2165.15	1486.9
797.3806	194.5388	2177.2	1493.65
797.5228	196.7734	2166.05	1480.35
797.6649	199.0075	2199.4	1511.5
797.807	201.2411	2213.15	1528.3
797.9492	203.4742	2239.9	1552.35
798.0914	205.7068	2263.95	1570.55
798.2336	207.9389	2282.9	1585.35
798.3758	210.1704	2289.85	1602.75
798.518	212.4015	2294.05	1613.95
798.6603	214.632	2281.75	1610.6
798.8025	216.862	2288.45	1616.25
798.9448	219.0915	2297.75	1624.55
799.0871	221.3205	2316.8	1639.65
799.2294	223.549	2315.35	1645.35
799.3718	225.777	2309.35	1635.75
799.5141	228.0044	2298.35	1617.55
799.6565	230.2314	2306.3	1624.75
799.7989	232.4578	2294.95	1609.85
799.9413	234.6837	2284.15	1590.2
800.0837	236.909	2278.85	1585.3
800.2262	239.1339	2280.6	1561.95
800.3687	241.3582	2260.6	1557.75
800.5111	243.582	2292.95	1557.95
800.6536	245.8053	2282.7	1563.35
800.7961	248.0281	2288.15	1571.85
800.9387	250.2503	2295.85	1573.5
801.0812	252.472	2309.05	1586.5
801.2238	254.6932	2306.15	1581.55
801.3664	256.9139	2320.5	1595.1
801.509	259.134	2351.2	1625.9
801.6516	261.3536	2362.2	1640.05
801.7942	263.5727	2407.25	1680.85
801.9369	265.7912	2438.6	1711.2
802.0795	268.0092	2493.75	1763.95
802.2222	270.2267	2554.75	1827.3
802.3649	272.4436	2605.9	1878.2
802.5076	274.6601	2652.35	1909.65
802.6504	276.8759	2658.5	1924.45
802.7931	279.0913	2677.85	1938.2
802.9359	281.3061	2705.05	1966
803.0787	283.5204	2720.1	1977.8
803.2215	285.7341	2737.4	1992.05
803.3643	287.9473	2756.75	2013.35
803.5071	290.16	2748.55	2003.3
803.6499	292.3721	2730.1	1989.05
803.7928	294.5837	2698.9	1954.4
803.9357	296.7947	2670.85	1928.4
804.0786	299.0052	2656.6	1914.45
804.2215	301.2152	2649.95	1902.6
804.3644	303.4246	2635	1892.7
804.5074	305.6334	2608.75	1863.55
804.6503	307.8418	2589	1838.4
804.7933	310.0495	2547.25	1797.8
804.9363	312.2568	2521.1	1770.2
805.0793	314.4635	2467.15	1712.95
805.2223	316.6696	2433.7	1676.3
805.3653	318.8752	2389.6	1626.45
805.5084	321.0802	2359.25	1603.9
805.6514	323.2847	2360.05	1602.8
805.7945	325.4887	2361.35	1601
805.9376	327.692	2385.9	1624.5
806.0807	329.8949	2418.15	1657.25
806.2238	332.0972	2445.55	1682.15
806.367	334.2989	2476.75	1709.5
806.5101	336.5001	2472.95	1706
806.6533	338.7007	2447.8	1680.35
806.7965	340.9008	2397.25	1628.75
806.9397	343.1003	2360.2	1589.6
807.0829	345.2992	2302.1	1528.45
807.2261	347.4976	2263.8	1492.6
807.3693	349.6955	2233	1456.4
807.5126	351.8927	2223.15	1447.1
807.6559	354.0895	2207.55	1421.95
807.7991	356.2856	2189.65	1411.85
807.9424	358.4812	2187.25	1409.45
808.0857	360.6763	2190.4	1406.9
808.2291	362.8707	2181.4	1396.5
808.3724	365.0646	2180.25	1394.15
808.5158	367.258	2203.1	1415.85
808.6591	369.4508	2210.1	1419.75
808.8025	371.643	2238.85	1446.85
808.9459	373.8346	2260	1468.3
809.0893	376.0257	2305.05	1509.6
809.2327	378.2162	2319.35	1527.55
809.3762	380.4062	2332.7	1541.2
809.5196	382.5956	2297.95	1508
809.6631	384.7844	2271.2	1487.6
809.8066	386.9726	2217.75	1434.2
809.9501	389.1603	2189.05	1403.75
810.0936	391.3474	2208.1	1388.15
810.2371	393.5339	2186.55	1398.6
810.3806	395.7199	2186.95	1399.45
810.5241	397.9052	2228.65	1443.35
810.6677	400.09	2281.15	1492.3
810.8113	402.2743	2314.8	1530.7
810.9548	404.4579	2346.35	1556.7
811.0984	406.641	2393.05	1601
811.2421	408.8235	2441.2	1647.55
811.3857	411.0054	2485.95	1692.1
811.5293	413.1868	2539.2	1738.35
811.673	415.3675	2594	1791.25
811.8166	417.5477	2600.95	1796.5
811.9603	419.7273	2526.7	1721.75
812.104	421.9064	2449.45	1635.7
812.2477	424.0848	2400.05	1593.2
812.3914	426.2627	2336.1	1530.85
812.5351	428.4399	2267.2	1462.9
812.6788	430.6166	2221.2	1411.7
812.8226	432.7928	2173.45	1359.55
812.9663	434.9683	2138.35	1326.15
813.1101	437.1432	2101.7	1289.75
813.2539	439.3176	2083.6	1273.45
813.3977	441.4914	2068.95	1262.9
813.5415	443.6645	2070.1	1258.3
813.6853	445.8371	2069.9	1256.2
813.8291	448.0091	2074.55	1259.35
813.973	450.1806	2073.1	1261
814.1168	452.3514	2076.1	1260.3
814.2607	454.5216	2077.6	1257.2
814.4046	456.6913	2065.85	1248.7
814.5485	458.8603	2080.45	1265.5
814.6924	461.0288	2079.1	1266.3
814.8363	463.1967	2071.95	1257.95
814.9802	465.3639	2069.9	1251.9
815.1241	467.5306	2054.7	1239.8
815.2681	469.6967	2056.3	1244.7
815.412	471.8622	2047.1	1235.8
815.556	474.0271	2051.8	1238.5
815.7	476.1914	2059.55	1241.55
815.844	478.3551	2046.3	1229.3
815.988	480.5182	2046	1229.8
816.132	482.6807	2053.2	1234.95
816.276	484.8426	2066.2	1256.1
816.4201	487.0039	2102.4	1286.4
816.5641	489.1647	2153.35	1332.65
816.7082	491.3248	2202.25	1380.7
816.8522	493.4843	2219	1397.6
816.9963	495.6432	2211.85	1390.35
817.1404	497.8015	2189.05	1362.5
817.2845	499.9592	2146	1320.65
817.4286	502.1163	2094.6	1266.95
817.5727	504.2728	2049.95	1224.85
817.7168	506.4287	2033.05	1211.75
817.861	508.5839	2009.7	1183.5
818.0051	510.7386	1999.6	1173.85
818.1493	512.8927	2015.65	1181.7
818.2935	515.0461	2017.3	1186.15
818.4377	517.199	2032.55	1203.55
818.5818	519.3512	2075.95	1244.7
818.726	521.5029	2152.45	1313.8
818.8703	523.6539	2197.8	1363.5
819.0145	525.8043	2211.7	1377.75
819.1587	527.9541	2162.15	1326.25
819.303	530.1033	2095.25	1260.9
819.4472	532.2519	2048.35	1211.8
819.5915	534.3999	2016.75	1179.8
819.7357	536.5472	2018.25	1183.6
819.88	538.694	2020.4	1187.4
820.0243	540.8401	2030.8	1196.15
820.1686	542.9856	2042	1201.35
820.3129	545.1305	2068.25	1225.5
820.4572	547.2748	2070.3	1226.25
820.6016	549.4185	2070.65	1227.1
820.7459	551.5615	2085.4	1245.1
820.8902	553.704	2102.8	1265.35
821.0346	555.8458	2121	1282.7
821.1789	557.987	2141.5	1304.7
821.3233	560.1276	2164.55	1326.7
821.4677	562.2675	2230	1389.45
821.6121	564.4069	2283.15	1443.75
821.7565	566.5456	2325.55	1486.7
821.9009	568.6837	2312.95	1474.65
822.0453	570.8212	2231.55	1390.65
822.1897	572.958	2171.2	1327.2
822.3342	575.0942	2116.45	1277.4
822.4786	577.2299	2080.3	1241.45
822.6231	579.3648	2040.35	1204.7
822.7675	581.4992	2019	1185.1
822.912	583.6329	2033.85	1197.75
823.0565	585.766	2067.75	1230.2
823.201	587.8985	2109.1	1269.6
823.3454	590.0304	2156.1	1303.55
823.4899	592.1616	2192.3	1347.35
823.6345	594.2922	2188.05	1343.45
823.779	596.4222	2137.9	1291.7
823.9235	598.5515	2084.05	1234.4
824.068	600.6802	2031.95	1183.9
824.2126	602.8083	1999.9	1153.9
824.3571	604.9358	1987.2	1137.8
824.5017	607.0626	1982.95	1133.8
824.6462	609.1888	2004.15	1153.9
824.7908	611.3144	2018.05	1164.75
824.9354	613.4393	2056.85	1203.7
825.08	615.5636	2113.2	1260.6
825.2246	617.6873	2160.15	1311.65
825.3692	619.8103	2186.45	1331
825.5138	621.9327	2177.2	1321.4
825.6584	624.0544	2137.5	1288.25
825.803	626.1756	2089	1237.95
825.9477	628.2961	2041.25	1185.8
826.0923	630.4159	2018.1	1162.9
826.237	632.5351	2018.35	1161.25
826.3816	634.6537	2021.1	1167.45
826.5263	636.7716	1994.8	1137
826.6709	638.8889	1993.3	1135.95
826.8156	641.0056	2003.45	1144.75
826.9603	643.1216	2005.75	1148
827.105	645.237	2012	1154.4
827.2497	647.3518	1992.85	1137.35
827.3944	649.4659	1956.65	1101.95
827.5391	651.5793	1946.05	1089.55
827.6838	653.6922	1942.3	1087.7
827.8285	655.8043	1923.4	1067.55
827.9733	657.9159	1913.3	1056.65
828.118	660.0268	1905.4	1047.5
828.2627	662.137	1903.8	1041
828.4075	664.2466	1912.35	1051.95
828.5522	666.3556	1902.65	1041.5
828.697	668.4639	1907.55	1046.25
828.8418	670.5716	1887.2	1030.05
828.9865	672.6786	1889.55	1030
829.1313	674.785	1876	1012.4
829.2761	676.8907	1873.8	1010.25
829.4209	678.9958	1872.45	1011.6
829.5657	681.1002	1868.45	1005.45
829.7105	683.204	1880.55	1012.2
829.8553	685.3072	1874.1	1011.2
830.0001	687.4097	1875.15	1012.2
830.1449	689.5115	1878.25	1011.25
830.2898	691.6127	1874.9	1014.4
830.4346	693.7132	1862.75	1002.35
830.5794	695.8131	1885.7	999.9
830.7243	697.9123	1871.15	1006
830.8691	700.0109	1880.7	1013.15
831.014	702.1089	1902.65	1036.3
831.1588	704.2061	1906.25	1040.5
831.3037	706.3028	1933.55	1064.8
831.4486	708.3987	1943.25	1075.45
831.5935	710.4941	1958.3	1091.4
831.7383	712.5887	1954.25	1086.6
831.8832	714.6827	1956.8	1086.8
832.0281	716.7761	1954.8	1089.85
832.173	718.8688	1953.8	1083.25
832.3179	720.9608	1959.1	1086.5
832.4628	723.0522	1977.85	1101.55
832.6077	725.1429	1987.25	1121.25
832.7527	727.233	2026.9	1157.3
832.8976	729.3224	2090.75	1218.35
833.0425	731.4112	2136.75	1262.05
833.1874	733.4993	2145.35	1272.65
833.3324	735.5867	2087.4	1215.65
833.4773	737.6735	2031.15	1160.05
833.6222	739.7596	1973	1098.65
833.7672	741.845	1933.45	1064.05
833.9122	743.9298	1948.45	1074.2
834.0571	746.014	1943.45	1072.2
834.2021	748.0974	1965.8	1093.15
834.347	750.1802	1951.95	1078.55
834.492	752.2624	1948.05	1074.85
834.637	754.3439	1934.1	1058.4
834.782	756.4247	1934.7	1051.7
834.9269	758.5048	1938.45	1061.3
835.0719	760.5843	1956.25	1080.2
835.2169	762.6631	1984.2	1108.75
835.3619	764.7413	2045.2	1170.15
835.5069	766.8188	2131.2	1254.3
835.6519	768.8956	2209.65	1328.25
835.7969	770.9718	2264.5	1389.05
835.9419	773.0473	2258.45	1384.75
836.0869	775.1221	2224.8	1346.8
836.232	777.1962	2216.5	1339.55
836.377	779.2697	2272.9	1397.25
836.522	781.3426	2381.5	1486.5
836.667	783.4147	2426	1549.4
836.8121	785.4862	2399.3	1522.7
836.9571	787.557	2310.5	1433.2
837.1021	789.6271	2186.65	1306.95
837.2472	791.6966	2064.9	1186.5
837.3922	793.7654	1985.6	1106.7
837.5373	795.8335	1935.95	1059.6
837.6823	797.901	1894.75	1015.35
837.8274	799.9678	1890.1	1008
837.9724	802.0339	1896.7	1018.2
838.1175	804.0993	1900.95	1013.05
838.2626	806.1641	1884.9	1001.2
838.4076	808.2282	1871.75	992.9
838.5527	810.2916	1857.55	974.55
838.6978	812.3544	1835.85	954
838.8428	814.4164	1824.25	945.2
838.9879	816.4778	1841.05	960.9
839.133	818.5385	1850.6	970.2
839.2781	820.5986	1877.9	996.55
839.4232	822.658	1932.4	1050.6
839.5682	824.7166	1991.2	1111.1
839.7133	826.7747	2084.4	1201.95
839.8584	828.832	2157.05	1276.4
840.0035	830.8886	2213.2	1328.7
840.1486	832.9446	2232.3	1351.55
840.2937	834.9999	2199.65	1318.05
840.4388	837.0545	2136.05	1250.45
840.5839	839.1085	2051.65	1170.25
840.729	841.1618	1986.05	1100
840.8741	843.2143	1932.8	1050.95
841.0192	845.2662	1887.6	1004.25
841.1643	847.3175	1887.75	1004.5
841.3095	849.368	1874.4	988.2
841.4546	851.4179	1869.15	985.2
841.5997	853.467	1863.35	980.15
841.7448	855.5155	1873.75	988.8
841.8899	857.5633	1878.25	994.5
842.0351	859.6105	1865.55	977.9
842.1802	861.6569	1853.05	969
842.3253	863.7027	1838.9	953.1
842.4704	865.7478	1832.9	947.15
842.6156	867.7922	1820.6	937.15
842.7607	869.8359	1820.85	934.05
842.9058	871.8789	1815.4	929.9
843.0509	873.9212	1846.15	928.35
843.1961	875.9629	1825.8	936.25
843.3412	878.0039	1840.25	955.05
843.4863	880.0441	1848.75	962.55
843.6315	882.0837	1864.3	977.75
843.7766	884.1226	1895.4	1006.9
843.9218	886.1609	1932.85	1049.6
844.0669	888.1984	1972.15	1087.2
844.212	890.2352	2019.95	1136.2
844.3572	892.2714	2025.7	1135.85
844.5023	894.3069	2001.65	1114.8
844.6475	896.3416	1954.8	1068.1
844.7926	898.3757	1902.85	1013.65
844.9377	900.4091	1886.9	997.65
845.0829	902.4418	1894.55	1003
845.228	904.4739	1911.2	1020.1
845.3732	906.5052	1913.45	1025.1
845.5183	908.5358	1905.8	1017.75
845.6635	910.5658	1895.5	1006.75
845.8086	912.595	1839.55	948.6
845.9538	914.6236	1821.25	932.5
846.0989	916.6515	1786.65	897.95
846.2441	918.6786	1773.05	881.8
846.3892	920.7051	1762.45	871.4
846.5344	922.7309	1777.3	888.1
846.6795	924.756	1758.85	868.05
846.8246	926.7804	1769.4	876.75
846.9698	928.8041	1787.75	897.8
847.1149	930.8272	1809.55	920.35
847.2601	932.8495	1820.35	928.95
847.4052	934.8711	1822.3	930.95
847.5504	936.892	1818.25	927.85
847.6955	938.9123	1840.35	949.95
847.8407	940.9318	1870.6	980.95
847.9858	942.9506	1880.1	988.8
848.131	944.9688	1871.85	980.45
848.2761	946.9862	1846.65	954.55
848.4213	949.003	1807.1	913.1
848.5664	951.019	1788.9	899.05
848.7115	953.0344	1772.85	879.7
848.8567	955.0491	1766.6	877.6
849.0018	957.063	1759.7	868.25
849.147	959.0763	1761.05	871.35
849.2921	961.0888	1755.3	863.9
849.4373	963.1007	1754.4	861.9
849.5824	965.1119	1745.15	856.45
849.7275	967.1223	1733.25	847.9
849.8727	969.1321	1725.05	841.85
850.0178	971.1412	1731	841.35
850.1629	973.1495	1726.05	837.05
850.3081	975.1572	1755.05	828.85
850.4532	977.1641	1735.3	845.3
850.5983	979.1704	1729.7	836.2
850.7435	981.1759	1722.6	825.85
850.8886	983.1808	1728.95	835.35
851.0337	985.1849	1726.55	826.65
851.1788	987.1884	1717.1	820.7
851.324	989.1911	1719.9	824.2
851.4691	991.1932	1730.65	837.1
851.6142	993.1945	1718.65	826
851.7593	995.1951	1720.35	827.3
851.9045	997.1951	1724.3	826.55
852.0496	999.1943	1710.1	815.75
852.1947	1001.1928	1733.65	840.6
852.3398	1003.1906	1732.6	840.45
852.4849	1005.1877	1754.5	860.4
852.63	1007.1841	1776.6	881
852.7751	1009.1798	1791.45	900.45
852.9202	1011.1748	1775.85	884.85
853.0653	1013.1691	1753.55	859.6
853.2104	1015.1627	1728.25	836.3
853.3555	1017.1556	1691.35	798.4
853.5006	1019.1477	1675.85	783.1
853.6457	1021.1392	1655.25	767.25
853.7908	1023.1299	1650.6	760
853.9359	1025.12	1655.3	765.45
854.081	1027.1093	1652.8	769.1
854.2261	1029.0979	1672.4	793.1
854.3712	1031.0859	1694.25	808
854.5163	1033.0731	1706	814.5
854.6613	1035.0596	1703.4	814.2
854.8064	1037.0454	1703.95	814.6
854.9515	1039.0304	1690.95	796.55
855.0965	1041.0148	1670.5	779.6
855.2416	1042.9985	1659.65	764.15
855.3867	1044.9814	1643.1	752.6
855.5317	1046.9636	1638.9	745.6
855.6768	1048.9452	1646.05	754.4
855.8219	1050.926	1664.8	769.25
855.9669	1052.9061	1674.55	777.55
856.112	1054.8855	1683.7	790.4
856.257	1056.8642	1679.6	784
856.4021	1058.8421	1681	787
856.5471	1060.8194	1670.85	775.3
856.6921	1062.7959	1678.6	783.35
856.8372	1064.7717	1679.7	784.3
856.9822	1066.7469	1687.4	792.15
857.1272	1068.7213	1683.55	786.25
857.2723	1070.695	1700.85	809.95
857.4173	1072.6679	1713.85	819.25
857.5623	1074.6402	1733.95	838.85
857.7073	1076.6117	1739.2	838.35
857.8523	1078.5826	1714.95	820.15
857.9973	1080.5527	1682.25	784.55
858.1423	1082.5221	1647.8	753.2
858.2873	1084.4908	1631.7	735.95
858.4323	1086.4587	1612.85	718.45
858.5773	1088.426	1616.7	720.7
858.7223	1090.3925	1614.95	715.8
858.8673	1092.3584	1611.45	717.7
859.0123	1094.3235	1619.75	725.75
859.1573	1096.2879	1640.55	747.75
859.3022	1098.2515	1666.65	770.1
859.4472	1100.2145	1686.95	790.5
859.5922	1102.1767	1713.5	816.6
859.7371	1104.1382	1763.85	868.6
859.8821	1106.099	1812.5	915.7
860.027	1108.0591	1864	969.95
860.172	1110.0185	1891.4	995.25
860.3169	1111.9771	1933.6	1038.65
860.4619	1113.9351	1975.8	1082.3
860.6068	1115.8923	2027.05	1134.05
860.7517	1117.8488	2050.6	1153.1
860.8967	1119.8045	2000.4	1106.2
861.0416	1121.7596	1907.7	1011.65
861.1865	1123.7139	1817.85	923.55
861.3314	1125.6675	1770.4	876.25
861.4763	1127.6204	1765.45	871.05
861.6212	1129.5726	1791.15	894.7
861.7661	1131.524	1782.25	888.4
861.911	1133.4748	1743.7	846.45
862.0559	1135.4248	1699.25	805.25
862.2008	1137.3741	1646.5	752.95
862.3457	1139.3226	1626.4	730.15
862.4905	1141.2705	1635.05	737.95
862.6354	1143.2176	1633.75	732.05
862.7803	1145.164	1638.6	744.4
862.9251	1147.1097	1632.15	735.75
863.07	1149.0546	1620.25	723.3
863.2148	1150.9989	1577.75	681.35
863.3597	1152.9424	1564.65	668.35
863.5045	1154.8852	1565.75	668.2
863.6493	1156.8272	1549.7	656.4
863.7942	1158.7686	1567.35	664.35
863.939	1160.7092	1558.8	662.7
864.0838	1162.6491	1557.1	657.4
864.2286	1164.5883	1568.4	673.15
864.3734	1166.5267	1586.95	691.05
864.5182	1168.4644	1618.05	721.75
864.663	1170.4014	1646.25	746.05
864.8078	1172.3377	1686.85	791.75
864.9526	1174.2732	1729.05	834.75
865.0974	1176.2081	1817.5	919.8
865.2421	1178.1421	1933.6	1034.55
865.3869	1180.0755	2037.1	1144.05
865.5317	1182.0082	2090.55	1193.5
865.6764	1183.9401	2070.7	1173.7
865.8212	1185.8713	1962.75	1067.8
865.9659	1187.8017	1851.55	961
866.1106	1189.7315	1744.4	857
866.2554	1191.6605	1706.9	791.85
866.4001	1193.5888	1642.35	752.5
866.5448	1195.5163	1611.2	718.4
866.6895	1197.4432	1600.45	706.9
866.8342	1199.3693	1586.75	690.7
866.9789	1201.2947	1574.95	676.15
867.1236	1203.2193	1553.65	658.55
867.2683	1205.1432	1561.65	667.2
867.413	1207.0664	1560.9	665.85
867.5576	1208.9889	1563.95	670.1
867.7023	1210.9106	1558.15	663.4
867.847	1212.8316	1566.9	673.45
867.9916	1214.7519	1581.4	676.15
868.1363	1216.6715	1588.3	689.05
868.2809	1218.5903	1598.75	703.9
868.4255	1220.5084	1614.3	718.85
868.5701	1222.4257	1630.05	736.55
868.7148	1224.3424	1639.45	744.65
868.8594	1226.2583	1659.05	758.7
869.004	1228.1735	1693.15	795.8
869.1486	1230.0879	1726.85	829.15
869.2932	1232.0016	1759.25	861.95
869.4377	1233.9146	1797.55	900.95
869.5823	1235.8269	1814.75	917.65
869.7269	1237.7384	1819.8	922.15
869.8715	1239.6492	1830	935.55
870.016	1241.5592	1843.75	945.05
870.1606	1243.4686	1889.8	995.75
870.3051	1245.3772	1952.4	1059.05
870.4496	1247.285	2029.7	1133.4
870.5941	1249.1922	2113.6	1216.2
870.7387	1251.0986	2184	1288.95
870.8832	1253.0042	2243.9	1348.1
871.0277	1254.9092	2329.05	1433.45
871.1722	1256.8134	2399.35	1505
871.3167	1258.7169	2465.95	1568.55
871.4611	1260.6196	2484.25	1587.6
871.6056	1262.5216	2499.25	1599.9
871.7501	1264.4229	2462.65	1564.05
871.8945	1266.3234	2437.4	1539.6
872.039	1268.2232	2399.1	1501.15
872.1834	1270.1223	2352.35	1453.05
872.3278	1272.0207	2324.9	1426.8
872.4723	1273.9183	2307.15	1405.4
872.6167	1275.8151	2311.65	1416.45
872.7611	1277.7113	2351	1456.35
872.9055	1279.6067	2429.4	1534.7
873.0499	1281.5014	2577.45	1678.05
873.1943	1283.3953	2716.95	1817.1
873.3386	1285.2885	2896.5	2000.1
873.483	1287.181	3004.45	2108.1
873.6274	1289.0727	3035.85	2139.7
873.7717	1290.9637	2995.4	2099.65
873.9161	1292.854	2940.5	2044.05
874.0604	1294.7435	2828.4	1929.9
874.2047	1296.6323	2731.35	1834.35
874.349	1298.5204	2646.9	1745.55
874.4933	1300.4077	2579.2	1682.05
874.6376	1302.2943	2533.65	1635.65
874.7819	1304.1802	2500.4	1603.3
874.9262	1306.0653	2473.6	1574.95
875.0705	1307.9497	2432.45	1536.8
875.2147	1309.8333	2397.15	1499.2
875.359	1311.7162	2365.65	1467.45
875.5032	1313.5984	2333.7	1432.8
875.6475	1315.4798	2317.95	1411.8
875.7917	1317.3605	2307.3	1407.7
875.9359	1319.2405	2303.35	1403.2
876.0801	1321.1197	2279.1	1378.75
876.2243	1322.9982	2213.75	1313.1
876.3685	1324.876	2147.4	1251.7
876.5127	1326.753	2059.15	1160.65
876.6569	1328.6293	1982.75	1084.45
876.801	1330.5048	1902.85	1002.05
876.9452	1332.3796	1841.25	944.3
877.0893	1334.2537	1815.5	894.15
877.2335	1336.127	1753.6	854
877.3776	1337.9996	1733.5	835.95
877.5217	1339.8714	1710.65	813.35
877.6658	1341.7426	1740.85	798.1
877.8099	1343.6129	1688	791.65
877.954	1345.4826	1673.35	774.6
878.0981	1347.3515	1664.75	763.6
878.2422	1349.2196	1655.6	756.9
878.3862	1351.087	1646.75	750.25
878.5303	1352.9537	1638.8	740.65
878.6743	1354.8197	1646.8	749.15
878.8184	1356.6849	1648.25	750.75
878.9624	1358.5493	1662.6	765.25
879.1064	1360.4131	1688.8	791.4
879.2504	1362.276	1719.25	820.95
879.3944	1364.1383	1757.35	858.05
879.5384	1365.9998	1774.05	872.85
879.6823	1367.8606	1761.2	862.35
879.8263	1369.7206	1750.75	850.7
879.9702	1371.5799	1743.3	841.95
880.1142	1373.4384	1739.7	840.65
880.2581	1375.2962	1716.5	817.65
880.402	1377.1533	1654.85	760.15
880.5459	1379.0096	1616.8	720.8
880.6898	1380.8652	1579.85	685.5
880.8337	1382.7201	1556.35	660.15
880.9776	1384.5742	1542.2	645.6
881.1215	1386.4275	1521.2	622.6
881.2653	1388.2802	1506.9	608.75
881.4092	1390.132	1490.05	591.75
881.553	1391.9832	1492.85	593.1
881.6968	1393.8336	1469.45	572.3
881.8406	1395.6832	1468.25	568.25
881.9844	1397.5322	1456.5	556.9
882.1282	1399.3803	1461.15	560.85
882.272	1401.2278	1445.95	548.6
882.4158	1403.0745	1441.5	543.65
882.5595	1404.9204	1430	535.1
882.7033	1406.7656	1429.4	530.75
882.847	1408.6101	1429.6	530.05
882.9908	1410.4538	1417.5	520.55
883.1345	1412.2968	1423.8	524.2
883.2782	1414.139	1427.4	529.85
883.4219	1415.9805	1428.3	530.55
883.5656	1417.8213	1442.25	539.1
883.7092	1419.6613	1447.5	549.6
883.8529	1421.5006	1486.8	587.65
883.9965	1423.3391	1519.55	621.7
884.1402	1425.1769	1564.45	666.2
884.2838	1427.0139	1632.2	733.25
884.4274	1428.8502	1699.85	801.35
884.571	1430.6858	1773.65	876.45
884.7146	1432.5206	1802.9	904.65
884.8582	1434.3547	1793.4	896.9
885.0018	1436.188	1770.95	870.6
885.1453	1438.0206	1749.2	850.85
885.2889	1439.8524	1744.75	847.8
885.4324	1441.6835	1745.35	848.6
885.5759	1443.5139	1743	841.35
885.7194	1445.3435	1745.95	851.3
885.8629	1447.1724	1747.6	850.55
886.0064	1449.0005	1747.8	850.15
886.1499	1450.8279	1738.2	842.6
886.2933	1452.6545	1736.35	837.85
886.4368	1454.4804	1730.4	834.5
886.5802	1456.3056	1730.15	828.15
886.7237	1458.13	1711.55	814.95
886.8671	1459.9536	1690.65	795.4
887.0105	1461.7766	1659.85	761.4
887.1539	1463.5987	1622.45	724.3
887.2972	1465.4202	1583.1	685.15
887.4406	1467.2409	1546.1	649.75
887.584	1469.0608	1515.6	618.8
887.7273	1470.88	1492.85	594.55
887.8706	1472.6984	1467.65	569.8
888.0139	1474.5161	1450.3	549.65
888.1572	1476.3331	1436.15	541.9
888.3005	1478.1493	1423.65	527.25
888.4438	1479.9648	1423.1	524.65
888.5871	1481.7795	1419.7	523.35
888.7303	1483.5935	1423.45	524.25
888.8736	1485.4067	1421.1	524.45
889.0168	1487.2192	1427.1	529.65
889.16	1489.031	1420.55	520.8
889.3032	1490.842	1419.4	519.5
889.4464	1492.6522	1407.65	512.8
889.5896	1494.4618	1414.4	516.1
889.7327	1496.2705	1408.6	511.7
889.8759	1498.0785	1406.5	510.3
890.019	1499.8858	1403	508.45
890.1622	1501.6924	1396.4	502.5
890.3053	1503.4981	1386.35	490.55
890.4484	1505.3032	1380.45	484.1
890.5914	1507.1075	1368.05	471.55
890.7345	1508.911	1368.05	473.4
890.8776	1510.7138	1368.4	470.5
891.0206	1512.5159	1357.2	461.9
891.1637	1514.3172	1352.2	455.25
891.3067	1516.1178	1347.6	452.5
891.4497	1517.9176	1339.7	442.85
891.5927	1519.7166	1336.35	441.75
891.7357	1521.515	1337.6	435.15
891.8786	1523.3126	1325.85	429.05
892.0216	1525.1094	1326.95	428.35
892.1645	1526.9055	1308.15	413.1
892.3074	1528.7008	1315.25	421
892.4503	1530.4954	1318.45	415.7
892.5932	1532.2893	1310.6	419.35
892.7361	1534.0824	1309.5	409.1
892.879	1535.8747	1308.35	414.05
893.0218	1537.6663	1314.3	418.3
893.1647	1539.4572	1309	414.55
893.3075	1541.2473	1304.5	410.65
893.4503	1543.0367	1304.15	410.95
893.5931	1544.8253	1306.5	406.95
893.7359	1546.6132	1308.75	412.45
893.8787	1548.4003	1324.8	420.65
894.0214	1550.1867	1330.65	428.1
894.1642	1551.9723	1335.45	435.85
894.3069	1553.7572	1347	451.65
894.4496	1555.5414	1363.05	468.95
894.5923	1557.3247	1395.4	501.25
894.735	1559.1074	1413.2	521.25
894.8777	1560.8893	1447.95	553.75
895.0204	1562.6705	1484.55	590
895.163	1564.4509	1508.55	616.05
895.3056	1566.2305	1510.1	621.4
895.4482	1568.0094	1514.6	623.6
895.5908	1569.7876	1507.2	615
895.7334	1571.565	1507.2	614.1
895.876	1573.3417	1506.3	615.4
896.0186	1575.1176	1513.5	621.5
896.1611	1576.8928	1512.5	622.8
896.3036	1578.6672	1539.4	649.2
896.4461	1580.4409	1555.9	667.8
896.5886	1582.2138	1590	699.85
896.7311	1583.986	1626.85	734.95
896.8736	1585.7575	1651.05	761.4
897.0161	1587.5282	1678.9	791.85
897.1585	1589.2981	1700.6	812.35
897.3009	1591.0673	1716.35	826.3
897.4433	1592.8358	1720.75	831.85
897.5857	1594.6035	1727.15	837.4
897.7281	1596.3704	1720	828.25
897.8705	1598.1366	1702.45	811.7
898.0128	1599.9021	1685.15	795.45
898.1551	1601.6668	1679.3	786.05
898.2975	1603.4308	1663.6	771.05
898.4398	1605.194	1668.45	775.7
898.5821	1606.9564	1693.15	803.1
898.7243	1608.7182	1738.7	848.95
898.8666	1610.4791	1804.05	916.05
899.0088	1612.2394	1890	1005.65
899.1511	1613.9988	1970.65	1084.35
899.2933	1615.7576	2028.95	1141.4
899.4355	1617.5156	2049.35	1154
899.5776	1619.2728	2012.4	1119.6
899.7198	1621.0293	1938.25	1048.35
899.862	1622.785	1841.8	951.1
900.0041	1624.54	1736.1	845.25
900.1462	1626.2942	1632.25	743.85
900.2883	1628.0477	1556.75	664.35
900.4304	1629.8005	1490.45	598.9
900.5725	1631.5525	1428.65	541.3
900.7145	1633.3037	1385.2	497.6
900.8566	1635.0542	1356.3	468.45
900.9986	1636.804	1331.8	442.85
901.1406	1638.553	1407.75	411
901.2826	1640.3013	1289.05	401.45
901.4245	1642.0488	1271.5	380
901.5665	1643.7955	1258.25	371.15
901.7085	1645.5416	1247.3	359.4
901.8504	1647.2868	1244.4	357.6
901.9923	1649.0313	1233.15	344.95
902.1342	1650.7751	1238.5	347.35
902.2761	1652.5181	1232.55	345.75
902.4179	1654.2604	1231.3	341.6
902.5598	1656.0019	1233.1	344.45
902.7016	1657.7427	1248.55	359.55
902.8434	1659.4828	1266.25	377.2
902.9852	1661.222	1292.15	402.15
903.127	1662.9606	1314.65	426.55
903.2687	1664.6984	1341.4	448.6
903.4105	1666.4354	1335.15	442.3
903.5522	1668.1717	1318.55	425.55
903.6939	1669.9072	1280.8	390.55
903.8356	1671.642	1254.25	363.2
903.9773	1673.3761	1212.2	320.4
904.119	1675.1094	1190.5	300.8
904.2606	1676.8419	1176.05	285.45
904.4022	1678.5737	1167.7	278.35
904.5439	1680.3048	1159.4	269.25
904.6855	1682.0351	1149.35	258.65
904.827	1683.7646	1152	258.25
904.9686	1685.4934	1138.65	249.7
905.1101	1687.2215	1135.8	247.1
905.2517	1688.9488	1131.85	244.1
905.3932	1690.6754	1129.3	240.55
905.5347	1692.4012	1125.6	234.75
905.6761	1694.1263	1124	234.4
905.8176	1695.8506	1124.45	231.3
905.9591	1697.5742	1122.35	233
906.1005	1699.297	1113.15	224.9
906.2419	1701.0191	1111.25	224.95
906.3833	1702.7404	1111.7	223.6
906.5246	1704.461	1114	225.45
906.666	1706.1808	1112.4	222.45
906.8073	1707.8999	1110.95	220.75
906.9487	1709.6182	1101.75	215.75
907.09	1711.3358	1104.65	215.95
907.2313	1713.0527	1096.5	212.25
907.3725	1714.7688	1109.05	216.05
907.5138	1716.4841	1102.3	212.6
907.655	1718.1987	1108.05	214.1
907.7962	1719.9126	1096.35	210.3
907.9374	1721.6257	1097.65	208.5
908.0786	1723.338	1092.95	207.9
908.2198	1725.0496	1098.3	210.3
908.3609	1726.7605	1092.5	203.85
908.502	1728.4706	1093.45	206.9
908.6431	1730.18	1094.75	203.95
908.7842	1731.8886	1087.55	200.2
908.9253	1733.5964	1106.4	197.55
909.0664	1735.3036	1091.25	201.7
909.2074	1737.0099	1086.5	200.1
909.3484	1738.7156	1087.55	204.45
909.4894	1740.4204	1092	202.4
909.6304	1742.1246	1087.3	197.7
909.7714	1743.8279	1089.25	202.6
909.9123	1745.5306	1084.15	197.6
910.0532	1747.2325	1083.3	194.95
910.1941	1748.9336	1086	199.8
910.335	1750.634	1084.7	195.05
910.4759	1752.3336	1083.1	194.25
910.6168	1754.0325	1080.6	195.65
910.7576	1755.7307	1082.05	195.85
910.8984	1757.4281	1082.65	195.9
911.0392	1759.1247	1091.2	196.45
911.18	1760.8206	1088.05	195.3
911.3208	1762.5158	1089.15	195.75
911.4615	1764.2102	1079.35	192
911.6022	1765.9039	1075.9	188.5
911.7429	1767.5968	1078	192.45
911.8836	1769.289	1078.25	190.85
912.0243	1770.9804	1080.35	191.7
912.1649	1772.6711	1081.9	190.3
912.3056	1774.361	1080.55	190.85
912.4462	1776.0502	1079.25	190.7
912.5868	1777.7386	1082.85	192.65
912.7274	1779.4263	1076.05	188.55
912.8679	1781.1132	1073.3	186.75
913.0084	1782.7994	1073.25	187.2
913.149	1784.4849	1076.9	191.05
913.2895	1786.1696	1087.85	180.9
913.4299	1787.8535	1071.85	186.35
913.5704	1789.5367	1072.9	188.1
913.7108	1791.2192	1071.5	186.3
913.8513	1792.9009	1095.15	182.45
913.9917	1794.5818	1073.85	184.25
914.132	1796.2621	1066.8	180.35
914.2724	1797.9415	1069.25	180.45
914.4128	1799.6202	1073.05	185.3
914.5531	1801.2982	1068.3	182.1
914.6934	1802.9755	1069.9	179.6
914.8337	1804.6519	1067.25	180.85
914.9739	1806.3277	1065.35	178.85
915.1142	1808.0027	1058.6	175.35
915.2544	1809.6769	1061.95	179
915.3946	1811.3504	1060.25	173.85
915.5348	1813.0231	1061	173.45
915.675	1814.6951	1065.55	181.15
915.8151	1816.3664	1063.5	172.9
915.9553	1818.0369	1060.5	173.2
916.0954	1819.7067	1057.3	170.2
916.2355	1821.3757	1059.35	170.55
916.3755	1823.044	1059.4	171.95
916.5156	1824.7115	1063.5	174.25
916.6556	1826.3783	1059.85	174.95
916.7956	1828.0443	1062.65	174.15
916.9356	1829.7096	1058.65	171.35
917.0756	1831.3741	1062	173.35
917.2155	1833.0379	1056.15	170.15
917.3555	1834.701	1057.25	169.2
917.4954	1836.3633	1057.9	173.05
917.6353	1838.0248	1055.35	166.8
917.7751	1839.6856	1058.1	172.8
917.915	1841.3457	1050.35	163.85
918.0548	1843.005	1058.25	169.8
918.1946	1844.6636	1056.15	168.5
918.3344	1846.3214	1053.45	166.75
918.4742	1847.9785	1051.55	165.15
918.6139	1849.6349	1056.1	167.1
918.7537	1851.2904	1064	166.3
918.8934	1852.9453	1054.6	164.65
919.0331	1854.5994	1056.6	167.6
919.1727	1856.2528	1056.25	164.95
919.3124	1857.9054	1055.4	166.95
919.452	1859.5572	1049.7	164.15
919.5916	1861.2083	1056.55	168.9
919.7312	1862.8587	1049.9	159.45
919.8708	1864.5084	1052.05	160.75
920.0103	1866.1572	1051.9	162.4
920.1498	1867.8054	1053.15	165.2
920.2893	1869.4528	1054.65	167.9
920.4288	1871.0994	1048.3	159.8
920.5683	1872.7453	1049.1	159.75
920.7077	1874.3905	1055.2	160.1
920.8471	1876.0349	1049.25	160.55
920.9865	1877.6786	1046.85	155.95
921.1259	1879.3215	1045.15	157.9
921.2653	1880.9637	1048.4	160.05
921.4046	1882.6051	1043.25	157.1
921.5439	1884.2458	1047.35	157.55
921.6832	1885.8858	1045.2	158.1
921.8225	1887.525	1043.85	155.8
921.9617	1889.1634	1045.85	156.5
922.101	1890.8011	1044.75	154.7
922.2402	1892.4381	1044.65	157.5
922.3794	1894.0743	1040.7	154.15
922.5185	1895.7098	1041.95	155.75
922.6577	1897.3446	1044.15	156.65
922.7968	1898.9786	1043.25	151.45
922.9359	1900.6118	1038.2	152.45
923.075	1902.2443	1038.15	147.65
923.214	1903.8761	1034.9	146.3
923.3531	1905.5071	1036.85	150.4
923.4921	1907.1374	1032.55	142.4
923.6311	1908.7669	1040.2	152.5
923.77	1910.3957	1037.4	148.45
923.909	1912.0237	1037.4	150.85
924.0479	1913.651	1036.55	147
924.1868	1915.2776	1033.65	145.7
924.3257	1916.9034	1035	150.45
924.4646	1918.5285	1032.7	146.4
924.6034	1920.1528	1037.45	150.85
924.7422	1921.7764	1032.3	146.65
924.881	1923.3992	1030.85	142.7
925.0198	1925.0213	1031.6	145.6
925.1586	1926.6427	1030.9	144.55
925.2973	1928.2633	1240.6	136.2
925.436	1929.8832	1036.1	145.95
925.5747	1931.5023	1027.5	141.8
925.7134	1933.1207	1028.4	141.25
925.852	1934.7383	1031.15	143.9
925.9906	1936.3552	1029.15	143
926.1292	1937.9714	1028.4	140.35
926.2678	1939.5868	1033.5	143.05
926.4064	1941.2015	1029.7	141.7
926.5449	1942.8154	1025.9	140.3
926.6834	1944.4286	1026.65	140.3
926.8219	1946.041	1050.55	139.3
926.9604	1947.6528	1031.3	137.35
927.0988	1949.2637	1027.45	141.35
927.2372	1950.8739	1024.6	136.75
927.3756	1952.4834	1027.4	141.4
927.514	1954.0921	1023.85	135.5
927.6523	1955.7001	1027.8	137.9
927.7907	1957.3074	1024.65	141
927.929	1958.9139	1021.45	137.25
928.0673	1960.5197	1025.9	136.4
928.2055	1962.1247	1019.95	132.5
928.3438	1963.729	1019.8	134.8
928.482	1965.3325	1028.2	137.25
928.6202	1966.9353	1018.5	132.85
928.7584	1968.5374	1018.75	134.2
928.8965	1970.1387	1018.95	134.15
929.0346	1971.7393	1019.6	135.35
929.1727	1973.3392	1016.9	132.65
929.3108	1974.9383	1014.85	131.95
929.4489	1976.5366	1016.3	131.7
929.5869	1978.1342	1015.7	131.55
929.7249	1979.7311	1019.05	134.1
929.8629	1981.3273	1020.2	136.15
930.0009	1982.9227	1013.95	128.25
930.1388	1984.5173	1013.75	132.3
930.2767	1986.1112	1012.65	130.85
930.4146	1987.7044	1012.9	131.05
930.5525	1989.2968	1013.85	130.3
930.6904	1990.8885	1017.4	130.8
930.8282	1992.4795	1015.95	131.25
930.966	1994.0697	1011.1	130.7
931.1038	1995.6592	1010.6	127.15
931.2415	1997.2479	1015.75	131.75
931.3793	1998.8359	1011	128.45
931.517	2000.4232	1009.45	127.7
931.6547	2002.0097	1008.8	132.25
931.7923	2003.5955	1008.45	128.3
931.93	2005.1805	1011.1	129.8
932.0676	2006.7648	1007.45	127.95
932.2052	2008.3484	1007.45	126.4
932.3427	2009.9312	1010.15	130.05
932.4803	2011.5133	1004.6	125.65
932.6178	2013.0946	1006.35	127.45
932.7553	2014.6752	1005.15	125.05
932.8928	2016.2551	1007.75	122.55
933.0302	2017.8342	1006.95	127.35
933.1676	2019.4126	1006.45	125.45
933.305	2020.9902	1004.5	125.95
933.4424	2022.5672	1007.8	127.35
933.5798	2024.1433	1013.1	127.45
933.7171	2025.7188	1004.35	125.9
933.8544	2027.2935	1007.25	128.75
933.9917	2028.8674	1003.65	124
934.129	2030.4406	1003.8	125.3
934.2662	2032.0131	999	120.6
934.4034	2033.5849	1006.25	122.8
934.5406	2035.1559	1003.9	125.6
934.6778	2036.7261	1006.9	127.1
934.8149	2038.2957	1005.7	124.85
934.952	2039.8645	1006.5	124.55
935.0891	2041.4325	1006.5	122.45
935.2262	2042.9998	1005.85	126.25
935.3632	2044.5664	1002.75	120.65
935.5002	2046.1323	1001.7	123.15
935.6372	2047.6974	997.15	118.1
935.7742	2049.2617	1000.9	120.7
935.9111	2050.8254	1005.95	121.1
936.048	2052.3883	1002.85	120.5
936.1849	2053.9504	1005.5	125.5
936.3218	2055.5118	1008.25	124
936.4586	2057.0725	1000.95	116.9
936.5955	2058.6325	1006.7	126.1
936.7323	2060.1917	997.45	117.6
936.869	2061.7502	1002.05	120.4
937.0058	2063.3079	998.5	120.4
937.1425	2064.8649	1006.7	125.35
937.2792	2066.4212	1001.15	122.15
937.4159	2067.9767	1000.6	120.35
937.5525	2069.5315	1003.8	123.05
937.6891	2071.0856	1006.95	125.4
937.8257	2072.6389	1002.3	121.55
937.9623	2074.1915	998.15	120.65
938.0989	2075.7433	1001.9	118.7
938.2354	2077.2945	998.7	119.5
938.3719	2078.8448	1001.65	119.05
938.5084	2080.3945	999.3	120.15
938.6448	2081.9434	1003.35	122.15
938.7812	2083.4916	1002.35	120.6
938.9176	2085.039	1002.8	119.6
939.054	2086.5857	1003.9	119.3
939.1903	2088.1317	1003.7	119.65
939.3267	2089.677	1003.95	119.95
939.463	2091.2215	1002.75	118.05
939.5992	2092.7652	1004.95	117.65
939.7355	2094.3083	1002.05	120.7
939.8717	2095.8506	1003.75	121.55
940.0079	2097.3921	998.85	119.85
940.1441	2098.933	998.35	117.95
940.2802	2100.4731	1000.2	118.7
940.4163	2102.0124	1016.6	116.75
940.5524	2103.5511	1003.3	119.35
940.6885	2105.089	999.8	117.45
940.8245	2106.6261	1004.8	122.1
940.9606	2108.1626	1003.4	121.2
941.0965	2109.6983	1031.3	122.1
941.2325	2111.2332	1000.65	115.7
941.3684	2112.7675	999.4	116
941.5044	2114.301	1001.55	116.5
941.6403	2115.8337	998.8	117.8
941.7761	2117.3657	1001.4	119.4
941.912	2118.897	1000.05	116.4
942.0478	2120.4276	1006.95	119.95
942.1835	2121.9575	1000.9	119.6
942.3193	2123.4866	1003.25	117.6
942.455	2125.0149	1002.35	116.75
942.5907	2126.5426	998.45	116.9
942.7264	2128.0695	998.4	114
942.8621	2129.5956	995.3	116
942.9977	2131.1211	1000.2	115.4
943.1333	2132.6458	998.7	119.9
943.2689	2134.1698	997.6	113.25
943.4044	2135.693	1001.8	116.2
943.54	2137.2155	1000.8	113.95
943.6755	2138.7373	994.75	112.65
943.8109	2140.2584	996.15	114.85
943.9464	2141.7787	999	112.65
944.0818	2143.2983	993.1	116.35
944.2172	2144.8171	991.95	115.05
944.3526	2146.3353	995.35	113.05
944.4879	2147.8527	994.85	115.85
944.6232	2149.3693	994.45	112.2
944.7585	2150.8853	997.75	116.4
944.8938	2152.4005	997.5	113.75
945.029	2153.9149	998.5	114.55
945.1642	2155.4287	995.35	114.55
945.2994	2156.9417	993	111.15
945.4346	2158.454	996.9	112.85
945.5697	2159.9655	992.15	112.8
945.7048	2161.4764	993.3	111.7
945.8399	2162.9865	995.35	114.8
945.9749	2164.4958	996.05	115.45
946.1099	2166.0045	992	108.95
946.2449	2167.5124	992.3	110.1
946.3799	2169.0195	993.2	110.55
946.5148	2170.526	993.65	110.95
946.6498	2172.0317	989.65	106.85
946.7846	2173.5367	994.45	111.7
946.9195	2175.0409	991.25	110.5
947.0543	2176.5445	993.7	112
947.1891	2178.0473	991.3	110.45
947.3239	2179.5494	995.25	109.9
947.4587	2181.0507	991	108.1
947.5934	2182.5513	993.95	112
947.7281	2184.0512	992.95	111.35
947.8628	2185.5504	991.25	111.95
947.9974	2187.0488	988.05	107.25
948.132	2188.5465	989.5	109.8
948.2666	2190.0435	990.7	108.4
948.4012	2191.5397	988.55	107.75
948.5357	2193.0353	991.3	110.05
948.6702	2194.5301	991.5	108.8
948.8047	2196.0241	990.75	104
948.9392	2197.5175	989.05	106.3
949.0736	2199.0101	994.1	106.85
949.208	2200.502	994.2	115.85
949.3424	2201.9931	988.05	107.35
949.4767	2203.4835	987.15	105.45
949.611	2204.9733	1006.95	109.7
949.7453	2206.4622	987.6	106.15
949.8796	2207.9505	988.3	106.9
950.0138	2209.438	984.15	108.25
950.148	2210.9248	989	106.5
950.2822	2212.4109	986.85	105
950.4164	2213.8962	988	106.65
950.5505	2215.3809	991.6	109.1
950.6846	2216.8648	988.2	105.2
950.8186	2218.3479	993.7	103.95
950.9527	2219.8304	993.2	107.7
951.0867	2221.3121	987.4	99.65
951.2207	2222.7931	988.45	105.95
951.3546	2224.2733	986.7	104.65
951.4886	2225.7529	985.9	102.7
951.6225	2227.2317	982.35	99.5
951.7563	2228.7098	981.3	100.95
951.8902	2230.1872	982.85	104.35
952.024	2231.6638	981.75	101.55
952.1578	2233.1397	987.6	104.2
952.2916	2234.6149	982.2	101.65
952.4253	2236.0894	980.1	97.05
952.559	2237.5632	991.6	101.1
952.6927	2239.0362	981.6	101.25
952.8263	2240.5085	982.8	100.8
952.9599	2241.9801	983.75	102.1
953.0935	2243.4509	981.9	98.4
953.2271	2244.921	984.85	101.25
953.3606	2246.3904	986.45	103.2
953.4941	2247.8591	983.7	101.7
953.6276	2249.3271	975.25	92.05
953.7611	2250.7943	981.35	99.15
953.8945	2252.2608	981.35	98.55
954.0279	2253.7266	981.7	101.2
954.1612	2255.1917	981.3	100.8
954.2946	2256.656	977.8	96.85
954.4279	2258.1197	979.25	97.4
954.5612	2259.5826	981.15	97.8
954.6944	2261.0447	980.35	98.9
954.8276	2262.5062	983.45	98.55
954.9608	2263.9669	977.9	94.6
955.094	2265.4269	977.6	97.35
955.2271	2266.8862	973	91.55
955.3602	2268.3448	975.35	94.25
955.4933	2269.8026	975.15	92.9
955.6264	2271.2598	976.3	94.1
955.7594	2272.7162	975.55	95.95
955.8924	2274.1719	977.45	94.7
956.0253	2275.6268	977.45	95.45
956.1583	2277.0811	978.2	95.35
956.2912	2278.5346	973.2	93.15
956.4241	2279.9874	974.7	94.6
956.5569	2281.4395	974.85	93.1
956.6897	2282.8908	978.1	92.95
956.8225	2284.3414	979.1	95.3
956.9553	2285.7914	973.25	93.05
957.088	2287.2406	975.1	91.7
957.2207	2288.689	974.75	91.7
957.3534	2290.1368	978.1	95.3
957.486	2291.5838	977.05	92.05
957.6186	2293.0302	979.85	94.8
957.7512	2294.4758	972.7	90.2
957.8838	2295.9206	973.6	89.5
958.0163	2297.3648	974.6	95.95
958.1488	2298.8082	974.8	91.75
958.2813	2300.251	972.3	89.05
958.4137	2301.693	976.65	92.6
958.5461	2303.1343	973.75	90.2
958.6785	2304.5748	976.1	94.4
958.8108	2306.0147	971.8	89.05
958.9432	2307.4538	978.35	94.2
959.0754	2308.8922	964.9	86.6
959.2077	2310.3299	974.9	93.9
959.3399	2311.7669	968.2	87
959.4721	2313.2031	970.25	89.1
959.6043	2314.6387	970.95	88.1
959.7365	2316.0735	971.4	90.45
959.8686	2317.5076	972.25	90.45
960.0006	2318.941	970.4	88.6
960.1327	2320.3737	971.55	89.4
960.2647	2321.8056	976.4	91
960.3967	2323.2369	972.85	89
960.5287	2324.6674	974.65	90.55
960.6606	2326.0972	976.05	93.25
960.7925	2327.5263	976.8	94.45
960.9244	2328.9547	979.75	96
961.0562	2330.3823	977	94.4
961.1881	2331.8092	978.3	91
961.3198	2333.2355	973.65	91.45
961.4516	2334.661	972	86.5
961.5833	2336.0858	971	85.8
961.715	2337.5098	972.7	89.1
961.8467	2338.9332	968.75	86.85
961.9783	2340.3558	971.35	86.45
962.1099	2341.7778	966.35	85.55
962.2415	2343.199	967.35	84.2
962.373	2344.6195	966.25	84.5
962.5045	2346.0393	963.25	83
962.636	2347.4583	967.6	86.15
962.7675	2348.8767	965.8	82.55
962.8989	2350.2943	968.85	86.15
963.0303	2351.7113	969.4	82.5
963.1617	2353.1275	968.35	84.4
963.293	2354.543	991.9	83.75
963.4243	2355.9578	970.85	86.2
963.5556	2357.3718	967.05	85.4
963.6868	2358.7852	967.65	82.05
963.818	2360.1978	960.4	79.1
963.9492	2361.6098	968.45	87.35
964.0803	2363.021	970.35	84.55
964.2114	2364.4315	963.85	81.05
964.3425	2365.8413	971.6	83.8
964.4736	2367.2504	965.3	82.75
964.6046	2368.6587	963.4	79.95
964.7356	2370.0664	962	78.9
964.8666	2371.4733	966.45	83.1
964.9975	2372.8795	963.95	81.8
965.1284	2374.285	961.2	76.65
965.2593	2375.6899	963.15	80.6
965.3901	2377.0939	962.5	78.9
965.5209	2378.4973	963.8	82.25
965.6517	2379.9	964.2	79.25
965.7825	2381.3019	962	77.25
965.9132	2382.7032	967.05	85
966.0439	2384.1037	960.5	78
966.1745	2385.5035	959.95	77.25
966.3051	2386.9027	960.1	79.25
966.4357	2388.3011	962.5	77.05
966.5663	2389.6987	964.75	82.3
966.6968	2391.0957	960	76
966.8273	2392.492	960.15	78
966.9578	2393.8876	957.2	73.65
967.0882	2395.2824	958.05	74.45
967.2186	2396.6765	960.4	76.15
967.349	2398.07	960.8	76.45
967.4793	2399.4627	960.6	73.15
967.6097	2400.8547	960.6	75.45
967.7399	2402.246	967.25	76.75
967.8702	2403.6366	962.3	77.35
968.0004	2405.0265	957.35	72.7
968.1306	2406.4156	961.85	73.95
968.2607	2407.8041	961.55	74.6
968.3909	2409.1918	959.9	72.85
968.521	2410.5789	958.5	74.8
968.651	2411.9652	961.85	72.95
968.781	2413.3508	958.05	72.9
968.911	2414.7358	959.75	74.85
969.041	2416.12	957.5	74.1
969.1709	2417.5035	956.05	70.75
969.3008	2418.8863	958.95	73.4
969.4307	2420.2684	954.5	68.85
969.5606	2421.6497	957.75	73.55
969.6904	2423.0304	957.8	74.85
969.8201	2424.4104	958.5	73.55
969.9499	2425.7896	962.65	74.7
970.0796	2427.1682	958.35	75.15
970.2093	2428.546	959	73.65
970.3389	2429.9232	959.3	75.4
970.4685	2431.2996	955.05	68.65
970.5981	2432.6753	954.4	69.8
970.7277	2434.0503	953.9	68.65
970.8572	2435.4246	953.2	67.7
970.9867	2436.7982	958.2	70.75
971.1161	2438.1711	952.85	69.95
971.2456	2439.5433	958.5	74.1
971.375	2440.9148	951	66.05
971.5043	2442.2856	953.2	69.25
971.6336	2443.6557	953.85	70.45
971.7629	2445.025	953.8	70.65
971.8922	2446.3937	954.25	70.8
972.0214	2447.7617	956	72.3
972.1506	2449.1289	953.55	68.45
972.2798	2450.4955	958.35	71.2
972.4089	2451.8613	952.05	69.6
972.538	2453.2265	949.75	65.65
972.6671	2454.5909	953.2	67.3
972.7961	2455.9546	954.65	73.55
972.9251	2457.3177	947.05	61.7
973.0541	2458.68	951.75	67.15
973.1831	2460.0416	951	66.55
973.312	2461.4025	954.3	69.05
973.4408	2462.7627	961.3	68.9
973.5697	2464.1222	948.05	67.2
973.6985	2465.4811	947.75	61.8
973.8273	2466.8392	949.6	65.85
973.956	2468.1966	951.65	65.3
974.0847	2469.5533	955.25	70.4
974.2134	2470.9093	950.75	67.85
974.3421	2472.2645	950.25	62.8
974.4707	2473.6191	948.65	66.4
974.5993	2474.973	949.6	67.35
974.7278	2476.3262	951.9	66.85
974.8563	2477.6787	949.55	66.55
974.9848	2479.0305	948.95	66.85
975.1132	2480.3816	952.5	69.2
975.2417	2481.7319	950.05	67.55
975.37	2483.0816	953.7	69.1
975.4984	2484.4306	950.8	67.85
975.6267	2485.7789	945.4	63.9
975.755	2487.1264	949	66.3
975.8833	2488.4733	947.95	65.4
976.0115	2489.8195	955.25	65.65
976.1397	2491.165	949.15	64.05
976.2678	2492.5097	950.9	68.15
976.3959	2493.8538	946.1	63.85
976.524	2495.1972	946.4	63.2
976.6521	2496.5398	948.9	66.1
976.7801	2497.8818	948.95	64.15
976.9081	2499.2231	948.15	63.6
977.036	2500.5637	949.85	65.1
977.164	2501.9035	949.1	64.3
977.2918	2503.2427	949.45	63.7
977.4197	2504.5812	945.25	61.05
977.5475	2505.919	949.6	63.7
977.6753	2507.256	944.4	59.35
977.8031	2508.5924	944.55	61.3
977.9308	2509.9281	950	61
978.0585	2511.2631	942.45	58.85
978.1861	2512.5974	944.05	61.55
978.3137	2513.9309	945.1	62.85
978.4413	2515.2638	970.45	63
978.5689	2516.596	942.4	59.45
978.6964	2517.9275	944.75	61.15
978.8239	2519.2583	945.45	62.35
978.9513	2520.5884	946.2	62.9
979.0788	2521.9178	945.65	63.05
979.2062	2523.2465	940.15	59.5
979.3335	2524.5745	942.45	60.6
979.4608	2525.9018	942.7	57.65
979.5881	2527.2284	942.05	60.3
979.7154	2528.5543	941.85	60.95
979.8426	2529.8796	944.95	61.3
979.9698	2531.2041	940.55	59.3
980.0969	2532.5279	940.15	60.2
980.224	2533.851	941.85	58.5
980.3511	2535.1735	940.35	59.4
980.4781	2536.4952	941.6	56.4
980.6052	2537.8163	941.65	59.25
980.7321	2539.1366	941.75	57.95
980.8591	2540.4562	945.4	59.8
980.986	2541.7752	941.2	58.35
981.1129	2543.0935	941.9	57.35
981.2397	2544.411	942.6	59
981.3665	2545.7279	943	61.4
981.4933	2547.0441	944.2	61.45
981.62	2548.3596	943.7	57.7
981.7467	2549.6744	941	60.4
981.8734	2550.9885	949.9	59.65
982.0001	2552.3019	940.45	58.7
982.1267	2553.6146	940.55	57.15
982.2532	2554.9266	937.45	53.5
982.3798	2556.2379	940.2	55.05
982.5063	2557.5485	939.3	55.45
982.6327	2558.8585	945.95	56.05
982.7592	2560.1677	945.95	57.7
982.8856	2561.4762	943.15	58.65
983.0119	2562.7841	942.35	54.8
983.1383	2564.0913	939	56.85
983.2646	2565.3977	935.75	53.95
983.3908	2566.7035	936.35	53
983.517	2568.0086	939.75	55.75
983.6432	2569.313	937.65	54.1
983.7694	2570.6167	942.5	57.1
983.8955	2571.9197	937.55	57.2
984.0216	2573.222	941.3	51.9
984.1476	2574.5236	938.85	55.8
984.2737	2575.8246	943.4	55.65
984.3996	2577.1248	940.75	53.85
984.5256	2578.4244	938.1	57.4
984.6515	2579.7232	939.35	58.55
984.7774	2581.0214	965.25	54.1
984.9032	2582.3189	935.3	52.25
985.029	2583.6157	941.05	51.7
985.1548	2584.9118	936.85	54.4
985.2806	2586.2072	937.65	53.15
985.4063	2587.5019	936.35	52.9
985.5319	2588.7959	940.55	56.85
985.6576	2590.0893	938.2	54.45
985.7832	2591.3819	938.4	56.3
985.9087	2592.6739	937	54.9
986.0343	2593.9652	940.4	55.65
986.1597	2595.2557	940.9	56.75
986.2852	2596.5456	941.05	55.9
986.4106	2597.8348	937.15	55.8
986.536	2599.1234	935.85	53.4
986.6614	2600.4112	939.4	54.95
986.7867	2601.6983	941	53.7
986.912	2602.9848	937.15	53.4
987.0372	2604.2705	945.45	56.25
987.1624	2605.5556	937.35	54.45
987.2876	2606.84	939.35	57.45
987.4128	2608.1237	938.65	55.4
987.5379	2609.4067	939.6	57.45
987.6629	2610.689	947.85	54.85
987.788	2611.9707	937.25	48.7
987.913	2613.2516	938.3	52.3
988.0379	2614.5319	932.55	48.4
988.1629	2615.8115	936.2	52.75
988.2878	2617.0903	936.35	51.45
988.4126	2618.3685	933.9	50.5
988.5375	2619.6461	936.9	53.6
988.6622	2620.9229	934.8	51.55
988.787	2622.199	935.9	52.45
988.9117	2623.4745	934.55	53.65
989.0364	2624.7493	932.95	50.9
989.161	2626.0234	932.95	50.95
989.2857	2627.2968	934.5	52.35
989.4102	2628.5695	931.2	45.7
989.5348	2629.8415	931.85	51.5
989.6593	2631.1128	934.95	53.35
989.7837	2632.3835	936.5	54.2
989.9082	2633.6535	931.75	51.7
990.0326	2634.9228	932.9	50.55
990.1569	2636.1914	932.4	50.75
990.2812	2637.4593	936.6	49.3
990.4055	2638.7265	934.2	51.8
990.5298	2639.9931	931.95	48.9
990.654	2641.259	933.3	50.25
990.7782	2642.5242	933.05	49.9
990.9023	2643.7887	931.45	49.2
991.0264	2645.0525	931.75	50.8
991.1505	2646.3156	930.55	48.25
991.2745	2647.5781	928.95	48.8
991.3985	2648.8398	931.75	48.7
991.5225	2650.1009	937.9	48.55
991.6464	2651.3613	929.8	48.3
991.7703	2652.6211	931.05	48.25
991.8942	2653.8801	930.3	48.85
992.018	2655.1385	929.3	44.05
992.1418	2656.3961	928.95	47.95
992.2655	2657.6531	928.85	46.8
992.3892	2658.9094	931.25	48.5
992.5129	2660.1651	926.6	47.15
992.6366	2661.42	929.2	47.05
992.7602	2662.6743	928.7	46
992.8837	2663.9279	928	47.25
993.0073	2665.1808	929.85	46.25
993.1307	2666.433	929.85	47.05
993.2542	2667.6846	928.45	46.15
993.3776	2668.9354	931.65	45.8
993.501	2670.1856	931.9	50.45
993.6244	2671.4351	932.05	49.9
993.7477	2672.6839	928.85	45.3
993.8709	2673.9321	929.55	48.75
993.9942	2675.1795	930.2	49.7
994.1174	2676.4263	930.8	47.7
994.2405	2677.6724	928.2	47.8
994.3637	2678.9179	928.7	44.1
994.4868	2680.1626	926.55	43.5
994.6098	2681.4067	929	45.45
994.7328	2682.6501	926.9	44.35
994.8558	2683.8928	927.8	46.95
994.9788	2685.1348	927.7	45.7
995.1017	2686.3761	929.3	48.85
995.2245	2687.6168	928.85	46.35
995.3474	2688.8568	925.65	44.15
995.4702	2690.0961	924.55	43.7
995.5929	2691.3348	927.25	45.65
995.7156	2692.5727	926.7	44.75
995.8383	2693.81	924.8	41.45
995.961	2695.0466	922.35	40.95
996.0836	2696.2826	927.95	44.5
996.2062	2697.5178	926.75	44.05
996.3287	2698.7524	926.4	44.9
996.4512	2699.9863	926.45	42.15
996.5737	2701.2195	926.15	45.5
996.6961	2702.452	930	46.75
996.8185	2703.6839	926.95	44.1
996.9408	2704.9151	925.85	44.7
997.0631	2706.1456	928.05	45.1
997.1854	2707.3755	928.55	46.5
997.3077	2708.6046	929.45	44.95
997.4299	2709.8331	932.1	49.45
997.552	2711.0609	927.7	46.7
997.6742	2712.2881	927.85	46.5
997.7963	2713.5145	928.8	44.55
997.9183	2714.7403	930	51.35
998.0403	2715.9654	930.55	48.4
998.1623	2717.1899	945.5	47.4
998.2842	2718.4136	932.65	49.95
998.4062	2719.6367	931.65	51.15
998.528	2720.8591	939.55	51.65
998.6498	2722.0809	934.45	52.45
998.7716	2723.3019	938.4	52.3
998.8934	2724.5223	935.95	54.05
999.0151	2725.7421	938.35	55.45
999.1368	2726.9611	935.9	52.4
999.2584	2728.1795	940.6	55.75
999.38	2729.3972	934.3	54.55
999.5016	2730.6142	939.9	50.1
999.6231	2731.8306	927.85	45.1
999.7446	2733.0462	932.35	48.75
999.8661	2734.2612	930.8	44.45
999.9875	2735.4756	930.7	47.45
1000.1089	2736.6892	926.2	44.15
1000.2302	2737.9022	925	45.6
1000.3515	2739.1145	926.55	46.4
1000.4728	2740.3262	932.55	42.85
1000.594	2741.5372	922.85	43.3
1000.7152	2742.7475	926.85	43.6
1000.8363	2743.9571	924.8	44.3
1000.9575	2745.1661	928.75	41.95
1001.0785	2746.3744	919.9	38.15
1001.1996	2747.582	922.95	43.5
1001.3206	2748.7889	922.1	39.3
1001.4415	2749.9952	920.8	38.7
1001.5625	2751.2008	923.2	41.35
1001.6833	2752.4057	924.3	42.2
1001.8042	2753.61	920.75	37.6
1001.925	2754.8136	919.05	34.65
1002.0458	2756.0165	917.8	36.45
1002.1665	2757.2188	918.95	39.75
1002.2872	2758.4204	919.7	39.25
1002.4078	2759.6213	919.1	35.65
1002.5285	2760.8215	922.3	38.05
1002.649	2762.0211	920.55	37.2
1002.7696	2763.22	921	36.6
1002.8901	2764.4182	919.2	37.2
1003.0106	2765.6158	918.55	36.95
1003.131	2766.8127	920	39.1
1003.2514	2768.009	918.4	37.3
1003.3717	2769.2045	916.9	35.85
1003.492	2770.3994	918.75	35.2
1003.6123	2771.5936	920.35	39.4
1003.7325	2772.7872	917.45	37.4
1003.8527	2773.9801	916.1	34.25
1003.9729	2775.1723	933.95	39
1004.093	2776.3639	915.05	35.05
1004.2131	2777.5548	920	38.4
1004.3331	2778.745	915.9	33.85
1004.4531	2779.9346	914.2	33.95
1004.5731	2781.1235	918.7	37.1
1004.693	2782.3117	915.05	34.95
1004.8129	2783.4992	917.15	35.6
1004.9328	2784.6861	915.5	36.9
1005.0526	2785.8723	914.55	33.8
1005.1723	2787.0579	916	35
1005.2921	2788.2428	916.75	37.8
1005.4118	2789.427	917.05	36.25
1005.5314	2790.6106	914.4	33.15
1005.651	2791.7935	914.5	30.55
1005.7706	2792.9757	915.25	35.4
1005.8902	2794.1573	917.95	35.1
1006.0097	2795.3382	917.35	37.1
1006.1291	2796.5184	914.85	35.45
1006.2485	2797.698	918.85	36.7
1006.3679	2798.8769	916.35	35.45
1006.4873	2800.0551	916.7	37.8
1006.6066	2801.2327	920.8	36.8
1006.7258	2802.4096	916.35	37.55
1006.8451	2803.5859	915.45	36.8
1006.9642	2804.7615	920.8	39.5
1007.0834	2805.9364	917	37
1007.2025	2807.1106	920.5	39.25
1007.3216	2808.2842	920.05	40.25
1007.4406	2809.4572	920.4	39.85
1007.5596	2810.6294	921.3	38.4
1007.6785	2811.801	924	45
1007.7975	2812.972	926.25	46.2
1007.9163	2814.1423	925.75	46.4
1008.0352	2815.3119	927.85	46.05
1008.154	2816.4808	929.1	49.3
1008.2727	2817.6491	934.45	52.85
1008.3914	2818.8167	935.15	54.55
1008.5101	2819.9837	948.05	62.45
1008.6288	2821.15	943.15	61.75
1008.7474	2822.3157	948.6	69.5
1008.8659	2823.4807	952.05	72.7
1008.9844	2824.645	958.25	77.15
1009.1029	2825.8086	964.8	85.3
1009.2214	2826.9716	972.55	92.6
1009.3398	2828.134	975.55	94.4
1009.4581	2829.2957	987.3	109
1009.5764	2830.4567	989.35	112.3
1009.6947	2831.617	991.45	111.2
1009.813	2832.7767	995.45	116.7
1009.9312	2833.9358	995.6	117.7
1010.0493	2835.0941	994.25	113.8
1010.1675	2836.2519	992.45	114.4
1010.2855	2837.4089	987.95	106.85
1010.4036	2838.5653	990.15	109.4
1010.5216	2839.7211	982.3	100.9
1010.6396	2840.8761	982.15	100.7
1010.7575	2842.0306	979.5	101.35
1010.8754	2843.1843	977.9	97.95
1010.9932	2844.3374	980.95	100.95
1011.111	2845.4899	983.05	101.05
1011.2288	2846.6417	982.2	104.3
1011.3465	2847.7928	983.8	103.45
1011.4642	2848.9433	984.95	104.65
1011.5818	2850.0931	988.5	109.65
1011.6995	2851.2422	989.85	108.95
1011.817	2852.3907	989.6	109.55
1011.9345	2853.5385	989.75	108.65
1012.052	2854.6857	1016.15	108.55
1012.1695	2855.8323	993.25	115
1012.2869	2856.9781	998.4	119.65
1012.4042	2858.1233	997.4	116.9
1012.5216	2859.2679	1004.35	124.4
1012.6389	2860.4118	1004.45	124.8
1012.7561	2861.555	1012.9	127.25
1012.8733	2862.6976	1011.95	131.4
1012.9905	2863.8395	1012.95	132.85
1013.1076	2864.9808	1013.85	133.5
1013.2247	2866.1214	1013.65	133.9
1013.3417	2867.2614	1016.25	135.15
1013.4587	2868.4007	1018.8	137.25
1013.5757	2869.5393	1016.2	134.6
1013.6926	2870.6773	1022.7	140.55
1013.8095	2871.8146	1023.15	140.45
1013.9263	2872.9513	1025.85	144.4
1014.0431	2874.0874	1021.65	141.6
1014.1599	2875.2227	1025.15	143.45
1014.2766	2876.3574	1032.15	152.4
1014.3933	2877.4915	1027	149.95
1014.51	2878.6249	1028.65	146.7
1014.6266	2879.7577	1033.1	152.2
1014.7431	2880.8898	1042.8	154.15
1014.8596	2882.0212	1032.75	155.6
1014.9761	2883.152	1038	158.75
1015.0925	2884.2821	1038.1	159.2
1015.2089	2885.4116	1041	162.9
1015.3253	2886.5405	1038.9	159.95
1015.4416	2887.6686	1043.7	163.6
1015.5579	2888.7962	1038	158.65
1015.6741	2889.923	1040.4	161.65
1015.7903	2891.0493	1045.85	167.25
1015.9065	2892.1748	1042.3	161.95
1016.0226	2893.2997	1042.85	164.8
1016.1387	2894.424	1043.8	165.35
1016.2547	2895.5476	1043.55	163.65
1016.3707	2896.6706	1042.95	165.85
1016.4866	2897.7929	1048.7	167.4
1016.6025	2898.9145	1042.65	164.55
1016.7184	2900.0355	1047.15	167.85
1016.8342	2901.1559	1039.75	158.8
1016.95	2902.2756	1048.9	165.45
1017.0658	2903.3946	1039.7	161.85
1017.1815	2904.513	1040.3	157.65
1017.2971	2905.6308	1037.95	160.35
1017.4127	2906.7479	1042.35	161.15
1017.5283	2907.8643	1040.55	160.45
1017.6439	2908.9801	1042.05	163.75
1017.7594	2910.0953	1039.15	159.2
1017.8748	2911.2098	1044.9	162.45
1017.9902	2912.3236	1049.35	162.05
1018.1056	2913.4368	1046	163.9
1018.2209	2914.5494	1037.75	156.85
1018.3362	2915.6613	1036.3	151.95
1018.4515	2916.7725	1033.4	150.8
1018.5667	2917.8831	1032.6	153.4
1018.6819	2918.9931	1034.2	150.9
1018.797	2920.1024	1031.8	151.8
1018.9121	2921.211	1026.45	147.55
1019.0271	2922.319	1028.95	150.15
1019.1421	2923.4264	1024.25	144.3
1019.2571	2924.5331	1018.8	140.15
1019.372	2925.6391	1023.8	144.65
1019.4869	2926.7445	1020.05	143.85
1019.6017	2927.8493	1021.6	141.55
1019.7165	2928.9534	1023.55	144.2
1019.8313	2930.0569	1030.25	149.25
1019.946	2931.1597	1023.3	143.45
1020.0606	2932.2619	1022.5	142.9
1020.1753	2933.3634	1029.65	150.95
1020.2899	2934.4643	1036.25	149.65
1020.4044	2935.5645	1033	148.1
1020.5189	2936.6641	1035.6	152.85
1020.6334	2937.763	1032.85	154.25
1020.7478	2938.8613	1028.1	148.6
1020.8622	2939.959	1031.15	147
1020.9765	2941.056	1023.9	145.6
1021.0908	2942.1523	1023.9	144.55
1021.2051	2943.248	1011.1	132.35
1021.3193	2944.3431	1007.3	127.5
1021.4334	2945.4375	998.95	118.75
1021.5476	2946.5313	992.1	115.25
1021.6617	2947.6244	988.15	109.8
1021.7757	2948.7169	984.1	103.15
1021.8897	2949.8087	972.65	91.65
1022.0037	2950.8999	969.85	90.2
1022.1176	2951.9904	967.55	90.35
1022.2315	2953.0803	961.2	82
1022.3453	2954.1696	957.15	78.55
1022.4591	2955.2582	961.05	82.8
1022.5728	2956.3462	953.2	73.55
1022.6865	2957.4335	953.8	75.5
1022.8002	2958.5202	954.5	72.6
1022.9138	2959.6062	953.3	72.95
1023.0274	2960.6916	951.2	73.05
1023.141	2961.7764	950.85	71.25
1023.2545	2962.8605	952.45	72.35
1023.3679	2963.9439	953.1	73.75
1023.4813	2965.0267	953.05	71.95
1023.5947	2966.1089	973.55	73.65
1023.708	2967.1905	949.05	70.65
1023.8213	2968.2714	946.45	67.3
1023.9346	2969.3516	949.45	71.65
1024.0478	2970.4312	957.5	71.4
1024.1609	2971.5102	949.2	70.95
1024.274	2972.5885	947.1	69.35
1024.3871	2973.6662	951.7	68.9
1024.5002	2974.7432	949.8	72.5
1024.6132	2975.8196	948.2	68.5
1024.7261	2976.8954	946.6	68.6
1024.839	2977.9705	949.5	70.4
1024.9519	2979.045	948.9	68.9
1025.0647	2980.1188	948.5	72.05
1025.1775	2981.192	945.05	67.85
1025.2902	2982.2645	946.45	67.95
1025.4029	2983.3364	944.4	64.75
1025.5156	2984.4077	943.5	66.8
1025.6282	2985.4783	947.3	61.35
1025.7407	2986.5483	937.35	59.8
1025.8532	2987.6177	936.85	60.2
1025.9657	2988.6864	936.7	59
1026.0782	2989.7545	935.3	55.5
1026.1906	2990.8219	932.05	54.85
1026.3029	2991.8887	933.1	53.55
1026.4152	2992.9548	928.15	49.75
1026.5275	2994.0204	924.2	46.3
1026.6397	2995.0852	921.05	43.85
1026.7519	2996.1495	921.85	40.9
1026.864	2997.2131	918.7	40.9
1026.9761	2998.276	916.75	38.55
1027.0882	2999.3383	914.4	34.35
1027.2002	3000.4	912.4	31.05
1027.3122	3001.4611	913	35.05
1027.4241	3002.5215	909.2	31.3
1027.536	3003.5812	911.3	33.5
1027.6478	3004.6404	908.25	31.7
1027.7596	3005.6989	912.35	29.85
1027.8714	3006.7567	907.1	29
1027.9831	3007.8139	939.4	30.1
1028.0947	3008.8705	904.4	25.95
1028.2064	3009.9264	907.8	27.8
1028.3179	3010.9818	904.5	28.1
1028.4295	3012.0364	904	24.75
1028.541	3013.0905	906.8	28.35
1028.6524	3014.1439	902.9	25.95
1028.7638	3015.1966	899.15	19.35
1028.8752	3016.2487	904.6	25
1028.9865	3017.3002	906.8	24.65
1029.0978	3018.3511	899.45	22
1029.209	3019.4013	902.1	25.2
1029.3202	3020.4509	901.55	23.8
1029.4314	3021.4998	902.55	26.3
1029.5425	3022.5481	900.8	21.3
1029.6535	3023.5958	900.25	21.2
1029.7645	3024.6428	901.5	21.7
1029.8755	3025.6892	898.8	22.4
1029.9864	3026.735	901.65	22.7
1030.0973	3027.7802	899.8	22.75
1030.2082	3028.8247	899.3	21.7
1030.319	3029.8685	901.7	24.4
1030.4297	3030.9118	899.7	21.45
1030.5404	3031.9544	897.4	19.35
1030.6511	3032.9963	901.35	23.75
1030.7617	3034.0376	899.35	20.6
1030.8723	3035.0783	902.15	22.3
1030.9829	3036.1184	898.6	18.75
1031.0934	3037.1578	898.9	21.35
1031.2038	3038.1966	901.95	25.1
1031.3142	3039.2348	900.55	22.1
1031.4246	3040.2723	910.15	21.3
1031.5349	3041.3092	902.65	27.7
1031.6452	3042.3455	900.75	22.7
1031.7554	3043.3811	902.8	24.95
1031.8656	3044.4161	898.55	19.6
1031.9758	3045.4505	898.15	20.7
1032.0859	3046.4842	899.8	20.55
1032.1959	3047.5173	899.25	24.5
1032.3059	3048.5498	898.25	19.95
1032.4159	3049.5816	902.9	24.2
1032.5258	3050.6128	902.35	23.1
1032.6357	3051.6434	903.5	23.35
1032.7455	3052.6734	901.8	23.55
1032.8553	3053.7027	899.5	21.25
1032.9651	3054.7314	900.95	21.8
1033.0748	3055.7594	899.85	22.5
1033.1845	3056.7868	901.15	24.1
1033.2941	3057.8136	899.1	20.2
1033.4037	3058.8398	899.85	22.9
1033.5132	3059.8653	899.9	21.5
1033.6227	3060.8902	900.7	23.45
1033.7321	3061.9145	901.6	23
1033.8415	3062.9381	902.85	25.85
1033.9509	3063.9612	915.15	21.3
1034.0602	3064.9835	900	21.15
1034.1694	3066.0053	903.1	22.7
1034.2787	3067.0264	901	23.4
1034.3878	3068.0469	901.65	24
1034.497	3069.0668	904.55	23
1034.6061	3070.086	900.65	22.65
1034.7151	3071.1046	902.1	23.65
1034.8241	3072.1226	902.1	25.7
1034.9331	3073.1399	902.5	25.65
1035.042	3074.1567	899.95	22.45
1035.1508	3075.1727	900.3	22.8
1035.2597	3076.1882	900	25.35
1035.3684	3077.203	896.3	17.1
1035.4772	3078.2173	901.65	20.95
1035.5859	3079.2308	899.25	17.1
1035.6945	3080.2438	900.2	20.5
1035.8031	3081.2561	897.75	19.7
1035.9117	3082.2678	898	22.25
1036.0202	3083.2789	896.45	18.65
1036.1286	3084.2893	894.2	15.9
1036.2371	3085.2991	895.2	17.9
1036.3454	3086.3083	898.85	16.45
1036.4538	3087.3169	895.6	16.85
1036.562	3088.3248	896.75	17
1036.6703	3089.3321	896.25	15.55
1036.7785	3090.3388	894.75	16.95
1036.8866	3091.3449	895.95	17.5
1036.9948	3092.3503	898.9	19.15
1037.1028	3093.3551	894.35	18.2
1037.2108	3094.3593	893.4	18.85
1037.3188	3095.3629	893.05	16.55
1037.4267	3096.3658	893.05	12.9
1037.5346	3097.3681	891.55	15.3
1037.6425	3098.3698	894.75	14.95
1037.7503	3099.3708	894.15	15.15
1037.858	3100.3713	891.95	13.8
1037.9657	3101.3711	891.45	13
1038.0734	3102.3702	1033.7	18.9
1038.181	3103.3688	894.65	17.2
1038.2886	3104.3667	891.65	15.95
1038.3961	3105.364	891.75	14.8
1038.5036	3106.3607	892.85	10.75
1038.611	3107.3568	892.95	13.55
1038.7184	3108.3522	889.95	12.65
1038.8257	3109.347	893	14.15
1038.933	3110.3412	896.55	16.9
1039.0403	3111.3348	889.4	13.15
1039.1475	3112.3277	888.9	10.95
1039.2547	3113.32	889.6	14.75
1039.3618	3114.3117	892.2	13.75
1039.4689	3115.3028	889.6	12
1039.5759	3116.2932	893.8	14.45
1039.6829	3117.2831	898.4	15.15
1039.7898	3118.2723	888.2	11.65
1039.8967	3119.2608	890.65	10.2
1040.0035	3120.2488	888.25	10.4
1040.1103	3121.2361	887.75	10.9
1040.2171	3122.2229	888.55	9.9
1040.3238	3123.209	889.8	11.35
1040.4305	3124.1944	890.45	13.25
1040.5371	3125.1793	891.25	12.25
1040.6437	3126.1635	886.95	11.1
1040.7502	3127.1471	887.75	9.9
1040.8567	3128.1301	888.75	12.25
1040.9631	3129.1125	886.2	8.2
1041.0695	3130.0942	888.75	12.05
1041.1759	3131.0753	898.35	10.45
1041.2822	3132.0558	891.5	12.15
1041.3884	3133.0357	888.45	11.9
1041.4946	3134.015	886.7	6.45
1041.6008	3134.9936	887	9.2
1041.7069	3135.9716	910	7.25
1041.813	3136.949	886.5	10.5
1041.919	3137.9258	905.95	10.6
1042.025	3138.902	893.9	10.7
1042.1309	3139.8775	886.55	11
1042.2368	3140.8524	886.65	11.4
1042.3427	3141.8267	887.75	8
1042.4485	3142.8004	890.15	12.95
1042.5542	3143.7735	893.7	11.8
1042.6599	3144.7459	890.35	10
1042.7656	3145.7178	885.95	8.05
1042.8712	3146.689	886.1	8.75
1042.9768	3147.6596	886.75	6.5
1043.0823	3148.6295	887.15	8.25
1043.1878	3149.5989	887	8.9
1043.2932	3150.5676	885.05	9.05
1043.3986	3151.5357	885.7	10.4
1043.5039	3152.5032	885.2	7.5
1043.6092	3153.4701	885.4	9.1
1043.7145	3154.4364	889.2	7.9
1043.8197	3155.402	886.5	13.2
1043.9248	3156.367	887.45	6
1044.03	3157.3315	930.2	11.35
1044.135	3158.2952	886.35	10.35
1044.24	3159.2584	883.1	5.15
1044.345	3160.221	886.4	9.15
1044.4499	3161.1829	886.2	8.05
1044.5548	3162.1442	886.1	7.8
1044.6596	3163.105	884.6	7.1
1044.7644	3164.065	885.7	9.6
1044.8692	3165.0245	888.35	10.45
1044.9739	3165.9834	885.15	9.8
1045.0785	3166.9416	885.3	7.3
1045.1831	3167.8993	884.85	6.95
1045.2877	3168.8563	883.2	5.7
1045.3922	3169.8127	884.05	7.15
1045.4966	3170.7684	884.8	5.85
1045.6011	3171.7236	885.7	5.95
1045.7054	3172.6782	885	5.7
1045.8098	3173.6321	884.95	6.75
1045.914	3174.5854	889.75	7.85
1046.0183	3175.5381	885.1	7.25
1046.1224	3176.4902	882.7	6.5
1046.2266	3177.4417	884.85	7.75
1046.3307	3178.3926	884.5	7.15
1046.4347	3179.3428	885.35	10.35
1046.5387	3180.2924	883.5	7.15
1046.6427	3181.2415	884.2	5.75
1046.7466	3182.1899	885.6	7.85
1046.8504	3183.1377	884.15	6.7
1046.9542	3184.0848	889.55	8.85
1047.058	3185.0314	886.4	9.95
1047.1617	3185.9773	884.4	6.25
1047.2654	3186.9227	885.6	8.45
1047.369	3187.8674	884.4	6.25
1047.4726	3188.8115	886.65	5.55
1047.5761	3189.755	883.8	6.5
1047.6796	3190.6979	883.5	4.75
1047.783	3191.6402	884.85	8.6
1047.8864	3192.5818	885.65	7.25
1047.9898	3193.5229	895.05	4.45
1048.0931	3194.4633	885.75	8.35
1048.1963	3195.4031	887.4	9.45
1048.2995	3196.3423	882.15	5.05
1048.4027	3197.2809	884.55	6.25
1048.5058	3198.2189	883.15	4.9
1048.6089	3199.1563	890	7.05
1048.7119	3200.0931	883.35	9.2
1048.8148	3201.0292	882.05	6.05
1048.9178	3201.9648	885.85	9.25
1049.0206	3202.8997	886.25	6.5
1049.1235	3203.834	882.5	5.3
1049.2262	3204.7677	882.5	6.6
1049.329	3205.7008	883.95	5.65
1049.4317	3206.6333	880.85	3.95
1049.5343	3207.5652	885.6	5.5
1049.6369	3208.4964	883.35	7.25
1049.7394	3209.4271	882	7.45
1049.8419	3210.3571	883.5	7.15
1049.9444	3211.2865	885.05	6
1050.0468	3212.2154	884.5	7.5
1050.1491	3213.1436	886.65	6
1050.2514	3214.0712	890.2	7
1050.3537	3214.9982	881.15	2.6
1050.4559	3215.9246	884.3	5.15
1050.5581	3216.8503	879.3	3.95
1050.6602	3217.7755	883.9	6.8
1050.7623	3218.7001	882.7	5.7
1050.8643	3219.624	883.05	7.5
1050.9663	3220.5473	882.55	3.4
1051.0682	3221.4701	884.15	6.65
1051.1701	3222.3922	885.7	6.6
1051.2719	3223.3137	881	3.5
1051.3737	3224.2346	882.15	4.25
1051.4754	3225.1549	881.05	3.4
1051.5771	3226.0746	882.5	5.15
1051.6788	3226.9937	881.25	2.2
1051.7804	3227.9121	883.8	9.4
1051.8819	3228.83	881.8	4.15
1051.9834	3229.7473	883.55	6.9
1052.0849	3230.6639	883.9	7.2
1052.1863	3231.5799	881.9	3.25
1052.2876	3232.4954	885.05	6.95
1052.3889	3233.4102	881.9	4.95
1052.4902	3234.3244	883.05	6.2
1052.5914	3235.238	880.85	6.2
1052.6926	3236.151	906.25	6.55
1052.7937	3237.0634	882.5	8.4
1052.8948	3237.9752	881	4.9
1052.9958	3238.8864	882.9	7.75
1053.0968	3239.797	880.5	4.9
1053.1977	3240.7069	883.4	7.25
1053.2986	3241.6163	883.35	6.05
1053.3994	3242.5251	880.45	4.25
1053.5002	3243.4332	880.25	3.55
1053.6009	3244.3408	882.9	5.25
1053.7016	3245.2477	883.15	4.75
1053.8022	3246.154	882.5	5
1053.9028	3247.0598	882.55	5.6
1054.0034	3247.9649	883.5	6.25
1054.1039	3248.8694	882.7	5.95
1054.2043	3249.7733	881.9	5.65
1054.3047	3250.6766	882.7	6.95
1054.4051	3251.5793	882.55	4.55
1054.5054	3252.4814	880.3	2.75
1054.6056	3253.3829	880.75	4.6
1054.7058	3254.2838	880.95	3.25
1054.806	3255.1841	879.7	2.75
1054.9061	3256.0838	881.15	4.95
1055.0061	3256.9829	882	6.3
1055.1062	3257.8814	883.5	6.15
1055.2061	3258.7792	883.4	3.45
1055.306	3259.6765	882.25	5.9
1055.4059	3260.5731	880.1	3.8
1055.5057	3261.4692	882.45	5.85
1055.6055	3262.3647	880.65	3.8
1055.7052	3263.2595	881.05	2.35
1055.8049	3264.1538	880.1	2.25
1055.9045	3265.0474	880.55	3.85
1056.0041	3265.9404	877.85	1
1056.1036	3266.8329	880.2	3.45
1056.2031	3267.7247	892.1	6.3
1056.3025	3268.616	879.15	5.7
1056.4019	3269.5066	878.7	1
1056.5013	3270.3966	880.6	0.85
1056.6005	3271.286	879.45	3.5
