Software Version:	3.9.2.0
Unit SN:	10000200
Spectrometer SN:	6960
Date:	3/8/2024 12:47:53 PM
Data Line Index:	25
Spectral Points:	2048
Integration time (ms):	125
Averages:	20
Delay (ms):	30000
Sequence Number:	1
Processing:	dark subtract
Laser Power (mW):	300
Laser Current (mA):	823
Laser Diode Temp (C):	25
Laser Case Temp (C):	26.1
System Temp (C):	26.1
Spectrometer Temp (C):	24
CCD Temp (C):	0.005
Secondary Temp (C):	20.007
Heatsink Temp (C):	20.766
CCDPCB Temp (C):	36.051
SecondaryPCB Temp (C):	29.315

Wavelength	RamanShift	Raw Counts	Dark Subtracted
787.061	30.1047	453	45.6
787.2016	32.3739	455.25	48.65
787.3422	34.6426	456.55	48.25
787.4828	36.9109	466.25	57.3
787.6235	39.1787	471.8	57.65
787.7642	41.4461	483.25	64.25
787.9049	43.7131	489.25	67.15
788.0456	45.9796	497.85	73.4
788.1863	48.2456	508.65	80.8
788.3271	50.5112	515.4	82.95
788.4679	52.7764	523.45	88.35
788.6087	55.0411	535.9	94.35
788.7496	57.3054	547.45	102.6
788.8904	59.5692	556.4	109
789.0313	61.8326	568.1	118.35
789.1722	64.0955	578.45	125.55
789.3132	66.3579	597.45	138.25
789.4541	68.6199	611.65	147.7
789.5951	70.8815	648.55	181.6
789.7361	73.1426	733.85	263.4
789.8771	75.4032	938.45	463.3
790.0181	77.6634	1465.3	984.35
790.1592	79.9231	2657.95	2169.45
790.3003	82.1824	5262.85	4750.9
790.4414	84.4412	9896.85	9348.9
790.5825	86.6995	16262.85	15670.5
790.7237	88.9574	22404.7	21774.65
790.8648	91.2148	26575.3	25913.4
791.006	93.4717	28380.55	27703.1
791.1472	95.7282	28612.2	27925.45
791.2885	97.9842	28249.8	27559.85
791.4297	100.2398	27472.1	26779
791.571	102.4949	26667.3	25973.95
791.7123	104.7495	25712.75	25013.1
791.8536	107.0036	24762.6	24066.75
791.9949	109.2573	23913.8	23217.95
792.1363	111.5105	23137.8	22441.1
792.2777	113.7632	22429.45	21727.15
792.4191	116.0154	21876.45	21164.85
792.5605	118.2672	21471	20759.35
792.7019	120.5185	21075.2	20362.55
792.8434	122.7693	20752.95	20039.55
792.9849	125.0197	20464.7	19749.45
793.1264	127.2696	20197.8	19480.55
793.2679	129.519	20003.85	19279.6
793.4094	131.7679	19703.65	18977.25
793.551	134.0163	19415.3	18684.95
793.6926	136.2642	19090.05	18355
793.8342	138.5117	18725.3	17979.4
793.9758	140.7587	18341.6	17600.2
794.1175	143.0052	18004.45	17261.05
794.2591	145.2512	17666.45	16928.15
794.4008	147.4967	17332.05	16593.6
794.5425	149.7417	17102.75	16357.8
794.6842	151.9863	16930.25	16183.2
794.826	154.2304	16814.5	16058.95
794.9677	156.4739	16666.3	15905.55
795.1095	158.717	16539.35	15782.4
795.2513	160.9596	16345.65	15584.15
795.3931	163.2017	16097.1	15329.9
795.535	165.4433	15792.8	15023.45
795.6768	167.6844	15464.2	14694.6
795.8187	169.925	15158.4	14387.15
795.9606	172.1651	14794.65	14019
796.1025	174.4047	14534.05	13760
796.2445	176.6439	14282.6	13508.25
796.3864	178.8825	14082.6	13303.65
796.5284	181.1206	13929.05	13145.35
796.6704	183.3582	13779.45	12988.25
796.8124	185.5954	13696.7	12902.45
796.9544	187.832	13639.4	12844.85
797.0965	190.0681	13618.45	12820.2
797.2386	192.3037	13611.15	12803.7
797.3806	194.5388	13582.5	12778.2
797.5228	196.7734	13624.55	12818.55
797.6649	199.0075	13679.3	12875.35
797.807	201.2411	13805.25	12993.3
797.9492	203.4742	13861.9	13051.9
798.0914	205.7068	14019.15	13206.1
798.2336	207.9389	14155.4	13341.9
798.3758	210.1704	14309.25	13496.55
798.518	212.4015	14385.1	13585.35
798.6603	214.632	14558.75	13765.05
798.8025	216.862	14728.9	13936.9
798.9448	219.0915	14806.7	14009.75
799.0871	221.3205	14930.25	14134.6
799.2294	223.549	15028.15	14233.35
799.3718	225.777	15098.7	14302.3
799.5141	228.0044	15254.5	14453.35
799.6565	230.2314	15448.35	14646.95
799.7989	232.4578	15563.9	14761
799.9413	234.6837	15709.75	14900.95
800.0837	236.909	15770.7	14957.2
800.2262	239.1339	15787.7	14949.75
800.3687	241.3582	15684.5	14857.8
800.5111	243.582	15589.15	14735.35
800.6536	245.8053	15479.7	14637.85
800.7961	248.0281	15405.55	14570.65
800.9387	250.2503	15372.45	14530.55
801.0812	252.472	15404.85	14568.4
801.2238	254.6932	15528.45	14692.1
801.3664	256.9139	15618.5	14776.9
801.509	259.134	15799.65	14950.5
801.6516	261.3536	16026.4	15185.25
801.7942	263.5727	16334.15	15484.15
801.9369	265.7912	16567.9	15720.85
802.0795	268.0092	16859.9	16010.35
802.2222	270.2267	17015.3	16168.2
802.3649	272.4436	17135.4	16292.8
802.5076	274.6601	17164.05	16308.7
802.6504	276.8759	17080.2	16225.5
802.7931	279.0913	16948.6	16096.6
802.9359	281.3061	16832	15976.55
803.0787	283.5204	16756.2	15901.35
803.2215	285.7341	16762.65	15900.4
803.3643	287.9473	16820.85	15950.45
803.5071	290.16	16860.7	15999.15
803.6499	292.3721	16991	16130.8
803.7928	294.5837	17241	16377.4
803.9357	296.7947	17433.45	16571.15
804.0786	299.0052	17609.05	16749.15
804.2215	301.2152	17566.3	16703.3
804.3644	303.4246	17406.35	16548.75
804.5074	305.6334	16985.2	16123.85
804.6503	307.8418	16581.85	15719.9
804.7933	310.0495	16160.9	15295.15
804.9363	312.2568	15714.3	14848.25
805.0793	314.4635	15368.05	14492.5
805.2223	316.6696	15083.25	14215.85
805.3653	318.8752	14872.95	13990.8
805.5084	321.0802	14781.95	13909.55
805.6514	323.2847	14809.25	13935.55
805.7945	325.4887	14835.25	13961.4
805.9376	327.692	14856.9	13983.5
806.0807	329.8949	14803.15	13926.6
806.2238	332.0972	14622.2	13742.65
806.367	334.2989	14353.9	13470.95
806.5101	336.5001	14148.05	13263.95
806.6533	338.7007	13937.9	13057.05
806.7965	340.9008	13794.4	12908.9
806.9397	343.1003	13622.3	12740.65
807.0829	345.2992	13481.25	12600.8
807.2261	347.4976	13393.8	12505.3
807.3693	349.6955	13347.85	12459.6
807.5126	351.8927	13335.05	12441.85
807.6559	354.0895	13266.4	12358.9
807.7991	356.2856	13241.55	12349.95
807.9424	358.4812	13199.15	12302.25
808.0857	360.6763	13174.75	12280.6
808.2291	362.8707	13144.3	12246.25
808.3724	365.0646	13241.3	12338.55
808.5158	367.258	13249.8	12351.85
808.6591	369.4508	13318.15	12416.45
808.8025	371.643	13454.9	12547.1
808.9459	373.8346	13515.55	12612
809.0893	376.0257	13614.65	12712.35
809.2327	378.2162	13591.5	12691
809.3762	380.4062	13564.9	12659.35
809.5196	382.5956	13455.35	12551.7
809.6631	384.7844	13355.5	12462.55
809.8066	386.9726	13200.9	12301.65
809.9501	389.1603	13146.1	12254.8
810.0936	391.3474	13101	12180.6
810.2371	393.5339	13054.05	12150.1
810.3806	395.7199	12993.15	12095
810.5241	397.9052	13067.55	12175.75
810.6677	400.09	13138.35	12241.45
810.8113	402.2743	13298.8	12402.5
810.9548	404.4579	13456.8	12558.6
811.0984	406.641	13652.6	12751.75
811.2421	408.8235	13798.75	12897.9
811.3857	411.0054	13990.85	13086.3
811.5293	413.1868	14174.9	13263.8
811.673	415.3675	14279	13364.25
811.8166	417.5477	14301.05	13391.35
811.9603	419.7273	14247.75	13338.5
812.104	421.9064	14192.85	13277.85
812.2477	424.0848	14093	13183.9
812.3914	426.2627	13967.1	13053.4
812.5351	428.4399	13712.2	12799.3
812.6788	430.6166	13380.45	12465.2
812.8226	432.7928	13039.7	12123.35
812.9663	434.9683	12743.15	11825.75
813.1101	437.1432	12503.05	11591.5
813.2539	439.3176	12357.15	11450.45
813.3977	441.4914	12220.75	11318.5
813.5415	443.6645	12219.5	11309.9
813.6853	445.8371	12122.85	11213.15
813.8291	448.0091	12106.8	11197
813.973	450.1806	12081.45	11172.4
814.1168	452.3514	12051.65	11144.35
814.2607	454.5216	12102.9	11180.7
814.4046	456.6913	12071	11161.55
814.5485	458.8603	12119.4	11208.7
814.6924	461.0288	12171.2	11267.1
814.8363	463.1967	12160	11256
814.9802	465.3639	12192.25	11288.4
815.1241	467.5306	12180.65	11270.45
815.2681	469.6967	12196.35	11292.85
815.412	471.8622	12215.7	11313.05
815.556	474.0271	12280.65	11376.9
815.7	476.1914	12323.85	11410.45
815.844	478.3551	12347.95	11439.25
815.988	480.5182	12393.05	11486.55
816.132	482.6807	12473.7	11576.25
816.276	484.8426	12614.1	11722.4
816.4201	487.0039	12973.8	12075.1
816.5641	489.1647	13362.2	12453.6
816.7082	491.3248	13681.95	12767.6
816.8522	493.4843	13795.7	12889.6
816.9963	495.6432	13766.05	12863.3
817.1404	497.8015	13653.2	12736.15
817.2845	499.9592	13535.55	12609.6
817.4286	502.1163	13355.15	12431.6
817.5727	504.2728	13035.65	12123.05
817.7168	506.4287	12751.65	11849.6
817.861	508.5839	12414.35	11512.2
818.0051	510.7386	12230.15	11320
818.1493	512.8927	12123.35	11199.05
818.2935	515.0461	12070	11153.6
818.4377	517.199	12167.4	11245.4
818.5818	519.3512	12333.05	11407.85
818.726	521.5029	12574.1	11648.8
818.8703	523.6539	12817.15	11895.85
819.0145	525.8043	12895.4	11972.15
819.1587	527.9541	12850.9	11922.55
819.303	530.1033	12690.9	11766.45
819.4472	532.2519	12526.5	11604.75
819.5915	534.3999	12471.5	11552.75
819.7357	536.5472	12569.55	11649.25
819.88	538.694	12776.9	11860.7
820.0243	540.8401	13054.25	12132.75
820.1686	542.9856	13329.4	12396.4
820.3129	545.1305	13372.35	12434.2
820.4572	547.2748	13300.8	12359.55
820.6016	549.4185	13082.4	12140.95
820.7459	551.5615	12959.05	12017.75
820.8902	553.704	12963.15	12022.15
821.0346	555.8458	13027.6	12094.75
821.1789	557.987	13208.75	12276.55
821.3233	560.1276	13393.85	12458.15
821.4677	562.2675	13771.65	12838.7
821.6121	564.4069	14245.05	13307.7
821.7565	566.5456	14666.6	13737
821.9009	568.6837	14803.2	13872.35
822.0453	570.8212	14395.35	13464.95
822.1897	572.958	13741.35	12805.15
822.3342	575.0942	13120.4	12191.7
822.4786	577.2299	12697.5	11774.75
822.6231	579.3648	12457.75	11550.6
822.7675	581.4992	12426.6	11528.4
822.912	583.6329	12511.2	11611.75
823.0565	585.766	12691.85	11788.2
823.201	587.8985	12840.2	11924.5
823.3454	590.0304	12890	11944.75
823.4899	592.1616	12849.4	11919.85
823.6345	594.2922	12733.4	11795.65
823.779	596.4222	12541.6	11602.3
823.9235	598.5515	12335.95	11395.85
824.068	600.6802	12140.3	11198.8
824.2126	602.8083	12001.75	11065.1
824.3571	604.9358	11991.7	11053.35
824.5017	607.0626	12002.5	11062.15
824.6462	609.1888	12121.5	11181.05
824.7908	611.3144	12233.95	11287.8
824.9354	613.4393	12348.65	11398.4
825.08	615.5636	12455.45	11508.15
825.2246	617.6873	12463.6	11520.85
825.3692	619.8103	12400	11455.85
825.5138	621.9327	12187.4	11246.65
825.6584	624.0544	11988.1	11050.1
825.803	626.1756	11808.05	10871.6
825.9477	628.2961	11666.6	10728
826.0923	630.4159	11595.45	10655.35
826.237	632.5351	11585.4	10642.35
826.3816	634.6537	11574.45	10629.7
826.5263	636.7716	11565.35	10613.6
826.6709	638.8889	11563.8	10612.75
826.8156	641.0056	11599.8	10644.2
826.9603	643.1216	11593.65	10642.2
827.105	645.237	11555.6	10609.95
827.2497	647.3518	11461.7	10523.55
827.3944	649.4659	11396.75	10462.8
827.5391	651.5793	11341.1	10407.35
827.6838	653.6922	11323.85	10388.8
827.8285	655.8043	11295.3	10359
827.9733	657.9159	11304.2	10361.55
828.118	660.0268	11255.3	10313.25
828.2627	662.137	11265	10321.15
828.4075	664.2466	11278.45	10327.15
828.5522	666.3556	11285.05	10335.45
828.697	668.4639	11227.25	10282.5
828.8418	670.5716	11195.15	10256.35
828.9865	672.6786	11132.85	10184.9
829.1313	674.785	11139.8	10188.05
829.2761	676.8907	11099.45	10153.7
829.4209	678.9958	11106.35	10165.6
829.5657	681.1002	11074.7	10131.8
829.7105	683.204	11077.45	10122.5
829.8553	685.3072	11055.6	10103.25
830.0001	687.4097	11041.55	10094.6
830.1449	689.5115	11001.6	10047.45
830.2898	691.6127	10988.7	10043.95
830.4346	693.7132	10994.5	10050.55
830.5794	695.8131	10998.5	10032.5
830.7243	697.9123	11005.25	10049.55
830.8691	700.0109	11030.45	10075.3
831.014	702.1089	11097.15	10143.15
831.1588	704.2061	11107.3	10157.7
831.3037	706.3028	11181.4	10221.55
831.4486	708.3987	11230.25	10276.8
831.5935	710.4941	11262.6	10315.35
831.7383	712.5887	11289.3	10338.95
831.8832	714.6827	11408.5	10455.65
832.0281	716.7761	11552.8	10607.9
832.173	718.8688	11738.15	10790.9
832.3179	720.9608	11880.65	10922.8
832.4628	723.0522	12038.1	11070.65
832.6077	725.1429	12055.45	11099.7
832.7527	727.233	12117.65	11164.65
832.8976	729.3224	12151.9	11199.5
833.0425	731.4112	12060	11104.4
833.1874	733.4993	11918	10961.45
833.3324	735.5867	11689.85	10735.1
833.4773	737.6735	11488.7	10535
833.6222	739.7596	11326.05	10369.7
833.7672	741.845	11179.8	10223
833.9122	743.9298	11061.4	10104.9
834.0571	746.014	11036	10079.85
834.2021	748.0974	11045.35	10081.6
834.347	750.1802	11034.7	10069.65
834.492	752.2624	11070.75	10108.25
834.637	754.3439	11103.8	10140.65
834.782	756.4247	11219.2	10248.4
834.9269	758.5048	11393.4	10436.15
835.0719	760.5843	11684.25	10723.05
835.2169	762.6631	12081.05	11117.9
835.3619	764.7413	12640.4	11678.9
835.5069	766.8188	13355.65	12389.65
835.6519	768.8956	13925.95	12963.35
835.7969	770.9718	14306.05	13346.85
835.9419	773.0473	14265.4	13304.6
836.0869	775.1221	14020.55	13060.2
836.232	777.1962	13705.2	12745.7
836.377	779.2697	13599.8	12637.95
836.522	781.3426	13639.6	12668.75
836.667	783.4147	13797.3	12834.35
836.8121	785.4862	13843.65	12881.05
836.9571	787.557	13672.8	12708.15
837.1021	789.6271	13222.1	12261.3
837.2472	791.6966	12631.45	11668.7
837.3922	793.7654	12001	11035.65
837.5373	795.8335	11552.2	10588.45
837.6823	797.901	11271.1	10304.05
837.8274	799.9678	11111.8	10145.3
837.9724	802.0339	11028.7	10063.7
838.1175	804.0993	10996.35	10021.6
838.2626	806.1641	10944.7	9980.45
838.4076	808.2282	10854.2	9889.3
838.5527	810.2916	10791.6	9825.8
838.6978	812.3544	10742.5	9783.55
838.8428	814.4164	10641.7	9677.15
838.9879	816.4778	10704.2	9739.15
839.133	818.5385	10756.8	9787.85
839.2781	820.5986	10870.15	9900.4
839.4232	822.658	11111.55	10142
839.5682	824.7166	11444.5	10479.1
839.7133	826.7747	11922.85	10955.55
839.8584	828.832	12470.15	11500.8
840.0035	830.8886	12827.1	11860.35
840.1486	832.9446	12999.25	12029.2
840.2937	834.9999	12897.25	11930.75
840.4388	837.0545	12617.65	11644.8
840.5839	839.1085	12288.35	11320.3
840.729	841.1618	11978.45	11002.75
840.8741	843.2143	11731.25	10765.5
841.0192	845.2662	11523	10555.85
841.1643	847.3175	11379.15	10413.75
841.3095	849.368	11266.5	10295.7
841.4546	851.4179	11192.8	10226.4
841.5997	853.467	11068.5	10100.6
841.7448	855.5155	11040.2	10072.6
841.8899	857.5633	10935.1	9967.35
842.0351	859.6105	10868.5	9898.25
842.1802	861.6569	10776.85	9808.15
842.3253	863.7027	10663.9	9694.15
842.4704	865.7478	10656.95	9685.35
842.6156	867.7922	10619	9652.7
842.7607	869.8359	10576.35	9604.7
842.9058	871.8789	10619.5	9649.1
843.0509	873.9212	10744.95	9738.1
843.1961	875.9629	10805.75	9832.2
843.3412	878.0039	10916.65	9944.45
843.4863	880.0441	11010.75	10042.9
843.6315	882.0837	11046.7	10078.35
843.7766	884.1226	11084.65	10115.25
843.9218	886.1609	11142.8	10177.4
844.0669	888.1984	11210.25	10238.65
844.212	890.2352	11361.5	10393
844.3572	892.2714	11347.7	10375.15
844.5023	894.3069	11318.55	10348.55
844.6475	896.3416	11157	10185.35
844.7926	898.3757	11010.75	10038.55
844.9377	900.4091	10905.85	9933.45
845.0829	902.4418	10927.4	9948.65
845.228	904.4739	10927.05	9950.3
845.3732	906.5052	10985.15	10009.85
845.5183	908.5358	10944.4	9975.95
845.6635	910.5658	10831.1	9850.75
845.8086	912.595	10612.3	9640
845.9538	914.6236	10384.2	9411.6
846.0989	916.6515	10269.15	9294.8
846.2441	918.6786	10170.6	9193.4
846.3892	920.7051	10187.05	9211.7
846.5344	922.7309	10196.75	9221.45
846.6795	924.756	10255.65	9285.2
846.8246	926.7804	10323.25	9348.5
846.9698	928.8041	10337.15	9365.7
847.1149	930.8272	10394.2	9418.4
847.2601	932.8495	10354.8	9382.6
847.4052	934.8711	10355.6	9381.3
847.5504	936.892	10308.25	9334.4
847.6955	938.9123	10293.75	9315.15
847.8407	940.9318	10288.8	9318.55
847.9858	942.9506	10279	9307.4
848.131	944.9688	10214.85	9240.85
848.2761	946.9862	10128.9	9156.95
848.4213	949.003	9991.8	9021.45
848.5664	951.019	9896.4	8925.55
848.7115	953.0344	9854.55	8880.8
848.8567	955.0491	9831.3	8857.65
849.0018	957.063	9868.2	8895.6
849.147	959.0763	9955	8984.65
849.2921	961.0888	9993.95	9018.45
849.4373	963.1007	10025.25	9055.65
849.5824	965.1119	10030.9	9068.1
849.7275	967.1223	10044.35	9090.8
849.8727	969.1321	10017.35	9061.35
850.0178	971.1412	10033.2	9069.35
850.1629	973.1495	9980.1	9014.5
850.3081	975.1572	10064.1	9046.75
850.4532	977.1641	10062	9087.5
850.5983	979.1704	10041.1	9067.25
850.7435	981.1759	10011.05	9036.45
850.8886	983.1808	10037.9	9060.95
851.0337	985.1849	10062.95	9077.95
851.1788	987.1884	10093.75	9120.3
851.324	989.1911	10192.75	9222.65
851.4691	991.1932	10250.75	9282.9
851.6142	993.1945	10286.65	9319.1
851.7593	995.1951	10236.05	9263.6
851.9045	997.1951	10224.65	9243.6
852.0496	999.1943	10201.55	9229.5
852.1947	1001.1928	10195.4	9220.6
852.3398	1003.1906	10227.15	9256.7
852.4849	1005.1877	10343.5	9370.65
852.63	1007.1841	10427.7	9456.95
852.7751	1009.1798	10440.65	9470.45
852.9202	1011.1748	10360.1	9387.55
853.0653	1013.1691	10201.95	9231.2
853.2104	1015.1627	10010.6	9038.35
853.3555	1017.1556	9792.95	8827.65
853.5006	1019.1477	9680.9	8715.3
853.6457	1021.1392	9574.4	8616.75
853.7908	1023.1299	9528.7	8569.95
853.9359	1025.12	9574.25	8623.3
854.081	1027.1093	9621.95	8686.8
854.2261	1029.0979	9717.75	8786.05
854.3712	1031.0859	9794.55	8853.55
854.5163	1033.0731	9854.55	8901.15
854.6613	1035.0596	9819.55	8863.75
854.8064	1037.0454	9689.8	8725.45
854.9515	1039.0304	9594.55	8631
855.0965	1041.0148	9455.15	8486.05
855.2416	1042.9985	9371.65	8404.9
855.3867	1044.9814	9325.3	8356.65
855.5317	1046.9636	9285.2	8318.6
855.6768	1048.9452	9283.25	8318.75
855.8219	1050.926	9324.85	8359.75
855.9669	1052.9061	9334.4	8365.85
856.112	1054.8855	9354.75	8387.55
856.257	1056.8642	9414.1	8444.25
856.4021	1058.8421	9464.7	8490.2
856.5471	1060.8194	9478.5	8508.9
856.6921	1062.7959	9519.9	8554.3
856.8372	1064.7717	9602.3	8629.15
856.9822	1066.7469	9664.2	8696.35
857.1272	1068.7213	9752.9	8784.15
857.2723	1070.695	9807.05	8838.75
857.4173	1072.6679	9839.25	8869.1
857.5623	1074.6402	9856.05	8884.4
857.7073	1076.6117	9781	8807.55
857.8523	1078.5826	9704.15	8731.75
857.9973	1080.5527	9571.8	8603.85
858.1423	1082.5221	9491.65	8526.9
858.2873	1084.4908	9465.55	8497.4
858.4323	1086.4587	9519.05	8548.8
858.5773	1088.426	9548.5	8580.5
858.7223	1090.3925	9582.45	8607.3
858.8673	1092.3584	9592.6	8625.8
859.0123	1094.3235	9616.15	8651.2
859.1573	1096.2879	9710.75	8742.35
859.3022	1098.2515	9800	8834.75
859.4472	1100.2145	9991.75	9028.05
859.5922	1102.1767	10143.3	9177.3
859.7371	1104.1382	10372.75	9411.65
859.8821	1106.099	10629.45	9662.15
860.027	1108.0591	10845.75	9875.25
860.172	1110.0185	11022.5	10056.1
860.3169	1111.9771	11091.75	10126.75
860.4619	1113.9351	10967.5	9998.8
860.6068	1115.8923	10854.45	9884.7
860.7517	1117.8488	10701.4	9737.3
860.8967	1119.8045	10504.55	9536.55
861.0416	1121.7596	10375.4	9408.65
861.1865	1123.7139	10264.15	9298.6
861.3314	1125.6675	10196.15	9229.45
861.4763	1127.6204	10235.7	9268.4
861.6212	1129.5726	10171.2	9203.85
861.7661	1131.524	10077.45	9110.95
861.911	1133.4748	9964.5	9001.35
862.0559	1135.4248	9787.15	8820.75
862.2008	1137.3741	9632.6	8663.8
862.3457	1139.3226	9526.95	8562.05
862.4905	1141.2705	9458.1	8492.8
862.6354	1143.2176	9387.15	8418.15
862.7803	1145.164	9346.7	8381.85
862.9251	1147.1097	9285.55	8321.15
863.07	1149.0546	9169.8	8202.9
863.2148	1150.9989	9077.2	8111.6
863.3597	1152.9424	8971.9	8004.25
863.5045	1154.8852	8927.9	7963.95
863.6493	1156.8272	8855.05	7889.4
863.7942	1158.7686	8887.15	7915.75
863.939	1160.7092	8911.85	7944.6
864.0838	1162.6491	8944.35	7978.05
864.2286	1164.5883	9047.25	8081.2
864.3734	1166.5267	9168.75	8203.25
864.5182	1168.4644	9319.5	8355.15
864.663	1170.4014	9513.9	8547.3
864.8078	1172.3377	9775.85	8814.15
864.9526	1174.2732	10080.35	9120.7
865.0974	1176.2081	10482.35	9520
865.2421	1178.1421	10980.9	10013.1
865.3869	1180.0755	11517	10556.7
865.5317	1182.0082	11869.8	10908.45
865.6764	1183.9401	12031.25	11070.35
865.8212	1185.8713	11890.65	10939.65
865.9659	1187.8017	11549.95	10599.85
866.1106	1189.7315	11145.1	10208.45
866.2554	1191.6605	10746.75	9810.5
866.4001	1193.5888	10466.4	9523.55
866.5448	1195.5163	10326.95	9374
866.6895	1197.4432	10203.5	9243.2
866.8342	1199.3693	10187	9227.7
866.9789	1201.2947	10184.75	9221.15
867.1236	1203.2193	10131.3	9172.85
867.2683	1205.1432	10107.85	9148.4
867.413	1207.0664	10063.5	9105.95
867.5576	1208.9889	10069.2	9107.05
867.7023	1210.9106	10030.6	9074.45
867.847	1212.8316	10027.25	9067.7
867.9916	1214.7519	10080.45	9108.9
868.1363	1216.6715	10113.85	9155
868.2809	1218.5903	10169.55	9210.35
868.4255	1220.5084	10249.2	9286.3
868.5701	1222.4257	10378.3	9418.05
868.7148	1224.3424	10401.05	9451.2
868.8594	1226.2583	10518.1	9561.1
869.004	1228.1735	10683.1	9722.15
869.1486	1230.0879	10811.95	9850.25
869.2932	1232.0016	11014.15	10054.6
869.4377	1233.9146	11143.3	10183.65
869.5823	1235.8269	11170.8	10209.6
869.7269	1237.7384	11113.4	10154.75
869.8715	1239.6492	10981.7	10022.85
870.016	1241.5592	10962.6	10002.9
870.1606	1243.4686	11028.2	10071.6
870.3051	1245.3772	11177.45	10220.55
870.4496	1247.285	11424.2	10465.75
870.5941	1249.1922	11549.65	10592.2
870.7387	1251.0986	11742.15	10785.55
870.8832	1253.0042	11821	10864.45
871.0277	1254.9092	11927.95	10970.95
871.1722	1256.8134	12032.05	11079.55
871.3167	1258.7169	12171.6	11210.6
871.4611	1260.6196	12325.6	11371.3
871.6056	1262.5216	12564.8	11602.95
871.7501	1264.4229	12750.1	11793.35
871.8945	1266.3234	12947.5	11992.95
872.039	1268.2232	13089.6	12133.75
872.1834	1270.1223	13168.6	12209.95
872.3278	1272.0207	13179.3	12220.45
872.4723	1273.9183	13176.7	12216.2
872.6167	1275.8151	13131.85	12178.65
872.7611	1277.7113	13130.1	12173.75
872.9055	1279.6067	13202.3	12246.85
873.0499	1281.5014	13445.2	12488.45
873.1943	1283.3953	13805.5	12846.2
873.3386	1285.2885	14350.4	13395.25
873.483	1287.181	14877.25	13922.8
873.6274	1289.0727	15339.2	14387.3
873.7717	1290.9637	15684.75	14730.15
873.9161	1292.854	15888.95	14932.7
874.0604	1294.7435	15872.7	14918.9
874.2047	1296.6323	15801.7	14847
874.349	1298.5204	15610.75	14651
874.4933	1300.4077	15397.25	14439
874.6376	1302.2943	15180.45	14223.6
874.7819	1304.1802	14845.8	13893.15
874.9262	1306.0653	14398	13444.05
875.0705	1307.9497	13903.25	12950.85
875.2147	1309.8333	13474.5	12523.55
875.359	1311.7162	13150.3	12193.25
875.5032	1313.5984	13001.35	12040.5
875.6475	1315.4798	12816.6	11845.6
875.7917	1317.3605	12736.45	11776.1
875.9359	1319.2405	12630.8	11669.2
876.0801	1321.1197	12366.1	11407
876.2243	1322.9982	12067.15	11109.6
876.3685	1324.876	11785.1	10829.15
876.5127	1326.753	11480.65	10524.55
876.6569	1328.6293	11258.95	10303.2
876.801	1330.5048	11112.8	10152.9
876.9452	1332.3796	10958.35	10000.05
877.0893	1334.2537	10868.55	9888.95
877.2335	1336.127	10782.45	9826.8
877.3776	1337.9996	10718.15	9764.35
877.5217	1339.8714	10693.65	9738.65
877.6658	1341.7426	10745.45	9744
877.8099	1343.6129	10770.7	9816.35
877.954	1345.4826	10732.55	9773.75
878.0981	1347.3515	10750.6	9791.2
878.2422	1349.2196	10717.5	9758.6
878.3862	1351.087	10757.2	9799.8
878.5303	1352.9537	10792.3	9833.65
878.6743	1354.8197	10906.9	9949.2
878.8184	1356.6849	11078.55	10121.05
878.9624	1358.5493	11236.5	10282.25
879.1064	1360.4131	11416.6	10459.55
879.2504	1362.276	11574.3	10620.3
879.3944	1364.1383	11551	10594
879.5384	1365.9998	11390.6	10432.75
879.6823	1367.8606	11050.1	10093.75
879.8263	1369.7206	10665.2	9710.9
879.9702	1371.5799	10324.05	9366.3
880.1142	1373.4384	10082.05	9125.75
880.2581	1375.2962	9847.05	8892.75
880.402	1377.1533	9510.4	8558.6
880.5459	1379.0096	9146.25	8198.7
880.6898	1380.8652	8806	7859.85
880.8337	1382.7201	8530.45	7581.05
880.9776	1384.5742	8276.3	7326.1
881.1215	1386.4275	8060.55	7106.4
881.2653	1388.2802	7931.65	6977.95
881.4092	1390.132	7828.45	6874.15
881.553	1391.9832	7767.4	6813.3
881.6968	1393.8336	7664.45	6707.5
881.8406	1395.6832	7646.85	6693.8
881.9844	1397.5322	7612.85	6659.55
882.1282	1399.3803	7550.05	6592.45
882.272	1401.2278	7511.95	6559.45
882.4158	1403.0745	7517.35	6566.4
882.5595	1404.9204	7499.15	6548.1
882.7033	1406.7656	7514.75	6560.6
882.847	1408.6101	7566	6611.6
882.9908	1410.4538	7569.05	6617.7
883.1345	1412.2968	7619.5	6665.75
883.2782	1414.139	7656.25	6703.4
883.4219	1415.9805	7754.25	6804.35
883.5656	1417.8213	7817.1	6856.85
883.7092	1419.6613	7916	6967.2
883.8529	1421.5006	8048.75	7096.7
883.9965	1423.3391	8274.45	7326.85
884.1402	1425.1769	8530.7	7579.4
884.2838	1427.0139	8977.6	8025.8
884.4274	1428.8502	9510.6	8557.05
884.571	1430.6858	10026.4	9077.85
884.7146	1432.5206	10432.8	9481.3
884.8582	1434.3547	10636.95	9687.05
885.0018	1436.188	10664.55	9711.4
885.1453	1438.0206	10573.1	9623.05
885.2889	1439.8524	10423.85	9475.5
885.4324	1441.6835	10297.2	9348.25
885.5759	1443.5139	10198.05	9247.95
885.7194	1445.3435	10128.4	9177.6
885.8629	1447.1724	10116.35	9171.4
886.0064	1449.0005	10047.35	9099.7
886.1499	1450.8279	9999.1	9050.75
886.2933	1452.6545	9971.2	9024
886.4368	1454.4804	10026	9080.25
886.5802	1456.3056	10016.1	9066.7
886.7237	1458.13	9922.5	8978.4
886.8671	1459.9536	9756.15	8810.55
887.0105	1461.7766	9513.6	8565.95
887.1539	1463.5987	9189.1	8239.35
887.2972	1465.4202	8859.55	7915.15
887.4406	1467.2409	8527.7	7579.8
887.584	1469.0608	8243.5	7296.35
887.7273	1470.88	7974.75	7028.7
887.8706	1472.6984	7736.9	6792.65
888.0139	1474.5161	7554.3	6603.45
888.1572	1476.3331	7402.6	6455.25
888.3005	1478.1493	7269.75	6322.75
888.4438	1479.9648	7204.05	6254
888.5871	1481.7795	7127.3	6181.6
888.7303	1483.5935	7070.6	6123.7
888.8736	1485.4067	6998.7	6051.2
889.0168	1487.2192	6965.7	6017.95
889.16	1489.031	6934.9	5986.85
889.3032	1490.842	6894.5	5947.3
889.4464	1492.6522	6856.45	5910.35
889.5896	1494.4618	6806.2	5859.25
889.7327	1496.2705	6797	5852.45
889.8759	1498.0785	6777.5	5830.35
890.019	1499.8858	6710.5	5761.65
890.1622	1501.6924	6652.5	5709.85
890.3053	1503.4981	6619.6	5675.2
890.4484	1505.3032	6591.4	5643.95
890.5914	1507.1075	6545.25	5599.6
890.7345	1508.911	6507.75	5563.85
890.8776	1510.7138	6471.4	5524.4
891.0206	1512.5159	6415	5469.55
891.1637	1514.3172	6366.7	5420.9
891.3067	1516.1178	6302.55	5362.7
891.4497	1517.9176	6311	5364.75
891.5927	1519.7166	6270.75	5328.05
891.7357	1521.515	6230.2	5282.5
891.8786	1523.3126	6211.25	5269.6
892.0216	1525.1094	6185	5242.3
892.1645	1526.9055	6177.15	5235.35
892.3074	1528.7008	6152.55	5211.45
892.4503	1530.4954	6109.65	5168.65
892.5932	1532.2893	6099.6	5162.75
892.7361	1534.0824	6068	5125.85
892.879	1535.8747	6070.95	5132.4
893.0218	1537.6663	6086.45	5149.7
893.1647	1539.4572	6054.75	5115.65
893.3075	1541.2473	6075.25	5135.15
893.4503	1543.0367	6071.25	5134.95
893.5931	1544.8253	6087.25	5144.65
893.7359	1546.6132	6119	5179.1
893.8787	1548.4003	6131.85	5184.35
894.0214	1550.1867	6202.35	5256.75
894.1642	1551.9723	6262.85	5320.75
894.3069	1553.7572	6356	5421
894.4496	1555.5414	6479	5546.7
894.5923	1557.3247	6597.45	5666.65
894.735	1559.1074	6768.1	5840.05
894.8777	1560.8893	6928.1	5997.25
895.0204	1562.6705	7106.5	6178.2
895.163	1564.4509	7247.35	6315.8
895.3056	1566.2305	7304.45	6380.7
895.4482	1568.0094	7339.85	6412.2
895.5908	1569.7876	7332.75	6405.8
895.7334	1571.565	7306.5	6377.15
895.876	1573.3417	7295.05	6363.25
896.0186	1575.1176	7280	6351.75
896.1611	1576.8928	7279.2	6353.55
896.3036	1578.6672	7296.3	6378.25
896.4461	1580.4409	7308.8	6393.1
896.5886	1582.2138	7347.1	6425.75
896.7311	1583.986	7399.05	6475.25
896.8736	1585.7575	7479.75	6551.4
897.0161	1587.5282	7550.65	6628.75
897.1585	1589.2981	7661.4	6743.85
897.3009	1591.0673	7736.95	6816.6
897.4433	1592.8358	7877.2	6956.6
897.5857	1594.6035	7959.45	7033
897.7281	1596.3704	8069.5	7146.5
897.8705	1598.1366	8174.1	7252.85
898.0128	1599.9021	8265.6	7342.4
898.1551	1601.6668	8380.1	7455.45
898.2975	1603.4308	8501.5	7574.35
898.4398	1605.194	8663.5	7738
898.5821	1606.9564	8856.35	7940.2
898.7243	1608.7182	9120.65	8208.55
898.8666	1610.4791	9418.65	8514.8
899.0088	1612.2394	9736.4	8831.55
899.1511	1613.9988	10054.5	9147.85
899.2933	1615.7576	10333.5	9418.9
899.4355	1617.5156	10577.95	9648.85
899.5776	1619.2728	10655.05	9730.85
899.7198	1621.0293	10560.25	9637.55
899.862	1622.785	10342.2	9422.6
900.0041	1624.54	9987.25	9071.85
900.1462	1626.2942	9595.75	8681.15
900.2883	1628.0477	9195.45	8280.5
900.4304	1629.8005	8822.55	7905.55
900.5725	1631.5525	8475.05	7562.1
900.7145	1633.3037	8197.85	7285.35
900.8566	1635.0542	7970.15	7058.95
900.9986	1636.804	7796.75	6881.05
901.1406	1638.553	7747.2	6741.35
901.2826	1640.3013	7603.4	6685.85
901.4245	1642.0488	7553.85	6637
901.5665	1643.7955	7589.95	6678.85
901.7085	1645.5416	7624.55	6713.85
901.8504	1647.2868	7727.35	6814.15
901.9923	1649.0313	7849.75	6932.9
902.1342	1650.7751	8006.5	7090.35
902.2761	1652.5181	8164.35	7250.5
902.4179	1654.2604	8310.75	7401.2
902.5598	1656.0019	8556.2	7643.95
902.7016	1657.7427	8777.65	7865.8
902.8434	1659.4828	9031.05	8116.45
902.9852	1661.222	9220.45	8302.8
903.127	1662.9606	9175.9	8259.95
903.2687	1664.6984	8943.3	8025.6
903.4105	1666.4354	8527.5	7607.3
903.5522	1668.1717	7967.4	7048.25
903.6939	1669.9072	7418.35	6504.4
903.8356	1671.642	6955.15	6035.85
903.9773	1673.3761	6559.7	5643
904.119	1675.1094	6222.9	5308.3
904.2606	1676.8419	5964.35	5048
904.4022	1678.5737	5759	4845.75
904.5439	1680.3048	5590.75	4673.1
904.6855	1682.0351	5466.2	4552.6
904.827	1683.7646	5365.55	4446.9
904.9686	1685.4934	5272.45	4356.5
905.1101	1687.2215	5186.6	4273.65
905.2517	1688.9488	5108.95	4196.35
905.3932	1690.6754	5051.4	4136.95
905.5347	1692.4012	5016.3	4100.05
905.6761	1694.1263	4955.55	4039.75
905.8176	1695.8506	4915.6	4001.3
905.9591	1697.5742	4876.35	3964.9
906.1005	1699.297	4805.3	3896.3
906.2419	1701.0191	4786.45	3877.9
906.3833	1702.7404	4762.85	3855.75
906.5246	1704.461	4699.15	3790.35
906.666	1706.1808	4689.4	3779.7
906.8073	1707.8999	4645.7	3737.45
906.9487	1709.6182	4635.25	3729.25
907.09	1711.3358	4603.65	3699.1
907.2313	1713.0527	4586.15	3684
907.3725	1714.7688	4558.55	3647.15
907.5138	1716.4841	4527.6	3617.95
907.655	1718.1987	4520.75	3607.1
907.7962	1719.9126	4483.95	3582.05
907.9374	1721.6257	4472.05	3567.5
908.0786	1723.338	4460.9	3558.85
908.2198	1725.0496	4450.95	3545.35
908.3609	1726.7605	4434.55	3527.15
908.502	1728.4706	4419.1	3512.65
908.6431	1730.18	4396.8	3492.95
908.7842	1731.8886	4379.25	3478.85
908.9253	1733.5964	4378.2	3454.8
909.0664	1735.3036	4353.2	3444.8
909.2074	1737.0099	4350.55	3446.35
909.3484	1738.7156	4319.75	3415.9
909.4894	1740.4204	4276.35	3369.45
909.6304	1742.1246	4259.45	3350.65
909.7714	1743.8279	4238.1	3335.5
909.9123	1745.5306	4234.75	3334
910.0532	1747.2325	4212.85	3308.4
910.1941	1748.9336	4186.05	3281.3
910.335	1750.634	4160.35	3250.65
910.4759	1752.3336	4148.35	3243.1
910.6168	1754.0325	4135.8	3236.8
910.7576	1755.7307	4116.2	3215.55
910.8984	1757.4281	4144.6	3239.75
911.0392	1759.1247	4130.2	3215.4
911.18	1760.8206	4126.3	3212.8
911.3208	1762.5158	4111.35	3199.1
911.4615	1764.2102	4093.25	3191.25
911.6022	1765.9039	4092.35	3189.3
911.7429	1767.5968	4059.75	3158.4
911.8836	1769.289	4064.3	3161.6
912.0243	1770.9804	4047.7	3141.8
912.1649	1772.6711	4026.75	3116.4
912.3056	1774.361	4029.35	3121.1
912.4462	1776.0502	4011.75	3103.35
912.5868	1777.7386	4017.6	3107.3
912.7274	1779.4263	4005.95	3102.3
912.8679	1781.1132	3986.75	3083.35
913.0084	1782.7994	3987.05	3085.9
913.149	1784.4849	3977.7	3077.95
913.2895	1786.1696	3977.15	3057.65
913.4299	1787.8535	3953.15	3054.25
913.5704	1789.5367	3928.25	3031.4
913.7108	1791.2192	3948.95	3050.5
913.8513	1792.9009	3948.25	3023.3
913.9917	1794.5818	3927.45	3022.05
914.132	1796.2621	3932.4	3027.15
914.2724	1797.9415	3920.05	3013.5
914.4128	1799.6202	3905.35	2999.5
914.5531	1801.2982	3885.75	2980.2
914.6934	1802.9755	3875.75	2968.85
914.8337	1804.6519	3874.3	2970.15
914.9739	1806.3277	3863.6	2961.25
915.1142	1808.0027	3846.55	2950.45
915.2544	1809.6769	3839.55	2944.1
915.3946	1811.3504	3829.6	2931.55
915.5348	1813.0231	3823.9	2925.1
915.675	1814.6951	3815.15	2914.5
915.8151	1816.3664	3819.3	2913.95
915.9553	1818.0369	3802.3	2900.35
916.0954	1819.7067	3791.65	2893.25
916.2355	1821.3757	3789.55	2884.05
916.3755	1823.044	3789.95	2883.85
916.5156	1824.7115	3794	2889.2
916.6556	1826.3783	3773.25	2868.9
916.7956	1828.0443	3764.85	2863.8
916.9356	1829.7096	3761.9	2856.85
917.0756	1831.3741	3756.2	2852.2
917.2155	1833.0379	3739.55	2838.6
917.3555	1834.701	3739	2838.6
917.4954	1836.3633	3737.55	2841.25
917.6353	1838.0248	3728.4	2826.9
917.7751	1839.6856	3727.05	2826.45
917.915	1841.3457	3721.5	2817.85
918.0548	1843.005	3722.7	2821.7
918.1946	1844.6636	3711.35	2808
918.3344	1846.3214	3698.4	2799
918.4742	1847.9785	3699.7	2799.6
918.6139	1849.6349	3677.3	2771.65
918.7537	1851.2904	3689.4	2775.45
918.8934	1852.9453	3682.15	2776.3
919.0331	1854.5994	3663.3	2755.75
919.1727	1856.2528	3665.6	2757.6
919.3124	1857.9054	3668.5	2765.15
919.452	1859.5572	3655.55	2753.1
919.5916	1861.2083	3655.75	2753.05
919.7312	1862.8587	3655.15	2752.7
919.8708	1864.5084	3649.95	2744.5
920.0103	1866.1572	3622.8	2717.5
920.1498	1867.8054	3617.45	2712.05
920.2893	1869.4528	3609.65	2703.3
920.4288	1871.0994	3599.8	2694.15
920.5683	1872.7453	3589.75	2687.55
920.7077	1874.3905	3586.15	2676.05
920.8471	1876.0349	3582.6	2678.15
920.9865	1877.6786	3582.45	2678.7
921.1259	1879.3215	3584.5	2680.05
921.2653	1880.9637	3579.45	2674.5
921.4046	1882.6051	3572.8	2672.3
921.5439	1884.2458	3556.4	2652.5
921.6832	1885.8858	3545.95	2645.45
921.8225	1887.525	3548.45	2645.1
921.9617	1889.1634	3527.85	2623.25
922.101	1890.8011	3521.5	2618.35
922.2402	1892.4381	3500.65	2598
922.3794	1894.0743	3503.4	2601.15
922.5185	1895.7098	3506.85	2604.75
922.6577	1897.3446	3499.75	2598.15
922.7968	1898.9786	3493.85	2584.7
922.9359	1900.6118	3477.45	2578.1
923.075	1902.2443	3475.05	2571.8
923.214	1903.8761	3474.25	2573.55
923.3531	1905.5071	3466.3	2565.3
923.4921	1907.1374	3452.45	2550.7
923.6311	1908.7669	3435.75	2534.75
923.77	1910.3957	3431.55	2533.2
923.909	1912.0237	3409.85	2510.2
924.0479	1913.651	3400.65	2498.55
924.1868	1915.2776	3400.35	2498.2
924.3257	1916.9034	3405	2507.15
924.4646	1918.5285	3379.55	2478.75
924.6034	1920.1528	3376.5	2474.7
924.7422	1921.7764	3385.5	2483.4
924.881	1923.3992	3358.5	2458.6
925.0198	1925.0213	3353.05	2453.7
925.1586	1926.6427	3331.9	2434.15
925.2973	1928.2633	3403.35	2419.7
925.436	1929.8832	3333.25	2429.55
925.5747	1931.5023	3306.7	2404.7
925.7134	1933.1207	3307.05	2406.15
925.852	1934.7383	3304.25	2403.15
925.9906	1936.3552	3287.65	2387.8
926.1292	1937.9714	3284.8	2385.35
926.2678	1939.5868	3279.3	2374.6
926.4064	1941.2015	3277.3	2375.75
926.5449	1942.8154	3271.9	2367.15
926.6834	1944.4286	3247.95	2344.45
926.8219	1946.041	3258.75	2340.55
926.9604	1947.6528	3233.45	2329.3
927.0988	1949.2637	3227.1	2327.45
927.2372	1950.8739	3202.4	2302
927.3756	1952.4834	3213.85	2315
927.514	1954.0921	3205.15	2303.8
927.6523	1955.7001	3217.15	2314.4
927.7907	1957.3074	3184.15	2287.9
927.929	1958.9139	3187.5	2292.65
928.0673	1960.5197	3175.4	2279.35
928.2055	1962.1247	3162.75	2266.1
928.3438	1963.729	3151.25	2256.85
928.482	1965.3325	3155.95	2254.45
928.6202	1966.9353	3140	2245
928.7584	1968.5374	3133.15	2235.95
928.8965	1970.1387	3126	2230.55
929.0346	1971.7393	3105.5	2209.3
929.1727	1973.3392	3088	2193.3
929.3108	1974.9383	3088.2	2195.2
929.4489	1976.5366	3076.15	2185.4
929.5869	1978.1342	3073.9	2180.9
929.7249	1979.7311	3075	2182.8
929.8629	1981.3273	3053.15	2159.85
930.0009	1982.9227	3058.05	2163.55
930.1388	1984.5173	3046.45	2153.95
930.2767	1986.1112	3040.5	2149.35
930.4146	1987.7044	3028.15	2136.75
930.5525	1989.2968	3044.25	2151.35
930.6904	1990.8885	3021.05	2126.05
930.8282	1992.4795	3017.7	2125.75
930.966	1994.0697	3005.55	2116.95
931.1038	1995.6592	3012.8	2121
931.2415	1997.2479	2999.1	2107.6
931.3793	1998.8359	2978.85	2090.35
931.517	2000.4232	2983.95	2098.1
931.6547	2002.0097	2969.7	2084.95
931.7923	2003.5955	2961.9	2074.4
931.93	2005.1805	2966.05	2076.5
932.0676	2006.7648	2964.1	2074.75
932.2052	2008.3484	2949.1	2061.1
932.3427	2009.9312	2959.25	2071.9
932.4803	2011.5133	2942.2	2058.3
932.6178	2013.0946	2927.35	2042.05
932.7553	2014.6752	2937.6	2053.2
932.8928	2016.2551	2940.5	2052.3
933.0302	2017.8342	2918.4	2030.85
933.1676	2019.4126	2905.8	2018.65
933.305	2020.9902	2905.3	2020.8
933.4424	2022.5672	2902.95	2017.7
933.5798	2024.1433	2893.8	2003.65
933.7171	2025.7188	2887.4	2005.05
933.8544	2027.2935	2877.1	1992.5
933.9917	2028.8674	2869.3	1987.8
934.129	2030.4406	2857.3	1976.5
934.2662	2032.0131	2848	1968.15
934.4034	2033.5849	2844.35	1957.6
934.5406	2035.1559	2858.05	1975.5
934.6778	2036.7261	2853.35	1966.35
934.8149	2038.2957	2833.75	1944.1
934.952	2039.8645	2854	1963.55
935.0891	2041.4325	2848.6	1956.15
935.2262	2042.9998	2832.3	1944.4
935.3632	2044.5664	2825.35	1939.9
935.5002	2046.1323	2808.5	1923.75
935.6372	2047.6974	2793.7	1910.9
935.7742	2049.2617	2805.6	1921.5
935.9111	2050.8254	2810.1	1904.2
936.048	2052.3883	2804	1915.65
936.1849	2053.9504	2785.2	1897.15
936.3218	2055.5118	2786.1	1896.45
936.4586	2057.0725	2773.25	1882.3
936.5955	2058.6325	2782.6	1896.95
936.7323	2060.1917	2764.2	1879.2
936.869	2061.7502	2771.3	1883.75
937.0058	2063.3079	2763.15	1880.25
937.1425	2064.8649	2749.45	1864.45
937.2792	2066.4212	2752.7	1866.8
937.4159	2067.9767	2745.5	1858.45
937.5525	2069.5315	2739.55	1853.25
937.6891	2071.0856	2733.95	1846.65
937.8257	2072.6389	2716.9	1829.65
937.9623	2074.1915	2700.6	1818
938.0989	2075.7433	2707.55	1818.4
938.2354	2077.2945	2693.9	1809.1
938.3719	2078.8448	2702.9	1817
938.5084	2080.3945	2694	1805.2
938.6448	2081.9434	2699.75	1809.5
938.7812	2083.4916	2687.15	1794.4
938.9176	2085.039	2675.8	1777
939.054	2086.5857	2676.2	1777.55
939.1903	2088.1317	2667	1769.9
939.3267	2089.677	2668.1	1769.1
939.463	2091.2215	2672.45	1773.8
939.5992	2092.7652	2667.65	1766.45
939.7355	2094.3083	2653.3	1758.35
939.8717	2095.8506	2645.85	1754.25
940.0079	2097.3921	2654.05	1760.2
940.1441	2098.933	2642.1	1750.45
940.2802	2100.4731	2640.2	1747.45
940.4163	2102.0124	2651.35	1741.2
940.5524	2103.5511	2635.15	1740
940.6885	2105.089	2627.6	1733.75
940.8245	2106.6261	2621.85	1730.3
940.9606	2108.1626	2627.65	1735.9
941.0965	2109.6983	2651.25	1730.95
941.2325	2111.2332	2609.95	1715.65
941.3684	2112.7675	2598.45	1703.7
941.5044	2114.301	2601.9	1706.9
941.6403	2115.8337	2597.15	1704
941.7761	2117.3657	2588.35	1693.7
941.912	2118.897	2588.55	1692.25
942.0478	2120.4276	2589.1	1688.75
942.1835	2121.9575	2577.15	1683
942.3193	2123.4866	2581	1685.45
942.455	2125.0149	2565.2	1671.55
942.5907	2126.5426	2558.15	1668.65
942.7264	2128.0695	2562.75	1673.05
942.8621	2129.5956	2539.1	1655.1
942.9977	2131.1211	2552.7	1661.25
943.1333	2132.6458	2551.05	1661.7
943.2689	2134.1698	2539.7	1644.3
943.4044	2135.693	2537.35	1640.05
943.54	2137.2155	2521	1622.95
943.6755	2138.7373	2532.25	1640.65
943.8109	2140.2584	2525.5	1636.8
943.9464	2141.7787	2524.1	1634.35
944.0818	2143.2983	2497	1615.5
944.2172	2144.8171	2490.65	1607.2
944.3526	2146.3353	2492	1602.6
944.4879	2147.8527	2492.85	1603.5
944.6232	2149.3693	2485	1588.75
944.7585	2150.8853	2489.65	1594.5
944.8938	2152.4005	2488.75	1595.85
945.029	2153.9149	2492.3	1597.45
945.1642	2155.4287	2479.85	1585.15
945.2994	2156.9417	2475.8	1581.8
945.4346	2158.454	2461.25	1569.15
945.5697	2159.9655	2452	1566.3
945.7048	2161.4764	2461.2	1572.8
945.8399	2162.9865	2455.4	1566.15
945.9749	2164.4958	2453.85	1564.7
946.1099	2166.0045	2441.05	1551.3
946.2449	2167.5124	2440.5	1551.65
946.3799	2169.0195	2431.5	1539.1
946.5148	2170.526	2436.95	1542.3
946.6498	2172.0317	2427.75	1535.35
946.7846	2173.5367	2423.75	1531.75
946.9195	2175.0409	2416.45	1528.1
947.0543	2176.5445	2418.25	1524.4
947.1891	2178.0473	2418.65	1523.8
947.3239	2179.5494	2420	1520.5
947.4587	2181.0507	2397.9	1505.45
947.5934	2182.5513	2412.4	1522.55
947.7281	2184.0512	2403.1	1508.55
947.8628	2185.5504	2394.2	1503.8
947.9974	2187.0488	2390.65	1502.4
948.132	2188.5465	2381.85	1495.55
948.2666	2190.0435	2373.8	1483.25
948.4012	2191.5397	2376.8	1484.25
948.5357	2193.0353	2374.3	1477.3
948.6702	2194.5301	2365.65	1468.3
948.8047	2196.0241	2364.95	1465.35
948.9392	2197.5175	2360.25	1461
949.0736	2199.0101	2357.5	1458.1
949.208	2200.502	2338.65	1444.45
949.3424	2201.9931	2342.3	1453.1
949.4767	2203.4835	2328.25	1437.15
949.611	2204.9733	2332.2	1425.8
949.7453	2206.4622	2325.85	1437
949.8796	2207.9505	2328.7	1439.65
950.0138	2209.438	2319.4	1433.5
950.148	2210.9248	2302.7	1414.5
950.2822	2212.4109	2301.6	1412.25
950.4164	2213.8962	2313.7	1417.75
950.5505	2215.3809	2306.4	1407.85
950.6846	2216.8648	2302.45	1401.65
950.8186	2218.3479	2305.35	1400
950.9527	2219.8304	2294.8	1391
951.0867	2221.3121	2293.7	1391.15
951.2207	2222.7931	2273.2	1375.15
951.3546	2224.2733	2273.6	1378
951.4886	2225.7529	2271.05	1377.2
951.6225	2227.2317	2263.45	1371.4
951.7563	2228.7098	2254.45	1366
951.8902	2230.1872	2239.15	1350.35
952.024	2231.6638	2238.55	1351.3
952.1578	2233.1397	2240	1349.1
952.2916	2234.6149	2250.8	1362.05
952.4253	2236.0894	2234.45	1345.35
952.559	2237.5632	2247.05	1344.75
952.6927	2239.0362	2226.25	1336
952.8263	2240.5085	2222.4	1329.9
952.9599	2241.9801	2223.35	1330.3
953.0935	2243.4509	2211.55	1317.8
953.2271	2244.921	2214.9	1317.05
953.3606	2246.3904	2209.7	1312.05
953.4941	2247.8591	2208.1	1311.45
953.6276	2249.3271	2197.7	1302.35
953.7611	2250.7943	2187	1293.05
953.8945	2252.2608	2185.05	1288.4
954.0279	2253.7266	2178.25	1285.2
954.1612	2255.1917	2182.2	1289.5
954.2946	2256.656	2172.5	1279.35
954.4279	2258.1197	2170.85	1282
954.5612	2259.5826	2162.75	1271.65
954.6944	2261.0447	2172.8	1278.2
954.8276	2262.5062	2157.85	1259
954.9608	2263.9669	2160.3	1262.25
955.094	2265.4269	2160.3	1266.05
955.2271	2266.8862	2156.2	1266
955.3602	2268.3448	2142.1	1252
955.4933	2269.8026	2142.6	1253.65
955.6264	2271.2598	2139.7	1250.5
955.7594	2272.7162	2146.3	1254.1
955.8924	2274.1719	2138.05	1240.75
956.0253	2275.6268	2143.95	1245.25
956.1583	2277.0811	2133.6	1237.9
956.2912	2278.5346	2129.6	1237.65
956.4241	2279.9874	2129.35	1239.3
956.5569	2281.4395	2120.2	1231.5
956.6897	2282.8908	2111.85	1214.9
956.8225	2284.3414	2112.55	1219
956.9553	2285.7914	2110.1	1215.75
957.088	2287.2406	2116.15	1218.6
957.2207	2288.689	2104.3	1206.5
957.3534	2290.1368	2114.95	1216.85
957.486	2291.5838	2108.6	1205.75
957.6186	2293.0302	2103.75	1201.55
957.7512	2294.4758	2099.85	1202.35
957.8838	2295.9206	2094	1198.55
958.0163	2297.3648	2086	1193.1
958.1488	2298.8082	2083	1192
958.2813	2300.251	2085.95	1190.3
958.4137	2301.693	2088.6	1187.65
958.5461	2303.1343	2083.8	1186.2
958.6785	2304.5748	2079.25	1185.75
958.8108	2306.0147	2069.45	1178.95
958.9432	2307.4538	2065.6	1175.2
959.0754	2308.8922	2055.1	1167.95
959.2077	2310.3299	2061.75	1171
959.3399	2311.7669	2057.25	1166.5
959.4721	2313.2031	2054.45	1163.9
959.6043	2314.6387	2041.95	1147.25
959.7365	2316.0735	2045.45	1151.6
959.8686	2317.5076	2052.7	1157.95
960.0006	2318.941	2042.65	1145.15
960.1327	2320.3737	2034.65	1136.2
960.2647	2321.8056	2032.95	1134.8
960.3967	2323.2369	2032.9	1137.95
960.5287	2324.6674	2024.95	1128.65
960.6606	2326.0972	2023.3	1128.1
960.7925	2327.5263	2014.1	1120.9
960.9244	2328.9547	2013.25	1115.7
961.0562	2330.3823	2019.4	1122.95
961.1881	2331.8092	2025.1	1123.35
961.3198	2333.2355	2009.95	1110.3
961.4516	2334.661	2003.05	1106.95
961.5833	2336.0858	2007.15	1107.9
961.715	2337.5098	1991.8	1096.3
961.8467	2338.9332	2000.75	1105.65
961.9783	2340.3558	1988.15	1090.2
962.1099	2341.7778	1994.4	1102.2
962.2415	2343.199	1986.95	1093.2
962.373	2344.6195	1986	1092.85
962.5045	2346.0393	1982.05	1090.9
962.636	2347.4583	1989.95	1096.1
962.7675	2348.8767	1986	1087.8
962.8989	2350.2943	1980.95	1084.75
963.0303	2351.7113	1989.35	1085
963.1617	2353.1275	1983.6	1082.55
963.293	2354.543	1986.4	1079.2
963.4243	2355.9578	1973.75	1076.55
963.5556	2357.3718	1973.6	1080.35
963.6868	2358.7852	1966.85	1073.85
963.818	2360.1978	1958.1	1066.1
963.9492	2361.6098	1951.9	1059.35
964.0803	2363.021	1955.9	1057.65
964.2114	2364.4315	1939.2	1042.85
964.3425	2365.8413	1946.5	1051.75
964.4736	2367.2504	1940.75	1049
964.6046	2368.6587	1932.35	1040.05
964.7356	2370.0664	1927.85	1036.95
964.8666	2371.4733	1939.9	1045.35
964.9975	2372.8795	1933.4	1038.9
965.1284	2374.285	1930.5	1034.7
965.2593	2375.6899	1909.35	1016.85
965.3901	2377.0939	1911.75	1021.4
965.5209	2378.4973	1921.45	1028.8
965.6517	2379.9	1920.2	1027
965.7825	2381.3019	1909.65	1017.15
965.9132	2382.7032	1907.85	1016.95
966.0439	2384.1037	1911.05	1021.85
966.1745	2385.5035	1895.95	1006.35
966.3051	2386.9027	1897.2	1008.75
966.4357	2388.3011	1892.5	998.8
966.5663	2389.6987	1883.25	989.65
966.6968	2391.0957	1881.8	991
966.8273	2392.492	1875	982.9
966.9578	2393.8876	1866.3	973.45
967.0882	2395.2824	1868.4	974.5
967.2186	2396.6765	1870.15	976.05
967.349	2398.07	1867.05	973.9
967.4793	2399.4627	1864.25	967.75
967.6097	2400.8547	1866.25	970.9
967.7399	2402.246	1857.7	958.6
967.8702	2403.6366	1852.35	959.3
968.0004	2405.0265	1845.1	953.5
968.1306	2406.4156	1846.65	952.25
968.2607	2407.8041	1852.5	956.75
968.3909	2409.1918	1847.55	953.15
968.521	2410.5789	1838.9	942.25
968.651	2411.9652	1841.95	945.75
968.781	2413.3508	1832.65	938.35
968.911	2414.7358	1833.2	941.65
969.041	2416.12	1827.6	933.95
969.1709	2417.5035	1821.95	930
969.3008	2418.8863	1820.4	925.35
969.4307	2420.2684	1831.05	935.95
969.5606	2421.6497	1816.75	920.1
969.6904	2423.0304	1812.1	919.85
969.8201	2424.4104	1807.8	913.5
969.9499	2425.7896	1820.7	923.2
970.0796	2427.1682	1801.3	909.8
970.2093	2428.546	1810.1	915.7
970.3389	2429.9232	1812.25	920.3
970.4685	2431.2996	1795.75	899.55
970.5981	2432.6753	1801.2	904.8
970.7277	2434.0503	1797	901.55
970.8572	2435.4246	1792.7	900.8
970.9867	2436.7982	1791.5	896.05
971.1161	2438.1711	1793.85	903
971.2456	2439.5433	1794.25	898.7
971.375	2440.9148	1785.65	885.45
971.5043	2442.2856	1778	885.3
971.6336	2443.6557	1765.9	870.8
971.7629	2445.025	1767.55	873.5
971.8922	2446.3937	1766.85	872.8
972.0214	2447.7617	1770.05	872.55
972.1506	2449.1289	1767.8	874.25
972.2798	2450.4955	1763.45	866.95
972.4089	2451.8613	1760.6	869.9
972.538	2453.2265	1760.6	866.85
972.6671	2454.5909	1765.15	871.15
972.7961	2455.9546	1759.9	866.45
972.9251	2457.3177	1749.15	856.35
973.0541	2458.68	1753.35	858.5
973.1831	2460.0416	1753.6	860.95
973.312	2461.4025	1752.95	858.1
973.4408	2462.7627	1751.95	847.4
973.5697	2464.1222	1737.4	847.35
973.6985	2465.4811	1741.1	847.95
973.8273	2466.8392	1732.65	842.5
973.956	2468.1966	1734.45	839.7
974.0847	2469.5533	1733.35	836.65
974.2134	2470.9093	1730.65	839.95
974.3421	2472.2645	1744.2	850.9
974.4707	2473.6191	1734.8	842.8
974.5993	2474.973	1724.75	833.65
974.7278	2476.3262	1723.35	829.7
974.8563	2477.6787	1728.3	836.35
974.9848	2479.0305	1715.45	821.15
975.1132	2480.3816	1713	817.75
975.2417	2481.7319	1709.85	816.8
975.37	2483.0816	1716.1	821.15
975.4984	2484.4306	1715.65	823.55
975.6267	2485.7789	1700.8	810.35
975.755	2487.1264	1702.8	810.65
975.8833	2488.4733	1702.2	812
976.0115	2489.8195	1706.35	807.25
976.1397	2491.165	1699.45	805.75
976.2678	2492.5097	1692.75	798.1
976.3959	2493.8538	1683.3	791.9
976.524	2495.1972	1680.25	787.75
976.6521	2496.5398	1687.7	792.6
976.7801	2497.8818	1687.1	790.25
976.9081	2499.2231	1686.1	793.4
977.036	2500.5637	1693.6	795.45
977.164	2501.9035	1685	791
977.2918	2503.2427	1682.1	784.25
977.4197	2504.5812	1674.6	781.05
977.5475	2505.919	1670.65	776.3
977.6753	2507.256	1669	774.85
977.8031	2508.5924	1667.4	775.55
977.9308	2509.9281	1666.85	769.35
978.0585	2511.2631	1661.2	766.7
978.1861	2512.5974	1658.1	768.05
978.3137	2513.9309	1655.7	763.8
978.4413	2515.2638	1675.8	755.55
978.5689	2516.596	1658.05	765.05
978.6964	2517.9275	1659.15	765.25
978.8239	2519.2583	1643.5	749.65
978.9513	2520.5884	1646.3	749.1
979.0788	2521.9178	1646	754.85
979.2062	2523.2465	1640.8	748.8
979.3335	2524.5745	1637	747.65
979.4608	2525.9018	1635.1	743.05
979.5881	2527.2284	1638.85	746.55
979.7154	2528.5543	1632.5	740.25
979.8426	2529.8796	1638.65	745.5
979.9698	2531.2041	1637.1	743.3
980.0969	2532.5279	1628.05	736.95
980.224	2533.851	1630.85	738.2
980.3511	2535.1735	1621.9	728.7
980.4781	2536.4952	1627.05	733.15
980.6052	2537.8163	1631.9	736.6
980.7321	2539.1366	1620.85	727.9
980.8591	2540.4562	1628.3	732.75
980.986	2541.7752	1626	731.5
981.1129	2543.0935	1617.65	721.6
981.2397	2544.411	1625.25	730.65
981.3665	2545.7279	1620.1	725.2
981.4933	2547.0441	1620.85	726.35
981.62	2548.3596	1626.6	730.3
981.7467	2549.6744	1611.75	718.35
981.8734	2550.9885	1620.3	724.65
982.0001	2552.3019	1613.3	720.35
982.1267	2553.6146	1609.6	713.85
982.2532	2554.9266	1611.7	719.3
982.3798	2556.2379	1608.2	714.15
982.5063	2557.5485	1609.65	716.8
982.6327	2558.8585	1615.15	713.95
982.7592	2560.1677	1606.4	707.45
982.8856	2561.4762	1601.3	707.15
983.0119	2562.7841	1597.05	700.95
983.1383	2564.0913	1591.35	699.95
983.2646	2565.3977	1604.15	709.4
983.3908	2566.7035	1602.65	710.05
983.517	2568.0086	1603.5	706.45
983.6432	2569.313	1589.95	694.9
983.7694	2570.6167	1590.45	690.9
983.8955	2571.9197	1588.4	696.9
984.0216	2573.222	1594.8	698.45
984.1476	2574.5236	1592.25	698.55
984.2737	2575.8246	1589.55	694
984.3996	2577.1248	1595.85	701.2
984.5256	2578.4244	1584.25	691.75
984.6515	2579.7232	1585.75	691.45
984.7774	2581.0214	1612.1	690.95
984.9032	2582.3189	1592.2	699.2
985.029	2583.6157	1590.8	693.1
985.1548	2584.9118	1585.05	690.35
985.2806	2586.2072	1582.35	690.05
985.4063	2587.5019	1583.75	690.7
985.5319	2588.7959	1581.35	687.2
985.6576	2590.0893	1579.75	682.15
985.7832	2591.3819	1582.9	689.4
985.9087	2592.6739	1583.2	693.15
986.0343	2593.9652	1582.45	687.6
986.1597	2595.2557	1582.2	688.25
986.2852	2596.5456	1578.3	681.2
986.4106	2597.8348	1577.65	684.7
986.536	2599.1234	1578.25	686.05
986.6614	2600.4112	1583.3	693.25
986.7867	2601.6983	1581.65	686.15
986.912	2602.9848	1583.65	690.3
987.0372	2604.2705	1586.35	687.75
987.1624	2605.5556	1577.3	685
987.2876	2606.84	1577	686.35
987.4128	2608.1237	1575.6	682.45
987.5379	2609.4067	1571.9	680.05
987.6629	2610.689	1575.35	675.75
987.788	2611.9707	1568.95	673.9
987.913	2613.2516	1564.6	668.7
988.0379	2614.5319	1562.4	669.55
988.1629	2615.8115	1558.65	666
988.2878	2617.0903	1557.1	664.75
988.4126	2618.3685	1546.25	657.35
988.5375	2619.6461	1552.7	662.7
988.6622	2620.9229	1546.15	658
988.787	2622.199	1540.05	648.95
988.9117	2623.4745	1539.1	647.55
989.0364	2624.7493	1544.2	652.8
989.161	2626.0234	1538.1	644.75
989.2857	2627.2968	1541.85	650.65
989.4102	2628.5695	1541.6	650.3
989.5348	2629.8415	1533.65	644.95
989.6593	2631.1128	1531.3	639.4
989.7837	2632.3835	1534.35	644.65
989.9082	2633.6535	1526.05	638.55
990.0326	2634.9228	1528	637.8
990.1569	2636.1914	1536.25	644.6
990.2812	2637.4593	1535.3	639.9
990.4055	2638.7265	1525.8	633.95
990.5298	2639.9931	1525.9	632.85
990.654	2641.259	1524.35	633.25
990.7782	2642.5242	1517.85	627.6
990.9023	2643.7887	1519.45	629.95
991.0264	2645.0525	1516.7	626.1
991.1505	2646.3156	1517.85	624.8
991.2745	2647.5781	1509.9	620.95
991.3985	2648.8398	1511.7	622.85
991.5225	2650.1009	1543.5	616
991.6464	2651.3613	1511.6	620.45
991.7703	2652.6211	1500.6	610.8
991.8942	2653.8801	1502	611.15
992.018	2655.1385	1513.55	620.7
992.1418	2656.3961	1502	611.65
992.2655	2657.6531	1498	606.25
992.3892	2658.9094	1504.6	616.3
992.5129	2660.1651	1496.25	607
992.6366	2661.42	1502.35	612.3
992.7602	2662.6743	1510.55	618
992.8837	2663.9279	1506.05	617.15
993.0073	2665.1808	1504.8	615.6
993.1307	2666.433	1510.15	618.05
993.2542	2667.6846	1503.75	614.95
993.3776	2668.9354	1514.6	621.3
993.501	2670.1856	1519	629.15
993.6244	2671.4351	1519.3	630.6
993.7477	2672.6839	1521.55	629.35
993.8709	2673.9321	1514.15	623.95
993.9942	2675.1795	1526.5	637.55
994.1174	2676.4263	1518.55	630.45
994.2405	2677.6724	1525	635.65
994.3637	2678.9179	1526.45	637.5
994.4868	2680.1626	1531.1	639.3
994.6098	2681.4067	1522.4	632.3
994.7328	2682.6501	1519.2	628.1
994.8558	2683.8928	1520.1	630
994.9788	2685.1348	1512.4	623.5
995.1017	2686.3761	1511.5	620.8
995.2245	2687.6168	1506.5	617.45
995.3474	2688.8568	1495.65	607.75
995.4702	2690.0961	1493	605.3
995.5929	2691.3348	1492.55	603.15
995.7156	2692.5727	1492.65	602.25
995.8383	2693.81	1491.4	601.05
995.961	2695.0466	1484.1	595.8
996.0836	2696.2826	1488.75	598.4
996.2062	2697.5178	1501.7	609.15
996.3287	2698.7524	1490.1	601.2
996.4512	2699.9863	1491.7	600.15
996.5737	2701.2195	1492.7	605.7
996.6961	2702.452	1506	616.4
996.8185	2703.6839	1503.05	611.05
996.9408	2704.9151	1503.85	615.55
997.0631	2706.1456	1507.35	619.4
997.1854	2707.3755	1511.85	622.2
997.3077	2708.6046	1517.1	624.35
997.4299	2709.8331	1530.7	640.75
997.552	2711.0609	1532.15	641.65
997.6742	2712.2881	1532.75	644.8
997.7963	2713.5145	1547.2	653.4
997.9183	2714.7403	1546.4	659.5
998.0403	2715.9654	1555.4	666.85
998.1623	2717.1899	1583.75	678.9
998.2842	2718.4136	1575.2	686.6
998.4062	2719.6367	1595.55	706.75
998.528	2720.8591	1601.9	705.8
998.6498	2722.0809	1610.45	719.5
998.7716	2723.3019	1624.3	731.9
998.8934	2724.5223	1632.4	741.75
999.0151	2725.7421	1633.55	743.05
999.1368	2726.9611	1635	744.15
999.2584	2728.1795	1635.35	741.7
999.38	2729.3972	1620.35	730.55
999.5016	2730.6142	1622.75	719.3
999.6231	2731.8306	1598.9	709.25
999.7446	2733.0462	1585.2	696.25
999.8661	2734.2612	1572.65	679.75
999.9875	2735.4756	1557.05	666.9
1000.1089	2736.6892	1538.1	649.9
1000.2302	2737.9022	1523.95	636.3
1000.3515	2739.1145	1516.4	627.35
1000.4728	2740.3262	1517	620.85
1000.594	2741.5372	1494.3	604.85
1000.7152	2742.7475	1490.3	601.7
1000.8363	2743.9571	1469.65	579.7
1000.9575	2745.1661	1471.9	579.2
1001.0785	2746.3744	1457.75	569.5
1001.1996	2747.582	1448.95	562.1
1001.3206	2748.7889	1444.95	553.45
1001.4415	2749.9952	1436.9	548.15
1001.5625	2751.2008	1428.05	540.65
1001.6833	2752.4057	1423.65	533.7
1001.8042	2753.61	1417.45	528.8
1001.925	2754.8136	1413.05	523.4
1002.0458	2756.0165	1416.5	527.75
1002.1665	2757.2188	1420.1	532
1002.2872	2758.4204	1411.2	523.6
1002.4078	2759.6213	1418	527.8
1002.5285	2760.8215	1417.35	525.95
1002.649	2762.0211	1416.2	527
1002.7696	2763.22	1411	519.05
1002.8901	2764.4182	1407.6	520.45
1003.0106	2765.6158	1412.7	524.85
1003.131	2766.8127	1393	505.3
1003.2514	2768.009	1411.3	525.8
1003.3717	2769.2045	1400.25	511.6
1003.492	2770.3994	1395.6	505.1
1003.6123	2771.5936	1394.4	505.05
1003.7325	2772.7872	1392.85	504.4
1003.8527	2773.9801	1381.55	493
1003.9729	2775.1723	1396.7	492
1004.093	2776.3639	1378.95	492.95
1004.2131	2777.5548	1384.15	495.8
1004.3331	2778.745	1385.7	497.6
1004.4531	2779.9346	1383.15	496.65
1004.5731	2781.1235	1384.05	496.1
1004.693	2782.3117	1386.05	497.7
1004.8129	2783.4992	1387.65	500.65
1004.9328	2784.6861	1387.25	500.8
1005.0526	2785.8723	1391.8	504.75
1005.1723	2787.0579	1394.95	507.25
1005.2921	2788.2428	1399.6	514.3
1005.4118	2789.427	1407.05	520.8
1005.5314	2790.6106	1410.75	524.65
1005.651	2791.7935	1410.35	521.75
1005.7706	2792.9757	1419.3	531.35
1005.8902	2794.1573	1438.05	548.7
1006.0097	2795.3382	1438.15	549.95
1006.1291	2796.5184	1445.8	562.15
1006.2485	2797.698	1458.2	569.05
1006.3679	2798.8769	1466.25	579.95
1006.4873	2800.0551	1475.6	587.2
1006.6066	2801.2327	1494	605.6
1006.7258	2802.4096	1504	618.4
1006.8451	2803.5859	1516.95	630.25
1006.9642	2804.7615	1534.2	646.25
1007.0834	2805.9364	1555.25	669.15
1007.2025	2807.1106	1573.9	689.2
1007.3216	2808.2842	1600.6	714.3
1007.4406	2809.4572	1622.1	734.95
1007.5596	2810.6294	1649.05	761.3
1007.6785	2811.801	1691.95	807.1
1007.7975	2812.972	1710.7	826.2
1007.9163	2814.1423	1754.35	869.4
1008.0352	2815.3119	1790.95	903.05
1008.154	2816.4808	1837.55	952.75
1008.2727	2817.6491	1890.35	1001.8
1008.3914	2818.8167	1938.85	1053.55
1008.5101	2819.9837	1999.4	1109.3
1008.6288	2821.15	2046.85	1161.05
1008.7474	2822.3157	2097.75	1211.6
1008.8659	2823.4807	2156.55	1271.55
1008.9844	2824.645	2214.4	1325.95
1009.1029	2825.8086	2268.75	1384.9
1009.2214	2826.9716	2315.55	1428.6
1009.3398	2828.134	2376.2	1490.8
1009.4581	2829.2957	2422.05	1535.75
1009.5764	2830.4567	2459.1	1574.5
1009.6947	2831.617	2481.45	1593.6
1009.813	2832.7767	2487.25	1601.7
1009.9312	2833.9358	2484.05	1600.85
1010.0493	2835.0941	2483.05	1596.05
1010.1675	2836.2519	2468.25	1584.9
1010.2855	2837.4089	2447.35	1561.35
1010.4036	2838.5653	2437.4	1552.25
1010.5216	2839.7211	2431.8	1549.6
1010.6396	2840.8761	2428	1539.95
1010.7575	2842.0306	2425.8	1541.9
1010.8754	2843.1843	2456.5	1570.35
1010.9932	2844.3374	2491.4	1608.55
1011.111	2845.4899	2526.85	1640.6
1011.2288	2846.6417	2577.9	1692.7
1011.3465	2847.7928	2636.6	1750.15
1011.4642	2848.9433	2703.7	1819.35
1011.5818	2850.0931	2750.4	1864.2
1011.6995	2851.2422	2816.1	1931.35
1011.817	2852.3907	2878.9	1993.8
1011.9345	2853.5385	2925.65	2039.25
1012.052	2854.6857	2998.7	2087.15
1012.1695	2855.8323	3017.25	2131.65
1012.2869	2856.9781	3064.8	2182.55
1012.4042	2858.1233	3122.85	2236.5
1012.5216	2859.2679	3161.4	2277.35
1012.6389	2860.4118	3219.5	2333.4
1012.7561	2861.555	3267.9	2379.5
1012.8733	2862.6976	3303	2416.45
1012.9905	2863.8395	3344.05	2458.25
1013.1076	2864.9808	3362.95	2477.5
1013.2247	2866.1214	3386.3	2503.85
1013.3417	2867.2614	3406.65	2522.05
1013.4587	2868.4007	3429	2545.35
1013.5757	2869.5393	3440.15	2552.05
1013.6926	2870.6773	3449.8	2561.65
1013.8095	2871.8146	3458	2570.05
1013.9263	2872.9513	3474.65	2585.55
1014.0431	2874.0874	3457.85	2571.1
1014.1599	2875.2227	3438.65	2551.3
1014.2766	2876.3574	3430.9	2547.15
1014.3933	2877.4915	3392.65	2509.6
1014.51	2878.6249	3381.45	2496.75
1014.6266	2879.7577	3340.95	2454.95
1014.7431	2880.8898	3345.65	2451.2
1014.8596	2882.0212	3305.95	2421.95
1014.9761	2883.152	3296.2	2413.35
1015.0925	2884.2821	3293.75	2410.1
1015.2089	2885.4116	3282.25	2401.05
1015.3253	2886.5405	3302.2	2418.35
1015.4416	2887.6686	3287.15	2402.45
1015.5579	2888.7962	3308.1	2425.6
1015.6741	2889.923	3318.7	2433.3
1015.7903	2891.0493	3320.9	2438.3
1015.9065	2892.1748	3324.85	2441.7
1016.0226	2893.2997	3324.7	2437.85
1016.1387	2894.424	3352.85	2470.75
1016.2547	2895.5476	3364.9	2480.2
1016.3707	2896.6706	3398.8	2516.35
1016.4866	2897.7929	3411.7	2526.95
1016.6025	2898.9145	3429.1	2545.8
1016.7184	2900.0355	3442.35	2557.95
1016.8342	2901.1559	3484.9	2601.95
1016.95	2902.2756	3519.15	2629.85
1017.0658	2903.3946	3551.85	2667.05
1017.1815	2904.513	3580.75	2694.6
1017.2971	2905.6308	3594.4	2712.05
1017.4127	2906.7479	3622.05	2738.5
1017.5283	2907.8643	3651.35	2767.7
1017.6439	2908.9801	3661.95	2778.75
1017.7594	2910.0953	3672.25	2787.75
1017.8748	2911.2098	3660.2	2773.85
1017.9902	2912.3236	3661.8	2768.75
1018.1056	2913.4368	3661.25	2774.3
1018.2209	2914.5494	3635.75	2752.75
1018.3362	2915.6613	3577.35	2689.05
1018.4515	2916.7725	3573.95	2689.3
1018.5667	2917.8831	3547.75	2664.35
1018.6819	2918.9931	3524.3	2636.4
1018.797	2920.1024	3494.95	2612
1018.9121	2921.211	3462.05	2577.15
1019.0271	2922.319	3443.35	2559.85
1019.1421	2923.4264	3426.7	2544.5
1019.2571	2924.5331	3425.9	2543.5
1019.372	2925.6391	3415.85	2535.7
1019.4869	2926.7445	3402.25	2519.65
1019.6017	2927.8493	3412.65	2529.4
1019.7165	2928.9534	3439.85	2557.7
1019.8313	2930.0569	3429.15	2544.4
1019.946	2931.1597	3413	2527.85
1020.0606	2932.2619	3438.15	2554.1
1020.1753	2933.3634	3439.1	2556.05
1020.2899	2934.4643	3440.15	2549.15
1020.4044	2935.5645	3429.7	2538.7
1020.5189	2936.6641	3406.05	2515.95
1020.6334	2937.763	3378	2496.65
1020.7478	2938.8613	3356.8	2474.3
1020.8622	2939.959	3304.45	2417.1
1020.9765	2941.056	3232	2350.8
1021.0908	2942.1523	3182.3	2298.95
1021.2051	2943.248	3105.15	2220.5
1021.3193	2944.3431	3010.6	2127.85
1021.4334	2945.4375	2916.85	2031.8
1021.5476	2946.5313	2820.85	1941.9
1021.6617	2947.6244	2709.7	1826.55
1021.7757	2948.7169	2618	1735.25
1021.8897	2949.8087	2535.4	1651.1
1022.0037	2950.8999	2446.7	1562.75
1022.1176	2951.9904	2375.15	1493
1022.2315	2953.0803	2304.35	1420.35
1022.3453	2954.1696	2251.65	1368
1022.4591	2955.2582	2198.95	1315.5
1022.5728	2956.3462	2155.65	1273.2
1022.6865	2957.4335	2122.9	1238.5
1022.8002	2958.5202	2088.55	1203.4
1022.9138	2959.6062	2052.75	1169
1023.0274	2960.6916	2034.95	1153.05
1023.141	2961.7764	2013.8	1131.4
1023.2545	2962.8605	1998.9	1115.1
1023.3679	2963.9439	1975.3	1095.05
1023.4813	2965.0267	1980.8	1094.95
1023.5947	2966.1089	1987.8	1083.3
1023.708	2967.1905	1958.25	1075.35
1023.8213	2968.2714	1953.35	1072.4
1023.9346	2969.3516	1953.3	1069.55
1024.0478	2970.4312	1959.9	1069.05
1024.1609	2971.5102	1963.65	1083.55
1024.274	2972.5885	1964.4	1082.4
1024.3871	2973.6662	1976.3	1089.85
1024.5002	2974.7432	1968.45	1088.4
1024.6132	2975.8196	1968.75	1085.25
1024.7261	2976.8954	1953.75	1073.05
1024.839	2977.9705	1950	1068.3
1024.9519	2979.045	1938.5	1053.2
1025.0647	2980.1188	1930.3	1049.7
1025.1775	2981.192	1910.7	1030.85
1025.2902	2982.2645	1891.7	1008.05
1025.4029	2983.3364	1877.15	996.3
1025.5156	2984.4077	1845.6	964.1
1025.6282	2985.4783	1821.1	934.15
1025.7407	2986.5483	1794.85	913.45
1025.8532	2987.6177	1759.35	879.45
1025.9657	2988.6864	1725.25	842.45
1026.0782	2989.7545	1695.1	813.45
1026.1906	2990.8219	1665.4	783.3
1026.3029	2991.8887	1630.85	747.7
1026.4152	2992.9548	1593.05	710.05
1026.5275	2994.0204	1579.25	697.45
1026.6397	2995.0852	1541.75	661.55
1026.7519	2996.1495	1518.05	633.05
1026.864	2997.2131	1492.8	611.2
1026.9761	2998.276	1463	583.75
1027.0882	2999.3383	1447.25	565.85
1027.2002	3000.4	1420.4	537.75
1027.3122	3001.4611	1413.7	532.85
1027.4241	3002.5215	1398.4	513.95
1027.536	3003.5812	1376.65	496
1027.6478	3004.6404	1367.55	487.55
1027.7596	3005.6989	1351.45	467.3
1027.8714	3006.7567	1338.7	457.65
1027.9831	3007.8139	1357.1	443.8
1028.0947	3008.8705	1326.05	444.45
1028.2064	3009.9264	1314.95	428.1
1028.3179	3010.9818	1302.3	419.5
1028.4295	3012.0364	1299.1	418.7
1028.541	3013.0905	1292.05	411.3
1028.6524	3014.1439	1290.05	405.85
1028.7638	3015.1966	1277.45	398.3
1028.8752	3016.2487	1281.45	399.9
1028.9865	3017.3002	1283.15	394.2
1029.0978	3018.3511	1269.85	391.15
1029.209	3019.4013	1267.6	385.75
1029.3202	3020.4509	1261.5	380.25
1029.4314	3021.4998	1265.05	385.6
1029.5425	3022.5481	1263.1	380.3
1029.6535	3023.5958	1264.3	382.65
1029.7645	3024.6428	1263.05	379.45
1029.8755	3025.6892	1263.45	384.45
1029.9864	3026.735	1260.25	378.95
1030.0973	3027.7802	1267.05	385.15
1030.2082	3028.8247	1256.95	377.95
1030.319	3029.8685	1260.1	377.15
1030.4297	3030.9118	1262.6	380.25
1030.5404	3031.9544	1262.7	382.9
1030.6511	3032.9963	1268.5	386.7
1030.7617	3034.0376	1268.3	386.8
1030.8723	3035.0783	1274.75	389.7
1030.9829	3036.1184	1270.8	387.9
1031.0934	3037.1578	1274.85	394.2
1031.2038	3038.1966	1283.35	400.55
1031.3142	3039.2348	1271.4	392.5
1031.4246	3040.2723	1278.1	388.15
1031.5349	3041.3092	1276.75	398.3
1031.6452	3042.3455	1272.3	391.15
1031.7554	3043.3811	1275.3	393.2
1031.8656	3044.4161	1272.05	390.4
1031.9758	3045.4505	1268.55	387.15
1032.0859	3046.4842	1268.3	386.3
1032.1959	3047.5173	1262.5	381.8
1032.3059	3048.5498	1266.6	383.7
1032.4159	3049.5816	1269.9	389.55
1032.5258	3050.6128	1260.65	377.55
1032.6357	3051.6434	1252.35	370.3
1032.7455	3052.6734	1254.55	373.15
1032.8553	3053.7027	1249.35	370.5
1032.9651	3054.7314	1242.25	361.85
1033.0748	3055.7594	1237.35	356.75
1033.1845	3056.7868	1241.55	361.25
1033.2941	3057.8136	1243.05	362.7
1033.4037	3058.8398	1234.75	353.95
1033.5132	3059.8653	1231.05	351.3
1033.6227	3060.8902	1227.85	347.6
1033.7321	3061.9145	1230.95	349.8
1033.8415	3062.9381	1223.3	343.6
1033.9509	3063.9612	1240.5	341.1
1034.0602	3064.9835	1220.6	338.75
1034.1694	3066.0053	1222.5	340.3
1034.2787	3067.0264	1212.15	332.75
1034.3878	3068.0469	1215.15	334.2
1034.497	3069.0668	1205.05	321.45
1034.6061	3070.086	1195.35	316.45
1034.7151	3071.1046	1189.25	308.55
1034.8241	3072.1226	1191.95	310.35
1034.9331	3073.1399	1185.95	305.75
1035.042	3074.1567	1179.45	298.85
1035.1508	3075.1727	1173.6	291.5
1035.2597	3076.1882	1171.6	290.25
1035.3684	3077.203	1158.4	278.95
1035.4772	3078.2173	1155.2	272.8
1035.5859	3079.2308	1148.35	264.3
1035.6945	3080.2438	1144.95	263.05
1035.8031	3081.2561	1126.05	245.65
1035.9117	3082.2678	1130.5	249.5
1036.0202	3083.2789	1123.35	246.1
1036.1286	3084.2893	1114	233.2
1036.2371	3085.2991	1108.3	228.3
1036.3454	3086.3083	1111.6	226.75
1036.4538	3087.3169	1101.1	219.05
1036.562	3088.3248	1093.7	212
1036.6703	3089.3321	1094.7	213.4
1036.7785	3090.3388	1088.05	208.05
1036.8866	3091.3449	1084.7	204.85
1036.9948	3092.3503	1084.95	202.5
1037.1028	3093.3551	1074.35	197.8
1037.2108	3094.3593	1078.55	198.4
1037.3188	3095.3629	1072.4	193.75
1037.4267	3096.3658	1071.6	190.15
1037.5346	3097.3681	1073.95	192.65
1037.6425	3098.3698	1062.85	179.9
1037.7503	3099.3708	1069.45	184.2
1037.858	3100.3713	1056.5	177.45
1037.9657	3101.3711	1057.15	176.85
1038.0734	3102.3702	1171.9	174.85
1038.181	3103.3688	1052.4	171.1
1038.2886	3104.3667	1050.8	172.4
1038.3961	3105.364	1051.1	170.95
1038.5036	3106.3607	1045.75	165.25
1038.611	3107.3568	1046.8	165.1
1038.7184	3108.3522	1044.45	165
1038.8257	3109.347	1041.05	159.85
1038.933	3110.3412	1049.5	163.45
1039.0403	3111.3348	1036.2	157.75
1039.1475	3112.3277	1031.75	152.1
1039.2547	3113.32	1029.3	153.05
1039.3618	3114.3117	1032.05	152.15
1039.4689	3115.3028	1031.95	152.15
1039.5759	3116.2932	1031.25	150.65
1039.6829	3117.2831	1031.8	147.6
1039.7898	3118.2723	1023.5	145.15
1039.8967	3119.2608	1024	144.55
1040.0035	3120.2488	1022.3	141.5
1040.1103	3121.2361	1019.65	140.55
1040.2171	3122.2229	1016.35	137.05
1040.3238	3123.209	1018.05	138.15
1040.4305	3124.1944	1013.75	135.5
1040.5371	3125.1793	1015.05	134.65
1040.6437	3126.1635	1014.5	136.6
1040.7502	3127.1471	1010.5	131.25
1040.8567	3128.1301	1010.05	128.1
1040.9631	3129.1125	1007	128.05
1041.0695	3130.0942	1009	127.95
1041.1759	3131.0753	1017.2	127.25
1041.2822	3132.0558	1012	128.2
1041.3884	3133.0357	1008.6	127.6
1041.4946	3134.015	1006.85	126.5
1041.6008	3134.9936	1004.85	124.8
1041.7069	3135.9716	1019.7	123.7
1041.813	3136.949	1002.55	122.7
1041.919	3137.9258	1016.5	118.25
1042.025	3138.902	1007.55	123.5
1042.1309	3139.8775	996	115.85
1042.2368	3140.8524	997.25	119.45
1042.3427	3141.8267	998.35	115.35
1042.4485	3142.8004	995.7	116.2
1042.5542	3143.7735	1000.5	115.25
1042.6599	3144.7459	998.15	116.15
1042.7656	3145.7178	993.15	113.3
1042.8712	3146.689	989.2	109.6
1042.9768	3147.6596	990.05	106.75
1043.0823	3148.6295	988.35	108.7
1043.1878	3149.5989	986.45	107.6
1043.2932	3150.5676	990.25	111.05
1043.3986	3151.5357	983.95	105.65
1043.5039	3152.5032	989.45	109.65
1043.6092	3153.4701	984.5	106.35
1043.7145	3154.4364	984.65	102.5
1043.8197	3155.402	979.7	101.65
1043.9248	3156.367	985.5	105.35
1044.03	3157.3315	1018.55	103
1044.135	3158.2952	983.15	105.95
1044.24	3159.2584	980.45	99.25
1044.345	3160.221	983.6	104.35
1044.4499	3161.1829	980.3	100.35
1044.5548	3162.1442	976.8	98.4
1044.6596	3163.105	976.55	97.7
1044.7644	3164.065	977.45	99.55
1044.8692	3165.0245	977.2	95.75
1044.9739	3165.9834	973.1	93.65
1045.0785	3166.9416	974.7	97.85
1045.1831	3167.8993	975.7	96.95
1045.2877	3168.8563	972.85	91.95
1045.3922	3169.8127	972.95	92.8
1045.4966	3170.7684	970.95	92.55
1045.6011	3171.7236	975.6	95.25
1045.7054	3172.6782	971.6	91.85
1045.8098	3173.6321	973.65	94.7
1045.914	3174.5854	972.7	89.45
1046.0183	3175.5381	972	95.5
1046.1224	3176.4902	969.45	91.15
1046.2266	3177.4417	966.2	88.8
1046.3307	3178.3926	966.8	89.2
1046.4347	3179.3428	965.5	86.55
1046.5387	3180.2924	969.8	92.35
1046.6427	3181.2415	965.45	83.9
1046.7466	3182.1899	964.45	86.2
1046.8504	3183.1377	964.7	87.3
1046.9542	3184.0848	968.3	86.6
1047.058	3185.0314	961.95	83.4
1047.1617	3185.9773	962.65	81.05
1047.2654	3186.9227	960.95	82.65
1047.369	3187.8674	964.55	86.3
1047.4726	3188.8115	968.6	83.95
1047.5761	3189.755	963.8	84.75
1047.6796	3190.6979	960.3	79.95
1047.783	3191.6402	958.85	80.4
1047.8864	3192.5818	958.05	78.15
1047.9898	3193.5229	960.35	75.35
1048.0931	3194.4633	960.05	83.4
1048.1963	3195.4031	957.55	77.05
1048.2995	3196.3423	955.6	76.25
1048.4027	3197.2809	958.5	78.2
1048.5058	3198.2189	957.15	78.45
1048.6089	3199.1563	971.65	75.9
1048.7119	3200.0931	953.7	75
1048.8148	3201.0292	956.1	80.9
1048.9178	3201.9648	956.75	78.85
1049.0206	3202.8997	957.5	76.35
1049.1235	3203.834	951.9	73.75
1049.2262	3204.7677	953.15	74.95
1049.329	3205.7008	952.05	70.45
1049.4317	3206.6333	950	72.65
1049.5343	3207.5652	954.3	69.25
1049.6369	3208.4964	953	76.1
1049.7394	3209.4271	950.1	71.2
1049.8419	3210.3571	952.2	76
1049.9444	3211.2865	950.7	72.4
1050.0468	3212.2154	950.85	70.4
1050.1491	3213.1436	955.1	76.25
1050.2514	3214.0712	956.5	72.45
1050.3537	3214.9982	948.5	69.05
1050.4559	3215.9246	949.15	70.1
1050.5581	3216.8503	949.05	70.95
1050.6602	3217.7755	946.3	69.25
1050.7623	3218.7001	946.6	67.75
1050.8643	3219.624	946.9	67.4
1050.9663	3220.5473	944.3	67.9
1051.0682	3221.4701	946.8	66.5
1051.1701	3222.3922	946.7	68.1
1051.2719	3223.3137	946.15	66.75
1051.3737	3224.2346	944.35	64.4
1051.4754	3225.1549	940.85	63.45
1051.5771	3226.0746	942.15	62.5
1051.6788	3226.9937	942.05	62.65
1051.7804	3227.9121	942.6	64.25
1051.8819	3228.83	940.75	64.95
1051.9834	3229.7473	945.3	68.8
1052.0849	3230.6639	943.75	63.4
1052.1863	3231.5799	940.85	61.6
1052.2876	3232.4954	943.75	65.05
1052.3889	3233.4102	937.6	60
1052.4902	3234.3244	939.1	61.45
1052.5914	3235.238	936.9	57.8
1052.6926	3236.151	961.1	58.5
1052.7937	3237.0634	937.25	59.9
1052.8948	3237.9752	937.4	60.15
1052.9958	3238.8864	939.75	62.9
1053.0968	3239.797	935.15	58.15
1053.1977	3240.7069	939.45	60.9
1053.2986	3241.6163	937.3	57.45
1053.3994	3242.5251	936.1	57
1053.5002	3243.4332	933.8	56.8
1053.6009	3244.3408	935.7	56.1
1053.7016	3245.2477	936.8	61.45
1053.8022	3246.154	934.7	56
1053.9028	3247.0598	936.15	57.35
1054.0034	3247.9649	936.6	59.2
1054.1039	3248.8694	931.1	53.05
1054.2043	3249.7733	932.5	55.3
1054.3047	3250.6766	931.7	52.95
1054.4051	3251.5793	930.75	50.55
1054.5054	3252.4814	931.2	52.6
1054.6056	3253.3829	930.45	52.05
1054.7058	3254.2838	929.2	51.45
1054.806	3255.1841	928.7	52.2
1054.9061	3256.0838	929.5	53.05
1055.0061	3256.9829	930.2	52.25
1055.1062	3257.8814	931.1	49.1
1055.2061	3258.7792	930.8	52.25
1055.306	3259.6765	931.75	53.35
1055.4059	3260.5731	926.3	46.05
1055.5057	3261.4692	926.65	49.2
1055.6055	3262.3647	924.65	46
1055.7052	3263.2595	924.15	44.95
1055.8049	3264.1538	924.2	48
1055.9045	3265.0474	926.6	48
1056.0041	3265.9404	923.65	46.95
1056.1036	3266.8329	923.55	47.65
1056.2031	3267.7247	930.45	42.2
1056.3025	3268.616	918.8	44.8
1056.4019	3269.5066	918.25	40.85
1056.5013	3270.3966	916.8	38.95
1056.6005	3271.286	915.9	38.75
