Software Version:	3.9.2.0
Unit SN:	10000200
Spectrometer SN:	6960
Date:	3/8/2024 12:25:51 PM
Data Line Index:	25
Spectral Points:	2048
Integration time (ms):	125
Averages:	20
Delay (ms):	30000
Sequence Number:	1
Processing:	dark subtract
Laser Power (mW):	305
Laser Current (mA):	821
Laser Diode Temp (C):	25
Laser Case Temp (C):	26
System Temp (C):	25.9
Spectrometer Temp (C):	23.8
CCD Temp (C):	0.002
Secondary Temp (C):	20.01
Heatsink Temp (C):	21.157
CCDPCB Temp (C):	36.24
SecondaryPCB Temp (C):	29.671

Wavelength	RamanShift	Raw Counts	Dark Subtracted
787.061	30.1047	418.8	8.75
787.2016	32.3739	418.95	11.95
787.3422	34.6426	420.55	11.9
787.4828	36.9109	423.6	12.55
787.6235	39.1787	429.15	13.75
787.7642	41.4461	434.85	15.65
787.9049	43.7131	440.6	17.75
788.0456	45.9796	441.7	16.4
788.1863	48.2456	447.65	20.15
788.3271	50.5112	452.8	21
788.4679	52.7764	455.25	19.35
788.6087	55.0411	463.25	23.8
788.7496	57.3054	472.05	24.8
788.8904	59.5692	475.4	29.6
789.0313	61.8326	479.75	30.55
789.1722	64.0955	483.6	29.2
789.3132	66.3579	493.35	34.9
789.4541	68.6199	500.3	37.8
789.5951	70.8815	515.35	48.8
789.7361	73.1426	547.85	77
789.8771	75.4032	606.2	131.7
790.0181	77.6634	751.4	271.6
790.1592	79.9231	1098.2	611.3
790.3003	82.1824	1822.2	1321.85
790.4414	84.4412	3002.95	2474.8
790.5825	86.6995	4593.3	4033.5
790.7237	88.9574	6097.6	5510.2
790.8648	91.2148	7135.35	6527.1
791.006	93.4717	7596.9	6978.55
791.1472	95.7282	7651.95	7027.05
791.2885	97.9842	7553.55	6923.85
791.4297	100.2398	7358.3	6726.3
791.571	102.4949	7134.55	6498.85
791.7123	104.7495	6897.7	6257.4
791.8536	107.0036	6661.2	6025.25
791.9949	109.2573	6420.4	5785.05
792.1363	111.5105	6231.55	5591.05
792.2777	113.7632	6034.65	5392.6
792.4191	116.0154	5884.25	5231.5
792.5605	118.2672	5772.85	5123.4
792.7019	120.5185	5629	4977.85
792.8434	122.7693	5546.1	4894
792.9849	125.0197	5485.95	4828.55
793.1264	127.2696	5403.3	4745.35
793.2679	129.519	5358.5	4692.15
793.4094	131.7679	5262.4	4597
793.551	134.0163	5189.9	4516.5
793.6926	136.2642	5092.95	4420.55
793.8342	138.5117	5015.6	4333.75
793.9758	140.7587	4918.2	4245.55
794.1175	143.0052	4825.4	4141.6
794.2591	145.2512	4713.95	4034.65
794.4008	147.4967	4637.75	3958.25
794.5425	149.7417	4553.45	3867
794.6842	151.9863	4510.15	3822.9
794.826	154.2304	4499.15	3805.55
794.9677	156.4739	4448.3	3749.05
795.1095	158.717	4416.4	3718.6
795.2513	160.9596	4405	3696.8
795.3931	163.2017	4344.1	3637.5
795.535	165.4433	4296.05	3590.75
795.6768	167.6844	4200.3	3486.95
795.8187	169.925	4131.05	3422.1
795.9606	172.1651	4033.15	3323.95
796.1025	174.4047	3963.95	3244.45
796.2445	176.6439	3910.2	3193.3
796.3864	178.8825	3859.4	3140.4
796.5284	181.1206	3829.8	3103.05
796.6704	183.3582	3807.2	3072.45
796.8124	185.5954	3779.1	3048.15
796.9544	187.832	3777.05	3043.65
797.0965	190.0681	3776.1	3041.15
797.2386	192.3037	3786.5	3044.1
797.3806	194.5388	3781.4	3034
797.5228	196.7734	3793.05	3048.45
797.6649	199.0075	3810.25	3065.55
797.807	201.2411	3847.8	3099.45
797.9492	203.4742	3868.1	3117.4
798.0914	205.7068	3892.3	3135.9
798.2336	207.9389	3922.6	3166.1
798.3758	210.1704	3981	3233.65
798.518	212.4015	3984.05	3243.25
798.6603	214.632	4022.65	3290.95
798.8025	216.862	4027.55	3297
798.9448	219.0915	4066.7	3332.65
799.0871	221.3205	4073.85	3336.2
799.2294	223.549	4083.55	3354.35
799.3718	225.777	4097.05	3360.45
799.5141	228.0044	4113.3	3370.6
799.6565	230.2314	4120.75	3379.3
799.7989	232.4578	4129.75	3382.85
799.9413	234.6837	4128.95	3378.25
800.0837	236.909	4161.2	3406.6
800.2262	239.1339	4163.6	3381.85
800.3687	241.3582	4149.45	3380.6
800.5111	243.582	4145.55	3348.6
800.6536	245.8053	4129.65	3344.75
800.7961	248.0281	4137.45	3364.9
800.9387	250.2503	4145.5	3364.7
801.0812	252.472	4162.7	3379.2
801.2238	254.6932	4195.65	3413.65
801.3664	256.9139	4230.15	3447.35
801.509	259.134	4298.5	3508.35
801.6516	261.3536	4361.85	3577.85
801.7942	263.5727	4460.2	3673.25
801.9369	265.7912	4533.9	3747
802.0795	268.0092	4623.3	3839.15
802.2222	270.2267	4694.75	3903.4
802.3649	272.4436	4749.1	3959.45
802.5076	274.6601	4772.25	3973.7
802.6504	276.8759	4748.3	3956.55
802.7931	279.0913	4747.75	3952.4
802.9359	281.3061	4721.35	3923
803.0787	283.5204	4716.05	3911.3
803.2215	285.7341	4717.5	3914.85
803.3643	287.9473	4720.75	3915.85
803.5071	290.16	4720.7	3915.2
803.6499	292.3721	4710.1	3909.8
803.7928	294.5837	4733.15	3929.4
803.9357	296.7947	4778.35	3975.55
804.0786	299.0052	4799.55	3996.05
804.2215	301.2152	4797	3990.95
804.3644	303.4246	4773.7	3971.2
804.5074	305.6334	4710.45	3909.75
804.6503	307.8418	4632.15	3822.9
804.7933	310.0495	4538.05	3730.35
804.9363	312.2568	4442.8	3633.8
805.0793	314.4635	4329.4	3518.45
805.2223	316.6696	4218.85	3406.65
805.3653	318.8752	4162.6	3341.75
805.5084	321.0802	4125.65	3308.6
805.6514	323.2847	4137.6	3322.8
805.7945	325.4887	4136.6	3320.45
805.9376	327.692	4147.7	3330.8
806.0807	329.8949	4156.55	3332.5
806.2238	332.0972	4119.9	3299.65
806.367	334.2989	4085.1	3257.1
806.5101	336.5001	4035.45	3205.65
806.6533	338.7007	3979.45	3153.55
806.7965	340.9008	3939.65	3112.55
806.9397	343.1003	3875.9	3045.75
807.0829	345.2992	3832.45	3003.35
807.2261	347.4976	3796.7	2964.45
807.3693	349.6955	3774	2942.05
807.5126	351.8927	3773.65	2937.9
807.6559	354.0895	3747.65	2900.55
807.7991	356.2856	3719.75	2878.45
807.9424	358.4812	3702.15	2864.3
808.0857	360.6763	3707.45	2867.1
808.2291	362.8707	3694.8	2848.35
808.3724	365.0646	3722.25	2883.55
808.5158	367.258	3733.1	2888.8
808.6591	369.4508	3748.15	2898.2
808.8025	371.643	3801.7	2954.85
808.9459	373.8346	3833.25	2984.25
809.0893	376.0257	3858.35	3005.15
809.2327	378.2162	3870.4	3019.5
809.3762	380.4062	3880.65	3032.05
809.5196	382.5956	3848.15	2999.65
809.6631	384.7844	3820.7	2977.8
809.8066	386.9726	3769.25	2926.95
809.9501	389.1603	3731.3	2887.95
810.0936	391.3474	3741.55	2854.85
810.2371	393.5339	3712.7	2866.2
810.3806	395.7199	3721.05	2876.2
810.5241	397.9052	3750.45	2907.8
810.6677	400.09	3759.85	2916.75
810.8113	402.2743	3820.25	2974.05
810.9548	404.4579	3872.8	3025.7
811.0984	406.641	3930.4	3085.15
811.2421	408.8235	3989	3139.75
811.3857	411.0054	4041.15	3192.15
811.5293	413.1868	4109	3249.55
811.673	415.3675	4138.15	3282.4
811.8166	417.5477	4106.7	3250.35
811.9603	419.7273	4059.7	3199.3
812.104	421.9064	3996.35	3131.15
812.2477	424.0848	3976.55	3119.5
812.3914	426.2627	3914.85	3052.4
812.5351	428.4399	3861.5	3000.05
812.6788	430.6166	3773.7	2908.4
812.8226	432.7928	3686.75	2821.15
812.9663	434.9683	3613.5	2748.65
813.1101	437.1432	3562.2	2698.85
813.2539	439.3176	3525.25	2663.65
813.3977	441.4914	3479.35	2621.65
813.5415	443.6645	3491.7	2630.95
813.6853	445.8371	3473.4	2609.75
813.8291	448.0091	3485.35	2621.1
813.973	450.1806	3455.9	2594.2
814.1168	452.3514	3443.65	2581.35
814.2607	454.5216	3473.45	2603.55
814.4046	456.6913	3460.8	2595.15
814.5485	458.8603	3475.65	2612.3
814.6924	461.0288	3478.05	2616.25
814.8363	463.1967	3477.05	2615.65
814.9802	465.3639	3494.15	2628.45
815.1241	467.5306	3468.8	2607.5
815.2681	469.6967	3453.05	2594.5
815.412	471.8622	3445.9	2587.85
815.556	474.0271	3450.95	2590.5
815.7	476.1914	3474.5	2606.3
815.844	478.3551	3475	2607.75
815.988	480.5182	3477.5	2609.45
816.132	482.6807	3490.25	2629.75
816.276	484.8426	3552.7	2697.15
816.4201	487.0039	3627.25	2765.4
816.5641	489.1647	3728.2	2864.35
816.7082	491.3248	3813	2943
816.8522	493.4843	3838.2	2972.8
816.9963	495.6432	3824.3	2958.7
817.1404	497.8015	3774.8	2900.7
817.2845	499.9592	3752.35	2877.15
817.4286	502.1163	3681.5	2803.6
817.5727	504.2728	3598.85	2727.65
817.7168	506.4287	3526.5	2663.65
817.861	508.5839	3456.3	2588.3
818.0051	510.7386	3423.8	2552.6
818.1493	512.8927	3405.3	2531.05
818.2935	515.0461	3431.1	2556.85
818.4377	517.199	3455.65	2579.8
818.5818	519.3512	3498.4	2618.5
818.726	521.5029	3595.3	2713.65
818.8703	523.6539	3662.2	2787.25
819.0145	525.8043	3687.8	2805.85
819.1587	527.9541	3652.6	2770.65
819.303	530.1033	3594.75	2716.8
819.4472	532.2519	3529.95	2648.75
819.5915	534.3999	3508.9	2629.7
819.7357	536.5472	3504.9	2625.5
819.88	538.694	3538.8	2660.35
820.0243	540.8401	3590.05	2704.35
820.1686	542.9856	3627.85	2739.4
820.3129	545.1305	3631.75	2737.4
820.4572	547.2748	3640.1	2747.2
820.6016	549.4185	3605.95	2708.15
820.7459	551.5615	3599.65	2704.35
820.8902	553.704	3601.1	2705.5
821.0346	555.8458	3615.65	2728
821.1789	557.987	3669.95	2782.9
821.3233	560.1276	3732.85	2842.95
821.4677	562.2675	3854.35	2961.65
821.6121	564.4069	3995.05	3101.9
821.7565	566.5456	4126.8	3237.75
821.9009	568.6837	4155	3266.05
822.0453	570.8212	4046.35	3161.3
822.1897	572.958	3898.05	3014.8
822.3342	575.0942	3717.75	2832.75
822.4786	577.2299	3615.9	2730.75
822.6231	579.3648	3522.65	2646.75
822.7675	581.4992	3505.3	2638.05
822.912	583.6329	3503.45	2633
823.0565	585.766	3554.15	2680.6
823.201	587.8985	3617.35	2741.2
823.3454	590.0304	3661.65	2751.65
823.4899	592.1616	3647.7	2756.45
823.6345	594.2922	3621.7	2730.3
823.779	596.4222	3573.35	2677.75
823.9235	598.5515	3501.15	2604.5
824.068	600.6802	3453.4	2558.25
824.2126	602.8083	3411.4	2517.25
824.3571	604.9358	3412.95	2516.5
824.5017	607.0626	3407.5	2510.25
824.6462	609.1888	3438.35	2535.1
824.7908	611.3144	3492.3	2589.45
824.9354	613.4393	3546.4	2646.6
825.08	615.5636	3595	2694.6
825.2246	617.6873	3621	2720.25
825.3692	619.8103	3617.6	2713.1
825.5138	621.9327	3577.6	2679.25
825.6584	624.0544	3491.9	2599.55
825.803	626.1756	3433.25	2537.95
825.9477	628.2961	3396.5	2497.05
826.0923	630.4159	3357.25	2453.2
826.237	632.5351	3366.05	2464.2
826.3816	634.6537	3370.5	2467.4
826.5263	636.7716	3356.8	2451.6
826.6709	638.8889	3357.85	2452.05
826.8156	641.0056	3372.3	2462.3
826.9603	643.1216	3362.75	2454.05
827.105	645.237	3353.85	2451.45
827.2497	647.3518	3315.65	2416.4
827.3944	649.4659	3288.7	2393.35
827.5391	651.5793	3280.05	2382.1
827.6838	653.6922	3266.6	2365.2
827.8285	655.8043	3252.6	2350.75
827.9733	657.9159	3250.9	2351.2
828.118	660.0268	3273.7	2371.45
828.2627	662.137	3259.8	2356.6
828.4075	664.2466	3266	2359.85
828.5522	666.3556	3258.05	2351.35
828.697	668.4639	3251.6	2344.85
828.8418	670.5716	3236.15	2338.4
828.9865	672.6786	3218.95	2317.6
829.1313	674.785	3196	2286.25
829.2761	676.8907	3198.45	2292.8
829.4209	678.9958	3205.25	2303
829.5657	681.1002	3190.9	2285.45
829.7105	683.204	3198	2284.8
829.8553	685.3072	3186.75	2272.95
830.0001	687.4097	3163.5	2258.1
830.1449	689.5115	3187.6	2276.2
830.2898	691.6127	3184.9	2278.1
830.4346	693.7132	3176.3	2269.95
830.5794	695.8131	3199.75	2269.1
830.7243	697.9123	3210.85	2295.5
830.8691	700.0109	3208.2	2292.75
831.014	702.1089	3218.75	2308.2
831.1588	704.2061	3236.15	2324.35
831.3037	706.3028	3270.3	2355.15
831.4486	708.3987	3270.85	2356.65
831.5935	710.4941	3283.9	2370.9
831.7383	712.5887	3282.3	2371.6
831.8832	714.6827	3290	2374.8
832.0281	716.7761	3293.4	2384.6
832.173	718.8688	3329.4	2419.65
832.3179	720.9608	3360.4	2444.9
832.4628	723.0522	3407.55	2484.4
832.6077	725.1429	3439.55	2522.15
832.7527	727.233	3474.65	2561.1
832.8976	729.3224	3526.45	2610.7
833.0425	731.4112	3526.7	2611.8
833.1874	733.4993	3507.7	2591.8
833.3324	735.5867	3439.95	2520.8
833.4773	737.6735	3374.2	2456.9
833.6222	739.7596	3316.8	2396.6
833.7672	741.845	3285.9	2368.95
833.9122	743.9298	3264.35	2348.95
834.0571	746.014	3263.3	2347.6
834.2021	748.0974	3253.95	2331.3
834.347	750.1802	3243.75	2323.7
834.492	752.2624	3255.8	2336.9
834.637	754.3439	3252.85	2330.55
834.782	756.4247	3286.75	2361
834.9269	758.5048	3305.7	2386.15
835.0719	760.5843	3372.45	2448.75
835.2169	762.6631	3465.65	2542.45
835.3619	764.7413	3600.4	2680
835.5069	766.8188	3782.95	2862.55
835.6519	768.8956	3943.4	3020
835.7969	770.9718	4045.6	3124.25
835.9419	773.0473	4053.55	3131.95
836.0869	775.1221	3993.2	3071.6
836.232	777.1962	3934	3013.05
836.377	779.2697	3950.3	3027.3
836.522	781.3426	3984.85	3054.1
836.667	783.4147	4031.65	3108.95
836.8121	785.4862	3998	3073.65
836.9571	787.557	3922.4	3000.6
837.1021	789.6271	3789.15	2869.15
837.2472	791.6966	3606.95	2680.3
837.3922	793.7654	3461.35	2534.9
837.5373	795.8335	3339.8	2417.1
837.6823	797.901	3263.85	2341.8
837.8274	799.9678	3224.3	2298.15
837.9724	802.0339	3198.25	2271.85
838.1175	804.0993	3193.55	2258.35
838.2626	806.1641	3185.4	2258.85
838.4076	808.2282	3151.85	2229.55
838.5527	810.2916	3143.6	2218.9
838.6978	812.3544	3113.9	2187.15
838.8428	814.4164	3107.45	2185.3
838.9879	816.4778	3118.35	2188.8
839.133	818.5385	3136	2210.65
839.2781	820.5986	3186.7	2261.05
839.4232	822.658	3259.65	2330.25
839.5682	824.7166	3340.6	2416.05
839.7133	826.7747	3498.1	2571
839.8584	828.832	3653.85	2728.7
840.0035	830.8886	3770.3	2842.1
840.1486	832.9446	3807.05	2876.4
840.2937	834.9999	3753.9	2827.5
840.4388	837.0545	3650.35	2721.65
840.5839	839.1085	3539.5	2611.95
840.729	841.1618	3452	2522.1
840.8741	843.2143	3362.1	2432.6
841.0192	845.2662	3295.15	2365.15
841.1643	847.3175	3267.45	2338.4
841.3095	849.368	3226.8	2296.85
841.4546	851.4179	3228.95	2299.05
841.5997	853.467	3203.35	2271.95
841.7448	855.5155	3203.55	2275.3
841.8899	857.5633	3176.35	2247.75
842.0351	859.6105	3167	2239.05
842.1802	861.6569	3140.6	2213.15
842.3253	863.7027	3120.3	2188.05
842.4704	865.7478	3109.5	2176.7
842.6156	867.7922	3098.6	2168.5
842.7607	869.8359	3084.6	2154.55
842.9058	871.8789	3083.5	2153.15
843.0509	873.9212	3113.85	2149.7
843.1961	875.9629	3107.4	2177.45
843.3412	878.0039	3147.45	2215.7
843.4863	880.0441	3160.1	2232.15
843.6315	882.0837	3183.55	2254.6
843.7766	884.1226	3196.05	2266.5
843.9218	886.1609	3229	2298.05
844.0669	888.1984	3282	2353.95
844.212	890.2352	3324.85	2393.2
844.3572	892.2714	3342.7	2406.8
844.5023	894.3069	3325.95	2396.3
844.6475	896.3416	3259.1	2325.2
844.7926	898.3757	3213.5	2284.25
844.9377	900.4091	3173.55	2239.25
845.0829	902.4418	3177.65	2238.5
845.228	904.4739	3190.75	2257.25
845.3732	906.5052	3205.85	2274.15
845.5183	908.5358	3205.35	2269.45
845.6635	910.5658	3171.15	2232.5
845.8086	912.595	3111.3	2176.3
845.9538	914.6236	3043.9	2109.95
846.0989	916.6515	2999.35	2063.25
846.2441	918.6786	2984.95	2050.4
846.3892	920.7051	2972.15	2037.95
846.5344	922.7309	2979.45	2045.95
846.6795	924.756	2978.3	2048.1
846.8246	926.7804	2999.8	2063.05
846.9698	928.8041	2998.4	2064.7
847.1149	930.8272	3040.4	2106.25
847.2601	932.8495	3023.3	2088.4
847.4052	934.8711	3031.05	2095.3
847.5504	936.892	3034.8	2101.15
847.6955	938.9123	3033.95	2097.85
847.8407	940.9318	3059.6	2125.15
847.9858	942.9506	3063.1	2127.3
848.131	944.9688	3051.85	2117.4
848.2761	946.9862	3019	2084.8
848.4213	949.003	2969.9	2033.85
848.5664	951.019	2937.75	2002.4
848.7115	953.0344	2914.75	1977.3
848.8567	955.0491	2902.1	1967.7
849.0018	957.063	2914.6	1979.3
849.147	959.0763	2927.8	1992.95
849.2921	961.0888	2925.1	1988.45
849.4373	963.1007	2934.55	1997.45
849.5824	965.1119	2947.7	2021.15
849.7275	967.1223	2928.4	2005.3
849.8727	969.1321	2933	2011.4
850.0178	971.1412	2935.05	2006.85
850.1629	973.1495	2933.45	2000.7
850.3081	975.1572	2955.1	1988.7
850.4532	977.1641	2921.65	1988.3
850.5983	979.1704	2918.6	1980.7
850.7435	981.1759	2916.35	1975.6
850.8886	983.1808	2908.1	1971.2
851.0337	985.1849	2921.15	1975
851.1788	987.1884	2913.6	1974.85
851.324	989.1911	2927.05	1992.8
851.4691	991.1932	2937.2	2002.5
851.6142	993.1945	2943.9	2009.05
851.7593	995.1951	2931.05	1995.85
851.9045	997.1951	2933	1991.8
852.0496	999.1943	2928.45	1996.05
852.1947	1001.1928	2932.45	1994.2
852.3398	1003.1906	2960.85	2022.25
852.4849	1005.1877	2990.95	2054.85
852.63	1007.1841	3008.3	2071.35
852.7751	1009.1798	3016.8	2085.95
852.9202	1011.1748	3003	2068.95
853.0653	1013.1691	2975.65	2041.15
853.2104	1015.1627	2933.65	2002.6
853.3555	1017.1556	2870.9	1938
853.5006	1019.1477	2846.3	1912.6
853.6457	1021.1392	2806.5	1876.65
853.7908	1023.1299	2795.1	1868.35
853.9359	1025.12	2797.45	1877.9
854.081	1027.1093	2796.45	1885.45
854.2261	1029.0979	2834.2	1923
854.3712	1031.0859	2866.9	1951.2
854.5163	1033.0731	2859	1932.8
854.6613	1035.0596	2879	1950.5
854.8064	1037.0454	2849	1915.7
854.9515	1039.0304	2831.4	1903.7
855.0965	1041.0148	2790.5	1858.1
855.2416	1042.9985	2782.9	1850.95
855.3867	1044.9814	2771.45	1845
855.5317	1046.9636	2755.95	1822.35
855.6768	1048.9452	2762.75	1831.7
855.8219	1050.926	2782.5	1851.45
855.9669	1052.9061	2778.1	1844.65
856.112	1054.8855	2794.95	1861.5
856.257	1056.8642	2799.6	1867.85
856.4021	1058.8421	2810.85	1876.4
856.5471	1060.8194	2800.55	1868.45
856.6921	1062.7959	2824.8	1890.9
856.8372	1064.7717	2841.4	1907.3
856.9822	1066.7469	2858	1926.5
857.1272	1068.7213	2874.3	1938.7
857.2723	1070.695	2908.3	1974.45
857.4173	1072.6679	2922.05	1985.8
857.5623	1074.6402	2926	1992.5
857.7073	1076.6117	2911.9	1974.7
857.8523	1078.5826	2884.1	1950.05
857.9973	1080.5527	2843.7	1907.3
858.1423	1082.5221	2803	1869.3
858.2873	1084.4908	2781.3	1847.8
858.4323	1086.4587	2770.8	1834.75
858.5773	1088.426	2784.6	1849.8
858.7223	1090.3925	2786.5	1844.1
858.8673	1092.3584	2798.35	1865.15
859.0123	1094.3235	2814.55	1884.35
859.1573	1096.2879	2854	1923.85
859.3022	1098.2515	2887.25	1954.1
859.4472	1100.2145	2916.95	1985.05
859.5922	1102.1767	2986.15	2052.7
859.7371	1104.1382	3058.7	2127.75
859.8821	1106.099	3113.9	2181.05
860.027	1108.0591	3184.55	2252.5
860.172	1110.0185	3217.5	2285.4
860.3169	1111.9771	3256.25	2323.15
860.4619	1113.9351	3249.3	2315.5
860.6068	1115.8923	3241.05	2308.25
860.7517	1117.8488	3223	2289.35
860.8967	1119.8045	3168.3	2233.6
861.0416	1121.7596	3113.5	2183.6
861.1865	1123.7139	3049.05	2120.2
861.3314	1125.6675	3027.65	2096.9
861.4763	1127.6204	3041.2	2109.8
861.6212	1129.5726	3030.85	2098.25
861.7661	1131.524	3017	2086
861.911	1133.4748	2961.9	2029.75
862.0559	1135.4248	2912.1	1979.5
862.2008	1137.3741	2857.1	1923.1
862.3457	1139.3226	2815.7	1881.55
862.4905	1141.2705	2811.25	1877.2
862.6354	1143.2176	2795.2	1855.95
862.7803	1145.164	2787.05	1851.2
862.9251	1147.1097	2766.45	1834.85
863.07	1149.0546	2736.25	1800.9
863.2148	1150.9989	2700.1	1768.35
863.3597	1152.9424	2684.6	1749.9
863.5045	1154.8852	2656.05	1725
863.6493	1156.8272	2655.95	1724.1
863.7942	1158.7686	2672.25	1735.35
863.939	1160.7092	2679.5	1748.2
864.0838	1162.6491	2677.7	1741.1
864.2286	1164.5883	2713.25	1780.15
864.3734	1166.5267	2747	1814.25
864.5182	1168.4644	2796.2	1863.75
864.663	1170.4014	2835.65	1899.75
864.8078	1172.3377	2910.1	1978.5
864.9526	1174.2732	2997.75	2067.75
865.0974	1176.2081	3115.35	2184
865.2421	1178.1421	3274.5	2340.15
865.3869	1180.0755	3427.45	2499.15
865.5317	1182.0082	3516.2	2587.15
865.6764	1183.9401	3541.25	2611
865.8212	1185.8713	3483.8	2560.1
865.9659	1187.8017	3373.2	2454.2
866.1106	1189.7315	3239.2	2326.9
866.2554	1191.6605	3119.65	2203.95
866.4001	1193.5888	3045.8	2128.5
866.5448	1195.5163	3003.25	2078.25
866.6895	1197.4432	2980.2	2053.4
866.8342	1199.3693	2955.8	2027.2
866.9789	1201.2947	2951.25	2023.4
867.1236	1203.2193	2949.2	2020.1
867.2683	1205.1432	2935.3	2006.5
867.413	1207.0664	2914.1	1987.1
867.5576	1208.9889	2917.25	1987.9
867.7023	1210.9106	2910.25	1979.4
867.847	1212.8316	2911.8	1983.65
867.9916	1214.7519	2931.7	1993.65
868.1363	1216.6715	2933.75	2005.45
868.2809	1218.5903	2979.2	2052.25
868.4255	1220.5084	2994.4	2063.75
868.5701	1222.4257	3010.45	2082.35
868.7148	1224.3424	3041.75	2116.75
868.8594	1226.2583	3080.1	2146
869.004	1228.1735	3128.45	2199.7
869.1486	1230.0879	3171.8	2245.5
869.2932	1232.0016	3245.15	2316.85
869.4377	1233.9146	3290.5	2361.3
869.5823	1235.8269	3312.4	2385.25
869.7269	1237.7384	3321.65	2394.8
869.8715	1239.6492	3304.8	2377.3
870.016	1241.5592	3310.55	2380.85
870.1606	1243.4686	3360.45	2434
870.3051	1245.3772	3425.2	2496.9
870.4496	1247.285	3511.3	2580.4
870.5941	1249.1922	3594.3	2664.7
870.7387	1251.0986	3668.7	2739.55
870.8832	1253.0042	3732.95	2807.3
871.0277	1254.9092	3760.4	2835.9
871.1722	1256.8134	3809	2885.4
871.3167	1258.7169	3841.35	2912.45
871.4611	1260.6196	3872.95	2948.1
871.6056	1262.5216	3926.9	3000.9
871.7501	1264.4229	3966.45	3040.4
871.8945	1266.3234	3998.95	3073.85
872.039	1268.2232	4022.6	3092.5
872.1834	1270.1223	4036.45	3108.45
872.3278	1272.0207	4040.65	3111.1
872.4723	1273.9183	4021.4	3087.25
872.6167	1275.8151	4016.6	3090.75
872.7611	1277.7113	4028.05	3099.8
872.9055	1279.6067	4100.1	3173.25
873.0499	1281.5014	4218.9	3288.95
873.1943	1283.3953	4369.25	3440.3
873.3386	1285.2885	4565.15	3637.95
873.483	1287.181	4732.8	3806.5
873.6274	1289.0727	4900	3974
873.7717	1290.9637	4982.45	4057.7
873.9161	1292.854	5019.1	4089.25
874.0604	1294.7435	4997	4073.2
874.2047	1296.6323	4934.6	4008.2
874.349	1298.5204	4844.6	3914.2
874.4933	1300.4077	4749.4	3819.65
874.6376	1302.2943	4637.7	3709.75
874.7819	1304.1802	4535.3	3608.45
874.9262	1306.0653	4381.25	3453.75
875.0705	1307.9497	4256.6	3329.35
875.2147	1309.8333	4111.8	3186.05
875.359	1311.7162	4019.05	3093.75
875.5032	1313.5984	3950.65	3021.6
875.6475	1315.4798	3903.05	2977.8
875.7917	1317.3605	3877.25	2932.85
875.9359	1319.2405	3815.1	2884.75
876.0801	1321.1197	3746.9	2817.1
876.2243	1322.9982	3637.1	2707.65
876.3685	1324.876	3539.45	2614.15
876.5127	1326.753	3433	2505.2
876.6569	1328.6293	3367.15	2440.65
876.801	1330.5048	3279.9	2350
876.9452	1332.3796	3220.7	2293.6
877.0893	1334.2537	3199.95	2248.45
877.2335	1336.127	3153.05	2224.9
877.3776	1337.9996	3118.35	2192.3
877.5217	1339.8714	3111.2	2185.4
877.6658	1341.7426	3138.4	2168.1
877.8099	1343.6129	3109.5	2179.9
877.954	1345.4826	3097.8	2173.3
878.0981	1347.3515	3107.15	2179
878.2422	1349.2196	3093.35	2164.9
878.3862	1351.087	3094.9	2170.25
878.5303	1352.9537	3116.15	2185.75
878.6743	1354.8197	3130.45	2202.6
878.8184	1356.6849	3167	2238.2
878.9624	1358.5493	3209.65	2281.9
879.1064	1360.4131	3268.5	2343.25
879.2504	1362.276	3303.55	2378.05
879.3944	1364.1383	3336.3	2411.4
879.5384	1365.9998	3310.7	2377.35
879.6823	1367.8606	3239.9	2311.35
879.8263	1369.7206	3154.35	2224.55
879.9702	1371.5799	3086.4	2157.65
880.1142	1373.4384	3023.45	2098.45
880.2581	1375.2962	2968.5	2042.35
880.402	1377.1533	2873.85	1946.8
880.5459	1379.0096	2774.3	1852.25
880.6898	1380.8652	2693.35	1772.55
880.8337	1382.7201	2629.5	1705.65
880.9776	1384.5742	2559.35	1632.05
881.1215	1386.4275	2525.2	1596.95
881.2653	1388.2802	2497.45	1572.45
881.4092	1390.132	2458.45	1533.55
881.553	1391.9832	2449.2	1518.95
881.6968	1393.8336	2428.55	1501.1
881.8406	1395.6832	2426.35	1500
881.9844	1397.5322	2403.65	1476.85
882.1282	1399.3803	2396.95	1468.9
882.272	1401.2278	2397.1	1473.15
882.4158	1403.0745	2385.5	1461
882.5595	1404.9204	2367.7	1443.25
882.7033	1406.7656	2369	1442.5
882.847	1408.6101	2360.95	1433.55
882.9908	1410.4538	2376.4	1452.35
883.1345	1412.2968	2395.3	1469.8
883.2782	1414.139	2407.25	1480.7
883.4219	1415.9805	2418.7	1495.5
883.5656	1417.8213	2436.55	1503.9
883.7092	1419.6613	2452.15	1530.4
883.8529	1421.5006	2490.05	1567.4
883.9965	1423.3391	2547.4	1624.2
884.1402	1425.1769	2613.55	1687.05
884.2838	1427.0139	2726.8	1802.15
884.4274	1428.8502	2849.55	1922.45
884.571	1430.6858	2974.85	2050
884.7146	1432.5206	3058.95	2136.25
884.8582	1434.3547	3111.45	2186.75
885.0018	1436.188	3111.55	2187.1
885.1453	1438.0206	3069.7	2143.35
885.2889	1439.8524	3028.75	2104.2
885.4324	1441.6835	3018	2094.85
885.5759	1443.5139	3001.6	2075.1
885.7194	1445.3435	2990.75	2069.65
885.8629	1447.1724	2988.3	2068.45
886.0064	1449.0005	2977.7	2056.4
886.1499	1450.8279	2962.9	2038.2
886.2933	1452.6545	2962.8	2043.4
886.4368	1454.4804	2959.05	2039.65
886.5802	1456.3056	2957.05	2029.45
886.7237	1458.13	2947.75	2026.6
886.8671	1459.9536	2913.45	1993.05
887.0105	1461.7766	2844.35	1922.95
887.1539	1463.5987	2772.15	1847.8
887.2972	1465.4202	2689.45	1765.15
887.4406	1467.2409	2618.35	1698.15
887.584	1469.0608	2553.8	1633.5
887.7273	1470.88	2491.2	1571.05
887.8706	1472.6984	2442.4	1518.95
888.0139	1474.5161	2395.65	1469.75
888.1572	1476.3331	2353.3	1429
888.3005	1478.1493	2338.45	1415.3
888.4438	1479.9648	2320.45	1397.7
888.5871	1481.7795	2313.4	1391.15
888.7303	1483.5935	2302.9	1381.65
888.8736	1485.4067	2283.55	1362
889.0168	1487.2192	2288.9	1369.95
889.16	1489.031	2275.95	1352.55
889.3032	1490.842	2264.2	1344.6
889.4464	1492.6522	2267.4	1346.5
889.5896	1494.4618	2246.4	1326.35
889.7327	1496.2705	2237.4	1315.65
889.8759	1498.0785	2233.25	1312.5
890.019	1499.8858	2220.35	1299.35
890.1622	1501.6924	2210.5	1291.45
890.3053	1503.4981	2196	1275.75
890.4484	1505.3032	2190.4	1269.6
890.5914	1507.1075	2177.8	1258.9
890.7345	1508.911	2169.85	1249.65
890.8776	1510.7138	2149.95	1229.1
891.0206	1512.5159	2142.35	1223.65
891.1637	1514.3172	2122.9	1203.05
891.3067	1516.1178	2119.4	1201.7
891.4497	1517.9176	2111.85	1186.45
891.5927	1519.7166	2095	1175.55
891.7357	1521.515	2111.55	1185.2
891.8786	1523.3126	2083.7	1166.75
892.0216	1525.1094	2089.7	1168.65
892.1645	1526.9055	2077.05	1160
892.3074	1528.7008	2072.8	1153.65
892.4503	1530.4954	2056.6	1139.45
892.5932	1532.2893	2053.6	1140.75
892.7361	1534.0824	2059.45	1138
892.879	1535.8747	2060.6	1146.1
893.0218	1537.6663	2045.2	1130.35
893.1647	1539.4572	2054.6	1137.75
893.3075	1541.2473	2055.65	1138.7
893.4503	1543.0367	2075.05	1158.55
893.5931	1544.8253	2068.3	1150.65
893.7359	1546.6132	2085.95	1169.25
893.8787	1548.4003	2090.5	1169.15
894.0214	1550.1867	2104.45	1182.2
894.1642	1551.9723	2123.65	1205.55
894.3069	1553.7572	2152.85	1239.8
894.4496	1555.5414	2189.7	1277.05
894.5923	1557.3247	2232.85	1321.1
894.735	1559.1074	2275.85	1368.3
894.8777	1560.8893	2346.75	1433.05
895.0204	1562.6705	2388.75	1477.45
895.163	1564.4509	2414.4	1506.95
895.3056	1566.2305	2433	1527.65
895.4482	1568.0094	2449.65	1542.2
895.5908	1569.7876	2445.15	1536.95
895.7334	1571.565	2444.1	1533.25
895.876	1573.3417	2428.4	1519.05
896.0186	1575.1176	2441.1	1534
896.1611	1576.8928	2457.9	1550.85
896.3036	1578.6672	2458.75	1555.65
896.4461	1580.4409	2481.7	1578.95
896.5886	1582.2138	2512.8	1608.35
896.7311	1583.986	2550.95	1643.15
896.8736	1585.7575	2586.6	1678.8
897.0161	1587.5282	2632.8	1728.35
897.1585	1589.2981	2674.3	1771.35
897.3009	1591.0673	2703.7	1801.05
897.4433	1592.8358	2736.8	1833.2
897.5857	1594.6035	2775.5	1865.3
897.7281	1596.3704	2788	1880.05
897.8705	1598.1366	2811.6	1907.45
898.0128	1599.9021	2833.3	1929.6
898.1551	1601.6668	2848.8	1941.25
898.2975	1603.4308	2867.15	1958.05
898.4398	1605.194	2908.35	1998.2
898.5821	1606.9564	2961.7	2061
898.7243	1608.7182	3045.05	2143.65
898.8666	1610.4791	3127.05	2232.4
899.0088	1612.2394	3225.15	2330.25
899.1511	1613.9988	3347.4	2449
899.2933	1615.7576	3427.55	2526.85
899.4355	1617.5156	3490.4	2581.55
899.5776	1619.2728	3460.2	2555.05
899.7198	1621.0293	3409.95	2503.9
899.862	1622.785	3314.2	2407.65
900.0041	1624.54	3167.7	2264.6
900.1462	1626.2942	3039.5	2140.05
900.2883	1628.0477	2902.95	2002.45
900.4304	1629.8005	2794.4	1891.35
900.5725	1631.5525	2674.45	1776.1
900.7145	1633.3037	2584.25	1685.3
900.8566	1635.0542	2532.3	1634.7
900.9986	1636.804	2461.1	1557.6
901.1406	1638.553	2468.9	1510.4
901.2826	1640.3013	2402.8	1503.1
901.4245	1642.0488	2378.95	1479.1
901.5665	1643.7955	2370.3	1474.2
901.7085	1645.5416	2372.85	1474.7
901.8504	1647.2868	2388.3	1489.5
901.9923	1649.0313	2410.3	1510.85
902.1342	1650.7751	2446.15	1542
902.2761	1652.5181	2466.65	1567.4
902.4179	1654.2604	2495.6	1597.6
902.5598	1656.0019	2537.5	1639.75
902.7016	1657.7427	2598.8	1700.65
902.8434	1659.4828	2656.8	1755.7
902.9852	1661.222	2713.75	1812.4
903.127	1662.9606	2718.9	1820.1
903.2687	1664.6984	2672	1773.05
903.4105	1666.4354	2576.3	1672.65
903.5522	1668.1717	2451.6	1547.4
903.6939	1669.9072	2328.65	1427.5
903.8356	1671.642	2215.25	1310.3
903.9773	1673.3761	2123.55	1224.5
904.119	1675.1094	2046.6	1146.55
904.2606	1676.8419	1989.3	1091.4
904.4022	1678.5737	1936.5	1036.05
904.5439	1680.3048	1909.65	1007.65
904.6855	1682.0351	1880.6	979.05
904.827	1683.7646	1858.8	953.35
904.9686	1685.4934	1842.55	941.55
905.1101	1687.2215	1815.8	916.3
905.2517	1688.9488	1809.5	913.35
905.3932	1690.6754	1781.8	884.05
905.5347	1692.4012	1782.95	882.4
905.6761	1694.1263	1776.85	878.05
905.8176	1695.8506	1762.1	860.35
905.9591	1697.5742	1752.6	856.1
906.1005	1699.297	1750.45	853.65
906.2419	1701.0191	1720.4	824.65
906.3833	1702.7404	1725.45	829.7
906.5246	1704.461	1716.75	818.75
906.666	1706.1808	1704.75	806.8
906.8073	1707.8999	1702.35	803.45
906.9487	1709.6182	1696.9	801.45
907.09	1711.3358	1690.5	794.3
907.2313	1713.0527	1676.05	783.6
907.3725	1714.7688	1679.65	777.2
907.5138	1716.4841	1670.25	772.5
907.655	1718.1987	1681.3	780.3
907.7962	1719.9126	1660.05	766.9
907.9374	1721.6257	1658.65	762.65
908.0786	1723.338	1662.5	769.6
908.2198	1725.0496	1649.6	753.85
908.3609	1726.7605	1653.05	757.2
908.502	1728.4706	1647.35	752.05
908.6431	1730.18	1640.45	743.25
908.7842	1731.8886	1634.8	742.85
908.9253	1733.5964	1645.85	728.35
909.0664	1735.3036	1635.5	738.55
909.2074	1737.0099	1621.9	727.35
909.3484	1738.7156	1623.1	730.8
909.4894	1740.4204	1619.7	723.25
909.6304	1742.1246	1612.15	715.25
909.7714	1743.8279	1601.4	707.3
909.9123	1745.5306	1610	716.1
910.0532	1747.2325	1597.8	705.85
910.1941	1748.9336	1597.65	703.75
910.335	1750.634	1603.2	706.45
910.4759	1752.3336	1592.05	697.5
910.6168	1754.0325	1586.95	695.9
910.7576	1755.7307	1583.05	689.75
910.8984	1757.4281	1581	686.65
911.0392	1759.1247	1598.6	695.2
911.18	1760.8206	1598.35	697.15
911.3208	1762.5158	1580.15	680.9
911.4615	1764.2102	1573.55	679.45
911.6022	1765.9039	1566.35	671.1
911.7429	1767.5968	1573.75	681.8
911.8836	1769.289	1564.5	670.8
912.0243	1770.9804	1566.15	668.6
912.1649	1772.6711	1569.15	671
912.3056	1774.361	1563.7	666.75
912.4462	1776.0502	1577.8	683.5
912.5868	1777.7386	1569.5	672.45
912.7274	1779.4263	1553.05	659.75
912.8679	1781.1132	1553.15	661.25
913.0084	1782.7994	1559	664.85
913.149	1784.4849	1556.05	664.95
913.2895	1786.1696	1559.9	651.15
913.4299	1787.8535	1544.45	652.7
913.5704	1789.5367	1536.35	646.7
913.7108	1791.2192	1540.45	648.45
913.8513	1792.9009	1569.1	651.7
913.9917	1794.5818	1550.3	654.3
914.132	1796.2621	1532.5	639.4
914.2724	1797.9415	1535.15	642.65
914.4128	1799.6202	1531.5	636.85
914.5531	1801.2982	1540.9	645.95
914.6934	1802.9755	1538.85	645.45
914.8337	1804.6519	1530.05	634.65
914.9739	1806.3277	1522.7	632.15
915.1142	1808.0027	1511.8	620.1
915.2544	1809.6769	1517.8	625.05
915.3946	1811.3504	1518.9	628.35
915.5348	1813.0231	1518.55	628.05
915.675	1814.6951	1515.9	624.6
915.8151	1816.3664	1520.65	624.9
915.9553	1818.0369	1512.75	619.6
916.0954	1819.7067	1512.6	620.85
916.2355	1821.3757	1506.25	610.05
916.3755	1823.044	1512.85	618.25
916.5156	1824.7115	1512.2	616.8
916.6556	1826.3783	1514.3	620.55
916.7956	1828.0443	1502.25	609.1
916.9356	1829.7096	1499.8	604.7
917.0756	1831.3741	1508.3	612.45
917.2155	1833.0379	1499.8	608.25
917.3555	1834.701	1492.95	600.7
917.4954	1836.3633	1498.05	607.4
917.6353	1838.0248	1496.8	605.4
917.7751	1839.6856	1503.9	613.95
917.915	1841.3457	1490.55	597.3
918.0548	1843.005	1496.6	601.8
918.1946	1844.6636	1485.9	593.05
918.3344	1846.3214	1479.7	587.25
918.4742	1847.9785	1493.65	600.1
918.6139	1849.6349	1485.5	591.7
918.7537	1851.2904	1498.45	592.8
918.8934	1852.9453	1488.9	594.35
919.0331	1854.5994	1495.25	599.25
919.1727	1856.2528	1498.4	600.15
919.3124	1857.9054	1484.55	592.8
919.452	1859.5572	1487.4	595.55
919.5916	1861.2083	1479.85	587.1
919.7312	1862.8587	1476.9	583.05
919.8708	1864.5084	1478.2	584.1
920.0103	1866.1572	1473.7	580.15
920.1498	1867.8054	1474.95	578.15
920.2893	1869.4528	1471.95	575.4
920.4288	1871.0994	1471.95	576.85
920.5683	1872.7453	1470.65	576.45
920.7077	1874.3905	1474.9	574.2
920.8471	1876.0349	1462.45	565.5
920.9865	1877.6786	1464.25	568.6
921.1259	1879.3215	1462	570.7
921.2653	1880.9637	1470.7	575.35
921.4046	1882.6051	1456.9	564.15
921.5439	1884.2458	1467.15	573.85
921.6832	1885.8858	1458.55	565.2
921.8225	1887.525	1456.55	563.25
921.9617	1889.1634	1455.2	561.05
922.101	1890.8011	1449.55	555.2
922.2402	1892.4381	1451.25	558.65
922.3794	1894.0743	1449.3	555.25
922.5185	1895.7098	1448.1	555.4
922.6577	1897.3446	1449.1	555.4
922.7968	1898.9786	1448.05	551.8
922.9359	1900.6118	1442.8	551.45
923.075	1902.2443	1444.85	550.5
923.214	1903.8761	1440.05	548.6
923.3531	1905.5071	1439.65	545.7
923.4921	1907.1374	1438.4	545.15
923.6311	1908.7669	1425.65	533.35
923.77	1910.3957	1423.3	529.4
923.909	1912.0237	1427.85	536.35
924.0479	1913.651	1433.3	539.8
924.1868	1915.2776	1426.15	533.5
924.3257	1916.9034	1419.75	527.9
924.4646	1918.5285	1414.85	524.2
924.6034	1920.1528	1426.55	534
924.7422	1921.7764	1417.35	525.8
924.881	1923.3992	1408.75	516.3
925.0198	1925.0213	1414.35	522.7
925.1586	1926.6427	1412.2	521.9
925.2973	1928.2633	1498.8	519.5
925.436	1929.8832	1413.85	520.9
925.5747	1931.5023	1406.5	514.45
925.7134	1933.1207	1405.9	514.6
925.852	1934.7383	1406.35	513.8
925.9906	1936.3552	1402.45	511.25
926.1292	1937.9714	1400.55	508.25
926.2678	1939.5868	1396.7	501.7
926.4064	1941.2015	1395.4	501.4
926.5449	1942.8154	1396.05	503.1
926.6834	1944.4286	1392.15	498.9
926.8219	1946.041	1414.55	499.85
926.9604	1947.6528	1396.9	501.4
927.0988	1949.2637	1390	498.75
927.2372	1950.8739	1390.65	499.7
927.3756	1952.4834	1385.85	494.6
927.514	1954.0921	1385.75	495.15
927.6523	1955.7001	1384.45	488.15
927.7907	1957.3074	1384.6	494.55
927.929	1958.9139	1370.35	481.6
928.0673	1960.5197	1381.9	492
928.2055	1962.1247	1375.55	487.65
928.3438	1963.729	1367.5	478.9
928.482	1965.3325	1370.7	476.2
928.6202	1966.9353	1370.4	482.4
928.7584	1968.5374	1362.05	470.25
928.8965	1970.1387	1367.7	479.95
929.0346	1971.7393	1369.25	480.6
929.1727	1973.3392	1358.15	467.8
929.3108	1974.9383	1353.45	465.5
929.4489	1976.5366	1361.05	473
929.5869	1978.1342	1353.2	465.45
929.7249	1979.7311	1355.6	468.6
929.8629	1981.3273	1350.65	463.4
930.0009	1982.9227	1347	456.8
930.1388	1984.5173	1346.35	459
930.2767	1986.1112	1344.8	457.65
930.4146	1987.7044	1348.9	461.25
930.5525	1989.2968	1348.55	460.85
930.6904	1990.8885	1336.65	444.6
930.8282	1992.4795	1343.25	454.2
930.966	1994.0697	1336.8	448.65
931.1038	1995.6592	1341.6	455
931.2415	1997.2479	1344.4	457.4
931.3793	1998.8359	1334.55	448.8
931.517	2000.4232	1335.3	450.55
931.6547	2002.0097	1327.2	445.35
931.7923	2003.5955	1327.85	445.55
931.93	2005.1805	1334.7	446.9
932.0676	2006.7648	1324	439.1
932.2052	2008.3484	1323.15	437
932.3427	2009.9312	1329.15	443.3
932.4803	2011.5133	1319.25	438.55
932.6178	2013.0946	1322.95	437.8
932.7553	2014.6752	1320.65	436.1
932.8928	2016.2551	1322.05	434.35
933.0302	2017.8342	1323.45	437.05
933.1676	2019.4126	1318.9	437.15
933.305	2020.9902	1314.5	430.6
933.4424	2022.5672	1311.45	429.2
933.5798	2024.1433	1318.2	428.65
933.7171	2025.7188	1305.65	425.75
933.8544	2027.2935	1313.5	429.75
933.9917	2028.8674	1302.35	419.35
934.129	2030.4406	1304.95	425.2
934.2662	2032.0131	1305.95	423.45
934.4034	2033.5849	1312.2	424.75
934.5406	2035.1559	1304	421.45
934.6778	2036.7261	1304.4	418.75
934.8149	2038.2957	1300.25	414.3
934.952	2039.8645	1305.6	418.15
935.0891	2041.4325	1309.05	420.05
935.2262	2042.9998	1296.1	411.45
935.3632	2044.5664	1295.25	408.85
935.5002	2046.1323	1293.35	410.85
935.6372	2047.6974	1293.05	410.35
935.7742	2049.2617	1291.4	408.5
935.9111	2050.8254	1295.95	407.5
936.048	2052.3883	1292.9	405.3
936.1849	2053.9504	1297.25	410.7
936.3218	2055.5118	1296	409.8
936.4586	2057.0725	1294.35	406.8
936.5955	2058.6325	1289.9	404.8
936.7323	2060.1917	1289.15	405.05
936.869	2061.7502	1288.45	400.9
937.0058	2063.3079	1287.35	407.15
937.1425	2064.8649	1278.55	391.2
937.2792	2066.4212	1286.2	401.85
937.4159	2067.9767	1281.4	396.9
937.5525	2069.5315	1277.4	392.5
937.6891	2071.0856	1279.7	396.15
937.8257	2072.6389	1279.15	392.85
937.9623	2074.1915	1269.35	385.85
938.0989	2075.7433	1278.1	393.5
938.2354	2077.2945	1277.65	393.35
938.3719	2078.8448	1269.8	384.55
938.5084	2080.3945	1274.45	386.1
938.6448	2081.9434	1273.15	386.95
938.7812	2083.4916	1271.85	383.95
938.9176	2085.039	1270.1	377.15
939.054	2086.5857	1272.75	379.85
939.1903	2088.1317	1272.05	382.1
939.3267	2089.677	1274.15	383.2
939.463	2091.2215	1268.35	377.95
939.5992	2092.7652	1266.1	373.7
939.7355	2094.3083	1262.55	371.65
939.8717	2095.8506	1264.55	376.75
940.0079	2097.3921	1261.45	375.35
940.1441	2098.933	1265.3	378.15
940.2802	2100.4731	1254.6	368.1
940.4163	2102.0124	1283.9	377.45
940.5524	2103.5511	1258.2	368.1
940.6885	2105.089	1257.15	367.7
940.8245	2106.6261	1263	372.95
940.9606	2108.1626	1258.85	371.35
941.0965	2109.6983	1280.15	364.05
941.2325	2111.2332	1259.55	372
941.3684	2112.7675	1260.05	371.15
941.5044	2114.301	1254.15	361.8
941.6403	2115.8337	1251.25	363.35
941.7761	2117.3657	1252.4	363.1
941.912	2118.897	1252.55	362.9
942.0478	2120.4276	1256.4	360.85
942.1835	2121.9575	1252.5	363.7
942.3193	2123.4866	1248.5	356.5
942.455	2125.0149	1251.25	361.1
942.5907	2126.5426	1243.3	356.9
942.7264	2128.0695	1245.35	356.55
942.8621	2129.5956	1236.7	353.35
942.9977	2131.1211	1245.05	355.15
943.1333	2132.6458	1242.8	356.45
943.2689	2134.1698	1242.5	350.8
943.4044	2135.693	1243.9	348.05
943.54	2137.2155	1243	350.7
943.6755	2138.7373	1239.2	351.6
943.8109	2140.2584	1230.7	344.4
943.9464	2141.7787	1236.25	346.35
944.0818	2143.2983	1230.1	346.65
944.2172	2144.8171	1232.5	350.55
944.3526	2146.3353	1231.6	344
944.4879	2147.8527	1229.1	344.1
944.6232	2149.3693	1226.4	337.7
944.7585	2150.8853	1230.25	338.75
944.8938	2152.4005	1231.7	342
945.029	2153.9149	1227.95	338.7
945.1642	2155.4287	1234.9	345.65
945.2994	2156.9417	1223.8	333.15
945.4346	2158.454	1221.1	333.2
945.5697	2159.9655	1223	339.7
945.7048	2161.4764	1219.7	333.75
945.8399	2162.9865	1220.2	332.25
945.9749	2164.4958	1221.55	335.25
946.1099	2166.0045	1223.35	332.95
946.2449	2167.5124	1221.05	333.5
946.3799	2169.0195	1218.55	331.1
946.5148	2170.526	1215.45	325.7
946.6498	2172.0317	1215.15	325.85
946.7846	2173.5367	1210.4	321.8
946.9195	2175.0409	1216.95	328.9
947.0543	2176.5445	1221.75	334.5
947.1891	2178.0473	1210.95	320.4
947.3239	2179.5494	1215	323.95
947.4587	2181.0507	1211.75	321.5
947.5934	2182.5513	1211.15	321.55
947.7281	2184.0512	1210.7	320.5
947.8628	2185.5504	1209.5	320.65
947.9974	2187.0488	1210.65	322.55
948.132	2188.5465	1206.45	318.65
948.2666	2190.0435	1201.1	312.45
948.4012	2191.5397	1206.2	316.15
948.5357	2193.0353	1208.8	317.75
948.6702	2194.5301	1208.8	317.6
948.8047	2196.0241	1206.7	312.7
948.9392	2197.5175	1202.75	309.1
949.0736	2199.0101	1209.1	313.55
949.208	2200.502	1197.45	311.45
949.3424	2201.9931	1196.5	308.75
949.4767	2203.4835	1196.25	306.8
949.611	2204.9733	1209.4	305.9
949.7453	2206.4622	1193.75	306.6
949.8796	2207.9505	1193.2	304.05
950.0138	2209.438	1190.6	307.05
950.148	2210.9248	1191.9	305.05
950.2822	2212.4109	1188.35	300.55
950.4164	2213.8962	1193	300.7
950.5505	2215.3809	1194.35	300.65
950.6846	2216.8648	1197.9	306.9
950.8186	2218.3479	1193.1	295.45
950.9527	2219.8304	1196.25	301.25
951.0867	2221.3121	1188.85	295.5
951.2207	2222.7931	1183.6	291.25
951.3546	2224.2733	1185.85	296.2
951.4886	2225.7529	1185.85	294.95
951.6225	2227.2317	1182.6	292.15
951.7563	2228.7098	1177.5	291.45
951.8902	2230.1872	1180.3	293.9
952.024	2231.6638	1175.55	287.45
952.1578	2233.1397	1180.25	289.95
952.2916	2234.6149	1177.95	292.15
952.4253	2236.0894	1174.75	286
952.559	2237.5632	1189.3	291.1
952.6927	2239.0362	1174.5	286
952.8263	2240.5085	1168.4	281.7
952.9599	2241.9801	1177.1	289.35
953.0935	2243.4509	1172.5	282.2
953.2271	2244.921	1176.3	284
953.3606	2246.3904	1176.5	282.65
953.4941	2247.8591	1165.3	275.15
953.6276	2249.3271	1169.35	279.65
953.7611	2250.7943	1169.35	277.65
953.8945	2252.2608	1168.75	276.4
954.0279	2253.7266	1163.95	275.4
954.1612	2255.1917	1163.45	275.1
954.2946	2256.656	1162.3	272.1
954.4279	2258.1197	1164.75	277.75
954.5612	2259.5826	1162.3	273.45
954.6944	2261.0447	1162.25	271.85
954.8276	2262.5062	1159.3	266
954.9608	2263.9669	1159.6	265.8
955.094	2265.4269	1162.8	270.25
955.2271	2266.8862	1155.9	270.35
955.3602	2268.3448	1161.8	275.05
955.4933	2269.8026	1157.75	269.1
955.6264	2271.2598	1157.45	269.05
955.7594	2272.7162	1154.55	266.35
955.8924	2274.1719	1156.85	266.85
956.0253	2275.6268	1162.2	270.45
956.1583	2277.0811	1156.75	263.7
956.2912	2278.5346	1152.25	265.05
956.4241	2279.9874	1153.2	266.7
956.5569	2281.4395	1147.55	260.5
956.6897	2282.8908	1155.3	263.4
956.8225	2284.3414	1152.2	262.65
956.9553	2285.7914	1152.05	261.2
957.088	2287.2406	1150.65	260.25
957.2207	2288.689	1156.4	265.85
957.3534	2290.1368	1162.8	269.3
957.486	2291.5838	1158.4	261.6
957.6186	2293.0302	1150.9	257.9
957.7512	2294.4758	1148	255.55
957.8838	2295.9206	1145.5	253.9
958.0163	2297.3648	1147.4	257.1
958.1488	2298.8082	1145.15	255.6
958.2813	2300.251	1145.3	255.25
958.4137	2301.693	1146.75	251.6
958.5461	2303.1343	1145.7	252.75
958.6785	2304.5748	1144	254.5
958.8108	2306.0147	1144.45	255.35
958.9432	2307.4538	1143.95	253.35
959.0754	2308.8922	1136.2	251.15
959.2077	2310.3299	1142.25	255.95
959.3399	2311.7669	1137.6	251.45
959.4721	2313.2031	1140	249.7
959.6043	2314.6387	1141.25	249.75
959.7365	2316.0735	1137.5	248.25
959.8686	2317.5076	1137	246.4
960.0006	2318.941	1141.85	251.6
960.1327	2320.3737	1139.2	247.75
960.2647	2321.8056	1137.1	244.75
960.3967	2323.2369	1135.1	244.2
960.5287	2324.6674	1133.5	241.3
960.6606	2326.0972	1133.75	243.6
960.7925	2327.5263	1141.75	251.85
960.9244	2328.9547	1139.6	248.95
961.0562	2330.3823	1140.15	248.1
961.1881	2331.8092	1137.55	240
961.3198	2333.2355	1129.15	235.8
961.4516	2334.661	1130.85	239.4
961.5833	2336.0858	1126	232
961.715	2337.5098	1128.45	237.45
961.8467	2338.9332	1127.65	236.8
961.9783	2340.3558	1132.25	238.5
962.1099	2341.7778	1124.3	233.85
962.2415	2343.199	1125.95	233.5
962.373	2344.6195	1122.15	230.3
962.5045	2346.0393	1129.05	241
962.636	2347.4583	1123.7	232.4
962.7675	2348.8767	1125.65	233.35
962.8989	2350.2943	1122.65	229.05
963.0303	2351.7113	1129.75	234.55
963.1617	2353.1275	1124.3	230.2
963.293	2354.543	1138.4	235.8
963.4243	2355.9578	1125.3	231.5
963.5556	2357.3718	1118.55	226.25
963.6868	2358.7852	1121.05	228.15
963.818	2360.1978	1116.05	228.6
963.9492	2361.6098	1114.9	224.85
964.0803	2363.021	1119.1	224.9
964.2114	2364.4315	1116.1	224.25
964.3425	2365.8413	1117.35	223.2
964.4736	2367.2504	1117.4	229.75
964.6046	2368.6587	1113.55	224.2
964.7356	2370.0664	1113.5	226.1
964.8666	2371.4733	1115.05	226.1
964.9975	2372.8795	1112.8	222.15
965.1284	2374.285	1116.95	225.2
965.2593	2375.6899	1111.2	220.9
965.3901	2377.0939	1106.75	217.95
965.5209	2378.4973	1109.55	220.25
965.6517	2379.9	1107.4	216.65
965.7825	2381.3019	1109.1	218.35
965.9132	2382.7032	1109.1	221.6
966.0439	2384.1037	1104.5	219.35
966.1745	2385.5035	1104.75	218.1
966.3051	2386.9027	1101.6	214.05
966.4357	2388.3011	1105	212.5
966.5663	2389.6987	1102.6	212.45
966.6968	2391.0957	1104.4	216.45
966.8273	2392.492	1100.6	213.55
966.9578	2393.8876	1101.2	213.25
967.0882	2395.2824	1098.2	211.1
967.2186	2396.6765	1096.2	206.85
967.349	2398.07	1099.55	209.9
967.4793	2399.4627	1104.4	213.15
967.6097	2400.8547	1095.05	203.5
967.7399	2402.246	1109.1	212.3
967.8702	2403.6366	1098.3	206.55
968.0004	2405.0265	1096.1	207.65
968.1306	2406.4156	1096.3	201.65
968.2607	2407.8041	1098.9	201.85
968.3909	2409.1918	1102.95	210.6
968.521	2410.5789	1092.2	198.1
968.651	2411.9652	1098.1	205.7
968.781	2413.3508	1098.3	206.8
968.911	2414.7358	1092.1	199
969.041	2416.12	1099.05	208.4
969.1709	2417.5035	1090.45	199.25
969.3008	2418.8863	1095.4	203.95
969.4307	2420.2684	1091.05	199.8
969.5606	2421.6497	1087.35	195.9
969.6904	2423.0304	1089.45	200.8
969.8201	2424.4104	1089.4	196.3
969.9499	2425.7896	1095.45	200.15
970.0796	2427.1682	1088.35	198.3
970.2093	2428.546	1090.8	200
970.3389	2429.9232	1091.45	201.15
970.4685	2431.2996	1084.85	191.8
970.5981	2432.6753	1089.5	197.15
970.7277	2434.0503	1086.45	193.05
970.8572	2435.4246	1083.65	194.35
970.9867	2436.7982	1084.85	189.95
971.1161	2438.1711	1087.15	196.25
971.2456	2439.5433	1086.85	193.7
971.375	2440.9148	1090.6	192.9
971.5043	2442.2856	1082.1	189
971.6336	2443.6557	1078.7	187.75
971.7629	2445.025	1077.75	187.45
971.8922	2446.3937	1082.35	193.25
972.0214	2447.7617	1077.9	186.45
972.1506	2449.1289	1076.35	185.9
972.2798	2450.4955	1078.2	183.75
972.4089	2451.8613	1077.1	187.15
972.538	2453.2265	1077.25	185.6
972.6671	2454.5909	1080.05	189.6
972.7961	2455.9546	1070.8	180.1
972.9251	2457.3177	1076.1	186.1
973.0541	2458.68	1081.65	189.7
973.1831	2460.0416	1079.55	188.15
973.312	2461.4025	1079.1	187
973.4408	2462.7627	1090.15	189.9
973.5697	2464.1222	1072.55	186.25
973.6985	2465.4811	1071.3	182.85
973.8273	2466.8392	1069.65	178.25
973.956	2468.1966	1075.95	184.1
974.0847	2469.5533	1072.6	179.25
974.2134	2470.9093	1076.9	188.05
974.3421	2472.2645	1074.65	182.95
974.4707	2473.6191	1072.15	181.8
974.5993	2474.973	1070.65	182.15
974.7278	2476.3262	1073.3	179.5
974.8563	2477.6787	1065.65	173.55
974.9848	2479.0305	1068.55	180.15
975.1132	2480.3816	1070	178.9
975.2417	2481.7319	1066.05	176.9
975.37	2483.0816	1069.75	177.85
975.4984	2484.4306	1071.7	180.1
975.6267	2485.7789	1071	183.25
975.755	2487.1264	1068.7	176.5
975.8833	2488.4733	1063.55	175.3
976.0115	2489.8195	1081.4	174.3
976.1397	2491.165	1069.6	177.5
976.2678	2492.5097	1067.3	177.25
976.3959	2493.8538	1060.4	171.3
976.524	2495.1972	1065.55	176.3
976.6521	2496.5398	1061.45	170.8
976.7801	2497.8818	1061.9	170.05
976.9081	2499.2231	1062.3	170.65
977.036	2500.5637	1058.75	165.6
977.164	2501.9035	1065.5	173.95
977.2918	2503.2427	1065.9	172.7
977.4197	2504.5812	1058.25	166.55
977.5475	2505.919	1061.6	170.85
977.6753	2507.256	1057.95	166.5
977.8031	2508.5924	1060.85	169.4
977.9308	2509.9281	1062.55	169.7
978.0585	2511.2631	1057.05	168.5
978.1861	2512.5974	1057.6	169.95
978.3137	2513.9309	1057.45	168.2
978.4413	2515.2638	1081.05	161.1
978.5689	2516.596	1055.65	166.15
978.6964	2517.9275	1054.4	165.45
978.8239	2519.2583	1058	168.15
978.9513	2520.5884	1054.35	164.2
979.0788	2521.9178	1056	166.5
979.2062	2523.2465	1050.25	162.1
979.3335	2524.5745	1052.85	162.35
979.4608	2525.9018	1055.45	166.9
979.5881	2527.2284	1051.85	163.85
979.7154	2528.5543	1051.55	162.7
979.8426	2529.8796	1047.55	156.5
979.9698	2531.2041	1050.65	162.05
980.0969	2532.5279	1050.9	162.4
980.224	2533.851	1046.4	156.1
980.3511	2535.1735	1046.95	157.85
980.4781	2536.4952	1049.75	159.15
980.6052	2537.8163	1051.95	159.5
980.7321	2539.1366	1048.8	159
980.8591	2540.4562	1048.7	155.4
980.986	2541.7752	1051.5	161.2
981.1129	2543.0935	1048.75	157.9
981.2397	2544.411	1049.4	157.15
981.3665	2545.7279	1045.8	156.75
981.4933	2547.0441	1050.05	159.95
981.62	2548.3596	1051.1	157.75
981.7467	2549.6744	1052.35	162.1
981.8734	2550.9885	1059.15	161.55
982.0001	2552.3019	1049.35	159.55
982.1267	2553.6146	1042.9	151.8
982.2532	2554.9266	1045.3	152.2
982.3798	2556.2379	1044.55	153.45
982.5063	2557.5485	1045.2	157.2
982.6327	2558.8585	1049.15	153.35
982.7592	2560.1677	1049.25	154.35
982.8856	2561.4762	1043.6	152.8
983.0119	2562.7841	1042.55	148.4
983.1383	2564.0913	1048.3	159.5
983.2646	2565.3977	1042.4	152.15
983.3908	2566.7035	1041.8	150.95
983.517	2568.0086	1044.5	152.5
983.6432	2569.313	1038.6	148.6
983.7694	2570.6167	1046.9	153.55
983.8955	2571.9197	1043.1	154.6
984.0216	2573.222	1045.2	152
984.1476	2574.5236	1043.85	151.45
984.2737	2575.8246	1044.65	153.9
984.3996	2577.1248	1046.55	155.75
984.5256	2578.4244	1040.95	152.9
984.6515	2579.7232	1045.75	157.75
984.7774	2581.0214	1067.5	148.2
984.9032	2582.3189	1039.7	152.05
985.029	2583.6157	1047.2	152.4
985.1548	2584.9118	1042.35	148.45
985.2806	2586.2072	1042.05	152.4
985.4063	2587.5019	1039.65	150.15
985.5319	2588.7959	1036.8	146
985.6576	2590.0893	1048.05	155.85
985.7832	2591.3819	1041.05	151.65
985.9087	2592.6739	1039.55	151.45
986.0343	2593.9652	1038.55	147.05
986.1597	2595.2557	1041.75	152.7
986.2852	2596.5456	1042.1	149.5
986.4106	2597.8348	1043.8	156.45
986.536	2599.1234	1039	150.1
986.6614	2600.4112	1040.15	149.65
986.7867	2601.6983	1043.05	151.15
986.912	2602.9848	1039.35	150.3
987.0372	2604.2705	1047.7	152.3
987.1624	2605.5556	1040	151.9
987.2876	2606.84	1036.95	150.25
987.4128	2608.1237	1039.5	152.05
987.5379	2609.4067	1036.65	149
987.6629	2610.689	1047.4	149.75
987.788	2611.9707	1041.5	149.6
987.913	2613.2516	1039.55	146.1
988.0379	2614.5319	1030.35	142.4
988.1629	2615.8115	1032.45	143.5
988.2878	2617.0903	1030.15	139.15
988.4126	2618.3685	1026.75	139.2
988.5375	2619.6461	1030.95	142.8
988.6622	2620.9229	1032.35	145.05
988.787	2622.199	1029.6	139.15
988.9117	2623.4745	1032.05	143.15
989.0364	2624.7493	1030.7	141.9
989.161	2626.0234	1028.75	142.35
989.2857	2627.2968	1029.75	142
989.4102	2628.5695	1030.95	143.2
989.5348	2629.8415	1025.95	137.05
989.6593	2631.1128	1029.15	137.8
989.7837	2632.3835	1025.7	137.45
989.9082	2633.6535	1024.4	138.7
990.0326	2634.9228	1030.4	144.7
990.1569	2636.1914	1031.8	145.3
990.2812	2637.4593	1027.25	139
990.4055	2638.7265	1026.45	137.05
990.5298	2639.9931	1023.9	137.3
990.654	2641.259	1028.25	140.3
990.7782	2642.5242	1023.45	135.25
990.9023	2643.7887	1023.9	136.55
991.0264	2645.0525	1025.5	137.9
991.1505	2646.3156	1025.95	137.45
991.2745	2647.5781	1025.6	139.05
991.3985	2648.8398	1022.6	137.1
991.5225	2650.1009	1056.4	131.65
991.6464	2651.3613	1025.55	136.75
991.7703	2652.6211	1021.35	134.95
991.8942	2653.8801	1020.2	134
992.018	2655.1385	1024.6	134.9
992.1418	2656.3961	1020.25	132.95
992.2655	2657.6531	1022.75	135
992.3892	2658.9094	1026.4	139.55
992.5129	2660.1651	1021.5	135
992.6366	2661.42	1020.7	133.75
992.7602	2662.6743	1022.85	134.65
992.8837	2663.9279	1017.55	132.3
993.0073	2665.1808	1022.75	134.6
993.1307	2666.433	1025.15	137.55
993.2542	2667.6846	1024.3	136.8
993.3776	2668.9354	1027.45	137.25
993.501	2670.1856	1022.2	133.7
993.6244	2671.4351	1023.6	138.75
993.7477	2672.6839	1027.6	138.55
993.8709	2673.9321	1027.15	140.85
993.9942	2675.1795	1026.4	138.8
994.1174	2676.4263	1024.95	139.55
994.2405	2677.6724	1026.2	140.5
994.3637	2678.9179	1028.2	139.85
994.4868	2680.1626	1026.15	141.35
994.6098	2681.4067	1022	135.05
994.7328	2682.6501	1026.25	138.15
994.8558	2683.8928	1021.95	132.4
994.9788	2685.1348	1020.75	134.9
995.1017	2686.3761	1019.65	131.65
995.2245	2687.6168	1020.1	132.35
995.3474	2688.8568	1023.25	138.75
995.4702	2690.0961	1018.45	132.6
995.5929	2691.3348	1020.2	133.15
995.7156	2692.5727	1017.9	129.3
995.8383	2693.81	1015.75	128.4
995.961	2695.0466	1014	126
996.0836	2696.2826	1015.55	126.3
996.2062	2697.5178	1021.2	130.7
996.3287	2698.7524	1018.05	131.8
996.4512	2699.9863	1018.8	129.05
996.5737	2701.2195	1016.6	130.85
996.6961	2702.452	1019.05	131.35
996.8185	2703.6839	1021.9	135.5
996.9408	2704.9151	1020.55	132.1
997.0631	2706.1456	1019.9	133.9
997.1854	2707.3755	1020.3	132.15
997.3077	2708.6046	1026.6	136.35
997.4299	2709.8331	1025.1	137.15
997.552	2711.0609	1026.75	139.25
997.6742	2712.2881	1027.9	141.6
997.7963	2713.5145	1031.9	143.8
997.9183	2714.7403	1033.6	147.5
998.0403	2715.9654	1032	144.15
998.1623	2717.1899	1052.95	152.1
998.2842	2718.4136	1034.2	149
998.4062	2719.6367	1036.1	149.95
998.528	2720.8591	1052.75	161.2
998.6498	2722.0809	1043.95	158
998.7716	2723.3019	1049.8	161.15
998.8934	2724.5223	1051.9	163.5
999.0151	2725.7421	1052.9	165.1
999.1368	2726.9611	1053.25	165.2
999.2584	2728.1795	1054.45	161.75
999.38	2729.3972	1045	157.85
999.5016	2730.6142	1048.5	155.5
999.6231	2731.8306	1044.15	155.55
999.7446	2733.0462	1039.25	150.95
999.8661	2734.2612	1041.55	150.25
999.9875	2735.4756	1033	144.05
1000.1089	2736.6892	1026.55	139.2
1000.2302	2737.9022	1024.05	137.75
1000.3515	2739.1145	1022.7	135.95
1000.4728	2740.3262	1029.65	134.4
1000.594	2741.5372	1017.45	129.7
1000.7152	2742.7475	1016.3	129
1000.8363	2743.9571	1015.7	128.85
1000.9575	2745.1661	1017.2	128
1001.0785	2746.3744	1009.7	123.35
1001.1996	2747.582	1006.4	118.9
1001.3206	2748.7889	1009.7	120.9
1001.4415	2749.9952	1003.8	118.3
1001.5625	2751.2008	1002.8	116.5
1001.6833	2752.4057	1001.9	113.3
1001.8042	2753.61	1004.8	118
1001.925	2754.8136	1003.45	115.6
1002.0458	2756.0165	1000.3	114.7
1002.1665	2757.2188	998.05	111.95
1002.2872	2758.4204	1003.85	115.6
1002.4078	2759.6213	1002.5	114.15
1002.5285	2760.8215	1003.15	112.35
1002.649	2762.0211	999.65	110.7
1002.7696	2763.22	1003.2	114.5
1002.8901	2764.4182	1005.75	117.9
1003.0106	2765.6158	1003.05	117.5
1003.131	2766.8127	1000.1	114.45
1003.2514	2768.009	996.6	110.75
1003.3717	2769.2045	998.8	110.65
1003.492	2770.3994	998.95	110.3
1003.6123	2771.5936	1000.3	113.45
1003.7325	2772.7872	997.4	113.2
1003.8527	2773.9801	995.45	108.95
1003.9729	2775.1723	1013.05	111.55
1004.093	2776.3639	992.55	107.05
1004.2131	2777.5548	995.95	109.15
1004.3331	2778.745	995.25	107.55
1004.4531	2779.9346	994.6	108.9
1004.5731	2781.1235	991.1	105.35
1004.693	2782.3117	992.2	108.9
1004.8129	2783.4992	993.5	110.75
1004.9328	2784.6861	993.2	107.65
1005.0526	2785.8723	998.25	110.45
1005.1723	2787.0579	994.65	108.2
1005.2921	2788.2428	997.75	110.45
1005.4118	2789.427	993.55	110.1
1005.5314	2790.6106	998	111.85
1005.651	2791.7935	1002.4	117.9
1005.7706	2792.9757	999.9	116.95
1005.8902	2794.1573	1006	118.6
1006.0097	2795.3382	1005.5	120.2
1006.1291	2796.5184	1002.7	119.65
1006.2485	2797.698	1006.8	119.25
1006.3679	2798.8769	1010.5	124.45
1006.4873	2800.0551	1007.85	119.95
1006.6066	2801.2327	1014.15	126.3
1006.7258	2802.4096	1013.55	130.2
1006.8451	2803.5859	1018.85	132.65
1006.9642	2804.7615	1019.2	133.95
1007.0834	2805.9364	1020.85	137.1
1007.2025	2807.1106	1024.35	142.45
1007.3216	2808.2842	1029	143.05
1007.4406	2809.4572	1038.1	152.15
1007.5596	2810.6294	1045.65	159.35
1007.6785	2811.801	1054.5	171.6
1007.7975	2812.972	1053.25	169.75
1007.9163	2814.1423	1061.75	177
1008.0352	2815.3119	1072.3	186.7
1008.154	2816.4808	1083.5	199.7
1008.2727	2817.6491	1096	208.7
1008.3914	2818.8167	1105.15	221.95
1008.5101	2819.9837	1120.7	229.45
1008.6288	2821.15	1132	246.45
1008.7474	2822.3157	1146.9	266.4
1008.8659	2823.4807	1162	275.4
1008.9844	2824.645	1174.45	290
1009.1029	2825.8086	1192.2	308.9
1009.2214	2826.9716	1202.3	319.55
1009.3398	2828.134	1214	330.5
1009.4581	2829.2957	1233.5	348.45
1009.5764	2830.4567	1234.35	349.9
1009.6947	2831.617	1237.95	351.7
1009.813	2832.7767	1247.35	362.25
1009.9312	2833.9358	1246.5	361.8
1010.0493	2835.0941	1237.3	351.15
1010.1675	2836.2519	1233.8	349.4
1010.2855	2837.4089	1234.8	349.5
1010.4036	2838.5653	1225.5	339.4
1010.5216	2839.7211	1224.4	344.2
1010.6396	2840.8761	1219.95	333.6
1010.7575	2842.0306	1217.65	336.3
1010.8754	2843.1843	1229.65	344.85
1010.9932	2844.3374	1231.55	347.7
1011.111	2845.4899	1239.55	357.3
1011.2288	2846.6417	1248.2	363.75
1011.3465	2847.7928	1258.3	374.65
1011.4642	2848.9433	1273.45	389.1
1011.5818	2850.0931	1285.7	399.3
1011.6995	2851.2422	1297.5	410.7
1011.817	2852.3907	1304.9	419.5
1011.9345	2853.5385	1322.15	435.25
1012.052	2854.6857	1354.5	443.75
1012.1695	2855.8323	1339.2	455.25
1012.2869	2856.9781	1351.6	468.15
1012.4042	2858.1233	1358.15	473.85
1012.5216	2859.2679	1372.1	488.45
1012.6389	2860.4118	1382.45	498.8
1012.7561	2861.555	1400.85	510.8
1012.8733	2862.6976	1400.4	515.05
1012.9905	2863.8395	1409.85	527.2
1013.1076	2864.9808	1412	528.7
1013.2247	2866.1214	1412.3	528.4
1013.3417	2867.2614	1422.1	537.05
1013.4587	2868.4007	1427.75	542.75
1013.5757	2869.5393	1433.8	549.95
1013.6926	2870.6773	1432.7	545
1013.8095	2871.8146	1439.45	552.65
1013.9263	2872.9513	1440.4	553.4
1014.0431	2874.0874	1436.5	552.25
1014.1599	2875.2227	1427.2	539.75
1014.2766	2876.3574	1429.15	545.4
1014.3933	2877.4915	1422.7	540.7
1014.51	2878.6249	1423.85	537.2
1014.6266	2879.7577	1413.85	528.55
1014.7431	2880.8898	1423.4	529.6
1014.8596	2882.0212	1415.05	533.45
1014.9761	2883.152	1409.35	527.9
1015.0925	2884.2821	1414.25	529.6
1015.2089	2885.4116	1410.5	527.1
1015.3253	2886.5405	1407.65	525.25
1015.4416	2887.6686	1414.45	527
1015.5579	2888.7962	1409.55	527.2
1015.6741	2889.923	1414.55	531.05
1015.7903	2891.0493	1416.05	534.25
1015.9065	2892.1748	1417.85	532.6
1016.0226	2893.2997	1422.55	538.45
1016.1387	2894.424	1417.1	535.6
1016.2547	2895.5476	1426.4	543.95
1016.3707	2896.6706	1428.9	545
1016.4866	2897.7929	1436.4	554.1
1016.6025	2898.9145	1434.3	551.25
1016.7184	2900.0355	1445.9	563.05
1016.8342	2901.1559	1449.7	564.25
1016.95	2902.2756	1463.2	574
1017.0658	2903.3946	1467.4	583.65
1017.1815	2904.513	1465.5	578.95
1017.2971	2905.6308	1472	587.6
1017.4127	2906.7479	1468.75	581.85
1017.5283	2907.8643	1481.15	596.3
1017.6439	2908.9801	1477.65	595.35
1017.7594	2910.0953	1478.8	594.95
1017.8748	2911.2098	1484.45	598.05
1017.9902	2912.3236	1494.5	602.95
1018.1056	2913.4368	1481.6	597.15
1018.2209	2914.5494	1471.15	588.7
1018.3362	2915.6613	1462.4	574.1
1018.4515	2916.7725	1458.35	571.95
1018.5667	2917.8831	1451.75	566.6
1018.6819	2918.9931	1446.1	562.05
1018.797	2920.1024	1445.15	559.85
1018.9121	2921.211	1435.5	551.95
1019.0271	2922.319	1430	547.7
1019.1421	2923.4264	1426.1	543.6
1019.2571	2924.5331	1416.6	533.55
1019.372	2925.6391	1432.65	548.85
1019.4869	2926.7445	1425.5	544.95
1019.6017	2927.8493	1431.8	549.85
1019.7165	2928.9534	1428	545.35
1019.8313	2930.0569	1429.15	542.4
1019.946	2931.1597	1435.05	551.45
1020.0606	2932.2619	1430.8	547.2
1020.1753	2933.3634	1436.2	552.85
1020.2899	2934.4643	1447.75	557.8
1020.4044	2935.5645	1443.65	552.1
1020.5189	2936.6641	1438.4	551.25
1020.6334	2937.763	1420.65	540.35
1020.7478	2938.8613	1418.05	535.65
1020.8622	2939.959	1419.1	530.15
1020.9765	2941.056	1399.55	517.8
1021.0908	2942.1523	1385.65	501.15
1021.2051	2943.248	1364.2	480.35
1021.3193	2944.3431	1342.8	460.85
1021.4334	2945.4375	1325.85	442.45
1021.5476	2946.5313	1307	423.45
1021.6617	2947.6244	1283.9	401.9
1021.7757	2948.7169	1260.15	376.6
1021.8897	2949.8087	1240.75	357.8
1022.0037	2950.8999	1222.8	341.7
1022.1176	2951.9904	1206.95	324.45
1022.2315	2953.0803	1193.1	310.1
1022.3453	2954.1696	1179.05	298.75
1022.4591	2955.2582	1175.4	294
1022.5728	2956.3462	1159.65	274.7
1022.6865	2957.4335	1148.45	263.85
1022.8002	2958.5202	1145.3	261.25
1022.9138	2959.6062	1143.4	259.1
1023.0274	2960.6916	1138.15	255.55
1023.141	2961.7764	1128.2	245.2
1023.2545	2962.8605	1129.45	245.95
1023.3679	2963.9439	1127.55	246.55
1023.4813	2965.0267	1120.7	237.1
1023.5947	2966.1089	1143.85	241.7
1023.708	2967.1905	1119.2	234.8
1023.8213	2968.2714	1118.5	235.15
1023.9346	2969.3516	1124.2	243.6
1024.0478	2970.4312	1124.4	232.15
1024.1609	2971.5102	1121.45	239.15
1024.274	2972.5885	1121.35	239.45
1024.3871	2973.6662	1133.2	246.25
1024.5002	2974.7432	1123.75	242.15
1024.6132	2975.8196	1122.95	241.25
1024.7261	2976.8954	1120.5	239.4
1024.839	2977.9705	1117.2	235.95
1024.9519	2979.045	1114.5	231.95
1025.0647	2980.1188	1115.35	233.3
1025.1775	2981.192	1112.7	232.75
1025.2902	2982.2645	1105.4	222
1025.4029	2983.3364	1105.6	224.85
1025.5156	2984.4077	1096.85	215.3
1025.6282	2985.4783	1099.2	211.2
1025.7407	2986.5483	1081.6	201.25
1025.8532	2987.6177	1076.25	193.75
1025.9657	2988.6864	1073.9	190.8
1026.0782	2989.7545	1067.2	183.35
1026.1906	2990.8219	1056.85	174.5
1026.3029	2991.8887	1051.75	166.55
1026.4152	2992.9548	1043.85	158.5
1026.5275	2994.0204	1031.95	150.5
1026.6397	2995.0852	1030.5	150.1
1026.7519	2996.1495	1028.05	144.3
1026.864	2997.2131	1019.55	137.3
1026.9761	2998.276	1011	127.65
1027.0882	2999.3383	1008.55	126.05
1027.2002	3000.4	1003	121.5
1027.3122	3001.4611	999.95	117.5
1027.4241	3002.5215	995.15	116.3
1027.536	3003.5812	989.25	105.05
1027.6478	3004.6404	991.3	110.05
1027.7596	3005.6989	989.15	105.7
1027.8714	3006.7567	982.6	98.95
1027.9831	3007.8139	1011.05	96.7
1028.0947	3008.8705	979.15	95.6
1028.2064	3009.9264	975.6	90.25
1028.3179	3010.9818	977.6	96.45
1028.4295	3012.0364	977.8	94.8
1028.541	3013.0905	971.55	88.15
1028.6524	3014.1439	971.25	88.6
1028.7638	3015.1966	968	84.85
1028.8752	3016.2487	969.4	85.85
1028.9865	3017.3002	972.95	86.55
1029.0978	3018.3511	963.95	82.95
1029.209	3019.4013	965.25	83.75
1029.3202	3020.4509	965.15	83.55
1029.4314	3021.4998	963.9	81.4
1029.5425	3022.5481	965.95	82.45
1029.6535	3023.5958	962.2	81.45
1029.7645	3024.6428	961.25	76.05
1029.8755	3025.6892	964.95	82.15
1029.9864	3026.735	961.15	77.9
1030.0973	3027.7802	962.75	79.8
1030.2082	3028.8247	962.45	82.2
1030.319	3029.8685	963.05	80.7
1030.4297	3030.9118	965.2	83
1030.5404	3031.9544	962.3	78.8
1030.6511	3032.9963	961.25	78.85
1030.7617	3034.0376	962.15	81.1
1030.8723	3035.0783	963.65	80.3
1030.9829	3036.1184	963.65	82
1031.0934	3037.1578	962.5	82.95
1031.2038	3038.1966	965.85	80.45
1031.3142	3039.2348	964.35	84.55
1031.4246	3040.2723	975.1	85.45
1031.5349	3041.3092	964.4	83.4
1031.6452	3042.3455	964.5	81.85
1031.7554	3043.3811	967.65	85.85
1031.8656	3044.4161	963.85	82.85
1031.9758	3045.4505	964	83.4
1032.0859	3046.4842	963	80.9
1032.1959	3047.5173	962.15	81.3
1032.3059	3048.5498	963.9	80.85
1032.4159	3049.5816	964.2	83.85
1032.5258	3050.6128	961.35	77.85
1032.6357	3051.6434	964.05	80.25
1032.7455	3052.6734	963.75	82.05
1032.8553	3053.7027	962.5	80.35
1032.9651	3054.7314	957	74.6
1033.0748	3055.7594	957.85	77.5
1033.1845	3056.7868	962.4	79.3
1033.2941	3057.8136	959.25	78
1033.4037	3058.8398	959.4	79.1
1033.5132	3059.8653	959.5	76.55
1033.6227	3060.8902	959.15	77.6
1033.7321	3061.9145	961.5	78.85
1033.8415	3062.9381	956.25	76.45
1033.9509	3063.9612	976.35	79.2
1034.0602	3064.9835	956.5	75
1034.1694	3066.0053	957.85	75.55
1034.2787	3067.0264	957.55	75.65
1034.3878	3068.0469	957.45	74.8
1034.497	3069.0668	960.05	76
1034.6061	3070.086	953.2	71.4
1034.7151	3071.1046	953.5	73.15
1034.8241	3072.1226	953	68.85
1034.9331	3073.1399	947.75	67.8
1035.042	3074.1567	949.55	66.65
1035.1508	3075.1727	949.3	67.2
1035.2597	3076.1882	947.3	65.25
1035.3684	3077.203	942.8	60.05
1035.4772	3078.2173	943.7	61.1
1035.5859	3079.2308	946.15	60.5
1035.6945	3080.2438	943.3	58.75
1035.8031	3081.2561	939.65	55.95
1035.9117	3082.2678	938.2	56.4
1036.0202	3083.2789	938.3	58.3
1036.1286	3084.2893	936.15	55.1
1036.2371	3085.2991	936.7	54.7
1036.3454	3086.3083	936.05	50.95
1036.4538	3087.3169	934.9	52.65
1036.562	3088.3248	932.05	49.3
1036.6703	3089.3321	932.75	48.45
1036.7785	3090.3388	931.35	50.05
1036.8866	3091.3449	931.85	50.3
1036.9948	3092.3503	930.7	47.15
1037.1028	3093.3551	925.8	45.25
1037.2108	3094.3593	926.85	45.85
1037.3188	3095.3629	927.1	46.55
1037.4267	3096.3658	927.65	45.7
1037.5346	3097.3681	924.85	44.25
1037.6425	3098.3698	927.1	45.4
1037.7503	3099.3708	929.55	42.2
1037.858	3100.3713	922.65	41.9
1037.9657	3101.3711	923.7	43.1
1038.0734	3102.3702	1038.95	40.85
1038.181	3103.3688	922.5	38.85
1038.2886	3104.3667	921.5	41.85
1038.3961	3105.364	921.4	40.4
1038.5036	3106.3607	920	38.6
1038.611	3107.3568	920.1	35.75
1038.7184	3108.3522	916.5	34.8
1038.8257	3109.347	919.55	37.65
1038.933	3110.3412	922.9	35.8
1039.0403	3111.3348	917.4	37.5
1039.1475	3112.3277	919.4	37.85
1039.2547	3113.32	916.45	39.15
1039.3618	3114.3117	915.4	33.55
1039.4689	3115.3028	917.9	37.95
1039.5759	3116.2932	917.8	33.55
1039.6829	3117.2831	920.15	33.55
1039.7898	3118.2723	916.35	35.5
1039.8967	3119.2608	916.1	35.95
1040.0035	3120.2488	915.7	33.8
1040.1103	3121.2361	912.4	34.6
1040.2171	3122.2229	913.15	32.45
1040.3238	3123.209	914.75	33.65
1040.4305	3124.1944	911.75	32.9
1040.5371	3125.1793	914.65	30.35
1040.6437	3126.1635	912.55	32.25
1040.7502	3127.1471	912.75	30.65
1040.8567	3128.1301	909.15	27.3
1040.9631	3129.1125	909.25	30
1041.0695	3130.0942	911.25	29.5
1041.1759	3131.0753	917.65	28.4
1041.2822	3132.0558	911.55	28.6
1041.3884	3133.0357	911.6	30.35
1041.4946	3134.015	910.85	28.45
1041.6008	3134.9936	910.55	27.45
1041.7069	3135.9716	930.35	27.3
1041.813	3136.949	910.95	30.25
1041.919	3137.9258	926.85	28.75
1042.025	3138.902	914.15	27.7
1042.1309	3139.8775	909	28.3
1042.2368	3140.8524	908.05	27.55
1042.3427	3141.8267	908.8	27.75
1042.4485	3142.8004	907.05	24.75
1042.5542	3143.7735	913.35	29.1
1042.6599	3144.7459	910.25	27.8
1042.7656	3145.7178	907.35	26.9
1042.8712	3146.689	905.05	26.45
1042.9768	3147.6596	908.05	22.9
1043.0823	3148.6295	905.85	26.3
1043.1878	3149.5989	909.1	30.3
1043.2932	3150.5676	905.15	27.15
1043.3986	3151.5357	904.35	23.1
1043.5039	3152.5032	901.7	22.2
1043.6092	3153.4701	906.95	26.65
1043.7145	3154.4364	908.45	26.05
1043.8197	3155.402	905.95	24.7
1043.9248	3156.367	906.85	23.65
1044.03	3157.3315	941.5	23.6
1044.135	3158.2952	903.85	23.35
1044.24	3159.2584	901.7	20.15
1044.345	3160.221	907.6	27.15
1044.4499	3161.1829	904.5	25.1
1044.5548	3162.1442	904.5	22.25
1044.6596	3163.105	903.3	23.1
1044.7644	3164.065	906.3	24.25
1044.8692	3165.0245	905.7	24.4
1044.9739	3165.9834	902.85	24.2
1045.0785	3166.9416	902.9	23.3
1045.1831	3167.8993	905.8	25.15
1045.2877	3168.8563	900.6	19.75
1045.3922	3169.8127	905.95	26.75
1045.4966	3170.7684	903.25	23.6
1045.6011	3171.7236	905.15	21.7
1045.7054	3172.6782	903.5	23.55
1045.8098	3173.6321	902.35	22.2
1045.914	3174.5854	907.15	21.2
1046.0183	3175.5381	900.75	21.6
1046.1224	3176.4902	902.7	20.15
1046.2266	3177.4417	900.25	21.15
1046.3307	3178.3926	900.45	20.05
1046.4347	3179.3428	900.5	20.45
1046.5387	3180.2924	901	21.6
1046.6427	3181.2415	902.75	21.5
1046.7466	3182.1899	901.15	20.45
1046.8504	3183.1377	898.4	17.3
1046.9542	3184.0848	904.45	21.65
1047.058	3185.0314	900.2	17.55
1047.1617	3185.9773	900.4	18.95
1047.2654	3186.9227	900.5	20.35
1047.369	3187.8674	898.75	17.95
1047.4726	3188.8115	902.75	18.2
1047.5761	3189.755	900.35	19.65
1047.6796	3190.6979	900.75	20.05
1047.783	3191.6402	900.9	21.35
1047.8864	3192.5818	898.8	18.95
1047.9898	3193.5229	905.6	18.15
1048.0931	3194.4633	899.5	19.15
1048.1963	3195.4031	902.3	21.15
1048.2995	3196.3423	900.5	20.45
1048.4027	3197.2809	899.8	19.75
1048.5058	3198.2189	900.3	19.4
1048.6089	3199.1563	915.55	20.4
1048.7119	3200.0931	897.9	18.2
1048.8148	3201.0292	896.8	17.6
1048.9178	3201.9648	897.6	18.3
1049.0206	3202.8997	902.3	19.5
1049.1235	3203.834	897.65	16.25
1049.2262	3204.7677	897.4	16.15
1049.329	3205.7008	900.4	18.25
1049.4317	3206.6333	897.4	21.65
1049.5343	3207.5652	898.8	13.75
1049.6369	3208.4964	898.1	17.2
1049.7394	3209.4271	894.1	13.9
1049.8419	3210.3571	896.85	17.15
1049.9444	3211.2865	895.15	11.9
1050.0468	3212.2154	898.6	16.6
1050.1491	3213.1436	898.9	16.65
1050.2514	3214.0712	903.95	15.9
1050.3537	3214.9982	896.55	17.05
1050.4559	3215.9246	897.75	14.45
1050.5581	3216.8503	893.75	14.85
1050.6602	3217.7755	897.1	17.9
1050.7623	3218.7001	892.6	12.8
1050.8643	3219.624	897.45	15.7
1050.9663	3220.5473	895.85	14.3
1051.0682	3221.4701	897.15	15.55
1051.1701	3222.3922	899	15.95
1051.2719	3223.3137	896.8	18.25
1051.3737	3224.2346	895.55	13.85
1051.4754	3225.1549	894.95	15.55
1051.5771	3226.0746	896.35	16.65
1051.6788	3226.9937	897.1	18
1051.7804	3227.9121	894.15	15.8
1051.8819	3228.83	893.45	14.3
1051.9834	3229.7473	896.35	17.2
1052.0849	3230.6639	894.25	14.45
1052.1863	3231.5799	897.3	17
1052.2876	3232.4954	895.75	15.7
1052.3889	3233.4102	895.45	16.9
1052.4902	3234.3244	895.75	15.4
1052.5914	3235.238	893.05	11.2
1052.6926	3236.151	917.6	13.75
1052.7937	3237.0634	894.4	15.8
1052.8948	3237.9752	893.55	13.3
1052.9958	3238.8864	894.5	14.7
1053.0968	3239.797	890.55	9.6
1053.1977	3240.7069	897.1	15.85
1053.2986	3241.6163	893.35	10.8
1053.3994	3242.5251	892.6	11.9
1053.5002	3243.4332	892.8	13
1053.6009	3244.3408	893.9	12.85
1053.7016	3245.2477	893.25	13.15
1053.8022	3246.154	894.9	12.45
1053.9028	3247.0598	892.8	10.8
1054.0034	3247.9649	893.1	15.25
1054.1039	3248.8694	894.7	13.9
1054.2043	3249.7733	893.25	14
1054.3047	3250.6766	890.3	11.4
1054.4051	3251.5793	891.25	10.3
1054.5054	3252.4814	891.05	10.95
1054.6056	3253.3829	893.25	12.65
1054.7058	3254.2838	893.35	13.4
1054.806	3255.1841	891.5	12.2
1054.9061	3256.0838	892.25	11.5
1055.0061	3256.9829	893.2	14.85
1055.1062	3257.8814	894.9	12.45
1055.2061	3258.7792	893.65	10.75
1055.306	3259.6765	892	11.85
1055.4059	3260.5731	891.3	11.55
1055.5057	3261.4692	891.4	9.35
1055.6055	3262.3647	889.3	8.6
1055.7052	3263.2595	891.75	12.65
1055.8049	3264.1538	890.3	10.2
1055.9045	3265.0474	890.3	10.85
1056.0041	3265.9404	890.2	11.7
1056.1036	3266.8329	890.95	13.15
1056.2031	3267.7247	899.6	8.7
1056.3025	3268.616	888.75	9.65
1056.4019	3269.5066	889.75	10.15
1056.5013	3270.3966	890.85	7.9
1056.6005	3271.286	885.95	6.55
