Software Version:	3.9.2.0
Unit SN:	10000200
Spectrometer SN:	6960
Date:	3/8/2024 11:19:00 AM
Data Line Index:	25
Spectral Points:	2048
Integration time (ms):	125
Averages:	20
Delay (ms):	30000
Sequence Number:	1
Processing:	dark subtract
Laser Power (mW):	300
Laser Current (mA):	822
Laser Diode Temp (C):	25.1
Laser Case Temp (C):	24.8
System Temp (C):	24.7
Spectrometer Temp (C):	22.5
CCD Temp (C):	0.009
Secondary Temp (C):	20.014
Heatsink Temp (C):	19.613
CCDPCB Temp (C):	33.539
SecondaryPCB Temp (C):	26.392

Wavelength	RamanShift	Raw Counts	Dark Subtracted
787.061	30.1047	417.3	6.35
787.2016	32.3739	416.45	10.55
787.3422	34.6426	417.85	7.75
787.4828	36.9109	420.6	9.65
787.6235	39.1787	424.1	9.55
787.7642	41.4461	431.75	13.1
787.9049	43.7131	435	12.05
788.0456	45.9796	437.3	12.25
788.1863	48.2456	443.45	15.9
788.3271	50.5112	447.9	14.55
788.4679	52.7764	450.7	14.65
788.6087	55.0411	457.1	18.15
788.7496	57.3054	463.55	17.65
788.8904	59.5692	466.4	19.05
789.0313	61.8326	469.4	21.4
789.1722	64.0955	474.8	22.35
789.3132	66.3579	481.85	25.25
789.4541	68.6199	491.05	27.8
789.5951	70.8815	500.4	36
789.7361	73.1426	523.45	54
789.8771	75.4032	571.8	99.4
790.0181	77.6634	673.9	198.25
790.1592	79.9231	923.75	445.4
790.3003	82.1824	1429.55	943.6
790.4414	84.4412	2253.9	1756.7
790.5825	86.6995	3322.8	2811.5
790.7237	88.9574	4346	3822.25
790.8648	91.2148	5047.7	4516.65
791.006	93.4717	5361.45	4827.45
791.1472	95.7282	5393.25	4853.5
791.2885	97.9842	5398.9	4858.9
791.4297	100.2398	5325.7	4781.85
791.571	102.4949	5251.6	4703.6
791.7123	104.7495	5198.05	4645.35
791.8536	107.0036	5132.1	4580.9
791.9949	109.2573	5040.05	4488.35
792.1363	111.5105	4919.8	4364.8
792.2777	113.7632	4803.4	4247.95
792.4191	116.0154	4675.6	4109.05
792.5605	118.2672	4535.35	3976.6
792.7019	120.5185	4370.9	3808.5
792.8434	122.7693	4236.75	3670.8
792.9849	125.0197	4102.75	3533.1
793.1264	127.2696	3978.05	3403.85
793.2679	129.519	3911.05	3336.8
793.4094	131.7679	3852.4	3276.75
793.551	134.0163	3828.75	3247.85
793.6926	136.2642	3813.45	3229.25
793.8342	138.5117	3803.85	3218.6
793.9758	140.7587	3771.6	3184.2
794.1175	143.0052	3731.75	3143.4
794.2591	145.2512	3646.5	3052.15
794.4008	147.4967	3569.15	2977.55
794.5425	149.7417	3497.1	2900.45
794.6842	151.9863	3449.65	2849.05
794.826	154.2304	3426.9	2822.3
794.9677	156.4739	3404.15	2795.05
795.1095	158.717	3427.65	2818.8
795.2513	160.9596	3470.4	2856.45
795.3931	163.2017	3519.95	2905.8
795.535	165.4433	3546.5	2929.4
795.6768	167.6844	3541.35	2921.25
795.8187	169.925	3497.6	2875.8
795.9606	172.1651	3425.6	2798.7
796.1025	174.4047	3356.7	2726.7
796.2445	176.6439	3295.3	2662.15
796.3864	178.8825	3247.2	2613.2
796.5284	181.1206	3226.6	2586.35
796.6704	183.3582	3214.1	2571.5
796.8124	185.5954	3203.55	2560.3
796.9544	187.832	3195.3	2546.65
797.0965	190.0681	3204.55	2554
797.2386	192.3037	3201.5	2547.25
797.3806	194.5388	3217.4	2562.3
797.5228	196.7734	3239.75	2582.4
797.6649	199.0075	3248.05	2590.55
797.807	201.2411	3276	2616
797.9492	203.4742	3308.2	2645.4
798.0914	205.7068	3354.3	2689.2
798.2336	207.9389	3391.85	2727.45
798.3758	210.1704	3409	2752.15
798.518	212.4015	3412.3	2761.4
798.6603	214.632	3405.3	2759.1
798.8025	216.862	3402.8	2760.2
798.9448	219.0915	3419.95	2771.1
799.0871	221.3205	3441.35	2790.3
799.2294	223.549	3460.1	2816.7
799.3718	225.777	3465.35	2819.4
799.5141	228.0044	3467.35	2814.65
799.6565	230.2314	3442.75	2788.55
799.7989	232.4578	3425.65	2764.95
799.9413	234.6837	3417.15	2749.8
800.0837	236.909	3379.55	2713
800.2262	239.1339	3394.1	2696.85
800.3687	241.3582	3378.15	2698.3
800.5111	243.582	3393.1	2680.85
800.6536	245.8053	3388.5	2691.25
800.7961	248.0281	3393	2702.3
800.9387	250.2503	3400.4	2705.85
801.0812	252.472	3420.2	2724.5
801.2238	254.6932	3423.6	2729.5
801.3664	256.9139	3425.95	2727.75
801.509	259.134	3451.25	2750.25
801.6516	261.3536	3469	2771.8
801.7942	263.5727	3541.5	2838.8
801.9369	265.7912	3602.7	2901.3
802.0795	268.0092	3687.85	2986.1
802.2222	270.2267	3780.4	3077.3
802.3649	272.4436	3864.25	3156.45
802.5076	274.6601	3922.35	3205.85
802.6504	276.8759	3947	3233.35
802.7931	279.0913	3969.2	3257.1
802.9359	281.3061	4002.45	3289.45
803.0787	283.5204	4012.9	3297.4
803.2215	285.7341	4070.75	3351.45
803.3643	287.9473	4111.3	3391.8
803.5071	290.16	4098.75	3376.5
803.6499	292.3721	4035.65	3320.9
803.7928	294.5837	3986.75	3268.05
803.9357	296.7947	3920.75	3203.55
804.0786	299.0052	3903.65	3182.9
804.2215	301.2152	3866.6	3144.55
804.3644	303.4246	3855.35	3136.9
804.5074	305.6334	3838.65	3118.7
804.6503	307.8418	3830.8	3107.3
804.7933	310.0495	3784.35	3058.8
804.9363	312.2568	3748.65	3024.8
805.0793	314.4635	3688.65	2962.15
805.2223	316.6696	3614.8	2886.25
805.3653	318.8752	3534.5	2796.75
805.5084	321.0802	3498.6	2764.25
805.6514	323.2847	3472.6	2737.8
805.7945	325.4887	3467.15	2735.1
805.9376	327.692	3503.25	2767.05
806.0807	329.8949	3558	2820.35
806.2238	332.0972	3627.95	2889.95
806.367	334.2989	3689.85	2947.85
806.5101	336.5001	3698	2957.2
806.6533	338.7007	3661.85	2922.15
806.7965	340.9008	3590.3	2845.6
806.9397	343.1003	3503.75	2757.2
807.0829	345.2992	3411.2	2663.85
807.2261	347.4976	3362.85	2616.15
807.3693	349.6955	3297.5	2543.15
807.5126	351.8927	3266.7	2515.25
807.6559	354.0895	3231.9	2468.45
807.7991	356.2856	3222.1	2467
807.9424	358.4812	3206.85	2451.25
808.0857	360.6763	3190	2431.85
808.2291	362.8707	3180.4	2420.25
808.3724	365.0646	3184.45	2423.1
808.5158	367.258	3193.75	2428.5
808.6591	369.4508	3216.85	2448.05
808.8025	371.643	3267	2500.7
808.9459	373.8346	3314.55	2545.15
809.0893	376.0257	3356.4	2585.45
809.2327	378.2162	3404.1	2636.4
809.3762	380.4062	3438	2667.35
809.5196	382.5956	3393.05	2622.15
809.6631	384.7844	3332.4	2566.8
809.8066	386.9726	3271.15	2507.9
809.9501	389.1603	3210.85	2449
810.0936	391.3474	3198.2	2399
810.2371	393.5339	3199.05	2432.15
810.3806	395.7199	3192.65	2426.75
810.5241	397.9052	3235.8	2474.3
810.6677	400.09	3292.4	2525.4
810.8113	402.2743	3356.95	2591.05
810.9548	404.4579	3412.3	2645.85
811.0984	406.641	3482.2	2709.55
811.2421	408.8235	3546.2	2775.4
811.3857	411.0054	3615.8	2841.55
811.5293	413.1868	3685.65	2907.1
811.673	415.3675	3723.75	2943.75
811.8166	417.5477	3731.9	2949.3
811.9603	419.7273	3661.8	2879.7
812.104	421.9064	3576.1	2786.75
812.2477	424.0848	3484.65	2698.4
812.3914	426.2627	3391.2	2606.45
812.5351	428.4399	3300.95	2514.55
812.6788	430.6166	3203.65	2414.7
812.8226	432.7928	3131.45	2343.6
812.9663	434.9683	3078.6	2288.6
813.1101	437.1432	3046	2251.7
813.2539	439.3176	3011.5	2219.85
813.3977	441.4914	2986.6	2199.7
813.5415	443.6645	2992.7	2202.1
813.6853	445.8371	2987	2194.15
813.8291	448.0091	2980.5	2189
813.973	450.1806	2973.85	2182.3
814.1168	452.3514	2958.65	2163.95
814.2607	454.5216	2984.7	2182.6
814.4046	456.6913	2963.2	2165.65
814.5485	458.8603	2978.95	2183.2
814.6924	461.0288	2992.2	2194.1
814.8363	463.1967	2977.8	2182.9
814.9802	465.3639	2985.4	2188.35
815.1241	467.5306	2966.6	2168.5
815.2681	469.6967	2962	2164.3
815.412	471.8622	2943.55	2146.5
815.556	474.0271	2938.15	2142.1
815.7	476.1914	2919.15	2118.6
815.844	478.3551	2920.1	2118.9
815.988	480.5182	2917.4	2117.6
816.132	482.6807	2944.35	2143.65
816.276	484.8426	2956.2	2156.5
816.4201	487.0039	3005.95	2205.85
816.5641	489.1647	3105.3	2300.25
816.7082	491.3248	3164.65	2361.15
816.8522	493.4843	3208.85	2407.25
816.9963	495.6432	3186.4	2383
817.1404	497.8015	3148.45	2341.05
817.2845	499.9592	3088.4	2281.3
817.4286	502.1163	2991.85	2186.4
817.5727	504.2728	2925.15	2115.15
817.7168	506.4287	2886.95	2082.1
817.861	508.5839	2856.65	2050.85
818.0051	510.7386	2853.1	2043.85
818.1493	512.8927	2854.95	2037.15
818.2935	515.0461	2855.15	2044.3
818.4377	517.199	2888.35	2075.3
818.5818	519.3512	2946.7	2132.8
818.726	521.5029	3062.85	2245.35
818.8703	523.6539	3153.65	2340
819.0145	525.8043	3184.2	2368.55
819.1587	527.9541	3095.3	2277.1
819.303	530.1033	2984.8	2171.5
819.4472	532.2519	2903.45	2087.9
819.5915	534.3999	2873.2	2053.85
819.7357	536.5472	2837.55	2020.1
819.88	538.694	2859.95	2042.5
820.0243	540.8401	2864.4	2046.65
820.1686	542.9856	2897.4	2074.95
820.3129	545.1305	2936.4	2112.5
820.4572	547.2748	2931.8	2109
820.6016	549.4185	2956.65	2131
820.7459	551.5615	2952.65	2129.15
820.8902	553.704	2980.55	2155.5
821.0346	555.8458	3004.75	2183.05
821.1789	557.987	3035.45	2211.9
821.3233	560.1276	3085.1	2261.05
821.4677	562.2675	3191.25	2368.25
821.6121	564.4069	3302.15	2480.75
821.7565	566.5456	3373.1	2551
821.9009	568.6837	3346.4	2523.75
822.0453	570.8212	3205.15	2382.35
822.1897	572.958	3071.6	2246.95
822.3342	575.0942	2963.2	2142.5
822.4786	577.2299	2899.45	2077.4
822.6231	579.3648	2878.95	2056.3
822.7675	581.4992	2851.55	2028.45
822.912	583.6329	2860.95	2039.7
823.0565	585.766	2905.8	2081.65
823.201	587.8985	2983.9	2158
823.3454	590.0304	3066.55	2226.65
823.4899	592.1616	3106.15	2275.8
823.6345	594.2922	3113.15	2282.35
823.779	596.4222	3077.1	2246
823.9235	598.5515	2974.3	2141.1
824.068	600.6802	2888.2	2059.2
824.2126	602.8083	2820.25	1989.5
824.3571	604.9358	2783.3	1949.85
824.5017	607.0626	2777.45	1945.85
824.6462	609.1888	2783.3	1949.2
824.7908	611.3144	2822	1988.2
824.9354	613.4393	2879	2044.85
825.08	615.5636	2969.4	2134.05
825.2246	617.6873	3041.7	2207.55
825.3692	619.8103	3103.95	2267.15
825.5138	621.9327	3108.05	2273.1
825.6584	624.0544	3056.4	2222.15
825.803	626.1756	2952.65	2117.2
825.9477	628.2961	2849.55	2012.9
826.0923	630.4159	2801.7	1964.5
826.237	632.5351	2807.5	1972.05
826.3816	634.6537	2800.35	1963.9
826.5263	636.7716	2771.6	1931.95
826.6709	638.8889	2776.95	1933.1
826.8156	641.0056	2794.25	1951.75
826.9603	643.1216	2807.3	1968
827.105	645.237	2811.15	1968.45
827.2497	647.3518	2776.05	1933.4
827.3944	649.4659	2740.05	1902.1
827.5391	651.5793	2708.1	1867.5
827.6838	653.6922	2695.4	1856.1
827.8285	655.8043	2680.65	1841.65
827.9733	657.9159	2655	1811.75
828.118	660.0268	2635.5	1789.35
828.2627	662.137	2639.7	1797.95
828.4075	664.2466	2640.8	1794.3
828.5522	666.3556	2626.1	1783
828.697	668.4639	2630.25	1782.45
828.8418	670.5716	2621.85	1780.4
828.9865	672.6786	2601.05	1753.1
829.1313	674.785	2580.5	1731.9
829.2761	676.8907	2580.65	1732.9
829.4209	678.9958	2586.5	1743
829.5657	681.1002	2571.85	1727.8
829.7105	683.204	2584.3	1733.1
829.8553	685.3072	2576.65	1725.4
830.0001	687.4097	2566.05	1718
830.1449	689.5115	2579	1729.6
830.2898	691.6127	2567.8	1719.75
830.4346	693.7132	2568.35	1718.7
830.5794	695.8131	2580.35	1723.1
830.7243	697.9123	2568.35	1716
830.8691	700.0109	2583.8	1733.75
831.014	702.1089	2586.1	1738.15
831.1588	704.2061	2607.95	1757.2
831.3037	706.3028	2648.4	1793.6
831.4486	708.3987	2686.4	1833.8
831.5935	710.4941	2701.25	1849.4
831.7383	712.5887	2709.3	1859.2
831.8832	714.6827	2709.85	1853.95
832.0281	716.7761	2687.95	1835.05
832.173	718.8688	2678.75	1825.15
832.3179	720.9608	2693.95	1837.45
832.4628	723.0522	2699.9	1840.3
832.6077	725.1429	2719.35	1864.55
832.7527	727.233	2789.3	1931.6
832.8976	729.3224	2885.3	2029.75
833.0425	731.4112	2961.9	2106.05
833.1874	733.4993	2989.25	2132.55
833.3324	735.5867	2934.6	2077.95
833.4773	737.6735	2819.95	1962
833.6222	739.7596	2719.65	1861.35
833.7672	741.845	2665.15	1810.65
833.9122	743.9298	2639.2	1780.75
834.0571	746.014	2638.05	1780.05
834.2021	748.0974	2647.05	1786.1
834.347	750.1802	2645.7	1787.5
834.492	752.2624	2646.8	1790.55
834.637	754.3439	2627.7	1767.7
834.782	756.4247	2623.25	1754.3
834.9269	758.5048	2630.95	1771.6
835.0719	760.5843	2666.9	1808.3
835.2169	762.6631	2721.35	1862
835.3619	764.7413	2793.25	1934.85
835.5069	766.8188	2919.7	2058.55
835.6519	768.8956	3072	2209.2
835.7969	770.9718	3152.15	2289.45
835.9419	773.0473	3155.1	2295.4
836.0869	775.1221	3084.05	2224.05
836.232	777.1962	3050.3	2190.05
836.377	779.2697	3146.4	2282.3
836.522	781.3426	3326.8	2445.15
836.667	783.4147	3446.95	2582.3
836.8121	785.4862	3440.25	2578.25
836.9571	787.557	3306.25	2442.05
837.1021	789.6271	3108.2	2243.65
837.2472	791.6966	2890.85	2030.15
837.3922	793.7654	2730.1	1866.35
837.5373	795.8335	2627	1765.6
837.6823	797.901	2581.2	1719.95
837.8274	799.9678	2563.6	1697.35
837.9724	802.0339	2556.45	1694.45
838.1175	804.0993	2573.1	1699.35
838.2626	806.1641	2568.75	1703.95
838.4076	808.2282	2540.2	1677
838.5527	810.2916	2508.75	1639.55
838.6978	812.3544	2491.15	1628.8
838.8428	814.4164	2466.05	1601.45
838.9879	816.4778	2476.65	1607.9
839.133	818.5385	2498.95	1634.3
839.2781	820.5986	2544.85	1678.4
839.4232	822.658	2620.1	1752.85
839.5682	824.7166	2733.1	1866.75
839.7133	826.7747	2861.45	1993.5
839.8584	828.832	2994.65	2129.6
840.0035	830.8886	3088.35	2217.7
840.1486	832.9446	3136.1	2267.65
840.2937	834.9999	3085.65	2217.45
840.4388	837.0545	2989.95	2119.1
840.5839	839.1085	2857.1	1988.35
840.729	841.1618	2721.35	1850.6
840.8741	843.2143	2633.7	1766.75
841.0192	845.2662	2567.05	1700.45
841.1643	847.3175	2549.65	1680.8
841.3095	849.368	2530.3	1662.55
841.4546	851.4179	2509.9	1642.85
841.5997	853.467	2522.7	1652.5
841.7448	855.5155	2542.2	1671.9
841.8899	857.5633	2537.45	1668.45
842.0351	859.6105	2537.2	1668.1
842.1802	861.6569	2511.75	1641.3
842.3253	863.7027	2486.15	1613.1
842.4704	865.7478	2471.65	1601.45
842.6156	867.7922	2445.75	1574.7
842.7607	869.8359	2440.3	1569.5
842.9058	871.8789	2439.05	1567.65
843.0509	873.9212	2456.1	1551.7
843.1961	875.9629	2447.25	1576.6
843.3412	878.0039	2453.5	1579.85
843.4863	880.0441	2485.55	1614.8
843.6315	882.0837	2508.25	1637.9
843.7766	884.1226	2545.35	1674.1
843.9218	886.1609	2587.6	1717
844.0669	888.1984	2685.4	1813
844.212	890.2352	2743	1869.55
844.3572	892.2714	2776.95	1900.65
844.5023	894.3069	2735.8	1860.85
844.6475	896.3416	2646.4	1774.45
844.7926	898.3757	2571.25	1697.85
844.9377	900.4091	2528.65	1654.05
845.0829	902.4418	2553.85	1676.35
845.228	904.4739	2567.35	1693.75
845.3732	906.5052	2597.2	1721.85
845.5183	908.5358	2601.6	1726.25
845.6635	910.5658	2570.55	1692.15
845.8086	912.595	2534.55	1660
845.9538	914.6236	2450.6	1575.85
846.0989	916.6515	2408.45	1532.8
846.2441	918.6786	2391.15	1513.95
846.3892	920.7051	2366.5	1488.95
846.5344	922.7309	2371.6	1497.2
846.6795	924.756	2365.55	1492.35
846.8246	926.7804	2388.95	1512.8
846.9698	928.8041	2398.85	1519.75
847.1149	930.8272	2422.3	1547
847.2601	932.8495	2439.35	1563.65
847.4052	934.8711	2453.65	1574.9
847.5504	936.892	2458.1	1582.55
847.6955	938.9123	2493.85	1616.35
847.8407	940.9318	2544.15	1667
847.9858	942.9506	2549.7	1673.45
848.131	944.9688	2553.25	1676.7
848.2761	946.9862	2518	1642.95
848.4213	949.003	2461.8	1586
848.5664	951.019	2426.45	1549.35
848.7115	953.0344	2390.2	1510.5
848.8567	955.0491	2380	1500.3
849.0018	957.063	2352.1	1476.3
849.147	959.0763	2364.8	1488.35
849.2921	961.0888	2354.3	1473.7
849.4373	963.1007	2346.1	1468.7
849.5824	965.1119	2330.55	1457
849.7275	967.1223	2317.15	1442.3
849.8727	969.1321	2309.4	1435.85
850.0178	971.1412	2303.55	1428.3
850.1629	973.1495	2293.95	1415.4
850.3081	975.1572	2342.7	1430.9
850.4532	977.1641	2316.3	1436.1
850.5983	979.1704	2303.55	1422.45
850.7435	981.1759	2303.1	1420.6
850.8886	983.1808	2283.25	1404.1
851.0337	985.1849	2282	1389.75
851.1788	987.1884	2278.65	1400.25
851.324	989.1911	2275.35	1394.65
851.4691	991.1932	2292.65	1412.4
851.6142	993.1945	2310.7	1431.9
851.7593	995.1951	2294.3	1415.95
851.9045	997.1951	2287.45	1401.35
852.0496	999.1943	2283.95	1404.3
852.1947	1001.1928	2275.8	1393
852.3398	1003.1906	2299.65	1419.9
852.4849	1005.1877	2335.7	1456.1
852.63	1007.1841	2377.15	1494.25
852.7751	1009.1798	2400.3	1520.5
852.9202	1011.1748	2399.85	1520.85
853.0653	1013.1691	2358.55	1478.35
853.2104	1015.1627	2299	1419.85
853.3555	1017.1556	2249.15	1367.9
853.5006	1019.1477	2228.4	1349.7
853.6457	1021.1392	2188.85	1312.25
853.7908	1023.1299	2192.95	1316.9
853.9359	1025.12	2180.3	1301.2
854.081	1027.1093	2188.4	1313.95
854.2261	1029.0979	2225.9	1352.8
854.3712	1031.0859	2252.95	1376.95
854.5163	1033.0731	2283.4	1403.6
854.6613	1035.0596	2284.75	1407.85
854.8064	1037.0454	2268.55	1388.8
854.9515	1039.0304	2257.45	1377.7
855.0965	1041.0148	2209.55	1328.25
855.2416	1042.9985	2181.5	1300.6
855.3867	1044.9814	2157.9	1278.2
855.5317	1046.9636	2146.8	1265.2
855.6768	1048.9452	2164.6	1284.85
855.8219	1050.926	2200.25	1320.45
855.9669	1052.9061	2221.4	1342.4
856.112	1054.8855	2232.8	1349.7
856.257	1056.8642	2217.55	1337.1
856.4021	1058.8421	2237.05	1352.75
856.5471	1060.8194	2226.6	1345.75
856.6921	1062.7959	2225.75	1346.55
856.8372	1064.7717	2225.55	1340.4
856.9822	1066.7469	2214.75	1332.5
857.1272	1068.7213	2216.2	1333.05
857.2723	1070.695	2230.5	1348.6
857.4173	1072.6679	2283.6	1397.7
857.5623	1074.6402	2317.8	1434.45
857.7073	1076.6117	2339.25	1453.7
857.8523	1078.5826	2303.85	1420.15
857.9973	1080.5527	2253.25	1367.55
858.1423	1082.5221	2190.75	1307
858.2873	1084.4908	2153.95	1272.05
858.4323	1086.4587	2120	1233.7
858.5773	1088.426	2093.85	1206.95
858.7223	1090.3925	2104.75	1218.2
858.8673	1092.3584	2115.2	1232.55
859.0123	1094.3235	2125.9	1244.4
859.1573	1096.2879	2146.3	1263.2
859.3022	1098.2515	2183.15	1298.9
859.4472	1100.2145	2229	1346
859.5922	1102.1767	2278.55	1392
859.7371	1104.1382	2344.65	1460.85
859.8821	1106.099	2428.9	1541.75
860.027	1108.0591	2507.15	1624.75
860.172	1110.0185	2573.7	1687.05
860.3169	1111.9771	2626.6	1742.55
860.4619	1113.9351	2695.4	1810.65
860.6068	1115.8923	2812.35	1928.65
860.7517	1117.8488	2874.7	1987.55
860.8967	1119.8045	2822.15	1937.75
861.0416	1121.7596	2669.7	1783.15
861.1865	1123.7139	2482.55	1599.2
861.3314	1125.6675	2380.8	1498.75
861.4763	1127.6204	2385.2	1501.7
861.6212	1129.5726	2401.6	1516.2
861.7661	1131.524	2413.9	1527.7
861.911	1133.4748	2368.35	1484.45
862.0559	1135.4248	2261.35	1374.2
862.2008	1137.3741	2181.65	1296.85
862.3457	1139.3226	2135.65	1248.85
862.4905	1141.2705	2131.45	1249.75
862.6354	1143.2176	2146.3	1258.1
862.7803	1145.164	2166.75	1280.35
862.9251	1147.1097	2164.3	1280.45
863.07	1149.0546	2148.9	1261.3
863.2148	1150.9989	2098.2	1212.25
863.3597	1152.9424	2071.35	1185.7
863.5045	1154.8852	2052.7	1167.95
863.6493	1156.8272	2024.4	1138.65
863.7942	1158.7686	2033.15	1140.9
863.939	1160.7092	2028.1	1140.95
864.0838	1162.6491	2037.3	1148.65
864.2286	1164.5883	2041.85	1157.75
864.3734	1166.5267	2070.5	1184.3
864.5182	1168.4644	2108.75	1223.6
864.663	1170.4014	2153.85	1266.15
864.8078	1172.3377	2216.4	1334.5
864.9526	1174.2732	2293.35	1406.1
865.0974	1176.2081	2430.75	1545.35
865.2421	1178.1421	2604.65	1712.85
865.3869	1180.0755	2815.4	1929.5
865.5317	1182.0082	2944.1	2058.45
865.6764	1183.9401	2952.1	2066.9
865.8212	1185.8713	2801.5	1919.8
865.9659	1187.8017	2591.65	1707.1
866.1106	1189.7315	2419.1	1537.4
866.2554	1191.6605	2303.35	1392.8
866.4001	1193.5888	2200.25	1315.65
866.5448	1195.5163	2150.8	1267.85
866.6895	1197.4432	2117.55	1230.4
866.8342	1199.3693	2085.95	1200.75
866.9789	1201.2947	2064.95	1172.2
867.1236	1203.2193	2042.3	1154.25
867.2683	1205.1432	2042	1155.95
867.413	1207.0664	2035.7	1149.95
867.5576	1208.9889	2026.6	1136.15
867.7023	1210.9106	2041.1	1157.2
867.847	1212.8316	2043.85	1159.6
867.9916	1214.7519	2067.1	1170.7
868.1363	1216.6715	2070.15	1185.15
868.2809	1218.5903	2091.75	1205.45
868.4255	1220.5084	2113.65	1226.9
868.5701	1222.4257	2132.45	1246
868.7148	1224.3424	2151	1265.15
868.8594	1226.2583	2179.8	1291.65
869.004	1228.1735	2218.95	1331.35
869.1486	1230.0879	2269.3	1381.75
869.2932	1232.0016	2343	1456.7
869.4377	1233.9146	2397.85	1507.7
869.5823	1235.8269	2418.65	1530.9
869.7269	1237.7384	2438.05	1551.25
869.8715	1239.6492	2421.5	1535.35
870.016	1241.5592	2440.05	1555
870.1606	1243.4686	2515.05	1627.9
870.3051	1245.3772	2612.2	1725.9
870.4496	1247.285	2765.1	1877.35
870.5941	1249.1922	2888.3	1996.95
870.7387	1251.0986	3003.35	2115.5
870.8832	1253.0042	3118	2230.55
871.0277	1254.9092	3231.55	2345.75
871.1722	1256.8134	3384.15	2497.85
871.3167	1258.7169	3531.15	2643.45
871.4611	1260.6196	3640.1	2754.85
871.6056	1262.5216	3696.85	2809.05
871.7501	1264.4229	3698.4	2812.8
871.8945	1266.3234	3649.35	2763
872.039	1268.2232	3576.7	2686.6
872.1834	1270.1223	3453.45	2564.5
872.3278	1272.0207	3401.65	2514.3
872.4723	1273.9183	3377.3	2485.15
872.6167	1275.8151	3357.9	2471.7
872.7611	1277.7113	3415.6	2528.95
872.9055	1279.6067	3545.9	2658.25
873.0499	1281.5014	3753.85	2862.35
873.1943	1283.3953	4033.05	3141.25
873.3386	1285.2885	4381.65	3495.85
873.483	1287.181	4637.55	3749.9
873.6274	1289.0727	4772.45	3887.05
873.7717	1290.9637	4690.45	3803.25
873.9161	1292.854	4518.1	3629.9
874.0604	1294.7435	4296.45	3407.65
874.2047	1296.6323	4096	3208.5
874.349	1298.5204	3906.4	3016.85
874.4933	1300.4077	3773.55	2886.85
874.6376	1302.2943	3683.35	2794.9
874.7819	1304.1802	3599.6	2711.95
874.9262	1306.0653	3542.8	2653.45
875.0705	1307.9497	3504.1	2613.85
875.2147	1309.8333	3439.95	2551.15
875.359	1311.7162	3397.9	2509.8
875.5032	1313.5984	3369.65	2479.3
875.6475	1315.4798	3349	2443.45
875.7917	1317.3605	3330.1	2437.6
875.9359	1319.2405	3359.35	2471
876.0801	1321.1197	3344.9	2454.1
876.2243	1322.9982	3293.15	2401.7
876.3685	1324.876	3185.65	2295.7
876.5127	1326.753	3058.95	2172.3
876.6569	1328.6293	2919.05	2029.8
876.801	1330.5048	2748.2	1858
876.9452	1332.3796	2614.5	1725.9
877.0893	1334.2537	2530.05	1615.45
877.2335	1336.127	2432.7	1544.65
877.3776	1337.9996	2381.7	1492.7
877.5217	1339.8714	2353.8	1464.65
877.6658	1341.7426	2359.7	1427.75
877.8099	1343.6129	2290.45	1402.05
877.954	1345.4826	2256.3	1367.45
878.0981	1347.3515	2242.7	1348.85
878.2422	1349.2196	2210.45	1320.5
878.3862	1351.087	2201.15	1310.5
878.5303	1352.9537	2188.85	1297.4
878.6743	1354.8197	2186.3	1298.4
878.8184	1356.6849	2203.3	1315.15
878.9624	1358.5493	2226.35	1338.15
879.1064	1360.4131	2261	1370.2
879.2504	1362.276	2317.65	1428.8
879.3944	1364.1383	2387.35	1499.25
879.5384	1365.9998	2410.65	1515.1
879.6823	1367.8606	2397	1506.6
879.8263	1369.7206	2374.55	1483.95
879.9702	1371.5799	2383.45	1490
880.1142	1373.4384	2386.85	1495.8
880.2581	1375.2962	2341.35	1451.9
880.402	1377.1533	2264.05	1375.55
880.5459	1379.0096	2186.25	1299.8
880.6898	1380.8652	2128.15	1240.05
880.8337	1382.7201	2084.95	1197.45
880.9776	1384.5742	2037.55	1149.2
881.1215	1386.4275	2005.85	1114
881.2653	1388.2802	1984.4	1096.75
881.4092	1390.132	1961.8	1074.2
881.553	1391.9832	1938.85	1046.65
881.6968	1393.8336	1925.8	1036.45
881.8406	1395.6832	1923.4	1031.45
881.9844	1397.5322	1907.15	1015.9
882.1282	1399.3803	1901.25	1008.45
882.272	1401.2278	1879.15	990.05
882.4158	1403.0745	1865.6	978.55
882.5595	1404.9204	1851.95	963
882.7033	1406.7656	1843.6	955.45
882.847	1408.6101	1830.65	939.75
882.9908	1410.4538	1833.9	945.35
883.1345	1412.2968	1829.95	940.6
883.2782	1414.139	1843.95	954.4
883.4219	1415.9805	1849.65	962.3
883.5656	1417.8213	1869.15	974.25
883.7092	1419.6613	1888.75	999.95
883.8529	1421.5006	1933.55	1043.3
883.9965	1423.3391	1993.6	1104.65
884.1402	1425.1769	2076.85	1183.55
884.2838	1427.0139	2205.45	1313.35
884.4274	1428.8502	2338.25	1448.15
884.571	1430.6858	2452	1562.45
884.7146	1432.5206	2494.85	1607.85
884.8582	1434.3547	2490.5	1598.45
885.0018	1436.188	2458.35	1568.45
885.1453	1438.0206	2435.8	1547.95
885.2889	1439.8524	2410.35	1520.75
885.4324	1441.6835	2411.7	1522.5
885.5759	1443.5139	2416.2	1522.5
885.7194	1445.3435	2416	1525.8
885.8629	1447.1724	2428.3	1538.6
886.0064	1449.0005	2422.9	1534.8
886.1499	1450.8279	2399.9	1509.35
886.2933	1452.6545	2400.25	1511.75
886.4368	1454.4804	2385.15	1498.45
886.5802	1456.3056	2383.25	1485.65
886.7237	1458.13	2354.3	1465.7
886.8671	1459.9536	2304.85	1415.6
887.0105	1461.7766	2264.2	1374.55
887.1539	1463.5987	2189.9	1301.35
887.2972	1465.4202	2130.7	1239.75
887.4406	1467.2409	2076.3	1185
887.584	1469.0608	2016	1129.15
887.7273	1470.88	1967	1075.9
887.8706	1472.6984	1930.9	1043.15
888.0139	1474.5161	1893.25	999.9
888.1572	1476.3331	1858.9	970.75
888.3005	1478.1493	1847.95	958.05
888.4438	1479.9648	1849.25	959.8
888.5871	1481.7795	1835.95	948.65
888.7303	1483.5935	1843.7	955.35
888.8736	1485.4067	1841.35	949.75
889.0168	1487.2192	1847.3	956.65
889.16	1489.031	1844.55	953.05
889.3032	1490.842	1845.7	957.05
889.4464	1492.6522	1842.45	951.2
889.5896	1494.4618	1833.35	943.3
889.7327	1496.2705	1830.2	944.1
889.8759	1498.0785	1833.05	944.45
890.019	1499.8858	1822.35	931.5
890.1622	1501.6924	1802.9	915.3
890.3053	1503.4981	1794.85	904.4
890.4484	1505.3032	1792.95	900.5
890.5914	1507.1075	1777.65	888.05
890.7345	1508.911	1775.05	883.15
890.8776	1510.7138	1753.85	864.25
891.0206	1512.5159	1750.9	860.45
891.1637	1514.3172	1739.7	852.3
891.3067	1516.1178	1726.7	838.8
891.4497	1517.9176	1728.95	837.8
891.5927	1519.7166	1722.8	836.9
891.7357	1521.515	1718.3	821.35
891.8786	1523.3126	1704.4	813.25
892.0216	1525.1094	1701.65	810.15
892.1645	1526.9055	1688.5	798.5
892.3074	1528.7008	1677.2	788.2
892.4503	1530.4954	1681.35	785.55
892.5932	1532.2893	1668.8	781.05
892.7361	1534.0824	1668.3	778.85
892.879	1535.8747	1665.1	778
893.0218	1537.6663	1665.95	777.4
893.1647	1539.4572	1663.85	773.8
893.3075	1541.2473	1658.4	769.3
893.4503	1543.0367	1669.7	780.85
893.5931	1544.8253	1668.95	776.25
893.7359	1546.6132	1679.4	786.25
893.8787	1548.4003	1684.4	787.1
894.0214	1550.1867	1696.45	799.5
894.1642	1551.9723	1702.7	810
894.3069	1553.7572	1729.7	840.25
894.4496	1555.5414	1751.85	865.45
894.5923	1557.3247	1793.6	904.25
894.735	1559.1074	1842.2	954.7
894.8777	1560.8893	1911.75	1024.95
895.0204	1562.6705	1968.95	1081.5
895.163	1564.4509	2016.4	1129.55
895.3056	1566.2305	2031.05	1144.05
895.4482	1568.0094	2044.85	1159.6
895.5908	1569.7876	2040.7	1155.25
895.7334	1571.565	2037.85	1149.15
895.876	1573.3417	2042.55	1156.05
896.0186	1575.1176	2053.25	1168.35
896.1611	1576.8928	2082.55	1194.45
896.3036	1578.6672	2110.75	1227.85
896.4461	1580.4409	2153.6	1267.65
896.5886	1582.2138	2216.25	1327
896.7311	1583.986	2278.05	1390.45
896.8736	1585.7575	2344.7	1456.7
897.0161	1587.5282	2404.45	1521.2
897.1585	1589.2981	2446	1561.5
897.3009	1591.0673	2476.9	1589.85
897.4433	1592.8358	2496.4	1609.35
897.5857	1594.6035	2481.95	1594.6
897.7281	1596.3704	2473.2	1586.7
897.8705	1598.1366	2435.9	1549.85
898.0128	1599.9021	2385.6	1500.8
898.1551	1601.6668	2347.4	1459.85
898.2975	1603.4308	2317.45	1430.1
898.4398	1605.194	2329.35	1436.45
898.5821	1606.9564	2345.6	1458.75
898.7243	1608.7182	2432.5	1545.7
898.8666	1610.4791	2566.7	1683.15
899.0088	1612.2394	2727.65	1845.4
899.1511	1613.9988	2904.3	2021.05
899.2933	1615.7576	3069.7	2183.95
899.4355	1617.5156	3138.7	2247.3
899.5776	1619.2728	3109.75	2222
899.7198	1621.0293	2972.6	2087.2
899.862	1622.785	2805.5	1914.8
900.0041	1624.54	2586.2	1697.85
900.1462	1626.2942	2388.25	1501.6
900.2883	1628.0477	2224.1	1337
900.4304	1629.8005	2083.95	1195.8
900.5725	1631.5525	1961.75	1076.7
900.7145	1633.3037	1864.9	977.3
900.8566	1635.0542	1811.1	925.8
900.9986	1636.804	1746	860.5
901.1406	1638.553	1763.8	817.25
901.2826	1640.3013	1667.05	781.35
901.4245	1642.0488	1643.65	757.35
901.5665	1643.7955	1623.4	740.7
901.7085	1645.5416	1599.1	712.5
901.8504	1647.2868	1585.05	701.25
901.9923	1649.0313	1568.4	682.35
902.1342	1650.7751	1564.5	676.15
902.2761	1652.5181	1550.4	667.5
902.4179	1654.2604	1555.7	669.55
902.5598	1656.0019	1566.7	683.65
902.7016	1657.7427	1584.45	698.6
902.8434	1659.4828	1603.15	716.35
902.9852	1661.222	1650.35	762.7
903.127	1662.9606	1715.45	831.4
903.2687	1664.6984	1772.2	884.9
903.4105	1666.4354	1804.9	918.8
903.5522	1668.1717	1774.65	886.5
903.6939	1669.9072	1723.55	836.2
903.8356	1671.642	1641.35	753.9
903.9773	1673.3761	1578.7	691.5
904.119	1675.1094	1523.6	637.65
904.2606	1676.8419	1486.1	599.45
904.4022	1678.5737	1460.35	573.45
904.5439	1680.3048	1442.55	555.9
904.6855	1682.0351	1425.55	538.2
904.827	1683.7646	1416.85	525.5
904.9686	1685.4934	1408.4	523.15
905.1101	1687.2215	1406.5	519.2
905.2517	1688.9488	1390.8	505.55
905.3932	1690.6754	1386.65	500.05
905.5347	1692.4012	1380.7	495.7
905.6761	1694.1263	1379.05	494.2
905.8176	1695.8506	1371.7	484.6
905.9591	1697.5742	1374.65	489
906.1005	1699.297	1365.7	480.95
906.2419	1701.0191	1368.65	481.6
906.3833	1702.7404	1360.8	476.45
906.5246	1704.461	1359.3	473.7
906.666	1706.1808	1350.85	464.25
906.8073	1707.8999	1355.75	470.85
906.9487	1709.6182	1348.2	462.25
907.09	1711.3358	1343.8	458.85
907.2313	1713.0527	1340.1	456.15
907.3725	1714.7688	1347.85	458.2
907.5138	1716.4841	1340	453.25
907.655	1718.1987	1334.7	443.1
907.7962	1719.9126	1332.45	450.5
907.9374	1721.6257	1327.6	440.75
908.0786	1723.338	1322	438.15
908.2198	1725.0496	1323.9	437.65
908.3609	1726.7605	1322.15	436.7
908.502	1728.4706	1318.7	431.95
908.6431	1730.18	1317.9	428.95
908.7842	1731.8886	1315.7	430.75
908.9253	1733.5964	1331.35	427.2
909.0664	1735.3036	1321.35	433.9
909.2074	1737.0099	1310.8	426.25
909.3484	1738.7156	1305.4	423.5
909.4894	1740.4204	1309.65	421.05
909.6304	1742.1246	1310.05	421.6
909.7714	1743.8279	1307.4	422.95
909.9123	1745.5306	1311.9	428.05
910.0532	1747.2325	1302.55	419.1
910.1941	1748.9336	1299.7	416.6
910.335	1750.634	1296.3	409.35
910.4759	1752.3336	1296.35	411.75
910.6168	1754.0325	1297	413.75
910.7576	1755.7307	1290.45	408.1
910.8984	1757.4281	1297.65	412.5
911.0392	1759.1247	1302.85	407.45
911.18	1760.8206	1305.85	414.5
911.3208	1762.5158	1297.9	407.8
911.4615	1764.2102	1289.2	404.8
911.6022	1765.9039	1291.6	407.25
911.7429	1767.5968	1285.4	403.25
911.8836	1769.289	1293.6	408.7
912.0243	1770.9804	1283.4	397.6
912.1649	1772.6711	1287.7	403.2
912.3056	1774.361	1284.55	397.5
912.4462	1776.0502	1282.6	397.45
912.5868	1777.7386	1289.05	400.7
912.7274	1779.4263	1286.15	400.9
912.8679	1781.1132	1278.9	394.45
913.0084	1782.7994	1284	398.35
913.149	1784.4849	1275.15	391.55
913.2895	1786.1696	1300.65	395.9
913.4299	1787.8535	1273.35	390.1
913.5704	1789.5367	1271.65	389.15
913.7108	1791.2192	1276.7	393.55
913.8513	1792.9009	1295.05	395.8
913.9917	1794.5818	1275.65	388.1
914.132	1796.2621	1268.4	381.75
914.2724	1797.9415	1271.7	386.25
914.4128	1799.6202	1261.25	376.45
914.5531	1801.2982	1265.45	379.6
914.6934	1802.9755	1270.35	382.55
914.8337	1804.6519	1268	384.6
914.9739	1806.3277	1261.7	376.4
915.1142	1808.0027	1256.9	371.7
915.2544	1809.6769	1260.55	377.4
915.3946	1811.3504	1264	380.9
915.5348	1813.0231	1261.95	379.7
915.675	1814.6951	1264	380.05
915.8151	1816.3664	1261.35	375.75
915.9553	1818.0369	1254.15	369.05
916.0954	1819.7067	1252.6	368.35
916.2355	1821.3757	1260.25	373.3
916.3755	1823.044	1254.2	368.7
916.5156	1824.7115	1251.6	364.5
916.6556	1826.3783	1246.7	364.35
916.7956	1828.0443	1239.9	356.3
916.9356	1829.7096	1252.75	367.05
917.0756	1831.3741	1249.65	361.45
917.2155	1833.0379	1252.95	369.25
917.3555	1834.701	1248.25	363.2
917.4954	1836.3633	1244.25	357.55
917.6353	1838.0248	1245.2	358.65
917.7751	1839.6856	1242.25	358.05
917.915	1841.3457	1241.1	358.7
918.0548	1843.005	1238.85	354.35
918.1946	1844.6636	1237.6	352.65
918.3344	1846.3214	1236.9	349.2
918.4742	1847.9785	1240.8	356.9
918.6139	1849.6349	1242.75	356.7
918.7537	1851.2904	1247.15	352.25
918.8934	1852.9453	1241.3	357
919.0331	1854.5994	1234.55	345.35
919.1727	1856.2528	1244.8	354.05
919.3124	1857.9054	1228.9	342.55
919.452	1859.5572	1235.95	351.55
919.5916	1861.2083	1234.85	349.3
919.7312	1862.8587	1236.6	350.25
919.8708	1864.5084	1229.6	343.75
920.0103	1866.1572	1228.65	343.35
920.1498	1867.8054	1230.05	344.5
920.2893	1869.4528	1225.75	340.4
920.4288	1871.0994	1228.3	343.2
920.5683	1872.7453	1232.85	348.1
920.7077	1874.3905	1228.95	336.3
920.8471	1876.0349	1223.2	339.05
920.9865	1877.6786	1228.5	342.1
921.1259	1879.3215	1227.55	342.6
921.2653	1880.9637	1226.05	341.55
921.4046	1882.6051	1222.75	336.95
921.5439	1884.2458	1221.05	333.5
921.6832	1885.8858	1224.3	339.45
921.8225	1887.525	1216.85	330.1
921.9617	1889.1634	1218.8	333.7
922.101	1890.8011	1214.7	329.3
922.2402	1892.4381	1218.6	332.95
922.3794	1894.0743	1212.05	329.8
922.5185	1895.7098	1213.55	327.5
922.6577	1897.3446	1216.55	330.5
922.7968	1898.9786	1216.05	326
922.9359	1900.6118	1208.6	325.05
923.075	1902.2443	1211.05	324.8
923.214	1903.8761	1208.5	321.1
923.3531	1905.5071	1205.9	318.1
923.4921	1907.1374	1207.5	323.95
923.6311	1908.7669	1207.1	320.85
923.77	1910.3957	1203.6	318.4
923.909	1912.0237	1201.6	316.9
924.0479	1913.651	1200.7	316.5
924.1868	1915.2776	1200.15	316.8
924.3257	1916.9034	1194.25	310.85
924.4646	1918.5285	1191.95	306.85
924.6034	1920.1528	1194.2	310.25
924.7422	1921.7764	1192.5	307
924.881	1923.3992	1196.75	311.6
925.0198	1925.0213	1194.15	310.9
925.1586	1926.6427	1190.05	306.9
925.2973	1928.2633	1401.95	304.1
925.436	1929.8832	1195.95	307.05
925.5747	1931.5023	1193.75	308.8
925.7134	1933.1207	1191.4	305.95
925.852	1934.7383	1183.85	298.25
925.9906	1936.3552	1189.8	305.9
926.1292	1937.9714	1185.8	301.1
926.2678	1939.5868	1189.65	302.25
926.4064	1941.2015	1185.85	298.3
926.5449	1942.8154	1187	301.2
926.6834	1944.4286	1179.1	293.15
926.8219	1946.041	1211.6	303.4
926.9604	1947.6528	1185.05	295.2
927.0988	1949.2637	1180.2	298.8
927.2372	1950.8739	1181.95	297.3
927.3756	1952.4834	1177.35	292.65
927.514	1954.0921	1172.85	286.85
927.6523	1955.7001	1182.4	293.9
927.7907	1957.3074	1169.3	285.85
927.929	1958.9139	1170.1	286
928.0673	1960.5197	1172.95	287.25
928.2055	1962.1247	1169.6	286.85
928.3438	1963.729	1164.1	279.9
928.482	1965.3325	1188.55	281.65
928.6202	1966.9353	1167.3	284.35
928.7584	1968.5374	1163.05	278.7
928.8965	1970.1387	1165.6	281.15
929.0346	1971.7393	1161.5	277.75
929.1727	1973.3392	1162.2	277.65
929.3108	1974.9383	1158.75	278.55
929.4489	1976.5366	1163.3	281.75
929.5869	1978.1342	1160.05	278.25
929.7249	1979.7311	1159.45	276.95
929.8629	1981.3273	1162.25	279.95
930.0009	1982.9227	1159.25	276
930.1388	1984.5173	1157.95	275.85
930.2767	1986.1112	1155.2	271.1
930.4146	1987.7044	1151.4	268.3
930.5525	1989.2968	1162.6	278.45
930.6904	1990.8885	1161.5	276.1
930.8282	1992.4795	1159.95	276.65
930.966	1994.0697	1152.65	270.25
931.1038	1995.6592	1155.85	275.1
931.2415	1997.2479	1148.1	268.2
931.3793	1998.8359	1150.8	269
931.517	2000.4232	1143.9	263.45
931.6547	2002.0097	1142.8	263.4
931.7923	2003.5955	1151	271
931.93	2005.1805	1147.1	262.85
932.0676	2006.7648	1146.85	266.9
932.2052	2008.3484	1145.15	263.25
932.3427	2009.9312	1145.8	262.6
932.4803	2011.5133	1144.45	262.55
932.6178	2013.0946	1144.25	262.95
932.7553	2014.6752	1145.2	266.05
932.8928	2016.2551	1142.4	260.05
933.0302	2017.8342	1136.85	255.55
933.1676	2019.4126	1139.85	259.55
933.305	2020.9902	1137.25	258.75
933.4424	2022.5672	1143.75	261.45
933.5798	2024.1433	1144.1	258.45
933.7171	2025.7188	1136.9	257.2
933.8544	2027.2935	1135.6	257.55
933.9917	2028.8674	1136.45	255.75
934.129	2030.4406	1134.5	255.05
934.2662	2032.0131	1136.55	259.55
934.4034	2033.5849	1136.65	249.8
934.5406	2035.1559	1135.35	256.95
934.6778	2036.7261	1134.05	252
934.8149	2038.2957	1133.6	251.8
934.952	2039.8645	1134.55	252.95
935.0891	2041.4325	1138.1	253.8
935.2262	2042.9998	1133.9	254.35
935.3632	2044.5664	1133.25	249.95
935.5002	2046.1323	1133.45	252
935.6372	2047.6974	1128.5	249.5
935.7742	2049.2617	1126.25	247.65
935.9111	2050.8254	1162.2	249.75
936.048	2052.3883	1130.8	250.8
936.1849	2053.9504	1133.75	253.1
936.3218	2055.5118	1133.8	249.8
936.4586	2057.0725	1137.8	254.25
936.5955	2058.6325	1129.95	249.15
936.7323	2060.1917	1125.5	245.3
936.869	2061.7502	1129.45	245.05
937.0058	2063.3079	1121.45	243.15
937.1425	2064.8649	1125.85	243.75
937.2792	2066.4212	1124.1	243.15
937.4159	2067.9767	1122.35	242.4
937.5525	2069.5315	1124.5	244.6
937.6891	2071.0856	1123.55	242.2
937.8257	2072.6389	1119.7	239.85
937.9623	2074.1915	1123.05	246.05
938.0989	2075.7433	1121.5	239
938.2354	2077.2945	1119.35	239.2
938.3719	2078.8448	1116.55	236
938.5084	2080.3945	1115.1	233.6
938.6448	2081.9434	1121.8	239.05
938.7812	2083.4916	1121.95	239.4
938.9176	2085.039	1119.95	234.8
939.054	2086.5857	1118.6	233.75
939.1903	2088.1317	1114.6	232.25
939.3267	2089.677	1117.75	233.6
939.463	2091.2215	1119.4	237.9
939.5992	2092.7652	1116.55	231.35
939.7355	2094.3083	1117.35	233.5
939.8717	2095.8506	1117.55	236.4
940.0079	2097.3921	1115.25	234.55
940.1441	2098.933	1114.65	234.1
940.2802	2100.4731	1109.8	228.2
940.4163	2102.0124	1137	239.1
940.5524	2103.5511	1114.15	233.85
940.6885	2105.089	1113.35	233.05
940.8245	2106.6261	1113.8	232.6
940.9606	2108.1626	1116.2	233.1
941.0965	2109.6983	1136.3	225.3
941.2325	2111.2332	1114.1	232.85
941.3684	2112.7675	1115.8	233
941.5044	2114.301	1116.75	232.7
941.6403	2115.8337	1113	230.7
941.7761	2117.3657	1114.7	232.9
941.912	2118.897	1111.4	227.6
942.0478	2120.4276	1117.5	228.65
942.1835	2121.9575	1114	231.4
942.3193	2123.4866	1119.6	222.15
942.455	2125.0149	1110.4	226.5
942.5907	2126.5426	1108.65	228.1
942.7264	2128.0695	1113.05	227.55
942.8621	2129.5956	1101.05	221.55
942.9977	2131.1211	1112.05	227.3
943.1333	2132.6458	1106.1	226.1
943.2689	2134.1698	1104.8	222.1
943.4044	2135.693	1108.6	223.65
943.54	2137.2155	1104.25	220.1
943.6755	2138.7373	1106.4	224.1
943.8109	2140.2584	1104.2	223.15
943.9464	2141.7787	1107.75	221.15
944.0818	2143.2983	1099.45	220.1
944.2172	2144.8171	1096.8	218.55
944.3526	2146.3353	1102.1	219.85
944.4879	2147.8527	1096.95	216.75
944.6232	2149.3693	1098.75	217.45
944.7585	2150.8853	1102.65	219.95
944.8938	2152.4005	1098.05	215.5
945.029	2153.9149	1099.55	216.9
945.1642	2155.4287	1102.95	221.5
945.2994	2156.9417	1096.55	214.15
945.4346	2158.454	1105.1	220.9
945.5697	2159.9655	1096.3	216.7
945.7048	2161.4764	1096.1	216.8
945.8399	2162.9865	1093.15	211.6
945.9749	2164.4958	1093.9	211.45
946.1099	2166.0045	1098.1	214
946.2449	2167.5124	1091.7	212.35
946.3799	2169.0195	1092.7	210.45
946.5148	2170.526	1095.4	213.5
946.6498	2172.0317	1090.6	210.7
946.7846	2173.5367	1096.55	215
946.9195	2175.0409	1090.45	209.9
947.0543	2176.5445	1089.35	210.65
947.1891	2178.0473	1094.2	210.6
947.3239	2179.5494	1095.5	212.15
947.4587	2181.0507	1091.6	208.75
947.5934	2182.5513	1090.75	208.8
947.7281	2184.0512	1095.75	214.45
947.8628	2185.5504	1089.55	207.95
947.9974	2187.0488	1085	205.75
948.132	2188.5465	1088.5	207
948.2666	2190.0435	1090.8	209.45
948.4012	2191.5397	1090.2	209.7
948.5357	2193.0353	1091.4	208.8
948.6702	2194.5301	1091.45	208.9
948.8047	2196.0241	1087.05	204.1
948.9392	2197.5175	1084.5	203.3
949.0736	2199.0101	1092.65	207.7
949.208	2200.502	1080.75	199.45
949.3424	2201.9931	1086.8	206.25
949.4767	2203.4835	1083.85	199.8
949.611	2204.9733	1099	200.85
949.7453	2206.4622	1083.4	201.95
949.8796	2207.9505	1082.15	198.3
950.0138	2209.438	1078.9	201.9
950.148	2210.9248	1079.8	197.75
950.2822	2212.4109	1078.6	197.65
950.4164	2213.8962	1081.45	197.95
950.5505	2215.3809	1082.15	196.85
950.6846	2216.8648	1075.15	190.2
950.8186	2218.3479	1083.35	195.35
950.9527	2219.8304	1081.2	197.65
951.0867	2221.3121	1080.2	194.7
951.2207	2222.7931	1072.7	189
951.3546	2224.2733	1074	191.55
951.4886	2225.7529	1072.9	192.15
951.6225	2227.2317	1075.1	190.8
951.7563	2228.7098	1070.4	192.65
951.8902	2230.1872	1077.35	196.85
952.024	2231.6638	1069.85	190.5
952.1578	2233.1397	1074.4	189.05
952.2916	2234.6149	1071.4	189.7
952.4253	2236.0894	1069.35	187.9
952.559	2237.5632	1079.2	186.3
952.6927	2239.0362	1068	186.5
952.8263	2240.5085	1066.7	184.4
952.9599	2241.9801	1069.4	188.1
953.0935	2243.4509	1070.3	190.45
953.2271	2244.921	1061.55	180.3
953.3606	2246.3904	1067.9	184.35
953.4941	2247.8591	1067.45	186.25
953.6276	2249.3271	1064.25	182.45
953.7611	2250.7943	1065.55	183.1
953.8945	2252.2608	1063.65	179.85
954.0279	2253.7266	1060.15	178.1
954.1612	2255.1917	1060.35	178.5
954.2946	2256.656	1064.85	181.3
954.4279	2258.1197	1059.35	178.7
954.5612	2259.5826	1060.9	177.7
954.6944	2261.0447	1058.65	176.8
954.8276	2262.5062	1065.45	183.4
954.9608	2263.9669	1063.35	178.75
955.094	2265.4269	1056.9	174.65
955.2271	2266.8862	1060.65	178.55
955.3602	2268.3448	1059.55	176.45
955.4933	2269.8026	1062.15	179.85
955.6264	2271.2598	1062.8	181.95
955.7594	2272.7162	1058.35	178.5
955.8924	2274.1719	1056.05	174.8
956.0253	2275.6268	1050.75	171.65
956.1583	2277.0811	1054.5	173.45
956.2912	2278.5346	1055.6	175.15
956.4241	2279.9874	1052.85	169.1
956.5569	2281.4395	1056.5	178.05
956.6897	2282.8908	1063.4	176.05
956.8225	2284.3414	1053.85	168.35
956.9553	2285.7914	1051.6	170.1
957.088	2287.2406	1056.3	174.7
957.2207	2288.689	1053.3	172.15
957.3534	2290.1368	1055	171.3
957.486	2291.5838	1055.95	171.95
957.6186	2293.0302	1055.45	173.4
957.7512	2294.4758	1055.6	170.8
957.8838	2295.9206	1053.4	169.4
958.0163	2297.3648	1051.1	168.75
958.1488	2298.8082	1052.4	169.55
958.2813	2300.251	1052	170
958.4137	2301.693	1052.6	168.95
958.5461	2303.1343	1049.7	168.4
958.6785	2304.5748	1049.25	169.3
958.8108	2306.0147	1045.85	164.6
958.9432	2307.4538	1050.7	168.95
959.0754	2308.8922	1046.7	169.6
959.2077	2310.3299	1049.2	167.7
959.3399	2311.7669	1048.15	167.55
959.4721	2313.2031	1046.05	165.15
959.6043	2314.6387	1043.9	161.55
959.7365	2316.0735	1046.5	165.1
959.8686	2317.5076	1044	161.35
960.0006	2318.941	1041.25	159.55
960.1327	2320.3737	1049.6	167.7
960.2647	2321.8056	1045.95	162.6
960.3967	2323.2369	1046.15	164.35
960.5287	2324.6674	1048.3	163.5
960.6606	2326.0972	1053.05	171.2
960.7925	2327.5263	1052	170.55
960.9244	2328.9547	1056.7	174.7
961.0562	2330.3823	1051.55	168.2
961.1881	2331.8092	1055.55	171
961.3198	2333.2355	1046	163.85
961.4516	2334.661	1045	163.9
961.5833	2336.0858	1044.85	159.65
961.715	2337.5098	1042.35	160.5
961.8467	2338.9332	1041.3	159.4
961.9783	2340.3558	1044.25	158.7
962.1099	2341.7778	1038.55	156.6
962.2415	2343.199	1038.5	155.6
962.373	2344.6195	1032.95	152
962.5045	2346.0393	1035.7	154.75
962.636	2347.4583	1037.7	155.1
962.7675	2348.8767	1035.35	152
962.8989	2350.2943	1039.75	154.95
963.0303	2351.7113	1037.05	153.4
963.1617	2353.1275	1034.65	150.95
963.293	2354.543	1048.3	159.65
963.4243	2355.9578	1036.2	154.15
963.5556	2357.3718	1033.85	150.4
963.6868	2358.7852	1038.7	153.95
963.818	2360.1978	1033.55	150.65
963.9492	2361.6098	1033.35	151.65
964.0803	2363.021	1040.3	152.4
964.2114	2364.4315	1034.4	152.9
964.3425	2365.8413	1032.55	149.6
964.4736	2367.2504	1032	151.35
964.6046	2368.6587	1029	147.1
964.7356	2370.0664	1032.2	149.65
964.8666	2371.4733	1032.25	150.35
964.9975	2372.8795	1031.75	149.75
965.1284	2374.285	1035.4	153.5
965.2593	2375.6899	1030.4	147.75
965.3901	2377.0939	1028.05	147.05
965.5209	2378.4973	1033.9	152.4
965.6517	2379.9	1028.5	146.1
965.7825	2381.3019	1031.35	148.65
965.9132	2382.7032	1030	148
966.0439	2384.1037	1027.35	148.15
966.1745	2385.5035	1029.3	147.3
966.3051	2386.9027	1026.4	143.85
966.4357	2388.3011	1029.65	143.4
966.5663	2389.6987	1028.95	146.35
966.6968	2391.0957	1028.15	145.7
966.8273	2392.492	1024.4	144.45
966.9578	2393.8876	1024.8	141.85
967.0882	2395.2824	1023.6	141.8
967.2186	2396.6765	1022.25	138.85
967.349	2398.07	1021.35	137.05
967.4793	2399.4627	1024.2	139.35
967.6097	2400.8547	1023.25	139.7
967.7399	2402.246	1027.55	138.3
967.8702	2403.6366	1020.55	136.6
968.0004	2405.0265	1020.75	137.55
968.1306	2406.4156	1024.6	139.75
968.2607	2407.8041	1024.1	136.75
968.3909	2409.1918	1023.35	138.05
968.521	2410.5789	1018.9	134.65
968.651	2411.9652	1023.8	137.4
968.781	2413.3508	1017.6	134.15
968.911	2414.7358	1020.15	134.75
969.041	2416.12	1016.55	132.65
969.1709	2417.5035	1018.25	136.6
969.3008	2418.8863	1019.55	135.75
969.4307	2420.2684	1019.05	136.65
969.5606	2421.6497	1018	132.2
969.6904	2423.0304	1013.35	130.25
969.8201	2424.4104	1016.2	131.8
969.9499	2425.7896	1016.7	131.35
970.0796	2427.1682	1014.5	131.85
970.2093	2428.546	1015.4	130.15
970.3389	2429.9232	1019	133.05
970.4685	2431.2996	1017.2	135.1
970.5981	2432.6753	1016.55	134.1
970.7277	2434.0503	1014.15	129.45
970.8572	2435.4246	1014.1	131.75
970.9867	2436.7982	1015.95	131.2
971.1161	2438.1711	1008.25	127.85
971.2456	2439.5433	1011.45	125.3
971.375	2440.9148	1014.7	132.15
971.5043	2442.2856	1012.55	128.85
971.6336	2443.6557	1009.15	126.55
971.7629	2445.025	1009.55	125.95
971.8922	2446.3937	1007.05	124.75
972.0214	2447.7617	1013.15	129
972.1506	2449.1289	1014.55	131.1
972.2798	2450.4955	1015.55	127.8
972.4089	2451.8613	1005.85	122.95
972.538	2453.2265	1005.15	121.8
972.6671	2454.5909	1012.55	129.7
972.7961	2455.9546	1004.55	124.3
972.9251	2457.3177	1008.4	127.85
973.0541	2458.68	1010.5	125.05
973.1831	2460.0416	1010.4	126.6
973.312	2461.4025	1005.5	120.3
973.4408	2462.7627	1016.15	121.85
973.5697	2464.1222	1003	123.3
973.6985	2465.4811	1005.5	123.2
973.8273	2466.8392	1004.55	122.4
973.956	2468.1966	1005.8	120.3
974.0847	2469.5533	1006.4	123.25
974.2134	2470.9093	1005.7	122.85
974.3421	2472.2645	1009.2	125.95
974.4707	2473.6191	1007.7	125.9
974.5993	2474.973	1002.6	120.65
974.7278	2476.3262	1006.35	122.45
974.8563	2477.6787	999.35	118.95
974.9848	2479.0305	1005	123.05
975.1132	2480.3816	1007.3	122.95
975.2417	2481.7319	1008.5	126.1
975.37	2483.0816	1003.75	119.4
975.4984	2484.4306	1004.45	119.85
975.6267	2485.7789	1002.1	120.65
975.755	2487.1264	1004.45	121.35
975.8833	2488.4733	1001.75	122.3
976.0115	2489.8195	1009.75	122
976.1397	2491.165	1007.1	121.65
976.2678	2492.5097	1004.7	122.6
976.3959	2493.8538	1001.75	120.6
976.524	2495.1972	998.35	116.05
976.6521	2496.5398	1000.7	116.95
976.7801	2497.8818	1001.15	116.9
976.9081	2499.2231	1001.9	118.3
977.036	2500.5637	999.7	115.8
977.164	2501.9035	998.75	116
977.2918	2503.2427	1002.3	117.35
977.4197	2504.5812	1000.9	118.85
977.5475	2505.919	1001.8	117.2
977.6753	2507.256	1001.35	118.65
977.8031	2508.5924	997.1	115.8
977.9308	2509.9281	1002.35	113.15
978.0585	2511.2631	1000.35	117.25
978.1861	2512.5974	998.75	118.05
978.3137	2513.9309	995.1	113.2
978.4413	2515.2638	1018.9	108.75
978.5689	2516.596	998.05	116.35
978.6964	2517.9275	992.2	108.45
978.8239	2519.2583	997.75	114.3
978.9513	2520.5884	997.65	114.8
979.0788	2521.9178	992.45	109.4
979.2062	2523.2465	989.65	107.4
979.3335	2524.5745	993.25	111.15
979.4608	2525.9018	992.85	109.7
979.5881	2527.2284	990.5	109.2
979.7154	2528.5543	992.15	110.15
979.8426	2529.8796	995	111.6
979.9698	2531.2041	992.8	108.85
980.0969	2532.5279	988.55	108.05
980.224	2533.851	990.6	107.1
980.3511	2535.1735	993.45	111.55
980.4781	2536.4952	988.9	106.95
980.6052	2537.8163	991.65	109.7
980.7321	2539.1366	992.35	110.65
980.8591	2540.4562	991.45	105.55
980.986	2541.7752	991.1	108.8
981.1129	2543.0935	991.5	106.25
981.2397	2544.411	991.75	110.25
981.3665	2545.7279	989.3	106.5
981.4933	2547.0441	990.95	109.75
981.62	2548.3596	991.95	106.6
981.7467	2549.6744	989.25	107.35
981.8734	2550.9885	997.45	106.45
982.0001	2552.3019	986.15	103.75
982.1267	2553.6146	986.6	103.55
982.2532	2554.9266	985.9	103.45
982.3798	2556.2379	988.85	103.25
982.5063	2557.5485	983.65	102.85
982.6327	2558.8585	992.7	101.1
982.7592	2560.1677	992.4	106.25
982.8856	2561.4762	987.55	105.45
983.0119	2562.7841	988.5	103
983.1383	2564.0913	986.85	105.45
983.2646	2565.3977	987.35	104.8
983.3908	2566.7035	985.6	102.6
983.517	2568.0086	986.95	102.85
983.6432	2569.313	987.3	103.95
983.7694	2570.6167	988.2	102.7
983.8955	2571.9197	981.35	97.9
984.0216	2573.222	988.35	101.6
984.1476	2574.5236	983.3	100.95
984.2737	2575.8246	989.15	105.45
984.3996	2577.1248	987.4	101.35
984.5256	2578.4244	984.5	103.1
984.6515	2579.7232	985.55	102.75
984.7774	2581.0214	1015.15	105.4
984.9032	2582.3189	982.4	99.9
985.029	2583.6157	991.4	105.2
985.1548	2584.9118	988.7	105.95
985.2806	2586.2072	987.3	106.05
985.4063	2587.5019	982.5	100
985.5319	2588.7959	987.6	106.55
985.6576	2590.0893	989.1	104.75
985.7832	2591.3819	984.6	103.05
985.9087	2592.6739	984.8	102.65
986.0343	2593.9652	985.8	101.7
986.1597	2595.2557	983.15	103.8
986.2852	2596.5456	986.35	101.95
986.4106	2597.8348	984.15	103.55
986.536	2599.1234	986.2	104.85
986.6614	2600.4112	988.05	106.25
986.7867	2601.6983	989.85	103.55
986.912	2602.9848	989.6	107.65
987.0372	2604.2705	992.35	101.75
987.1624	2605.5556	985.85	104
987.2876	2606.84	985.15	103.35
987.4128	2608.1237	985.05	100.7
987.5379	2609.4067	984.25	101.4
987.6629	2610.689	991.55	101.65
987.788	2611.9707	986.45	101.15
987.913	2613.2516	986.6	100.8
988.0379	2614.5319	979.65	96.3
988.1629	2615.8115	979.05	96.55
988.2878	2617.0903	984.05	98.25
988.4126	2618.3685	980.9	99.35
988.5375	2619.6461	982.95	100.3
988.6622	2620.9229	979.2	98.45
988.787	2622.199	979.45	97.55
988.9117	2623.4745	977.9	98.2
989.0364	2624.7493	977.95	95.7
989.161	2626.0234	978.1	96.65
989.2857	2627.2968	979.75	99.1
989.4102	2628.5695	977.65	95.35
989.5348	2629.8415	978.05	97.2
989.6593	2631.1128	983.7	99.4
989.7837	2632.3835	976.05	94.95
989.9082	2633.6535	975.55	93.6
990.0326	2634.9228	978.5	95.1
990.1569	2636.1914	976.75	94.5
990.2812	2637.4593	979.85	97.85
990.4055	2638.7265	975.15	90.4
990.5298	2639.9931	977.35	95.55
990.654	2641.259	975.7	92.25
990.7782	2642.5242	977.7	95.1
990.9023	2643.7887	974.55	92.35
991.0264	2645.0525	973.05	91.5
991.1505	2646.3156	975.6	91.6
991.2745	2647.5781	975.3	94.1
991.3985	2648.8398	972.8	91.25
991.5225	2650.1009	1010.4	90.85
991.6464	2651.3613	968.85	86
991.7703	2652.6211	972.3	90.9
991.8942	2653.8801	968.8	88.3
992.018	2655.1385	971.35	85.65
992.1418	2656.3961	972.9	90.75
992.2655	2657.6531	968.5	87.4
992.3892	2658.9094	971.4	89.2
992.5129	2660.1651	971.1	91.35
992.6366	2661.42	970.05	86.35
992.7602	2662.6743	971.65	89.9
992.8837	2663.9279	967.7	86.95
993.0073	2665.1808	969.55	87.25
993.1307	2666.433	973.1	89.75
993.2542	2667.6846	968.7	87.75
993.3776	2668.9354	980.75	96.65
993.501	2670.1856	974.6	91.55
993.6244	2671.4351	974.75	94.2
993.7477	2672.6839	974.75	91.4
993.8709	2673.9321	971.7	91.1
993.9942	2675.1795	972.65	89.55
994.1174	2676.4263	971.6	90.6
994.2405	2677.6724	974.4	92.95
994.3637	2678.9179	972.05	92.05
994.4868	2680.1626	973.65	92.65
994.6098	2681.4067	972.9	90.2
994.7328	2682.6501	973.45	92.25
994.8558	2683.8928	973.6	92.45
994.9788	2685.1348	971.8	90.45
995.1017	2686.3761	969	86.4
995.2245	2687.6168	967.35	87.25
995.3474	2688.8568	970.85	89.4
995.4702	2690.0961	966.9	87.5
995.5929	2691.3348	967.7	84.05
995.7156	2692.5727	965.25	84.15
995.8383	2693.81	965.9	83.85
995.961	2695.0466	963.55	82.15
996.0836	2696.2826	969.4	84.9
996.2062	2697.5178	971.35	85.45
996.3287	2698.7524	968.05	86.25
996.4512	2699.9863	966.95	82.25
996.5737	2701.2195	964.8	84.15
996.6961	2702.452	964.05	80.3
996.8185	2703.6839	970.1	89.15
996.9408	2704.9151	964.25	84.3
997.0631	2706.1456	969.9	87.8
997.1854	2707.3755	967.6	84.15
997.3077	2708.6046	975.6	92.75
997.4299	2709.8331	973	88.65
997.552	2711.0609	974.05	91.4
997.6742	2712.2881	972.9	89.3
997.7963	2713.5145	974.45	89.65
997.9183	2714.7403	971.6	90.2
998.0403	2715.9654	974.05	92.95
998.1623	2717.1899	987.7	89.9
998.2842	2718.4136	975.25	92.8
998.4062	2719.6367	978.65	95.7
998.528	2720.8591	990.05	101.3
998.6498	2722.0809	985.6	103.7
998.7716	2723.3019	985.9	101.6
998.8934	2724.5223	987.3	102.7
999.0151	2725.7421	987.2	105.4
999.1368	2726.9611	987.45	104.55
999.2584	2728.1795	983.3	97.3
999.38	2729.3972	975.8	94.75
999.5016	2730.6142	981.3	92.75
999.6231	2731.8306	974.2	91.7
999.7446	2733.0462	973.4	89.1
999.8661	2734.2612	974.35	87.7
999.9875	2735.4756	974.35	91.2
1000.1089	2736.6892	969.05	86.3
1000.2302	2737.9022	969.2	86.95
1000.3515	2739.1145	966.6	84.9
1000.4728	2740.3262	974.5	84.2
1000.594	2741.5372	966.35	84.7
1000.7152	2742.7475	963.25	81.15
1000.8363	2743.9571	964.5	82.3
1000.9575	2745.1661	965.95	80.05
1001.0785	2746.3744	959.75	78.8
1001.1996	2747.582	957.75	77.9
1001.3206	2748.7889	958.45	75.1
1001.4415	2749.9952	955.15	73.15
1001.5625	2751.2008	957.15	77.95
1001.6833	2752.4057	954.05	69
1001.8042	2753.61	954.1	73.3
1001.925	2754.8136	958.65	74.2
1002.0458	2756.0165	952.3	71.45
1002.1665	2757.2188	956.05	74.85
1002.2872	2758.4204	953.2	71.85
1002.4078	2759.6213	954.05	68.8
1002.5285	2760.8215	958.05	74.45
1002.649	2762.0211	959.2	77.1
1002.7696	2763.22	956	69.1
1002.8901	2764.4182	954.65	71.3
1003.0106	2765.6158	952.1	70.6
1003.131	2766.8127	952	71.15
1003.2514	2768.009	952.4	69.85
1003.3717	2769.2045	953.1	70.2
1003.492	2770.3994	955.3	72
1003.6123	2771.5936	950.8	69.45
1003.7325	2772.7872	948.7	69.65
1003.8527	2773.9801	950.45	67.5
1003.9729	2775.1723	964.4	65.6
1004.093	2776.3639	947.6	67.25
1004.2131	2777.5548	946.3	61.35
1004.3331	2778.745	948.45	65.55
1004.4531	2779.9346	948.55	68.25
1004.5731	2781.1235	945.9	63.75
1004.693	2782.3117	948	68.5
1004.8129	2783.4992	945.7	66.4
1004.9328	2784.6861	946.2	65.6
1005.0526	2785.8723	952.7	71.1
1005.1723	2787.0579	948.35	67.15
1005.2921	2788.2428	951.3	69.75
1005.4118	2789.427	948.15	67.8
1005.5314	2790.6106	945.15	62.45
1005.651	2791.7935	949.15	67.2
1005.7706	2792.9757	950.2	69.2
1005.8902	2794.1573	952.2	71.35
1006.0097	2795.3382	950.25	70.9
1006.1291	2796.5184	943.65	62.8
1006.2485	2797.698	953.65	71.05
1006.3679	2798.8769	950.05	69.6
1006.4873	2800.0551	951.1	70.2
1006.6066	2801.2327	956.4	73
1006.7258	2802.4096	951.6	73.05
1006.8451	2803.5859	955.35	71.95
1006.9642	2804.7615	954.6	73.6
1007.0834	2805.9364	953.9	72.7
1007.2025	2807.1106	953.9	74.15
1007.3216	2808.2842	960.15	77.9
1007.4406	2809.4572	957.2	77
1007.5596	2810.6294	962.3	80.45
1007.6785	2811.801	960.65	80
1007.7975	2812.972	964.1	83.75
1007.9163	2814.1423	965.55	87.65
1008.0352	2815.3119	972.2	90.1
1008.154	2816.4808	969.7	88
1008.2727	2817.6491	983.25	100.1
1008.3914	2818.8167	983.5	105.75
1008.5101	2819.9837	995.2	108.95
1008.6288	2821.15	1003.7	123.6
1008.7474	2822.3157	1009.95	129
1008.8659	2823.4807	1019.45	137.8
1008.9844	2824.645	1033.65	151.75
1009.1029	2825.8086	1046.1	166.8
1009.2214	2826.9716	1057.35	178.5
1009.3398	2828.134	1071	192.25
1009.4581	2829.2957	1081.5	201.35
1009.5764	2830.4567	1094.9	216.8
1009.6947	2831.617	1102.2	220.55
1009.813	2832.7767	1107.25	227.7
1009.9312	2833.9358	1100.55	221.3
1010.0493	2835.0941	1100.9	217.8
1010.1675	2836.2519	1099.6	219.15
1010.2855	2837.4089	1091.85	209.6
1010.4036	2838.5653	1080.35	199.25
1010.5216	2839.7211	1078.6	199.6
1010.6396	2840.8761	1077.15	194.85
1010.7575	2842.0306	1073.95	194.4
1010.8754	2843.1843	1074.75	195
1010.9932	2844.3374	1081.1	200.5
1011.111	2845.4899	1081.5	200.9
1011.2288	2846.6417	1087.55	206.2
1011.3465	2847.7928	1086.8	207.75
1011.4642	2848.9433	1088.85	208.9
1011.5818	2850.0931	1090.95	211
1011.6995	2851.2422	1086.95	205.2
1011.817	2852.3907	1092.65	213.05
1011.9345	2853.5385	1097.75	217.45
1012.052	2854.6857	1122.9	213.75
1012.1695	2855.8323	1098.2	218.2
1012.2869	2856.9781	1104.55	224.25
1012.4042	2858.1233	1105.9	226.3
1012.5216	2859.2679	1112.35	231.35
1012.6389	2860.4118	1118.65	238.65
1012.7561	2861.555	1129.1	244.5
1012.8733	2862.6976	1130.85	247.7
1012.9905	2863.8395	1136.2	257.25
1013.1076	2864.9808	1135.95	255.45
1013.2247	2866.1214	1137.4	257.3
1013.3417	2867.2614	1138.1	256.4
1013.4587	2868.4007	1148.45	267.45
1013.5757	2869.5393	1151.45	268.9
1013.6926	2870.6773	1157.1	272.6
1013.8095	2871.8146	1162.2	277.55
1013.9263	2872.9513	1166.25	282.25
1014.0431	2874.0874	1166.05	282.6
1014.1599	2875.2227	1165.3	284.75
1014.2766	2876.3574	1168.45	285.85
1014.3933	2877.4915	1169.5	288.8
1014.51	2878.6249	1175.35	296.85
1014.6266	2879.7577	1177.7	296.75
1014.7431	2880.8898	1193.65	302.55
1014.8596	2882.0212	1189.05	310.2
1014.9761	2883.152	1193.85	313.6
1015.0925	2884.2821	1192.5	313.4
1015.2089	2885.4116	1194.05	313.1
1015.3253	2886.5405	1201.1	322.25
1015.4416	2887.6686	1201.3	317.95
1015.5579	2888.7962	1205.6	328.15
1015.6741	2889.923	1201.65	323.5
1015.7903	2891.0493	1203.6	325.6
1015.9065	2892.1748	1201.15	320.25
1016.0226	2893.2997	1208.65	328
1016.1387	2894.424	1203.85	324.55
1016.2547	2895.5476	1210.05	328.4
1016.3707	2896.6706	1205.6	327.85
1016.4866	2897.7929	1208.5	328.1
1016.6025	2898.9145	1200.2	318.9
1016.7184	2900.0355	1201.75	321.55
1016.8342	2901.1559	1211.2	328.7
1016.95	2902.2756	1206.7	319.05
1017.0658	2903.3946	1198.7	320.65
1017.1815	2904.513	1204.6	319.5
1017.2971	2905.6308	1195.2	315.75
1017.4127	2906.7479	1191.95	312
1017.5283	2907.8643	1198.75	316.75
1017.6439	2908.9801	1200.35	319.15
1017.7594	2910.0953	1193.45	314.55
1017.8748	2911.2098	1196.3	314.3
1017.9902	2912.3236	1199.95	311.35
1018.1056	2913.4368	1196.55	312.1
1018.2209	2914.5494	1190.2	308.2
1018.3362	2915.6613	1190.85	305.95
1018.4515	2916.7725	1186.95	305.2
1018.5667	2917.8831	1181.7	299.8
1018.6819	2918.9931	1180.15	298.2
1018.797	2920.1024	1170.2	289.3
1018.9121	2921.211	1166.05	288.35
1019.0271	2922.319	1155.7	274.1
1019.1421	2923.4264	1159.6	280.05
1019.2571	2924.5331	1157.2	277.65
1019.372	2925.6391	1159.85	280.2
1019.4869	2926.7445	1157.7	278.35
1019.6017	2927.8493	1156.05	276
1019.7165	2928.9534	1155.2	275.55
1019.8313	2930.0569	1162.85	280.8
1019.946	2931.1597	1161.8	279.6
1020.0606	2932.2619	1163.2	283.05
1020.1753	2933.3634	1169.6	289.05
1020.2899	2934.4643	1176.65	289.35
1020.4044	2935.5645	1176.25	289.85
1020.5189	2936.6641	1185.2	298.55
1020.6334	2937.763	1168.7	288.95
1020.7478	2938.8613	1169.35	287.7
1020.8622	2939.959	1178.4	294.1
1020.9765	2941.056	1163.55	284.95
1021.0908	2942.1523	1154.2	273.6
1021.2051	2943.248	1147.85	267.75
1021.3193	2944.3431	1129.8	249.65
1021.4334	2945.4375	1118.9	239.15
1021.5476	2946.5313	1111.1	232.6
1021.6617	2947.6244	1094.85	214.9
1021.7757	2948.7169	1081.2	200.2
1021.8897	2949.8087	1072.5	192.1
1022.0037	2950.8999	1061.25	182.6
1022.1176	2951.9904	1053.75	173.5
1022.2315	2953.0803	1046.65	166.05
1022.3453	2954.1696	1037.95	159.95
1022.4591	2955.2582	1033.65	153.15
1022.5728	2956.3462	1033.25	152.9
1022.6865	2957.4335	1025.75	144.75
1022.8002	2958.5202	1028	146.25
1022.9138	2959.6062	1028.25	147
1023.0274	2960.6916	1027.65	149.05
1023.141	2961.7764	1021.3	139.15
1023.2545	2962.8605	1026	146.85
1023.3679	2963.9439	1022.45	143.65
1023.4813	2965.0267	1022.85	142.15
1023.5947	2966.1089	1043.1	140.1
1023.708	2967.1905	1026.65	146.95
1023.8213	2968.2714	1022.6	144.3
1023.9346	2969.3516	1017.35	137.7
1024.0478	2970.4312	1024.4	136
1024.1609	2971.5102	1018.6	139
1024.274	2972.5885	1015.75	136.75
1024.3871	2973.6662	1021.9	136.9
1024.5002	2974.7432	1017.2	137.6
1024.6132	2975.8196	1019.35	138.65
1024.7261	2976.8954	1020.7	143.15
1024.839	2977.9705	1019.15	140.45
1024.9519	2979.045	1017.25	138.35
1025.0647	2980.1188	1016.45	137.3
1025.1775	2981.192	1016.05	137.5
1025.2902	2982.2645	1014.25	131.4
1025.4029	2983.3364	1011.9	131.85
1025.5156	2984.4077	1004.15	123.8
1025.6282	2985.4783	1013.6	127.1
1025.7407	2986.5483	999.3	120
1025.8532	2987.6177	998.25	121.9
1025.9657	2988.6864	990.8	109.35
1026.0782	2989.7545	993.1	110.05
1026.1906	2990.8219	982.45	103.05
1026.3029	2991.8887	980.75	99.3
1026.4152	2992.9548	980.1	102.25
1026.5275	2994.0204	975.05	96.9
1026.6397	2995.0852	964.9	87.45
1026.7519	2996.1495	964.85	82.7
1026.864	2997.2131	962.15	81.7
1026.9761	2998.276	955.5	76.65
1027.0882	2999.3383	954.25	72.85
1027.2002	3000.4	950.25	72.25
1027.3122	3001.4611	944.9	62.85
1027.4241	3002.5215	943.3	62.35
1027.536	3003.5812	937.3	59.5
1027.6478	3004.6404	937.9	59.3
1027.7596	3005.6989	941.45	61.05
1027.8714	3006.7567	934.05	53.7
1027.9831	3007.8139	960.75	51.9
1028.0947	3008.8705	931.3	52.8
1028.2064	3009.9264	934.2	50.35
1028.3179	3010.9818	930.15	53.15
1028.4295	3012.0364	927.95	47.05
1028.541	3013.0905	928	49.4
1028.6524	3014.1439	927.45	47.65
1028.7638	3015.1966	927.25	48.6
1028.8752	3016.2487	926.5	48
1028.9865	3017.3002	929.65	46.45
1029.0978	3018.3511	925.1	45.9
1029.209	3019.4013	923.2	42.75
1029.3202	3020.4509	923.15	45.1
1029.4314	3021.4998	925.2	46.2
1029.5425	3022.5481	922.2	42.45
1029.6535	3023.5958	925.85	45.9
1029.7645	3024.6428	925.4	44
1029.8755	3025.6892	923.5	44.75
1029.9864	3026.735	920.8	41.4
1030.0973	3027.7802	922.25	41.55
1030.2082	3028.8247	925.55	46.35
1030.319	3029.8685	924.05	43.55
1030.4297	3030.9118	922.7	44.1
1030.5404	3031.9544	919.55	39.45
1030.6511	3032.9963	922.6	44.4
1030.7617	3034.0376	921.25	40.2
1030.8723	3035.0783	925.4	44.45
1030.9829	3036.1184	920.7	41.05
1031.0934	3037.1578	922.25	43.85
1031.2038	3038.1966	923.65	42.45
1031.3142	3039.2348	922.4	43.6
1031.4246	3040.2723	931.5	45.15
1031.5349	3041.3092	922.15	43.7
1031.6452	3042.3455	922.15	41.7
1031.7554	3043.3811	922.6	41.25
1031.8656	3044.4161	921.7	41.85
1031.9758	3045.4505	921.9	43.85
1032.0859	3046.4842	924.4	43.6
1032.1959	3047.5173	923.35	44.5
1032.3059	3048.5498	921.65	43.1
1032.4159	3049.5816	923.3	43.75
1032.5258	3050.6128	922.35	42.75
1032.6357	3051.6434	926.05	45.7
1032.7455	3052.6734	924	44.4
1032.8553	3053.7027	925.15	44.55
1032.9651	3054.7314	925	47.45
1033.0748	3055.7594	924.35	45.25
1033.1845	3056.7868	924.85	46.65
1033.2941	3057.8136	924.1	45.3
1033.4037	3058.8398	922.8	44.7
1033.5132	3059.8653	923.65	44.25
1033.6227	3060.8902	923.95	45.35
1033.7321	3061.9145	923.95	45.7
1033.8415	3062.9381	927.75	47.7
1033.9509	3063.9612	943.05	49.95
1034.0602	3064.9835	929.15	49.95
1034.1694	3066.0053	929.95	47.3
1034.2787	3067.0264	927.7	48.95
1034.3878	3068.0469	930.05	50.35
1034.497	3069.0668	929.2	47.1
1034.6061	3070.086	925.9	49.6
1034.7151	3071.1046	923.85	43.4
1034.8241	3072.1226	925.85	43.6
1034.9331	3073.1399	922	44.35
1035.042	3074.1567	921.95	41.25
1035.1508	3075.1727	925.05	45.05
1035.2597	3076.1882	923.8	45.2
1035.3684	3077.203	921.1	42.9
1035.4772	3078.2173	922.1	41.8
1035.5859	3079.2308	921.5	38
1035.6945	3080.2438	918.7	39.25
1035.8031	3081.2561	917.2	38.85
1035.9117	3082.2678	915.8	38.15
1036.0202	3083.2789	916.05	37.45
1036.1286	3084.2893	914.45	35.25
1036.2371	3085.2991	913.9	34.2
1036.3454	3086.3083	919.85	37.8
1036.4538	3087.3169	915.9	35
1036.562	3088.3248	914.3	30.35
1036.6703	3089.3321	914.35	33.05
1036.7785	3090.3388	909.7	31.85
1036.8866	3091.3449	911.3	31.15
1036.9948	3092.3503	911.75	29.3
1037.1028	3093.3551	908.35	30.75
1037.2108	3094.3593	908.75	29.9
1037.3188	3095.3629	906.9	29.35
1037.4267	3096.3658	910.85	29.1
1037.5346	3097.3681	908.4	29.55
1037.6425	3098.3698	910.85	27.95
1037.7503	3099.3708	907.85	28.15
1037.858	3100.3713	907.4	27.65
1037.9657	3101.3711	909.7	29.5
1038.0734	3102.3702	1043.95	26.65
1038.181	3103.3688	911	31.5
1038.2886	3104.3667	906.75	29.55
1038.3961	3105.364	904.3	25.4
1038.5036	3106.3607	908.2	27.9
1038.611	3107.3568	906.25	25
1038.7184	3108.3522	905.85	27.35
1038.8257	3109.347	908.05	27.3
1038.933	3110.3412	906.55	24.8
1039.0403	3111.3348	904.45	25.05
1039.1475	3112.3277	904.75	24.35
1039.2547	3113.32	901.55	24.05
1039.3618	3114.3117	903.05	24.6
1039.4689	3115.3028	902.9	22.25
1039.5759	3116.2932	907.8	27.05
1039.6829	3117.2831	909	24.25
1039.7898	3118.2723	901.75	23.3
1039.8967	3119.2608	902.8	23.8
1040.0035	3120.2488	901.55	22.8
1040.1103	3121.2361	903.25	23.55
1040.2171	3122.2229	900.75	21.7
1040.3238	3123.209	900.05	20.35
1040.4305	3124.1944	900.75	22.85
1040.5371	3125.1793	901.8	20.8
1040.6437	3126.1635	898.85	21.3
1040.7502	3127.1471	897.35	20.2
1040.8567	3128.1301	898	19.6
1040.9631	3129.1125	899.65	20.05
1041.0695	3130.0942	898.15	18.1
1041.1759	3131.0753	907.4	23.65
1041.2822	3132.0558	899.75	16.6
1041.3884	3133.0357	899	19.5
1041.4946	3134.015	899.5	18.35
1041.6008	3134.9936	898.25	18.8
1041.7069	3135.9716	916.9	16.05
1041.813	3136.949	899.25	20.65
1041.919	3137.9258	915.5	19.35
1042.025	3138.902	905.1	21
1042.1309	3139.8775	898.4	19.9
1042.2368	3140.8524	896	16.5
1042.3427	3141.8267	897.95	16.75
1042.4485	3142.8004	895.05	15
1042.5542	3143.7735	903.75	19.25
1042.6599	3144.7459	898.6	17.75
1042.7656	3145.7178	898.55	17.85
1042.8712	3146.689	896.35	18.85
1042.9768	3147.6596	898	15.5
1043.0823	3148.6295	897.65	19.15
1043.1878	3149.5989	897.45	18.25
1043.2932	3150.5676	894.35	17.2
1043.3986	3151.5357	893.8	14.55
1043.5039	3152.5032	894.8	15
1043.6092	3153.4701	892.65	13.7
1043.7145	3154.4364	897.1	13.75
1043.8197	3155.402	895.85	20.2
1043.9248	3156.367	897.3	16.5
1044.03	3157.3315	933	17.9
1044.135	3158.2952	893.9	14.8
1044.24	3159.2584	894	14.4
1044.345	3160.221	897.5	16.85
1044.4499	3161.1829	894.7	16.25
1044.5548	3162.1442	895.75	16.9
1044.6596	3163.105	894.7	14.8
1044.7644	3164.065	893.85	15.45
1044.8692	3165.0245	895	13.95
1044.9739	3165.9834	893.9	17.1
1045.0785	3166.9416	891.7	13.2
1045.1831	3167.8993	891.8	12.7
1045.2877	3168.8563	892.35	10.65
1045.3922	3169.8127	895.2	17.4
1045.4966	3170.7684	894.55	17.75
1045.6011	3171.7236	896.4	16.3
1045.7054	3172.6782	894.4	17.05
1045.8098	3173.6321	894.8	14.5
1045.914	3174.5854	897.9	14.2
1046.0183	3175.5381	893	14.25
1046.1224	3176.4902	891.25	14.1
1046.2266	3177.4417	891.9	13.85
1046.3307	3178.3926	893	15.5
1046.4347	3179.3428	890.1	12.1
1046.5387	3180.2924	892.15	13.35
1046.6427	3181.2415	892.95	14
1046.7466	3182.1899	895.05	14
1046.8504	3183.1377	894	15.95
1046.9542	3184.0848	896.15	13.8
1047.058	3185.0314	892	12.15
1047.1617	3185.9773	891.9	12.9
1047.2654	3186.9227	892.9	13.3
1047.369	3187.8674	891.6	12.6
1047.4726	3188.8115	895.3	11.5
1047.5761	3189.755	891.55	14.9
1047.6796	3190.6979	892.75	13.65
1047.783	3191.6402	889.2	10.6
1047.8864	3192.5818	891.25	13.15
1047.9898	3193.5229	917.05	14.5
1048.0931	3194.4633	893.25	12.8
1048.1963	3195.4031	891.8	12.35
1048.2995	3196.3423	891.1	10.3
1048.4027	3197.2809	889.75	11.15
1048.5058	3198.2189	890.85	9.7
1048.6089	3199.1563	897.1	10.35
1048.7119	3200.0931	890.3	12.3
1048.8148	3201.0292	889.65	12.35
1048.9178	3201.9648	891.45	15.4
1049.0206	3202.8997	892.7	11.65
1049.1235	3203.834	890.75	11.8
1049.2262	3204.7677	889.6	12.75
1049.329	3205.7008	890.35	10.45
1049.4317	3206.6333	891.05	12.4
1049.5343	3207.5652	890.65	9.3
1049.6369	3208.4964	890.25	10.7
1049.7394	3209.4271	889.25	10.6
1049.8419	3210.3571	888.65	10.85
1049.9444	3211.2865	892.85	14.15
1050.0468	3212.2154	890.7	10.6
1050.1491	3213.1436	892.9	11.2
1050.2514	3214.0712	899.25	14.45
1050.3537	3214.9982	889.55	12.15
1050.4559	3215.9246	890.4	10.9
1050.5581	3216.8503	887.65	10.4
1050.6602	3217.7755	890.85	11.1
1050.7623	3218.7001	890.8	12.75
1050.8643	3219.624	890.25	11.2
1050.9663	3220.5473	891.85	14
1051.0682	3221.4701	890.45	10.2
1051.1701	3222.3922	892.35	12
1051.2719	3223.3137	890.55	11.55
1051.3737	3224.2346	887	8.7
1051.4754	3225.1549	886.8	9.25
1051.5771	3226.0746	886.8	10.25
1051.6788	3226.9937	888.85	11.7
1051.7804	3227.9121	889.6	10.55
1051.8819	3228.83	890	11
1051.9834	3229.7473	888.45	9.8
1052.0849	3230.6639	892.25	13.5
1052.1863	3231.5799	889.45	10.9
1052.2876	3232.4954	888.9	5.9
1052.3889	3233.4102	887.25	9.2
1052.4902	3234.3244	888.45	10.95
1052.5914	3235.238	885.15	7.5
1052.6926	3236.151	911	7.5
1052.7937	3237.0634	888.5	9.85
1052.8948	3237.9752	888.3	12.1
1052.9958	3238.8864	888	8.75
1053.0968	3239.797	888.4	9.05
1053.1977	3240.7069	887.65	8.15
1053.2986	3241.6163	890.35	12.9
1053.3994	3242.5251	887	12.8
1053.5002	3243.4332	885.75	9.25
1053.6009	3244.3408	887.25	7.55
1053.7016	3245.2477	884.85	5.75
1053.8022	3246.154	889.5	9.25
1053.9028	3247.0598	886.7	6.95
1054.0034	3247.9649	888.2	8
1054.1039	3248.8694	891.25	12.25
1054.2043	3249.7733	886	5.6
1054.3047	3250.6766	886.95	9.45
1054.4051	3251.5793	890.1	9.9
1054.5054	3252.4814	887.7	10.65
1054.6056	3253.3829	886.05	6.3
1054.7058	3254.2838	886	9.05
1054.806	3255.1841	886.3	8
1054.9061	3256.0838	887.8	10.05
1055.0061	3256.9829	885.75	6.8
1055.1062	3257.8814	888.35	6.35
1055.2061	3258.7792	889.9	8.6
1055.306	3259.6765	889.15	8.5
1055.4059	3260.5731	886.55	7.25
1055.5057	3261.4692	888.4	10.75
1055.6055	3262.3647	884.45	4.45
1055.7052	3263.2595	887.6	10.35
1055.8049	3264.1538	886.2	6.75
1055.9045	3265.0474	886.95	7.5
1056.0041	3265.9404	884.2	5.5
1056.1036	3266.8329	884.4	3.6
1056.2031	3267.7247	896.2	7.25
1056.3025	3268.616	884.25	7.4
1056.4019	3269.5066	886.25	5.95
1056.5013	3270.3966	886.2	5.45
1056.6005	3271.286	883.7	6.2
