Software Version:	3.9.2.0
Unit SN:	10000200
Spectrometer SN:	6960
Date:	3/8/2024 1:16:16 PM
Data Line Index:	25
Spectral Points:	2048
Integration time (ms):	125
Averages:	20
Delay (ms):	30000
Sequence Number:	1
Processing:	dark subtract
Laser Power (mW):	305
Laser Current (mA):	823
Laser Diode Temp (C):	25.1
Laser Case Temp (C):	26.1
System Temp (C):	26.1
Spectrometer Temp (C):	24
CCD Temp (C):	0.004
Secondary Temp (C):	20.004
Heatsink Temp (C):	20.39
CCDPCB Temp (C):	35.996
SecondaryPCB Temp (C):	29.971

Wavelength	RamanShift	Raw Counts	Dark Subtracted
787.061	30.1047	453.9	45.1
787.2016	32.3739	456.55	50.75
787.3422	34.6426	459.45	51.6
787.4828	36.9109	467.75	60.2
787.6235	39.1787	473.4	59.9
787.7642	41.4461	486	66.5
787.9049	43.7131	491.7	70.8
788.0456	45.9796	498.35	73.45
788.1863	48.2456	506.4	78.9
788.3271	50.5112	516.4	86.1
788.4679	52.7764	525.05	89.8
788.6087	55.0411	538.45	100.45
788.7496	57.3054	547.35	100.3
788.8904	59.5692	554.6	108.25
789.0313	61.8326	570.45	121.35
789.1722	64.0955	578.35	126.9
789.3132	66.3579	594.45	137.05
789.4541	68.6199	610.15	148.35
789.5951	70.8815	649	182.9
789.7361	73.1426	725.2	256.65
789.8771	75.4032	926.2	452.5
790.0181	77.6634	1424	946.95
790.1592	79.9231	2573.4	2088.2
790.3003	82.1824	5073.9	4570.55
790.4414	84.4412	9574.7	9043.2
790.5825	86.6995	15716.95	15151.1
790.7237	88.9574	21705.3	21108.25
790.8648	91.2148	25870.55	25250.5
791.006	93.4717	27701.25	27068.1
791.1472	95.7282	28060.95	27423.8
791.2885	97.9842	27839.7	27198.6
791.4297	100.2398	27222.45	26580.1
791.571	102.4949	26531.95	25883.1
791.7123	104.7495	25702.6	25056.4
791.8536	107.0036	24824.45	24175.3
791.9949	109.2573	24069.95	23418.65
792.1363	111.5105	23307.85	22655.25
792.2777	113.7632	22614.05	21958.15
792.4191	116.0154	22059.55	21393.5
792.5605	118.2672	21586.15	20928.9
792.7019	120.5185	21157.35	20498.9
792.8434	122.7693	20814.15	20152.65
792.9849	125.0197	20505.95	19839.85
793.1264	127.2696	20216.85	19545.35
793.2679	129.519	20062.95	19388.45
793.4094	131.7679	19790.45	19112.3
793.551	134.0163	19588.35	18909.85
793.6926	136.2642	19323.2	18637.9
793.8342	138.5117	19045.75	18351.7
793.9758	140.7587	18761.65	18077.55
794.1175	143.0052	18486.5	17794.1
794.2591	145.2512	18176.6	17487.85
794.4008	147.4967	17973.9	17279.7
794.5425	149.7417	17756.45	17063.65
794.6842	151.9863	17639.35	16941.1
794.826	154.2304	17554.85	16849.1
794.9677	156.4739	17411.65	16700.3
795.1095	158.717	17335.9	16624.55
795.2513	160.9596	17195.4	16481.9
795.3931	163.2017	16932.7	16219.05
795.535	165.4433	16620.85	15903.8
795.6768	167.6844	16280.05	15563.3
795.8187	169.925	15995.9	15274.15
795.9606	172.1651	15629.75	14910.35
796.1025	174.4047	15333.1	14606.2
796.2445	176.6439	15065.15	14338.5
796.3864	178.8825	14865.2	14131.05
796.5284	181.1206	14715.3	13976.75
796.6704	183.3582	14575.05	13837.55
796.8124	185.5954	14462.95	13723.8
796.9544	187.832	14367.4	13620.75
797.0965	190.0681	14368.7	13616.05
797.2386	192.3037	14329.9	13579.05
797.3806	194.5388	14345.65	13590.5
797.5228	196.7734	14372.25	13613.85
797.6649	199.0075	14429.75	13671.3
797.807	201.2411	14550.15	13793.4
797.9492	203.4742	14645.7	13880
798.0914	205.7068	14811.4	14043.45
798.2336	207.9389	14904.55	14136.65
798.3758	210.1704	15053.05	14290.1
798.518	212.4015	15170.75	14421.1
798.6603	214.632	15319.55	14577.95
798.8025	216.862	15497.75	14757.45
798.9448	219.0915	15628.65	14883.5
799.0871	221.3205	15796.3	15046.35
799.2294	223.549	15964.05	15222.6
799.3718	225.777	16227.6	15484.75
799.5141	228.0044	16477.15	15724.55
799.6565	230.2314	16812.35	16060.85
799.7989	232.4578	17127.15	16375.4
799.9413	234.6837	17381.75	16622.4
800.0837	236.909	17565.7	16797.75
800.2262	239.1339	17565.5	16772.05
800.3687	241.3582	17399.3	16621.8
800.5111	243.582	17167.4	16362.9
800.6536	245.8053	16917.05	16127.4
800.7961	248.0281	16722.75	15937.1
800.9387	250.2503	16525.3	15734.9
801.0812	252.472	16488.8	15698.25
801.2238	254.6932	16491.15	15698.8
801.3664	256.9139	16455.5	15664.5
801.509	259.134	16592.6	15798.95
801.6516	261.3536	16696.2	15900.5
801.7942	263.5727	16802.6	16001.2
801.9369	265.7912	16911.1	16110.7
802.0795	268.0092	17030	16234.35
802.2222	270.2267	17069.75	16273.05
802.3649	272.4436	17128.95	16326.85
802.5076	274.6601	17067	16257.9
802.6504	276.8759	17003.6	16205.6
802.7931	279.0913	16934.85	16130.7
802.9359	281.3061	16826.3	16016.1
803.0787	283.5204	16827.35	16015.85
803.2215	285.7341	16858.65	16046.85
803.3643	287.9473	16979.55	16152.45
803.5071	290.16	17128.95	16312.1
803.6499	292.3721	17383.4	16573.95
803.7928	294.5837	17693.1	16880.2
803.9357	296.7947	17994.5	17187.8
804.0786	299.0052	18199.35	17391.9
804.2215	301.2152	18084.9	17268.15
804.3644	303.4246	17796.7	16986.6
804.5074	305.6334	17348.75	16536.65
804.6503	307.8418	16887.35	16069.55
804.7933	310.0495	16486.55	15667.55
804.9363	312.2568	16121.6	15303.85
805.0793	314.4635	15851.7	15031.15
805.2223	316.6696	15673.7	14855.15
805.3653	318.8752	15530.1	14700.25
805.5084	321.0802	15584.2	14757.8
805.6514	323.2847	15656.4	14827.35
805.7945	325.4887	15678.65	14851.55
805.9376	327.692	15624.1	14797.05
806.0807	329.8949	15547.15	14719.25
806.2238	332.0972	15311.65	14484.7
806.367	334.2989	15072.4	14236.4
806.5101	336.5001	14757.75	13926.15
806.6533	338.7007	14598.85	13762.65
806.7965	340.9008	14485.7	13647.65
806.9397	343.1003	14332.95	13501.1
807.0829	345.2992	14293.55	13454.45
807.2261	347.4976	14238.2	13402.3
807.3693	349.6955	14196.3	13351.65
807.5126	351.8927	14264.25	13418.55
807.6559	354.0895	14207.9	13357.45
807.7991	356.2856	14235.45	13388.15
807.9424	358.4812	14227.95	13382.65
808.0857	360.6763	14230.85	13382.75
808.2291	362.8707	14210.8	13365.5
808.3724	365.0646	14273.45	13424.55
808.5158	367.258	14294.25	13443.9
808.6591	369.4508	14338.9	13481.9
808.8025	371.643	14432.95	13579.35
808.9459	373.8346	14433.6	13579.15
809.0893	376.0257	14476.9	13617.95
809.2327	378.2162	14414.65	13561.8
809.3762	380.4062	14376.5	13520.15
809.5196	382.5956	14248	13395.95
809.6631	384.7844	14142.55	13291.25
809.8066	386.9726	14028.5	13185.7
809.9501	389.1603	13957.1	13110.85
810.0936	391.3474	13936.65	13053.35
810.2371	393.5339	13901.75	13051.8
810.3806	395.7199	13870	13018
810.5241	397.9052	13870.85	13023.9
810.6677	400.09	13947.6	13095.35
810.8113	402.2743	14015.55	13167.95
810.9548	404.4579	14092.15	13241.7
811.0984	406.641	14299.45	13446.2
811.2421	408.8235	14524.35	13673.65
811.3857	411.0054	14779.25	13921.45
811.5293	413.1868	15094.5	14231.25
811.673	415.3675	15336.25	14469.85
811.8166	417.5477	15487.6	14622.1
811.9603	419.7273	15475.15	14614.05
812.104	421.9064	15378.8	14510.9
812.2477	424.0848	15261.25	14396.25
812.3914	426.2627	15091.25	14227.9
812.5351	428.4399	14854.2	13987.6
812.6788	430.6166	14462.9	13591.65
812.8226	432.7928	14116.95	13244.1
812.9663	434.9683	13807.15	12940.2
813.1101	437.1432	13619.5	12751.35
813.2539	439.3176	13425.7	12561.85
813.3977	441.4914	13305.05	12441.5
813.5415	443.6645	13298.4	12434.35
813.6853	445.8371	13239.55	12375.4
813.8291	448.0091	13219.25	12350.95
813.973	450.1806	13177.3	12310.3
814.1168	452.3514	13157.3	12293.1
814.2607	454.5216	13174.7	12296.45
814.4046	456.6913	13115.65	12241.55
814.5485	458.8603	13174.3	12307.5
814.6924	461.0288	13189.55	12325.95
814.8363	463.1967	13217.1	12354.9
814.9802	465.3639	13312.5	12446.3
815.1241	467.5306	13371.3	12504.8
815.2681	469.6967	13475.6	12614.75
815.412	471.8622	13574.65	12712.7
815.556	474.0271	13681.8	12815.15
815.7	476.1914	13740.25	12867.75
815.844	478.3551	13711.35	12840.55
815.988	480.5182	13745.65	12878.55
816.132	482.6807	13764.85	12901.25
816.276	484.8426	13890.75	13036.6
816.4201	487.0039	14213.65	13354.05
816.5641	489.1647	14614.9	13743.35
816.7082	491.3248	15031.85	14160.15
816.8522	493.4843	15154.9	14286.7
816.9963	495.6432	15134.6	14264.9
817.1404	497.8015	15020.15	14142.45
817.2845	499.9592	14966.95	14085.05
817.4286	502.1163	14862.55	13984.5
817.5727	504.2728	14609.3	13733.7
817.7168	506.4287	14320.85	13456
817.861	508.5839	13938.45	13070.4
818.0051	510.7386	13666.7	12793.35
818.1493	512.8927	13522.6	12638.1
818.2935	515.0461	13446.1	12567.4
818.4377	517.199	13481.65	12603
818.5818	519.3512	13519.7	12636.8
818.726	521.5029	13676.85	12790.5
818.8703	523.6539	13820.65	12943.1
819.0145	525.8043	13873.9	12991.5
819.1587	527.9541	13875.95	12993.15
819.303	530.1033	13821.05	12937.45
819.4472	532.2519	13762.95	12878.2
819.5915	534.3999	13810.65	12927.95
819.7357	536.5472	13991.95	13112.45
819.88	538.694	14354.65	13478.2
820.0243	540.8401	14838.65	13956.35
820.1686	542.9856	15207.9	14320.3
820.3129	545.1305	15335.35	14436.95
820.4572	547.2748	15221.1	14320.6
820.6016	549.4185	14938.9	14038.85
820.7459	551.5615	14638.4	13740.45
820.8902	553.704	14563.25	13671.25
821.0346	555.8458	14544.35	13658.3
821.1789	557.987	14633.25	13747
821.3233	560.1276	14734.6	13843.45
821.4677	562.2675	14911.05	14022.05
821.6121	564.4069	15124.25	14233.85
821.7565	566.5456	15305.4	14416.6
821.9009	568.6837	15323.2	14437.85
822.0453	570.8212	14999.65	14110.8
822.1897	572.958	14507.8	13617.25
822.3342	575.0942	14100.85	13216.25
822.4786	577.2299	13837.05	12947.5
822.6231	579.3648	13723.15	12847
822.7675	581.4992	13722.45	12855.35
822.912	583.6329	13918.35	13051.5
823.0565	585.766	14130.55	13257.15
823.201	587.8985	14249.15	13372.2
823.3454	590.0304	14289.75	13380.6
823.4899	592.1616	14228.5	13336.6
823.6345	594.2922	14126.45	13233.75
823.779	596.4222	13950.05	13051.5
823.9235	598.5515	13770.9	12871.75
824.068	600.6802	13601.8	12703.95
824.2126	602.8083	13410.35	12516.95
824.3571	604.9358	13412.05	12518.9
824.5017	607.0626	13390.55	12496.7
824.6462	609.1888	13371.65	12468.25
824.7908	611.3144	13427.65	12524
824.9354	613.4393	13436.05	12535.25
825.08	615.5636	13396.1	12496.15
825.2246	617.6873	13341.1	12443.1
825.3692	619.8103	13312	12414.65
825.5138	621.9327	13145.25	12243.3
825.6584	624.0544	13089.3	12193.35
825.803	626.1756	12957.6	12060.35
825.9477	628.2961	12886.75	11985.5
826.0923	630.4159	12833.05	11932.55
826.237	632.5351	12812	11912.65
826.3816	634.6537	12751.7	11848.55
826.5263	636.7716	12733.2	11825.2
826.6709	638.8889	12738.4	11832
826.8156	641.0056	12785.8	11878.95
826.9603	643.1216	12775.35	11865.3
827.105	645.237	12777.1	11873.25
827.2497	647.3518	12729.25	11830.25
827.3944	649.4659	12712.5	11817.45
827.5391	651.5793	12694.35	11800.85
827.6838	653.6922	12692	11793.1
827.8285	655.8043	12684.15	11787.4
827.9733	657.9159	12663	11762.7
828.118	660.0268	12633.05	11731.3
828.2627	662.137	12588.25	11686.7
828.4075	664.2466	12562	11651.75
828.5522	666.3556	12581	11671.45
828.697	668.4639	12551.65	11643.5
828.8418	670.5716	12544.45	11642.35
828.9865	672.6786	12582.5	11676
829.1313	674.785	12606.45	11696.4
829.2761	676.8907	12640.75	11732.4
829.4209	678.9958	12707.3	11807.7
829.5657	681.1002	12698.2	11792.45
829.7105	683.204	12681.8	11768.7
829.8553	685.3072	12661.5	11748.6
830.0001	687.4097	12584.5	11675.95
830.1449	689.5115	12576.8	11666.3
830.2898	691.6127	12529.85	11623.25
830.4346	693.7132	12450.65	11544.85
830.5794	695.8131	12458.3	11542.95
830.7243	697.9123	12465.25	11555.1
830.8691	700.0109	12452.5	11540.2
831.014	702.1089	12491.45	11577.9
831.1588	704.2061	12500.7	11590
831.3037	706.3028	12526.05	11611.3
831.4486	708.3987	12591.15	11679
831.5935	710.4941	12638	11724.85
831.7383	712.5887	12754.1	11840.95
831.8832	714.6827	12960	12047.6
832.0281	716.7761	13214.15	12305.35
832.173	718.8688	13505.25	12597.25
832.3179	720.9608	13672.3	12756.45
832.4628	723.0522	13766.85	12845.7
832.6077	725.1429	13676.4	12763.15
832.7527	727.233	13557.9	12644.95
832.8976	729.3224	13448.45	12536.05
833.0425	731.4112	13272.65	12357.2
833.1874	733.4993	13056.7	12143.1
833.3324	735.5867	12906.05	11991.7
833.4773	737.6735	12771.4	11857.55
833.6222	739.7596	12656.4	11744.5
833.7672	741.845	12546.9	11633.05
833.9122	743.9298	12513.05	11595.85
834.0571	746.014	12513.5	11597.45
834.2021	748.0974	12525.75	11603.95
834.347	750.1802	12532.55	11614.6
834.492	752.2624	12524.9	11605.8
834.637	754.3439	12598.85	11676.4
834.782	756.4247	12679.85	11752.05
834.9269	758.5048	12821.2	11904.95
835.0719	760.5843	13065.5	12140.8
835.2169	762.6631	13408.8	12484.65
835.3619	764.7413	13911	12993.45
835.5069	766.8188	14562.75	13642.7
835.6519	768.8956	15032.95	14111.5
835.7969	770.9718	15372.9	14455.05
835.9419	773.0473	15247.2	14329.4
836.0869	775.1221	14941.9	14022.45
836.232	777.1962	14614.15	13694.9
836.377	779.2697	14463.8	13540.4
836.522	781.3426	14509	13577.95
836.667	783.4147	14706.55	13786
836.8121	785.4862	14895.8	13977.5
836.9571	787.557	14835.4	13913.55
837.1021	789.6271	14496.05	13573.7
837.2472	791.6966	13913.45	12992.7
837.3922	793.7654	13353.9	12432.75
837.5373	795.8335	12994.85	12074.1
837.6823	797.901	12752.6	11832.95
837.8274	799.9678	12677.1	11752.5
837.9724	802.0339	12653.5	11731.9
838.1175	804.0993	12664.4	11729.55
838.2626	806.1641	12639.8	11716.75
838.4076	808.2282	12571.3	11651.85
838.5527	810.2916	12514.05	11590.5
838.6978	812.3544	12413.85	11497.85
838.8428	814.4164	12325.05	11405.15
838.9879	816.4778	12370.45	11449.7
839.133	818.5385	12374.8	11450.4
839.2781	820.5986	12499.75	11577.75
839.4232	822.658	12664.25	11741.6
839.5682	824.7166	12839.7	11917.1
839.7133	826.7747	13204	12276.5
839.8584	828.832	13539.15	12615.75
840.0035	830.8886	13740.65	12816.2
840.1486	832.9446	13898.35	12972.3
840.2937	834.9999	13840.95	12916.05
840.4388	837.0545	13769.4	12845.1
840.5839	839.1085	13555.65	12628.95
840.729	841.1618	13464.35	12534.05
840.8741	843.2143	13371.85	12445.8
841.0192	845.2662	13215.35	12288
841.1643	847.3175	13118.15	12193.7
841.3095	849.368	13013.9	12088.5
841.4546	851.4179	12922.15	11994.05
841.5997	853.467	12819.5	11896.65
841.7448	855.5155	12714.55	11789.4
841.8899	857.5633	12593.45	11666.65
842.0351	859.6105	12514.15	11588.9
842.1802	861.6569	12477.8	11550.7
842.3253	863.7027	12407.45	11476.55
842.4704	865.7478	12362.15	11433.75
842.6156	867.7922	12369.15	11443.25
842.7607	869.8359	12397.4	11471.6
842.9058	871.8789	12484.4	11549.95
843.0509	873.9212	12608.3	11648.8
843.1961	875.9629	12706.95	11778.9
843.3412	878.0039	12865.05	11934.35
843.4863	880.0441	12976.35	12051.05
843.6315	882.0837	13008.3	12083.3
843.7766	884.1226	12968.55	12037.1
843.9218	886.1609	12915.65	11988.95
844.0669	888.1984	12916.4	11984.9
844.212	890.2352	12981.2	12054.4
844.3572	892.2714	12969.8	12039.4
844.5023	894.3069	12965.65	12037.05
844.6475	896.3416	12838.95	11910.15
844.7926	898.3757	12733.3	11803.3
844.9377	900.4091	12703.95	11773
845.0829	902.4418	12733.7	11799.3
845.228	904.4739	12745.2	11809.65
845.3732	906.5052	12782.25	11847
845.5183	908.5358	12716.45	11785.7
845.6635	910.5658	12591.35	11661.05
845.8086	912.595	12366.05	11438.85
845.9538	914.6236	12196	11262.6
846.0989	916.6515	12128.4	11198.35
846.2441	918.6786	12072.4	11140.5
846.3892	920.7051	12124.05	11192.1
846.5344	922.7309	12212.2	11280.6
846.6795	924.756	12267.2	11337.55
846.8246	926.7804	12371.05	11441
846.9698	928.8041	12322.85	11388.4
847.1149	930.8272	12376.3	11445.5
847.2601	932.8495	12315.15	11380.55
847.4052	934.8711	12306.75	11372.9
847.5504	936.892	12188.05	11257.5
847.6955	938.9123	12102.55	11168
847.8407	940.9318	12040.15	11109.2
847.9858	942.9506	11978.35	11046.75
848.131	944.9688	11901.3	10966.25
848.2761	946.9862	11821.25	10891.35
848.4213	949.003	11736.35	10804.05
848.5664	951.019	11722.4	10790.85
848.7115	953.0344	11697.4	10765.25
848.8567	955.0491	11699.8	10765.55
849.0018	957.063	11790.2	10861.9
849.147	959.0763	11863.75	10934.65
849.2921	961.0888	11905.25	10972.95
849.4373	963.1007	11994.75	11064.35
849.5824	965.1119	12018.4	11091.9
849.7275	967.1223	12017.85	11098.4
849.8727	969.1321	12040.9	11120.05
850.0178	971.1412	12047.95	11124.45
850.1629	973.1495	12063.5	11135.5
850.3081	975.1572	12113.4	11137.15
850.4532	977.1641	12147.35	11218.25
850.5983	979.1704	12110.3	11179.35
850.7435	981.1759	12111.05	11175.65
850.8886	983.1808	12147.2	11215.35
851.0337	985.1849	12207.3	11262.5
851.1788	987.1884	12303.95	11371.95
851.324	989.1911	12456.95	11525.65
851.4691	991.1932	12587.6	11655.1
851.6142	993.1945	12599.8	11668.25
851.7593	995.1951	12558.25	11625.95
851.9045	997.1951	12516.45	11576.25
852.0496	999.1943	12458.5	11527.55
852.1947	1001.1928	12428.5	11493.1
852.3398	1003.1906	12442.65	11507.15
852.4849	1005.1877	12531.4	11598.85
852.63	1007.1841	12565.5	11636.15
852.7751	1009.1798	12522.8	11592.1
852.9202	1011.1748	12407.4	11477.95
853.0653	1013.1691	12231.85	11299.55
853.2104	1015.1627	12038.05	11108.5
853.3555	1017.1556	11794.5	10864.5
853.5006	1019.1477	11694.1	10768.35
853.6457	1021.1392	11592.45	10667.95
853.7908	1023.1299	11608.35	10689.6
853.9359	1025.12	11589.5	10669.75
854.081	1027.1093	11640.45	10731.85
854.2261	1029.0979	11752.2	10850.4
854.3712	1031.0859	11814.5	10905
854.5163	1033.0731	11853.65	10933.9
854.6613	1035.0596	11813.3	10892.1
854.8064	1037.0454	11705.9	10781.55
854.9515	1039.0304	11594.4	10665.5
855.0965	1041.0148	11447.95	10520.95
855.2416	1042.9985	11349.65	10422.55
855.3867	1044.9814	11313.25	10385.45
855.5317	1046.9636	11282.85	10352.1
855.6768	1048.9452	11249.6	10323.55
855.8219	1050.926	11297.7	10371.1
855.9669	1052.9061	11306.6	10375.55
856.112	1054.8855	11299.4	10366.9
856.257	1056.8642	11340.4	10410.8
856.4021	1058.8421	11411.95	10480.25
856.5471	1060.8194	11417.7	10488.25
856.6921	1062.7959	11461.7	10531.75
856.8372	1064.7717	11498.95	10566.95
856.9822	1066.7469	11543.1	10612.7
857.1272	1068.7213	11573.05	10640.8
857.2723	1070.695	11599.7	10669.95
857.4173	1072.6679	11581.4	10650.9
857.5623	1074.6402	11558.95	10628.55
857.7073	1076.6117	11554.2	10614.5
857.8523	1078.5826	11503.35	10570.05
857.9973	1080.5527	11460.35	10528.85
858.1423	1082.5221	11464.65	10536.5
858.2873	1084.4908	11552.05	10622.4
858.4323	1086.4587	11678	10746.7
858.5773	1088.426	11779.85	10849.2
858.7223	1090.3925	11803.1	10867.3
858.8673	1092.3584	11790.6	10860.5
859.0123	1094.3235	11715.4	10790.25
859.1573	1096.2879	11689.75	10761.7
859.3022	1098.2515	11732.45	10804.7
859.4472	1100.2145	11840.55	10913.7
859.5922	1102.1767	11962.85	11029.6
859.7371	1104.1382	12173	11244.5
859.8821	1106.099	12401.85	11467.95
860.027	1108.0591	12592.7	11661.75
860.172	1110.0185	12756.55	11824.25
860.3169	1111.9771	12818.1	11889.95
860.4619	1113.9351	12650.3	11720.7
860.6068	1115.8923	12418.25	11487.95
860.7517	1117.8488	12178.2	11245.45
860.8967	1119.8045	11940.15	11014.65
861.0416	1121.7596	11821.1	10890.9
861.1865	1123.7139	11761.1	10833.45
861.3314	1125.6675	11751.85	10822.85
861.4763	1127.6204	11804.95	10875.45
861.6212	1129.5726	11759	10830.6
861.7661	1131.524	11709.2	10778.05
861.911	1133.4748	11655.65	10726.85
862.0559	1135.4248	11556.4	10626.7
862.2008	1137.3741	11464	10536.5
862.3457	1139.3226	11431.7	10503.05
862.4905	1141.2705	11385.7	10457.15
862.6354	1143.2176	11260.15	10326.45
862.7803	1145.164	11249.05	10317.05
862.9251	1147.1097	11272.8	10343.5
863.07	1149.0546	11203.95	10275.9
863.2148	1150.9989	11096.95	10165.6
863.3597	1152.9424	11004.35	10072.6
863.5045	1154.8852	10864.45	9937.35
863.6493	1156.8272	10807.3	9878.45
863.7942	1158.7686	10824.9	9886.2
863.939	1160.7092	10789.1	9857.2
864.0838	1162.6491	10795.4	9861.8
864.2286	1164.5883	10876.5	9950.05
864.3734	1166.5267	10962.7	10031.3
864.5182	1168.4644	11106.95	10182.55
864.663	1170.4014	11277.5	10346.15
864.8078	1172.3377	11526.25	10600.1
864.9526	1174.2732	11803.05	10874.8
865.0974	1176.2081	12136.9	11210
865.2421	1178.1421	12460.2	11526.25
865.3869	1180.0755	12790.15	11862.5
865.5317	1182.0082	13018.85	12090.65
865.6764	1183.9401	13101.8	12174
865.8212	1185.8713	12940.45	12019.85
865.9659	1187.8017	12700.65	11785.1
866.1106	1189.7315	12415.35	11505.2
866.2554	1191.6605	12087.35	11175.1
866.4001	1193.5888	11858.5	10941.3
866.5448	1195.5163	11700.6	10778.65
866.6895	1197.4432	11637.8	10711.35
866.8342	1199.3693	11610.5	10685.1
866.9789	1201.2947	11572.75	10643.35
867.1236	1203.2193	11569.05	10643.65
867.2683	1205.1432	11572.85	10643.7
867.413	1207.0664	11569.1	10642.05
867.5576	1208.9889	11578.35	10647.8
867.7023	1210.9106	11582.35	10655.25
867.847	1212.8316	11588.4	10662.85
867.9916	1214.7519	11647.9	10713.35
868.1363	1216.6715	11658.35	10729.9
868.2809	1218.5903	11678.75	10749.7
868.4255	1220.5084	11713.75	10786.4
868.5701	1222.4257	11760.8	10834.45
868.7148	1224.3424	11773.4	10852.35
868.8594	1226.2583	11835.6	10906
869.004	1228.1735	11953.75	11026.35
869.1486	1230.0879	12012.55	11085.05
869.2932	1232.0016	12187.35	11263
869.4377	1233.9146	12249.75	11324.65
869.5823	1235.8269	12195.2	11268.3
869.7269	1237.7384	12108.05	11180.25
869.8715	1239.6492	11939.45	11012.3
870.016	1241.5592	11851.25	10926.25
870.1606	1243.4686	11837.9	10912.4
870.3051	1245.3772	11895.65	10969.9
870.4496	1247.285	11945.55	11016.6
870.5941	1249.1922	12026.3	11100.95
870.7387	1251.0986	12029.4	11103.3
870.8832	1253.0042	12059.1	11134.1
871.0277	1254.9092	12101.75	11175.55
871.1722	1256.8134	12162.95	11243.8
871.3167	1258.7169	12352.6	11426.9
871.4611	1260.6196	12511.25	11590.1
871.6056	1262.5216	12723.2	11797.5
871.7501	1264.4229	12894.5	11972
871.8945	1266.3234	13063.9	12138.75
872.039	1268.2232	13180	12255.65
872.1834	1270.1223	13229.5	12303.6
872.3278	1272.0207	13234.6	12308.35
872.4723	1273.9183	13188.45	12257.4
872.6167	1275.8151	13107.05	12184.8
872.7611	1277.7113	13048.05	12125.15
872.9055	1279.6067	13016.5	12093.7
873.0499	1281.5014	13045.2	12118.3
873.1943	1283.3953	13193.95	12266.85
873.3386	1285.2885	13384.7	12460.45
873.483	1287.181	13597.65	12673.85
873.6274	1289.0727	13843.65	12923
873.7717	1290.9637	14036.1	13111.85
873.9161	1292.854	14180.65	13256.6
874.0604	1294.7435	14243.55	13319.8
874.2047	1296.6323	14294.2	13372.65
874.349	1298.5204	14350.5	13420.75
874.4933	1300.4077	14414.75	13491.8
874.6376	1302.2943	14424.6	13499.6
874.7819	1304.1802	14309.05	13384.55
874.9262	1306.0653	14056.7	13131.55
875.0705	1307.9497	13756.95	12835.4
875.2147	1309.8333	13506.05	12582.4
875.359	1311.7162	13336.6	12415.4
875.5032	1313.5984	13273.1	12350.15
875.6475	1315.4798	13247.35	12318.7
875.7917	1317.3605	13247.25	12305.45
875.9359	1319.2405	13230.55	12302.3
876.0801	1321.1197	13110.9	12186.45
876.2243	1322.9982	12900.1	11971.95
876.3685	1324.876	12762.25	11835.95
876.5127	1326.753	12581.9	11655.7
876.6569	1328.6293	12514.55	11587.55
876.801	1330.5048	12427.05	11499.7
876.9452	1332.3796	12321.6	11398.1
877.0893	1334.2537	12270.65	11324.4
877.2335	1336.127	12211.45	11288.4
877.3776	1337.9996	12202.75	11277.25
877.5217	1339.8714	12219.35	11296.4
877.6658	1341.7426	12227.3	11257.2
877.8099	1343.6129	12184.25	11257.2
877.954	1345.4826	12178.25	11252.6
878.0981	1347.3515	12151.35	11221.65
878.2422	1349.2196	12117.85	11193.95
878.3862	1351.087	12152.75	11229.8
878.5303	1352.9537	12193.45	11267.5
878.6743	1354.8197	12306.3	11382.4
878.8184	1356.6849	12461.3	11535.95
878.9624	1358.5493	12572.75	11646.9
879.1064	1360.4131	12667.75	11742.75
879.2504	1362.276	12693.1	11769.6
879.3944	1364.1383	12613.85	11689.4
879.5384	1365.9998	12412.65	11480.75
879.6823	1367.8606	12119.4	11192.65
879.8263	1369.7206	11769.65	10843
879.9702	1371.5799	11465.65	10540.55
880.1142	1373.4384	11256.1	10328.95
880.2581	1375.2962	11087.85	10161.8
880.402	1377.1533	10808.4	9885.2
880.5459	1379.0096	10453.8	9533.35
880.6898	1380.8652	10147.3	9228.9
880.8337	1382.7201	9882.45	8963.2
880.9776	1384.5742	9628.6	8705.2
881.1215	1386.4275	9463.35	8532.65
881.2653	1388.2802	9316.2	8389.95
881.4092	1390.132	9208.5	8284.9
881.553	1391.9832	9148.05	8222.65
881.6968	1393.8336	9088.95	8164.25
881.8406	1395.6832	9053.4	8129.25
881.9844	1397.5322	9015.5	8093.4
882.1282	1399.3803	8984.5	8056.9
882.272	1401.2278	8955.2	8035.05
882.4158	1403.0745	8947.05	8027.1
882.5595	1404.9204	8920.85	8000.55
882.7033	1406.7656	8966	8041.4
882.847	1408.6101	8978.05	8055.25
882.9908	1410.4538	9001.6	8077.9
883.1345	1412.2968	9027.8	8106.7
883.2782	1414.139	9067.3	8146.65
883.4219	1415.9805	9141.55	8216.7
883.5656	1417.8213	9251.45	8323.35
883.7092	1419.6613	9329.6	8407.7
883.8529	1421.5006	9508.5	8587.95
883.9965	1423.3391	9735	8813.15
884.1402	1425.1769	10007.5	9084.45
884.2838	1427.0139	10480.6	9557.7
884.4274	1428.8502	11035.75	10112.8
884.571	1430.6858	11574.8	10655.2
884.7146	1432.5206	11949.1	11026.35
884.8582	1434.3547	12167.55	11243.45
885.0018	1436.188	12190.45	11268.7
885.1453	1438.0206	12129.65	11207.6
885.2889	1439.8524	11952.65	11030.75
885.4324	1441.6835	11831.05	10911.4
885.5759	1443.5139	11760.65	10836.8
885.7194	1445.3435	11666.95	10747.55
885.8629	1447.1724	11608.8	10688.65
886.0064	1449.0005	11553.25	10636
886.1499	1450.8279	11486.65	10566.95
886.2933	1452.6545	11445.05	10525.7
886.4368	1454.4804	11489	10571.5
886.5802	1456.3056	11480.4	10552.95
886.7237	1458.13	11373.75	10458.1
886.8671	1459.9536	11212.15	10293.7
887.0105	1461.7766	10918.4	9996.3
887.1539	1463.5987	10539.7	9619
887.2972	1465.4202	10191.65	9271.4
887.4406	1467.2409	9841.4	8920.65
887.584	1469.0608	9577.65	8656.7
887.7273	1470.88	9306.35	8384.85
887.8706	1472.6984	9073.7	8156.35
888.0139	1474.5161	8873.45	7951.95
888.1572	1476.3331	8747.85	7830
888.3005	1478.1493	8597.9	7677.6
888.4438	1479.9648	8508.5	7586.95
888.5871	1481.7795	8408.6	7487.6
888.7303	1483.5935	8348.75	7427.05
888.8736	1485.4067	8280.85	7363.15
889.0168	1487.2192	8229.05	7308.4
889.16	1489.031	8188.05	7266.7
889.3032	1490.842	8135.8	7217.4
889.4464	1492.6522	8124.6	7204.85
889.5896	1494.4618	8086.85	7165.65
889.7327	1496.2705	8048.55	7133.9
889.8759	1498.0785	8010.7	7091.3
890.019	1499.8858	7975.85	7056.25
890.1622	1501.6924	7930.65	7015.55
890.3053	1503.4981	7938.75	7019.7
890.4484	1505.3032	7901.4	6983.35
890.5914	1507.1075	7846.2	6924.6
890.7345	1508.911	7818.85	6898.25
890.8776	1510.7138	7759.6	6841.5
891.0206	1512.5159	7720.35	6801.9
891.1637	1514.3172	7671.65	6757.55
891.3067	1516.1178	7622.15	6705.55
891.4497	1517.9176	7601.95	6681.25
891.5927	1519.7166	7557.5	6640.4
891.7357	1521.515	7520.15	6598.4
891.8786	1523.3126	7494.95	6576
892.0216	1525.1094	7473.45	6555.8
892.1645	1526.9055	7460.55	6545.95
892.3074	1528.7008	7408.4	6492.3
892.4503	1530.4954	7375.45	6457.05
892.5932	1532.2893	7378.7	6463.75
892.7361	1534.0824	7337.7	6420.35
892.879	1535.8747	7326.3	6409.4
893.0218	1537.6663	7304	6391.85
893.1647	1539.4572	7314.7	6400.85
893.3075	1541.2473	7330.65	6415.6
893.4503	1543.0367	7321.6	6408.55
893.5931	1544.8253	7302.3	6385.8
893.7359	1546.6132	7337.6	6421.1
893.8787	1548.4003	7341	6415.2
894.0214	1550.1867	7352.85	6433.05
894.1642	1551.9723	7395.85	6477
894.3069	1553.7572	7447.7	6534.65
894.4496	1555.5414	7516.35	6606.8
894.5923	1557.3247	7604.6	6693.45
894.735	1559.1074	7712.4	6801.05
894.8777	1560.8893	7811	6901.05
895.0204	1562.6705	7915.35	7006.55
895.163	1564.4509	7999.8	7092.7
895.3056	1566.2305	8058.15	7152.15
895.4482	1568.0094	8130.45	7228.55
895.5908	1569.7876	8145.65	7240
895.7334	1571.565	8138.35	7230.2
895.876	1573.3417	8146.75	7239.55
896.0186	1575.1176	8118.7	7209.2
896.1611	1576.8928	8093.6	7190.1
896.3036	1578.6672	8029.15	7127.3
896.4461	1580.4409	7964.95	7065.8
896.5886	1582.2138	7923.2	7018.45
896.7311	1583.986	7875.6	6970.35
896.8736	1585.7575	7870.95	6967.75
897.0161	1587.5282	7856.2	6952.35
897.1585	1589.2981	7883.5	6979.85
897.3009	1591.0673	7900.85	6999.9
897.4433	1592.8358	7935.25	7031.85
897.5857	1594.6035	7994.5	7089.1
897.7281	1596.3704	8031.35	7126.95
897.8705	1598.1366	8103.1	7198.55
898.0128	1599.9021	8181.1	7280.5
898.1551	1601.6668	8250.45	7346
898.2975	1603.4308	8344.6	7439.75
898.4398	1605.194	8481.05	7573.8
898.5821	1606.9564	8634.6	7735.4
898.7243	1608.7182	8825.45	7928.2
898.8666	1610.4791	9024.3	8129.9
899.0088	1612.2394	9282.65	8390.95
899.1511	1613.9988	9493.35	8598.15
899.2933	1615.7576	9752.85	8854.9
899.4355	1617.5156	9926.5	9019.8
899.5776	1619.2728	10054.2	9147.3
899.7198	1621.0293	10070.85	9169.2
899.862	1622.785	10014.85	9112.15
900.0041	1624.54	9839.65	8937.65
900.1462	1626.2942	9610.85	8713.1
900.2883	1628.0477	9310.55	8410.1
900.4304	1629.8005	9057.05	8153.15
900.5725	1631.5525	8820.05	7923.95
900.7145	1633.3037	8595.05	7698.65
900.8566	1635.0542	8442.2	7545.8
900.9986	1636.804	8328.05	7432.35
901.1406	1638.553	8314.15	7340.95
901.2826	1640.3013	8223.6	7325.75
901.4245	1642.0488	8211.15	7311.6
901.5665	1643.7955	8254.35	7359.45
901.7085	1645.5416	8292.95	7398.35
901.8504	1647.2868	8393.2	7497.6
901.9923	1649.0313	8492.25	7593.1
902.1342	1650.7751	8643.35	7742.8
902.2761	1652.5181	8807.95	7911.3
902.4179	1654.2604	8966.55	8072.9
902.5598	1656.0019	9211.2	8315.35
902.7016	1657.7427	9464.55	8566.25
902.8434	1659.4828	9760.3	8859.45
902.9852	1661.222	9940.85	9042.3
903.127	1662.9606	9911.6	9013.95
903.2687	1664.6984	9652.8	8752.7
903.4105	1666.4354	9237.1	8334.9
903.5522	1668.1717	8716.4	7814.7
903.6939	1669.9072	8190.3	7291.15
903.8356	1671.642	7747.65	6845.65
903.9773	1673.3761	7371	6473.5
904.119	1675.1094	7061.05	6162.3
904.2606	1676.8419	6848.25	5951.45
904.4022	1678.5737	6648.1	5748.3
904.5439	1680.3048	6504.4	5606.55
904.6855	1682.0351	6388.9	5488.15
904.827	1683.7646	6276.4	5375.45
904.9686	1685.4934	6227	5326.4
905.1101	1687.2215	6127.5	5228.3
905.2517	1688.9488	6065.35	5171.3
905.3932	1690.6754	6021.25	5126
905.5347	1692.4012	5972.25	5075.35
905.6761	1694.1263	5928.25	5030.25
905.8176	1695.8506	5902.45	5006.5
905.9591	1697.5742	5843.75	4950.3
906.1005	1699.297	5806.65	4913.35
906.2419	1701.0191	5766.1	4873.85
906.3833	1702.7404	5726.95	4834.95
906.5246	1704.461	5702.35	4806.75
906.666	1706.1808	5658.35	4763.7
906.8073	1707.8999	5642.55	4748.5
906.9487	1709.6182	5621.55	4729
907.09	1711.3358	5587.75	4699.1
907.2313	1713.0527	5553.2	4664.75
907.3725	1714.7688	5550.85	4653.1
907.5138	1716.4841	5505.25	4608.65
907.655	1718.1987	5508.15	4607.9
907.7962	1719.9126	5466.8	4577.6
907.9374	1721.6257	5445.6	4555
908.0786	1723.338	5434.8	4546.7
908.2198	1725.0496	5409	4516.35
908.3609	1726.7605	5399.4	4505.5
908.502	1728.4706	5384	4491.35
908.6431	1730.18	5349.3	4457
908.7842	1731.8886	5336.35	4448.65
908.9253	1733.5964	5342.75	4429.45
909.0664	1735.3036	5307.1	4413
909.2074	1737.0099	5300.7	4411.3
909.3484	1738.7156	5267.35	4378.05
909.4894	1740.4204	5247.05	4355.25
909.6304	1742.1246	5216.5	4323.35
909.7714	1743.8279	5190.2	4300.5
909.9123	1745.5306	5191.6	4301.1
910.0532	1747.2325	5161.95	4272.4
910.1941	1748.9336	5137.75	4247.6
910.335	1750.634	5114.7	4220.7
910.4759	1752.3336	5109.05	4220.45
910.6168	1754.0325	5082.05	4195.4
910.7576	1755.7307	5079.85	4192.3
910.8984	1757.4281	5071.5	4181.05
911.0392	1759.1247	5070.4	4171.45
911.18	1760.8206	5053.1	4153.85
911.3208	1762.5158	5034.6	4138.2
911.4615	1764.2102	5025.65	4133.3
911.6022	1765.9039	5006.25	4117.6
911.7429	1767.5968	4985.75	4098.45
911.8836	1769.289	4972.95	4084.15
912.0243	1770.9804	4950.6	4055.65
912.1649	1772.6711	4944.95	4051.95
912.3056	1774.361	4933	4037.45
912.4462	1776.0502	4931.9	4038.3
912.5868	1777.7386	4926.85	4033.35
912.7274	1779.4263	4917.8	4028.1
912.8679	1781.1132	4920.9	4031.7
913.0084	1782.7994	4891.75	4003.55
913.149	1784.4849	4869.75	3982.5
913.2895	1786.1696	4862.85	3968.5
913.4299	1787.8535	4857.25	3971.15
913.5704	1789.5367	4825.55	3939.9
913.7108	1791.2192	4835.8	3949
913.8513	1792.9009	4847.8	3934.3
913.9917	1794.5818	4823.2	3929.35
914.132	1796.2621	4802.1	3914.2
914.2724	1797.9415	4802	3910.6
914.4128	1799.6202	4788.35	3896.3
914.5531	1801.2982	4792.15	3901.2
914.6934	1802.9755	4764.9	3872.15
914.8337	1804.6519	4751.1	3858.75
914.9739	1806.3277	4724.6	3836.55
915.1142	1808.0027	4708.85	3823.9
915.2544	1809.6769	4706.1	3820.85
915.3946	1811.3504	4698.25	3813.15
915.5348	1813.0231	4681.2	3795.75
915.675	1814.6951	4699.8	3813.35
915.8151	1816.3664	4688.7	3796.9
915.9553	1818.0369	4663.05	3772.45
916.0954	1819.7067	4660.1	3769.9
916.2355	1821.3757	4654.4	3763.95
916.3755	1823.044	4654.9	3765.95
916.5156	1824.7115	4641.3	3750
916.6556	1826.3783	4623.75	3735.3
916.7956	1828.0443	4602.65	3714.6
916.9356	1829.7096	4610.85	3720.5
917.0756	1831.3741	4603.55	3711.75
917.2155	1833.0379	4574.8	3686.3
917.3555	1834.701	4562.1	3674.35
917.4954	1836.3633	4561.6	3674.7
917.6353	1838.0248	4555.65	3666.2
917.7751	1839.6856	4543.3	3656.5
917.915	1841.3457	4535.4	3646.5
918.0548	1843.005	4544.6	3656.9
918.1946	1844.6636	4538	3651.15
918.3344	1846.3214	4503.35	3613
918.4742	1847.9785	4503.75	3617.25
918.6139	1849.6349	4505.2	3613.2
918.7537	1851.2904	4501.25	3602.3
918.8934	1852.9453	4474.6	3582.1
919.0331	1854.5994	4458.2	3564.05
919.1727	1856.2528	4474.65	3580.6
919.3124	1857.9054	4461.05	3571.65
919.452	1859.5572	4448.55	3562.75
919.5916	1861.2083	4432.9	3543.1
919.7312	1862.8587	4444.1	3551.85
919.8708	1864.5084	4427.3	3536.45
920.0103	1866.1572	4418.4	3528
920.1498	1867.8054	4408.6	3516.05
920.2893	1869.4528	4398.85	3506.05
920.4288	1871.0994	4396.4	3504.15
920.5683	1872.7453	4392.25	3502.85
920.7077	1874.3905	4378.95	3469.25
920.8471	1876.0349	4346.6	3457.5
920.9865	1877.6786	4362.35	3470.5
921.1259	1879.3215	4374.1	3484.15
921.2653	1880.9637	4331.95	3441.05
921.4046	1882.6051	4351.5	3462.45
921.5439	1884.2458	4336.25	3446
921.6832	1885.8858	4306.65	3418.5
921.8225	1887.525	4313.2	3423.1
921.9617	1889.1634	4294.7	3405
922.101	1890.8011	4264.4	3375.05
922.2402	1892.4381	4269.1	3380.2
922.3794	1894.0743	4254.45	3366.8
922.5185	1895.7098	4243.9	3354.45
922.6577	1897.3446	4262.1	3370.85
922.7968	1898.9786	4239.4	3346.35
922.9359	1900.6118	4222.95	3336.45
923.075	1902.2443	4210.4	3322.15
923.214	1903.8761	4199.1	3312.55
923.3531	1905.5071	4177.35	3286.4
923.4921	1907.1374	4174.45	3284.9
923.6311	1908.7669	4168.2	3279.6
923.77	1910.3957	4160.6	3270.2
923.909	1912.0237	4140.55	3251.9
924.0479	1913.651	4130.85	3240.6
924.1868	1915.2776	4124.8	3238.15
924.3257	1916.9034	4114.9	3228.95
924.4646	1918.5285	4096.5	3210.95
924.6034	1920.1528	4086.25	3198.7
924.7422	1921.7764	4090.85	3202
924.881	1923.3992	4074	3186.35
925.0198	1925.0213	4056.05	3166.95
925.1586	1926.6427	4032.05	3144.85
925.2973	1928.2633	4196.15	3099.75
925.436	1929.8832	4039.65	3148.9
925.5747	1931.5023	4002.55	3115.15
925.7134	1933.1207	4003.85	3116.75
925.852	1934.7383	3979.4	3092.75
925.9906	1936.3552	3982.15	3094.15
926.1292	1937.9714	3976.4	3088.6
926.2678	1939.5868	3960.45	3071.7
926.4064	1941.2015	3938.4	3052.05
926.5449	1942.8154	3914.95	3025.45
926.6834	1944.4286	3909	3021.1
926.8219	1946.041	3932.65	3027.6
926.9604	1947.6528	3902.35	3007.5
927.0988	1949.2637	3883.4	2995.35
927.2372	1950.8739	3871.1	2982.5
927.3756	1952.4834	3872.5	2986.6
927.514	1954.0921	3862.55	2974.6
927.6523	1955.7001	3851.05	2958.95
927.7907	1957.3074	3829.2	2946.1
927.929	1958.9139	3820.25	2935.8
928.0673	1960.5197	3806.65	2920.7
928.2055	1962.1247	3800.85	2913.75
928.3438	1963.729	3778	2893.15
928.482	1965.3325	3769.4	2881.5
928.6202	1966.9353	3751.05	2867.45
928.7584	1968.5374	3741.05	2856.1
928.8965	1970.1387	3738	2853.5
929.0346	1971.7393	3740.1	2856.35
929.1727	1973.3392	3738.65	2854.5
929.3108	1974.9383	3706.3	2820.85
929.4489	1976.5366	3702.75	2819.5
929.5869	1978.1342	3693.75	2809.75
929.7249	1979.7311	3688.6	2804.5
929.8629	1981.3273	3676	2792.55
930.0009	1982.9227	3674.8	2791.45
930.1388	1984.5173	3655.55	2770.45
930.2767	1986.1112	3644.45	2761.7
930.4146	1987.7044	3643.3	2762.7
930.5525	1989.2968	3641.05	2755.9
930.6904	1990.8885	3623.05	2738.1
930.8282	1992.4795	3615.3	2732.95
930.966	1994.0697	3603.8	2723.6
931.1038	1995.6592	3589.3	2706.25
931.2415	1997.2479	3580.4	2697.5
931.3793	1998.8359	3576.15	2696.3
931.517	2000.4232	3560.15	2680.65
931.6547	2002.0097	3552.15	2675.1
931.7923	2003.5955	3547.8	2667.95
931.93	2005.1805	3541.85	2659.9
932.0676	2006.7648	3550.25	2672.95
932.2052	2008.3484	3525.8	2647.3
932.3427	2009.9312	3526.65	2647.5
932.4803	2011.5133	3514.95	2637.2
932.6178	2013.0946	3493	2615.15
932.7553	2014.6752	3493.9	2615.85
932.8928	2016.2551	3490.95	2610.35
933.0302	2017.8342	3472.5	2593
933.1676	2019.4126	3475.15	2594.45
933.305	2020.9902	3466.95	2588.45
933.4424	2022.5672	3431.3	2554.5
933.5798	2024.1433	3451.95	2571.35
933.7171	2025.7188	3440.85	2564.4
933.8544	2027.2935	3424.05	2545.4
933.9917	2028.8674	3418.55	2541.25
934.129	2030.4406	3408.6	2531.65
934.2662	2032.0131	3406.35	2531.35
934.4034	2033.5849	3400.05	2520.45
934.5406	2035.1559	3375.95	2499.3
934.6778	2036.7261	3375.1	2495.6
934.8149	2038.2957	3378.7	2496.35
934.952	2039.8645	3378.4	2496.35
935.0891	2041.4325	3379.2	2496.25
935.2262	2042.9998	3354.8	2475.65
935.3632	2044.5664	3348.8	2468.25
935.5002	2046.1323	3345.2	2467.3
935.6372	2047.6974	3339.35	2462.45
935.7742	2049.2617	3318.1	2440.8
935.9111	2050.8254	3350.55	2450.9
936.048	2052.3883	3334	2453.45
936.1849	2053.9504	3327.65	2446.25
936.3218	2055.5118	3317.8	2433.85
936.4586	2057.0725	3310.9	2427.05
936.5955	2058.6325	3301.9	2422.8
936.7323	2060.1917	3282.1	2405.65
936.869	2061.7502	3283.85	2403.6
937.0058	2063.3079	3277.4	2401.3
937.1425	2064.8649	3267.55	2388.5
937.2792	2066.4212	3253.2	2373.55
937.4159	2067.9767	3254	2374.55
937.5525	2069.5315	3236.25	2357.05
937.6891	2071.0856	3236.85	2357
937.8257	2072.6389	3218.1	2340
937.9623	2074.1915	3210.15	2334.1
938.0989	2075.7433	3197.6	2318.75
938.2354	2077.2945	3205.1	2325.95
938.3719	2078.8448	3188.25	2307.9
938.5084	2080.3945	3185.45	2304.9
938.6448	2081.9434	3178.65	2297.25
938.7812	2083.4916	3183.55	2300.8
938.9176	2085.039	3171.15	2285.9
939.054	2086.5857	3151.3	2265.5
939.1903	2088.1317	3153.3	2268.55
939.3267	2089.677	3146.45	2260.25
939.463	2091.2215	3145.45	2259.4
939.5992	2092.7652	3154	2264.9
939.7355	2094.3083	3124.95	2236.65
939.8717	2095.8506	3117.45	2233.7
940.0079	2097.3921	3119.8	2237.8
940.1441	2098.933	3097.45	2212.65
940.2802	2100.4731	3108.2	2225.9
940.4163	2102.0124	3116.75	2226.5
940.5524	2103.5511	3096	2212.2
940.6885	2105.089	3094.85	2210.95
940.8245	2106.6261	3079.65	2197.2
940.9606	2108.1626	3076.5	2191.15
941.0965	2109.6983	3089.4	2178.05
941.2325	2111.2332	3064.95	2181.35
941.3684	2112.7675	3057.7	2173
941.5044	2114.301	3058.05	2173.25
941.6403	2115.8337	3064.5	2178.8
941.7761	2117.3657	3030.2	2147.5
941.912	2118.897	3036.4	2153.15
942.0478	2120.4276	3039	2148.15
942.1835	2121.9575	3032.95	2148.05
942.3193	2123.4866	3024	2137.1
942.455	2125.0149	3014.65	2126.8
942.5907	2126.5426	3002.5	2122
942.7264	2128.0695	2984.6	2100.15
942.8621	2129.5956	2976.2	2100
942.9977	2131.1211	3006.5	2123.15
943.1333	2132.6458	2980.8	2099.5
943.2689	2134.1698	2978.7	2094.2
943.4044	2135.693	2983.05	2093.65
943.54	2137.2155	2984.75	2096.95
943.6755	2138.7373	2982.7	2098.25
943.8109	2140.2584	2960.2	2082.1
943.9464	2141.7787	2941.7	2056.8
944.0818	2143.2983	2931.45	2053.65
944.2172	2144.8171	2919.05	2042.15
944.3526	2146.3353	2911.3	2030.85
944.4879	2147.8527	2918.55	2040.35
944.6232	2149.3693	2910.85	2026.8
944.7585	2150.8853	2911.35	2024.35
944.8938	2152.4005	2899.05	2012.85
945.029	2153.9149	2909.3	2023.8
945.1642	2155.4287	2901.1	2015.15
945.2994	2156.9417	2884.6	2000.25
945.4346	2158.454	2885.05	2000.1
945.5697	2159.9655	2876.35	1994.45
945.7048	2161.4764	2865.8	1984.95
945.8399	2162.9865	2863.3	1982.6
945.9749	2164.4958	2850.3	1969
946.1099	2166.0045	2842.7	1959.55
946.2449	2167.5124	2847.4	1964.7
946.3799	2169.0195	2840.35	1956.45
946.5148	2170.526	2845.2	1960
946.6498	2172.0317	2837.3	1952.15
946.7846	2173.5367	2825.3	1941.2
946.9195	2175.0409	2823.35	1943.25
947.0543	2176.5445	2825.35	1942.15
947.1891	2178.0473	2823.85	1938
947.3239	2179.5494	2810.65	1922.9
947.4587	2181.0507	2799.65	1917.75
947.5934	2182.5513	2792.7	1908.6
947.7281	2184.0512	2796.05	1912.25
947.8628	2185.5504	2786.05	1904.6
947.9974	2187.0488	2766.05	1883.95
948.132	2188.5465	2762	1880.9
948.2666	2190.0435	2767.15	1884.35
948.4012	2191.5397	2765.45	1883.7
948.5357	2193.0353	2757.65	1873.15
948.6702	2194.5301	2749.5	1864.05
948.8047	2196.0241	2744.5	1858.05
948.9392	2197.5175	2744.9	1858.55
949.0736	2199.0101	2724.55	1833.9
949.208	2200.502	2722.9	1839.7
949.3424	2201.9931	2712.75	1831.25
949.4767	2203.4835	2707.6	1826.05
949.611	2204.9733	2716.65	1829.15
949.7453	2206.4622	2691.85	1812.7
949.8796	2207.9505	2699.05	1817.05
950.0138	2209.438	2672.45	1793.95
950.148	2210.9248	2678.6	1796.85
950.2822	2212.4109	2670.75	1789.35
950.4164	2213.8962	2662.2	1774.95
950.5505	2215.3809	2664.45	1775.6
950.6846	2216.8648	2665.05	1777.2
950.8186	2218.3479	2662.1	1768.65
950.9527	2219.8304	2651.55	1759
951.0867	2221.3121	2651.45	1762.3
951.2207	2222.7931	2638.6	1750.25
951.3546	2224.2733	2621.25	1735.7
951.4886	2225.7529	2615.35	1729.4
951.6225	2227.2317	2603.75	1718.5
951.7563	2228.7098	2602.8	1723.3
951.8902	2230.1872	2592.05	1711.8
952.024	2231.6638	2595.15	1714.05
952.1578	2233.1397	2581.55	1698.2
952.2916	2234.6149	2574.15	1693.75
952.4253	2236.0894	2571.3	1686.6
952.559	2237.5632	2579.85	1688.35
952.6927	2239.0362	2573	1689.25
952.8263	2240.5085	2563	1679.85
952.9599	2241.9801	2550.95	1666.8
953.0935	2243.4509	2546.2	1659.65
953.2271	2244.921	2542.55	1657
953.3606	2246.3904	2540.85	1651.6
953.4941	2247.8591	2522.35	1638.1
953.6276	2249.3271	2539.25	1653.8
953.7611	2250.7943	2506.25	1619.85
953.8945	2252.2608	2502.85	1617.5
954.0279	2253.7266	2510.55	1624.2
954.1612	2255.1917	2506.35	1620.05
954.2946	2256.656	2495.4	1615.45
954.4279	2258.1197	2487.5	1605.15
954.5612	2259.5826	2487.95	1604.2
954.6944	2261.0447	2485.35	1599.45
954.8276	2262.5062	2478.45	1591.85
954.9608	2263.9669	2489.45	1600.15
955.094	2265.4269	2476.85	1593.95
955.2271	2266.8862	2460.6	1578.65
955.3602	2268.3448	2457.7	1572.2
955.4933	2269.8026	2462.75	1580.1
955.6264	2271.2598	2453.6	1568.8
955.7594	2272.7162	2448.45	1567.7
955.8924	2274.1719	2454.35	1568.15
956.0253	2275.6268	2445.25	1557.55
956.1583	2277.0811	2444.55	1557.9
956.2912	2278.5346	2437.25	1555.1
956.4241	2279.9874	2430.4	1548.65
956.5569	2281.4395	2424.8	1543.4
956.6897	2282.8908	2426.9	1537.55
956.8225	2284.3414	2424.15	1538.2
956.9553	2285.7914	2417.05	1533.1
957.088	2287.2406	2406.35	1518.8
957.2207	2288.689	2407.15	1518.9
957.3534	2290.1368	2412.9	1525.15
957.486	2291.5838	2418.15	1529.95
957.6186	2293.0302	2400.65	1509
957.7512	2294.4758	2402.85	1515.2
957.8838	2295.9206	2396.5	1508.9
958.0163	2297.3648	2386.75	1501.45
958.1488	2298.8082	2382.3	1498.6
958.2813	2300.251	2378.75	1492.25
958.4137	2301.693	2371.7	1481.4
958.5461	2303.1343	2367.15	1480.8
958.6785	2304.5748	2361.55	1477.4
958.8108	2306.0147	2354.55	1470.8
958.9432	2307.4538	2347.6	1466.65
959.0754	2308.8922	2343.15	1463.65
959.2077	2310.3299	2335.3	1452.55
959.3399	2311.7669	2334.6	1451.95
959.4721	2313.2031	2330	1446.35
959.6043	2314.6387	2332.45	1446.45
959.7365	2316.0735	2317.8	1432.95
959.8686	2317.5076	2321.2	1437.65
960.0006	2318.941	2314.35	1427.55
960.1327	2320.3737	2313.6	1425.1
960.2647	2321.8056	2311	1421.55
960.3967	2323.2369	2314.85	1429.75
960.5287	2324.6674	2297.7	1412.6
960.6606	2326.0972	2297.3	1410.8
960.7925	2327.5263	2287.1	1401.6
960.9244	2328.9547	2290.25	1405.9
961.0562	2330.3823	2288.25	1400.35
961.1881	2331.8092	2282.15	1393.45
961.3198	2333.2355	2272.35	1384.6
961.4516	2334.661	2273.55	1385.1
961.5833	2336.0858	2283.8	1396.9
961.715	2337.5098	2261.9	1374.85
961.8467	2338.9332	2269.2	1381.1
961.9783	2340.3558	2267.1	1380
962.1099	2341.7778	2255.45	1370.35
962.2415	2343.199	2244.8	1359.55
962.373	2344.6195	2238.85	1355.05
962.5045	2346.0393	2235.8	1351.35
962.636	2347.4583	2254	1368.25
962.7675	2348.8767	2237.9	1352.8
962.8989	2350.2943	2231.1	1345.1
963.0303	2351.7113	2238	1349.2
963.1617	2353.1275	2235.35	1347.35
963.293	2354.543	2237.2	1340.5
963.4243	2355.9578	2227.95	1342.1
963.5556	2357.3718	2209.25	1325.3
963.6868	2358.7852	2203.95	1317.65
963.818	2360.1978	2208.8	1327.65
963.9492	2361.6098	2203.2	1319.65
964.0803	2363.021	2205.25	1317.15
964.2114	2364.4315	2200.1	1317.05
964.3425	2365.8413	2195.95	1310.5
964.4736	2367.2504	2189.5	1308.2
964.6046	2368.6587	2177.85	1295.75
964.7356	2370.0664	2164.05	1280.3
964.8666	2371.4733	2162.95	1279.2
964.9975	2372.8795	2173.25	1291.65
965.1284	2374.285	2162.7	1278.95
965.2593	2375.6899	2147.55	1264.85
965.3901	2377.0939	2152.45	1269.55
965.5209	2378.4973	2154	1269.8
965.6517	2379.9	2148.65	1265.55
965.7825	2381.3019	2146.05	1263.6
965.9132	2382.7032	2127.85	1246.65
966.0439	2384.1037	2135.6	1256.3
966.1745	2385.5035	2131.5	1249.9
966.3051	2386.9027	2116.25	1236.75
966.4357	2388.3011	2119.75	1235.85
966.5663	2389.6987	2123.2	1242.3
966.6968	2391.0957	2108.8	1227.85
966.8273	2392.492	2108	1226.95
966.9578	2393.8876	2096.7	1216.2
967.0882	2395.2824	2096.05	1215.05
967.2186	2396.6765	2082.35	1202.85
967.349	2398.07	2084.55	1203.2
967.4793	2399.4627	2089.95	1203.7
967.6097	2400.8547	2077.65	1196.45
967.7399	2402.246	2082.2	1194.5
967.8702	2403.6366	2065.45	1185.7
968.0004	2405.0265	2060.75	1178.4
968.1306	2406.4156	2065.45	1178.7
968.2607	2407.8041	2060.15	1172.7
968.3909	2409.1918	2054	1165.6
968.521	2410.5789	2052.85	1170.95
968.651	2411.9652	2048.8	1161.35
968.781	2413.3508	2061.3	1178.35
968.911	2414.7358	2036.15	1152.5
969.041	2416.12	2034.8	1152.55
969.1709	2417.5035	2037.3	1155.3
969.3008	2418.8863	2038.75	1160.05
969.4307	2420.2684	2021.6	1136.3
969.5606	2421.6497	2016.15	1131.3
969.6904	2423.0304	2022.7	1138.3
969.8201	2424.4104	2020.35	1140.05
969.9499	2425.7896	2015.3	1130.9
970.0796	2427.1682	1998.8	1117.75
970.2093	2428.546	2005.45	1122.85
970.3389	2429.9232	2006.55	1121.7
970.4685	2431.2996	1997.85	1114.15
970.5981	2432.6753	1990.55	1108
970.7277	2434.0503	1994.2	1110.75
970.8572	2435.4246	1988.95	1106.15
970.9867	2436.7982	1991.1	1106.2
971.1161	2438.1711	1977.5	1096.55
971.2456	2439.5433	1978.65	1095.45
971.375	2440.9148	1971.8	1083.4
971.5043	2442.2856	1968.65	1085.05
971.6336	2443.6557	1969.25	1083.85
971.7629	2445.025	1953.35	1071.35
971.8922	2446.3937	1959.85	1075.65
972.0214	2447.7617	1958.05	1073.6
972.1506	2449.1289	1954.1	1071.9
972.2798	2450.4955	1953.2	1065
972.4089	2451.8613	1950.45	1066.75
972.538	2453.2265	1956.4	1074.15
972.6671	2454.5909	1944.4	1060.05
972.7961	2455.9546	1932.65	1049.7
972.9251	2457.3177	1934.2	1052.4
973.0541	2458.68	1933	1049.9
973.1831	2460.0416	1937.45	1055.4
973.312	2461.4025	1934.75	1050.35
973.4408	2462.7627	1943.3	1051.25
973.5697	2464.1222	1913.75	1034.65
973.6985	2465.4811	1914.5	1031.1
973.8273	2466.8392	1914.55	1031.05
973.956	2468.1966	1914.15	1028.2
974.0847	2469.5533	1919.7	1033.8
974.2134	2470.9093	1921.85	1039.7
974.3421	2472.2645	1916.3	1030.2
974.4707	2473.6191	1911.05	1030.15
974.5993	2474.973	1911	1027.8
974.7278	2476.3262	1914.9	1031.95
974.8563	2477.6787	1891.45	1008.3
974.9848	2479.0305	1888.9	1006.5
975.1132	2480.3816	1890.15	1005.2
975.2417	2481.7319	1895.15	1013.15
975.37	2483.0816	1876.1	992.75
975.4984	2484.4306	1878.75	994.2
975.6267	2485.7789	1881.95	999.05
975.755	2487.1264	1872.05	988.3
975.8833	2488.4733	1871.3	989.55
976.0115	2489.8195	1870.45	981.4
976.1397	2491.165	1867.85	981.35
976.2678	2492.5097	1867.7	984.8
976.3959	2493.8538	1855.75	973.15
976.524	2495.1972	1844.8	959.95
976.6521	2496.5398	1845.75	959.65
976.7801	2497.8818	1850.3	963.95
976.9081	2499.2231	1837.5	952.85
977.036	2500.5637	1835.3	949.1
977.164	2501.9035	1834.3	947.9
977.2918	2503.2427	1839.7	952
977.4197	2504.5812	1836.6	951.15
977.5475	2505.919	1823	938
977.6753	2507.256	1825	941.35
977.8031	2508.5924	1820.45	936
977.9308	2509.9281	1821.95	933.45
978.0585	2511.2631	1813.8	928.45
978.1861	2512.5974	1809.25	927.95
978.3137	2513.9309	1805.95	923.7
978.4413	2515.2638	1825.05	918.15
978.5689	2516.596	1812.4	930.35
978.6964	2517.9275	1802	917.6
978.8239	2519.2583	1798	914.65
978.9513	2520.5884	1798.85	914.05
979.0788	2521.9178	1791.6	909.45
979.2062	2523.2465	1799.2	917.6
979.3335	2524.5745	1787.75	906.85
979.4608	2525.9018	1785.85	901.3
979.5881	2527.2284	1785.15	905.55
979.7154	2528.5543	1781.45	898.6
979.8426	2529.8796	1776.7	893.8
979.9698	2531.2041	1780.3	897
980.0969	2532.5279	1776.45	894.7
980.224	2533.851	1771.8	888.05
980.3511	2535.1735	1771.8	889
980.4781	2536.4952	1778	893.75
980.6052	2537.8163	1766.45	882.3
980.7321	2539.1366	1769.65	887.55
980.8591	2540.4562	1761.25	876.4
980.986	2541.7752	1773.65	891.35
981.1129	2543.0935	1763.1	878.35
981.2397	2544.411	1756.05	872.6
981.3665	2545.7279	1762.45	879.25
981.4933	2547.0441	1755.35	871.75
981.62	2548.3596	1759	874.3
981.7467	2549.6744	1749.1	865
981.8734	2550.9885	1752.25	868.8
982.0001	2552.3019	1748.15	867
982.1267	2553.6146	1748.95	865.45
982.2532	2554.9266	1745.75	861.85
982.3798	2556.2379	1739.4	852.25
982.5063	2557.5485	1740.65	860.75
982.6327	2558.8585	1731.35	841.15
982.7592	2560.1677	1747.05	860.75
982.8856	2561.4762	1735.25	852.45
983.0119	2562.7841	1742.1	855.2
983.1383	2564.0913	1730.35	849.15
983.2646	2565.3977	1735	851.95
983.3908	2566.7035	1717.8	834.45
983.517	2568.0086	1727.1	841.35
983.6432	2569.313	1724.05	838.6
983.7694	2570.6167	1713.5	827.6
983.8955	2571.9197	1723.3	839.9
984.0216	2573.222	1717.8	830.95
984.1476	2574.5236	1710.25	825.95
984.2737	2575.8246	1715.3	829.75
984.3996	2577.1248	1711.2	825.85
984.5256	2578.4244	1717.25	837.4
984.6515	2579.7232	1704.25	818.05
984.7774	2581.0214	1735.9	827.75
984.9032	2582.3189	1715	832.25
985.029	2583.6157	1720.2	832.3
985.1548	2584.9118	1711.35	826.55
985.2806	2586.2072	1709.35	826.4
985.4063	2587.5019	1708.85	825.9
985.5319	2588.7959	1719.5	835.95
985.6576	2590.0893	1717.5	832.95
985.7832	2591.3819	1710	828.35
985.9087	2592.6739	1706.85	825.45
986.0343	2593.9652	1704.9	821.2
986.1597	2595.2557	1703.6	819.85
986.2852	2596.5456	1705.7	819.2
986.4106	2597.8348	1700.75	817.75
986.536	2599.1234	1701.3	816.8
986.6614	2600.4112	1699.55	815.95
986.7867	2601.6983	1704.1	816.75
986.912	2602.9848	1699.45	816.1
987.0372	2604.2705	1701.7	810.35
987.1624	2605.5556	1699.45	815.75
987.2876	2606.84	1691.6	810.1
987.4128	2608.1237	1696.8	811.55
987.5379	2609.4067	1686.95	806.5
987.6629	2610.689	1692.15	800.7
987.788	2611.9707	1683.25	796.85
987.913	2613.2516	1676.6	789.2
988.0379	2614.5319	1678.6	797.55
988.1629	2615.8115	1664.05	778.45
988.2878	2617.0903	1670.8	786.4
988.4126	2618.3685	1667.6	783.55
988.5375	2619.6461	1661.8	779.45
988.6622	2620.9229	1657.05	776.45
988.787	2622.199	1658.5	774.55
988.9117	2623.4745	1663.55	780.1
989.0364	2624.7493	1664.65	783.9
989.161	2626.0234	1660.6	777.15
989.2857	2627.2968	1640.65	759.65
989.4102	2628.5695	1650.55	768.15
989.5348	2629.8415	1647.15	764.65
989.6593	2631.1128	1646.05	761.15
989.7837	2632.3835	1642.25	757.95
989.9082	2633.6535	1645.65	764.05
990.0326	2634.9228	1639	756.3
990.1569	2636.1914	1640.3	757.35
990.2812	2637.4593	1640.65	756.4
990.4055	2638.7265	1638.1	756.9
990.5298	2639.9931	1637.3	754.65
990.654	2641.259	1636.8	753.65
990.7782	2642.5242	1636.75	753.7
990.9023	2643.7887	1637.65	756.85
991.0264	2645.0525	1631.55	748.8
991.1505	2646.3156	1623.85	739.2
991.2745	2647.5781	1618.05	733.35
991.3985	2648.8398	1621.8	741.05
991.5225	2650.1009	1652.25	730.5
991.6464	2651.3613	1616.4	735.4
991.7703	2652.6211	1613.75	731.8
991.8942	2653.8801	1612.65	732.15
992.018	2655.1385	1611.55	726.7
992.1418	2656.3961	1612.35	732.25
992.2655	2657.6531	1617.25	734.3
992.3892	2658.9094	1615.55	734.35
992.5129	2660.1651	1602.4	720
992.6366	2661.42	1609.2	724.95
992.7602	2662.6743	1607.25	723.1
992.8837	2663.9279	1610.5	727.1
993.0073	2665.1808	1614.55	731.95
993.1307	2666.433	1619.2	736.75
993.2542	2667.6846	1606.65	724.3
993.3776	2668.9354	1612.2	726.8
993.501	2670.1856	1612.55	731.65
993.6244	2671.4351	1616.8	734.6
993.7477	2672.6839	1615	728.2
993.8709	2673.9321	1615.7	734.15
993.9942	2675.1795	1614.65	731.55
994.1174	2676.4263	1617.2	735.7
994.2405	2677.6724	1622.7	740.75
994.3637	2678.9179	1627	743.8
994.4868	2680.1626	1613.9	731.9
994.6098	2681.4067	1621.65	740.45
994.7328	2682.6501	1617.8	735.7
994.8558	2683.8928	1612.5	728.1
994.9788	2685.1348	1610.9	729.05
995.1017	2686.3761	1603.85	722.3
995.2245	2687.6168	1596.2	715.8
995.3474	2688.8568	1592.3	710.55
995.4702	2690.0961	1587.8	705.75
995.5929	2691.3348	1590.4	709.15
995.7156	2692.5727	1589.75	707.15
995.8383	2693.81	1584.25	702.75
995.961	2695.0466	1580.05	698.1
996.0836	2696.2826	1581.35	697.4
996.2062	2697.5178	1579	692.95
996.3287	2698.7524	1584.65	704.3
996.4512	2699.9863	1578.9	695.3
996.5737	2701.2195	1579.2	699.25
996.6961	2702.452	1590.2	707.05
996.8185	2703.6839	1591.55	708.35
996.9408	2704.9151	1586.6	704.55
997.0631	2706.1456	1595.15	712.05
997.1854	2707.3755	1602.2	720.5
997.3077	2708.6046	1608.7	725
997.4299	2709.8331	1618.65	737.45
997.552	2711.0609	1624.7	741.25
997.6742	2712.2881	1625.35	744.35
997.7963	2713.5145	1625.35	741.15
997.9183	2714.7403	1646.65	766.8
998.0403	2715.9654	1649.1	766.05
998.1623	2717.1899	1669.3	773.75
998.2842	2718.4136	1674.45	793.9
998.4062	2719.6367	1673.85	792
998.528	2720.8591	1695.95	808.85
998.6498	2722.0809	1699.65	816.75
998.7716	2723.3019	1713.2	828.85
998.8934	2724.5223	1723.5	841.25
999.0151	2725.7421	1716.3	833.35
999.1368	2726.9611	1720.4	835.25
999.2584	2728.1795	1720.2	833.5
999.38	2729.3972	1705.7	824
999.5016	2730.6142	1704.9	809.45
999.6231	2731.8306	1675.75	793.75
999.7446	2733.0462	1676.3	795
999.8661	2734.2612	1663.5	777.75
999.9875	2735.4756	1639.85	755.85
1000.1089	2736.6892	1618.25	736.15
1000.2302	2737.9022	1601.75	722.45
1000.3515	2739.1145	1591.4	709.9
1000.4728	2740.3262	1589.2	700.95
1000.594	2741.5372	1567.65	686.9
1000.7152	2742.7475	1558.75	677.95
1000.8363	2743.9571	1545.85	663.05
1000.9575	2745.1661	1542.45	657.85
1001.0785	2746.3744	1530.15	648.05
1001.1996	2747.582	1517.45	636.7
1001.3206	2748.7889	1515.1	633.45
1001.4415	2749.9952	1513.7	634.4
1001.5625	2751.2008	1501.65	618.15
1001.6833	2752.4057	1501	620.4
1001.8042	2753.61	1494.9	615.55
1001.925	2754.8136	1496.2	613.2
1002.0458	2756.0165	1494.45	615.25
1002.1665	2757.2188	1484.45	603.9
1002.2872	2758.4204	1482.5	602.55
1002.4078	2759.6213	1488.55	607.55
1002.5285	2760.8215	1483.25	599.6
1002.649	2762.0211	1482.15	598.75
1002.7696	2763.22	1486.35	601.95
1002.8901	2764.4182	1477.3	594.5
1003.0106	2765.6158	1482.55	601.4
1003.131	2766.8127	1468.95	586.85
1003.2514	2768.009	1473.35	592.4
1003.3717	2769.2045	1469.55	587.95
1003.492	2770.3994	1463.75	582.95
1003.6123	2771.5936	1459.65	575.8
1003.7325	2772.7872	1450.75	570.5
1003.8527	2773.9801	1456.1	574.1
1003.9729	2775.1723	1473.95	575.6
1004.093	2776.3639	1452.3	574.3
1004.2131	2777.5548	1450.9	568.65
1004.3331	2778.745	1445.2	563.45
1004.4531	2779.9346	1451.55	572.9
1004.5731	2781.1235	1459.5	579.45
1004.693	2782.3117	1457.9	579.75
1004.8129	2783.4992	1461.7	579.9
1004.9328	2784.6861	1463.2	585.2
1005.0526	2785.8723	1464.7	582.7
1005.1723	2787.0579	1477.05	595.5
1005.2921	2788.2428	1483.35	602.8
1005.4118	2789.427	1484.05	604.25
1005.5314	2790.6106	1486.1	604.35
1005.651	2791.7935	1500.9	620.4
1005.7706	2792.9757	1497.75	618.5
1005.8902	2794.1573	1513.75	633.2
1006.0097	2795.3382	1522.9	643.55
1006.1291	2796.5184	1530.15	651.55
1006.2485	2797.698	1545.15	662.15
1006.3679	2798.8769	1558.1	678.4
1006.4873	2800.0551	1573.35	692.95
1006.6066	2801.2327	1589.45	706.15
1006.7258	2802.4096	1599.8	721.75
1006.8451	2803.5859	1623.15	743.6
1006.9642	2804.7615	1636.3	754.55
1007.0834	2805.9364	1659.6	780.65
1007.2025	2807.1106	1677	797.25
1007.3216	2808.2842	1709	826.2
1007.4406	2809.4572	1730.8	850.15
1007.5596	2810.6294	1764.65	884.8
1007.6785	2811.801	1804.95	925.55
1007.7975	2812.972	1842.45	964.55
1007.9163	2814.1423	1885.65	1005.1
1008.0352	2815.3119	1925.8	1048.35
1008.154	2816.4808	1957.05	1078.05
1008.2727	2817.6491	2017.45	1138.9
1008.3914	2818.8167	2067.15	1187.95
1008.5101	2819.9837	2116.25	1231.85
1008.6288	2821.15	2153.2	1272.25
1008.7474	2822.3157	2205.1	1325.35
1008.8659	2823.4807	2264.6	1386
1008.9844	2824.645	2309.75	1430.2
1009.1029	2825.8086	2360	1480.15
1009.2214	2826.9716	2404.05	1525.35
1009.3398	2828.134	2453.85	1575.15
1009.4581	2829.2957	2500.45	1619.45
1009.5764	2830.4567	2523.55	1643.65
1009.6947	2831.617	2544.7	1664.5
1009.813	2832.7767	2562.75	1685.2
1009.9312	2833.9358	2557.85	1679.35
1010.0493	2835.0941	2554.15	1673.15
1010.1675	2836.2519	2538.6	1660.85
1010.2855	2837.4089	2517	1636.7
1010.4036	2838.5653	2516.95	1636.6
1010.5216	2839.7211	2514.65	1635.7
1010.6396	2840.8761	2519.2	1638.4
1010.7575	2842.0306	2527.3	1649.5
1010.8754	2843.1843	2563.25	1683.45
1010.9932	2844.3374	2599.2	1719.9
1011.111	2845.4899	2646.3	1766.1
1011.2288	2846.6417	2710.9	1831.5
1011.3465	2847.7928	2778.15	1900.55
1011.4642	2848.9433	2844.95	1965.95
1011.5818	2850.0931	2900.5	2022.7
1011.6995	2851.2422	2963.85	2082.95
1011.817	2852.3907	3032.8	2153.2
1011.9345	2853.5385	3094.05	2212.35
1012.052	2854.6857	3153.25	2262.85
1012.1695	2855.8323	3196.45	2318.25
1012.2869	2856.9781	3240	2363.5
1012.4042	2858.1233	3291	2412.3
1012.5216	2859.2679	3339.3	2460.8
1012.6389	2860.4118	3387.45	2509.2
1012.7561	2861.555	3430.2	2545.65
1012.8733	2862.6976	3463.05	2582.15
1012.9905	2863.8395	3491.55	2613.35
1013.1076	2864.9808	3509.75	2632.9
1013.2247	2866.1214	3539.2	2660.7
1013.3417	2867.2614	3572.65	2693.15
1013.4587	2868.4007	3574	2693.9
1013.5757	2869.5393	3588.5	2706.95
1013.6926	2870.6773	3605.95	2723.75
1013.8095	2871.8146	3617.45	2734.2
1013.9263	2872.9513	3620.8	2735.4
1014.0431	2874.0874	3603.9	2725.75
1014.1599	2875.2227	3588.4	2708.7
1014.2766	2876.3574	3562.3	2682.95
1014.3933	2877.4915	3556.5	2679.15
1014.51	2878.6249	3526.3	2647
1014.6266	2879.7577	3501.7	2621
1014.7431	2880.8898	3486.9	2595.9
1014.8596	2882.0212	3463.45	2586.4
1014.9761	2883.152	3453.45	2574.5
1015.0925	2884.2821	3432.8	2552.85
1015.2089	2885.4116	3431.05	2553.55
1015.3253	2886.5405	3435.15	2557.9
1015.4416	2887.6686	3443	2561.4
1015.5579	2888.7962	3457.25	2582
1015.6741	2889.923	3462.4	2583.5
1015.7903	2891.0493	3480.45	2603.45
1015.9065	2892.1748	3481.3	2601.95
1016.0226	2893.2997	3492.3	2612.6
1016.1387	2894.424	3511.2	2635.25
1016.2547	2895.5476	3528.7	2651.05
1016.3707	2896.6706	3560.85	2682.55
1016.4866	2897.7929	3572.1	2693.95
1016.6025	2898.9145	3608.8	2730.5
1016.7184	2900.0355	3619.85	2741.65
1016.8342	2901.1559	3657.45	2778.3
1016.95	2902.2756	3686.95	2810.05
1017.0658	2903.3946	3718.25	2840.85
1017.1815	2904.513	3751.75	2872.55
1017.2971	2905.6308	3774.2	2898.05
1017.4127	2906.7479	3790.4	2910.9
1017.5283	2907.8643	3808.95	2932.1
1017.6439	2908.9801	3822.15	2941.4
1017.7594	2910.0953	3831.25	2952.85
1017.8748	2911.2098	3846.6	2962.65
1017.9902	2912.3236	3834.8	2949.55
1018.1056	2913.4368	3828.7	2947.9
1018.2209	2914.5494	3805.1	2926.55
1018.3362	2915.6613	3769.95	2883.4
1018.4515	2916.7725	3738.95	2858.15
1018.5667	2917.8831	3718	2837.85
1018.6819	2918.9931	3683.55	2803.5
1018.797	2920.1024	3663.85	2785.15
1018.9121	2921.211	3643.6	2765.15
1019.0271	2922.319	3620.75	2743
1019.1421	2923.4264	3593.05	2717.4
1019.2571	2924.5331	3579.25	2703.4
1019.372	2925.6391	3568.7	2688.8
1019.4869	2926.7445	3581.1	2705
1019.6017	2927.8493	3573.85	2695.55
1019.7165	2928.9534	3566.75	2690.45
1019.8313	2930.0569	3573.95	2692.15
1019.946	2931.1597	3573.4	2694.75
1020.0606	2932.2619	3555.6	2678.05
1020.1753	2933.3634	3581.05	2702.75
1020.2899	2934.4643	3566.45	2681.95
1020.4044	2935.5645	3548	2664.5
1020.5189	2936.6641	3527.65	2647.55
1020.6334	2937.763	3482.25	2604.6
1020.7478	2938.8613	3438.6	2560.35
1020.8622	2939.959	3398.5	2513.7
1020.9765	2941.056	3327	2449.85
1021.0908	2942.1523	3247.2	2367.1
1021.2051	2943.248	3171.65	2294.5
1021.3193	2944.3431	3078.35	2202.7
1021.4334	2945.4375	2968.4	2090.05
1021.5476	2946.5313	2872.85	1994.85
1021.6617	2947.6244	2773.95	1898.45
1021.7757	2948.7169	2689.95	1812.7
1021.8897	2949.8087	2591.15	1713.15
1022.0037	2950.8999	2514.55	1637.6
1022.1176	2951.9904	2422.75	1545.05
1022.2315	2953.0803	2369.2	1490.25
1022.3453	2954.1696	2286	1407.7
1022.4591	2955.2582	2247.9	1372.05
1022.5728	2956.3462	2207.05	1331
1022.6865	2957.4335	2164.45	1287.2
1022.8002	2958.5202	2126.45	1246.75
1022.9138	2959.6062	2103.05	1226.25
1023.0274	2960.6916	2078.35	1202.55
1023.141	2961.7764	2061.5	1184.45
1023.2545	2962.8605	2037.6	1158.4
1023.3679	2963.9439	2042.1	1164.5
1023.4813	2965.0267	2022.3	1142.45
1023.5947	2966.1089	2034.05	1133.95
1023.708	2967.1905	2006.9	1131.25
1023.8213	2968.2714	1995.95	1120.2
1023.9346	2969.3516	1995.85	1119.25
1024.0478	2970.4312	2017.75	1133.1
1024.1609	2971.5102	2011.25	1134.1
1024.274	2972.5885	2005.4	1127.7
1024.3871	2973.6662	2010.35	1128.8
1024.5002	2974.7432	2005.1	1128.75
1024.6132	2975.8196	2003.8	1126.7
1024.7261	2976.8954	1993.45	1119.1
1024.839	2977.9705	1979.1	1104.1
1024.9519	2979.045	1973.5	1098.2
1025.0647	2980.1188	1957.2	1080.85
1025.1775	2981.192	1934.65	1059.1
1025.2902	2982.2645	1917.35	1040.1
1025.4029	2983.3364	1891.05	1013.9
1025.5156	2984.4077	1859.5	981.25
1025.6282	2985.4783	1847.5	965.25
1025.7407	2986.5483	1809.8	934.85
1025.8532	2987.6177	1774.05	896.7
1025.9657	2988.6864	1746.95	869.95
1026.0782	2989.7545	1712.6	834.45
1026.1906	2990.8219	1674.65	799.05
1026.3029	2991.8887	1652.1	773.5
1026.4152	2992.9548	1625.3	747.85
1026.5275	2994.0204	1579.3	704.25
1026.6397	2995.0852	1557.65	681.1
1026.7519	2996.1495	1534.2	656.25
1026.864	2997.2131	1504.1	627.15
1026.9761	2998.276	1495.25	617.9
1027.0882	2999.3383	1464.25	587.05
1027.2002	3000.4	1448.8	570.9
1027.3122	3001.4611	1435.1	560.7
1027.4241	3002.5215	1415.8	539.6
1027.536	3003.5812	1403.9	528.25
1027.6478	3004.6404	1395.4	517.3
1027.7596	3005.6989	1382.8	505.4
1027.8714	3006.7567	1372.95	496.2
1027.9831	3007.8139	1384.55	478.9
1028.0947	3008.8705	1350.85	474.2
1028.2064	3009.9264	1367.6	474.55
1028.3179	3010.9818	1337.95	462.45
1028.4295	3012.0364	1335.05	456.8
1028.541	3013.0905	1330.6	451.7
1028.6524	3014.1439	1322.75	447.9
1028.7638	3015.1966	1321.75	446.65
1028.8752	3016.2487	1317.6	441.05
1028.9865	3017.3002	1323.8	439.55
1029.0978	3018.3511	1319.7	443.75
1029.209	3019.4013	1312.9	435.8
1029.3202	3020.4509	1309.9	433.75
1029.4314	3021.4998	1311.2	433.05
1029.5425	3022.5481	1307.65	430.5
1029.6535	3023.5958	1315.15	439.1
1029.7645	3024.6428	1316.55	440.55
1029.8755	3025.6892	1307.8	432.6
1029.9864	3026.735	1306.5	432.3
1030.0973	3027.7802	1310.35	434.1
1030.2082	3028.8247	1305.85	428.75
1030.319	3029.8685	1311.05	434.3
1030.4297	3030.9118	1316.3	439.5
1030.5404	3031.9544	1320.8	443.6
1030.6511	3032.9963	1319.8	445.1
1030.7617	3034.0376	1318.65	441.9
1030.8723	3035.0783	1325.9	448.8
1030.9829	3036.1184	1332	455.75
1031.0934	3037.1578	1328.45	454.7
1031.2038	3038.1966	1339.85	461.8
1031.3142	3039.2348	1329.9	455.65
1031.4246	3040.2723	1335.85	451.3
1031.5349	3041.3092	1334.7	459.7
1031.6452	3042.3455	1333.1	454.55
1031.7554	3043.3811	1334	457.4
1031.8656	3044.4161	1328.4	450.45
1031.9758	3045.4505	1332.6	459.35
1032.0859	3046.4842	1323.35	448.05
1032.1959	3047.5173	1312	435.75
1032.3059	3048.5498	1314.35	436.55
1032.4159	3049.5816	1306.65	431.15
1032.5258	3050.6128	1302.85	426
1032.6357	3051.6434	1306	428.55
1032.7455	3052.6734	1292.05	415.3
1032.8553	3053.7027	1287.1	411.9
1032.9651	3054.7314	1286.45	412.4
1033.0748	3055.7594	1279.1	403.55
1033.1845	3056.7868	1280.55	403.95
1033.2941	3057.8136	1268.2	391.65
1033.4037	3058.8398	1265.8	389.9
1033.5132	3059.8653	1260.25	383
1033.6227	3060.8902	1261.5	388.35
1033.7321	3061.9145	1256.45	381.9
1033.8415	3062.9381	1254.5	380.3
1033.9509	3063.9612	1263.75	373.55
1034.0602	3064.9835	1239.6	364.75
1034.1694	3066.0053	1233.4	356.75
1034.2787	3067.0264	1235.8	360.05
1034.3878	3068.0469	1229	352.15
1034.497	3069.0668	1231.15	353.7
1034.6061	3070.086	1223.95	348.85
1034.7151	3071.1046	1214.2	337.95
1034.8241	3072.1226	1203.6	326.95
1034.9331	3073.1399	1194.95	320.85
1035.042	3074.1567	1187.7	311.1
1035.1508	3075.1727	1182.45	304.9
1035.2597	3076.1882	1176.25	300.75
1035.3684	3077.203	1169.65	292.1
1035.4772	3078.2173	1161.6	283
1035.5859	3079.2308	1158.75	280.35
1035.6945	3080.2438	1144.1	266.75
1035.8031	3081.2561	1134.45	259.35
1035.9117	3082.2678	1132.55	255.65
1036.0202	3083.2789	1129.15	253.15
1036.1286	3084.2893	1116.5	240.35
1036.2371	3085.2991	1111.35	235.2
1036.3454	3086.3083	1113.6	235
1036.4538	3087.3169	1105.95	228.9
1036.562	3088.3248	1108.4	230.05
1036.6703	3089.3321	1099.8	221.05
1036.7785	3090.3388	1096	221.1
1036.8866	3091.3449	1087	211.35
1036.9948	3092.3503	1085.3	206.75
1037.1028	3093.3551	1079.15	204.15
1037.2108	3094.3593	1078.05	204.15
1037.3188	3095.3629	1075.95	203
1037.4267	3096.3658	1072.65	197.15
1037.5346	3097.3681	1067.15	192.75
1037.6425	3098.3698	1070.6	192
1037.7503	3099.3708	1074.5	190.95
1037.858	3100.3713	1062.35	188.1
1037.9657	3101.3711	1061	184.75
1038.0734	3102.3702	1189.5	177.15
1038.181	3103.3688	1057.05	180.1
1038.2886	3104.3667	1053.25	180.25
1038.3961	3105.364	1052.65	179.05
1038.5036	3106.3607	1050.85	173.85
1038.611	3107.3568	1049.95	170.65
1038.7184	3108.3522	1044.4	172.3
1038.8257	3109.347	1042.75	166.9
1038.933	3110.3412	1047.45	169.6
1039.0403	3111.3348	1037.3	163.15
1039.1475	3112.3277	1040.25	164.45
1039.2547	3113.32	1032.75	158.3
1039.3618	3114.3117	1033.5	156.2
1039.4689	3115.3028	1036.5	160.9
1039.5759	3116.2932	1030.45	153.4
1039.6829	3117.2831	1037.1	154.75
1039.7898	3118.2723	1031.55	156.7
1039.8967	3119.2608	1026.65	151.9
1040.0035	3120.2488	1027.35	151.95
1040.1103	3121.2361	1026.15	150.75
1040.2171	3122.2229	1023.95	150.1
1040.3238	3123.209	1017.95	141.35
1040.4305	3124.1944	1021.3	146.55
1040.5371	3125.1793	1020.35	144.4
1040.6437	3126.1635	1019.7	145.55
1040.7502	3127.1471	1016	140.9
1040.8567	3128.1301	1014.05	138.95
1040.9631	3129.1125	1010.55	136.45
1041.0695	3130.0942	1016.2	140.05
1041.1759	3131.0753	1022.45	137.45
1041.2822	3132.0558	1014.7	138.25
1041.3884	3133.0357	1005.35	130.15
1041.4946	3134.015	1007.95	129.55
1041.6008	3134.9936	1008.3	131.7
1041.7069	3135.9716	1021.4	125.25
1041.813	3136.949	1010.1	136.1
1041.919	3137.9258	1027	135.8
1042.025	3138.902	1006.95	128.9
1042.1309	3139.8775	1001.25	126.9
1042.2368	3140.8524	999.1	124.5
1042.3427	3141.8267	999.9	123.2
1042.4485	3142.8004	996.45	120.3
1042.5542	3143.7735	1004.95	124.85
1042.6599	3144.7459	998.65	120.6
1042.7656	3145.7178	992.75	118.45
1042.8712	3146.689	994.8	118.3
1042.9768	3147.6596	993.7	117.95
1043.0823	3148.6295	995.45	122.9
1043.1878	3149.5989	992.9	118.9
1043.2932	3150.5676	984.95	111.25
1043.3986	3151.5357	989.6	114.05
1043.5039	3152.5032	985.1	110.1
1043.6092	3153.4701	989.8	116.05
1043.7145	3154.4364	991.55	116.65
1043.8197	3155.402	987.35	112.25
1043.9248	3156.367	988	111.55
1044.03	3157.3315	1015.4	110.9
1044.135	3158.2952	985.35	111.1
1044.24	3159.2584	981.9	106.9
1044.345	3160.221	984.15	107.25
1044.4499	3161.1829	980.25	103.75
1044.5548	3162.1442	981.55	107.45
1044.6596	3163.105	979.9	105.05
1044.7644	3164.065	980.05	105.6
1044.8692	3165.0245	978.5	99.25
1044.9739	3165.9834	978	104.6
1045.0785	3166.9416	980.65	105.75
1045.1831	3167.8993	976.55	101.45
1045.2877	3168.8563	975.7	100.65
1045.3922	3169.8127	973.1	99.55
1045.4966	3170.7684	972.35	97.65
1045.6011	3171.7236	974.3	100.2
1045.7054	3172.6782	972.15	97.35
1045.8098	3173.6321	975.7	102.05
1045.914	3174.5854	975.2	96.1
1046.0183	3175.5381	972.35	96.85
1046.1224	3176.4902	970.8	95.7
1046.2266	3177.4417	966.45	90.75
1046.3307	3178.3926	971.45	97.55
1046.4347	3179.3428	966.35	92.95
1046.5387	3180.2924	967.5	94.9
1046.6427	3181.2415	967.8	92.2
1046.7466	3182.1899	967.15	91.6
1046.8504	3183.1377	966.1	92.75
1046.9542	3184.0848	970.75	94.25
1047.058	3185.0314	965.3	90
1047.1617	3185.9773	964.6	90.1
1047.2654	3186.9227	964.45	89.2
1047.369	3187.8674	961.75	87.9
1047.4726	3188.8115	968.5	89.5
1047.5761	3189.755	960.2	87.4
1047.6796	3190.6979	964.7	91
1047.783	3191.6402	958	85.1
1047.8864	3192.5818	960.25	85.75
1047.9898	3193.5229	979.85	86.45
1048.0931	3194.4633	959.9	84.55
1048.1963	3195.4031	960.15	83.65
1048.2995	3196.3423	957.95	82.65
1048.4027	3197.2809	958.8	83.45
1048.5058	3198.2189	957.85	85.35
1048.6089	3199.1563	966.35	85.85
1048.7119	3200.0931	955.5	82.65
1048.8148	3201.0292	957.25	84.25
1048.9178	3201.9648	956.2	83.1
1049.0206	3202.8997	959.8	82.65
1049.1235	3203.834	956.55	82.85
1049.2262	3204.7677	952.6	77.7
1049.329	3205.7008	953.95	78.45
1049.4317	3206.6333	952.85	81.7
1049.5343	3207.5652	951.5	74.75
1049.6369	3208.4964	950.3	76.4
1049.7394	3209.4271	952.15	79.2
1049.8419	3210.3571	950.85	77
1049.9444	3211.2865	953.15	79.35
1050.0468	3212.2154	949.25	73.85
1050.1491	3213.1436	953.95	76.2
1050.2514	3214.0712	956.9	75.45
1050.3537	3214.9982	950.6	77.6
1050.4559	3215.9246	951.25	76.8
1050.5581	3216.8503	946.5	74.35
1050.6602	3217.7755	948.1	72.55
1050.7623	3218.7001	948.65	76.9
1050.8643	3219.624	947.75	73.85
1050.9663	3220.5473	951.8	79.35
1051.0682	3221.4701	946.9	70.25
1051.1701	3222.3922	948.35	74.65
1051.2719	3223.3137	944.8	70.05
1051.3737	3224.2346	945.4	72.2
1051.4754	3225.1549	946.65	71.75
1051.5771	3226.0746	940.5	66.8
1051.6788	3226.9937	946.15	71.45
1051.7804	3227.9121	944.95	71
1051.8819	3228.83	942.2	68.8
1051.9834	3229.7473	943.5	67.8
1052.0849	3230.6639	943.05	69.2
1052.1863	3231.5799	940.45	66.45
1052.2876	3232.4954	941.5	68.3
1052.3889	3233.4102	944	72.2
1052.4902	3234.3244	940.55	67.4
1052.5914	3235.238	939.6	65.75
1052.6926	3236.151	966.45	68.45
1052.7937	3237.0634	940.45	67
1052.8948	3237.9752	940.05	66.85
1052.9958	3238.8864	936.95	63.75
1053.0968	3239.797	937.5	62.8
1053.1977	3240.7069	938.4	63.8
1053.2986	3241.6163	937.95	63.75
1053.3994	3242.5251	937.75	65.65
1053.5002	3243.4332	933.55	61.45
1053.6009	3244.3408	936.25	60.6
1053.7016	3245.2477	933.2	60.2
1053.8022	3246.154	933.55	60.05
1053.9028	3247.0598	936.75	60.8
1054.0034	3247.9649	934.9	58.35
1054.1039	3248.8694	930.85	54.75
1054.2043	3249.7733	935.15	61.8
1054.3047	3250.6766	930.4	57.25
1054.4051	3251.5793	933	57.15
1054.5054	3252.4814	929.65	56.35
1054.6056	3253.3829	930.3	57.95
1054.7058	3254.2838	932.15	59.95
1054.806	3255.1841	930.2	57.05
1054.9061	3256.0838	930.05	55.55
1055.0061	3256.9829	929.1	55.95
1055.1062	3257.8814	930.45	55.8
1055.2061	3258.7792	930.05	55
1055.306	3259.6765	927.8	53.55
1055.4059	3260.5731	925.2	53.5
1055.5057	3261.4692	925.65	51.9
1055.6055	3262.3647	923.95	49
1055.7052	3263.2595	921.7	48.8
1055.8049	3264.1538	923.35	48.8
1055.9045	3265.0474	923.95	51.15
1056.0041	3265.9404	917.6	44.95
1056.1036	3266.8329	917.1	43.25
1056.2031	3267.7247	929.3	44.95
1056.3025	3268.616	915.85	44.05
1056.4019	3269.5066	917.5	42.45
1056.5013	3270.3966	917.1	42.55
1056.6005	3271.286	914.1	41.1
