Software Version:	3.9.2.0
Unit SN:	10000200
Spectrometer SN:	6960
Date:	3/8/2024 11:57:14 AM
Data Line Index:	25
Spectral Points:	2048
Integration time (ms):	125
Averages:	20
Delay (ms):	30000
Sequence Number:	1
Processing:	dark subtract
Laser Power (mW):	305
Laser Current (mA):	822
Laser Diode Temp (C):	25.1
Laser Case Temp (C):	25.4
System Temp (C):	25.5
Spectrometer Temp (C):	23.3
CCD Temp (C):	0.013
Secondary Temp (C):	20.014
Heatsink Temp (C):	20.273
CCDPCB Temp (C):	33.917
SecondaryPCB Temp (C):	27.903

Wavelength	RamanShift	Raw Counts	Dark Subtracted
787.061	30.1047	413.85	4.15
787.2016	32.3739	412.7	3.95
787.3422	34.6426	415.95	6.85
787.4828	36.9109	416.05	6.4
787.6235	39.1787	420.85	6.8
787.7642	41.4461	424.4	5.6
787.9049	43.7131	429.1	6.45
788.0456	45.9796	432.7	8.65
788.1863	48.2456	437.5	8.8
788.3271	50.5112	442	7.9
788.4679	52.7764	445.7	8.25
788.6087	55.0411	450.5	10.75
788.7496	57.3054	456.65	11.45
788.8904	59.5692	458.4	13.9
789.0313	61.8326	463.1	12.75
789.1722	64.0955	466.7	14.6
789.3132	66.3579	475.75	18.5
789.4541	68.6199	481.25	20.6
789.5951	70.8815	490.5	24.6
789.7361	73.1426	508.45	38.05
789.8771	75.4032	539.75	65.7
790.0181	77.6634	612.1	134.8
790.1592	79.9231	774.9	292
790.3003	82.1824	1118.1	626.35
790.4414	84.4412	1676.1	1161.55
790.5825	86.6995	2393.95	1859.75
790.7237	88.9574	3048.9	2493.8
790.8648	91.2148	3501.35	2932.5
791.006	93.4717	3695.65	3118.75
791.1472	95.7282	3711.6	3129.55
791.2885	97.9842	3698.25	3111.85
791.4297	100.2398	3648.7	3066.85
791.571	102.4949	3583.15	2993.95
791.7123	104.7495	3539.35	2948.55
791.8536	107.0036	3491.1	2898.45
791.9949	109.2573	3420.1	2827.2
792.1363	111.5105	3319.45	2725.8
792.2777	113.7632	3232.35	2634.65
792.4191	116.0154	3147.25	2539.65
792.5605	118.2672	3025.75	2424.5
792.7019	120.5185	2933.4	2328.4
792.8434	122.7693	2848.75	2240.45
792.9849	125.0197	2763.8	2156.4
793.1264	127.2696	2699.15	2088.15
793.2679	129.519	2655.95	2038.9
793.4094	131.7679	2633	2011.8
793.551	134.0163	2617.75	1992.65
793.6926	136.2642	2605.9	1975.5
793.8342	138.5117	2602.45	1964.05
793.9758	140.7587	2550.6	1921.05
794.1175	143.0052	2517.95	1882.25
794.2591	145.2512	2461.55	1828
794.4008	147.4967	2422.35	1787.2
794.5425	149.7417	2378.35	1744.15
794.6842	151.9863	2355.95	1712.35
794.826	154.2304	2348.6	1699.05
794.9677	156.4739	2349.8	1698.25
795.1095	158.717	2356.6	1705.3
795.2513	160.9596	2374.55	1718.05
795.3931	163.2017	2396.9	1737.3
795.535	165.4433	2415.05	1754.25
795.6768	167.6844	2391.2	1731.1
795.8187	169.925	2354	1688.9
795.9606	172.1651	2312.15	1642.3
796.1025	174.4047	2263.2	1592.35
796.2445	176.6439	2231.45	1558.1
796.3864	178.8825	2206.65	1528.8
796.5284	181.1206	2197.5	1518.35
796.6704	183.3582	2196.85	1510.85
796.8124	185.5954	2179.65	1496.2
796.9544	187.832	2173.5	1484.65
797.0965	190.0681	2186.85	1493.7
797.2386	192.3037	2189.9	1493.3
797.3806	194.5388	2206.95	1505.95
797.5228	196.7734	2197.45	1497.45
797.6649	199.0075	2207.05	1505.75
797.807	201.2411	2240	1536.45
797.9492	203.4742	2259.1	1554.1
798.0914	205.7068	2289.85	1582.1
798.2336	207.9389	2306.3	1594.35
798.3758	210.1704	2312	1602.25
798.518	212.4015	2301.9	1605.35
798.6603	214.632	2307.25	1620.35
798.8025	216.862	2305.65	1622.85
798.9448	219.0915	2321.95	1633.85
799.0871	221.3205	2327.5	1634.4
799.2294	223.549	2341.3	1654.75
799.3718	225.777	2334.65	1647.7
799.5141	228.0044	2327.1	1633.75
799.6565	230.2314	2320.95	1625.5
799.7989	232.4578	2303.6	1605.8
799.9413	234.6837	2292.9	1583.75
800.0837	236.909	2289.15	1581.05
800.2262	239.1339	2301.65	1568.1
800.3687	241.3582	2290.4	1569.65
800.5111	243.582	2301.8	1551.65
800.6536	245.8053	2309.55	1572.15
800.7961	248.0281	2306.4	1574.1
800.9387	250.2503	2311.65	1573.7
801.0812	252.472	2323.5	1583.7
801.2238	254.6932	2335.1	1598.9
801.3664	256.9139	2336.85	1600.3
801.509	259.134	2361.85	1618.45
801.6516	261.3536	2381.35	1644
801.7942	263.5727	2420.85	1679.05
801.9369	265.7912	2458.7	1715
802.0795	268.0092	2509.25	1764.9
802.2222	270.2267	2573.2	1833
802.3649	272.4436	2602.45	1854.25
802.5076	274.6601	2651.85	1896.45
802.6504	276.8759	2673.85	1926.05
802.7931	279.0913	2691.85	1945.1
802.9359	281.3061	2695.4	1940.05
803.0787	283.5204	2720.65	1964.05
803.2215	285.7341	2737.9	1978.9
803.3643	287.9473	2753.35	1994.4
803.5071	290.16	2752.55	1990.65
803.6499	292.3721	2719.25	1964.3
803.7928	294.5837	2684.8	1927.9
803.9357	296.7947	2683.75	1925.35
804.0786	299.0052	2665.9	1907.6
804.2215	301.2152	2648.6	1886.65
804.3644	303.4246	2636.35	1880.05
804.5074	305.6334	2601.5	1844.5
804.6503	307.8418	2594.8	1832.5
804.7933	310.0495	2559.05	1795.25
804.9363	312.2568	2530.75	1766.45
805.0793	314.4635	2485.05	1714.65
805.2223	316.6696	2441.3	1674.95
805.3653	318.8752	2404.75	1626.5
805.5084	321.0802	2379.25	1607.35
805.6514	323.2847	2367	1593.4
805.7945	325.4887	2371.1	1599
805.9376	327.692	2390.6	1616.2
806.0807	329.8949	2434.15	1657.9
806.2238	332.0972	2455.45	1676.95
806.367	334.2989	2490.45	1706.65
806.5101	336.5001	2477.85	1698.5
806.6533	338.7007	2439.9	1654.8
806.7965	340.9008	2406.35	1623.6
806.9397	343.1003	2353.85	1566.55
807.0829	345.2992	2311.9	1527.2
807.2261	347.4976	2285.8	1498.9
807.3693	349.6955	2263.2	1473.25
807.5126	351.8927	2227.3	1435.5
807.6559	354.0895	2225.25	1421.1
807.7991	356.2856	2219.35	1421.6
807.9424	358.4812	2205.9	1410.9
808.0857	360.6763	2190.35	1394.9
808.2291	362.8707	2197.35	1396.35
808.3724	365.0646	2195.2	1397.75
808.5158	367.258	2213.3	1409.95
808.6591	369.4508	2233.7	1428.2
808.8025	371.643	2253.5	1448.8
808.9459	373.8346	2277.55	1469.95
809.0893	376.0257	2311.15	1503
809.2327	378.2162	2328.1	1519.35
809.3762	380.4062	2332.05	1523.3
809.5196	382.5956	2304.05	1498
809.6631	384.7844	2265.15	1464.35
809.8066	386.9726	2245	1448.35
809.9501	389.1603	2203.75	1403.65
810.0936	391.3474	2223.75	1392.85
810.2371	393.5339	2203.8	1401.4
810.3806	395.7199	2206.75	1408.45
810.5241	397.9052	2247.6	1446.85
810.6677	400.09	2267.6	1467.8
810.8113	402.2743	2316.05	1514.75
810.9548	404.4579	2347.1	1543.75
811.0984	406.641	2396.45	1590.15
811.2421	408.8235	2426.05	1618.8
811.3857	411.0054	2471.55	1660.25
811.5293	413.1868	2538.55	1724.4
811.673	415.3675	2590.45	1771.65
811.8166	417.5477	2582.5	1766.55
811.9603	419.7273	2526.8	1705.55
812.104	421.9064	2444.75	1618
812.2477	424.0848	2400.15	1580.4
812.3914	426.2627	2337.4	1520.05
812.5351	428.4399	2273.1	1454.95
812.6788	430.6166	2232.6	1409.25
812.8226	432.7928	2189.25	1361.85
812.9663	434.9683	2156.25	1331.5
813.1101	437.1432	2130.35	1308.25
813.2539	439.3176	2099.2	1275.6
813.3977	441.4914	2078.35	1259.75
813.5415	443.6645	2093.75	1269.5
813.6853	445.8371	2093.6	1270.9
813.8291	448.0091	2085.75	1262.05
813.973	450.1806	2085.65	1260.85
814.1168	452.3514	2076.4	1249.3
814.2607	454.5216	2092.65	1257.6
814.4046	456.6913	2072.5	1241.7
814.5485	458.8603	2083.9	1255.15
814.6924	461.0288	2097.5	1274.75
814.8363	463.1967	2085.1	1261.9
814.9802	465.3639	2087.1	1258.75
815.1241	467.5306	2088.15	1258.55
815.2681	469.6967	2070.8	1244.85
815.412	471.8622	2066.3	1237.55
815.556	474.0271	2063.3	1237.05
815.7	476.1914	2066.4	1230.25
815.844	478.3551	2058.55	1226.8
815.988	480.5182	2058	1228.65
816.132	482.6807	2065.5	1235.25
816.276	484.8426	2074.05	1252.5
816.4201	487.0039	2113	1283.55
816.5641	489.1647	2164	1334.4
816.7082	491.3248	2212.9	1381.3
816.8522	493.4843	2226.1	1396.2
816.9963	495.6432	2217	1384.55
817.1404	497.8015	2186.3	1347.05
817.2845	499.9592	2161.7	1320.6
817.4286	502.1163	2106.9	1268.85
817.5727	504.2728	2056.95	1219.45
817.7168	506.4287	2045.85	1215.3
817.861	508.5839	2017.75	1183.15
818.0051	510.7386	2013.05	1177.95
818.1493	512.8927	2034.75	1195.2
818.2935	515.0461	2041.85	1201.3
818.4377	517.199	2060.05	1218.25
818.5818	519.3512	2090.65	1249
818.726	521.5029	2155.7	1313.05
818.8703	523.6539	2204.55	1362.9
819.0145	525.8043	2202.1	1360.75
819.1587	527.9541	2156.9	1313.1
819.303	530.1033	2100.1	1256.1
819.4472	532.2519	2059.5	1216.55
819.5915	534.3999	2031.7	1181.8
819.7357	536.5472	2027.35	1183.1
819.88	538.694	2026.4	1180.75
820.0243	540.8401	2039.3	1190.5
820.1686	542.9856	2060.75	1208.1
820.3129	545.1305	2074.4	1221.15
820.4572	547.2748	2095.75	1239.9
820.6016	549.4185	2099.9	1245.25
820.7459	551.5615	2097.5	1239.3
820.8902	553.704	2113.55	1257.6
821.0346	555.8458	2143.2	1293.2
821.1789	557.987	2153.1	1300.8
821.3233	560.1276	2175.65	1322.7
821.4677	562.2675	2222.15	1370.55
821.6121	564.4069	2285.1	1429.85
821.7565	566.5456	2324.4	1470.9
821.9009	568.6837	2320.8	1468.8
822.0453	570.8212	2242.3	1392.1
822.1897	572.958	2172.4	1322.75
822.3342	575.0942	2120.6	1271.95
822.4786	577.2299	2089.5	1242.5
822.6231	579.3648	2064.15	1218.45
822.7675	581.4992	2046.45	1206.5
822.912	583.6329	2050.05	1210.4
823.0565	585.766	2078.65	1232.7
823.201	587.8985	2121.45	1272.25
823.3454	590.0304	2175.9	1312.75
823.4899	592.1616	2202.4	1347.1
823.6345	594.2922	2179.6	1323.45
823.779	596.4222	2145.55	1283.85
823.9235	598.5515	2098.15	1239.05
824.068	600.6802	2043.25	1184.75
824.2126	602.8083	2007.45	1148.3
824.3571	604.9358	1995.85	1135.1
824.5017	607.0626	1988.6	1127.15
824.6462	609.1888	2016.95	1150.75
824.7908	611.3144	2031.3	1166.35
824.9354	613.4393	2066.35	1204.75
825.08	615.5636	2121.7	1259.5
825.2246	617.6873	2160.3	1296.45
825.3692	619.8103	2189.05	1322.35
825.5138	621.9327	2175.15	1310.75
825.6584	624.0544	2145.3	1282.75
825.803	626.1756	2086.7	1224.25
825.9477	628.2961	2049.5	1186.95
826.0923	630.4159	2036.65	1169.1
826.237	632.5351	2027.45	1161.15
826.3816	634.6537	2016.05	1151.55
826.5263	636.7716	2004.5	1130.6
826.6709	638.8889	2006.1	1137.25
826.8156	641.0056	2009	1136.55
826.9603	643.1216	2017.65	1151.1
827.105	645.237	2011.1	1139.35
827.2497	647.3518	1997.45	1132.85
827.3944	649.4659	1974.45	1111.25
827.5391	651.5793	1962.25	1097.6
827.6838	653.6922	1943.7	1078.9
827.8285	655.8043	1939	1071.65
827.9733	657.9159	1930.35	1063.05
828.118	660.0268	1912.35	1043.85
828.2627	662.137	1915.55	1043.7
828.4075	664.2466	1928.75	1055.05
828.5522	666.3556	1922.8	1050
828.697	668.4639	1907.45	1033.95
828.8418	670.5716	1907.1	1036.65
828.9865	672.6786	1908.8	1036.45
829.1313	674.785	1892.7	1018.35
829.2761	676.8907	1891.15	1019.6
829.4209	678.9958	1884.25	1018.55
829.5657	681.1002	1887.95	1015.95
829.7105	683.204	1892.4	1012.8
829.8553	685.3072	1895.5	1019.15
830.0001	687.4097	1893.6	1019.25
830.1449	689.5115	1887.3	1009.95
830.2898	691.6127	1893.8	1020.75
830.4346	693.7132	1887.05	1014.05
830.5794	695.8131	1902.1	1005
830.7243	697.9123	1895.25	1018.2
830.8691	700.0109	1902.45	1022.75
831.014	702.1089	1913.95	1038.5
831.1588	704.2061	1915.65	1039.05
831.3037	706.3028	1946.05	1065.05
831.4486	708.3987	1961.4	1083.35
831.5935	710.4941	1968.1	1090.25
831.7383	712.5887	1971.25	1096
831.8832	714.6827	1980.65	1098.25
832.0281	716.7761	1969.2	1095.05
832.173	718.8688	1969.7	1093
832.3179	720.9608	1967.8	1084
832.4628	723.0522	1986.3	1099.3
832.6077	725.1429	2023.5	1142.45
832.7527	727.233	2045.95	1162.6
832.8976	729.3224	2111.5	1233.55
833.0425	731.4112	2147.4	1266.95
833.1874	733.4993	2146.3	1265.85
833.3324	735.5867	2094.05	1214.6
833.4773	737.6735	2032.55	1151.1
833.6222	739.7596	1981.95	1098.85
833.7672	741.845	1954.2	1067.95
833.9122	743.9298	1953.3	1072.5
834.0571	746.014	1962.6	1079.9
834.2021	748.0974	1983.75	1097.2
834.347	750.1802	1972.75	1087.9
834.492	752.2624	1957.8	1070.7
834.637	754.3439	1954.15	1066.2
834.782	756.4247	1950.3	1055.45
834.9269	758.5048	1947.45	1062.15
835.0719	760.5843	1973.05	1086.55
835.2169	762.6631	2009.7	1122.8
835.3619	764.7413	2048.7	1163.5
835.5069	766.8188	2141.95	1254.75
835.6519	768.8956	2211.75	1322.55
835.7969	770.9718	2263.3	1376.25
835.9419	773.0473	2259.35	1371.95
836.0869	775.1221	2235.1	1351.9
836.232	777.1962	2225.65	1336.85
836.377	779.2697	2283.55	1397.2
836.522	781.3426	2371.4	1463.7
836.667	783.4147	2409.1	1519.45
836.8121	785.4862	2393.35	1506.1
836.9571	787.557	2298.4	1409.4
837.1021	789.6271	2188.65	1299.4
837.2472	791.6966	2075.65	1185.95
837.3922	793.7654	1989.3	1098.35
837.5373	795.8335	1931.25	1044
837.6823	797.901	1916.5	1031.3
837.8274	799.9678	1919.25	1025.95
837.9724	802.0339	1901.1	1011.2
838.1175	804.0993	1915.35	1015.2
838.2626	806.1641	1890.35	998.65
838.4076	808.2282	1885.85	997.4
838.5527	810.2916	1869.95	979.3
838.6978	812.3544	1847.55	959.85
838.8428	814.4164	1838.45	950.5
838.9879	816.4778	1860.75	969.1
839.133	818.5385	1868.7	976.05
839.2781	820.5986	1893	999.85
839.4232	822.658	1947.8	1056.8
839.5682	824.7166	2008.45	1117.65
839.7133	826.7747	2087.9	1197.35
839.8584	828.832	2160.9	1266.25
840.0035	830.8886	2212.95	1316.15
840.1486	832.9446	2232.7	1340.55
840.2937	834.9999	2199	1305.45
840.4388	837.0545	2138.65	1244.65
840.5839	839.1085	2040.2	1145.9
840.729	841.1618	1987.65	1089.9
840.8741	843.2143	1943.45	1048.75
841.0192	845.2662	1916.3	1023.35
841.1643	847.3175	1896.35	1000.5
841.3095	849.368	1885.2	992.35
841.4546	851.4179	1883.5	986.7
841.5997	853.467	1877.2	983.7
841.7448	855.5155	1877.45	982.8
841.8899	857.5633	1886.15	991.8
842.0351	859.6105	1887.25	993.1
842.1802	861.6569	1870.2	973.65
842.3253	863.7027	1858.75	960.9
842.4704	865.7478	1849.9	952.15
842.6156	867.7922	1841.3	945.2
842.7607	869.8359	1826.25	932.75
842.9058	871.8789	1832.5	936.85
843.0509	873.9212	1857.9	932.3
843.1961	875.9629	1827.15	930.05
843.3412	878.0039	1854.95	958.4
843.4863	880.0441	1865.85	968.55
843.6315	882.0837	1886.3	994.1
843.7766	884.1226	1901.85	1005.8
843.9218	886.1609	1935.65	1040.05
844.0669	888.1984	1966.8	1071.8
844.212	890.2352	2016.95	1119.15
844.3572	892.2714	2022.2	1121.3
844.5023	894.3069	1998.4	1097.65
844.6475	896.3416	1950.65	1053.8
844.7926	898.3757	1914.8	1013.6
844.9377	900.4091	1908.9	1008.35
845.0829	902.4418	1912.75	1009.7
845.228	904.4739	1924.35	1024
845.3732	906.5052	1927.35	1027.8
845.5183	908.5358	1926.45	1026.85
845.6635	910.5658	1887.2	987.55
845.8086	912.595	1863.4	961.1
845.9538	914.6236	1835.05	935.6
846.0989	916.6515	1806.35	907.95
846.2441	918.6786	1797.45	895.05
846.3892	920.7051	1777.65	875.1
846.5344	922.7309	1783.6	879.95
846.6795	924.756	1785.1	887.65
846.8246	926.7804	1796.35	895.2
846.9698	928.8041	1801.8	901
847.1149	930.8272	1816.1	914.3
847.2601	932.8495	1825.6	925.6
847.4052	934.8711	1833.65	933
847.5504	936.892	1841.8	938.7
847.6955	938.9123	1850.2	948.2
847.8407	940.9318	1874.7	974.25
847.9858	942.9506	1881.2	976.7
848.131	944.9688	1866.35	967.8
848.2761	946.9862	1856.2	953.35
848.4213	949.003	1822.4	924
848.5664	951.019	1795.7	894.15
848.7115	953.0344	1777.5	876.05
848.8567	955.0491	1770.7	870.35
849.0018	957.063	1774.85	872.5
849.147	959.0763	1772.9	873.75
849.2921	961.0888	1764.15	861.7
849.4373	963.1007	1768.6	869.3
849.5824	965.1119	1759.35	863.8
849.7275	967.1223	1748	854.75
849.8727	969.1321	1743.15	850.15
850.0178	971.1412	1742.9	846.4
850.1629	973.1495	1743.9	845.4
850.3081	975.1572	1775.3	839.9
850.4532	977.1641	1741.55	840.2
850.5983	979.1704	1739.95	837.35
850.7435	981.1759	1735.8	831.4
850.8886	983.1808	1731.95	827.75
851.0337	985.1849	1742.65	828.05
851.1788	987.1884	1735	832.5
851.324	989.1911	1741.4	836.05
851.4691	991.1932	1736.65	835.9
851.6142	993.1945	1740.3	837.8
851.7593	995.1951	1737	833.4
851.9045	997.1951	1737.8	830.55
852.0496	999.1943	1736.8	833.9
852.1947	1001.1928	1728.1	823.9
852.3398	1003.1906	1742.9	840.9
852.4849	1005.1877	1768.8	867.15
852.63	1007.1841	1784.05	883.35
852.7751	1009.1798	1798.85	899.1
852.9202	1011.1748	1781.25	878.75
853.0653	1013.1691	1760.6	856.5
853.2104	1015.1627	1730.25	828.9
853.3555	1017.1556	1709.65	805.6
853.5006	1019.1477	1692.85	789.65
853.6457	1021.1392	1679.8	783.8
853.7908	1023.1299	1674.8	776.45
853.9359	1025.12	1666.35	769.9
854.081	1027.1093	1669.95	780.2
854.2261	1029.0979	1680.9	792.9
854.3712	1031.0859	1706.45	814.85
854.5163	1033.0731	1706.75	810.35
854.6613	1035.0596	1715.55	817.35
854.8064	1037.0454	1711.05	808.65
854.9515	1039.0304	1707.3	802.75
855.0965	1041.0148	1678.75	779.1
855.2416	1042.9985	1666.3	762.8
855.3867	1044.9814	1655.5	755.05
855.5317	1046.9636	1648.25	743.1
855.6768	1048.9452	1649.65	749.05
855.8219	1050.926	1673.15	771.65
855.9669	1052.9061	1691.05	790.5
856.112	1054.8855	1691.65	789.2
856.257	1056.8642	1690.7	787.8
856.4021	1058.8421	1684.95	781.8
856.5471	1060.8194	1693.1	789
856.6921	1062.7959	1683.25	778.55
856.8372	1064.7717	1690.45	786.5
856.9822	1066.7469	1685.85	781.7
857.1272	1068.7213	1690.1	785.15
857.2723	1070.695	1704.15	800.35
857.4173	1072.6679	1722	819.9
857.5623	1074.6402	1735.55	833.15
857.7073	1076.6117	1748.85	840.9
857.8523	1078.5826	1719.85	815.2
857.9973	1080.5527	1696.25	789.9
858.1423	1082.5221	1667.05	759.65
858.2873	1084.4908	1644.5	740.4
858.4323	1086.4587	1631.55	725.8
858.5773	1088.426	1623.6	718
858.7223	1090.3925	1624.9	713.35
858.8673	1092.3584	1618.5	716.15
859.0123	1094.3235	1636.35	733.85
859.1573	1096.2879	1655.4	752.8
859.3022	1098.2515	1676.2	774.95
859.4472	1100.2145	1707.65	803.6
859.5922	1102.1767	1742.2	838.8
859.7371	1104.1382	1769.3	865.05
859.8821	1106.099	1822.7	914.65
860.027	1108.0591	1859.3	957.3
860.172	1110.0185	1892.55	988
860.3169	1111.9771	1933.55	1028.3
860.4619	1113.9351	1975.3	1070.5
860.6068	1115.8923	2022.35	1117.7
860.7517	1117.8488	2047.55	1140.9
860.8967	1119.8045	1989.65	1086.9
861.0416	1121.7596	1895.75	991.3
861.1865	1123.7139	1814.05	912.35
861.3314	1125.6675	1777.8	874.6
861.4763	1127.6204	1779.2	875.6
861.6212	1129.5726	1792.05	887.15
861.7661	1131.524	1785.35	881.55
861.911	1133.4748	1742.05	835.35
862.0559	1135.4248	1699.65	793.6
862.2008	1137.3741	1651.9	748.25
862.3457	1139.3226	1636.7	731.6
862.4905	1141.2705	1629.5	725.75
862.6354	1143.2176	1641.75	732.2
862.7803	1145.164	1654.85	750.3
862.9251	1147.1097	1642.1	739.15
863.07	1149.0546	1619.5	714.1
863.2148	1150.9989	1595.5	687.95
863.3597	1152.9424	1580.9	676.3
863.5045	1154.8852	1575.05	670.75
863.6493	1156.8272	1573.25	669.95
863.7942	1158.7686	1576.3	662.3
863.939	1160.7092	1570.75	665.45
864.0838	1162.6491	1581	675.2
864.2286	1164.5883	1591.7	687.35
864.3734	1166.5267	1600.85	695.75
864.5182	1168.4644	1620.85	718.85
864.663	1170.4014	1658.35	750.55
864.8078	1172.3377	1688.8	786.4
864.9526	1174.2732	1745.75	842.45
865.0974	1176.2081	1825.6	922.25
865.2421	1178.1421	1931.35	1021.25
865.3869	1180.0755	2035.8	1130.45
865.5317	1182.0082	2067.25	1162.85
865.6764	1183.9401	2040.25	1134.3
865.8212	1185.8713	1952.7	1053.05
865.9659	1187.8017	1836.55	937.85
866.1106	1189.7315	1745.05	852.4
866.2554	1191.6605	1712.75	789.25
866.4001	1193.5888	1648.75	749.3
866.5448	1195.5163	1626.6	728.05
866.6895	1197.4432	1609.75	706.4
866.8342	1199.3693	1594.15	690.9
866.9789	1201.2947	1581.7	677.65
867.1236	1203.2193	1574.35	671.25
867.2683	1205.1432	1577.75	672.9
867.413	1207.0664	1572.75	668
867.5576	1208.9889	1566.45	660.2
867.7023	1210.9106	1572.75	670.95
867.847	1212.8316	1576.65	671.5
867.9916	1214.7519	1594.3	682.3
868.1363	1216.6715	1599.9	695.45
868.2809	1218.5903	1612.8	708.95
868.4255	1220.5084	1630.7	725.1
868.5701	1222.4257	1642.75	738.15
868.7148	1224.3424	1648.15	747.1
868.8594	1226.2583	1668.45	763.25
869.004	1228.1735	1702.5	798.15
869.1486	1230.0879	1735.55	833.6
869.2932	1232.0016	1763.5	860.65
869.4377	1233.9146	1803.25	898.35
869.5823	1235.8269	1807.75	902
869.7269	1237.7384	1811.65	907.95
869.8715	1239.6492	1833.85	929.7
870.016	1241.5592	1845.15	943.55
870.1606	1243.4686	1889.6	985.75
870.3051	1245.3772	1957.6	1053.4
870.4496	1247.285	2028.2	1124
870.5941	1249.1922	2107.85	1202.4
870.7387	1251.0986	2168.25	1267.35
870.8832	1253.0042	2238.7	1335.3
871.0277	1254.9092	2310.55	1405.4
871.1722	1256.8134	2374.65	1474.5
871.3167	1258.7169	2427.9	1522.4
871.4611	1260.6196	2442.35	1539.15
871.6056	1262.5216	2443.35	1539.4
871.7501	1264.4229	2412.95	1510.55
871.8945	1266.3234	2398.95	1495.75
872.039	1268.2232	2355.05	1447
872.1834	1270.1223	2322.8	1415.45
872.3278	1272.0207	2295.45	1391.05
872.4723	1273.9183	2285.35	1375.15
872.6167	1275.8151	2280.2	1376.55
872.7611	1277.7113	2328.05	1423.05
872.9055	1279.6067	2401.55	1498.25
873.0499	1281.5014	2525.3	1620.1
873.1943	1283.3953	2691.05	1784
873.3386	1285.2885	2831.95	1928.75
873.483	1287.181	2922.45	2016.55
873.6274	1289.0727	2963	2061.8
873.7717	1290.9637	2920.75	2017
873.9161	1292.854	2844.5	1939.8
874.0604	1294.7435	2757.65	1854.8
874.2047	1296.6323	2683.4	1778.55
874.349	1298.5204	2614.25	1706.3
874.4933	1300.4077	2542.5	1636.6
874.6376	1302.2943	2500.8	1599
874.7819	1304.1802	2467.7	1564.4
874.9262	1306.0653	2446.5	1541.8
875.0705	1307.9497	2409.1	1506.25
875.2147	1309.8333	2365.35	1460.45
875.359	1311.7162	2336.25	1430.85
875.5032	1313.5984	2305.85	1396.85
875.6475	1315.4798	2297.6	1382.15
875.7917	1317.3605	2273.2	1364.15
875.9359	1319.2405	2253.05	1346.1
876.0801	1321.1197	2224.45	1315.7
876.2243	1322.9982	2167.45	1260.65
876.3685	1324.876	2104.65	1200.7
876.5127	1326.753	2014.65	1112.15
876.6569	1328.6293	1949.45	1044.3
876.801	1330.5048	1882.15	974.95
876.9452	1332.3796	1827.6	922.1
877.0893	1334.2537	1801.6	871.25
877.2335	1336.127	1748.1	844.4
877.3776	1337.9996	1732.5	826.45
877.5217	1339.8714	1715.15	809.75
877.6658	1341.7426	1736.6	788.9
877.8099	1343.6129	1686.7	778.65
877.954	1345.4826	1672.5	766.95
878.0981	1347.3515	1662.55	755.65
878.2422	1349.2196	1662.8	755.05
878.3862	1351.087	1648.9	745.75
878.5303	1352.9537	1653.9	748.75
878.6743	1354.8197	1641.25	734.9
878.8184	1356.6849	1658.7	752.75
878.9624	1358.5493	1668.5	763.2
879.1064	1360.4131	1692.9	787.3
879.2504	1362.276	1728.95	826.15
879.3944	1364.1383	1758.2	856.4
879.5384	1365.9998	1775.9	868.25
879.6823	1367.8606	1751.2	845.05
879.8263	1369.7206	1744.45	839.2
879.9702	1371.5799	1734.8	827.4
880.1142	1373.4384	1734.5	826.3
880.2581	1375.2962	1705.2	797.65
880.402	1377.1533	1667.8	763.75
880.5459	1379.0096	1619.1	714.8
880.6898	1380.8652	1587.3	686.3
880.8337	1382.7201	1565.9	663.35
880.9776	1384.5742	1539.7	635.45
881.1215	1386.4275	1520	615.5
881.2653	1388.2802	1514.5	609.7
881.4092	1390.132	1498.25	593.9
881.553	1391.9832	1489.85	582.55
881.6968	1393.8336	1478.35	571.55
881.8406	1395.6832	1474.75	566.7
881.9844	1397.5322	1460.35	554.95
882.1282	1399.3803	1459.05	551.7
882.272	1401.2278	1448.35	541.6
882.4158	1403.0745	1445.35	539.75
882.5595	1404.9204	1439.8	537.2
882.7033	1406.7656	1428.35	524.9
882.847	1408.6101	1423.85	519.3
882.9908	1410.4538	1435.5	530.45
883.1345	1412.2968	1430.05	525.75
883.2782	1414.139	1428.15	526.55
883.4219	1415.9805	1434	532.45
883.5656	1417.8213	1457.8	547
883.7092	1419.6613	1458.6	555.35
883.8529	1421.5006	1481.9	576.35
883.9965	1423.3391	1516.25	612.2
884.1402	1425.1769	1568.5	662.7
884.2838	1427.0139	1622.05	716.65
884.4274	1428.8502	1701.5	795.15
884.571	1430.6858	1759.8	856.15
884.7146	1432.5206	1780.1	878.25
884.8582	1434.3547	1774.9	869.5
885.0018	1436.188	1751.15	847.1
885.1453	1438.0206	1736.7	831.5
885.2889	1439.8524	1729.3	824.5
885.4324	1441.6835	1732.55	830.3
885.5759	1443.5139	1725.65	818.95
885.7194	1445.3435	1733.85	829.4
885.8629	1447.1724	1730	825.9
886.0064	1449.0005	1732.75	826.05
886.1499	1450.8279	1719.55	814.1
886.2933	1452.6545	1722.95	821.75
886.4368	1454.4804	1718	818.1
886.5802	1456.3056	1717.25	807.15
886.7237	1458.13	1691.1	787
886.8671	1459.9536	1672.5	768.75
887.0105	1461.7766	1652.95	748.3
887.1539	1463.5987	1620.75	718.8
887.2972	1465.4202	1580.6	678.45
887.4406	1467.2409	1541.5	639.3
887.584	1469.0608	1511.65	606.8
887.7273	1470.88	1486.65	582.5
887.8706	1472.6984	1467.3	564
888.0139	1474.5161	1456	549.55
888.1572	1476.3331	1427.95	526.5
888.3005	1478.1493	1430.6	526.35
888.4438	1479.9648	1426.65	521.7
888.5871	1481.7795	1426.85	524
888.7303	1483.5935	1433.2	531
888.8736	1485.4067	1425.6	521.9
889.0168	1487.2192	1418	514.25
889.16	1489.031	1422.45	517.9
889.3032	1490.842	1420.85	516.15
889.4464	1492.6522	1419.4	517.45
889.5896	1494.4618	1414.45	511.85
889.7327	1496.2705	1407.9	506.95
889.8759	1498.0785	1405.95	502.75
890.019	1499.8858	1402	500.75
890.1622	1501.6924	1394.4	491.95
890.3053	1503.4981	1390.4	486.5
890.4484	1505.3032	1390.85	489
890.5914	1507.1075	1376.3	472.95
890.7345	1508.911	1373.05	469.05
890.8776	1510.7138	1368.2	464.15
891.0206	1512.5159	1348.7	443.55
891.1637	1514.3172	1350.8	449.9
891.3067	1516.1178	1345.4	444.6
891.4497	1517.9176	1345	440.35
891.5927	1519.7166	1337.65	437.6
891.7357	1521.515	1330.4	421.45
891.8786	1523.3126	1324.35	423.15
892.0216	1525.1094	1326.55	419.35
892.1645	1526.9055	1325.3	425.45
892.3074	1528.7008	1320.75	421.55
892.4503	1530.4954	1321.35	416
892.5932	1532.2893	1314.85	414.9
892.7361	1534.0824	1307.1	401.8
892.879	1535.8747	1308.9	408.05
893.0218	1537.6663	1306.2	401.8
893.1647	1539.4572	1308.15	406.45
893.3075	1541.2473	1310.65	410.7
893.4503	1543.0367	1301.25	403
893.5931	1544.8253	1306.8	404
893.7359	1546.6132	1313.65	411.55
893.8787	1548.4003	1325.7	416.95
894.0214	1550.1867	1333.45	425.3
894.1642	1551.9723	1331.6	426.2
894.3069	1553.7572	1339.8	439.1
894.4496	1555.5414	1361.95	461.45
894.5923	1557.3247	1393.8	495.05
894.735	1559.1074	1414.5	518
894.8777	1560.8893	1449.35	551.8
895.0204	1562.6705	1481.25	584.95
895.163	1564.4509	1499.55	601.25
895.3056	1566.2305	1498.4	600.1
895.4482	1568.0094	1498.1	601.95
895.5908	1569.7876	1498.9	602.6
895.7334	1571.565	1497.15	599.25
895.876	1573.3417	1491.85	595.2
896.0186	1575.1176	1503.55	607.95
896.1611	1576.8928	1508.5	612.65
896.3036	1578.6672	1518.2	624.65
896.4461	1580.4409	1543.65	652.05
896.5886	1582.2138	1582.05	686.9
896.7311	1583.986	1598.85	703.05
896.8736	1585.7575	1630.1	733.7
897.0161	1587.5282	1653.95	759.9
897.1585	1589.2981	1674.5	782.8
897.3009	1591.0673	1691.6	799.1
897.4433	1592.8358	1695.65	802.75
897.5857	1594.6035	1699.05	802.95
897.7281	1596.3704	1695.5	799.45
897.8705	1598.1366	1677.7	784.75
898.0128	1599.9021	1668.15	774
898.1551	1601.6668	1647.3	751.35
898.2975	1603.4308	1642.85	743.65
898.4398	1605.194	1658.45	756.85
898.5821	1606.9564	1675.75	782.4
898.7243	1608.7182	1722.3	828.95
898.8666	1610.4791	1794.2	906.45
899.0088	1612.2394	1868.1	980.95
899.1511	1613.9988	1938.75	1049.55
899.2933	1615.7576	1990.3	1099.5
899.4355	1617.5156	2004.1	1101.95
899.5776	1619.2728	1967	1074.15
899.7198	1621.0293	1886.05	991.25
899.862	1622.785	1793.15	899.05
900.0041	1624.54	1695.4	802.65
900.1462	1626.2942	1610.6	719.9
900.2883	1628.0477	1542.1	647.2
900.4304	1629.8005	1474.85	580.85
900.5725	1631.5525	1420	528
900.7145	1633.3037	1376.75	485.1
900.8566	1635.0542	1345.25	455.85
900.9986	1636.804	1322.4	428.2
901.1406	1638.553	1369.75	408.45
901.2826	1640.3013	1285.9	390.15
901.4245	1642.0488	1274.65	379.9
901.5665	1643.7955	1255.95	364.25
901.7085	1645.5416	1247.7	355.6
901.8504	1647.2868	1241.95	349.35
901.9923	1649.0313	1240	346.8
902.1342	1650.7751	1230.1	333.35
902.2761	1652.5181	1228.55	337
902.4179	1654.2604	1228.4	335.8
902.5598	1656.0019	1234.85	343.25
902.7016	1657.7427	1253.15	360.25
902.8434	1659.4828	1265.25	371.65
902.9852	1661.222	1290	396.25
903.127	1662.9606	1317.25	423.95
903.2687	1664.6984	1330.45	435.35
903.4105	1666.4354	1330.95	433.7
903.5522	1668.1717	1301.25	404.6
903.6939	1669.9072	1272.25	377
903.8356	1671.642	1236.65	340.15
903.9773	1673.3761	1207.2	312.8
904.119	1675.1094	1188.1	294.6
904.2606	1676.8419	1175.1	280.65
904.4022	1678.5737	1165.25	269.25
904.5439	1680.3048	1163.15	266.85
904.6855	1682.0351	1149.55	256.55
904.827	1683.7646	1151.4	254.5
904.9686	1685.4934	1137.45	243
905.1101	1687.2215	1137.05	240.8
905.2517	1688.9488	1131.6	239.85
905.3932	1690.6754	1134.3	241.55
905.5347	1692.4012	1133.4	239.3
905.6761	1694.1263	1124.7	228.7
905.8176	1695.8506	1123.6	230.2
905.9591	1697.5742	1117.45	224.4
906.1005	1699.297	1122.35	231.6
906.2419	1701.0191	1115.8	225.05
906.3833	1702.7404	1111.75	218.8
906.5246	1704.461	1111.15	219.25
906.666	1706.1808	1115.35	222.6
906.8073	1707.8999	1108.9	216.2
906.9487	1709.6182	1102.75	210.1
907.09	1711.3358	1102.95	213.4
907.2313	1713.0527	1100.85	213.2
907.3725	1714.7688	1103.25	206.8
907.5138	1716.4841	1100.9	208.6
907.655	1718.1987	1110	212.6
907.7962	1719.9126	1096	206.6
907.9374	1721.6257	1094.55	201.55
908.0786	1723.338	1091.45	200.7
908.2198	1725.0496	1098.05	207.6
908.3609	1726.7605	1097.4	206.65
908.502	1728.4706	1092.95	199.85
908.6431	1730.18	1093.45	201.2
908.7842	1731.8886	1088.4	198.35
908.9253	1733.5964	1110.8	201.3
909.0664	1735.3036	1091.1	198.65
909.2074	1737.0099	1089.5	199.8
909.3484	1738.7156	1087.15	197.45
909.4894	1740.4204	1091.15	197.95
909.6304	1742.1246	1092.05	201.1
909.7714	1743.8279	1085.9	193
909.9123	1745.5306	1088.75	197.85
910.0532	1747.2325	1082.75	192.9
910.1941	1748.9336	1086.9	193.7
910.335	1750.634	1086.35	195.3
910.4759	1752.3336	1080.65	191.8
910.6168	1754.0325	1081.5	193
910.7576	1755.7307	1085.4	196.35
910.8984	1757.4281	1084.6	194.9
911.0392	1759.1247	1091.8	189.25
911.18	1760.8206	1092.3	196.2
911.3208	1762.5158	1088.2	190.85
911.4615	1764.2102	1083.35	190.7
911.6022	1765.9039	1076.1	185.6
911.7429	1767.5968	1077.25	187.85
911.8836	1769.289	1073.7	184.1
912.0243	1770.9804	1077.4	183.75
912.1649	1772.6711	1081.4	189.05
912.3056	1774.361	1084.25	191.45
912.4462	1776.0502	1078.45	184.3
912.5868	1777.7386	1081.6	186.15
912.7274	1779.4263	1073.65	183.55
912.8679	1781.1132	1074.65	184.8
913.0084	1782.7994	1074.6	185.35
913.149	1784.4849	1076.75	187.8
913.2895	1786.1696	1090.8	182.2
913.4299	1787.8535	1069.75	182.35
913.5704	1789.5367	1069.7	181.8
913.7108	1791.2192	1070.7	182.4
913.8513	1792.9009	1102.85	184.45
913.9917	1794.5818	1072.55	178.6
914.132	1796.2621	1071.05	181.85
914.2724	1797.9415	1073.15	180.7
914.4128	1799.6202	1069.2	179.85
914.5531	1801.2982	1066.85	172.95
914.6934	1802.9755	1069.05	174.05
914.8337	1804.6519	1071.85	179.65
914.9739	1806.3277	1064.15	176.65
915.1142	1808.0027	1063.55	176.45
915.2544	1809.6769	1056.85	168.9
915.3946	1811.3504	1061.65	171.9
915.5348	1813.0231	1065.55	176.4
915.675	1814.6951	1063.15	173
915.8151	1816.3664	1065.1	174.6
915.9553	1818.0369	1064.35	172.15
916.0954	1819.7067	1062.6	171.5
916.2355	1821.3757	1063.25	171.95
916.3755	1823.044	1064.4	172.1
916.5156	1824.7115	1063.6	172.3
916.6556	1826.3783	1059.15	169.15
916.7956	1828.0443	1054.55	165.4
916.9356	1829.7096	1059.6	167.8
917.0756	1831.3741	1061.45	168
917.2155	1833.0379	1058.85	170.6
917.3555	1834.701	1057	165.7
917.4954	1836.3633	1060.7	172.15
917.6353	1838.0248	1056.95	171.15
917.7751	1839.6856	1051.5	162.5
917.915	1841.3457	1055.9	167.15
918.0548	1843.005	1057.55	167.9
918.1946	1844.6636	1055.5	166.25
918.3344	1846.3214	1053.25	162.85
918.4742	1847.9785	1054.5	166.5
918.6139	1849.6349	1059.35	169.1
918.7537	1851.2904	1060.35	157.75
918.8934	1852.9453	1054.05	159.2
919.0331	1854.5994	1056.65	164.95
919.1727	1856.2528	1060.35	164.75
919.3124	1857.9054	1054.15	163.05
919.452	1859.5572	1052	163.6
919.5916	1861.2083	1051.4	160.65
919.7312	1862.8587	1052.8	163.65
919.8708	1864.5084	1054.7	160.5
920.0103	1866.1572	1048.3	156.65
920.1498	1867.8054	1053.6	159.5
920.2893	1869.4528	1050.55	156.2
920.4288	1871.0994	1048	154.95
920.5683	1872.7453	1050.5	157.1
920.7077	1874.3905	1057.7	160.2
920.8471	1876.0349	1048.2	156.3
920.9865	1877.6786	1049.5	157.15
921.1259	1879.3215	1043.75	154.1
921.2653	1880.9637	1050.8	159.3
921.4046	1882.6051	1047.1	155.2
921.5439	1884.2458	1045.3	154.3
921.6832	1885.8858	1044.65	154.4
921.8225	1887.525	1047	155.8
921.9617	1889.1634	1044.95	152.7
922.101	1890.8011	1046.5	154.6
922.2402	1892.4381	1047.05	155.55
922.3794	1894.0743	1041.2	150.65
922.5185	1895.7098	1038.6	146.8
922.6577	1897.3446	1043.6	150.75
922.7968	1898.9786	1042.2	147.2
922.9359	1900.6118	1038.75	150.05
923.075	1902.2443	1039.25	146.5
923.214	1903.8761	1041.5	151.95
923.3531	1905.5071	1038.05	144.65
923.4921	1907.1374	1036.4	146.15
923.6311	1908.7669	1039.65	150.4
923.77	1910.3957	1041	151.45
923.909	1912.0237	1040	150.85
924.0479	1913.651	1035.6	144.95
924.1868	1915.2776	1036.1	148.6
924.3257	1916.9034	1038.35	149.6
924.4646	1918.5285	1034.85	146.6
924.6034	1920.1528	1032.3	142.45
924.7422	1921.7764	1032.25	141.75
924.881	1923.3992	1037.1	147.3
925.0198	1925.0213	1032.8	142.5
925.1586	1926.6427	1033.85	145.4
925.2973	1928.2633	1246.15	142.2
925.436	1929.8832	1032.95	136.25
925.5747	1931.5023	1031.15	140.75
925.7134	1933.1207	1033.45	143.6
925.852	1934.7383	1031.9	144
925.9906	1936.3552	1028.7	140.1
926.1292	1937.9714	1026.25	134.75
926.2678	1939.5868	1035.2	142.45
926.4064	1941.2015	1031.9	139.5
926.5449	1942.8154	1030.25	137.5
926.6834	1944.4286	1028.65	136.7
926.8219	1946.041	1057.25	144.35
926.9604	1947.6528	1033.5	135.75
927.0988	1949.2637	1028.05	139.35
927.2372	1950.8739	1029.9	140.65
927.3756	1952.4834	1024.9	136.4
927.514	1954.0921	1025.6	135.7
927.6523	1955.7001	1031.2	137.85
927.7907	1957.3074	1021.95	136.2
927.929	1958.9139	1021.1	134.1
928.0673	1960.5197	1023.35	133.95
928.2055	1962.1247	1023.75	137.9
928.3438	1963.729	1020.8	134.5
928.482	1965.3325	1026.65	134.1
928.6202	1966.9353	1016.45	130.85
928.7584	1968.5374	1022.85	133.35
928.8965	1970.1387	1024	137.2
929.0346	1971.7393	1016.1	127.05
929.1727	1973.3392	1018.1	132
929.3108	1974.9383	1015.95	129.25
929.4489	1976.5366	1018	131.65
929.5869	1978.1342	1018.8	132.7
929.7249	1979.7311	1017.4	130.65
929.8629	1981.3273	1015.55	131.2
930.0009	1982.9227	1016.1	130.7
930.1388	1984.5173	1012.75	127.7
930.2767	1986.1112	1016.55	131
930.4146	1987.7044	1015.5	130.9
930.5525	1989.2968	1015.6	127.1
930.6904	1990.8885	1016	127.5
930.8282	1992.4795	1014.65	128.5
930.966	1994.0697	1012.2	128.65
931.1038	1995.6592	1013.5	128.6
931.2415	1997.2479	1017.45	131.55
931.3793	1998.8359	1010.2	126.4
931.517	2000.4232	1009	124.6
931.6547	2002.0097	1007.3	127.2
931.7923	2003.5955	1009.5	126.55
931.93	2005.1805	1010.45	126.1
932.0676	2006.7648	1005.9	121.9
932.2052	2008.3484	1012	127.15
932.3427	2009.9312	1011.75	127.35
932.4803	2011.5133	1005.4	123.2
932.6178	2013.0946	1003.35	122.55
932.7553	2014.6752	1009.35	128.1
932.8928	2016.2551	1010.9	127.7
933.0302	2017.8342	1010.05	127.15
933.1676	2019.4126	1005.65	123.65
933.305	2020.9902	1005.9	125.25
933.4424	2022.5672	1006.1	121.7
933.5798	2024.1433	1009.2	122.8
933.7171	2025.7188	1004.35	125.7
933.8544	2027.2935	1001.8	121.2
933.9917	2028.8674	1008.05	128.85
934.129	2030.4406	1000.85	123.1
934.2662	2032.0131	997.75	120.55
934.4034	2033.5849	1008.75	124.85
934.5406	2035.1559	1002.5	120.85
934.6778	2036.7261	1001.3	118.9
934.8149	2038.2957	1006.6	120.65
934.952	2039.8645	1008.8	125.85
935.0891	2041.4325	1010.45	123.55
935.2262	2042.9998	1001.2	117.85
935.3632	2044.5664	1004.45	121.85
935.5002	2046.1323	1003.25	124.75
935.6372	2047.6974	996.15	115.1
935.7742	2049.2617	1002.9	122.3
935.9111	2050.8254	1008	121.6
936.048	2052.3883	1005.8	121.85
936.1849	2053.9504	1006.15	121.05
936.3218	2055.5118	1009.95	126.2
936.4586	2057.0725	1003.65	119.8
936.5955	2058.6325	1003.2	121.35
936.7323	2060.1917	999.5	118.25
936.869	2061.7502	1003.45	118.2
937.0058	2063.3079	1003.2	122.2
937.1425	2064.8649	1001.55	118.55
937.2792	2066.4212	999.95	120
937.4159	2067.9767	1002.45	119.35
937.5525	2069.5315	1001.65	121.65
937.6891	2071.0856	997.9	117.75
937.8257	2072.6389	996.85	115.45
937.9623	2074.1915	997.4	118.25
938.0989	2075.7433	1002.75	119.4
938.2354	2077.2945	996.8	115.1
938.3719	2078.8448	1002.8	120.15
938.5084	2080.3945	998.85	117.25
938.6448	2081.9434	997.25	115.5
938.7812	2083.4916	1001.65	116.6
938.9176	2085.039	1004.8	115.85
939.054	2086.5857	1003.15	116.7
939.1903	2088.1317	1000	112.1
939.3267	2089.677	1007.55	122.1
939.463	2091.2215	1002.85	116
939.5992	2092.7652	1001.1	110.15
939.7355	2094.3083	1005	116.9
939.8717	2095.8506	1000.45	118.05
940.0079	2097.3921	997.75	113.35
940.1441	2098.933	997.9	112.1
940.2802	2100.4731	1000.55	117.8
940.4163	2102.0124	1019.15	116.8
940.5524	2103.5511	999.85	115.85
940.6885	2105.089	1005.3	120.9
940.8245	2106.6261	1001	114.95
940.9606	2108.1626	1003.2	118.35
941.0965	2109.6983	1032.8	120.55
941.2325	2111.2332	1001.7	115.55
941.3684	2112.7675	1003.45	120.9
941.5044	2114.301	1004.05	118.75
941.6403	2115.8337	997.05	112.3
941.7761	2117.3657	999.25	115.6
941.912	2118.897	999.5	114.75
942.0478	2120.4276	1005.05	114.4
942.1835	2121.9575	999.25	112.95
942.3193	2123.4866	1008	122.1
942.455	2125.0149	1003.45	116.9
942.5907	2126.5426	997.2	113.9
942.7264	2128.0695	1001.5	116.95
942.8621	2129.5956	993.05	114.9
942.9977	2131.1211	998	109.05
943.1333	2132.6458	996.65	115.1
943.2689	2134.1698	997	114.05
943.4044	2135.693	1003.55	115.85
943.54	2137.2155	1000.95	113.3
943.6755	2138.7373	996.8	113.9
943.8109	2140.2584	994.6	112.7
943.9464	2141.7787	998.3	110.25
944.0818	2143.2983	993.95	114.55
944.2172	2144.8171	990.8	111.4
944.3526	2146.3353	997.1	113.05
944.4879	2147.8527	994.9	114.1
944.6232	2149.3693	996.7	111.45
944.7585	2150.8853	996.95	112.3
944.8938	2152.4005	999.05	113.3
945.029	2153.9149	997.6	112.65
945.1642	2155.4287	996.6	111.95
945.2994	2156.9417	997.45	110.8
945.4346	2158.454	999.3	113.15
945.5697	2159.9655	990.4	108
945.7048	2161.4764	996.7	114.8
945.8399	2162.9865	995.9	113
945.9749	2164.4958	991.25	107.7
946.1099	2166.0045	994.1	111.6
946.2449	2167.5124	990.9	107.15
946.3799	2169.0195	991.95	109.5
946.5148	2170.526	996.4	111.75
946.6498	2172.0317	989.85	104.75
946.7846	2173.5367	993.3	110.4
946.9195	2175.0409	990.05	106.2
947.0543	2176.5445	994.5	112.3
947.1891	2178.0473	995.15	111.1
947.3239	2179.5494	998.8	111.4
947.4587	2181.0507	992.2	110.25
947.5934	2182.5513	992	109.2
947.7281	2184.0512	991.2	106.35
947.8628	2185.5504	991.95	108.95
947.9974	2187.0488	986.7	103.45
948.132	2188.5465	992.5	111.1
948.2666	2190.0435	992.75	110.3
948.4012	2191.5397	993.7	110.2
948.5357	2193.0353	993.9	109.8
948.6702	2194.5301	999.4	113.85
948.8047	2196.0241	995.3	109.85
948.9392	2197.5175	993.15	105.1
949.0736	2199.0101	997.8	108.55
949.208	2200.502	991.05	109.55
949.3424	2201.9931	988.55	105.4
949.4767	2203.4835	988.7	106.4
949.611	2204.9733	1007	108.65
949.7453	2206.4622	986.9	106.05
949.8796	2207.9505	989.85	106.6
950.0138	2209.438	981.35	101.55
950.148	2210.9248	985.95	102
950.2822	2212.4109	986.15	104.8
950.4164	2213.8962	989.95	101.5
950.5505	2215.3809	988.55	102.05
950.6846	2216.8648	991.5	103.8
950.8186	2218.3479	992.75	104.05
950.9527	2219.8304	994.1	104.8
951.0867	2221.3121	990.35	101.4
951.2207	2222.7931	988.45	103.65
951.3546	2224.2733	986.7	100.35
951.4886	2225.7529	988.8	102.9
951.6225	2227.2317	989.3	103.55
951.7563	2228.7098	983.45	101.85
951.8902	2230.1872	982.05	100.4
952.024	2231.6638	984.15	102.05
952.1578	2233.1397	988.9	102.5
952.2916	2234.6149	983.35	102.5
952.4253	2236.0894	984.2	99
952.559	2237.5632	992.1	100.75
952.6927	2239.0362	981.7	96.25
952.8263	2240.5085	980.4	96.85
952.9599	2241.9801	985.55	102
953.0935	2243.4509	982.45	97.1
953.2271	2244.921	982.65	98.35
953.3606	2246.3904	984.55	96.85
953.4941	2247.8591	980	96.35
953.6276	2249.3271	980	96.05
953.7611	2250.7943	983.15	96.95
953.8945	2252.2608	982.95	98.25
954.0279	2253.7266	979.95	94.85
954.1612	2255.1917	979.7	95.4
954.2946	2256.656	976.5	95
954.4279	2258.1197	979.6	96.2
954.5612	2259.5826	980.65	94.75
954.6944	2261.0447	981.75	96.5
954.8276	2262.5062	982.2	96
954.9608	2263.9669	979.4	94.05
955.094	2265.4269	978.6	93.9
955.2271	2266.8862	980.65	97.8
955.3602	2268.3448	975.8	93.05
955.4933	2269.8026	976.9	93
955.6264	2271.2598	976.1	95.05
955.7594	2272.7162	978.25	95.35
955.8924	2274.1719	978.65	93.9
956.0253	2275.6268	981.1	95.8
956.1583	2277.0811	977.85	91.6
956.2912	2278.5346	978	97.2
956.4241	2279.9874	976.75	94.1
956.5569	2281.4395	973.4	91.6
956.6897	2282.8908	976.8	87.5
956.8225	2284.3414	979.3	93.9
956.9553	2285.7914	975.55	94.75
957.088	2287.2406	977.45	89.65
957.2207	2288.689	977.5	93
957.3534	2290.1368	980.15	94.5
957.486	2291.5838	982.65	95.2
957.6186	2293.0302	980.65	93.25
957.7512	2294.4758	975.3	89.25
957.8838	2295.9206	976.3	90.75
958.0163	2297.3648	970.4	90.3
958.1488	2298.8082	976.2	91.35
958.2813	2300.251	976.75	93.05
958.4137	2301.693	981.8	95.3
958.5461	2303.1343	974.35	88.7
958.6785	2304.5748	974.5	91.4
958.8108	2306.0147	971.25	89.15
958.9432	2307.4538	972.95	88.35
959.0754	2308.8922	968.45	87.3
959.2077	2310.3299	969.2	87.4
959.3399	2311.7669	972.05	90.55
959.4721	2313.2031	973.05	88.85
959.6043	2314.6387	972.35	90.15
959.7365	2316.0735	972.95	88.8
959.8686	2317.5076	971.3	83.75
960.0006	2318.941	973.75	88.5
960.1327	2320.3737	976.35	89.55
960.2647	2321.8056	973	85.9
960.3967	2323.2369	972.15	87.1
960.5287	2324.6674	977.15	91.85
960.6606	2326.0972	976.45	90.45
960.7925	2327.5263	978.65	94.7
960.9244	2328.9547	982.35	97.5
961.0562	2330.3823	978.2	93.1
961.1881	2331.8092	980.95	90.95
961.3198	2333.2355	976.35	91.2
961.4516	2334.661	975.2	90.45
961.5833	2336.0858	970.75	84.9
961.715	2337.5098	969.4	85
961.8467	2338.9332	971.2	84.7
961.9783	2340.3558	975.25	89.05
962.1099	2341.7778	967.1	84.15
962.2415	2343.199	967.8	81.9
962.373	2344.6195	969.85	86
962.5045	2346.0393	968.25	86.2
962.636	2347.4583	969.5	83.4
962.7675	2348.8767	974	87.75
962.8989	2350.2943	973.8	88.75
963.0303	2351.7113	973.5	86.65
963.1617	2353.1275	970.1	83.35
963.293	2354.543	993.35	80.95
963.4243	2355.9578	969.95	83.85
963.5556	2357.3718	964.45	79.05
963.6868	2358.7852	967.7	80.85
963.818	2360.1978	970.45	83.15
963.9492	2361.6098	965.65	81.25
964.0803	2363.021	971.9	82.45
964.2114	2364.4315	968.35	82.7
964.3425	2365.8413	970.05	84.7
964.4736	2367.2504	966.8	82.1
964.6046	2368.6587	966.15	80.6
964.7356	2370.0664	963.25	78.05
964.8666	2371.4733	965.6	77.95
964.9975	2372.8795	966.2	79.95
965.1284	2374.285	967.85	80.3
965.2593	2375.6899	965.15	79.65
965.3901	2377.0939	964.3	79.6
965.5209	2378.4973	962.95	77.1
965.6517	2379.9	964.3	79.2
965.7825	2381.3019	963.75	77.25
965.9132	2382.7032	965.1	81.15
966.0439	2384.1037	960.6	76.2
966.1745	2385.5035	962.5	77
966.3051	2386.9027	962.4	79.95
966.4357	2388.3011	963.8	77.25
966.5663	2389.6987	962.3	77.05
966.6968	2391.0957	962.25	78.4
966.8273	2392.492	959.05	75.25
966.9578	2393.8876	963.35	76.65
967.0882	2395.2824	962.15	76.45
967.2186	2396.6765	958.3	71.8
967.349	2398.07	960.1	73.5
967.4793	2399.4627	961.25	74.05
967.6097	2400.8547	966.95	78.6
967.7399	2402.246	969.65	74.9
967.8702	2403.6366	961.9	74.1
968.0004	2405.0265	960.7	76
968.1306	2406.4156	963.7	76.7
968.2607	2407.8041	963.5	74.05
968.3909	2409.1918	964.85	73.9
968.521	2410.5789	960.35	72.8
968.651	2411.9652	964.45	76.9
968.781	2413.3508	958.7	70.5
968.911	2414.7358	963.75	75.55
969.041	2416.12	954.8	68.75
969.1709	2417.5035	958.5	70.25
969.3008	2418.8863	958.2	70.1
969.4307	2420.2684	959.7	71.5
969.5606	2421.6497	960	71.15
969.6904	2423.0304	961.8	74.55
969.8201	2424.4104	960.75	74.95
969.9499	2425.7896	958.5	66.95
970.0796	2427.1682	957.8	71.4
970.2093	2428.546	960.4	75.4
970.3389	2429.9232	959.65	69.35
970.4685	2431.2996	957.65	70.65
970.5981	2432.6753	960.55	73.2
970.7277	2434.0503	958.25	71.55
970.8572	2435.4246	952.95	69.05
970.9867	2436.7982	959.3	68.5
971.1161	2438.1711	957.05	70.1
971.2456	2439.5433	958.4	70.9
971.375	2440.9148	957.35	70.65
971.5043	2442.2856	954.6	67.1
971.6336	2443.6557	957.15	70.05
971.7629	2445.025	956.35	70.45
971.8922	2446.3937	954.5	68.95
972.0214	2447.7617	956.4	66.05
972.1506	2449.1289	954.6	68.4
972.2798	2450.4955	955.9	66.85
972.4089	2451.8613	955.45	69.35
972.538	2453.2265	954.75	67.9
972.6671	2454.5909	955.65	68.35
972.7961	2455.9546	952.25	67.1
972.9251	2457.3177	953.4	69.2
973.0541	2458.68	957.1	69.45
973.1831	2460.0416	954.25	67.6
973.312	2461.4025	954.3	66.4
973.4408	2462.7627	963.95	65.9
973.5697	2464.1222	952.8	69.1
973.6985	2465.4811	953	66.55
973.8273	2466.8392	949.55	64.45
973.956	2468.1966	956.15	67.7
974.0847	2469.5533	953.05	65.6
974.2134	2470.9093	950.9	64.6
974.3421	2472.2645	950.15	62.35
974.4707	2473.6191	947.15	62.9
974.5993	2474.973	952.05	66
974.7278	2476.3262	950.15	62.4
974.8563	2477.6787	952.45	69.2
974.9848	2479.0305	949.55	62.45
975.1132	2480.3816	952.35	65.85
975.2417	2481.7319	950.5	65.85
975.37	2483.0816	951.55	63.25
975.4984	2484.4306	951.35	67.6
975.6267	2485.7789	952	69.35
975.755	2487.1264	950.75	63.5
975.8833	2488.4733	948	62.85
976.0115	2489.8195	965.35	64.05
976.1397	2491.165	955.4	65.3
976.2678	2492.5097	949.95	61.25
976.3959	2493.8538	946.9	62.2
976.524	2495.1972	945.75	59.3
976.6521	2496.5398	950.3	63.7
976.7801	2497.8818	951.55	64.15
976.9081	2499.2231	949	60.85
977.036	2500.5637	946.8	56.85
977.164	2501.9035	951	64.65
977.2918	2503.2427	952.25	64.35
977.4197	2504.5812	944.55	59.6
977.5475	2505.919	951.1	63.25
977.6753	2507.256	950.2	66.95
977.8031	2508.5924	950.35	64.95
977.9308	2509.9281	951.45	60
978.0585	2511.2631	947.6	61.85
978.1861	2512.5974	946.6	61.85
978.3137	2513.9309	942.7	58.7
978.4413	2515.2638	972.8	61.15
978.5689	2516.596	946.4	60.4
978.6964	2517.9275	947.95	62.85
978.8239	2519.2583	947.15	59.85
978.9513	2520.5884	945.15	59.2
979.0788	2521.9178	946.25	61.05
979.2062	2523.2465	942.5	57.35
979.3335	2524.5745	944.45	58.6
979.4608	2525.9018	945.4	60.65
979.5881	2527.2284	945.2	59.15
979.7154	2528.5543	945.1	61.95
979.8426	2529.8796	946.3	59.45
979.9698	2531.2041	945.1	58.65
980.0969	2532.5279	941.95	57.15
980.224	2533.851	942.95	56.9
980.3511	2535.1735	942.85	58.45
980.4781	2536.4952	943.2	57.4
980.6052	2537.8163	945.25	62.6
980.7321	2539.1366	941.35	56.5
980.8591	2540.4562	943.05	55.35
980.986	2541.7752	942.9	57.6
981.1129	2543.0935	944.25	58
981.2397	2544.411	942.2	53.65
981.3665	2545.7279	942.7	55.45
981.4933	2547.0441	945.2	61.5
981.62	2548.3596	943.7	56.9
981.7467	2549.6744	943.05	58
981.8734	2550.9885	949.45	55.55
982.0001	2552.3019	940.4	54.3
982.1267	2553.6146	944.4	60.05
982.2532	2554.9266	942.95	59.6
982.3798	2556.2379	942.1	55.3
982.5063	2557.5485	939.5	55.65
982.6327	2558.8585	948	56.65
982.7592	2560.1677	943.6	52.5
982.8856	2561.4762	940.4	54.4
983.0119	2562.7841	942.65	53.1
983.1383	2564.0913	935.5	52.25
983.2646	2565.3977	942.75	57.3
983.3908	2566.7035	942.25	56.35
983.517	2568.0086	940.55	55.65
983.6432	2569.313	943.65	57.15
983.7694	2570.6167	944.8	56.3
983.8955	2571.9197	941.6	57.05
984.0216	2573.222	942.4	52.2
984.1476	2574.5236	939.7	53.05
984.2737	2575.8246	943.2	55.8
984.3996	2577.1248	943.95	55.95
984.5256	2578.4244	937.15	50.85
984.6515	2579.7232	937.5	50.2
984.7774	2581.0214	964.9	54.5
984.9032	2582.3189	937.95	53.65
985.029	2583.6157	944.6	55.6
985.1548	2584.9118	941.45	57.65
985.2806	2586.2072	939.3	54.15
985.4063	2587.5019	938.55	53.05
985.5319	2588.7959	939.75	53.6
985.6576	2590.0893	942.8	54.7
985.7832	2591.3819	936.9	53.45
985.9087	2592.6739	939.95	54.8
986.0343	2593.9652	940.85	52.1
986.1597	2595.2557	940.3	57.25
986.2852	2596.5456	942.1	53.4
986.4106	2597.8348	937.7	52.5
986.536	2599.1234	938.8	53.55
986.6614	2600.4112	937.35	52.7
986.7867	2601.6983	943.95	56.3
986.912	2602.9848	938	52.4
987.0372	2604.2705	946.3	54.45
987.1624	2605.5556	938.9	54.4
987.2876	2606.84	939.85	54.15
987.4128	2608.1237	939	53.3
987.5379	2609.4067	938.45	53.75
987.6629	2610.689	948.05	56.7
987.788	2611.9707	939.6	51.05
987.913	2613.2516	943.85	53.95
988.0379	2614.5319	935.5	50.65
988.1629	2615.8115	936.95	48.4
988.2878	2617.0903	936.65	49.8
988.4126	2618.3685	935.05	49.2
988.5375	2619.6461	933.9	50.6
988.6622	2620.9229	934.7	50.5
988.787	2622.199	936.1	49.85
988.9117	2623.4745	937.55	53.15
989.0364	2624.7493	934.65	49.65
989.161	2626.0234	933.4	50.45
989.2857	2627.2968	935.6	50.4
989.4102	2628.5695	934.2	47.35
989.5348	2629.8415	931.7	48.05
989.6593	2631.1128	935.95	49.95
989.7837	2632.3835	932.95	47.5
989.9082	2633.6535	932.7	51.05
990.0326	2634.9228	936	51.7
990.1569	2636.1914	930.65	46.1
990.2812	2637.4593	939.95	48.35
990.4055	2638.7265	933.35	46.85
990.5298	2639.9931	933.8	49.6
990.654	2641.259	932.3	46.1
990.7782	2642.5242	933.5	48.15
990.9023	2643.7887	933.15	51
991.0264	2645.0525	932.45	47.3
991.1505	2646.3156	932	45.15
991.2745	2647.5781	934.85	49.55
991.3985	2648.8398	933.6	49.45
991.5225	2650.1009	942.1	46.75
991.6464	2651.3613	930.6	46.1
991.7703	2652.6211	931.3	45.7
991.8942	2653.8801	928.7	45.45
992.018	2655.1385	934.6	47.9
992.1418	2656.3961	929.45	46.6
992.2655	2657.6531	928.1	41.6
992.3892	2658.9094	929.1	47.45
992.5129	2660.1651	929.55	45.1
992.6366	2661.42	929.2	42.95
992.7602	2662.6743	927.25	43.15
992.8837	2663.9279	929.35	43.95
993.0073	2665.1808	928.75	42.35
993.1307	2666.433	932.9	47.7
993.2542	2667.6846	930.1	45.15
993.3776	2668.9354	931.85	44.9
993.501	2670.1856	931.9	46.65
993.6244	2671.4351	929.7	43.5
993.7477	2672.6839	930.85	46.9
993.8709	2673.9321	930	46.5
993.9942	2675.1795	930.95	47.9
994.1174	2676.4263	929.8	47.65
994.2405	2677.6724	929.65	47.15
994.3637	2678.9179	931.3	48.2
994.4868	2680.1626	931.85	49
994.6098	2681.4067	932.1	47
994.7328	2682.6501	931.05	47.1
994.8558	2683.8928	929.05	46.1
994.9788	2685.1348	929.35	46.8
995.1017	2686.3761	928.65	44.25
995.2245	2687.6168	927.05	42.1
995.3474	2688.8568	929.9	45.2
995.4702	2690.0961	923.6	40.5
995.5929	2691.3348	928.05	43.05
995.7156	2692.5727	926.3	43.75
995.8383	2693.81	926.95	42.9
995.961	2695.0466	928.1	44.2
996.0836	2696.2826	928.35	42.65
996.2062	2697.5178	928	41.1
996.3287	2698.7524	928.9	43.85
996.4512	2699.9863	930.5	45.7
996.5737	2701.2195	927.3	45.15
996.6961	2702.452	930.25	45.8
996.8185	2703.6839	930.45	46.1
996.9408	2704.9151	930.75	47.25
997.0631	2706.1456	930.7	45.35
997.1854	2707.3755	928.55	46.55
997.3077	2708.6046	927.6	41.85
997.4299	2709.8331	929.3	46
997.552	2711.0609	929.65	46.75
997.6742	2712.2881	931.35	47.65
997.7963	2713.5145	930.25	44.2
997.9183	2714.7403	927.45	43.8
998.0403	2715.9654	929.6	46.4
998.1623	2717.1899	949.35	49
998.2842	2718.4136	933.15	49.95
998.4062	2719.6367	929.55	47.6
998.528	2720.8591	936.9	46.3
998.6498	2722.0809	934.3	49.95
998.7716	2723.3019	937.4	51.4
998.8934	2724.5223	934.3	50.55
999.0151	2725.7421	937.55	52.25
999.1368	2726.9611	934.6	47.6
999.2584	2728.1795	940.6	51.1
999.38	2729.3972	929.55	47.65
999.5016	2730.6142	938.45	47.35
999.6231	2731.8306	932.25	48
999.7446	2733.0462	931.3	45.45
999.8661	2734.2612	934.8	45.6
999.9875	2735.4756	932.55	49
1000.1089	2736.6892	927.9	44.4
1000.2302	2737.9022	924.65	41.95
1000.3515	2739.1145	925.35	38.9
1000.4728	2740.3262	933.45	42.75
1000.594	2741.5372	926.75	43.8
1000.7152	2742.7475	927.1	44.65
1000.8363	2743.9571	926.35	42.25
1000.9575	2745.1661	926.35	36.5
1001.0785	2746.3744	921.95	36.4
1001.1996	2747.582	918.7	36.65
1001.3206	2748.7889	923.8	39.45
1001.4415	2749.9952	922.05	39.4
1001.5625	2751.2008	920	36.45
1001.6833	2752.4057	923.7	40.2
1001.8042	2753.61	919.15	34.3
1001.925	2754.8136	921.4	36.75
1002.0458	2756.0165	917.15	34.15
1002.1665	2757.2188	918.55	35.8
1002.2872	2758.4204	918.2	34.25
1002.4078	2759.6213	922.3	35.1
1002.5285	2760.8215	923.25	36
1002.649	2762.0211	921.2	36.75
1002.7696	2763.22	922.6	36.05
1002.8901	2764.4182	920.3	36.05
1003.0106	2765.6158	917.95	35.4
1003.131	2766.8127	919.2	36.1
1003.2514	2768.009	920.6	41.25
1003.3717	2769.2045	918.9	33.45
1003.492	2770.3994	923.55	40.3
1003.6123	2771.5936	918.9	36.95
1003.7325	2772.7872	916.8	34.4
1003.8527	2773.9801	921.35	37.15
1003.9729	2775.1723	933.55	34.3
1004.093	2776.3639	917.65	36.3
1004.2131	2777.5548	918.7	34.95
1004.3331	2778.745	916.45	33.95
1004.4531	2779.9346	916.1	33.8
1004.5731	2781.1235	918.45	34.65
1004.693	2782.3117	920.7	38.5
1004.8129	2783.4992	917.45	36.9
1004.9328	2784.6861	915.65	32.05
1005.0526	2785.8723	918.5	37
1005.1723	2787.0579	915.25	32.4
1005.2921	2788.2428	913.35	32.2
1005.4118	2789.427	919.5	37.6
1005.5314	2790.6106	915.4	35.2
1005.651	2791.7935	920.1	37.25
1005.7706	2792.9757	915.75	33.9
1005.8902	2794.1573	920.15	35.75
1006.0097	2795.3382	915.35	34.3
1006.1291	2796.5184	916.45	37.6
1006.2485	2797.698	917.95	33.7
1006.3679	2798.8769	918.25	37.35
1006.4873	2800.0551	918.5	35.2
1006.6066	2801.2327	921.05	36.05
1006.7258	2802.4096	919	37.5
1006.8451	2803.5859	920.35	40.6
1006.9642	2804.7615	920.95	38.85
1007.0834	2805.9364	918.55	37.1
1007.2025	2807.1106	923.05	42.1
1007.3216	2808.2842	920.05	37.75
1007.4406	2809.4572	921.2	40.85
1007.5596	2810.6294	924.45	42.95
1007.6785	2811.801	924.3	41.65
1007.7975	2812.972	923	42.35
1007.9163	2814.1423	929	46.5
1008.0352	2815.3119	928.75	48.05
1008.154	2816.4808	929.75	50.95
1008.2727	2817.6491	933.65	49.3
1008.3914	2818.8167	933.15	52.8
1008.5101	2819.9837	942.75	55
1008.6288	2821.15	943.6	61.1
1008.7474	2822.3157	945	63.4
1008.8659	2823.4807	954.1	72.85
1008.9844	2824.645	957.55	74.6
1009.1029	2825.8086	965.95	86.1
1009.2214	2826.9716	970.2	89.55
1009.3398	2828.134	972.7	90.25
1009.4581	2829.2957	979.5	98.85
1009.5764	2830.4567	987.95	107.15
1009.6947	2831.617	991.6	109.55
1009.813	2832.7767	991.65	112.2
1009.9312	2833.9358	991.65	110.75
1010.0493	2835.0941	995.15	112.05
1010.1675	2836.2519	988.25	106.25
1010.2855	2837.4089	987	104.25
1010.4036	2838.5653	984.55	104.75
1010.5216	2839.7211	979.45	99.35
1010.6396	2840.8761	979.25	94.9
1010.7575	2842.0306	975.65	96.55
1010.8754	2843.1843	977.7	95.2
1010.9932	2844.3374	977.35	96.05
1011.111	2845.4899	981.4	100.3
1011.2288	2846.6417	980.7	101.45
1011.3465	2847.7928	980.9	100
1011.4642	2848.9433	980.6	96.9
1011.5818	2850.0931	983.05	101.2
1011.6995	2851.2422	987.75	103.85
1011.817	2852.3907	989.35	105.9
1011.9345	2853.5385	987.9	105.55
1012.052	2854.6857	1017.65	108.5
1012.1695	2855.8323	990.6	109.6
1012.2869	2856.9781	991.15	109.3
1012.4042	2858.1233	994.5	113.05
1012.5216	2859.2679	1002.4	124.4
1012.6389	2860.4118	1004.4	123.5
1012.7561	2861.555	1007.8	124.9
1012.8733	2862.6976	1004.2	121.45
1012.9905	2863.8395	1008.9	126.75
1013.1076	2864.9808	1006.85	125.95
1013.2247	2866.1214	1009.25	126.65
1013.3417	2867.2614	1008.45	127.1
1013.4587	2868.4007	1012.9	129.8
1013.5757	2869.5393	1011.65	128.3
1013.6926	2870.6773	1016.95	132.95
1013.8095	2871.8146	1017.7	133.55
1013.9263	2872.9513	1020.15	135.15
1014.0431	2874.0874	1015.75	133.65
1014.1599	2875.2227	1021.3	138.4
1014.2766	2876.3574	1023.2	142.9
1014.3933	2877.4915	1024.2	144.75
1014.51	2878.6249	1023.95	144.1
1014.6266	2879.7577	1026.85	144
1014.7431	2880.8898	1037.95	145.25
1014.8596	2882.0212	1026.8	147.6
1014.9761	2883.152	1030.1	147.5
1015.0925	2884.2821	1028.4	146.45
1015.2089	2885.4116	1035.1	157.95
1015.3253	2886.5405	1034.85	152.55
1015.4416	2887.6686	1034.6	151.2
1015.5579	2888.7962	1032	155.45
1015.6741	2889.923	1034.4	154.25
1015.7903	2891.0493	1035.3	155.05
1015.9065	2892.1748	1037.8	159.15
1016.0226	2893.2997	1033.9	152.8
1016.1387	2894.424	1032.15	153.05
1016.2547	2895.5476	1035.9	153.75
1016.3707	2896.6706	1035.95	156.7
1016.4866	2897.7929	1036.45	153.95
1016.6025	2898.9145	1039.05	156.65
1016.7184	2900.0355	1039.4	157.5
1016.8342	2901.1559	1036.8	155.75
1016.95	2902.2756	1035.4	148.3
1017.0658	2903.3946	1034.65	155.3
1017.1815	2904.513	1037.9	152.65
1017.2971	2905.6308	1032.15	151.55
1017.4127	2906.7479	1034.55	150.7
1017.5283	2907.8643	1037.2	155.4
1017.6439	2908.9801	1035.6	153.4
1017.7594	2910.0953	1036.7	155.65
1017.8748	2911.2098	1041.1	157.75
1017.9902	2912.3236	1042.4	154.25
1018.1056	2913.4368	1034.3	151.1
1018.2209	2914.5494	1034.25	153.1
1018.3362	2915.6613	1035.45	148.45
1018.4515	2916.7725	1031.25	146.6
1018.5667	2917.8831	1025.3	142.95
1018.6819	2918.9931	1027.95	144.45
1018.797	2920.1024	1023.05	142.65
1018.9121	2921.211	1021.45	139.55
1019.0271	2922.319	1018.05	137.95
1019.1421	2923.4264	1017.35	135.95
1019.2571	2924.5331	1016.8	138.35
1019.372	2925.6391	1018.6	139.45
1019.4869	2926.7445	1014.05	136.3
1019.6017	2927.8493	1018.45	136.65
1019.7165	2928.9534	1021.7	140.85
1019.8313	2930.0569	1021.2	138.35
1019.946	2931.1597	1021	137.1
1020.0606	2932.2619	1018.7	139.2
1020.1753	2933.3634	1020.8	140.4
1020.2899	2934.4643	1032.5	145.4
1020.4044	2935.5645	1028.6	142.45
1020.5189	2936.6641	1027.4	142
1020.6334	2937.763	1024.45	144.15
1020.7478	2938.8613	1019	141.1
1020.8622	2939.959	1021.55	134.9
1020.9765	2941.056	1019.15	140.4
1021.0908	2942.1523	1018.4	136.35
1021.2051	2943.248	1009.6	129.55
1021.3193	2944.3431	1000.1	119
1021.4334	2945.4375	995.65	115.55
1021.5476	2946.5313	988.7	109.75
1021.6617	2947.6244	984.8	103.1
1021.7757	2948.7169	979.2	97.35
1021.8897	2949.8087	974.4	94.55
1022.0037	2950.8999	967.6	87.9
1022.1176	2951.9904	960.85	81.65
1022.2315	2953.0803	959.65	79.1
1022.3453	2954.1696	956.55	75.45
1022.4591	2955.2582	955.45	77.45
1022.5728	2956.3462	951.7	69.2
1022.6865	2957.4335	951.9	70.05
1022.8002	2958.5202	956.45	74.7
1022.9138	2959.6062	951.7	70.7
1023.0274	2960.6916	950.6	72.3
1023.141	2961.7764	952.25	73.25
1023.2545	2962.8605	949.35	68.45
1023.3679	2963.9439	947.6	70.95
1023.4813	2965.0267	945.35	63.85
1023.5947	2966.1089	971.8	69.6
1023.708	2967.1905	950.6	71.45
1023.8213	2968.2714	949.95	70.65
1023.9346	2969.3516	948.05	69.05
1024.0478	2970.4312	954	67.2
1024.1609	2971.5102	948	70.35
1024.274	2972.5885	944.15	67.45
1024.3871	2973.6662	952.25	66.9
1024.5002	2974.7432	948.45	69.75
1024.6132	2975.8196	946.4	67.75
1024.7261	2976.8954	948.75	69.25
1024.839	2977.9705	946.15	67.1
1024.9519	2979.045	947.35	66.75
1025.0647	2980.1188	947.05	67.3
1025.1775	2981.192	946.85	70.4
1025.2902	2982.2645	944.15	62.85
1025.4029	2983.3364	944.6	64.2
1025.5156	2984.4077	944.45	65.25
1025.6282	2985.4783	947.1	61
1025.7407	2986.5483	938.65	60.35
1025.8532	2987.6177	937.3	56.45
1025.9657	2988.6864	933.75	52.6
1026.0782	2989.7545	937.55	57.05
1026.1906	2990.8219	930.8	51
1026.3029	2991.8887	931.35	51.3
1026.4152	2992.9548	929.45	47.85
1026.5275	2994.0204	924.85	47.5
1026.6397	2995.0852	918.55	38.9
1026.7519	2996.1495	917.85	36.15
1026.864	2997.2131	919.75	41.25
1026.9761	2998.276	916.35	36.1
1027.0882	2999.3383	915.1	33
1027.2002	3000.4	916.6	35
1027.3122	3001.4611	911.65	32.9
1027.4241	3002.5215	909.85	30.55
1027.536	3003.5812	908.65	29.05
1027.6478	3004.6404	909.9	30.2
1027.7596	3005.6989	910.3	30.15
1027.8714	3006.7567	906.75	26.7
1027.9831	3007.8139	937.65	28.05
1028.0947	3008.8705	905.55	24.7
1028.2064	3009.9264	906.95	25.85
1028.3179	3010.9818	905	24.45
1028.4295	3012.0364	904.05	22.8
1028.541	3013.0905	905	25.95
1028.6524	3014.1439	904.9	27.15
1028.7638	3015.1966	904.15	25.1
1028.8752	3016.2487	904.35	26.45
1028.9865	3017.3002	906.4	24.35
1029.0978	3018.3511	905.65	26.45
1029.209	3019.4013	902.35	23.7
1029.3202	3020.4509	900.95	22.4
1029.4314	3021.4998	897.95	19.8
1029.5425	3022.5481	900.85	20.15
1029.6535	3023.5958	903.45	24.8
1029.7645	3024.6428	902	21.8
1029.8755	3025.6892	901.35	23.2
1029.9864	3026.735	902.9	24.35
1030.0973	3027.7802	900.7	23.5
1030.2082	3028.8247	902.6	23.5
1030.319	3029.8685	899.9	19
1030.4297	3030.9118	898.3	19.15
1030.5404	3031.9544	899.9	21.45
1030.6511	3032.9963	899.2	19.55
1030.7617	3034.0376	902.35	24.3
1030.8723	3035.0783	902.75	20.45
1030.9829	3036.1184	903.95	24.1
1031.0934	3037.1578	901.65	23.85
1031.2038	3038.1966	903.8	22.3
1031.3142	3039.2348	898.65	21.3
1031.4246	3040.2723	908.7	19.2
1031.5349	3041.3092	899.65	21.95
1031.6452	3042.3455	901.4	22.7
1031.7554	3043.3811	902.1	22.8
1031.8656	3044.4161	901.3	21.95
1031.9758	3045.4505	899.75	20.8
1032.0859	3046.4842	901.9	19
1032.1959	3047.5173	902.05	24.85
1032.3059	3048.5498	901.45	21.45
1032.4159	3049.5816	902.2	23.45
1032.5258	3050.6128	905.1	25.3
1032.6357	3051.6434	902.05	21.15
1032.7455	3052.6734	901.7	20.85
1032.8553	3053.7027	899.1	19.5
1032.9651	3054.7314	901.2	22.5
1033.0748	3055.7594	902.75	24.3
1033.1845	3056.7868	902.55	22.5
1033.2941	3057.8136	902.1	25.1
1033.4037	3058.8398	900.05	23.2
1033.5132	3059.8653	902.45	23.05
1033.6227	3060.8902	902.15	24.6
1033.7321	3061.9145	902.3	23.1
1033.8415	3062.9381	901.7	22
1033.9509	3063.9612	918	24.6
1034.0602	3064.9835	903.5	23.4
1034.1694	3066.0053	905.4	21.9
1034.2787	3067.0264	902.1	22.05
1034.3878	3068.0469	902.85	22.4
1034.497	3069.0668	907.15	23.9
1034.6061	3070.086	900.25	21.15
1034.7151	3071.1046	899.45	20.25
1034.8241	3072.1226	900.85	20.6
1034.9331	3073.1399	899.25	20.15
1035.042	3074.1567	903.1	23.05
1035.1508	3075.1727	903.8	21.75
1035.2597	3076.1882	899.1	19.4
1035.3684	3077.203	901.6	24.1
1035.4772	3078.2173	899.15	19.75
1035.5859	3079.2308	902.55	21.5
1035.6945	3080.2438	899.9	20.35
1035.8031	3081.2561	898.5	18.5
1035.9117	3082.2678	894.8	15.3
1036.0202	3083.2789	896.1	17.4
1036.1286	3084.2893	897.45	18.2
1036.2371	3085.2991	896	15.8
1036.3454	3086.3083	903.15	19.25
1036.4538	3087.3169	896.3	18.25
1036.562	3088.3248	896.05	13.8
1036.6703	3089.3321	896.2	15.4
1036.7785	3090.3388	893.2	14.7
1036.8866	3091.3449	896.75	15.95
1036.9948	3092.3503	898.6	16.95
1037.1028	3093.3551	892.35	15.05
1037.2108	3094.3593	893.6	16.6
1037.3188	3095.3629	894.15	15.8
1037.4267	3096.3658	894.05	13.5
1037.5346	3097.3681	892.2	13.8
1037.6425	3098.3698	895.7	17.3
1037.7503	3099.3708	895.4	16.7
1037.858	3100.3713	892.15	14
1037.9657	3101.3711	893.9	15.9
1038.0734	3102.3702	1028.1	12.55
1038.181	3103.3688	895.55	13.45
1038.2886	3104.3667	889.7	12.65
1038.3961	3105.364	891.75	13.2
1038.5036	3106.3607	893.8	11.85
1038.611	3107.3568	893.4	14.4
1038.7184	3108.3522	889.3	11.05
1038.8257	3109.347	891.65	12.45
1038.933	3110.3412	895.05	13.45
1039.0403	3111.3348	891	12.45
1039.1475	3112.3277	892.6	12.7
1039.2547	3113.32	890.35	14.35
1039.3618	3114.3117	890.4	9.25
1039.4689	3115.3028	891.35	14.7
1039.5759	3116.2932	894.65	13.25
1039.6829	3117.2831	895.9	13.9
1039.7898	3118.2723	891.9	13.25
1039.8967	3119.2608	889.1	11
1040.0035	3120.2488	891.2	13.1
1040.1103	3121.2361	887.7	9.65
1040.2171	3122.2229	888.5	11.9
1040.3238	3123.209	891	10.7
1040.4305	3124.1944	889.45	11.8
1040.5371	3125.1793	892.35	10.25
1040.6437	3126.1635	891	13.45
1040.7502	3127.1471	887.55	8.95
1040.8567	3128.1301	888.65	8.95
1040.9631	3129.1125	888.65	7.95
1041.0695	3130.0942	889.05	12.05
1041.1759	3131.0753	895.4	6.35
1041.2822	3132.0558	893.4	13.9
1041.3884	3133.0357	890.1	11.4
1041.4946	3134.015	888.6	9
1041.6008	3134.9936	889.15	9.1
1041.7069	3135.9716	912.6	11.9
1041.813	3136.949	887.6	9.9
1041.919	3137.9258	906.6	9.25
1042.025	3138.902	893.45	8.45
1042.1309	3139.8775	886.8	9.45
1042.2368	3140.8524	887.6	11
1042.3427	3141.8267	889.65	6.25
1042.4485	3142.8004	889.85	10.45
1042.5542	3143.7735	895.35	10.15
1042.6599	3144.7459	890.5	9.3
1042.7656	3145.7178	889.15	11.5
1042.8712	3146.689	887.75	9.45
1042.9768	3147.6596	890	11.8
1043.0823	3148.6295	889.2	9.65
1043.1878	3149.5989	887.6	9.35
1043.2932	3150.5676	884.9	7.45
1043.3986	3151.5357	886.3	8.35
1043.5039	3152.5032	887.65	10.05
1043.6092	3153.4701	886.55	9.8
1043.7145	3154.4364	890.6	8.15
1043.8197	3155.402	887.05	9.55
1043.9248	3156.367	889.75	8.85
1044.03	3157.3315	931.3	9.35
1044.135	3158.2952	886.95	7.95
1044.24	3159.2584	886.15	8
1044.345	3160.221	886.25	6.35
1044.4499	3161.1829	888.15	10.65
1044.5548	3162.1442	887.85	11.25
1044.6596	3163.105	886.6	9.65
1044.7644	3164.065	886.95	8.35
1044.8692	3165.0245	890.05	10
1044.9739	3165.9834	885.75	9.75
1045.0785	3166.9416	887	10.7
1045.1831	3167.8993	885.25	8.05
1045.2877	3168.8563	886	7.15
1045.3922	3169.8127	886.9	10.6
1045.4966	3170.7684	887.1	9.5
1045.6011	3171.7236	888.8	10.65
1045.7054	3172.6782	886.8	8.8
1045.8098	3173.6321	886.85	8.3
1045.914	3174.5854	891.9	9.05
1046.0183	3175.5381	886.05	7.25
1046.1224	3176.4902	885.7	7.65
1046.2266	3177.4417	885.4	7.15
1046.3307	3178.3926	884.75	8.25
1046.4347	3179.3428	885.95	9.2
1046.5387	3180.2924	883	4.15
1046.6427	3181.2415	884.55	5.1
1046.7466	3182.1899	886.35	5.05
1046.8504	3183.1377	884.05	6.05
1046.9542	3184.0848	889.65	8.55
1047.058	3185.0314	887.5	9.7
1047.1617	3185.9773	885	5.75
1047.2654	3186.9227	886.45	8.55
1047.369	3187.8674	886.05	6.2
1047.4726	3188.8115	889.4	6.25
1047.5761	3189.755	884.7	7.25
1047.6796	3190.6979	886.6	7.45
1047.783	3191.6402	884.6	8.05
1047.8864	3192.5818	884.55	6.35
1047.9898	3193.5229	904.75	8.5
1048.0931	3194.4633	885	7.75
1048.1963	3195.4031	884.95	6.5
1048.2995	3196.3423	884.9	7.9
1048.4027	3197.2809	884.05	5.75
1048.5058	3198.2189	884.65	3.6
1048.6089	3199.1563	902.25	8.85
1048.7119	3200.0931	885.2	7.8
1048.8148	3201.0292	883.7	6.7
1048.9178	3201.9648	885.8	9.4
1049.0206	3202.8997	887.15	6
1049.1235	3203.834	885.05	7.3
1049.2262	3204.7677	883.9	4.9
1049.329	3205.7008	884.7	6.2
1049.4317	3206.6333	882.95	8.15
1049.5343	3207.5652	884.8	4.65
1049.6369	3208.4964	883.95	6.05
1049.7394	3209.4271	882.1	3.1
1049.8419	3210.3571	886.3	6.35
1049.9444	3211.2865	886.25	7.45
1050.0468	3212.2154	886.75	7
1050.1491	3213.1436	887.3	6.9
1050.2514	3214.0712	889.9	6.85
1050.3537	3214.9982	885.8	9.05
1050.4559	3215.9246	886	7.9
1050.5581	3216.8503	881.55	1.6
1050.6602	3217.7755	885.65	6.2
1050.7623	3218.7001	883.25	6.85
1050.8643	3219.624	884.7	6.3
1050.9663	3220.5473	886.1	6.95
1051.0682	3221.4701	883.8	5.15
1051.1701	3222.3922	885.75	4.3
1051.2719	3223.3137	883.05	6.95
1051.3737	3224.2346	882.4	4.8
1051.4754	3225.1549	882	3.55
1051.5771	3226.0746	883.45	5.25
1051.6788	3226.9937	883.8	5.85
1051.7804	3227.9121	883.5	5.6
1051.8819	3228.83	882.25	4.85
1051.9834	3229.7473	883.85	8.1
1052.0849	3230.6639	883.4	3.65
1052.1863	3231.5799	883.55	6.05
1052.2876	3232.4954	881.7	4.15
1052.3889	3233.4102	882.95	5.7
1052.4902	3234.3244	884	4.65
1052.5914	3235.238	884.35	8.3
1052.6926	3236.151	908.7	7.2
1052.7937	3237.0634	883.3	8.05
1052.8948	3237.9752	883.95	5.4
1052.9958	3238.8864	882.85	5.55
1053.0968	3239.797	882.25	3.35
1053.1977	3240.7069	883.7	5.55
1053.2986	3241.6163	884.65	6
1053.3994	3242.5251	882.05	3.3
1053.5002	3243.4332	882.9	7.2
1053.6009	3244.3408	881.5	2.15
1053.7016	3245.2477	884.05	6.05
1053.8022	3246.154	884.15	6.5
1053.9028	3247.0598	883.9	5.6
1054.0034	3247.9649	882.95	6.5
1054.1039	3248.8694	882.65	6.4
1054.2043	3249.7733	882.55	3.1
1054.3047	3250.6766	882.9	6.75
1054.4051	3251.5793	883.8	2.45
1054.5054	3252.4814	883.7	9.15
1054.6056	3253.3829	882.05	4.85
1054.7058	3254.2838	880	3.45
1054.806	3255.1841	881.45	3.4
1054.9061	3256.0838	880.3	3.05
1055.0061	3256.9829	881.5	5.7
1055.1062	3257.8814	883.95	4.65
1055.2061	3258.7792	882.35	2.15
1055.306	3259.6765	883.25	3.2
1055.4059	3260.5731	882.5	4.55
1055.5057	3261.4692	881.5	3.2
1055.6055	3262.3647	882.7	3.7
1055.7052	3263.2595	881.7	4.25
1055.8049	3264.1538	879.5	1.8
1055.9045	3265.0474	883.15	4.1
1056.0041	3265.9404	882.6	5.45
1056.1036	3266.8329	879.55	2.2
1056.2031	3267.7247	891.55	2.75
1056.3025	3268.616	879.75	1.5
1056.4019	3269.5066	881.4	4.1
1056.5013	3270.3966	882.75	3.6
1056.6005	3271.286	881.55	2.7
