Software Version:	3.9.2.0
Unit SN:	10000200
Spectrometer SN:	6960
Date:	3/8/2024 1:34:23 PM
Data Line Index:	25
Spectral Points:	2048
Integration time (ms):	125
Averages:	20
Delay (ms):	30000
Sequence Number:	1
Processing:	dark subtract
Laser Power (mW):	305
Laser Current (mA):	823
Laser Diode Temp (C):	25.1
Laser Case Temp (C):	26.3
System Temp (C):	26.3
Spectrometer Temp (C):	24.1
CCD Temp (C):	0.01
Secondary Temp (C):	20.006
Heatsink Temp (C):	20.764
CCDPCB Temp (C):	36.285
SecondaryPCB Temp (C):	30.093

Wavelength	RamanShift	Raw Counts	Dark Subtracted
787.061	30.1047	455.25	46.15
787.2016	32.3739	454.9	49.4
787.3422	34.6426	460.75	53.25
787.4828	36.9109	467.9	58.9
787.6235	39.1787	476.3	62.7
787.7642	41.4461	486.3	69.05
787.9049	43.7131	495.6	75.65
788.0456	45.9796	498.3	74.4
788.1863	48.2456	510.1	81.65
788.3271	50.5112	518.35	87
788.4679	52.7764	527.55	92.45
788.6087	55.0411	538.75	99.35
788.7496	57.3054	550.1	105.1
788.8904	59.5692	559.6	112.95
789.0313	61.8326	572.75	125
789.1722	64.0955	581.9	130.15
789.3132	66.3579	596.45	139.95
789.4541	68.6199	617.3	156.7
789.5951	70.8815	653.1	186.2
789.7361	73.1426	732.45	262.85
789.8771	75.4032	927.4	456
790.0181	77.6634	1411.4	931.75
790.1592	79.9231	2580.75	2093.55
790.3003	82.1824	5073.7	4567.7
790.4414	84.4412	9586.25	9053.15
790.5825	86.6995	15793.45	15225.9
790.7237	88.9574	21850.95	21251.4
790.8648	91.2148	26052.5	25430.45
791.006	93.4717	27971	27331.25
791.1472	95.7282	28401.25	27754.15
791.2885	97.9842	28243.45	27593
791.4297	100.2398	27661.5	27006.8
791.571	102.4949	27021.45	26368.6
791.7123	104.7495	26196.85	25536.35
791.8536	107.0036	25417.95	24761.35
791.9949	109.2573	24670.45	24015.1
792.1363	111.5105	23920.7	23259.35
792.2777	113.7632	23189.2	22528.25
792.4191	116.0154	22592.5	21918.1
792.5605	118.2672	22122.6	21450.15
792.7019	120.5185	21690.3	21019.2
792.8434	122.7693	21295.5	20624.05
792.9849	125.0197	21021.9	20347.35
793.1264	127.2696	20748.9	20067.85
793.2679	129.519	20569.65	19882.95
793.4094	131.7679	20336.45	19650.15
793.551	134.0163	20197.6	19505.6
793.6926	136.2642	19960.9	19266.3
793.8342	138.5117	19689.45	18989.25
793.9758	140.7587	19447.55	18750
794.1175	143.0052	19237.2	18536
794.2591	145.2512	18950.9	18251.95
794.4008	147.4967	18741.8	18041.1
794.5425	149.7417	18550.7	17849.4
794.6842	151.9863	18419.55	17709.6
794.826	154.2304	18339.7	17624.65
794.9677	156.4739	18219.05	17502.45
795.1095	158.717	18190.2	17471.05
795.2513	160.9596	17962.55	17238.1
795.3931	163.2017	17729.4	17004.95
795.535	165.4433	17441.55	16718.45
795.6768	167.6844	17091.1	16368.05
795.8187	169.925	16818.95	16087.7
795.9606	172.1651	16435.4	15700
796.1025	174.4047	16160.8	15421.1
796.2445	176.6439	15919.55	15184.8
796.3864	178.8825	15672.15	14934.45
796.5284	181.1206	15491.6	14744.6
796.6704	183.3582	15356.4	14607.15
796.8124	185.5954	15216.15	14467.95
796.9544	187.832	15166.3	14411.4
797.0965	190.0681	15116	14357.25
797.2386	192.3037	15118.85	14356.8
797.3806	194.5388	15111.3	14346.6
797.5228	196.7734	15152.35	14387.3
797.6649	199.0075	15247.05	14479.3
797.807	201.2411	15359.25	14589.2
797.9492	203.4742	15432.85	14662.15
798.0914	205.7068	15566.15	14794.75
798.2336	207.9389	15684.35	14907.9
798.3758	210.1704	15854.8	15081.05
798.518	212.4015	15950.65	15188.55
798.6603	214.632	16149.7	15396.45
798.8025	216.862	16294.15	15542.9
798.9448	219.0915	16469.2	15716.7
799.0871	221.3205	16643.65	15889.8
799.2294	223.549	16866.85	16111.55
799.3718	225.777	17142.15	16389.5
799.5141	228.0044	17447.45	16688.95
799.6565	230.2314	17865.95	17104.4
799.7989	232.4578	18242.85	17480.5
799.9413	234.6837	18531.35	17760.25
800.0837	236.909	18721.15	17945.5
800.2262	239.1339	18734	17936.95
800.3687	241.3582	18533.05	17746.95
800.5111	243.582	18255.9	17442.2
800.6536	245.8053	17956.35	17155.65
800.7961	248.0281	17682.1	16890
800.9387	250.2503	17480.75	16681.95
801.0812	252.472	17374.45	16572.35
801.2238	254.6932	17324.7	16520.85
801.3664	256.9139	17269.6	16465.15
801.509	259.134	17353.7	16543.2
801.6516	261.3536	17379.9	16574.85
801.7942	263.5727	17485.95	16680.75
801.9369	265.7912	17489.05	16678.55
802.0795	268.0092	17554.05	16747
802.2222	270.2267	17563.25	16756.6
802.3649	272.4436	17587.5	16778.7
802.5076	274.6601	17528.25	16706.7
802.6504	276.8759	17432.65	16615.35
802.7931	279.0913	17381.8	16569.8
802.9359	281.3061	17299.85	16486.05
803.0787	283.5204	17337.2	16519.05
803.2215	285.7341	17400.25	16578.25
803.3643	287.9473	17543.2	16711.4
803.5071	290.16	17756.2	16926.4
803.6499	292.3721	18027.45	17207.2
803.7928	294.5837	18412.55	17590
803.9357	296.7947	18741.05	17923.2
804.0786	299.0052	18935.65	18115.35
804.2215	301.2152	18810.65	17989.05
804.3644	303.4246	18494.95	17674.95
804.5074	305.6334	17976.35	17159.95
804.6503	307.8418	17470.55	16647.05
804.7933	310.0495	17073.35	16243.65
804.9363	312.2568	16751.45	15922.65
805.0793	314.4635	16478.5	15651.25
805.2223	316.6696	16334.15	15506.75
805.3653	318.8752	16275.15	15433.8
805.5084	321.0802	16344.55	15515.8
805.6514	323.2847	16393.25	15558.8
805.7945	325.4887	16436.5	15601.8
805.9376	327.692	16422.45	15586.55
806.0807	329.8949	16303.65	15468.75
806.2238	332.0972	16070.75	15230.9
806.367	334.2989	15809.5	14965.75
806.5101	336.5001	15521.3	14683.05
806.6533	338.7007	15333.85	14489.65
806.7965	340.9008	15214.7	14367.1
806.9397	343.1003	15084.15	14236.6
807.0829	345.2992	15005.3	14158.45
807.2261	347.4976	14964.1	14116.3
807.3693	349.6955	14949.15	14097.75
807.5126	351.8927	14998.2	14145.75
807.6559	354.0895	14961.85	14092.65
807.7991	356.2856	15027.6	14174.6
807.9424	358.4812	14998.25	14142.8
808.0857	360.6763	15035.9	14180.55
808.2291	362.8707	15012.8	14151.85
808.3724	365.0646	15078.45	14218.55
808.5158	367.258	15059.6	14201.6
808.6591	369.4508	15137.3	14272.8
808.8025	371.643	15238.5	14375.2
808.9459	373.8346	15216.9	14348.5
809.0893	376.0257	15212.6	14346.15
809.2327	378.2162	15147.85	14280.65
809.3762	380.4062	15038.5	14174.1
809.5196	382.5956	14910.4	14045.45
809.6631	384.7844	14822.6	13962.2
809.8066	386.9726	14677.15	13818.35
809.9501	389.1603	14649.6	13793.8
810.0936	391.3474	14610.5	13718.35
810.2371	393.5339	14565.9	13702.35
810.3806	395.7199	14544.7	13687.05
810.5241	397.9052	14562.55	13703.85
810.6677	400.09	14577.9	13715.75
810.8113	402.2743	14718.85	13859.3
810.9548	404.4579	14772.7	13916
811.0984	406.641	14966.75	14107.15
811.2421	408.8235	15134.45	14271.75
811.3857	411.0054	15460.7	14598.35
811.5293	413.1868	15830.75	14958.1
811.673	415.3675	16096	15220.5
811.8166	417.5477	16296.5	15420.55
811.9603	419.7273	16332.15	15457.4
812.104	421.9064	16210.85	15332.95
812.2477	424.0848	16091.4	15219.3
812.3914	426.2627	15907	15036.9
812.5351	428.4399	15621.8	14741.2
812.6788	430.6166	15266.05	14387.9
812.8226	432.7928	14905.05	14023.85
812.9663	434.9683	14606.85	13729.85
813.1101	437.1432	14341.75	13465.15
813.2539	439.3176	14183.85	13315.75
813.3977	441.4914	14068.1	13196.05
813.5415	443.6645	14058.85	13188.75
813.6853	445.8371	14005.15	13128.2
813.8291	448.0091	13942.2	13064.5
813.973	450.1806	13921.4	13047.1
814.1168	452.3514	13852.4	12980
814.2607	454.5216	13887.25	13003.6
814.4046	456.6913	13822.75	12943.3
814.5485	458.8603	13858.25	12980.65
814.6924	461.0288	13924.1	13054.35
814.8363	463.1967	13927.2	13058.15
814.9802	465.3639	14023.35	13146.4
815.1241	467.5306	14090.9	13219.85
815.2681	469.6967	14222.95	13348.4
815.412	471.8622	14344.9	13473.4
815.556	474.0271	14476.55	13603.35
815.7	476.1914	14532.3	13653.2
815.844	478.3551	14538.45	13658.55
815.988	480.5182	14527.7	13653.2
816.132	482.6807	14571.65	13702.55
816.276	484.8426	14661.05	13796.75
816.4201	487.0039	14950.55	14083.3
816.5641	489.1647	15357.55	14478.95
816.7082	491.3248	15760	14879.55
816.8522	493.4843	15924.5	15050.7
816.9963	495.6432	15894.7	15019
817.1404	497.8015	15820.9	14933.7
817.2845	499.9592	15797.55	14905.8
817.4286	502.1163	15724.25	14835.45
817.5727	504.2728	15497.1	14617.75
817.7168	506.4287	15186.3	14312.65
817.861	508.5839	14770.7	13900.45
818.0051	510.7386	14473.65	13594.9
818.1493	512.8927	14323.9	13438
818.2935	515.0461	14244.55	13359.4
818.4377	517.199	14199.45	13315.25
818.5818	519.3512	14244.3	13353.85
818.726	521.5029	14330.6	13441.85
818.8703	523.6539	14438.55	13547.9
819.0145	525.8043	14518.05	13631.25
819.1587	527.9541	14506.35	13613.1
819.303	530.1033	14456.15	13565.25
819.4472	532.2519	14440.95	13551.45
819.5915	534.3999	14531.5	13637.1
819.7357	536.5472	14759.2	13871.45
819.88	538.694	15181	14295.15
820.0243	540.8401	15714.25	14822.9
820.1686	542.9856	16146.75	15246.25
820.3129	545.1305	16291.1	15383.8
820.4572	547.2748	16159.75	15250.95
820.6016	549.4185	15840.75	14932.8
820.7459	551.5615	15540.4	14630.6
820.8902	553.704	15422.6	14516.35
821.0346	555.8458	15367	14467.75
821.1789	557.987	15415.3	14517.4
821.3233	560.1276	15465.45	14567.15
821.4677	562.2675	15544.55	14646.1
821.6121	564.4069	15721	14822.85
821.7565	566.5456	15775.8	14877.45
821.9009	568.6837	15712.65	14814.8
822.0453	570.8212	15420.65	14522.6
822.1897	572.958	15013.95	14117.7
822.3342	575.0942	14686.1	13790.9
822.4786	577.2299	14445.3	13553.25
822.6231	579.3648	14394.1	13511.9
822.7675	581.4992	14416.9	13540.55
822.912	583.6329	14578.8	13705.1
823.0565	585.766	14818	13940.6
823.201	587.8985	14953.15	14067.65
823.3454	590.0304	14979.6	14062.95
823.4899	592.1616	14888	13985.35
823.6345	594.2922	14768.85	13867
823.779	596.4222	14630.65	13724.3
823.9235	598.5515	14460.5	13554.1
824.068	600.6802	14290.3	13386.75
824.2126	602.8083	14125.05	13224.1
824.3571	604.9358	14067	13163
824.5017	607.0626	14042.95	13136.05
824.6462	609.1888	14023	13113.05
824.7908	611.3144	13986.85	13075.7
824.9354	613.4393	13955.05	13042.5
825.08	615.5636	13903.4	12992.55
825.2246	617.6873	13834.4	12925.15
825.3692	619.8103	13772.6	12860.7
825.5138	621.9327	13663.5	12757.05
825.6584	624.0544	13578.55	12674.35
825.803	626.1756	13517.45	12615.15
825.9477	628.2961	13461	12552.95
826.0923	630.4159	13408.75	12496.3
826.237	632.5351	13390.65	12478.25
826.3816	634.6537	13314.45	12401.7
826.5263	636.7716	13337.55	12426.35
826.6709	638.8889	13332.6	12414.85
826.8156	641.0056	13348.45	12430.9
826.9603	643.1216	13355.2	12441.35
827.105	645.237	13367.8	12453.5
827.2497	647.3518	13297.4	12388.3
827.3944	649.4659	13322.7	12418.95
827.5391	651.5793	13290.6	12386.35
827.6838	653.6922	13308	12400.75
827.8285	655.8043	13294.55	12384.25
827.9733	657.9159	13286.35	12377.45
828.118	660.0268	13203.2	12295.2
828.2627	662.137	13180	12267.45
828.4075	664.2466	13174.85	12253.95
828.5522	666.3556	13162.55	12247.05
828.697	668.4639	13151.85	12237.75
828.8418	670.5716	13137.05	12228.55
828.9865	672.6786	13204	12291.8
829.1313	674.785	13255.1	12334.45
829.2761	676.8907	13284.5	12366.8
829.4209	678.9958	13362.3	12453.5
829.5657	681.1002	13335.15	12422.15
829.7105	683.204	13338.2	12416.55
829.8553	685.3072	13273.45	12353.3
830.0001	687.4097	13237.95	12319.15
830.1449	689.5115	13209.9	12289.1
830.2898	691.6127	13162.6	12244.65
830.4346	693.7132	13116.75	12204.35
830.5794	695.8131	13116.7	12189.5
830.7243	697.9123	13087.55	12165.75
830.8691	700.0109	13068.15	12145.6
831.014	702.1089	13054.6	12135.5
831.1588	704.2061	13052.55	12132.35
831.3037	706.3028	13089.4	12166.8
831.4486	708.3987	13122.7	12202.7
831.5935	710.4941	13198.55	12273.95
831.7383	712.5887	13366.55	12445.75
831.8832	714.6827	13613.35	12688.95
832.0281	716.7761	13874.25	12957.8
832.173	718.8688	14230.4	13310.25
832.3179	720.9608	14400.85	13476.4
832.4628	723.0522	14498.8	13569.9
832.6077	725.1429	14391.85	13468.7
832.7527	727.233	14169.5	13247
832.8976	729.3224	13976	13056.45
833.0425	731.4112	13743.25	12818.35
833.1874	733.4993	13549	12627.05
833.3324	735.5867	13385.45	12464.15
833.4773	737.6735	13272.3	12347.4
833.6222	739.7596	13164.25	12239.1
833.7672	741.845	13112.2	12193.05
833.9122	743.9298	13088.6	12163.65
834.0571	746.014	13059.05	12135.45
834.2021	748.0974	13079.55	12146.8
834.347	750.1802	13081.2	12155.05
834.492	752.2624	13058.65	12132.4
834.637	754.3439	13086.3	12156.15
834.782	756.4247	13193.05	12256.7
834.9269	758.5048	13346.7	12417.6
835.0719	760.5843	13575.6	12645.4
835.2169	762.6631	13928.7	13002.4
835.3619	764.7413	14394.55	13469.1
835.5069	766.8188	14997.75	14070.1
835.6519	768.8956	15436.2	14507.2
835.7969	770.9718	15761.5	14836.05
835.9419	773.0473	15635.1	14709.2
836.0869	775.1221	15330	14405.7
836.232	777.1962	14997.6	14069.5
836.377	779.2697	14807.75	13876.45
836.522	781.3426	14851.3	13902.5
836.667	783.4147	15039.7	14111.7
836.8121	785.4862	15287.9	14361.5
836.9571	787.557	15297	14365
837.1021	789.6271	14945.9	14016.2
837.2472	791.6966	14396.55	13465.6
837.3922	793.7654	13881.65	12951.4
837.5373	795.8335	13532.4	12599.85
837.6823	797.901	13313.5	12381.4
837.8274	799.9678	13234.35	12301.6
837.9724	802.0339	13234.9	12302.95
838.1175	804.0993	13279.4	12337.2
838.2626	806.1641	13246.4	12313.9
838.4076	808.2282	13179.4	12248.35
838.5527	810.2916	13080.6	12146.1
838.6978	812.3544	12998.45	12070.15
838.8428	814.4164	12938.15	12008.7
838.9879	816.4778	12958.3	12023.2
839.133	818.5385	12937.95	12001.1
839.2781	820.5986	13051.7	12118.6
839.4232	822.658	13185.75	12253.05
839.5682	824.7166	13317.2	12384.7
839.7133	826.7747	13628.05	12696
839.8584	828.832	13884.55	12949.15
840.0035	830.8886	14060	13122.5
840.1486	832.9446	14179.6	13241.15
840.2937	834.9999	14173.9	13240.4
840.4388	837.0545	14133.75	13198.45
840.5839	839.1085	14057	13123.5
840.729	841.1618	13952.3	13012.65
840.8741	843.2143	13912.3	12977.25
841.0192	845.2662	13808.15	12876.1
841.1643	847.3175	13727.65	12792.35
841.3095	849.368	13615.8	12679.55
841.4546	851.4179	13508.7	12575.45
841.5997	853.467	13391.45	12458
841.7448	855.5155	13285.85	12349.6
841.8899	857.5633	13176	12238.55
842.0351	859.6105	13077.15	12140.3
842.1802	861.6569	12997.1	12064.6
842.3253	863.7027	12967.85	12029.55
842.4704	865.7478	12940.45	12001.45
842.6156	867.7922	12945.55	12006
842.7607	869.8359	12971.05	12034.25
842.9058	871.8789	13087.8	12148.55
843.0509	873.9212	13260.55	12289.85
843.1961	875.9629	13346.25	12411.35
843.3412	878.0039	13522.3	12585.3
843.4863	880.0441	13624.55	12691.5
843.6315	882.0837	13654.5	12717.9
843.7766	884.1226	13612.25	12673.25
843.9218	886.1609	13522.5	12587.25
844.0669	888.1984	13467.65	12532.75
844.212	890.2352	13489	12552.95
844.3572	892.2714	13436.75	12496.15
844.5023	894.3069	13481.15	12545.1
844.6475	896.3416	13365.15	12424.95
844.7926	898.3757	13267.25	12331.25
844.9377	900.4091	13261.15	12318.05
845.0829	902.4418	13278.1	12331.05
845.228	904.4739	13299.7	12357.85
845.3732	906.5052	13315.85	12373.65
845.5183	908.5358	13229.2	12282.75
845.6635	910.5658	13068	12123.4
845.8086	912.595	12896.9	11960.15
845.9538	914.6236	12767.65	11829.5
846.0989	916.6515	12671.7	11731
846.2441	918.6786	12659.5	11718.65
846.3892	920.7051	12740.75	11799.6
846.5344	922.7309	12826.2	11884.5
846.6795	924.756	12857.85	11917.8
846.8246	926.7804	12976.1	12034.1
846.9698	928.8041	12927.45	11983.85
847.1149	930.8272	12970.45	12030.45
847.2601	932.8495	12915.5	11970.95
847.4052	934.8711	12872.4	11928.45
847.5504	936.892	12751.95	11809.5
847.6955	938.9123	12651.15	11708.7
847.8407	940.9318	12566.65	11623.3
847.9858	942.9506	12470.35	11530.2
848.131	944.9688	12379.4	11436.65
848.2761	946.9862	12358.65	11418.2
848.4213	949.003	12248.35	11304.7
848.5664	951.019	12231.1	11292.1
848.7115	953.0344	12222.25	11282.45
848.8567	955.0491	12276.2	11333.35
849.0018	957.063	12331.25	11390.35
849.147	959.0763	12463.25	11523.25
849.2921	961.0888	12463.7	11519.7
849.4373	963.1007	12548.05	11608.55
849.5824	965.1119	12608.5	11679
849.7275	967.1223	12627.9	11702.45
849.8727	969.1321	12617.65	11691
850.0178	971.1412	12667.35	11734.25
850.1629	973.1495	12674.35	11738.1
850.3081	975.1572	12730.2	11745.05
850.4532	977.1641	12752.3	11812.75
850.5983	979.1704	12714.95	11770.15
850.7435	981.1759	12719.95	11772.6
850.8886	983.1808	12766.4	11821.1
851.0337	985.1849	12834.55	11883.2
851.1788	987.1884	12988.15	12045.35
851.324	989.1911	13126.1	12186.1
851.4691	991.1932	13267.15	12325.3
851.6142	993.1945	13282.15	12344.15
851.7593	995.1951	13242.65	12302.3
851.9045	997.1951	13241.8	12294.55
852.0496	999.1943	13129.5	12184.9
852.1947	1001.1928	13110.25	12166.15
852.3398	1003.1906	13106.75	12164.55
852.4849	1005.1877	13197.5	12254.65
852.63	1007.1841	13180.85	12240.95
852.7751	1009.1798	13148.05	12205.05
852.9202	1011.1748	12962.35	12021.75
853.0653	1013.1691	12818	11877.95
853.2104	1015.1627	12557.9	11617.1
853.3555	1017.1556	12379.2	11439.9
853.5006	1019.1477	12290.35	11350.6
853.6457	1021.1392	12185.95	11254.25
853.7908	1023.1299	12166.65	11236.05
853.9359	1025.12	12194.5	11267.6
854.081	1027.1093	12235.2	11318.55
854.2261	1029.0979	12324.2	11409.9
854.3712	1031.0859	12399.9	11479.25
854.5163	1033.0731	12407.55	11480.65
854.6613	1035.0596	12373.25	11440.55
854.8064	1037.0454	12206.45	11269.7
854.9515	1039.0304	12133.3	11191.6
855.0965	1041.0148	11991.25	11053.25
855.2416	1042.9985	11882.65	10942
855.3867	1044.9814	11871.85	10933.9
855.5317	1046.9636	11828.35	10886.3
855.6768	1048.9452	11801.95	10862.5
855.8219	1050.926	11836.9	10902.15
855.9669	1052.9061	11838.8	10901.55
856.112	1054.8855	11838.7	10901
856.257	1056.8642	11875.3	10936.5
856.4021	1058.8421	11943.7	10999.4
856.5471	1060.8194	11964.65	11022.5
856.6921	1062.7959	12008.5	11067.55
856.8372	1064.7717	12025.35	11082.45
856.9822	1066.7469	12064.1	11122.4
857.1272	1068.7213	12069.1	11130
857.2723	1070.695	12091.65	11151.5
857.4173	1072.6679	12049.35	11107.55
857.5623	1074.6402	12036.7	11097.5
857.7073	1076.6117	12005.5	11056.85
857.8523	1078.5826	11958.85	11017.2
857.9973	1080.5527	11926.55	10985.1
858.1423	1082.5221	12011.15	11074.35
858.2873	1084.4908	12165.5	11224.3
858.4323	1086.4587	12292.2	11350.1
858.5773	1088.426	12421.95	11477.95
858.7223	1090.3925	12397.95	11453.3
858.8673	1092.3584	12370	11430.7
859.0123	1094.3235	12282.95	11343.1
859.1573	1096.2879	12236.7	11293.4
859.3022	1098.2515	12254.3	11313.1
859.4472	1100.2145	12344.1	11407.85
859.5922	1102.1767	12465.35	11527
859.7371	1104.1382	12635.15	11695.65
859.8821	1106.099	12847.8	11906.1
860.027	1108.0591	13053.65	12116.15
860.172	1110.0185	13211.7	12273.5
860.3169	1111.9771	13249.8	12311.05
860.4619	1113.9351	13043.95	12103.5
860.6068	1115.8923	12795.75	11857.55
860.7517	1117.8488	12543.3	11603.2
860.8967	1119.8045	12298.6	11361.4
861.0416	1121.7596	12175.45	11234.2
861.1865	1123.7139	12079.35	11143
861.3314	1125.6675	12084.05	11146.1
861.4763	1127.6204	12145.3	11207.15
861.6212	1129.5726	12120.85	11182.55
861.7661	1131.524	12110.5	11171.55
861.911	1133.4748	12040.65	11103.65
862.0559	1135.4248	12013.25	11072.5
862.2008	1137.3741	11962.15	11023.55
862.3457	1139.3226	11893.2	10955.75
862.4905	1141.2705	11895.1	10958.4
862.6354	1143.2176	11786.5	10840.4
862.7803	1145.164	11783.9	10848.05
862.9251	1147.1097	11759	10821.25
863.07	1149.0546	11740.65	10800.05
863.2148	1150.9989	11662.85	10723.65
863.3597	1152.9424	11536.3	10595.85
863.5045	1154.8852	11365.8	10428.65
863.6493	1156.8272	11284.5	10347.1
863.7942	1158.7686	11265.6	10319.45
863.939	1160.7092	11246.4	10306.55
864.0838	1162.6491	11238.95	10296.75
864.2286	1164.5883	11330.65	10394.45
864.3734	1166.5267	11407.15	10469.4
864.5182	1168.4644	11556.05	10617.2
864.663	1170.4014	11720	10782.95
864.8078	1172.3377	12004.05	11067.4
864.9526	1174.2732	12225.5	11289.2
865.0974	1176.2081	12512.8	11577.3
865.2421	1178.1421	12794.15	11850.95
865.3869	1180.0755	13063.15	12127.35
865.5317	1182.0082	13230.1	12296.6
865.6764	1183.9401	13275.65	12339.1
865.8212	1185.8713	13145.7	12214.45
865.9659	1187.8017	12920	11997.1
866.1106	1189.7315	12633.05	11717.15
866.2554	1191.6605	12343.85	11426.5
866.4001	1193.5888	12100.05	11177.5
866.5448	1195.5163	11959.9	11032
866.6895	1197.4432	11904.7	10968.9
866.8342	1199.3693	11862.85	10926.95
866.9789	1201.2947	11847.85	10908.75
867.1236	1203.2193	11811.4	10875.5
867.2683	1205.1432	11817.35	10879.75
867.413	1207.0664	11840.6	10907.2
867.5576	1208.9889	11830.1	10893.15
867.7023	1210.9106	11857.15	10923.65
867.847	1212.8316	11902.55	10967.7
867.9916	1214.7519	12013.4	11067.1
868.1363	1216.6715	11986.6	11049.85
868.2809	1218.5903	12009.45	11071.95
868.4255	1220.5084	11992.2	11055.35
868.5701	1222.4257	12010.4	11079.45
868.7148	1224.3424	11969.65	11038.8
868.8594	1226.2583	12057.85	11121.7
869.004	1228.1735	12139.95	11208.2
869.1486	1230.0879	12226.95	11289.4
869.2932	1232.0016	12349.8	11415.5
869.4377	1233.9146	12390	11450.9
869.5823	1235.8269	12365.25	11435.6
869.7269	1237.7384	12250	11316.5
869.8715	1239.6492	12040.7	11109.1
870.016	1241.5592	11965.35	11032.35
870.1606	1243.4686	11917.55	10984.4
870.3051	1245.3772	11960.3	11026.05
870.4496	1247.285	11969.15	11036.9
870.5941	1249.1922	11980.3	11047.75
870.7387	1251.0986	11994.5	11062.5
870.8832	1253.0042	11966.4	11033.95
871.0277	1254.9092	12035.85	11102.9
871.1722	1256.8134	12102.25	11172.05
871.3167	1258.7169	12271.6	11337.25
871.4611	1260.6196	12439.1	11507.55
871.6056	1262.5216	12619.6	11684.7
871.7501	1264.4229	12798.1	11867.7
871.8945	1266.3234	12939.3	12006.35
872.039	1268.2232	13050.45	12119.15
872.1834	1270.1223	13064.8	12133.8
872.3278	1272.0207	13048.8	12114.1
872.4723	1273.9183	13031.45	12093.1
872.6167	1275.8151	12994.15	12062.95
872.7611	1277.7113	12895.45	11963
872.9055	1279.6067	12827.95	11899.85
873.0499	1281.5014	12768.7	11832.8
873.1943	1283.3953	12849.9	11913.5
873.3386	1285.2885	12934.3	12005.2
873.483	1287.181	13046.35	12115.55
873.6274	1289.0727	13200.35	12272.35
873.7717	1290.9637	13305	12375.85
873.9161	1292.854	13460.15	12525.9
874.0604	1294.7435	13544.95	12613.6
874.2047	1296.6323	13683.35	12751.85
874.349	1298.5204	13840.95	12907.3
874.4933	1300.4077	13996.55	13062.9
874.6376	1302.2943	14050.85	13120.9
874.7819	1304.1802	14033.15	13103.85
874.9262	1306.0653	13852.2	12920.75
875.0705	1307.9497	13595.9	12665.75
875.2147	1309.8333	13370.8	12443.1
875.359	1311.7162	13279.25	12346.8
875.5032	1313.5984	13243.8	12313.2
875.6475	1315.4798	13235.15	12300.85
875.7917	1317.3605	13289.25	12353.2
875.9359	1319.2405	13319.2	12386.75
876.0801	1321.1197	13252.85	12319.35
876.2243	1322.9982	13074.6	12137.15
876.3685	1324.876	12986.5	12056.9
876.5127	1326.753	12844.05	11913
876.6569	1328.6293	12801.95	11869
876.801	1330.5048	12779.9	11847.15
876.9452	1332.3796	12690.95	11762.15
877.0893	1334.2537	12682.8	11726.75
877.2335	1336.127	12587	11656.65
877.3776	1337.9996	12564.2	11632.8
877.5217	1339.8714	12535.95	11604.5
877.6658	1341.7426	12554.15	11578.25
877.8099	1343.6129	12515.5	11580.8
877.954	1345.4826	12492.7	11558.1
878.0981	1347.3515	12469.5	11534.25
878.2422	1349.2196	12420.45	11484.6
878.3862	1351.087	12455.35	11519.25
878.5303	1352.9537	12482.5	11553.3
878.6743	1354.8197	12615.8	11679.25
878.8184	1356.6849	12756.55	11819.5
878.9624	1358.5493	12823.8	11893.05
879.1064	1360.4131	12906.9	11975.9
879.2504	1362.276	12913.7	11983.05
879.3944	1364.1383	12810.15	11878.4
879.5384	1365.9998	12571.1	11635.05
879.6823	1367.8606	12273.15	11339.1
879.8263	1369.7206	11978.25	11045.75
879.9702	1371.5799	11707.35	10773.9
880.1142	1373.4384	11508.65	10579.5
880.2581	1375.2962	11382.05	10448.5
880.402	1377.1533	11074.4	10146.25
880.5459	1379.0096	10771.1	9843.35
880.6898	1380.8652	10502.9	9580.15
880.8337	1382.7201	10223.3	9295.4
880.9776	1384.5742	9964.85	9034.9
881.1215	1386.4275	9809.1	8874.65
881.2653	1388.2802	9668.8	8738.45
881.4092	1390.132	9574.95	8643.85
881.553	1391.9832	9515.45	8584.15
881.6968	1393.8336	9436.1	8503.6
881.8406	1395.6832	9388.75	8455.5
881.9844	1397.5322	9334.55	8403.75
882.1282	1399.3803	9314.75	8377.4
882.272	1401.2278	9271.85	8342.35
882.4158	1403.0745	9269.15	8341.3
882.5595	1404.9204	9260.75	8330.85
882.7033	1406.7656	9303.45	8374.05
882.847	1408.6101	9324	8393.5
882.9908	1410.4538	9336.3	8401.9
883.1345	1412.2968	9375.3	8442.35
883.2782	1414.139	9414.9	8486.8
883.4219	1415.9805	9505.75	8579.65
883.5656	1417.8213	9576.35	8636.8
883.7092	1419.6613	9709.8	8783.15
883.8529	1421.5006	9844.35	8914.6
883.9965	1423.3391	10083.9	9153.9
884.1402	1425.1769	10391.25	9457.9
884.2838	1427.0139	10833.3	9902.7
884.4274	1428.8502	11434.05	10504
884.571	1430.6858	11959.15	11030.3
884.7146	1432.5206	12374.45	11446.4
884.8582	1434.3547	12591.2	11660.6
885.0018	1436.188	12606.55	11679.65
885.1453	1438.0206	12541.05	11611.65
885.2889	1439.8524	12380.75	11451.75
885.4324	1441.6835	12292.8	11364.55
885.5759	1443.5139	12145.35	11212.45
885.7194	1445.3435	12110.95	11182.7
885.8629	1447.1724	12067.55	11143.05
886.0064	1449.0005	11992.5	11065.6
886.1499	1450.8279	11890.4	10959.65
886.2933	1452.6545	11878.4	10950.9
886.4368	1454.4804	11890.75	10965.4
886.5802	1456.3056	11869.85	10940.8
886.7237	1458.13	11782.95	10859
886.8671	1459.9536	11589.2	10661.1
887.0105	1461.7766	11253.05	10328.1
887.1539	1463.5987	10886.75	9957.25
887.2972	1465.4202	10521	9591.85
887.4406	1467.2409	10155.95	9229.6
887.584	1469.0608	9893.9	8968.2
887.7273	1470.88	9612.05	8682.7
887.8706	1472.6984	9384.75	8458.75
888.0139	1474.5161	9200.2	8270.15
888.1572	1476.3331	9025.25	8098.55
888.3005	1478.1493	8920.1	7991.5
888.4438	1479.9648	8835.7	7908.95
888.5871	1481.7795	8732.05	7806.75
888.7303	1483.5935	8664.45	7737.4
888.8736	1485.4067	8596.6	7669.25
889.0168	1487.2192	8544.7	7617.9
889.16	1489.031	8518.15	7591.55
889.3032	1490.842	8483.05	7557.95
889.4464	1492.6522	8443.95	7519.2
889.5896	1494.4618	8400.4	7475.8
889.7327	1496.2705	8382	7454.95
889.8759	1498.0785	8333.7	7407.15
890.019	1499.8858	8288.7	7361.5
890.1622	1501.6924	8257.6	7332.45
890.3053	1503.4981	8225.5	7296.45
890.4484	1505.3032	8199.85	7273.55
890.5914	1507.1075	8180.35	7253
890.7345	1508.911	8125.3	7198.6
890.8776	1510.7138	8095.45	7167.65
891.0206	1512.5159	8038.35	7110.6
891.1637	1514.3172	8000.6	7074.9
891.3067	1516.1178	7954	7032.05
891.4497	1517.9176	7930.05	7002.55
891.5927	1519.7166	7906.75	6983.95
891.7357	1521.515	7871.5	6941.25
891.8786	1523.3126	7836.1	6907.6
892.0216	1525.1094	7800.55	6875.45
892.1645	1526.9055	7761.35	6839.2
892.3074	1528.7008	7735.45	6814.6
892.4503	1530.4954	7708.8	6788.15
892.5932	1532.2893	7695.1	6775.75
892.7361	1534.0824	7682.65	6757.8
892.879	1535.8747	7674.75	6755
893.0218	1537.6663	7627.1	6709.95
893.1647	1539.4572	7599.5	6676.65
893.3075	1541.2473	7612.5	6694.3
893.4503	1543.0367	7619.95	6703.5
893.5931	1544.8253	7613.2	6688.45
893.7359	1546.6132	7612.5	6688.5
893.8787	1548.4003	7605.6	6673.8
894.0214	1550.1867	7640.25	6713.15
894.1642	1551.9723	7680.4	6757.5
894.3069	1553.7572	7732.45	6812.75
894.4496	1555.5414	7785.75	6867.65
894.5923	1557.3247	7850.55	6938.1
894.735	1559.1074	7919.95	7005.8
894.8777	1560.8893	8016.7	7100.4
895.0204	1562.6705	8095.4	7180.2
895.163	1564.4509	8186.85	7273
895.3056	1566.2305	8237.3	7327.9
895.4482	1568.0094	8311.4	7401
895.5908	1569.7876	8342.4	7430.9
895.7334	1571.565	8350.5	7438
895.876	1573.3417	8338.85	7427.15
896.0186	1575.1176	8312.9	7400.4
896.1611	1576.8928	8273.6	7364.2
896.3036	1578.6672	8233.2	7325.95
896.4461	1580.4409	8139.2	7235.7
896.5886	1582.2138	8065.6	7157
896.7311	1583.986	7978.8	7070.2
896.8736	1585.7575	7955.65	7044.4
897.0161	1587.5282	7907.7	6998.6
897.1585	1589.2981	7871.8	6965.05
897.3009	1591.0673	7886.95	6981.35
897.4433	1592.8358	7906.95	6999.45
897.5857	1594.6035	7961.85	7051.2
897.7281	1596.3704	7967.65	7054.75
897.8705	1598.1366	8031.5	7123.25
898.0128	1599.9021	8094.95	7188
898.1551	1601.6668	8152.05	7242.3
898.2975	1603.4308	8235.9	7324.9
898.4398	1605.194	8370.5	7457.05
898.5821	1606.9564	8470.05	7566.6
898.7243	1608.7182	8653.05	7750.85
898.8666	1610.4791	8816.15	7918
899.0088	1612.2394	9013.2	8117.15
899.1511	1613.9988	9208.2	8309.9
899.2933	1615.7576	9444.55	8543.2
899.4355	1617.5156	9645.4	8731.9
899.5776	1619.2728	9816.55	8905.1
899.7198	1621.0293	9908.7	9001.65
899.862	1622.785	9866.8	8961.2
900.0041	1624.54	9734.75	8831.6
900.1462	1626.2942	9548.75	8648.9
900.2883	1628.0477	9264.75	8360.25
900.4304	1629.8005	9016	8110.7
900.5725	1631.5525	8794.1	7890.95
900.7145	1633.3037	8635.35	7734.35
900.8566	1635.0542	8497.6	7598.5
900.9986	1636.804	8390.2	7488.9
901.1406	1638.553	8367.95	7404.3
901.2826	1640.3013	8270.95	7370.65
901.4245	1642.0488	8262.85	7359.6
901.5665	1643.7955	8289.35	7393.1
901.7085	1645.5416	8360.35	7460.8
901.8504	1647.2868	8436.95	7535.9
901.9923	1649.0313	8546.65	7643.35
902.1342	1650.7751	8693.25	7787.2
902.2761	1652.5181	8845.35	7946.85
902.4179	1654.2604	9036.7	8139.75
902.5598	1656.0019	9285.8	8388.4
902.7016	1657.7427	9565	8662.4
902.8434	1659.4828	9834.25	8930.85
902.9852	1661.222	9990.7	9084.6
903.127	1662.9606	9991.95	9087.2
903.2687	1664.6984	9808.5	8902.35
903.4105	1666.4354	9395.45	8488.15
903.5522	1668.1717	8874.8	7970.2
903.6939	1669.9072	8363.2	7458.95
903.8356	1671.642	7915.3	7007.6
903.9773	1673.3761	7566.4	6661.3
904.119	1675.1094	7286.5	6385.25
904.2606	1676.8419	7039.35	6136.9
904.4022	1678.5737	6844.2	5942
904.5439	1680.3048	6711.95	5808.3
904.6855	1682.0351	6616.05	5713.35
904.827	1683.7646	6519.35	5614.5
904.9686	1685.4934	6444.85	5544.45
905.1101	1687.2215	6364.15	5461.35
905.2517	1688.9488	6294.2	5394.3
905.3932	1690.6754	6245.55	5344.75
905.5347	1692.4012	6207.1	5304.05
905.6761	1694.1263	6189.6	5286
905.8176	1695.8506	6157.8	5255.7
905.9591	1697.5742	6118.8	5221.75
906.1005	1699.297	6078.25	5182.1
906.2419	1701.0191	6025.5	5129.3
906.3833	1702.7404	6006.65	5111.15
906.5246	1704.461	5951.05	5051.05
906.666	1706.1808	5938.05	5037.85
906.8073	1707.8999	5905.85	5006.1
906.9487	1709.6182	5880.95	4986.15
907.09	1711.3358	5853.75	4959.6
907.2313	1713.0527	5806.15	4913.95
907.3725	1714.7688	5796.6	4894.75
907.5138	1716.4841	5773.8	4874.8
907.655	1718.1987	5782.75	4877.5
907.7962	1719.9126	5746.45	4849.05
907.9374	1721.6257	5717	4819.15
908.0786	1723.338	5705.6	4812.2
908.2198	1725.0496	5665.85	4772.7
908.3609	1726.7605	5657.75	4759.65
908.502	1728.4706	5636.45	4741.8
908.6431	1730.18	5612.9	4717.65
908.7842	1731.8886	5584.9	4691.85
908.9253	1733.5964	5598.35	4685.25
909.0664	1735.3036	5577.1	4677.8
909.2074	1737.0099	5546.35	4650
909.3484	1738.7156	5535.85	4641.65
909.4894	1740.4204	5502.8	4605.35
909.6304	1742.1246	5483.65	4587.45
909.7714	1743.8279	5448.75	4555.25
909.9123	1745.5306	5465.1	4572.25
910.0532	1747.2325	5413.8	4523.25
910.1941	1748.9336	5408.15	4512.15
910.335	1750.634	5380.95	4484.75
910.4759	1752.3336	5379.8	4485.5
910.6168	1754.0325	5357.45	4466.4
910.7576	1755.7307	5328.85	4436.8
910.8984	1757.4281	5346.2	4455.3
911.0392	1759.1247	5330.4	4426.55
911.18	1760.8206	5317.45	4415.2
911.3208	1762.5158	5315	4414.65
911.4615	1764.2102	5266.95	4370.95
911.6022	1765.9039	5249.8	4356.5
911.7429	1767.5968	5254.05	4362.5
911.8836	1769.289	5236.1	4343.5
912.0243	1770.9804	5221.5	4327
912.1649	1772.6711	5229.5	4332.65
912.3056	1774.361	5194.15	4297.05
912.4462	1776.0502	5195.9	4298.25
912.5868	1777.7386	5191.15	4292.45
912.7274	1779.4263	5166.5	4274
912.8679	1781.1132	5160.85	4269.45
913.0084	1782.7994	5143.6	4253.3
913.149	1784.4849	5147.25	4254.6
913.2895	1786.1696	5131.15	4234.05
913.4299	1787.8535	5116.05	4225.45
913.5704	1789.5367	5100.6	4209.7
913.7108	1791.2192	5098.75	4209.35
913.8513	1792.9009	5106.5	4188.35
913.9917	1794.5818	5074.75	4178.85
914.132	1796.2621	5054.25	4162.5
914.2724	1797.9415	5033.9	4139.65
914.4128	1799.6202	5018.8	4125.8
914.5531	1801.2982	5019.55	4126.7
914.6934	1802.9755	5010.15	4113.9
914.8337	1804.6519	4995	4103.95
914.9739	1806.3277	4972.25	4079
915.1142	1808.0027	4974.35	4085
915.2544	1809.6769	4966.05	4076.7
915.3946	1811.3504	4949.75	4060.6
915.5348	1813.0231	4938.45	4050.1
915.675	1814.6951	4933.75	4041.5
915.8151	1816.3664	4916.55	4023.65
915.9553	1818.0369	4913.45	4021.95
916.0954	1819.7067	4902.45	4010.7
916.2355	1821.3757	4897	4001.45
916.3755	1823.044	4895	4002.1
916.5156	1824.7115	4895.7	3998.75
916.6556	1826.3783	4855.05	3961.1
916.7956	1828.0443	4853.5	3960.05
916.9356	1829.7096	4849.35	3953.6
917.0756	1831.3741	4838.8	3942.5
917.2155	1833.0379	4824.85	3931.75
917.3555	1834.701	4820.2	3930.1
917.4954	1836.3633	4790.4	3900.55
917.6353	1838.0248	4785.1	3894.95
917.7751	1839.6856	4784	3892.75
917.915	1841.3457	4753.4	3859.25
918.0548	1843.005	4761.05	3866.9
918.1946	1844.6636	4758.9	3865.85
918.3344	1846.3214	4751.4	3859.45
918.4742	1847.9785	4742.75	3851.3
918.6139	1849.6349	4742	3846.95
918.7537	1851.2904	4752.6	3849.8
918.8934	1852.9453	4725.65	3830.15
919.0331	1854.5994	4705.65	3809.45
919.1727	1856.2528	4717.75	3822.2
919.3124	1857.9054	4701.1	3807.75
919.452	1859.5572	4702.5	3811.95
919.5916	1861.2083	4678.9	3789.3
919.7312	1862.8587	4679.55	3787.75
919.8708	1864.5084	4665.5	3770.25
920.0103	1866.1572	4643.1	3747.95
920.1498	1867.8054	4637.3	3740.95
920.2893	1869.4528	4658.45	3763.3
920.4288	1871.0994	4613.65	3718.05
920.5683	1872.7453	4609	3717
920.7077	1874.3905	4600.6	3690.3
920.8471	1876.0349	4591.45	3699.15
920.9865	1877.6786	4594.1	3696.75
921.1259	1879.3215	4594.7	3701.55
921.2653	1880.9637	4567	3673.95
921.4046	1882.6051	4554.05	3663.05
921.5439	1884.2458	4542.15	3648.55
921.6832	1885.8858	4512.95	3622.6
921.8225	1887.525	4532.3	3640.8
921.9617	1889.1634	4520.3	3626.7
922.101	1890.8011	4502	3608
922.2402	1892.4381	4489.25	3595.45
922.3794	1894.0743	4481.45	3587.8
922.5185	1895.7098	4458.2	3564.3
922.6577	1897.3446	4477.25	3583.55
922.7968	1898.9786	4461.45	3563.6
922.9359	1900.6118	4451.75	3559.75
923.075	1902.2443	4418.6	3527.2
923.214	1903.8761	4425.15	3534.9
923.3531	1905.5071	4398.9	3506.25
923.4921	1907.1374	4400.35	3506.5
923.6311	1908.7669	4383.35	3491.85
923.77	1910.3957	4379.35	3488.8
923.909	1912.0237	4359.65	3466.55
924.0479	1913.651	4345.1	3453.1
924.1868	1915.2776	4335.95	3445.5
924.3257	1916.9034	4315.2	3425.6
924.4646	1918.5285	4315	3426.25
924.6034	1920.1528	4299.1	3407.45
924.7422	1921.7764	4296.75	3407.55
924.881	1923.3992	4282.1	3390.55
925.0198	1925.0213	4260.8	3371.35
925.1586	1926.6427	4238.85	3349.9
925.2973	1928.2633	4384.8	3280.35
925.436	1929.8832	4250.2	3355.7
925.5747	1931.5023	4216.8	3324.6
925.7134	1933.1207	4196.3	3305.8
925.852	1934.7383	4179.2	3285.7
925.9906	1936.3552	4161.85	3271.55
926.1292	1937.9714	4166.15	3273.85
926.2678	1939.5868	4167.4	3272.95
926.4064	1941.2015	4146.35	3254.8
926.5449	1942.8154	4133.15	3238.95
926.6834	1944.4286	4121.75	3229.95
926.8219	1946.041	4114.45	3201.4
926.9604	1947.6528	4078.65	3180.95
927.0988	1949.2637	4078.3	3188.25
927.2372	1950.8739	4058.1	3166.55
927.3756	1952.4834	4046	3153.7
927.514	1954.0921	4066.65	3175.9
927.6523	1955.7001	4057.65	3163
927.7907	1957.3074	4032.1	3145.1
927.929	1958.9139	4023.15	3135.15
928.0673	1960.5197	4008.5	3118.6
928.2055	1962.1247	3990.2	3102.45
928.3438	1963.729	3982.75	3095.45
928.482	1965.3325	3978.8	3086.55
928.6202	1966.9353	3959.95	3075.95
928.7584	1968.5374	3930.45	3041.9
928.8965	1970.1387	3936.05	3048.3
929.0346	1971.7393	3918.4	3029.95
929.1727	1973.3392	3908.25	3020.95
929.3108	1974.9383	3882.05	2997.5
929.4489	1976.5366	3883.6	2997.95
929.5869	1978.1342	3876.4	2991.05
929.7249	1979.7311	3875.55	2987.25
929.8629	1981.3273	3853.2	2968.5
930.0009	1982.9227	3857.35	2970.35
930.1388	1984.5173	3831.65	2945.25
930.2767	1986.1112	3845.55	2959.15
930.4146	1987.7044	3822.35	2935.7
930.5525	1989.2968	3816.65	2930.15
930.6904	1990.8885	3816.6	2928.6
930.8282	1992.4795	3807.85	2924.35
930.966	1994.0697	3774.7	2890.1
931.1038	1995.6592	3783.2	2896.5
931.2415	1997.2479	3761.8	2875.65
931.3793	1998.8359	3749.55	2865.95
931.517	2000.4232	3739.7	2858.75
931.6547	2002.0097	3724.2	2843.55
931.7923	2003.5955	3707	2825.35
931.93	2005.1805	3718.2	2833.6
932.0676	2006.7648	3716.5	2834.55
932.2052	2008.3484	3704	2819.15
932.3427	2009.9312	3704.9	2821.75
932.4803	2011.5133	3700.9	2821.5
932.6178	2013.0946	3676.95	2795.75
932.7553	2014.6752	3671.65	2790.55
932.8928	2016.2551	3664.9	2781.5
933.0302	2017.8342	3655.95	2771.95
933.1676	2019.4126	3646.25	2765.45
933.305	2020.9902	3629.55	2750.85
933.4424	2022.5672	3609.3	2725.9
933.5798	2024.1433	3607.15	2719.8
933.7171	2025.7188	3615.85	2737.95
933.8544	2027.2935	3596.45	2714.8
933.9917	2028.8674	3594.25	2713.9
934.129	2030.4406	3594.35	2717.35
934.2662	2032.0131	3579.55	2702.85
934.4034	2033.5849	3557.9	2676.85
934.5406	2035.1559	3560.3	2683.2
934.6778	2036.7261	3547.3	2666.35
934.8149	2038.2957	3547.9	2666.1
934.952	2039.8645	3546.75	2659.9
935.0891	2041.4325	3546.85	2659.8
935.2262	2042.9998	3540.4	2655.7
935.3632	2044.5664	3511	2628.15
935.5002	2046.1323	3505.7	2626.75
935.6372	2047.6974	3512.4	2632.7
935.7742	2049.2617	3489.9	2608.85
935.9111	2050.8254	3517.95	2606.05
936.048	2052.3883	3485	2600.7
936.1849	2053.9504	3474.95	2590.8
936.3218	2055.5118	3459.05	2573.65
936.4586	2057.0725	3456.15	2570.25
936.5955	2058.6325	3449.15	2565.5
936.7323	2060.1917	3444.3	2564.1
936.869	2061.7502	3439.3	2555.75
937.0058	2063.3079	3425.3	2545.05
937.1425	2064.8649	3423.9	2538.6
937.2792	2066.4212	3410.15	2527.4
937.4159	2067.9767	3406.65	2526.2
937.5525	2069.5315	3390	2506.7
937.6891	2071.0856	3381.4	2499.7
937.8257	2072.6389	3374.15	2490.75
937.9623	2074.1915	3368	2488.7
938.0989	2075.7433	3348.65	2465.25
938.2354	2077.2945	3334.65	2453.8
938.3719	2078.8448	3342.7	2457.65
938.5084	2080.3945	3331.9	2446.1
938.6448	2081.9434	3329.85	2444.65
938.7812	2083.4916	3321.7	2435.85
938.9176	2085.039	3324.3	2433.65
939.054	2086.5857	3324	2431.7
939.1903	2088.1317	3308.7	2420.1
939.3267	2089.677	3298.35	2405.65
939.463	2091.2215	3283.4	2393.2
939.5992	2092.7652	3284.95	2391.8
939.7355	2094.3083	3290.7	2400.25
939.8717	2095.8506	3264.3	2377.75
940.0079	2097.3921	3268.8	2382.1
940.1441	2098.933	3251.8	2367.25
940.2802	2100.4731	3246.35	2359.15
940.4163	2102.0124	3264.95	2371.4
940.5524	2103.5511	3234.1	2346.65
940.6885	2105.089	3246.8	2358.25
940.8245	2106.6261	3235.65	2348.75
940.9606	2108.1626	3230.35	2346.65
941.0965	2109.6983	3251.55	2336.7
941.2325	2111.2332	3216.3	2327.55
941.3684	2112.7675	3213.4	2326.4
941.5044	2114.301	3209	2320.75
941.6403	2115.8337	3203.3	2315.15
941.7761	2117.3657	3194.05	2307.3
941.912	2118.897	3171.9	2285.55
942.0478	2120.4276	3172.25	2276.5
942.1835	2121.9575	3161.85	2272.85
942.3193	2123.4866	3171.45	2280.85
942.455	2125.0149	3149.35	2259.6
942.5907	2126.5426	3141.7	2257.15
942.7264	2128.0695	3142.85	2257
942.8621	2129.5956	3127.25	2248.05
942.9977	2131.1211	3137.3	2249.4
943.1333	2132.6458	3123.25	2237.9
943.2689	2134.1698	3123.35	2236
943.4044	2135.693	3126.5	2234.7
943.54	2137.2155	3118.95	2227
943.6755	2138.7373	3113.75	2227.8
943.8109	2140.2584	3101.3	2216.35
943.9464	2141.7787	3078.2	2192.15
944.0818	2143.2983	3080.85	2200.85
944.2172	2144.8171	3052.4	2171.75
944.3526	2146.3353	3055.2	2167
944.4879	2147.8527	3050.6	2168.65
944.6232	2149.3693	3057.5	2169.75
944.7585	2150.8853	3048.8	2160.15
944.8938	2152.4005	3037.85	2150.6
945.029	2153.9149	3039.95	2149.4
945.1642	2155.4287	3021.9	2133.65
945.2994	2156.9417	3018.4	2131.1
945.4346	2158.454	3018.75	2131.45
945.5697	2159.9655	3009.15	2126.35
945.7048	2161.4764	2999.4	2113.75
945.8399	2162.9865	3006.65	2123.25
945.9749	2164.4958	2984.4	2100.7
946.1099	2166.0045	2973.6	2085.7
946.2449	2167.5124	2980.45	2094.5
946.3799	2169.0195	2973.65	2084.6
946.5148	2170.526	2973.15	2085.55
946.6498	2172.0317	2959.2	2071.35
946.7846	2173.5367	2974.3	2087.25
946.9195	2175.0409	2944.6	2058.15
947.0543	2176.5445	2951.45	2064.35
947.1891	2178.0473	2941.3	2053.4
947.3239	2179.5494	2931.1	2041.1
947.4587	2181.0507	2919.6	2030.45
947.5934	2182.5513	2930.5	2042.9
947.7281	2184.0512	2911.4	2021.85
947.8628	2185.5504	2906.15	2018.95
947.9974	2187.0488	2892.85	2008.4
948.132	2188.5465	2889.45	2006.3
948.2666	2190.0435	2885.65	1997.5
948.4012	2191.5397	2868.75	1981.45
948.5357	2193.0353	2868.1	1978.1
948.6702	2194.5301	2858.8	1967.35
948.8047	2196.0241	2870.6	1978.85
948.9392	2197.5175	2864.35	1973.3
949.0736	2199.0101	2855.6	1960.55
949.208	2200.502	2839.75	1951.95
949.3424	2201.9931	2828.05	1942.9
949.4767	2203.4835	2820.15	1932
949.611	2204.9733	2802	1912.45
949.7453	2206.4622	2816.75	1932.1
949.8796	2207.9505	2807.65	1921.25
950.0138	2209.438	2792.85	1910.6
950.148	2210.9248	2790.65	1906.1
950.2822	2212.4109	2792.55	1906.2
950.4164	2213.8962	2790	1896.65
950.5505	2215.3809	2774.65	1879.35
950.6846	2216.8648	2772.45	1878.45
950.8186	2218.3479	2779.9	1881.55
950.9527	2219.8304	2760	1863
951.0867	2221.3121	2747.9	1854.7
951.2207	2222.7931	2746.45	1857.15
951.3546	2224.2733	2729.7	1839.15
951.4886	2225.7529	2726.95	1840.95
951.6225	2227.2317	2726.85	1836.05
951.7563	2228.7098	2716.15	1829.1
951.8902	2230.1872	2715.05	1830.7
952.024	2231.6638	2704.25	1817.95
952.1578	2233.1397	2699.9	1811.25
952.2916	2234.6149	2698.95	1815.25
952.4253	2236.0894	2689.2	1802.8
952.559	2237.5632	2698.55	1799.6
952.6927	2239.0362	2667.3	1780.8
952.8263	2240.5085	2662.65	1773.7
952.9599	2241.9801	2673	1784.45
953.0935	2243.4509	2652.75	1762.3
953.2271	2244.921	2659.35	1767.7
953.3606	2246.3904	2642.7	1748.8
953.4941	2247.8591	2632.3	1741.8
953.6276	2249.3271	2644.2	1756.1
953.7611	2250.7943	2620.85	1728.3
953.8945	2252.2608	2622.25	1733.1
954.0279	2253.7266	2617.8	1726.85
954.1612	2255.1917	2608.85	1719.35
954.2946	2256.656	2597	1708.45
954.4279	2258.1197	2596.85	1712.75
954.5612	2259.5826	2594.45	1703.95
954.6944	2261.0447	2600.95	1712.5
954.8276	2262.5062	2576.8	1685.9
954.9608	2263.9669	2574.55	1682.5
955.094	2265.4269	2587.1	1699.1
955.2271	2266.8862	2570.7	1683.15
955.3602	2268.3448	2565.4	1677.6
955.4933	2269.8026	2551.5	1664.45
955.6264	2271.2598	2549.3	1661.75
955.7594	2272.7162	2548.75	1660.85
955.8924	2274.1719	2546.25	1654.85
956.0253	2275.6268	2541.2	1652.8
956.1583	2277.0811	2540.05	1649.6
956.2912	2278.5346	2529.75	1642.75
956.4241	2279.9874	2540.7	1651.85
956.5569	2281.4395	2535.1	1652.35
956.6897	2282.8908	2525.2	1631.8
956.8225	2284.3414	2515.1	1624.8
956.9553	2285.7914	2517.85	1629.55
957.088	2287.2406	2521.25	1630.95
957.2207	2288.689	2497.3	1605.9
957.3534	2290.1368	2495.55	1600.4
957.486	2291.5838	2508.45	1612
957.6186	2293.0302	2489.2	1596.55
957.7512	2294.4758	2483.15	1591.15
957.8838	2295.9206	2493.95	1603.95
958.0163	2297.3648	2470.85	1585.45
958.1488	2298.8082	2479.35	1590.05
958.2813	2300.251	2466.9	1579.25
958.4137	2301.693	2472.3	1577.65
958.5461	2303.1343	2463.75	1572.75
958.6785	2304.5748	2458.25	1569.65
958.8108	2306.0147	2452.05	1565.85
958.9432	2307.4538	2449.5	1562.05
959.0754	2308.8922	2436.05	1552.9
959.2077	2310.3299	2431.65	1543.6
959.3399	2311.7669	2426.7	1541.55
959.4721	2313.2031	2428.15	1539.65
959.6043	2314.6387	2422.3	1533.6
959.7365	2316.0735	2410.7	1523.25
959.8686	2317.5076	2419	1531.45
960.0006	2318.941	2410	1518.85
960.1327	2320.3737	2397.35	1507.15
960.2647	2321.8056	2398.5	1500.65
960.3967	2323.2369	2403.55	1512.25
960.5287	2324.6674	2387.75	1497.1
960.6606	2326.0972	2390.85	1502.9
960.7925	2327.5263	2384.05	1495.05
960.9244	2328.9547	2373.85	1483.85
961.0562	2330.3823	2382	1490.4
961.1881	2331.8092	2377.3	1481.65
961.3198	2333.2355	2368.75	1476.1
961.4516	2334.661	2364.65	1474.25
961.5833	2336.0858	2355.4	1461.7
961.715	2337.5098	2355.35	1465.9
961.8467	2338.9332	2344.7	1454.8
961.9783	2340.3558	2343.05	1449.8
962.1099	2341.7778	2338.5	1451.95
962.2415	2343.199	2333.55	1444.85
962.373	2344.6195	2334.85	1446.65
962.5045	2346.0393	2330.7	1442.85
962.636	2347.4583	2326.25	1439
962.7675	2348.8767	2321	1430.15
962.8989	2350.2943	2318.35	1425.9
963.0303	2351.7113	2326.15	1433.95
963.1617	2353.1275	2319.6	1427.15
963.293	2354.543	2317.8	1417.75
963.4243	2355.9578	2315.05	1423.9
963.5556	2357.3718	2298	1410.9
963.6868	2358.7852	2304.05	1413.7
963.818	2360.1978	2280.85	1391.05
963.9492	2361.6098	2288.65	1401.75
964.0803	2363.021	2281.8	1390.05
964.2114	2364.4315	2278.8	1391.5
964.3425	2365.8413	2270.4	1380.55
964.4736	2367.2504	2264.4	1378.7
964.6046	2368.6587	2247.3	1360.15
964.7356	2370.0664	2251.2	1363.55
964.8666	2371.4733	2233.45	1347.65
964.9975	2372.8795	2254	1368.5
965.1284	2374.285	2247.7	1361.05
965.2593	2375.6899	2230.9	1342.65
965.3901	2377.0939	2224.35	1340.65
965.5209	2378.4973	2226.6	1343.7
965.6517	2379.9	2223.15	1335.9
965.7825	2381.3019	2219.1	1334.8
965.9132	2382.7032	2207.05	1322.9
966.0439	2384.1037	2202.05	1317.05
966.1745	2385.5035	2201.55	1315.5
966.3051	2386.9027	2197.9	1314.6
966.4357	2388.3011	2185.5	1297.7
966.5663	2389.6987	2193.4	1308.2
966.6968	2391.0957	2180.8	1298.05
966.8273	2392.492	2183.65	1300
966.9578	2393.8876	2169.25	1284.3
967.0882	2395.2824	2164.35	1280.2
967.2186	2396.6765	2153.2	1271.15
967.349	2398.07	2156.45	1270.7
967.4793	2399.4627	2148.5	1260.9
967.6097	2400.8547	2144	1256.2
967.7399	2402.246	2145	1253.85
967.8702	2403.6366	2135.35	1251.6
968.0004	2405.0265	2136.95	1252.85
968.1306	2406.4156	2141.8	1251.4
968.2607	2407.8041	2123.15	1233.75
968.3909	2409.1918	2122.8	1238.1
968.521	2410.5789	2122.65	1236.05
968.651	2411.9652	2115.75	1226.5
968.781	2413.3508	2111.1	1227.05
968.911	2414.7358	2106.5	1218.25
969.041	2416.12	2105.9	1220
969.1709	2417.5035	2094.65	1208.7
969.3008	2418.8863	2091.6	1205.4
969.4307	2420.2684	2085	1201.3
969.5606	2421.6497	2081.8	1193.8
969.6904	2423.0304	2082.25	1196.55
969.8201	2424.4104	2083.2	1197.25
969.9499	2425.7896	2082.75	1191.35
970.0796	2427.1682	2077.6	1191.15
970.2093	2428.546	2071.85	1186.5
970.3389	2429.9232	2073.5	1185.75
970.4685	2431.2996	2071.45	1185.7
970.5981	2432.6753	2060.55	1176
970.7277	2434.0503	2054.3	1166.8
970.8572	2435.4246	2040.95	1156.9
970.9867	2436.7982	2043.4	1154.5
971.1161	2438.1711	2043.8	1159.05
971.2456	2439.5433	2051.65	1163.3
971.375	2440.9148	2032.95	1141.7
971.5043	2442.2856	2033.35	1148.8
971.6336	2443.6557	2031.2	1142.8
971.7629	2445.025	2030.95	1144.7
971.8922	2446.3937	2021.45	1132.6
972.0214	2447.7617	2018.8	1133.2
972.1506	2449.1289	2012.5	1127.55
972.2798	2450.4955	2016.25	1126.55
972.4089	2451.8613	2008.45	1120.75
972.538	2453.2265	2008.95	1123.85
972.6671	2454.5909	2000.95	1112.45
972.7961	2455.9546	2004.65	1117.75
972.9251	2457.3177	1999.35	1112.3
973.0541	2458.68	1991.6	1105.8
973.1831	2460.0416	1996.35	1110.15
973.312	2461.4025	1982.85	1097.15
973.4408	2462.7627	1989.4	1093.75
973.5697	2464.1222	1985.15	1100.85
973.6985	2465.4811	1981.6	1096.7
973.8273	2466.8392	1981.9	1096.95
973.956	2468.1966	1984.7	1098.1
974.0847	2469.5533	1976.95	1088.85
974.2134	2470.9093	1980.9	1095.1
974.3421	2472.2645	1971.9	1083.45
974.4707	2473.6191	1970.7	1085.5
974.5993	2474.973	1960.45	1071.1
974.7278	2476.3262	1967.55	1079.65
974.8563	2477.6787	1953.05	1068.6
974.9848	2479.0305	1956.3	1073.4
975.1132	2480.3816	1958.15	1068.35
975.2417	2481.7319	1942.2	1057.55
975.37	2483.0816	1943.85	1057
975.4984	2484.4306	1931.85	1044.35
975.6267	2485.7789	1935.8	1051.5
975.755	2487.1264	1929.45	1041.4
975.8833	2488.4733	1922.9	1038.95
976.0115	2489.8195	1934.5	1031.4
976.1397	2491.165	1929.7	1040.15
976.2678	2492.5097	1911.85	1025.2
976.3959	2493.8538	1899.5	1015.4
976.524	2495.1972	1906.1	1021.95
976.6521	2496.5398	1900.05	1012
976.7801	2497.8818	1898.8	1008.7
976.9081	2499.2231	1896.65	1008.85
977.036	2500.5637	1888.85	997.85
977.164	2501.9035	1886.6	998.75
977.2918	2503.2427	1893.35	1002.9
977.4197	2504.5812	1879.4	992.75
977.5475	2505.919	1878.6	988.9
977.6753	2507.256	1881.45	994.65
977.8031	2508.5924	1875.5	989.6
977.9308	2509.9281	1872.2	980.25
978.0585	2511.2631	1874.25	987.85
978.1861	2512.5974	1858.95	973.25
978.3137	2513.9309	1868.5	980.5
978.4413	2515.2638	1882.85	965.5
978.5689	2516.596	1862.45	976.75
978.6964	2517.9275	1847.65	958
978.8239	2519.2583	1843.3	956.55
978.9513	2520.5884	1846.7	958.2
979.0788	2521.9178	1852.6	966.5
979.2062	2523.2465	1831.2	945
979.3335	2524.5745	1838.65	952
979.4608	2525.9018	1842.1	953.25
979.5881	2527.2284	1831.15	946.05
979.7154	2528.5543	1831	945.9
979.8426	2529.8796	1821.05	933.05
979.9698	2531.2041	1828.45	941.25
980.0969	2532.5279	1830.65	945.05
980.224	2533.851	1823.9	937.55
980.3511	2535.1735	1827.2	939.5
980.4781	2536.4952	1811.35	923
980.6052	2537.8163	1819.45	931.9
980.7321	2539.1366	1806.35	919.95
980.8591	2540.4562	1806.4	916.8
980.986	2541.7752	1815.3	927.1
981.1129	2543.0935	1806.85	918.75
981.2397	2544.411	1808.35	918.45
981.3665	2545.7279	1807.3	920.2
981.4933	2547.0441	1806	918.9
981.62	2548.3596	1804	911.65
981.7467	2549.6744	1797.3	910.75
981.8734	2550.9885	1803.25	914.75
982.0001	2552.3019	1795.55	909.8
982.1267	2553.6146	1788.9	899.1
982.2532	2554.9266	1779.15	891.05
982.3798	2556.2379	1776.05	887.65
982.5063	2557.5485	1778.4	892.95
982.6327	2558.8585	1784.15	889.85
982.7592	2560.1677	1784.4	891.4
982.8856	2561.4762	1782	893.6
983.0119	2562.7841	1771.7	881.65
983.1383	2564.0913	1768.2	880.75
983.2646	2565.3977	1772.75	887.35
983.3908	2566.7035	1760.6	871.95
983.517	2568.0086	1773.35	883.3
983.6432	2569.313	1763.05	874.55
983.7694	2570.6167	1774.65	883.1
983.8955	2571.9197	1759.8	871.9
984.0216	2573.222	1775.15	883.95
984.1476	2574.5236	1756.25	866.6
984.2737	2575.8246	1761.35	871.65
984.3996	2577.1248	1760.65	867.9
984.5256	2578.4244	1753.3	865.7
984.6515	2579.7232	1758.05	871.65
984.7774	2581.0214	1789.65	874.05
984.9032	2582.3189	1761	872.45
985.029	2583.6157	1761.75	872.15
985.1548	2584.9118	1755.75	868.45
985.2806	2586.2072	1752.55	865.05
985.4063	2587.5019	1751.95	863.75
985.5319	2588.7959	1751	862.2
985.6576	2590.0893	1749.6	859.55
985.7832	2591.3819	1753.25	866.65
985.9087	2592.6739	1747	860.5
986.0343	2593.9652	1755.45	867.7
986.1597	2595.2557	1745.15	855.75
986.2852	2596.5456	1752.3	864.15
986.4106	2597.8348	1750.9	863.3
986.536	2599.1234	1750.35	864.1
986.6614	2600.4112	1736.45	847.15
986.7867	2601.6983	1736.15	843.35
986.912	2602.9848	1741	853.1
987.0372	2604.2705	1741.65	848.45
987.1624	2605.5556	1736.4	846.45
987.2876	2606.84	1731.75	844.65
987.4128	2608.1237	1729.95	841.85
987.5379	2609.4067	1719.05	828.95
987.6629	2610.689	1729.75	835.05
987.788	2611.9707	1725.2	833.35
987.913	2613.2516	1725.8	835.95
988.0379	2614.5319	1703.5	816.45
988.1629	2615.8115	1713.95	827.5
988.2878	2617.0903	1707.1	817.85
988.4126	2618.3685	1710.8	822.35
988.5375	2619.6461	1705.2	816.9
988.6622	2620.9229	1707.9	820.3
988.787	2622.199	1713.1	825.6
988.9117	2623.4745	1697.75	807.45
989.0364	2624.7493	1699.05	810.7
989.161	2626.0234	1695.55	809.25
989.2857	2627.2968	1689.95	802.35
989.4102	2628.5695	1699.7	811.8
989.5348	2629.8415	1687.8	801.9
989.6593	2631.1128	1696	807.85
989.7837	2632.3835	1682.4	795.5
989.9082	2633.6535	1682.85	795.7
990.0326	2634.9228	1679.1	794.85
990.1569	2636.1914	1675.25	790.55
990.2812	2637.4593	1685.2	796.2
990.4055	2638.7265	1681.8	791.7
990.5298	2639.9931	1682.65	796
990.654	2641.259	1671	782.7
990.7782	2642.5242	1669.3	782.85
990.9023	2643.7887	1663.7	774.45
991.0264	2645.0525	1668.8	781.65
991.1505	2646.3156	1657.75	769.95
991.2745	2647.5781	1658.2	774.15
991.3985	2648.8398	1653.3	766.25
991.5225	2650.1009	1662.1	769
991.6464	2651.3613	1649.15	762.85
991.7703	2652.6211	1652	765.95
991.8942	2653.8801	1644.25	760.2
992.018	2655.1385	1654.35	766.6
992.1418	2656.3961	1643.2	756.5
992.2655	2657.6531	1654.45	768
992.3892	2658.9094	1646.9	760.3
992.5129	2660.1651	1646.8	761.25
992.6366	2661.42	1641.95	759.5
992.7602	2662.6743	1645.8	757.3
992.8837	2663.9279	1649.8	764.85
993.0073	2665.1808	1643.75	757.35
993.1307	2666.433	1650.75	761.65
993.2542	2667.6846	1643	758.2
993.3776	2668.9354	1659.9	771.6
993.501	2670.1856	1650.2	762.45
993.6244	2671.4351	1650.45	765.25
993.7477	2672.6839	1655.55	768.75
993.8709	2673.9321	1653.8	766.35
993.9942	2675.1795	1652.65	765.55
994.1174	2676.4263	1644.7	754.95
994.2405	2677.6724	1659.65	773.65
994.3637	2678.9179	1656.35	770.8
994.4868	2680.1626	1652.85	766.3
994.6098	2681.4067	1661.25	774.95
994.7328	2682.6501	1648.45	761.3
994.8558	2683.8928	1657.1	772.7
994.9788	2685.1348	1645.9	761.05
995.1017	2686.3761	1632.35	748.3
995.2245	2687.6168	1634.65	749.85
995.3474	2688.8568	1628.95	740.2
995.4702	2690.0961	1631	748.3
995.5929	2691.3348	1622.1	735.65
995.7156	2692.5727	1623.75	735.5
995.8383	2693.81	1612.8	726.9
995.961	2695.0466	1609.9	723.7
996.0836	2696.2826	1612.2	724.85
996.2062	2697.5178	1620.7	732
996.3287	2698.7524	1609.6	724.15
996.4512	2699.9863	1615.85	724.8
996.5737	2701.2195	1615.1	727.4
996.6961	2702.452	1619.8	733
996.8185	2703.6839	1622.15	733.5
996.9408	2704.9151	1619.5	734.75
997.0631	2706.1456	1626	741.1
997.1854	2707.3755	1632.55	747.65
997.3077	2708.6046	1645.55	757.25
997.4299	2709.8331	1645.5	758.9
997.552	2711.0609	1656.5	769.25
997.6742	2712.2881	1654.9	769.2
997.7963	2713.5145	1663.2	774.5
997.9183	2714.7403	1665.1	779.25
998.0403	2715.9654	1679.6	791.85
998.1623	2717.1899	1709.25	807.95
998.2842	2718.4136	1702.5	818.6
998.4062	2719.6367	1713.35	828.85
998.528	2720.8591	1721.35	827.8
998.6498	2722.0809	1736.15	852.35
998.7716	2723.3019	1738.1	846.2
998.8934	2724.5223	1754.4	868.1
999.0151	2725.7421	1756.85	868.75
999.1368	2726.9611	1760.45	873.4
999.2584	2728.1795	1757	867.8
999.38	2729.3972	1746.45	859.5
999.5016	2730.6142	1742.65	842.5
999.6231	2731.8306	1718.35	831.3
999.7446	2733.0462	1702.45	815.6
999.8661	2734.2612	1685.15	794.7
999.9875	2735.4756	1676.8	789.4
1000.1089	2736.6892	1654.3	768.7
1000.2302	2737.9022	1631.3	746.65
1000.3515	2739.1145	1624.6	738.35
1000.4728	2740.3262	1613.35	721.05
1000.594	2741.5372	1595.9	710.9
1000.7152	2742.7475	1586.05	697.45
1000.8363	2743.9571	1579.85	693.1
1000.9575	2745.1661	1575.3	685
1001.0785	2746.3744	1563.8	677.6
1001.1996	2747.582	1551	665.2
1001.3206	2748.7889	1542.55	654.85
1001.4415	2749.9952	1532.45	646.5
1001.5625	2751.2008	1528.9	643.35
1001.6833	2752.4057	1527.25	639.8
1001.8042	2753.61	1525.15	638.75
1001.925	2754.8136	1534.1	648.45
1002.0458	2756.0165	1519.45	633.55
1002.1665	2757.2188	1507.15	620.65
1002.2872	2758.4204	1509.05	625.3
1002.4078	2759.6213	1514.4	628.4
1002.5285	2760.8215	1513.7	625.65
1002.649	2762.0211	1512	624.4
1002.7696	2763.22	1511.25	625.2
1002.8901	2764.4182	1505.7	618.75
1003.0106	2765.6158	1500.15	613.3
1003.131	2766.8127	1493.4	608.35
1003.2514	2768.009	1497.4	610.3
1003.3717	2769.2045	1489.35	603.9
1003.492	2770.3994	1488.7	601
1003.6123	2771.5936	1486.55	602.5
1003.7325	2772.7872	1484.05	599.5
1003.8527	2773.9801	1484.8	599.85
1003.9729	2775.1723	1491.6	588.4
1004.093	2776.3639	1476.55	589.25
1004.2131	2777.5548	1484.75	598
1004.3331	2778.745	1480.4	595.5
1004.4531	2779.9346	1475.5	591.65
1004.5731	2781.1235	1480.35	594.65
1004.693	2782.3117	1482.45	598.2
1004.8129	2783.4992	1488.1	605.6
1004.9328	2784.6861	1488.9	604.15
1005.0526	2785.8723	1492.8	608.15
1005.1723	2787.0579	1500.75	614
1005.2921	2788.2428	1503.85	620.2
1005.4118	2789.427	1512.55	630.2
1005.5314	2790.6106	1514.3	631.2
1005.651	2791.7935	1525.55	640.6
1005.7706	2792.9757	1530.7	647.85
1005.8902	2794.1573	1546.95	661.3
1006.0097	2795.3382	1547.55	664.15
1006.1291	2796.5184	1567.15	684.55
1006.2485	2797.698	1586.35	700.75
1006.3679	2798.8769	1592.5	708.75
1006.4873	2800.0551	1606.75	722.35
1006.6066	2801.2327	1632.2	744.85
1006.7258	2802.4096	1642.25	757.9
1006.8451	2803.5859	1655.2	769.75
1006.9642	2804.7615	1680.4	795.35
1007.0834	2805.9364	1697.25	814.75
1007.2025	2807.1106	1728	847.65
1007.3216	2808.2842	1752.4	868.25
1007.4406	2809.4572	1782.95	897.1
1007.5596	2810.6294	1810.25	925.65
1007.6785	2811.801	1842.7	958.6
1007.7975	2812.972	1878.6	994.55
1007.9163	2814.1423	1929.5	1045.9
1008.0352	2815.3119	1973.7	1087.95
1008.154	2816.4808	2018.9	1136.85
1008.2727	2817.6491	2059.55	1174.55
1008.3914	2818.8167	2117.7	1236.2
1008.5101	2819.9837	2155.9	1268.45
1008.6288	2821.15	2207.1	1322.55
1008.7474	2822.3157	2261.85	1378.8
1008.8659	2823.4807	2302.35	1420.2
1008.9844	2824.645	2354.8	1469.9
1009.1029	2825.8086	2409.9	1529.45
1009.2214	2826.9716	2450.3	1565.15
1009.3398	2828.134	2501.6	1619.4
1009.4581	2829.2957	2547.35	1662.85
1009.5764	2830.4567	2553.8	1670.65
1009.6947	2831.617	2582.5	1696.85
1009.813	2832.7767	2597.05	1714.5
1009.9312	2833.9358	2594.45	1714.15
1010.0493	2835.0941	2584.3	1700.95
1010.1675	2836.2519	2578.65	1697.05
1010.2855	2837.4089	2568.7	1683.65
1010.4036	2838.5653	2557.35	1672.75
1010.5216	2839.7211	2547.8	1665.7
1010.6396	2840.8761	2558.15	1672.95
1010.7575	2842.0306	2584.9	1702.15
1010.8754	2843.1843	2606.05	1723.6
1010.9932	2844.3374	2647.45	1763.8
1011.111	2845.4899	2707.25	1823
1011.2288	2846.6417	2774.1	1891.3
1011.3465	2847.7928	2838.15	1957.45
1011.4642	2848.9433	2899.2	2015.75
1011.5818	2850.0931	2989.1	2106.2
1011.6995	2851.2422	3059.5	2175.05
1011.817	2852.3907	3127.75	2243.05
1011.9345	2853.5385	3178.3	2292.1
1012.052	2854.6857	3259.05	2348.4
1012.1695	2855.8323	3287.6	2406.1
1012.2869	2856.9781	3323	2441.1
1012.4042	2858.1233	3377	2495.95
1012.5216	2859.2679	3429.3	2546.8
1012.6389	2860.4118	3470.75	2587.3
1012.7561	2861.555	3526.15	2638.15
1012.8733	2862.6976	3553.4	2668.05
1012.9905	2863.8395	3586.45	2702.85
1013.1076	2864.9808	3610	2727.05
1013.2247	2866.1214	3615.5	2733.3
1013.3417	2867.2614	3635.45	2752.7
1013.4587	2868.4007	3661.6	2777.35
1013.5757	2869.5393	3662.65	2776.9
1013.6926	2870.6773	3679.7	2792.5
1013.8095	2871.8146	3688.2	2800.7
1013.9263	2872.9513	3695.05	2810.05
1014.0431	2874.0874	3679.85	2795.6
1014.1599	2875.2227	3680.95	2795.8
1014.2766	2876.3574	3648.7	2768.1
1014.3933	2877.4915	3638.25	2757.5
1014.51	2878.6249	3605	2721.7
1014.6266	2879.7577	3583.95	2699.8
1014.7431	2880.8898	3577.05	2683.9
1014.8596	2882.0212	3531.7	2652.55
1014.9761	2883.152	3541.4	2659.15
1015.0925	2884.2821	3524.55	2642.65
1015.2089	2885.4116	3515.5	2632
1015.3253	2886.5405	3518.1	2636.6
1015.4416	2887.6686	3529	2643.2
1015.5579	2888.7962	3527.9	2646.15
1015.6741	2889.923	3547.1	2666.45
1015.7903	2891.0493	3539.55	2659.85
1015.9065	2892.1748	3558	2677.15
1016.0226	2893.2997	3571.2	2689.15
1016.1387	2894.424	3584.2	2701.8
1016.2547	2895.5476	3597	2715.65
1016.3707	2896.6706	3630.4	2748.65
1016.4866	2897.7929	3652.1	2769.35
1016.6025	2898.9145	3676.5	2793.75
1016.7184	2900.0355	3717.65	2834.5
1016.8342	2901.1559	3747.4	2866.45
1016.95	2902.2756	3772.4	2890.25
1017.0658	2903.3946	3805.6	2921.45
1017.1815	2904.513	3817.05	2934.35
1017.2971	2905.6308	3858.1	2977.85
1017.4127	2906.7479	3882.15	3001.15
1017.5283	2907.8643	3899.45	3016.95
1017.6439	2908.9801	3918.8	3037.2
1017.7594	2910.0953	3913.7	3032.85
1017.8748	2911.2098	3934.5	3050.25
1017.9902	2912.3236	3930.15	3039.75
1018.1056	2913.4368	3904.25	3019.45
1018.2209	2914.5494	3881.6	2997.85
1018.3362	2915.6613	3856.05	2969.4
1018.4515	2916.7725	3828.7	2944.1
1018.5667	2917.8831	3802.4	2920.1
1018.6819	2918.9931	3762.5	2878.1
1018.797	2920.1024	3743.8	2859.25
1018.9121	2921.211	3736.45	2854.75
1019.0271	2922.319	3688.95	2804.6
1019.1421	2923.4264	3688.35	2807.6
1019.2571	2924.5331	3680.3	2798.55
1019.372	2925.6391	3657.6	2775.8
1019.4869	2926.7445	3649.95	2769
1019.6017	2927.8493	3649.7	2767.5
1019.7165	2928.9534	3650.95	2769.55
1019.8313	2930.0569	3642.2	2760.2
1019.946	2931.1597	3650.05	2765.95
1020.0606	2932.2619	3640.95	2760.55
1020.1753	2933.3634	3628.85	2746.2
1020.2899	2934.4643	3626.15	2737.2
1020.4044	2935.5645	3608.25	2721.1
1020.5189	2936.6641	3565.75	2680
1020.6334	2937.763	3538.1	2656.35
1020.7478	2938.8613	3494.35	2611.7
1020.8622	2939.959	3439.15	2552.25
1020.9765	2941.056	3370.45	2490.45
1021.0908	2942.1523	3305.95	2425.4
1021.2051	2943.248	3204.35	2323.9
1021.3193	2944.3431	3125.5	2242.4
1021.4334	2945.4375	3030.6	2146.75
1021.5476	2946.5313	2916.4	2036.55
1021.6617	2947.6244	2827.8	1946.75
1021.7757	2948.7169	2724.15	1842.5
1021.8897	2949.8087	2636.8	1752.75
1022.0037	2950.8999	2544.65	1662.5
1022.1176	2951.9904	2471.55	1591.8
1022.2315	2953.0803	2390.35	1506.8
1022.3453	2954.1696	2330.55	1447.35
1022.4591	2955.2582	2280.45	1398.1
1022.5728	2956.3462	2233.15	1352
1022.6865	2957.4335	2188.8	1307.65
1022.8002	2958.5202	2153.3	1270.3
1022.9138	2959.6062	2126.55	1246.25
1023.0274	2960.6916	2097.4	1216.35
1023.141	2961.7764	2090.65	1206.8
1023.2545	2962.8605	2074.55	1193.95
1023.3679	2963.9439	2066.55	1186.85
1023.4813	2965.0267	2050.65	1168.15
1023.5947	2966.1089	2056.8	1153.7
1023.708	2967.1905	2036.8	1156.95
1023.8213	2968.2714	2024.05	1144
1023.9346	2969.3516	2023.3	1142.8
1024.0478	2970.4312	2042.35	1154.2
1024.1609	2971.5102	2023.25	1142.7
1024.274	2972.5885	2027.8	1146.1
1024.3871	2973.6662	2040.85	1156.25
1024.5002	2974.7432	2029.4	1151
1024.6132	2975.8196	2024.35	1141.1
1024.7261	2976.8954	2010.5	1132.65
1024.839	2977.9705	2005.6	1124
1024.9519	2979.045	2000.7	1122.45
1025.0647	2980.1188	1980.9	1101.5
1025.1775	2981.192	1953.35	1073.1
1025.2902	2982.2645	1936.45	1055.5
1025.4029	2983.3364	1919.85	1038.3
1025.5156	2984.4077	1887.1	1006.8
1025.6282	2985.4783	1865.25	977.8
1025.7407	2986.5483	1822.2	941.25
1025.8532	2987.6177	1787.75	907.45
1025.9657	2988.6864	1758	879.1
1026.0782	2989.7545	1724.8	843.45
1026.1906	2990.8219	1685.6	807.35
1026.3029	2991.8887	1661.8	780.1
1026.4152	2992.9548	1627.3	746.8
1026.5275	2994.0204	1594.05	712.95
1026.6397	2995.0852	1569.7	690.15
1026.7519	2996.1495	1546.25	665.6
1026.864	2997.2131	1523.4	642.3
1026.9761	2998.276	1500.55	622.15
1027.0882	2999.3383	1479.2	598.2
1027.2002	3000.4	1464.4	583.25
1027.3122	3001.4611	1438.65	560
1027.4241	3002.5215	1427.65	546.85
1027.536	3003.5812	1416.45	537.8
1027.6478	3004.6404	1406.7	525.55
1027.7596	3005.6989	1399.3	519.8
1027.8714	3006.7567	1390.65	509.8
1027.9831	3007.8139	1406.9	495.35
1028.0947	3008.8705	1366.25	485.9
1028.2064	3009.9264	1363.55	480.6
1028.3179	3010.9818	1355	475.8
1028.4295	3012.0364	1355.55	476.05
1028.541	3013.0905	1347.4	467.35
1028.6524	3014.1439	1350.05	471.1
1028.7638	3015.1966	1335.35	455.25
1028.8752	3016.2487	1335.95	455.5
1028.9865	3017.3002	1342.8	457.65
1029.0978	3018.3511	1333.5	455.3
1029.209	3019.4013	1333.5	455.3
1029.3202	3020.4509	1331.4	451.85
1029.4314	3021.4998	1328.9	449.6
1029.5425	3022.5481	1331.25	451.7
1029.6535	3023.5958	1329.85	451.25
1029.7645	3024.6428	1331.45	452.55
1029.8755	3025.6892	1332.85	454.4
1029.9864	3026.735	1331.85	452.3
1030.0973	3027.7802	1326.75	447.6
1030.2082	3028.8247	1333.3	452.2
1030.319	3029.8685	1333.4	453.5
1030.4297	3030.9118	1338.75	457.5
1030.5404	3031.9544	1342.1	463.05
1030.6511	3032.9963	1347.15	468.65
1030.7617	3034.0376	1350.55	472.45
1030.8723	3035.0783	1352.05	469.85
1030.9829	3036.1184	1352.45	469.65
1031.0934	3037.1578	1354.65	475.05
1031.2038	3038.1966	1364.2	484
1031.3142	3039.2348	1356.5	476.3
1031.4246	3040.2723	1368.55	480.55
1031.5349	3041.3092	1359.65	482.75
1031.6452	3042.3455	1355.5	475
1031.7554	3043.3811	1355	472.75
1031.8656	3044.4161	1352.1	472.5
1031.9758	3045.4505	1347.95	469.15
1032.0859	3046.4842	1344.8	464.3
1032.1959	3047.5173	1335.55	457.2
1032.3059	3048.5498	1330.4	449.8
1032.4159	3049.5816	1327.25	448.4
1032.5258	3050.6128	1328.25	447.4
1032.6357	3051.6434	1314.4	435.4
1032.7455	3052.6734	1309.5	428.8
1032.8553	3053.7027	1305.25	425.8
1032.9651	3054.7314	1299.85	419.85
1033.0748	3055.7594	1296.1	418.45
1033.1845	3056.7868	1293.05	413.1
1033.2941	3057.8136	1287.85	411.2
1033.4037	3058.8398	1289.2	409.7
1033.5132	3059.8653	1279.6	401.25
1033.6227	3060.8902	1276.45	398.95
1033.7321	3061.9145	1270.5	390.5
1033.8415	3062.9381	1265.9	386.05
1033.9509	3063.9612	1279.9	384.35
1034.0602	3064.9835	1255.05	373.8
1034.1694	3066.0053	1253.25	372.3
1034.2787	3067.0264	1248.75	369.45
1034.3878	3068.0469	1239.85	359.2
1034.497	3069.0668	1236.8	353.4
1034.6061	3070.086	1232.15	354.65
1034.7151	3071.1046	1222.1	341.45
1034.8241	3072.1226	1213.85	334.05
1034.9331	3073.1399	1205.05	327.05
1035.042	3074.1567	1195.05	316.05
1035.1508	3075.1727	1192.4	311.75
1035.2597	3076.1882	1183	303.5
1035.3684	3077.203	1172.8	294.45
1035.4772	3078.2173	1170.45	290.9
1035.5859	3079.2308	1164.2	281.75
1035.6945	3080.2438	1157.7	277.9
1035.8031	3081.2561	1143.9	265.8
1035.9117	3082.2678	1137.55	259.9
1036.0202	3083.2789	1132.8	253.05
1036.1286	3084.2893	1123.8	246.1
1036.2371	3085.2991	1118.85	240.7
1036.3454	3086.3083	1117.3	236.9
1036.4538	3087.3169	1111.5	232.25
1036.562	3088.3248	1110.4	227.6
1036.6703	3089.3321	1105.3	223.5
1036.7785	3090.3388	1100.1	220.75
1036.8866	3091.3449	1092.8	212.5
1036.9948	3092.3503	1091.45	209.4
1037.1028	3093.3551	1087.95	212.5
1037.2108	3094.3593	1080.35	201.2
1037.3188	3095.3629	1073.9	194.55
1037.4267	3096.3658	1080.05	200.4
1037.5346	3097.3681	1075.8	198.8
1037.6425	3098.3698	1073.05	194.85
1037.7503	3099.3708	1071.2	185.7
1037.858	3100.3713	1066.95	188.25
1037.9657	3101.3711	1065.05	184.9
1038.0734	3102.3702	1204.9	187.3
1038.181	3103.3688	1056.95	175.65
1038.2886	3104.3667	1056.9	179.8
1038.3961	3105.364	1055.35	177.95
1038.5036	3106.3607	1055.9	177
1038.611	3107.3568	1050.45	171.75
1038.7184	3108.3522	1047.45	170.3
1038.8257	3109.347	1048.75	170.15
1038.933	3110.3412	1053.15	171.65
1039.0403	3111.3348	1044.15	165.6
1039.1475	3112.3277	1044.2	166.85
1039.2547	3113.32	1038.65	159.25
1039.3618	3114.3117	1038.85	158.1
1039.4689	3115.3028	1040.25	164.2
1039.5759	3116.2932	1042.3	160.25
1039.6829	3117.2831	1040	156.6
1039.7898	3118.2723	1031	154.2
1039.8967	3119.2608	1030.45	152.75
1040.0035	3120.2488	1033.6	153.7
1040.1103	3121.2361	1031.6	153.5
1040.2171	3122.2229	1030.55	151.9
1040.3238	3123.209	1023.9	146.4
1040.4305	3124.1944	1025.25	147.8
1040.5371	3125.1793	1023.75	144.85
1040.6437	3126.1635	1022.4	145.75
1040.7502	3127.1471	1020.15	143.45
1040.8567	3128.1301	1019.1	142
1040.9631	3129.1125	1020.7	143.5
1041.0695	3130.0942	1018.9	140.7
1041.1759	3131.0753	1025.2	138.2
1041.2822	3132.0558	1018.4	137
1041.3884	3133.0357	1010.7	132.15
1041.4946	3134.015	1015.05	134.7
1041.6008	3134.9936	1010.75	131.05
1041.7069	3135.9716	1027.95	129.75
1041.813	3136.949	1010.8	133.85
1041.919	3137.9258	1027	130.95
1042.025	3138.902	1012.5	129.55
1042.1309	3139.8775	1007	129.95
1042.2368	3140.8524	1006.7	127.25
1042.3427	3141.8267	1009.2	128.45
1042.4485	3142.8004	1005.05	127.85
1042.5542	3143.7735	1007.75	121.95
1042.6599	3144.7459	1003.45	124.55
1042.7656	3145.7178	1002.95	124.15
1042.8712	3146.689	997.8	120.25
1042.9768	3147.6596	1001.85	120.75
1043.0823	3148.6295	995.7	117.95
1043.1878	3149.5989	999.3	121.4
1043.2932	3150.5676	995.65	121.15
1043.3986	3151.5357	996.2	121.5
1043.5039	3152.5032	994.5	118.8
1043.6092	3153.4701	993.2	116.7
1043.7145	3154.4364	992.5	112.25
1043.8197	3155.402	988.55	111.45
1043.9248	3156.367	986.4	107.35
1044.03	3157.3315	1021.4	111.25
1044.135	3158.2952	988.65	109.45
1044.24	3159.2584	985.8	110.4
1044.345	3160.221	984.95	106.95
1044.4499	3161.1829	984.1	104.65
1044.5548	3162.1442	982	105.25
1044.6596	3163.105	983.45	105.95
1044.7644	3164.065	985.3	107.05
1044.8692	3165.0245	988.55	108.25
1044.9739	3165.9834	979.1	103
1045.0785	3166.9416	981.8	106.5
1045.1831	3167.8993	977.35	100.7
1045.2877	3168.8563	984.55	107.2
1045.3922	3169.8127	980.15	103.4
1045.4966	3170.7684	975.05	97.8
1045.6011	3171.7236	978.9	99.6
1045.7054	3172.6782	975.1	97
1045.8098	3173.6321	979.3	102.1
1045.914	3174.5854	979.6	98.35
1046.0183	3175.5381	974.9	98.9
1046.1224	3176.4902	974.65	96.8
1046.2266	3177.4417	972.6	94.75
1046.3307	3178.3926	973	94.85
1046.4347	3179.3428	973.2	97.95
1046.5387	3180.2924	969	89.4
1046.6427	3181.2415	968.5	92.5
1046.7466	3182.1899	973.3	93.75
1046.8504	3183.1377	969.95	94.2
1046.9542	3184.0848	972	92.35
1047.058	3185.0314	971.15	92.95
1047.1617	3185.9773	969.65	93.8
1047.2654	3186.9227	967.4	88.75
1047.369	3187.8674	968.9	93.9
1047.4726	3188.8115	969.25	89.25
1047.5761	3189.755	967.4	90.35
1047.6796	3190.6979	965.55	88.45
1047.783	3191.6402	962.5	85.4
1047.8864	3192.5818	963.35	86.75
1047.9898	3193.5229	981.9	86.85
1048.0931	3194.4633	962.1	84.9
1048.1963	3195.4031	964.75	86.85
1048.2995	3196.3423	962.5	86.35
1048.4027	3197.2809	963	87.35
1048.5058	3198.2189	964.5	85.65
1048.6089	3199.1563	965.25	84.15
1048.7119	3200.0931	960	84.65
1048.8148	3201.0292	958.2	82.7
1048.9178	3201.9648	958.75	81.65
1049.0206	3202.8997	962.85	83.85
1049.1235	3203.834	959.7	82.55
1049.2262	3204.7677	956.8	79.5
1049.329	3205.7008	958.5	78.45
1049.4317	3206.6333	956.75	82
1049.5343	3207.5652	960.15	80.4
1049.6369	3208.4964	953.6	78.15
1049.7394	3209.4271	953.35	78.2
1049.8419	3210.3571	951.7	76.7
1049.9444	3211.2865	957.05	79.5
1050.0468	3212.2154	953.8	78.75
1050.1491	3213.1436	959.15	78.65
1050.2514	3214.0712	960.1	77.75
1050.3537	3214.9982	956.35	79.85
1050.4559	3215.9246	952.35	74.05
1050.5581	3216.8503	950.25	75.2
1050.6602	3217.7755	949.75	72.1
1050.7623	3218.7001	949.15	74.45
1050.8643	3219.624	951.6	75.9
1050.9663	3220.5473	949.15	73.95
1051.0682	3221.4701	952.75	74.1
1051.1701	3222.3922	950.1	72.6
1051.2719	3223.3137	952.45	75.55
1051.3737	3224.2346	951.7	75.3
1051.4754	3225.1549	946.8	71.7
1051.5771	3226.0746	946.15	69.95
1051.6788	3226.9937	945.65	68.8
1051.7804	3227.9121	942.7	67.45
1051.8819	3228.83	947.55	72.95
1051.9834	3229.7473	943.65	66.45
1052.0849	3230.6639	948.35	70.8
1052.1863	3231.5799	947.7	72.4
1052.2876	3232.4954	946.95	67.95
1052.3889	3233.4102	944.1	67.55
1052.4902	3234.3244	945.8	69.45
1052.5914	3235.238	940.7	65.45
1052.6926	3236.151	969.9	66.85
1052.7937	3237.0634	941.5	65.25
1052.8948	3237.9752	942.15	63.6
1052.9958	3238.8864	941.1	64.25
1053.0968	3239.797	940.75	65.1
1053.1977	3240.7069	942.55	65.5
1053.2986	3241.6163	939.75	63.35
1053.3994	3242.5251	935.05	60.35
1053.5002	3243.4332	937.4	60.6
1053.6009	3244.3408	936.75	60.95
1053.7016	3245.2477	935.65	61.6
1053.8022	3246.154	938.15	60.8
1053.9028	3247.0598	939.5	64
1054.0034	3247.9649	939.7	61.2
1054.1039	3248.8694	933.95	57.05
1054.2043	3249.7733	936.55	59.9
1054.3047	3250.6766	933.05	56.45
1054.4051	3251.5793	935.15	58.8
1054.5054	3252.4814	933.45	57.55
1054.6056	3253.3829	936.1	59.75
1054.7058	3254.2838	933	60.05
1054.806	3255.1841	932.75	55.05
1054.9061	3256.0838	935.3	58.05
1055.0061	3256.9829	930.35	56.85
1055.1062	3257.8814	932.1	53.65
1055.2061	3258.7792	931.75	53.3
1055.306	3259.6765	932.25	56.05
1055.4059	3260.5731	927.05	52.7
1055.5057	3261.4692	927.3	51.05
1055.6055	3262.3647	929.3	52
1055.7052	3263.2595	927.25	51.4
1055.8049	3264.1538	924.25	49.8
1055.9045	3265.0474	927.3	51.65
1056.0041	3265.9404	923.5	50.05
1056.1036	3266.8329	922.45	48.7
1056.2031	3267.7247	932.95	48.05
1056.3025	3268.616	922.15	47.5
1056.4019	3269.5066	921.8	46.8
1056.5013	3270.3966	920	43.3
1056.6005	3271.286	915.85	41.2
