Software Version:	3.9.2.0
Unit SN:	10000200
Spectrometer SN:	6960
Date:	3/8/2024 1:11:32 PM
Data Line Index:	25
Spectral Points:	2048
Integration time (ms):	125
Averages:	20
Delay (ms):	30000
Sequence Number:	1
Processing:	dark subtract
Laser Power (mW):	305
Laser Current (mA):	823
Laser Diode Temp (C):	25
Laser Case Temp (C):	26.2
System Temp (C):	26.2
Spectrometer Temp (C):	24
CCD Temp (C):	-0.002
Secondary Temp (C):	20.011
Heatsink Temp (C):	20.641
CCDPCB Temp (C):	36.24
SecondaryPCB Temp (C):	30.115

Wavelength	RamanShift	Raw Counts	Dark Subtracted
787.061	30.1047	452.4	44.25
787.2016	32.3739	454.7	48.75
787.3422	34.6426	459.1	52.9
787.4828	36.9109	465.95	56.45
787.6235	39.1787	474.1	59.75
787.7642	41.4461	485	67
787.9049	43.7131	493.2	72
788.0456	45.9796	503.25	79
788.1863	48.2456	509.85	82.7
788.3271	50.5112	521.35	89.4
788.4679	52.7764	527.6	94.6
788.6087	55.0411	538.65	98.2
788.7496	57.3054	553.2	105.8
788.8904	59.5692	558.6	111.9
789.0313	61.8326	567.3	120.05
789.1722	64.0955	581.95	130.35
789.3132	66.3579	599	141
789.4541	68.6199	620.8	158.8
789.5951	70.8815	653.25	185.95
789.7361	73.1426	732.6	260.15
789.8771	75.4032	930.4	455.5
790.0181	77.6634	1439.6	959.15
790.1592	79.9231	2594.45	2106.8
790.3003	82.1824	5149.5	4643.65
790.4414	84.4412	9694.6	9154.25
790.5825	86.6995	15960.2	15381.2
790.7237	88.9574	22081.85	21466.05
790.8648	91.2148	26283.25	25640
791.006	93.4717	28192.6	27534.65
791.1472	95.7282	28518.05	27854.15
791.2885	97.9842	28324.4	27654.25
791.4297	100.2398	27655.45	26985.55
791.571	102.4949	26949.8	26274.6
791.7123	104.7495	26140.75	25470.15
791.8536	107.0036	25260.55	24584.7
791.9949	109.2573	24427.35	23751.35
792.1363	111.5105	23654.8	22975.5
792.2777	113.7632	22990.6	22311.2
792.4191	116.0154	22422.4	21731.25
792.5605	118.2672	21989.3	21300.4
792.7019	120.5185	21534.2	20844.45
792.8434	122.7693	21202.6	20510.1
792.9849	125.0197	20911.15	20215.2
793.1264	127.2696	20640.4	19942.25
793.2679	129.519	20464.25	19756.2
793.4094	131.7679	20202.95	19495.5
793.551	134.0163	19962	19250.4
793.6926	136.2642	19720	19006.25
793.8342	138.5117	19443	18718.65
793.9758	140.7587	19123.25	18402.7
794.1175	143.0052	18883.6	18162.85
794.2591	145.2512	18577.3	17856.55
794.4008	147.4967	18292.55	17570.05
794.5425	149.7417	18101.55	17379.6
794.6842	151.9863	17960.75	17233.3
794.826	154.2304	17909.9	17177.05
794.9677	156.4739	17734.3	16992.25
795.1095	158.717	17629.6	16890.35
795.2513	160.9596	17462.95	16719.4
795.3931	163.2017	17237.2	16497.55
795.535	165.4433	16942.25	16197.7
795.6768	167.6844	16611.35	15860.25
795.8187	169.925	16278.7	15529.3
795.9606	172.1651	15942.45	15192.65
796.1025	174.4047	15666.95	14914
796.2445	176.6439	15393.9	14638.3
796.3864	178.8825	15182.1	14419.45
796.5284	181.1206	15029.75	14265
796.6704	183.3582	14883.1	14109.7
796.8124	185.5954	14794.65	14022.15
796.9544	187.832	14684.3	13907.75
797.0965	190.0681	14663.4	13886.65
797.2386	192.3037	14688.25	13908.6
797.3806	194.5388	14657.75	13872.3
797.5228	196.7734	14682.15	13894.4
797.6649	199.0075	14771.55	13982.2
797.807	201.2411	14890.25	14103.8
797.9492	203.4742	14991.25	14199.1
798.0914	205.7068	15136.65	14343.2
798.2336	207.9389	15253.95	14458.25
798.3758	210.1704	15397.6	14606.25
798.518	212.4015	15526.7	14743.75
798.6603	214.632	15684.1	14909.85
798.8025	216.862	15873.3	15103
798.9448	219.0915	15971.7	15198.2
799.0871	221.3205	16159.35	15376.95
799.2294	223.549	16323.95	15553.85
799.3718	225.777	16531.05	15758.6
799.5141	228.0044	16799.65	16019.35
799.6565	230.2314	17096.45	16314.4
799.7989	232.4578	17395.7	16612.25
799.9413	234.6837	17652.15	16862.05
800.0837	236.909	17821.9	17027.85
800.2262	239.1339	17823.35	17004
800.3687	241.3582	17657.15	16853.55
800.5111	243.582	17441.95	16604.4
800.6536	245.8053	17217	16398.55
800.7961	248.0281	17011.9	16195.55
800.9387	250.2503	16878.05	16057.35
801.0812	252.472	16824.05	16003.9
801.2238	254.6932	16860.1	16041.05
801.3664	256.9139	16876.15	16051.7
801.509	259.134	16945.4	16115.85
801.6516	261.3536	17079.55	16256.8
801.7942	263.5727	17294.65	16466.85
801.9369	265.7912	17401.7	16577.15
802.0795	268.0092	17538.35	16713.15
802.2222	270.2267	17603.55	16777.1
802.3649	272.4436	17591.8	16764.55
802.5076	274.6601	17610.7	16774
802.6504	276.8759	17491.95	16657.85
802.7931	279.0913	17435.65	16606.25
802.9359	281.3061	17324.55	16490.5
803.0787	283.5204	17357.8	16515.8
803.2215	285.7341	17365	16524.2
803.3643	287.9473	17468.4	16614.95
803.5071	290.16	17609.35	16765.1
803.6499	292.3721	17850.5	17009.65
803.7928	294.5837	18185.95	17347.05
803.9357	296.7947	18496.45	17656.55
804.0786	299.0052	18671.95	17828.9
804.2215	301.2152	18568.4	17725.1
804.3644	303.4246	18315.1	17475.85
804.5074	305.6334	17827.7	16991.8
804.6503	307.8418	17370.85	16528.3
804.7933	310.0495	16925.2	16080.9
804.9363	312.2568	16570.4	15726.55
805.0793	314.4635	16299.9	15448.85
805.2223	316.6696	16137.25	15278.3
805.3653	318.8752	16003.8	15143.2
805.5084	321.0802	16005.45	15150.2
805.6514	323.2847	16085.4	15228.85
805.7945	325.4887	16112.4	15252.55
805.9376	327.692	16070.9	15215.45
806.0807	329.8949	15996.95	15138.2
806.2238	332.0972	15787	14928.1
806.367	334.2989	15532.15	14671.45
806.5101	336.5001	15263.2	14399.35
806.6533	338.7007	15060.15	14193.25
806.7965	340.9008	14929.75	14061.4
806.9397	343.1003	14808.15	13944.55
807.0829	345.2992	14745.15	13881.45
807.2261	347.4976	14708.55	13838.45
807.3693	349.6955	14631.55	13757.4
807.5126	351.8927	14687.25	13814.1
807.6559	354.0895	14666.8	13785
807.7991	356.2856	14638.55	13764.55
807.9424	358.4812	14587.15	13709.3
808.0857	360.6763	14632.85	13758.1
808.2291	362.8707	14657.5	13779
808.3724	365.0646	14682.6	13804.4
808.5158	367.258	14729.15	13846.7
808.6591	369.4508	14774.45	13889.7
808.8025	371.643	14903.35	14015.3
808.9459	373.8346	14900.4	14013.95
809.0893	376.0257	14916.8	14027.25
809.2327	378.2162	14895.2	14011.45
809.3762	380.4062	14860.9	13976.3
809.5196	382.5956	14706.2	13821.6
809.6631	384.7844	14625.5	13746.75
809.8066	386.9726	14485.35	13604.75
809.9501	389.1603	14437.1	13563.05
810.0936	391.3474	14422.15	13510.5
810.2371	393.5339	14393.5	13508.4
810.3806	395.7199	14327.85	13448.3
810.5241	397.9052	14354.6	13478.7
810.6677	400.09	14414.75	13536.8
810.8113	402.2743	14521.9	13641.9
810.9548	404.4579	14632.15	13749
811.0984	406.641	14808.7	13927.05
811.2421	408.8235	15045.25	14164.75
811.3857	411.0054	15267.9	14384.7
811.5293	413.1868	15565.9	14675.35
811.673	415.3675	15795.45	14901.2
811.8166	417.5477	15930.8	15039
811.9603	419.7273	15956.9	15061.8
812.104	421.9064	15868.55	14968.3
812.2477	424.0848	15730.75	14839.9
812.3914	426.2627	15552.35	14656.75
812.5351	428.4399	15310.25	14417.15
812.6788	430.6166	14973.5	14071.35
812.8226	432.7928	14630.45	13729.35
812.9663	434.9683	14305.7	13406.85
813.1101	437.1432	14094.75	13197.85
813.2539	439.3176	13895.15	13004.75
813.3977	441.4914	13780.95	12897.15
813.5415	443.6645	13794.6	12905.2
813.6853	445.8371	13728.6	12832.3
813.8291	448.0091	13669.3	12776.4
813.973	450.1806	13621.15	12731.7
814.1168	452.3514	13624.5	12733.85
814.2607	454.5216	13656.5	12757
814.4046	456.6913	13626.95	12733.05
814.5485	458.8603	13668.8	12771.45
814.6924	461.0288	13733.3	12846.65
814.8363	463.1967	13722.45	12838.4
814.9802	465.3639	13803.75	12915.75
815.1241	467.5306	13846.65	12953.8
815.2681	469.6967	13915.6	13025.45
815.412	471.8622	14029.25	13145.85
815.556	474.0271	14132.55	13240.75
815.7	476.1914	14175	13277.3
815.844	478.3551	14195.3	13302.2
815.988	480.5182	14219.5	13325.15
816.132	482.6807	14256.2	13374.85
816.276	484.8426	14393.4	13521
816.4201	487.0039	14684.3	13796.1
816.5641	489.1647	15095.1	14202.25
816.7082	491.3248	15487.85	14589.9
816.8522	493.4843	15644.95	14750.35
816.9963	495.6432	15628.1	14739.7
817.1404	497.8015	15527.15	14625.1
817.2845	499.9592	15481.15	14574.55
817.4286	502.1163	15334.9	14426.85
817.5727	504.2728	15069.8	14171.8
817.7168	506.4287	14787.7	13903.8
817.861	508.5839	14405.15	13515.5
818.0051	510.7386	14139	13241.35
818.1493	512.8927	14013.2	13106.5
818.2935	515.0461	13956.1	13054.6
818.4377	517.199	13959.9	13053.15
818.5818	519.3512	14046.4	13137.85
818.726	521.5029	14224.35	13315.5
818.8703	523.6539	14391.2	13486.75
819.0145	525.8043	14466.85	13561.9
819.1587	527.9541	14416.55	13511.2
819.303	530.1033	14339.6	13434.55
819.4472	532.2519	14281.85	13374.4
819.5915	534.3999	14326.6	13420
819.7357	536.5472	14491.8	13587.85
819.88	538.694	14851.1	13950.75
820.0243	540.8401	15317.6	14411.1
820.1686	542.9856	15668.75	14747.45
820.3129	545.1305	15771.85	14846.7
820.4572	547.2748	15696.05	14770.35
820.6016	549.4185	15389.75	14460.5
820.7459	551.5615	15132.7	14210.4
820.8902	553.704	15062.05	14138.15
821.0346	555.8458	15122.25	14204.35
821.1789	557.987	15180.85	14264.9
821.3233	560.1276	15277.35	14360.25
821.4677	562.2675	15459.6	14538.7
821.6121	564.4069	15738.85	14819.3
821.7565	566.5456	15964.85	15045.65
821.9009	568.6837	15963.75	15050.35
822.0453	570.8212	15649.4	14736.3
822.1897	572.958	15143.8	14229.05
822.3342	575.0942	14702.15	13790.1
822.4786	577.2299	14394.5	13488.75
822.6231	579.3648	14280.8	13386.5
822.7675	581.4992	14294.15	13411.75
822.912	583.6329	14459.95	13579.9
823.0565	585.766	14669.95	13776.7
823.201	587.8985	14777.3	13878.45
823.3454	590.0304	14813.9	13882.8
823.4899	592.1616	14773.15	13852.25
823.6345	594.2922	14660.85	13741.75
823.779	596.4222	14463.1	13538.65
823.9235	598.5515	14290.65	13364.7
824.068	600.6802	14168.55	13246.4
824.2126	602.8083	13970.55	13051.3
824.3571	604.9358	13948.75	13028.65
824.5017	607.0626	13914.3	12990.85
824.6462	609.1888	13945.4	13018.7
824.7908	611.3144	14014.15	13083.75
824.9354	613.4393	14026.35	13096.3
825.08	615.5636	14028.65	13098.25
825.2246	617.6873	13982	13053.35
825.3692	619.8103	13913.6	12989.25
825.5138	621.9327	13787.45	12860.45
825.6584	624.0544	13636.8	12714.15
825.803	626.1756	13539.75	12621.65
825.9477	628.2961	13489.7	12563.8
826.0923	630.4159	13405.65	12479.2
826.237	632.5351	13368.4	12434.6
826.3816	634.6537	13333.55	12401.65
826.5263	636.7716	13331.3	12397.9
826.6709	638.8889	13349.95	12411.1
826.8156	641.0056	13384.6	12448.25
826.9603	643.1216	13365.2	12431.75
827.105	645.237	13404.65	12472.9
827.2497	647.3518	13315.2	12389.3
827.3944	649.4659	13298.15	12379.1
827.5391	651.5793	13267.35	12349.85
827.6838	653.6922	13234.15	12312.15
827.8285	655.8043	13280.75	12356.95
827.9733	657.9159	13254.65	12329.95
828.118	660.0268	13217.6	12288.3
828.2627	662.137	13216.25	12287.55
828.4075	664.2466	13197	12259.55
828.5522	666.3556	13163.45	12230.2
828.697	668.4639	13132.9	12204.95
828.8418	670.5716	13138.85	12212.8
828.9865	672.6786	13178.45	12247.7
829.1313	674.785	13186.15	12249.95
829.2761	676.8907	13215.55	12289.55
829.4209	678.9958	13274.8	12350.05
829.5657	681.1002	13269.2	12337.75
829.7105	683.204	13242	12297.25
829.8553	685.3072	13194.6	12258.55
830.0001	687.4097	13165.5	12232.15
830.1449	689.5115	13144.3	12206.75
830.2898	691.6127	13115.95	12184.8
830.4346	693.7132	13047.3	12115.05
830.5794	695.8131	13098.45	12161.95
830.7243	697.9123	13060.45	12122.05
830.8691	700.0109	13060.6	12115.2
831.014	702.1089	13086.15	12150.25
831.1588	704.2061	13101.65	12163.45
831.3037	706.3028	13137.05	12196
831.4486	708.3987	13213.05	12275.1
831.5935	710.4941	13255.3	12319.45
831.7383	712.5887	13365	12429.9
831.8832	714.6827	13574.45	12637.55
832.0281	716.7761	13786.75	12853.55
832.173	718.8688	14078.1	13142.2
832.3179	720.9608	14271.95	13330.25
832.4628	723.0522	14387.7	13440.65
832.6077	725.1429	14299.75	13357.2
832.7527	727.233	14197.95	13257.45
832.8976	729.3224	14106.2	13169.55
833.0425	731.4112	13911.95	12972.2
833.1874	733.4993	13751.5	12809.15
833.3324	735.5867	13572.35	12631.25
833.4773	737.6735	13424.55	12484.2
833.6222	739.7596	13273.8	12331.2
833.7672	741.845	13194.65	12253.15
833.9122	743.9298	13142.4	12202
834.0571	746.014	13113.05	12170.65
834.2021	748.0974	13125.5	12176.55
834.347	750.1802	13146.85	12198.05
834.492	752.2624	13164.7	12220.35
834.637	754.3439	13217.65	12271
834.782	756.4247	13283.75	12328.8
834.9269	758.5048	13446.25	12500.1
835.0719	760.5843	13743.75	12798.9
835.2169	762.6631	14063.9	13112.25
835.3619	764.7413	14585.15	13640.05
835.5069	766.8188	15267.5	14319.4
835.6519	768.8956	15740.65	14792.1
835.7969	770.9718	16054.4	15106.5
835.9419	773.0473	15945.2	14998.6
836.0869	775.1221	15643.1	14695.7
836.232	777.1962	15313.35	14368.85
836.377	779.2697	15183.75	14235.05
836.522	781.3426	15216.15	14256.2
836.667	783.4147	15414.15	14461.25
836.8121	785.4862	15602.9	14654.95
836.9571	787.557	15550.7	14598.1
837.1021	789.6271	15164.8	14213.6
837.2472	791.6966	14576.35	13624.35
837.3922	793.7654	14015.2	13071.1
837.5373	795.8335	13674.05	12726.45
837.6823	797.901	13394.55	12445.8
837.8274	799.9678	13330.85	12377.55
837.9724	802.0339	13289.45	12339.4
838.1175	804.0993	13306.45	12343.45
838.2626	806.1641	13250.85	12299.8
838.4076	808.2282	13197.2	12247.7
838.5527	810.2916	13110.5	12162.45
838.6978	812.3544	13041.8	12095.6
838.8428	814.4164	12946.95	12000.05
838.9879	816.4778	12996.35	12043.05
839.133	818.5385	13019.4	12067.85
839.2781	820.5986	13094.05	12140.65
839.4232	822.658	13320.2	12364.75
839.5682	824.7166	13526.9	12575.25
839.7133	826.7747	13861.45	12913.3
839.8584	828.832	14193.9	13240.65
840.0035	830.8886	14458.25	13504.3
840.1486	832.9446	14621	13664
840.2937	834.9999	14583.55	13629.8
840.4388	837.0545	14450.3	13497.55
840.5839	839.1085	14271.65	13321.1
840.729	841.1618	14096.7	13139.3
840.8741	843.2143	13985.75	13035.45
841.0192	845.2662	13860.8	12909.35
841.1643	847.3175	13744.7	12790.8
841.3095	849.368	13648.35	12694.9
841.4546	851.4179	13550.7	12596.6
841.5997	853.467	13388.1	12430.3
841.7448	855.5155	13354.65	12402.55
841.8899	857.5633	13242.95	12288.6
842.0351	859.6105	13182.45	12226.15
842.1802	861.6569	13099.85	12146
842.3253	863.7027	13031.7	12073.3
842.4704	865.7478	13024.6	12068.7
842.6156	867.7922	12985.65	12030.8
842.7607	869.8359	13035.6	12077
842.9058	871.8789	13109.4	12154.2
843.0509	873.9212	13241.5	12256
843.1961	875.9629	13349.65	12394
843.3412	878.0039	13491.8	12533.5
843.4863	880.0441	13598	12645.95
843.6315	882.0837	13633.9	12679.5
843.7766	884.1226	13607.8	12653
843.9218	886.1609	13583.15	12631.8
844.0669	888.1984	13606.05	12651.25
844.212	890.2352	13653.55	12697.2
844.3572	892.2714	13639.1	12679.55
844.5023	894.3069	13579.4	12622.8
844.6475	896.3416	13496.5	12538.9
844.7926	898.3757	13413.95	12457.3
844.9377	900.4091	13364.95	12404.55
845.0829	902.4418	13367.5	12404.2
845.228	904.4739	13400.55	12442.2
845.3732	906.5052	13421.2	12461.2
845.5183	908.5358	13357.25	12397.95
845.6635	910.5658	13222.5	12259.75
845.8086	912.595	13014.5	12055.3
845.9538	914.6236	12851.5	11892.3
846.0989	916.6515	12777.05	11816.55
846.2441	918.6786	12710.8	11748
846.3892	920.7051	12733.95	11776.3
846.5344	922.7309	12824.5	11865.6
846.6795	924.756	12862.1	11904.4
846.8246	926.7804	12980.4	12020.6
846.9698	928.8041	12950.15	11991.45
847.1149	930.8272	13008.45	12047.65
847.2601	932.8495	12933.5	11973.95
847.4052	934.8711	12927.7	11966.8
847.5504	936.892	12843.3	11883.5
847.6955	938.9123	12721.25	11761.1
847.8407	940.9318	12681.8	11722.55
847.9858	942.9506	12612.15	11651.35
848.131	944.9688	12554.85	11596.95
848.2761	946.9862	12471.75	11511.35
848.4213	949.003	12354.5	11394.95
848.5664	951.019	12337.85	11378.85
848.7115	953.0344	12340.8	11379.85
848.8567	955.0491	12361.95	11402
849.0018	957.063	12409.75	11451.9
849.147	959.0763	12530.15	11572.6
849.2921	961.0888	12567.1	11611.75
849.4373	963.1007	12633.3	11678
849.5824	965.1119	12653.7	11706
849.7275	967.1223	12642.4	11696.75
849.8727	969.1321	12658.55	11719.05
850.0178	971.1412	12667	11717.9
850.1629	973.1495	12673.15	11720.1
850.3081	975.1572	12746.75	11743.95
850.4532	977.1641	12733	11774.9
850.5983	979.1704	12706.65	11746.5
850.7435	981.1759	12718.65	11751.15
850.8886	983.1808	12759.15	11799.5
851.0337	985.1849	12811.4	11841.35
851.1788	987.1884	12893.65	11932.75
851.324	989.1911	13040.5	12081.7
851.4691	991.1932	13160.35	12203.1
851.6142	993.1945	13191.45	12234.6
851.7593	995.1951	13138.1	12177.8
851.9045	997.1951	13118.25	12153.05
852.0496	999.1943	13043.95	12087.55
852.1947	1001.1928	13035.55	12073.45
852.3398	1003.1906	13056.9	12096.85
852.4849	1005.1877	13158.15	12199.2
852.63	1007.1841	13190.2	12231.5
852.7751	1009.1798	13141	12183.7
852.9202	1011.1748	12985.3	12029.1
853.0653	1013.1691	12842.75	11884.65
853.2104	1015.1627	12629	11674.1
853.3555	1017.1556	12415.2	11459.9
853.5006	1019.1477	12305.65	11352.45
853.6457	1021.1392	12201.85	11253.8
853.7908	1023.1299	12212.75	11263.45
853.9359	1025.12	12190.1	11251.7
854.081	1027.1093	12237.05	11308.65
854.2261	1029.0979	12344.1	11421.95
854.3712	1031.0859	12420.6	11488.45
854.5163	1033.0731	12450.9	11511.3
854.6613	1035.0596	12373.5	11426.8
854.8064	1037.0454	12296.05	11342.95
854.9515	1039.0304	12168.45	11215.65
855.0965	1041.0148	12043.35	11090.65
855.2416	1042.9985	11973.85	11019.5
855.3867	1044.9814	11934	10980.5
855.5317	1046.9636	11862.2	10909.05
855.6768	1048.9452	11831.4	10877.1
855.8219	1050.926	11864.5	10913
855.9669	1052.9061	11881.05	10925.35
856.112	1054.8855	11881.55	10925.4
856.257	1056.8642	11954.85	10997.65
856.4021	1058.8421	12004.65	11043.35
856.5471	1060.8194	12027.7	11070.95
856.6921	1062.7959	12075.15	11119.25
856.8372	1064.7717	12094.4	11133.7
856.9822	1066.7469	12176.8	11221.05
857.1272	1068.7213	12194.9	11236.2
857.2723	1070.695	12205.7	11252.15
857.4173	1072.6679	12207.35	11254.85
857.5623	1074.6402	12201.35	11245.3
857.7073	1076.6117	12173.4	11210.05
857.8523	1078.5826	12130.75	11172.55
857.9973	1080.5527	12058.35	11098.25
858.1423	1082.5221	12057.55	11098.3
858.2873	1084.4908	12135.6	11181.55
858.4323	1086.4587	12247.1	11292.4
858.5773	1088.426	12325.55	11370.75
858.7223	1090.3925	12364.15	11405.95
858.8673	1092.3584	12375.95	11419.75
859.0123	1094.3235	12288.8	11333.95
859.1573	1096.2879	12292.5	11336.6
859.3022	1098.2515	12336.5	11379.05
859.4472	1100.2145	12484.85	11528.55
859.5922	1102.1767	12606.1	11650.45
859.7371	1104.1382	12788.5	11835.8
859.8821	1106.099	13037.45	12081.55
860.027	1108.0591	13221.5	12266.65
860.172	1110.0185	13378.05	12421.7
860.3169	1111.9771	13449.9	12492.7
860.4619	1113.9351	13273.15	12319.35
860.6068	1115.8923	13062.5	12111.4
860.7517	1117.8488	12834.1	11878.2
860.8967	1119.8045	12618.4	11664.6
861.0416	1121.7596	12489.35	11535
861.1865	1123.7139	12365	11411.95
861.3314	1125.6675	12372.5	11421.25
861.4763	1127.6204	12460.65	11508.45
861.6212	1129.5726	12399.55	11442.7
861.7661	1131.524	12341.8	11388.6
861.911	1133.4748	12261.95	11304.95
862.0559	1135.4248	12163.85	11206.1
862.2008	1137.3741	12096.4	11143.2
862.3457	1139.3226	12003.3	11048.1
862.4905	1141.2705	11969.6	11016.3
862.6354	1143.2176	11866.85	10905.6
862.7803	1145.164	11831.6	10876.1
862.9251	1147.1097	11800.65	10846.15
863.07	1149.0546	11773.15	10815.65
863.2148	1150.9989	11703.95	10747.6
863.3597	1152.9424	11574.7	10620.35
863.5045	1154.8852	11445.6	10492.1
863.6493	1156.8272	11390.35	10435.5
863.7942	1158.7686	11367.05	10407.4
863.939	1160.7092	11368.35	10412.35
864.0838	1162.6491	11401.65	10448.25
864.2286	1164.5883	11464.35	10508.3
864.3734	1166.5267	11589.55	10636.3
864.5182	1168.4644	11718.65	10769.1
864.663	1170.4014	11922.75	10969.35
864.8078	1172.3377	12182.05	11232.9
864.9526	1174.2732	12444.7	11494.25
865.0974	1176.2081	12735.15	11783.4
865.2421	1178.1421	13104.45	12148.35
865.3869	1180.0755	13493.8	12543.25
865.5317	1182.0082	13692.65	12746.15
865.6764	1183.9401	13803.95	12853.6
865.8212	1185.8713	13634.6	12692
865.9659	1187.8017	13376.2	12438.75
866.1106	1189.7315	13079.9	12152.55
866.2554	1191.6605	12746.4	11819.3
866.4001	1193.5888	12509.75	11572.75
866.5448	1195.5163	12368.85	11426.45
866.6895	1197.4432	12309.3	11362.9
866.8342	1199.3693	12240.55	11295.7
866.9789	1201.2947	12239.6	11289.65
867.1236	1203.2193	12220.05	11269.7
867.2683	1205.1432	12218.95	11274
867.413	1207.0664	12210.05	11262.55
867.5576	1208.9889	12209.65	11257.45
867.7023	1210.9106	12234.85	11284.4
867.847	1212.8316	12216.6	11268.55
867.9916	1214.7519	12276.45	11318.05
868.1363	1216.6715	12267.35	11318.4
868.2809	1218.5903	12342.05	11394.9
868.4255	1220.5084	12350.85	11400.75
868.5701	1222.4257	12393.95	11443.95
868.7148	1224.3424	12412.25	11467.75
868.8594	1226.2583	12483.7	11534.8
869.004	1228.1735	12608.75	11661.8
869.1486	1230.0879	12703.65	11757.85
869.2932	1232.0016	12850.3	11903.6
869.4377	1233.9146	12927	11978.5
869.5823	1235.8269	12859.5	11909.95
869.7269	1237.7384	12756.15	11808.25
869.8715	1239.6492	12587.4	11640.6
870.016	1241.5592	12525.15	11578.35
870.1606	1243.4686	12518.75	11570.9
870.3051	1245.3772	12566.1	11619.9
870.4496	1247.285	12668.6	11718.35
870.5941	1249.1922	12747.5	11798.9
870.7387	1251.0986	12793.15	11845.65
870.8832	1253.0042	12795.1	11850.6
871.0277	1254.9092	12859.25	11913.65
871.1722	1256.8134	12959.65	12016.6
871.3167	1258.7169	13079.9	12134.4
871.4611	1260.6196	13261.2	12314.85
871.6056	1262.5216	13493.25	12544.95
871.7501	1264.4229	13658.55	12716.7
871.8945	1266.3234	13839.6	12891.7
872.039	1268.2232	13920.7	12971.25
872.1834	1270.1223	13954.3	13006.35
872.3278	1272.0207	13980.4	13032.5
872.4723	1273.9183	13964.05	13014
872.6167	1275.8151	13923.4	12975.6
872.7611	1277.7113	13877.1	12931.1
872.9055	1279.6067	13826.85	12879.35
873.0499	1281.5014	13872.1	12922.75
873.1943	1283.3953	14038	13090.4
873.3386	1285.2885	14286.1	13340.55
873.483	1287.181	14500.65	13553.2
873.6274	1289.0727	14793.7	13851.2
873.7717	1290.9637	14967.2	14023.1
873.9161	1292.854	15160	14214.25
874.0604	1294.7435	15217.6	14271.85
874.2047	1296.6323	15251.45	14306.05
874.349	1298.5204	15276.7	14329.2
874.4933	1300.4077	15266.65	14319
874.6376	1302.2943	15272.85	14327.6
874.7819	1304.1802	15155.2	14208.65
874.9262	1306.0653	14884.9	13936.4
875.0705	1307.9497	14549.5	13605.85
875.2147	1309.8333	14252.05	13309.25
875.359	1311.7162	14076.9	13131.15
875.5032	1313.5984	14014.5	13065.8
875.6475	1315.4798	13920.95	12960.55
875.7917	1317.3605	13943.1	12982.4
875.9359	1319.2405	13923.6	12977.05
876.0801	1321.1197	13763.4	12815.45
876.2243	1322.9982	13548.65	12601.7
876.3685	1324.876	13384.3	12441.8
876.5127	1326.753	13186.55	12241.5
876.6569	1328.6293	13094.85	12145.85
876.801	1330.5048	13029.7	12084.5
876.9452	1332.3796	12912.6	11967.95
877.0893	1334.2537	12867.45	11900.45
877.2335	1336.127	12798.15	11857.65
877.3776	1337.9996	12754.85	11812.45
877.5217	1339.8714	12758.8	11809.7
877.6658	1341.7426	12781.85	11787.8
877.8099	1343.6129	12764.6	11819.75
877.954	1345.4826	12748.6	11804.6
878.0981	1347.3515	12757.8	11809.05
878.2422	1349.2196	12698.2	11749.6
878.3862	1351.087	12751.6	11806.4
878.5303	1352.9537	12753.05	11806.6
878.6743	1354.8197	12887.3	11940.7
878.8184	1356.6849	13056.6	12109
878.9624	1358.5493	13162.55	12215.15
879.1064	1360.4131	13311.1	12368.05
879.2504	1362.276	13331.1	12387.65
879.3944	1364.1383	13242.8	12300.25
879.5384	1365.9998	13047.55	12098.05
879.6823	1367.8606	12685.2	11737.35
879.8263	1369.7206	12356.8	11410.95
879.9702	1371.5799	12091.9	11143.8
880.1142	1373.4384	11842.85	10896
880.2581	1375.2962	11643	10692.4
880.402	1377.1533	11336.6	10394.5
880.5459	1379.0096	10993.5	10056.9
880.6898	1380.8652	10682.7	9744.7
880.8337	1382.7201	10424.5	9486.1
880.9776	1384.5742	10191	9249.1
881.1215	1386.4275	10022.7	9077
881.2653	1388.2802	9869.85	8924.85
881.4092	1390.132	9746.95	8798.3
881.553	1391.9832	9692.3	8743.9
881.6968	1393.8336	9601.8	8659.45
881.8406	1395.6832	9579.55	8632.75
881.9844	1397.5322	9519.75	8578.8
882.1282	1399.3803	9485.75	8537.45
882.272	1401.2278	9434.1	8494.95
882.4158	1403.0745	9487.45	8548.1
882.5595	1404.9204	9440.3	8501.4
882.7033	1406.7656	9456.05	8512.7
882.847	1408.6101	9467.65	8524.35
882.9908	1410.4538	9501.05	8558.65
883.1345	1412.2968	9540.95	8599.95
883.2782	1414.139	9567.15	8624.9
883.4219	1415.9805	9656.15	8713.35
883.5656	1417.8213	9723.15	8774.7
883.7092	1419.6613	9833.65	8896
883.8529	1421.5006	10000.2	9056.2
883.9965	1423.3391	10193.8	9251.2
884.1402	1425.1769	10506	9564.5
884.2838	1427.0139	10974.2	10032.75
884.4274	1428.8502	11485.2	10541.65
884.571	1430.6858	12023.9	11084.45
884.7146	1432.5206	12432.9	11493.85
884.8582	1434.3547	12654.05	11714.35
885.0018	1436.188	12674.65	11733.6
885.1453	1438.0206	12586.25	11643.85
885.2889	1439.8524	12434.3	11495.8
885.4324	1441.6835	12332.05	11391.35
885.5759	1443.5139	12226.9	11284.7
885.7194	1445.3435	12156.85	11216.15
885.8629	1447.1724	12110.7	11170.9
886.0064	1449.0005	12032.8	11097.15
886.1499	1450.8279	11994.4	11055.05
886.2933	1452.6545	11955.4	11019.2
886.4368	1454.4804	11949.1	11012.65
886.5802	1456.3056	11971.4	11028.25
886.7237	1458.13	11859	10921.5
886.8671	1459.9536	11677.75	10739.65
887.0105	1461.7766	11382.85	10444.2
887.1539	1463.5987	11032.95	10091.55
887.2972	1465.4202	10629.25	9689.7
887.4406	1467.2409	10289.8	9353.6
887.584	1469.0608	10029.6	9090.7
887.7273	1470.88	9748.85	8811.8
887.8706	1472.6984	9548.55	8609.85
888.0139	1474.5161	9325.9	8385.75
888.1572	1476.3331	9180.25	8241.85
888.3005	1478.1493	9060	8118.55
888.4438	1479.9648	8962.65	8022.1
888.5871	1481.7795	8875.15	7935.5
888.7303	1483.5935	8820.5	7880.15
888.8736	1485.4067	8743.9	7801.2
889.0168	1487.2192	8706.5	7767
889.16	1489.031	8633.6	7691.4
889.3032	1490.842	8598.15	7658.85
889.4464	1492.6522	8558.1	7619
889.5896	1494.4618	8491.2	7554.05
889.7327	1496.2705	8509.65	7573.75
889.8759	1498.0785	8466.65	7530.15
890.019	1499.8858	8419.6	7481.85
890.1622	1501.6924	8382.5	7447.6
890.3053	1503.4981	8346.25	7410.5
890.4484	1505.3032	8309.05	7373.85
890.5914	1507.1075	8279.25	7339.6
890.7345	1508.911	8233.3	7296.8
890.8776	1510.7138	8186.05	7247.35
891.0206	1512.5159	8151.95	7218.75
891.1637	1514.3172	8097.05	7158.65
891.3067	1516.1178	8032.6	7099.25
891.4497	1517.9176	8043.35	7104.85
891.5927	1519.7166	7984.35	7052.1
891.7357	1521.515	7936.35	6996
891.8786	1523.3126	7917.65	6982.4
892.0216	1525.1094	7905.05	6970.3
892.1645	1526.9055	7876.85	6943.45
892.3074	1528.7008	7829.15	6897.15
892.4503	1530.4954	7809.15	6875.45
892.5932	1532.2893	7793.25	6863.9
892.7361	1534.0824	7763.3	6829.3
892.879	1535.8747	7743.85	6813.95
893.0218	1537.6663	7717.65	6786.6
893.1647	1539.4572	7725.65	6793.6
893.3075	1541.2473	7713.35	6781.9
893.4503	1543.0367	7737.9	6806.9
893.5931	1544.8253	7704.8	6773
893.7359	1546.6132	7721.4	6789.1
893.8787	1548.4003	7738.05	6798.9
894.0214	1550.1867	7777.4	6841.7
894.1642	1551.9723	7811.6	6880.1
894.3069	1553.7572	7872.2	6943.8
894.4496	1555.5414	7969.9	7040.85
894.5923	1557.3247	8047	7122.25
894.735	1559.1074	8148.4	7225.95
894.8777	1560.8893	8265.6	7343.25
895.0204	1562.6705	8373.45	7446.8
895.163	1564.4509	8495.55	7573.6
895.3056	1566.2305	8542.25	7620.95
895.4482	1568.0094	8587.65	7669.65
895.5908	1569.7876	8593.3	7676.25
895.7334	1571.565	8590.7	7668.95
895.876	1573.3417	8587.25	7663.05
896.0186	1575.1176	8547.4	7626.9
896.1611	1576.8928	8541.25	7620.75
896.3036	1578.6672	8473.75	7561.2
896.4461	1580.4409	8434.75	7522.75
896.5886	1582.2138	8381.35	7463.45
896.7311	1583.986	8351.2	7434.8
896.8736	1585.7575	8352.4	7435.65
897.0161	1587.5282	8332.25	7419.5
897.1585	1589.2981	8384.85	7470.2
897.3009	1591.0673	8395.55	7483.55
897.4433	1592.8358	8476.5	7563.65
897.5857	1594.6035	8517.45	7599.35
897.7281	1596.3704	8566.8	7647.5
897.8705	1598.1366	8632	7717.2
898.0128	1599.9021	8729.15	7814.4
898.1551	1601.6668	8787.05	7873.25
898.2975	1603.4308	8880	7961.45
898.4398	1605.194	9039.45	8119.55
898.5821	1606.9564	9181.5	8272.7
898.7243	1608.7182	9414.2	8508.45
898.8666	1610.4791	9610.55	8711.3
899.0088	1612.2394	9846.2	8948.9
899.1511	1613.9988	10084.6	9182.05
899.2933	1615.7576	10290.75	9381.65
899.4355	1617.5156	10533.25	9613
899.5776	1619.2728	10650.55	9734.2
899.7198	1621.0293	10671.45	9756.95
899.862	1622.785	10563.3	9650.8
900.0041	1624.54	10372.65	9463.7
900.1462	1626.2942	10132	9222.75
900.2883	1628.0477	9833	8921.25
900.4304	1629.8005	9550.95	8637.75
900.5725	1631.5525	9280.7	8374.1
900.7145	1633.3037	9074.7	8171.45
900.8566	1635.0542	8927.4	8019.8
900.9986	1636.804	8759.6	7851.95
901.1406	1638.553	8787.05	7786.4
901.2826	1640.3013	8648.8	7741.4
901.4245	1642.0488	8608.2	7696.45
901.5665	1643.7955	8647.4	7745.05
901.7085	1645.5416	8726.75	7823.1
901.8504	1647.2868	8833.9	7927.1
901.9923	1649.0313	8941.4	8030.75
902.1342	1650.7751	9084.7	8175.05
902.2761	1652.5181	9231.35	8325.15
902.4179	1654.2604	9436.25	8533.15
902.5598	1656.0019	9636.35	8732.3
902.7016	1657.7427	9915.85	9008.8
902.8434	1659.4828	10186.6	9276.75
902.9852	1661.222	10338.1	9426.55
903.127	1662.9606	10322.25	9413.95
903.2687	1664.6984	10092.95	9181.2
903.4105	1666.4354	9664.8	8750.8
903.5522	1668.1717	9095.1	8183.15
903.6939	1669.9072	8564.4	7650.4
903.8356	1671.642	8107.9	7193.4
903.9773	1673.3761	7756.95	6847.3
904.119	1675.1094	7438.1	6528.3
904.2606	1676.8419	7189.85	6282.1
904.4022	1678.5737	7002.6	6093.3
904.5439	1680.3048	6863.65	5954.55
904.6855	1682.0351	6714.25	5805.3
904.827	1683.7646	6613.6	5699.25
904.9686	1685.4934	6549.35	5642.35
905.1101	1687.2215	6461.45	5553.65
905.2517	1688.9488	6383.35	5478.2
905.3932	1690.6754	6336.05	5432.9
905.5347	1692.4012	6306.1	5397.6
905.6761	1694.1263	6242.45	5332.65
905.8176	1695.8506	6220.5	5312.75
905.9591	1697.5742	6175	5271.05
906.1005	1699.297	6130	5229.2
906.2419	1701.0191	6069.4	5169.2
906.3833	1702.7404	6057.75	5157.35
906.5246	1704.461	6002.3	5095.7
906.666	1706.1808	5973.85	5068.35
906.8073	1707.8999	5936.4	5034.65
906.9487	1709.6182	5924.9	5025.15
907.09	1711.3358	5882.35	4985.8
907.2313	1713.0527	5871.55	4975.25
907.3725	1714.7688	5840.5	4936.85
907.5138	1716.4841	5814.15	4909.15
907.655	1718.1987	5796.75	4887.25
907.7962	1719.9126	5760.8	4862
907.9374	1721.6257	5752.85	4850.85
908.0786	1723.338	5731.35	4833.55
908.2198	1725.0496	5711.7	4809.05
908.3609	1726.7605	5707.75	4806.6
908.502	1728.4706	5683.1	4782.15
908.6431	1730.18	5639.5	4742.6
908.7842	1731.8886	5618.9	4723.2
908.9253	1733.5964	5618.9	4700.9
909.0664	1735.3036	5589.95	4689.35
909.2074	1737.0099	5582.8	4686.1
909.3484	1738.7156	5553.6	4657.9
909.4894	1740.4204	5521.4	4621.9
909.6304	1742.1246	5513.7	4612.55
909.7714	1743.8279	5471.95	4572.15
909.9123	1745.5306	5450.8	4552.95
910.0532	1747.2325	5427.95	4530.8
910.1941	1748.9336	5412.7	4510.75
910.335	1750.634	5386.95	4485.15
910.4759	1752.3336	5374.65	4476.55
910.6168	1754.0325	5371.35	4477.25
910.7576	1755.7307	5352.35	4457.9
910.8984	1757.4281	5348.75	4449.25
911.0392	1759.1247	5364.35	4454.85
911.18	1760.8206	5343.9	4435.8
911.3208	1762.5158	5317.75	4411.45
911.4615	1764.2102	5303.7	4403.75
911.6022	1765.9039	5253.15	4355.95
911.7429	1767.5968	5240.65	4344.7
911.8836	1769.289	5242.25	4345.7
912.0243	1770.9804	5229.25	4328.2
912.1649	1772.6711	5223.95	4322.95
912.3056	1774.361	5205.7	4302.35
912.4462	1776.0502	5209.55	4309.7
912.5868	1777.7386	5195.7	4291.9
912.7274	1779.4263	5181.75	4282.65
912.8679	1781.1132	5173.1	4278.25
913.0084	1782.7994	5135.6	4240.7
913.149	1784.4849	5142.2	4249.65
913.2895	1786.1696	5129.7	4227.55
913.4299	1787.8535	5098.2	4205.85
913.5704	1789.5367	5096.3	4203.35
913.7108	1791.2192	5092.7	4198.6
913.8513	1792.9009	5094.55	4175.75
913.9917	1794.5818	5081.7	4181.25
914.132	1796.2621	5055.35	4157.7
914.2724	1797.9415	5029.05	4130.85
914.4128	1799.6202	5029.95	4131.05
914.5531	1801.2982	5007.55	4106.5
914.6934	1802.9755	5020.8	4120.95
914.8337	1804.6519	4998.9	4100.65
914.9739	1806.3277	4981.25	4085.6
915.1142	1808.0027	4966.35	4075.65
915.2544	1809.6769	4957.75	4066.85
915.3946	1811.3504	4941.8	4051.75
915.5348	1813.0231	4942.2	4050.35
915.675	1814.6951	4939.4	4045.1
915.8151	1816.3664	4932.45	4031.4
915.9553	1818.0369	4912.1	4013.7
916.0954	1819.7067	4908.15	4012.95
916.2355	1821.3757	4906.7	4004.35
916.3755	1823.044	4906.15	4007.3
916.5156	1824.7115	4891.25	3994.75
916.6556	1826.3783	4867.35	3971
916.7956	1828.0443	4843.85	3949.85
916.9356	1829.7096	4845.25	3947.1
917.0756	1831.3741	4844.35	3943.6
917.2155	1833.0379	4832.1	3938.25
917.3555	1834.701	4795.65	3904.2
917.4954	1836.3633	4801.65	3911.1
917.6353	1838.0248	4783.05	3887.5
917.7751	1839.6856	4770.8	3876.6
917.915	1841.3457	4782.1	3886.4
918.0548	1843.005	4769.25	3869.15
918.1946	1844.6636	4776.6	3880
918.3344	1846.3214	4745.5	3847.75
918.4742	1847.9785	4744.35	3849.05
918.6139	1849.6349	4743.5	3845.1
918.7537	1851.2904	4717.3	3810.8
918.8934	1852.9453	4716	3818.2
919.0331	1854.5994	4699.2	3800.95
919.1727	1856.2528	4711.3	3811.35
919.3124	1857.9054	4691.6	3793.8
919.452	1859.5572	4689	3794.95
919.5916	1861.2083	4674.7	3777.55
919.7312	1862.8587	4660	3763.65
919.8708	1864.5084	4662.8	3762.85
920.0103	1866.1572	4645.25	3746.25
920.1498	1867.8054	4631.85	3730.85
920.2893	1869.4528	4635.35	3735.35
920.4288	1871.0994	4632.85	3733.45
920.5683	1872.7453	4621.05	3723.2
920.7077	1874.3905	4616.2	3703.35
920.8471	1876.0349	4583.45	3687.15
920.9865	1877.6786	4583.95	3684.55
921.1259	1879.3215	4575.2	3678.2
921.2653	1880.9637	4558	3658.75
921.4046	1882.6051	4564.8	3669.6
921.5439	1884.2458	4540.25	3644.1
921.6832	1885.8858	4530	3632.35
921.8225	1887.525	4515.1	3616.25
921.9617	1889.1634	4491.75	3595.85
922.101	1890.8011	4483.9	3583.55
922.2402	1892.4381	4490.55	3592.4
922.3794	1894.0743	4481.1	3583.2
922.5185	1895.7098	4465.7	3566.9
922.6577	1897.3446	4457.55	3561.3
922.7968	1898.9786	4469.6	3568.4
922.9359	1900.6118	4439.85	3543.8
923.075	1902.2443	4424.15	3528
923.214	1903.8761	4417.1	3521.8
923.3531	1905.5071	4392.4	3494.4
923.4921	1907.1374	4398.05	3503.65
923.6311	1908.7669	4382.4	3487.7
923.77	1910.3957	4375.55	3481.2
923.909	1912.0237	4361.35	3464
924.0479	1913.651	4341.75	3445.15
924.1868	1915.2776	4319.65	3424.7
924.3257	1916.9034	4309.15	3414.05
924.4646	1918.5285	4305.35	3413.75
924.6034	1920.1528	4291.5	3394.3
924.7422	1921.7764	4294.05	3397.4
924.881	1923.3992	4284.35	3388
925.0198	1925.0213	4260.5	3366.05
925.1586	1926.6427	4244.8	3351.05
925.2973	1928.2633	4419.55	3311.4
925.436	1929.8832	4262.6	3363.2
925.5747	1931.5023	4211.75	3314.3
925.7134	1933.1207	4208.05	3313.5
925.852	1934.7383	4189.6	3294.25
925.9906	1936.3552	4164.55	3273.6
926.1292	1937.9714	4176.9	3282.35
926.2678	1939.5868	4162.85	3266.7
926.4064	1941.2015	4134.05	3236.7
926.5449	1942.8154	4125.1	3227.35
926.6834	1944.4286	4110	3212.85
926.8219	1946.041	4097.2	3189
926.9604	1947.6528	4097.7	3196.05
927.0988	1949.2637	4077.3	3182.55
927.2372	1950.8739	4062.65	3168.1
927.3756	1952.4834	4050	3155.65
927.514	1954.0921	4051.1	3155.65
927.6523	1955.7001	4052.7	3156.2
927.7907	1957.3074	4043.35	3153.9
927.929	1958.9139	4019.45	3130.1
928.0673	1960.5197	4009.45	3118.8
928.2055	1962.1247	3969.7	3078.45
928.3438	1963.729	3976.25	3088.2
928.482	1965.3325	3966.05	3070.55
928.6202	1966.9353	3936.4	3048.05
928.7584	1968.5374	3944.2	3054.35
928.8965	1970.1387	3938.7	3047.85
929.0346	1971.7393	3921.9	3031.2
929.1727	1973.3392	3905.65	3015.2
929.3108	1974.9383	3893.45	3006.75
929.4489	1976.5366	3875.1	2987.05
929.5869	1978.1342	3865.95	2977.7
929.7249	1979.7311	3876.75	2991.15
929.8629	1981.3273	3849.9	2961.8
930.0009	1982.9227	3844.85	2956.65
930.1388	1984.5173	3826.5	2940.7
930.2767	1986.1112	3831	2943.7
930.4146	1987.7044	3822.85	2935.9
930.5525	1989.2968	3805.35	2915.45
930.6904	1990.8885	3801.1	2908.85
930.8282	1992.4795	3786.75	2898.45
930.966	1994.0697	3766.65	2881.35
931.1038	1995.6592	3756.95	2870.9
931.2415	1997.2479	3756.35	2870.15
931.3793	1998.8359	3749.05	2863.85
931.517	2000.4232	3730.5	2848.05
931.6547	2002.0097	3717.3	2835.8
931.7923	2003.5955	3723.85	2841.9
931.93	2005.1805	3715.5	2831.15
932.0676	2006.7648	3713.85	2830.8
932.2052	2008.3484	3692.9	2809.15
932.3427	2009.9312	3694.3	2809.3
932.4803	2011.5133	3676.3	2796.6
932.6178	2013.0946	3677.6	2795.15
932.7553	2014.6752	3666.4	2784.45
932.8928	2016.2551	3667.9	2781.7
933.0302	2017.8342	3646.95	2763.8
933.1676	2019.4126	3651.95	2768.3
933.305	2020.9902	3623.25	2741.2
933.4424	2022.5672	3618.75	2736.55
933.5798	2024.1433	3613.9	2730.45
933.7171	2025.7188	3601.9	2724.45
933.8544	2027.2935	3606.4	2724.35
933.9917	2028.8674	3575.65	2695.5
934.129	2030.4406	3586.2	2707.3
934.2662	2032.0131	3555.5	2676.05
934.4034	2033.5849	3570.05	2687.6
934.5406	2035.1559	3565.6	2683.65
934.6778	2036.7261	3555.15	2673.05
934.8149	2038.2957	3538.9	2652.05
934.952	2039.8645	3545.7	2658.8
935.0891	2041.4325	3551.3	2664.8
935.2262	2042.9998	3534.05	2652.35
935.3632	2044.5664	3525.25	2642.6
935.5002	2046.1323	3500.75	2620.3
935.6372	2047.6974	3493.7	2615.2
935.7742	2049.2617	3486.6	2605.75
935.9111	2050.8254	3507.05	2602.15
936.048	2052.3883	3473.25	2590.25
936.1849	2053.9504	3471.55	2586.5
936.3218	2055.5118	3475.2	2588.3
936.4586	2057.0725	3466.75	2581.3
936.5955	2058.6325	3440.95	2558.6
936.7323	2060.1917	3430.8	2548.05
936.869	2061.7502	3440.7	2556.75
937.0058	2063.3079	3419.15	2539.35
937.1425	2064.8649	3408.05	2523.05
937.2792	2066.4212	3415.7	2531.7
937.4159	2067.9767	3415.9	2533
937.5525	2069.5315	3390.65	2506.25
937.6891	2071.0856	3384.15	2501.95
937.8257	2072.6389	3371.9	2487.95
937.9623	2074.1915	3361.3	2480.95
938.0989	2075.7433	3358.6	2477.1
938.2354	2077.2945	3339.5	2457.05
938.3719	2078.8448	3337.55	2452.45
938.5084	2080.3945	3338.2	2453.85
938.6448	2081.9434	3314.45	2426.8
938.7812	2083.4916	3309.45	2423.15
938.9176	2085.039	3317.35	2423.7
939.054	2086.5857	3325.25	2431.35
939.1903	2088.1317	3306.05	2414.75
939.3267	2089.677	3288.85	2396.55
939.463	2091.2215	3275.35	2383.25
939.5992	2092.7652	3297.4	2402.85
939.7355	2094.3083	3274.55	2381.3
939.8717	2095.8506	3274.95	2387.5
940.0079	2097.3921	3243.85	2355.5
940.1441	2098.933	3252.35	2363.75
940.2802	2100.4731	3243.5	2357.6
940.4163	2102.0124	3252.65	2356.45
940.5524	2103.5511	3240.15	2350.35
940.6885	2105.089	3244.8	2355.75
940.8245	2106.6261	3232.05	2344
940.9606	2108.1626	3213.15	2329.1
941.0965	2109.6983	3240.2	2327.25
941.2325	2111.2332	3207.55	2319.2
941.3684	2112.7675	3207.5	2317.35
941.5044	2114.301	3185.3	2293.45
941.6403	2115.8337	3204.4	2316.75
941.7761	2117.3657	3193.75	2305.3
941.912	2118.897	3179.55	2294.35
942.0478	2120.4276	3172.8	2277.95
942.1835	2121.9575	3163.65	2271.15
942.3193	2123.4866	3168.1	2275.05
942.455	2125.0149	3146.75	2254.15
942.5907	2126.5426	3135	2248.7
942.7264	2128.0695	3130.65	2244.5
942.8621	2129.5956	3115.4	2237.2
942.9977	2131.1211	3120.25	2233.55
943.1333	2132.6458	3126.5	2240.85
943.2689	2134.1698	3126.1	2237.25
943.4044	2135.693	3120.45	2224.7
943.54	2137.2155	3110.2	2218.35
943.6755	2138.7373	3104	2216.1
943.8109	2140.2584	3082.1	2196.65
943.9464	2141.7787	3082.3	2193.55
944.0818	2143.2983	3071	2191.8
944.2172	2144.8171	3056.15	2176.35
944.3526	2146.3353	3063.35	2177.35
944.4879	2147.8527	3042.4	2159.3
944.6232	2149.3693	3057.55	2169.8
944.7585	2150.8853	3040.85	2151.95
944.8938	2152.4005	3032.9	2142.9
945.029	2153.9149	3034.75	2143.65
945.1642	2155.4287	3028.8	2136.95
945.2994	2156.9417	3017.95	2126.2
945.4346	2158.454	3007.55	2119.2
945.5697	2159.9655	3016.75	2130
945.7048	2161.4764	2997.15	2115.7
945.8399	2162.9865	2994	2108.5
945.9749	2164.4958	2988.15	2104.05
946.1099	2166.0045	2964.55	2075
946.2449	2167.5124	2977.9	2090.2
946.3799	2169.0195	2971.1	2084.6
946.5148	2170.526	2968.6	2076.5
946.6498	2172.0317	2964.25	2075.25
946.7846	2173.5367	2956.7	2069.85
946.9195	2175.0409	2952.25	2063.9
947.0543	2176.5445	2953.05	2065.1
947.1891	2178.0473	2938.35	2046.5
947.3239	2179.5494	2930.3	2038.35
947.4587	2181.0507	2937.95	2049.25
947.5934	2182.5513	2922.05	2034.55
947.7281	2184.0512	2913.65	2023.6
947.8628	2185.5504	2909.75	2019.75
947.9974	2187.0488	2891.8	2006.7
948.132	2188.5465	2888.9	2005.1
948.2666	2190.0435	2890.95	2002.75
948.4012	2191.5397	2882.9	1993.7
948.5357	2193.0353	2876.7	1986.85
948.6702	2194.5301	2865.65	1974.5
948.8047	2196.0241	2867.3	1973.5
948.9392	2197.5175	2863	1970.2
949.0736	2199.0101	2843.65	1946.8
949.208	2200.502	2838.95	1949.45
949.3424	2201.9931	2827.6	1940.6
949.4767	2203.4835	2820.55	1935.65
949.611	2204.9733	2825.2	1934.2
949.7453	2206.4622	2807.5	1924.3
949.8796	2207.9505	2807.25	1922
950.0138	2209.438	2788.6	1909.4
950.148	2210.9248	2790	1906.3
950.2822	2212.4109	2776.3	1888.1
950.4164	2213.8962	2780.7	1889.5
950.5505	2215.3809	2778.5	1883.2
950.6846	2216.8648	2787.95	1893
950.8186	2218.3479	2761.4	1860.65
950.9527	2219.8304	2764.2	1862.8
951.0867	2221.3121	2752.55	1855.75
951.2207	2222.7931	2752.45	1859.15
951.3546	2224.2733	2742.7	1851.65
951.4886	2225.7529	2720.7	1830.7
951.6225	2227.2317	2716.55	1827.55
951.7563	2228.7098	2714.2	1829.5
951.8902	2230.1872	2712.75	1828.55
952.024	2231.6638	2718.15	1835.5
952.1578	2233.1397	2704.25	1816.25
952.2916	2234.6149	2683.85	1798.5
952.4253	2236.0894	2680.4	1793.7
952.559	2237.5632	2695.15	1796.5
952.6927	2239.0362	2682.6	1795.2
952.8263	2240.5085	2666.35	1779.2
952.9599	2241.9801	2664.95	1774.85
953.0935	2243.4509	2664.45	1773.9
953.2271	2244.921	2667.1	1772.95
953.3606	2246.3904	2657.3	1760.15
953.4941	2247.8591	2642.1	1751.65
953.6276	2249.3271	2624.15	1733.85
953.7611	2250.7943	2619.35	1729.55
953.8945	2252.2608	2615	1724.95
954.0279	2253.7266	2620.95	1730.3
954.1612	2255.1917	2612.5	1723.05
954.2946	2256.656	2597.75	1710.3
954.4279	2258.1197	2589.1	1701.75
954.5612	2259.5826	2583.5	1695.45
954.6944	2261.0447	2602.5	1712.85
954.8276	2262.5062	2580.15	1687
954.9608	2263.9669	2574.45	1681.55
955.094	2265.4269	2568.7	1677.85
955.2271	2266.8862	2566.7	1679.85
955.3602	2268.3448	2567.15	1678.2
955.4933	2269.8026	2567.7	1681.45
955.6264	2271.2598	2560	1673.25
955.7594	2272.7162	2551.5	1663.75
955.8924	2274.1719	2544.4	1653.7
956.0253	2275.6268	2547.15	1655.05
956.1583	2277.0811	2539.35	1648.35
956.2912	2278.5346	2532.75	1645.25
956.4241	2279.9874	2544.25	1658.4
956.5569	2281.4395	2525.2	1639.4
956.6897	2282.8908	2529	1637
956.8225	2284.3414	2519.7	1628.35
956.9553	2285.7914	2508.1	1622.3
957.088	2287.2406	2510.15	1618.55
957.2207	2288.689	2507.95	1616.1
957.3534	2290.1368	2508.55	1611.9
957.486	2291.5838	2513.8	1615.6
957.6186	2293.0302	2490.7	1593.35
957.7512	2294.4758	2481.15	1590.85
957.8838	2295.9206	2484.05	1591.6
958.0163	2297.3648	2486.35	1595.65
958.1488	2298.8082	2479.4	1590.4
958.2813	2300.251	2462.35	1570.8
958.4137	2301.693	2475.35	1578.45
958.5461	2303.1343	2474.75	1581
958.6785	2304.5748	2454.75	1564.25
958.8108	2306.0147	2457.25	1570.75
958.9432	2307.4538	2459.25	1570.3
959.0754	2308.8922	2431.9	1550.05
959.2077	2310.3299	2429.8	1545.1
959.3399	2311.7669	2435.3	1548.75
959.4721	2313.2031	2427.9	1536.95
959.6043	2314.6387	2420.15	1529.9
959.7365	2316.0735	2415.45	1523.6
959.8686	2317.5076	2420.95	1531.45
960.0006	2318.941	2410.25	1519.6
960.1327	2320.3737	2411.4	1516.55
960.2647	2321.8056	2401.55	1507.65
960.3967	2323.2369	2396.3	1504.55
960.5287	2324.6674	2396.15	1505.6
960.6606	2326.0972	2392.4	1500.8
960.7925	2327.5263	2379.1	1488.1
960.9244	2328.9547	2373.1	1481.75
961.0562	2330.3823	2379.8	1484.6
961.1881	2331.8092	2383.9	1486.4
961.3198	2333.2355	2375.15	1480.15
961.4516	2334.661	2376.4	1480.7
961.5833	2336.0858	2362.05	1467.7
961.715	2337.5098	2345.9	1453.2
961.8467	2338.9332	2356.35	1464.15
961.9783	2340.3558	2352.95	1463.55
962.1099	2341.7778	2337.8	1449.55
962.2415	2343.199	2331.1	1442.8
962.373	2344.6195	2325.1	1435.85
962.5045	2346.0393	2334.95	1447.7
962.636	2347.4583	2331.65	1441.65
962.7675	2348.8767	2326.3	1433.7
962.8989	2350.2943	2325.95	1434.05
963.0303	2351.7113	2323.55	1428.15
963.1617	2353.1275	2321.9	1427.2
963.293	2354.543	2316.2	1414.7
963.4243	2355.9578	2306	1414.3
963.5556	2357.3718	2304.35	1415.4
963.6868	2358.7852	2304.95	1414.8
963.818	2360.1978	2295.15	1403.85
963.9492	2361.6098	2283.3	1395.6
964.0803	2363.021	2288.75	1395.7
964.2114	2364.4315	2286	1395.8
964.3425	2365.8413	2286.2	1395.6
964.4736	2367.2504	2269.95	1383.1
964.6046	2368.6587	2268.2	1382.6
964.7356	2370.0664	2258.6	1371.5
964.8666	2371.4733	2265.5	1376.2
964.9975	2372.8795	2252.4	1362.4
965.1284	2374.285	2254.55	1366.5
965.2593	2375.6899	2244.7	1357.3
965.3901	2377.0939	2234.65	1346.6
965.5209	2378.4973	2219.4	1334.3
965.6517	2379.9	2223.7	1335.35
965.7825	2381.3019	2218.7	1332.35
965.9132	2382.7032	2216.4	1331.85
966.0439	2384.1037	2212	1326.4
966.1745	2385.5035	2208.25	1324.4
966.3051	2386.9027	2206.4	1321.65
966.4357	2388.3011	2203.75	1316.65
966.5663	2389.6987	2194	1306.8
966.6968	2391.0957	2189.5	1305.55
966.8273	2392.492	2190.65	1307.4
966.9578	2393.8876	2166.4	1277.9
967.0882	2395.2824	2173.15	1287.05
967.2186	2396.6765	2159.95	1274.35
967.349	2398.07	2157.4	1269.85
967.4793	2399.4627	2160.55	1271.25
967.6097	2400.8547	2161.65	1272.75
967.7399	2402.246	2170.5	1275.9
967.8702	2403.6366	2143.75	1256.6
968.0004	2405.0265	2146.8	1260.4
968.1306	2406.4156	2140.15	1250.95
968.2607	2407.8041	2129.2	1240.3
968.3909	2409.1918	2129.75	1238.55
968.521	2410.5789	2118.3	1231.55
968.651	2411.9652	2130.7	1239.5
968.781	2413.3508	2121.65	1233.3
968.911	2414.7358	2115.55	1226.65
969.041	2416.12	2115.5	1229.4
969.1709	2417.5035	2108.5	1220.9
969.3008	2418.8863	2106.25	1218.75
969.4307	2420.2684	2101.65	1212.5
969.5606	2421.6497	2100.25	1212.25
969.6904	2423.0304	2087.4	1199.8
969.8201	2424.4104	2090.75	1201.1
969.9499	2425.7896	2078.35	1189
970.0796	2427.1682	2072.45	1188.8
970.2093	2428.546	2077.55	1188.95
970.3389	2429.9232	2067.3	1176.7
970.4685	2431.2996	2065.75	1177.75
970.5981	2432.6753	2064.7	1179.35
970.7277	2434.0503	2073	1185.2
970.8572	2435.4246	2062.8	1175.75
970.9867	2436.7982	2061.5	1169.35
971.1161	2438.1711	2043.45	1155.6
971.2456	2439.5433	2042.4	1151.85
971.375	2440.9148	2043.6	1150.05
971.5043	2442.2856	2037.95	1149.25
971.6336	2443.6557	2027.9	1138.05
971.7629	2445.025	2021.55	1134.15
971.8922	2446.3937	2028.1	1139.15
972.0214	2447.7617	2025.9	1136.5
972.1506	2449.1289	2026.55	1138.45
972.2798	2450.4955	2022.05	1130.35
972.4089	2451.8613	2015.95	1131.25
972.538	2453.2265	2009.35	1120.3
972.6671	2454.5909	2009.4	1119.75
972.7961	2455.9546	2005.6	1117.7
972.9251	2457.3177	2002.05	1114.95
973.0541	2458.68	1995.5	1105.8
973.1831	2460.0416	2007.55	1121.1
973.312	2461.4025	1996.7	1107.6
973.4408	2462.7627	2002.4	1104.9
973.5697	2464.1222	1992.55	1107.45
973.6985	2465.4811	1985.4	1099.05
973.8273	2466.8392	1977.85	1090.35
973.956	2468.1966	1983.3	1094.85
974.0847	2469.5533	1987.95	1097.45
974.2134	2470.9093	1980.55	1091.1
974.3421	2472.2645	1980.7	1092
974.4707	2473.6191	1978.1	1088.85
974.5993	2474.973	1962.4	1073.4
974.7278	2476.3262	1967.7	1078.25
974.8563	2477.6787	1962.2	1072.9
974.9848	2479.0305	1959.55	1071.75
975.1132	2480.3816	1953.45	1064.5
975.2417	2481.7319	1952.1	1064.35
975.37	2483.0816	1942.95	1052.6
975.4984	2484.4306	1945.85	1055.5
975.6267	2485.7789	1941.15	1055.75
975.755	2487.1264	1933.1	1044.5
975.8833	2488.4733	1929.45	1043.25
976.0115	2489.8195	1934	1040.6
976.1397	2491.165	1925.45	1034.65
976.2678	2492.5097	1923.3	1035
976.3959	2493.8538	1915.1	1030.85
976.524	2495.1972	1909.95	1021.5
976.6521	2496.5398	1917.15	1025.65
976.7801	2497.8818	1910.6	1019.95
976.9081	2499.2231	1904	1014.45
977.036	2500.5637	1897.65	1007.45
977.164	2501.9035	1899.8	1009.55
977.2918	2503.2427	1898.8	1005.9
977.4197	2504.5812	1894.1	1005.05
977.5475	2505.919	1891.35	1001.4
977.6753	2507.256	1887.4	1000.9
977.8031	2508.5924	1881.5	992
977.9308	2509.9281	1882.1	987.9
978.0585	2511.2631	1881.1	995
978.1861	2512.5974	1875.3	987.75
978.3137	2513.9309	1867.35	979.8
978.4413	2515.2638	1891.15	976.2
978.5689	2516.596	1872.55	982.95
978.6964	2517.9275	1863.3	973.6
978.8239	2519.2583	1861.85	973.5
978.9513	2520.5884	1864.5	975.2
979.0788	2521.9178	1850.45	962.95
979.2062	2523.2465	1839.2	952.45
979.3335	2524.5745	1840.3	954.9
979.4608	2525.9018	1844.1	953.65
979.5881	2527.2284	1846.1	958.2
979.7154	2528.5543	1835.6	948.4
979.8426	2529.8796	1836.8	948.65
979.9698	2531.2041	1831.05	945.05
980.0969	2532.5279	1838.15	954.25
980.224	2533.851	1826.25	938.5
980.3511	2535.1735	1819.05	930.55
980.4781	2536.4952	1824.65	937
980.6052	2537.8163	1829.05	940.15
980.7321	2539.1366	1826.95	939.4
980.8591	2540.4562	1824.35	934.35
980.986	2541.7752	1831.55	942.15
981.1129	2543.0935	1818.6	927.85
981.2397	2544.411	1814.9	924.9
981.3665	2545.7279	1812.7	922.65
981.4933	2547.0441	1815.3	926.7
981.62	2548.3596	1816.3	925.8
981.7467	2549.6744	1803.4	913.95
981.8734	2550.9885	1802.55	912.95
982.0001	2552.3019	1800.3	910.7
982.1267	2553.6146	1795	905.75
982.2532	2554.9266	1798.6	909.6
982.3798	2556.2379	1807.15	915.75
982.5063	2557.5485	1788.75	901.35
982.6327	2558.8585	1795.2	899.65
982.7592	2560.1677	1795.7	900.85
982.8856	2561.4762	1790.6	900.45
983.0119	2562.7841	1778.65	884.95
983.1383	2564.0913	1774.95	888.4
983.2646	2565.3977	1779	892.6
983.3908	2566.7035	1780.7	890.25
983.517	2568.0086	1774.15	882.5
983.6432	2569.313	1774.9	885.6
983.7694	2570.6167	1777.15	885.05
983.8955	2571.9197	1773.3	885.7
984.0216	2573.222	1769.9	877.7
984.1476	2574.5236	1774.25	885.25
984.2737	2575.8246	1769.8	879
984.3996	2577.1248	1765.55	876.35
984.5256	2578.4244	1762.1	871.65
984.6515	2579.7232	1769.6	881.8
984.7774	2581.0214	1789.25	870.2
984.9032	2582.3189	1764.55	874.65
985.029	2583.6157	1765.15	871.65
985.1548	2584.9118	1754.5	863.7
985.2806	2586.2072	1757.05	865.1
985.4063	2587.5019	1758.25	870.25
985.5319	2588.7959	1756.55	867.85
985.6576	2590.0893	1758.45	869.85
985.7832	2591.3819	1755	866.05
985.9087	2592.6739	1754	867.15
986.0343	2593.9652	1757.45	867.45
986.1597	2595.2557	1750.1	861
986.2852	2596.5456	1750.65	858.7
986.4106	2597.8348	1745.55	857.9
986.536	2599.1234	1750.55	861.4
986.6614	2600.4112	1744.65	858.4
986.7867	2601.6983	1759.05	868
986.912	2602.9848	1746.3	859.8
987.0372	2604.2705	1748.55	854.4
987.1624	2605.5556	1748.35	858.95
987.2876	2606.84	1754	866.25
987.4128	2608.1237	1737.8	848.25
987.5379	2609.4067	1731.75	842.2
987.6629	2610.689	1740.95	843.75
987.788	2611.9707	1735.6	841.7
987.913	2613.2516	1730.7	840.35
988.0379	2614.5319	1718.7	831
988.1629	2615.8115	1714.9	827.15
988.2878	2617.0903	1707.15	818.6
988.4126	2618.3685	1713.6	827
988.5375	2619.6461	1710.65	822.25
988.6622	2620.9229	1704.15	815.9
988.787	2622.199	1703	816.35
988.9117	2623.4745	1706.95	819.45
989.0364	2624.7493	1704.2	814.95
989.161	2626.0234	1703.6	817
989.2857	2627.2968	1695.4	805.85
989.4102	2628.5695	1693.2	803.8
989.5348	2629.8415	1690.25	802.8
989.6593	2631.1128	1692.05	803.75
989.7837	2632.3835	1687.85	801.8
989.9082	2633.6535	1687.75	799.65
990.0326	2634.9228	1684.35	796.75
990.1569	2636.1914	1688.2	801.85
990.2812	2637.4593	1684.45	794.45
990.4055	2638.7265	1675.95	788.45
990.5298	2639.9931	1671.85	781.5
990.654	2641.259	1675.9	787.15
990.7782	2642.5242	1674.15	788.65
990.9023	2643.7887	1671.65	783.05
991.0264	2645.0525	1669.9	783.4
991.1505	2646.3156	1660.9	771.5
991.2745	2647.5781	1657.75	770.25
991.3985	2648.8398	1663.55	778.75
991.5225	2650.1009	1690.75	763.6
991.6464	2651.3613	1665.8	778.65
991.7703	2652.6211	1654.05	766.5
991.8942	2653.8801	1648.05	764.1
992.018	2655.1385	1656.55	766.35
992.1418	2656.3961	1652.4	765.75
992.2655	2657.6531	1650	762.55
992.3892	2658.9094	1649.25	761
992.5129	2660.1651	1648.6	762.35
992.6366	2661.42	1647.05	759.45
992.7602	2662.6743	1656.75	769.3
992.8837	2663.9279	1646.15	760.15
993.0073	2665.1808	1654.7	766.2
993.1307	2666.433	1647.15	757.6
993.2542	2667.6846	1658.05	771.7
993.3776	2668.9354	1655.75	765.5
993.501	2670.1856	1656.5	768.4
993.6244	2671.4351	1657.4	770.65
993.7477	2672.6839	1673.2	784.9
993.8709	2673.9321	1649.75	763.75
993.9942	2675.1795	1661.25	773.9
994.1174	2676.4263	1661.3	773.45
994.2405	2677.6724	1663.65	778.2
994.3637	2678.9179	1667.1	779.9
994.4868	2680.1626	1659.85	772.9
994.6098	2681.4067	1656.15	770.4
994.7328	2682.6501	1660.85	775.2
994.8558	2683.8928	1647.45	761.85
994.9788	2685.1348	1641.6	756.5
995.1017	2686.3761	1641.95	758.9
995.2245	2687.6168	1645.3	758.3
995.3474	2688.8568	1634.8	749.4
995.4702	2690.0961	1631.3	745.55
995.5929	2691.3348	1625.3	738.4
995.7156	2692.5727	1623.55	737
995.8383	2693.81	1622.2	734.85
995.961	2695.0466	1622.8	739.15
996.0836	2696.2826	1629.4	739.7
996.2062	2697.5178	1634.35	729.4
996.3287	2698.7524	1617.9	731.2
996.4512	2699.9863	1626.55	737.3
996.5737	2701.2195	1621.15	736.8
996.6961	2702.452	1621.45	735.1
996.8185	2703.6839	1626.95	739.3
996.9408	2704.9151	1631.1	746
997.0631	2706.1456	1632.45	745.7
997.1854	2707.3755	1629.75	741.7
997.3077	2708.6046	1653.45	764.1
997.4299	2709.8331	1658.05	771.15
997.552	2711.0609	1661.6	776
997.6742	2712.2881	1660.2	775
997.7963	2713.5145	1671.4	783.25
997.9183	2714.7403	1673.3	788.5
998.0403	2715.9654	1687.8	803
998.1623	2717.1899	1708.75	808.75
998.2842	2718.4136	1707.35	820.8
998.4062	2719.6367	1714	827.6
998.528	2720.8591	1729.3	837.55
998.6498	2722.0809	1739.4	851.6
998.7716	2723.3019	1745.65	857.6
998.8934	2724.5223	1753.9	867.75
999.0151	2725.7421	1763.7	876.65
999.1368	2726.9611	1757.75	870.85
999.2584	2728.1795	1767.25	875.25
999.38	2729.3972	1749.65	863.55
999.5016	2730.6142	1747.45	852.55
999.6231	2731.8306	1726.4	839.45
999.7446	2733.0462	1712.05	824.65
999.8661	2734.2612	1703.55	812.1
999.9875	2735.4756	1668.45	782.45
1000.1089	2736.6892	1657.45	772.05
1000.2302	2737.9022	1650.3	767.05
1000.3515	2739.1145	1630.65	745.7
1000.4728	2740.3262	1624.5	731.65
1000.594	2741.5372	1602.95	716.5
1000.7152	2742.7475	1590.05	702.35
1000.8363	2743.9571	1583	695.4
1000.9575	2745.1661	1572.75	682.25
1001.0785	2746.3744	1555.6	667.5
1001.1996	2747.582	1553.6	669.45
1001.3206	2748.7889	1551.05	663.95
1001.4415	2749.9952	1543.95	659.7
1001.5625	2751.2008	1525.65	639.45
1001.6833	2752.4057	1538.7	652.45
1001.8042	2753.61	1529.6	644.4
1001.925	2754.8136	1527.05	640.55
1002.0458	2756.0165	1518.55	634.7
1002.1665	2757.2188	1524.85	639.5
1002.2872	2758.4204	1520.1	635.5
1002.4078	2759.6213	1521.4	633.95
1002.5285	2760.8215	1523.1	634.4
1002.649	2762.0211	1525.05	637.85
1002.7696	2763.22	1517.9	632.35
1002.8901	2764.4182	1513.2	628.65
1003.0106	2765.6158	1504.5	619.35
1003.131	2766.8127	1511.15	626.8
1003.2514	2768.009	1508.8	625.05
1003.3717	2769.2045	1503.9	618.4
1003.492	2770.3994	1503.9	616.9
1003.6123	2771.5936	1492.45	607.5
1003.7325	2772.7872	1489.5	605.75
1003.8527	2773.9801	1480.2	592.6
1003.9729	2775.1723	1498.3	596.35
1004.093	2776.3639	1485.05	602.25
1004.2131	2777.5548	1484.55	600.3
1004.3331	2778.745	1488.6	603.25
1004.4531	2779.9346	1481.55	596.8
1004.5731	2781.1235	1486.05	600.7
1004.693	2782.3117	1482.95	601.3
1004.8129	2783.4992	1488.65	605.45
1004.9328	2784.6861	1488.65	605.8
1005.0526	2785.8723	1490.7	604.75
1005.1723	2787.0579	1497.95	614.95
1005.2921	2788.2428	1504.9	621.15
1005.4118	2789.427	1515.9	632.75
1005.5314	2790.6106	1514.85	629.1
1005.651	2791.7935	1525.8	640.6
1005.7706	2792.9757	1532.55	649.15
1005.8902	2794.1573	1543.15	658.95
1006.0097	2795.3382	1557.8	672.95
1006.1291	2796.5184	1556.5	676.6
1006.2485	2797.698	1569.2	683.35
1006.3679	2798.8769	1582.15	697.8
1006.4873	2800.0551	1585.8	701.2
1006.6066	2801.2327	1611.45	726.1
1006.7258	2802.4096	1621.4	736.35
1006.8451	2803.5859	1645.15	760.55
1006.9642	2804.7615	1659.05	776
1007.0834	2805.9364	1682.15	800.05
1007.2025	2807.1106	1703.5	818.2
1007.3216	2808.2842	1733	848.25
1007.4406	2809.4572	1755.45	873.5
1007.5596	2810.6294	1787.5	902.5
1007.6785	2811.801	1822.3	942.3
1007.7975	2812.972	1852.3	970
1007.9163	2814.1423	1899.9	1016.25
1008.0352	2815.3119	1949.35	1066.4
1008.154	2816.4808	1989.25	1105.95
1008.2727	2817.6491	2034.2	1150.7
1008.3914	2818.8167	2078.75	1196.7
1008.5101	2819.9837	2138.9	1250.3
1008.6288	2821.15	2182.75	1300.25
1008.7474	2822.3157	2234.2	1351.15
1008.8659	2823.4807	2284.6	1404.6
1008.9844	2824.645	2342.1	1455.1
1009.1029	2825.8086	2395.85	1513.2
1009.2214	2826.9716	2430.25	1548.55
1009.3398	2828.134	2480.65	1598.7
1009.4581	2829.2957	2524.3	1642.8
1009.5764	2830.4567	2562.05	1679.8
1009.6947	2831.617	2583.3	1697
1009.813	2832.7767	2593.35	1711.45
1009.9312	2833.9358	2587.65	1705.25
1010.0493	2835.0941	2585.05	1699.05
1010.1675	2836.2519	2587.45	1704.05
1010.2855	2837.4089	2558.05	1675.3
1010.4036	2838.5653	2548.2	1666.05
1010.5216	2839.7211	2539.85	1659.4
1010.6396	2840.8761	2539.65	1654.45
1010.7575	2842.0306	2557.6	1675.1
1010.8754	2843.1843	2576.6	1693.05
1010.9932	2844.3374	2633.35	1752.75
1011.111	2845.4899	2672.1	1787.65
1011.2288	2846.6417	2724.9	1846.25
1011.3465	2847.7928	2795.25	1914.6
1011.4642	2848.9433	2866.75	1985.75
1011.5818	2850.0931	2937.8	2057.15
1011.6995	2851.2422	3021.45	2135.95
1011.817	2852.3907	3068.15	2185.25
1011.9345	2853.5385	3105.7	2222.2
1012.052	2854.6857	3174.6	2278.45
1012.1695	2855.8323	3224.2	2341.35
1012.2869	2856.9781	3275.5	2394
1012.4042	2858.1233	3312.55	2429.7
1012.5216	2859.2679	3373.65	2488.95
1012.6389	2860.4118	3427.7	2545.25
1012.7561	2861.555	3454.75	2568.9
1012.8733	2862.6976	3494.1	2608.75
1012.9905	2863.8395	3518.55	2636.8
1013.1076	2864.9808	3554.9	2673.05
1013.2247	2866.1214	3571.8	2690.45
1013.3417	2867.2614	3588	2706.85
1013.4587	2868.4007	3607.25	2722.25
1013.5757	2869.5393	3614.35	2730.15
1013.6926	2870.6773	3637.6	2751.85
1013.8095	2871.8146	3642	2754.65
1013.9263	2872.9513	3643.7	2759.6
1014.0431	2874.0874	3630.45	2748.15
1014.1599	2875.2227	3626.9	2743.55
1014.2766	2876.3574	3609.05	2726.9
1014.3933	2877.4915	3560	2677.45
1014.51	2878.6249	3558.5	2675.8
1014.6266	2879.7577	3528.85	2645.95
1014.7431	2880.8898	3501	2610.55
1014.8596	2882.0212	3491.95	2612.7
1014.9761	2883.152	3476.9	2592.75
1015.0925	2884.2821	3476.25	2595.9
1015.2089	2885.4116	3469	2589.55
1015.3253	2886.5405	3473.95	2592.8
1015.4416	2887.6686	3458.85	2575.8
1015.5579	2888.7962	3467.65	2587.4
1015.6741	2889.923	3479.5	2598.25
1015.7903	2891.0493	3504.4	2625.6
1015.9065	2892.1748	3506.35	2624.2
1016.0226	2893.2997	3522.7	2639.55
1016.1387	2894.424	3528.8	2648
1016.2547	2895.5476	3557.4	2677.65
1016.3707	2896.6706	3568.7	2689.45
1016.4866	2897.7929	3600.35	2720.9
1016.6025	2898.9145	3627.6	2747.6
1016.7184	2900.0355	3638.85	2758.15
1016.8342	2901.1559	3676.25	2796.6
1016.95	2902.2756	3709.75	2830.15
1017.0658	2903.3946	3732.8	2851.35
1017.1815	2904.513	3767	2883.9
1017.2971	2905.6308	3788.3	2907.35
1017.4127	2906.7479	3818.5	2935.35
1017.5283	2907.8643	3835.6	2954.2
1017.6439	2908.9801	3862.65	2982.25
1017.7594	2910.0953	3874.3	2992.25
1017.8748	2911.2098	3873.8	2989.9
1017.9902	2912.3236	3856.35	2970.5
1018.1056	2913.4368	3841.85	2958.55
1018.2209	2914.5494	3823.85	2944.45
1018.3362	2915.6613	3795.45	2907.4
1018.4515	2916.7725	3765.9	2880.25
1018.5667	2917.8831	3738.75	2855.65
1018.6819	2918.9931	3709.8	2828.7
1018.797	2920.1024	3682.05	2797.3
1018.9121	2921.211	3656.1	2775.25
1019.0271	2922.319	3640.3	2760.6
1019.1421	2923.4264	3624.25	2743.2
1019.2571	2924.5331	3600.65	2723.05
1019.372	2925.6391	3603.2	2723.45
1019.4869	2926.7445	3582.6	2703
1019.6017	2927.8493	3588.8	2708.95
1019.7165	2928.9534	3593.3	2710.5
1019.8313	2930.0569	3609.6	2727.4
1019.946	2931.1597	3605.55	2722.9
1020.0606	2932.2619	3598.6	2716.75
1020.1753	2933.3634	3601.5	2721.4
1020.2899	2934.4643	3590.25	2701.4
1020.4044	2935.5645	3571.9	2686.5
1020.5189	2936.6641	3552.1	2667.35
1020.6334	2937.763	3506.1	2630.05
1020.7478	2938.8613	3462.95	2581.3
1020.8622	2939.959	3417.55	2532.35
1020.9765	2941.056	3350.55	2473.2
1021.0908	2942.1523	3278.7	2396.8
1021.2051	2943.248	3195.6	2314.5
1021.3193	2944.3431	3110.65	2231.4
1021.4334	2945.4375	3012.95	2131.55
1021.5476	2946.5313	2897.85	2018.6
1021.6617	2947.6244	2814.85	1933.5
1021.7757	2948.7169	2706.75	1827
1021.8897	2949.8087	2623.7	1745.35
1022.0037	2950.8999	2519.85	1638.4
1022.1176	2951.9904	2454.6	1575.85
1022.2315	2953.0803	2374.5	1492.8
1022.3453	2954.1696	2313.15	1432.4
1022.4591	2955.2582	2267.35	1385.6
1022.5728	2956.3462	2229	1349.45
1022.6865	2957.4335	2185.5	1303.65
1022.8002	2958.5202	2164.05	1281.45
1022.9138	2959.6062	2123.85	1244.2
1023.0274	2960.6916	2112.1	1231.9
1023.141	2961.7764	2083	1200.65
1023.2545	2962.8605	2071.8	1191.35
1023.3679	2963.9439	2054.1	1175.85
1023.4813	2965.0267	2050.15	1168.2
1023.5947	2966.1089	2056.75	1158.5
1023.708	2967.1905	2032.25	1154.75
1023.8213	2968.2714	2021.55	1141.1
1023.9346	2969.3516	2018.05	1138.4
1024.0478	2970.4312	2031.95	1143.95
1024.1609	2971.5102	2031.65	1152.1
1024.274	2972.5885	2033.45	1151.8
1024.3871	2973.6662	2042.9	1160.05
1024.5002	2974.7432	2028.65	1149.55
1024.6132	2975.8196	2024.5	1145
1024.7261	2976.8954	2018.6	1139.45
1024.839	2977.9705	2008.6	1128.55
1024.9519	2979.045	1994.6	1117.5
1025.0647	2980.1188	1978.35	1099.3
1025.1775	2981.192	1961.2	1083.5
1025.2902	2982.2645	1942.25	1062.3
1025.4029	2983.3364	1914.65	1035.45
1025.5156	2984.4077	1892	1013.9
1025.6282	2985.4783	1857.95	974.35
1025.7407	2986.5483	1838.55	961.1
1025.8532	2987.6177	1800.45	921.8
1025.9657	2988.6864	1769.15	889.25
1026.0782	2989.7545	1737.55	857.25
1026.1906	2990.8219	1697.5	819.4
1026.3029	2991.8887	1670.45	788.9
1026.4152	2992.9548	1636.95	755.7
1026.5275	2994.0204	1601.1	721.8
1026.6397	2995.0852	1572.35	694.2
1026.7519	2996.1495	1550.4	672.05
1026.864	2997.2131	1529.6	650.85
1026.9761	2998.276	1507.5	628.45
1027.0882	2999.3383	1489.1	610.55
1027.2002	3000.4	1469.65	591.05
1027.3122	3001.4611	1446.15	566.5
1027.4241	3002.5215	1434.35	554.65
1027.536	3003.5812	1413.45	533.9
1027.6478	3004.6404	1406.55	527.9
1027.7596	3005.6989	1393.4	510.45
1027.8714	3006.7567	1387.4	508.3
1027.9831	3007.8139	1405.35	498.8
1028.0947	3008.8705	1369.85	492.3
1028.2064	3009.9264	1362.25	479.35
1028.3179	3010.9818	1359.95	481.55
1028.4295	3012.0364	1348.05	468.65
1028.541	3013.0905	1344.2	465.55
1028.6524	3014.1439	1337.75	459.1
1028.7638	3015.1966	1329.1	451.65
1028.8752	3016.2487	1329.95	450.2
1028.9865	3017.3002	1336.9	451.6
1029.0978	3018.3511	1325.05	448.95
1029.209	3019.4013	1325.55	446.85
1029.3202	3020.4509	1326.65	451.2
1029.4314	3021.4998	1324.05	444.35
1029.5425	3022.5481	1325.95	448.25
1029.6535	3023.5958	1318.5	440.35
1029.7645	3024.6428	1320.65	440.85
1029.8755	3025.6892	1323.35	444.5
1029.9864	3026.735	1316.95	436.4
1030.0973	3027.7802	1323.6	442.85
1030.2082	3028.8247	1324.85	445.75
1030.319	3029.8685	1319.75	441.6
1030.4297	3030.9118	1327	447.1
1030.5404	3031.9544	1329.25	451.55
1030.6511	3032.9963	1326.5	446.75
1030.7617	3034.0376	1334.45	457.6
1030.8723	3035.0783	1334.4	452.7
1030.9829	3036.1184	1338.85	460.3
1031.0934	3037.1578	1343.5	465.4
1031.2038	3038.1966	1342.55	462.3
1031.3142	3039.2348	1340.75	463.1
1031.4246	3040.2723	1350.2	461.45
1031.5349	3041.3092	1346.2	470.1
1031.6452	3042.3455	1337.15	459.2
1031.7554	3043.3811	1340.4	460.3
1031.8656	3044.4161	1345.05	467.75
1031.9758	3045.4505	1334	455.2
1032.0859	3046.4842	1330.3	451.35
1032.1959	3047.5173	1323.2	447.35
1032.3059	3048.5498	1320.25	442.05
1032.4159	3049.5816	1321.5	441.75
1032.5258	3050.6128	1318.45	439.05
1032.6357	3051.6434	1310.1	429.3
1032.7455	3052.6734	1308.8	431.05
1032.8553	3053.7027	1294.15	415.3
1032.9651	3054.7314	1290.45	412.15
1033.0748	3055.7594	1289.35	410.55
1033.1845	3056.7868	1291.95	413.9
1033.2941	3057.8136	1285.5	407.65
1033.4037	3058.8398	1277.2	401.75
1033.5132	3059.8653	1277.35	401.35
1033.6227	3060.8902	1272.8	395.85
1033.7321	3061.9145	1272	394.05
1033.8415	3062.9381	1265.65	385.7
1033.9509	3063.9612	1279.2	383.25
1034.0602	3064.9835	1254	374.95
1034.1694	3066.0053	1258.4	378.75
1034.2787	3067.0264	1249.1	372
1034.3878	3068.0469	1242.85	363.85
1034.497	3069.0668	1237.95	355.5
1034.6061	3070.086	1231.1	356.45
1034.7151	3071.1046	1225.2	348.15
1034.8241	3072.1226	1216.55	338.05
1034.9331	3073.1399	1207.7	329.45
1035.042	3074.1567	1200.05	324.2
1035.1508	3075.1727	1198.7	318.5
1035.2597	3076.1882	1184.9	305.55
1035.3684	3077.203	1181.75	304.7
1035.4772	3078.2173	1174.45	296.65
1035.5859	3079.2308	1170.05	289.75
1035.6945	3080.2438	1160.85	281.15
1035.8031	3081.2561	1148	272.25
1035.9117	3082.2678	1140.05	261.95
1036.0202	3083.2789	1142.25	266.5
1036.1286	3084.2893	1130.7	251.2
1036.2371	3085.2991	1129.8	249.95
1036.3454	3086.3083	1127.45	246.2
1036.4538	3087.3169	1120.35	243.85
1036.562	3088.3248	1119.55	238.2
1036.6703	3089.3321	1112.6	232.25
1036.7785	3090.3388	1104.8	230.3
1036.8866	3091.3449	1097.8	219.55
1036.9948	3092.3503	1105.8	224.75
1037.1028	3093.3551	1093.35	213.55
1037.2108	3094.3593	1082.4	206.05
1037.3188	3095.3629	1086.45	210.8
1037.4267	3096.3658	1086.25	207.05
1037.5346	3097.3681	1087.6	212.75
1037.6425	3098.3698	1083.3	203.55
1037.7503	3099.3708	1083.65	199.3
1037.858	3100.3713	1075.85	199.7
1037.9657	3101.3711	1071.25	192.55
1038.0734	3102.3702	1205.05	188.6
1038.181	3103.3688	1066.45	186.85
1038.2886	3104.3667	1066.1	188.65
1038.3961	3105.364	1062.1	186.8
1038.5036	3106.3607	1065.45	187.1
1038.611	3107.3568	1063.25	185.25
1038.7184	3108.3522	1060.25	183
1038.8257	3109.347	1055.2	175.75
1038.933	3110.3412	1055.55	173.45
1039.0403	3111.3348	1048.75	169.9
1039.1475	3112.3277	1046.7	168.8
1039.2547	3113.32	1047.1	171.3
1039.3618	3114.3117	1051.85	173.7
1039.4689	3115.3028	1045.15	168.9
1039.5759	3116.2932	1050.05	171.1
1039.6829	3117.2831	1045.95	163.3
1039.7898	3118.2723	1044.1	167.1
1039.8967	3119.2608	1035.6	159
1040.0035	3120.2488	1037	159.7
1040.1103	3121.2361	1036	158.25
1040.2171	3122.2229	1031.45	154.25
1040.3238	3123.209	1034.35	157.05
1040.4305	3124.1944	1028.25	151.75
1040.5371	3125.1793	1028.85	149.45
1040.6437	3126.1635	1031.65	156.65
1040.7502	3127.1471	1028.7	150.3
1040.8567	3128.1301	1022.55	146.2
1040.9631	3129.1125	1023.1	143.4
1041.0695	3130.0942	1025.2	148.4
1041.1759	3131.0753	1030.8	144.85
1041.2822	3132.0558	1020.85	142.85
1041.3884	3133.0357	1022.2	144.1
1041.4946	3134.015	1021.75	144.6
1041.6008	3134.9936	1017.5	139.05
1041.7069	3135.9716	1035.5	136.35
1041.813	3136.949	1012.9	136.65
1041.919	3137.9258	1030.15	133.6
1042.025	3138.902	1017.1	135.6
1042.1309	3139.8775	1012.7	136.15
1042.2368	3140.8524	1007	129.95
1042.3427	3141.8267	1009.7	128.9
1042.4485	3142.8004	1008.95	131.6
1042.5542	3143.7735	1014.9	130.9
1042.6599	3144.7459	1007.6	130.15
1042.7656	3145.7178	1005.1	126.15
1042.8712	3146.689	1004.85	128.7
1042.9768	3147.6596	1004	124.2
1043.0823	3148.6295	1002.4	125.9
1043.1878	3149.5989	997.7	121.15
1043.2932	3150.5676	1003.55	127
1043.3986	3151.5357	1002.65	125.3
1043.5039	3152.5032	996.55	121.25
1043.6092	3153.4701	997	120
1043.7145	3154.4364	997.85	118.95
1043.8197	3155.402	997.05	123.6
1043.9248	3156.367	998.5	118.2
1044.03	3157.3315	1024.45	116.3
1044.135	3158.2952	990.95	113.3
1044.24	3159.2584	990.9	113.45
1044.345	3160.221	993.05	116.35
1044.4499	3161.1829	992.3	113.35
1044.5548	3162.1442	985.45	108.05
1044.6596	3163.105	990.75	114.35
1044.7644	3164.065	988.65	111.8
1044.8692	3165.0245	987.35	108
1044.9739	3165.9834	986	108.9
1045.0785	3166.9416	981.7	105.6
1045.1831	3167.8993	984.8	108.25
1045.2877	3168.8563	987.85	110
1045.3922	3169.8127	983.65	107.75
1045.4966	3170.7684	982.35	106.65
1045.6011	3171.7236	982.8	105.7
1045.7054	3172.6782	984.5	108.05
1045.8098	3173.6321	983.75	107.3
1045.914	3174.5854	987.4	107.15
1046.0183	3175.5381	979.4	102.85
1046.1224	3176.4902	977.2	99.15
1046.2266	3177.4417	979.95	104.55
1046.3307	3178.3926	977.1	100.6
1046.4347	3179.3428	977.8	102.65
1046.5387	3180.2924	979.55	104.9
1046.6427	3181.2415	975.7	97.8
1046.7466	3182.1899	976.45	99.75
1046.8504	3183.1377	971.5	94.9
1046.9542	3184.0848	976.05	98.55
1047.058	3185.0314	975.95	99.8
1047.1617	3185.9773	978.15	101.1
1047.2654	3186.9227	968.85	91.5
1047.369	3187.8674	975.6	98
1047.4726	3188.8115	972.65	93.85
1047.5761	3189.755	971.35	95.15
1047.6796	3190.6979	970.65	93
1047.783	3191.6402	970.9	95.9
1047.8864	3192.5818	969.6	93.6
1047.9898	3193.5229	989.25	94.15
1048.0931	3194.4633	970.4	94.35
1048.1963	3195.4031	966.5	90.15
1048.2995	3196.3423	968.25	91.95
1048.4027	3197.2809	964.45	86.75
1048.5058	3198.2189	966.55	90.4
1048.6089	3199.1563	974.6	92.85
1048.7119	3200.0931	963.7	89.65
1048.8148	3201.0292	963.95	89.55
1048.9178	3201.9648	960.9	85.65
1049.0206	3202.8997	963.55	86.65
1049.1235	3203.834	964.85	89.5
1049.2262	3204.7677	959.65	82.1
1049.329	3205.7008	962.15	84.4
1049.4317	3206.6333	961.7	86.6
1049.5343	3207.5652	957.6	78.95
1049.6369	3208.4964	959.9	82.25
1049.7394	3209.4271	958.65	83.4
1049.8419	3210.3571	958.25	83.95
1049.9444	3211.2865	959.1	82.75
1050.0468	3212.2154	958.15	82.7
1050.1491	3213.1436	963.65	85.45
1050.2514	3214.0712	966	83.75
1050.3537	3214.9982	959.35	83.8
1050.4559	3215.9246	960.05	82.3
1050.5581	3216.8503	954	77.55
1050.6602	3217.7755	953.25	75.95
1050.7623	3218.7001	951.95	77.35
1050.8643	3219.624	953.8	77.3
1050.9663	3220.5473	956	80.05
1051.0682	3221.4701	957.65	79.05
1051.1701	3222.3922	956.25	78.7
1051.2719	3223.3137	952.65	76.2
1051.3737	3224.2346	953.85	79.55
1051.4754	3225.1549	951.15	75.9
1051.5771	3226.0746	952	77.7
1051.6788	3226.9937	953.65	76.3
1051.7804	3227.9121	947.3	71.35
1051.8819	3228.83	948.9	71.35
1051.9834	3229.7473	952.75	78.3
1052.0849	3230.6639	951.45	74.05
1052.1863	3231.5799	950.35	74.9
1052.2876	3232.4954	949.9	73.75
1052.3889	3233.4102	945.55	71.2
1052.4902	3234.3244	947.3	72.25
1052.5914	3235.238	946.75	70.9
1052.6926	3236.151	973.25	73.05
1052.7937	3237.0634	947.45	74.8
1052.8948	3237.9752	943.4	66.75
1052.9958	3238.8864	947.35	71.55
1053.0968	3239.797	942.1	64.1
1053.1977	3240.7069	942.8	67.25
1053.2986	3241.6163	945.9	67.65
1053.3994	3242.5251	943.9	70.35
1053.5002	3243.4332	940.2	64.5
1053.6009	3244.3408	942.15	67.45
1053.7016	3245.2477	943.25	68.95
1053.8022	3246.154	944.2	66.55
1053.9028	3247.0598	940.85	63.25
1054.0034	3247.9649	937.55	62
1054.1039	3248.8694	940.3	65.7
1054.2043	3249.7733	941.85	67.45
1054.3047	3250.6766	938.2	62.8
1054.4051	3251.5793	938.9	62.15
1054.5054	3252.4814	937.25	64
1054.6056	3253.3829	936.95	62.5
1054.7058	3254.2838	935.8	62.6
1054.806	3255.1841	935.3	61.9
1054.9061	3256.0838	935	60.25
1055.0061	3256.9829	932.25	59.55
1055.1062	3257.8814	936.55	60.75
1055.2061	3258.7792	936.2	58.55
1055.306	3259.6765	934.7	58.9
1055.4059	3260.5731	932.5	56.5
1055.5057	3261.4692	933.35	57.1
1055.6055	3262.3647	930.95	54.75
1055.7052	3263.2595	929	51.3
1055.8049	3264.1538	928.75	54.65
1055.9045	3265.0474	929.7	55.55
1056.0041	3265.9404	926.35	52
1056.1036	3266.8329	927.05	53.65
1056.2031	3267.7247	937.65	53.05
1056.3025	3268.616	923.95	49.3
1056.4019	3269.5066	922.85	48.9
1056.5013	3270.3966	923.15	45.45
1056.6005	3271.286	918.25	43.25
