Software Version:	3.9.2.0
Unit SN:	10000200
Spectrometer SN:	6960
Date:	3/8/2024 1:24:56 PM
Data Line Index:	25
Spectral Points:	2048
Integration time (ms):	125
Averages:	20
Delay (ms):	30000
Sequence Number:	1
Processing:	dark subtract
Laser Power (mW):	300
Laser Current (mA):	822
Laser Diode Temp (C):	25
Laser Case Temp (C):	26.3
System Temp (C):	26.2
Spectrometer Temp (C):	24.1
CCD Temp (C):	0.001
Secondary Temp (C):	20.006
Heatsink Temp (C):	21.193
CCDPCB Temp (C):	36.362
SecondaryPCB Temp (C):	31.549

Wavelength	RamanShift	Raw Counts	Dark Subtracted
787.061	30.1047	449.05	41.2
787.2016	32.3739	449.1	43.1
787.3422	34.6426	454.6	46.8
787.4828	36.9109	462.35	53.05
787.6235	39.1787	468.3	55.9
787.7642	41.4461	479.75	62.35
787.9049	43.7131	486.65	64.95
788.0456	45.9796	496.65	73.75
788.1863	48.2456	503.2	75.25
788.3271	50.5112	511.25	79.15
788.4679	52.7764	519.5	84.35
788.6087	55.0411	531.85	91.7
788.7496	57.3054	544.5	99.8
788.8904	59.5692	549.7	102.85
789.0313	61.8326	561.7	113.7
789.1722	64.0955	574.35	121.25
789.3132	66.3579	588	129.1
789.4541	68.6199	607.45	146
789.5951	70.8815	635.6	167.7
789.7361	73.1426	714.5	243.25
789.8771	75.4032	911.15	437.5
790.0181	77.6634	1385.55	905.1
790.1592	79.9231	2486.1	1998.65
790.3003	82.1824	4888.85	4382.65
790.4414	84.4412	9195.45	8659.35
790.5825	86.6995	15118.45	14541.05
790.7237	88.9574	20897.9	20285.7
790.8648	91.2148	24885.15	24250.5
791.006	93.4717	26674.65	26025.4
791.1472	95.7282	26989.9	26329.15
791.2885	97.9842	26825.15	26164.55
791.4297	100.2398	26226.5	25564.55
791.571	102.4949	25549.15	24880.85
791.7123	104.7495	24757.9	24086.6
791.8536	107.0036	23941.3	23270.85
791.9949	109.2573	23143.3	22477.95
792.1363	111.5105	22410.4	21738.05
792.2777	113.7632	21664.75	20989.35
792.4191	116.0154	21059.95	20372.65
792.5605	118.2672	20600.8	19916.25
792.7019	120.5185	20166.35	19482.95
792.8434	122.7693	19828.85	19145.55
792.9849	125.0197	19526.45	18837.25
793.1264	127.2696	19221.3	18525.25
793.2679	129.519	19029.35	18331.2
793.4094	131.7679	18798.6	18095.6
793.551	134.0163	18613.1	17907.1
793.6926	136.2642	18337.25	17631.55
793.8342	138.5117	18100.35	17388.95
793.9758	140.7587	17813.15	17101.65
794.1175	143.0052	17549.65	16835.8
794.2591	145.2512	17279.95	16566.15
794.4008	147.4967	17053.65	16338.65
794.5425	149.7417	16843	16127.55
794.6842	151.9863	16716.2	15994.1
794.826	154.2304	16647	15921.25
794.9677	156.4739	16516.8	15783.15
795.1095	158.717	16427.1	15694.55
795.2513	160.9596	16278.25	15542.5
795.3931	163.2017	16019.25	15278.9
795.535	165.4433	15712.3	14972.85
795.6768	167.6844	15383.65	14641.8
795.8187	169.925	15076.5	14335.5
795.9606	172.1651	14706.05	13960.15
796.1025	174.4047	14414.95	13668.5
796.2445	176.6439	14171.75	13421.4
796.3864	178.8825	13921	13167.8
796.5284	181.1206	13774.35	13014.1
796.6704	183.3582	13594.45	12828.3
796.8124	185.5954	13505.05	12739.5
796.9544	187.832	13434.6	12663.35
797.0965	190.0681	13413.55	12642.4
797.2386	192.3037	13384.15	12610.3
797.3806	194.5388	13373.7	12593
797.5228	196.7734	13392.45	12611.05
797.6649	199.0075	13503.45	12719
797.807	201.2411	13600.45	12814.6
797.9492	203.4742	13662.75	12880.35
798.0914	205.7068	13830.6	13040.6
798.2336	207.9389	13891.3	13104.7
798.3758	210.1704	14070.25	13289.65
798.518	212.4015	14191.5	13418.85
798.6603	214.632	14325.35	13563.5
798.8025	216.862	14478.9	13713.35
798.9448	219.0915	14629.9	13861.65
799.0871	221.3205	14820.1	14049.05
799.2294	223.549	15024.7	14257.6
799.3718	225.777	15259.1	14492.05
799.5141	228.0044	15522.85	14747.8
799.6565	230.2314	15877.6	15101.25
799.7989	232.4578	16265.15	15486.4
799.9413	234.6837	16510.5	15727.25
800.0837	236.909	16701.15	15914.95
800.2262	239.1339	16725.75	15909.5
800.3687	241.3582	16516.15	15718.6
800.5111	243.582	16250.25	15419.55
800.6536	245.8053	16020.85	15205.7
800.7961	248.0281	15773.3	14965.55
800.9387	250.2503	15571.05	14759
801.0812	252.472	15457.3	14639.25
801.2238	254.6932	15443.6	14627.6
801.3664	256.9139	15413.85	14600.6
801.509	259.134	15480.95	14659.05
801.6516	261.3536	15546.6	14732.15
801.7942	263.5727	15686.9	14864.15
801.9369	265.7912	15702.2	14885.45
802.0795	268.0092	15843.65	15021.95
802.2222	270.2267	15859.6	15040
802.3649	272.4436	15841.3	15018.15
802.5076	274.6601	15812.15	14977.45
802.6504	276.8759	15736.4	14913.55
802.7931	279.0913	15644.7	14816.85
802.9359	281.3061	15573.5	14746.35
803.0787	283.5204	15559.65	14723
803.2215	285.7341	15640.25	14801.95
803.3643	287.9473	15739.4	14889.35
803.5071	290.16	15885.7	15045.05
803.6499	292.3721	16158.1	15324.85
803.7928	294.5837	16520.9	15684.65
803.9357	296.7947	16804.95	15966.9
804.0786	299.0052	17009.65	16169.75
804.2215	301.2152	16916.1	16077.55
804.3644	303.4246	16652.85	15819.35
804.5074	305.6334	16147	15313.7
804.6503	307.8418	15642.8	14803.3
804.7933	310.0495	15226.05	14386.3
804.9363	312.2568	14892.25	14052.6
805.0793	314.4635	14626.95	13777.55
805.2223	316.6696	14487.8	13641.55
805.3653	318.8752	14394.35	13537.9
805.5084	321.0802	14399.1	13548
805.6514	323.2847	14490.4	13640.35
805.7945	325.4887	14540.7	13686.75
805.9376	327.692	14500.95	13648.25
806.0807	329.8949	14407.05	13554.95
806.2238	332.0972	14156.55	13299.05
806.367	334.2989	13918.25	13056.45
806.5101	336.5001	13625.05	12769.05
806.6533	338.7007	13411.7	12546.8
806.7965	340.9008	13286.05	12424.75
806.9397	343.1003	13130.6	12269.7
807.0829	345.2992	13089.6	12228.6
807.2261	347.4976	13061.6	12199.35
807.3693	349.6955	13011.75	12142.95
807.5126	351.8927	13096.75	12228.4
807.6559	354.0895	13049.4	12168.95
807.7991	356.2856	13061.45	12194.4
807.9424	358.4812	13036.75	12167.45
808.0857	360.6763	13071.2	12195.75
808.2291	362.8707	13014.8	12138.55
808.3724	365.0646	13061.85	12182.55
808.5158	367.258	13105.6	12230.35
808.6591	369.4508	13134.5	12253.75
808.8025	371.643	13228.15	12350.7
808.9459	373.8346	13256.65	12373.2
809.0893	376.0257	13268.65	12384.6
809.2327	378.2162	13220.55	12343.5
809.3762	380.4062	13147.55	12262.95
809.5196	382.5956	12987.7	12112.15
809.6631	384.7844	12909.15	12036.1
809.8066	386.9726	12797.6	11922.05
809.9501	389.1603	12728.95	11858.35
810.0936	391.3474	12715.6	11809.9
810.2371	393.5339	12674.05	11797.85
810.3806	395.7199	12628.55	11756.8
810.5241	397.9052	12627.15	11751
810.6677	400.09	12686.25	11812.05
810.8113	402.2743	12753.85	11879.15
810.9548	404.4579	12874.1	12000.75
811.0984	406.641	13021.8	12143.1
811.2421	408.8235	13227.15	12346.7
811.3857	411.0054	13492.7	12612.3
811.5293	413.1868	13843	12955.85
811.673	415.3675	14134.05	13247.15
811.8166	417.5477	14298.55	13409.1
811.9603	419.7273	14301.95	13410.5
812.104	421.9064	14207.45	13311.05
812.2477	424.0848	14111	13223.7
812.3914	426.2627	13883.95	12996.75
812.5351	428.4399	13616.1	12726.25
812.6788	430.6166	13283.5	12389.8
812.8226	432.7928	12921.05	12025.75
812.9663	434.9683	12608.9	11717.1
813.1101	437.1432	12395.65	11504.25
813.2539	439.3176	12245.95	11362.85
813.3977	441.4914	12141.85	11265.7
813.5415	443.6645	12076.1	11192.25
813.6853	445.8371	12024.3	11132.15
813.8291	448.0091	11991.4	11097.75
813.973	450.1806	11962.1	11075.3
814.1168	452.3514	11941.15	11057.85
814.2607	454.5216	11946.95	11048.7
814.4046	456.6913	11874.6	10985.45
814.5485	458.8603	11916.9	11029.7
814.6924	461.0288	11983.45	11098.3
814.8363	463.1967	11986.7	11107.75
814.9802	465.3639	12051.35	11164.7
815.1241	467.5306	12120.8	11232.3
815.2681	469.6967	12237.1	11351.8
815.412	471.8622	12348.1	11466.2
815.556	474.0271	12510.2	11623.65
815.7	476.1914	12572.9	11677.9
815.844	478.3551	12553.25	11659.65
815.988	480.5182	12544.25	11659.15
816.132	482.6807	12544.55	11666.25
816.276	484.8426	12696.85	11821
816.4201	487.0039	12986.85	12108.75
816.5641	489.1647	13372.45	12486.15
816.7082	491.3248	13739.2	12849.1
816.8522	493.4843	13914.7	13027.75
816.9963	495.6432	13938.1	13052.3
817.1404	497.8015	13813.65	12910.25
817.2845	499.9592	13807.2	12901.8
817.4286	502.1163	13713.25	12812.7
817.5727	504.2728	13448.5	12554.15
817.7168	506.4287	13116.9	12232.85
817.861	508.5839	12736.15	11853.4
818.0051	510.7386	12449.05	11556.3
818.1493	512.8927	12324.8	11420.55
818.2935	515.0461	12216.1	11315.85
818.4377	517.199	12231.7	11331.95
818.5818	519.3512	12250.45	11346.1
818.726	521.5029	12377.15	11472.25
818.8703	523.6539	12510.8	11608.3
819.0145	525.8043	12566.65	11660.25
819.1587	527.9541	12562.3	11657.3
819.303	530.1033	12516.7	11611.8
819.4472	532.2519	12474.55	11572.25
819.5915	534.3999	12563.1	11658.8
819.7357	536.5472	12762.65	11861.95
819.88	538.694	13128.35	12231.9
820.0243	540.8401	13639.4	12735.2
820.1686	542.9856	14036.45	13120.4
820.3129	545.1305	14211.75	13290.45
820.4572	547.2748	14091.35	13165.75
820.6016	549.4185	13747.9	12827.8
820.7459	551.5615	13457.8	12532.85
820.8902	553.704	13357.2	12440.2
821.0346	555.8458	13349.8	12437.8
821.1789	557.987	13403.95	12492.55
821.3233	560.1276	13445.55	12526.5
821.4677	562.2675	13604	12688.15
821.6121	564.4069	13769.35	12852.35
821.7565	566.5456	13910.8	12996.35
821.9009	568.6837	13867.65	12960.15
822.0453	570.8212	13571.15	12661.15
822.1897	572.958	13151.25	12239.5
822.3342	575.0942	12726.8	11818.4
822.4786	577.2299	12489	11584.2
822.6231	579.3648	12389.4	11498.5
822.7675	581.4992	12440.6	11559.25
822.912	583.6329	12600.25	11718.1
823.0565	585.766	12830.3	11939.85
823.201	587.8985	12936.75	12042.3
823.3454	590.0304	12996.55	12067
823.4899	592.1616	12915.55	11997.7
823.6345	594.2922	12826.35	11909.3
823.779	596.4222	12704.3	11782.45
823.9235	598.5515	12515.35	11591.7
824.068	600.6802	12348.15	11429.5
824.2126	602.8083	12183.35	11267.2
824.3571	604.9358	12121.45	11204.1
824.5017	607.0626	12076.2	11157.8
824.6462	609.1888	12112.3	11187.6
824.7908	611.3144	12105.75	11176.15
824.9354	613.4393	12052.3	11126.55
825.08	615.5636	12035.2	11108.2
825.2246	617.6873	11945.65	11022.6
825.3692	619.8103	11904.4	10973.25
825.5138	621.9327	11793.05	10873.65
825.6584	624.0544	11690.95	10774.45
825.803	626.1756	11592.7	10673.4
825.9477	628.2961	11535.6	10610.3
826.0923	630.4159	11472.75	10548.75
826.237	632.5351	11451.4	10523.05
826.3816	634.6537	11403.85	10477.05
826.5263	636.7716	11410.45	10478.3
826.6709	638.8889	11415.1	10483.65
826.8156	641.0056	11429.3	10496.85
826.9603	643.1216	11415.25	10487.5
827.105	645.237	11425.05	10500.15
827.2497	647.3518	11382.7	10461.35
827.3944	649.4659	11385.1	10468.3
827.5391	651.5793	11362.55	10446.15
827.6838	653.6922	11334.25	10413.25
827.8285	655.8043	11338.2	10416.15
827.9733	657.9159	11335.95	10411.35
828.118	660.0268	11274.7	10356.4
828.2627	662.137	11256.6	10331.35
828.4075	664.2466	11248.85	10319.15
828.5522	666.3556	11209.8	10278.9
828.697	668.4639	11177.2	10253.65
828.8418	670.5716	11206.15	10286.7
828.9865	672.6786	11251.05	10323
829.1313	674.785	11277.7	10342.75
829.2761	676.8907	11327.5	10399.2
829.4209	678.9958	11372.85	10451.55
829.5657	681.1002	11358.05	10428.8
829.7105	683.204	11346.7	10408.85
829.8553	685.3072	11319.85	10384.8
830.0001	687.4097	11271.35	10334.45
830.1449	689.5115	11218.75	10284.15
830.2898	691.6127	11200.65	10269.95
830.4346	693.7132	11108.9	10180.55
830.5794	695.8131	11110.5	10167.1
830.7243	697.9123	11116	10176.2
830.8691	700.0109	11103.8	10166.3
831.014	702.1089	11128.45	10192.2
831.1588	704.2061	11110.55	10178.55
831.3037	706.3028	11142.75	10204.1
831.4486	708.3987	11199.35	10262
831.5935	710.4941	11267.25	10332.45
831.7383	712.5887	11400.5	10467.8
831.8832	714.6827	11626.35	10688.75
832.0281	716.7761	11880.05	10950.1
832.173	718.8688	12211.65	11279.8
832.3179	720.9608	12376.95	11435.95
832.4628	723.0522	12466.75	11520.2
832.6077	725.1429	12347	11403.9
832.7527	727.233	12171.75	11233.9
832.8976	729.3224	12028.65	11089.25
833.0425	731.4112	11833.15	10891.2
833.1874	733.4993	11648.55	10706.95
833.3324	735.5867	11483.9	10547.25
833.4773	737.6735	11345.7	10407.4
833.6222	739.7596	11220.6	10278.85
833.7672	741.845	11169.35	10229.6
833.9122	743.9298	11124.05	10187.6
834.0571	746.014	11101.5	10163.95
834.2021	748.0974	11137.35	10191.7
834.347	750.1802	11147.65	10201.65
834.492	752.2624	11150.95	10203.3
834.637	754.3439	11185.8	10237.45
834.782	756.4247	11280.75	10329.35
834.9269	758.5048	11434	10490.55
835.0719	760.5843	11682.15	10734.8
835.2169	762.6631	12019.15	11075.25
835.3619	764.7413	12481.9	11540.95
835.5069	766.8188	13116.55	12169.8
835.6519	768.8956	13570.8	12621.2
835.7969	770.9718	13903.4	12960.9
835.9419	773.0473	13777.35	12832.3
836.0869	775.1221	13491.75	12548.05
836.232	777.1962	13118.2	12175.45
836.377	779.2697	12953.85	12008.95
836.522	781.3426	13007.3	12052.3
836.667	783.4147	13204.35	12257.55
836.8121	785.4862	13465.1	12521.05
836.9571	787.557	13432.6	12484.3
837.1021	789.6271	13079.95	12129.55
837.2472	791.6966	12499.2	11550.65
837.3922	793.7654	11941.5	10991.3
837.5373	795.8335	11629.15	10684.9
837.6823	797.901	11402.4	10458.05
837.8274	799.9678	11320.7	10376.05
837.9724	802.0339	11285.65	10335.15
838.1175	804.0993	11324.5	10365.05
838.2626	806.1641	11289.9	10337.4
838.4076	808.2282	11224.8	10274.15
838.5527	810.2916	11152	10205.75
838.6978	812.3544	11047.15	10102.25
838.8428	814.4164	10994.25	10048
838.9879	816.4778	11000.55	10048.3
839.133	818.5385	11055.25	10099.7
839.2781	820.5986	11122.55	10171.25
839.4232	822.658	11258.05	10303.45
839.5682	824.7166	11447.75	10499.75
839.7133	826.7747	11726.85	10777.7
839.8584	828.832	12022	11070
840.0035	830.8886	12237.7	11288
840.1486	832.9446	12372.65	11418.65
840.2937	834.9999	12371.15	11422.5
840.4388	837.0545	12278.95	11324.1
840.5839	839.1085	12169.4	11217.7
840.729	841.1618	12061.25	11109.3
840.8741	843.2143	11933.55	10979.45
841.0192	845.2662	11839.95	10886.65
841.1643	847.3175	11790.6	10841.15
841.3095	849.368	11635.7	10685.2
841.4546	851.4179	11531.2	10580.95
841.5997	853.467	11432.35	10481.2
841.7448	855.5155	11359.75	10410.35
841.8899	857.5633	11260.8	10308
842.0351	859.6105	11152.3	10197.8
842.1802	861.6569	11102.8	10150.35
842.3253	863.7027	11022.55	10067.45
842.4704	865.7478	11033.25	10079.3
842.6156	867.7922	11000.45	10047.5
842.7607	869.8359	11032.9	10077
842.9058	871.8789	11113.75	10157.4
843.0509	873.9212	11277.3	10288.7
843.1961	875.9629	11405.45	10452.05
843.3412	878.0039	11574.8	10617
843.4863	880.0441	11653.65	10701.95
843.6315	882.0837	11687.35	10736.55
843.7766	884.1226	11657.9	10706.2
843.9218	886.1609	11579	10626.7
844.0669	888.1984	11534.75	10581.8
844.212	890.2352	11569.65	10615
844.3572	892.2714	11579.2	10617.35
844.5023	894.3069	11538.55	10582.85
844.6475	896.3416	11421.15	10467.45
844.7926	898.3757	11362	10405.4
844.9377	900.4091	11335.4	10375.6
845.0829	902.4418	11349.4	10385.6
845.228	904.4739	11358.4	10397.65
845.3732	906.5052	11385.95	10425.5
845.5183	908.5358	11310.95	10355.8
845.6635	910.5658	11187.45	10225.5
845.8086	912.595	11002.9	10045.65
845.9538	914.6236	10817.7	9861.75
846.0989	916.6515	10751.3	9793.95
846.2441	918.6786	10729.8	9770.9
846.3892	920.7051	10763.9	9800.8
846.5344	922.7309	10874.15	9913.6
846.6795	924.756	10902.35	9949.35
846.8246	926.7804	10997.95	10037.15
846.9698	928.8041	10955.95	9999.65
847.1149	930.8272	11010.9	10051.45
847.2601	932.8495	10964.3	10008.7
847.4052	934.8711	10912.8	9954.45
847.5504	936.892	10807.9	9847.45
847.6955	938.9123	10719.25	9758.9
847.8407	940.9318	10663.4	9708.5
847.9858	942.9506	10578.9	9620.05
848.131	944.9688	10521.3	9560.8
848.2761	946.9862	10439.85	9479.7
848.4213	949.003	10352.85	9394.1
848.5664	951.019	10335.6	9376.4
848.7115	953.0344	10336.05	9380
848.8567	955.0491	10351.15	9392.25
849.0018	957.063	10426.35	9465.35
849.147	959.0763	10536.05	9578.8
849.2921	961.0888	10568.75	9610.95
849.4373	963.1007	10660.05	9707.2
849.5824	965.1119	10676.1	9729.8
849.7275	967.1223	10707.55	9765.25
849.8727	969.1321	10708.75	9765.15
850.0178	971.1412	10736.25	9788.1
850.1629	973.1495	10737.85	9786.7
850.3081	975.1572	10818.3	9817.35
850.4532	977.1641	10818.6	9860.95
850.5983	979.1704	10795.9	9836.8
850.7435	981.1759	10788.25	9828.65
850.8886	983.1808	10811.3	9848.4
851.0337	985.1849	10902.6	9940.25
851.1788	987.1884	11003.85	10044.15
851.324	989.1911	11165.1	10206.05
851.4691	991.1932	11308.3	10350.25
851.6142	993.1945	11305.1	10348.7
851.7593	995.1951	11267.05	10310.55
851.9045	997.1951	11257	10297.15
852.0496	999.1943	11193.75	10235.15
852.1947	1001.1928	11168.75	10212.25
852.3398	1003.1906	11176.25	10220.65
852.4849	1005.1877	11275.85	10319.55
852.63	1007.1841	11265.85	10309.5
852.7751	1009.1798	11205.8	10249.3
852.9202	1011.1748	11084.25	10126.05
853.0653	1013.1691	10907.8	9950.25
853.2104	1015.1627	10707.3	9751
853.3555	1017.1556	10520.95	9567
853.5006	1019.1477	10423	9470.2
853.6457	1021.1392	10346.5	9399.8
853.7908	1023.1299	10322.05	9377.85
853.9359	1025.12	10323.15	9385.05
854.081	1027.1093	10397.9	9470.7
854.2261	1029.0979	10482.15	9558.6
854.3712	1031.0859	10547.65	9617
854.5163	1033.0731	10600.7	9657.6
854.6613	1035.0596	10523.35	9575.75
854.8064	1037.0454	10370.55	9421.4
854.9515	1039.0304	10309.6	9355.45
855.0965	1041.0148	10156.8	9206.7
855.2416	1042.9985	10096.05	9138.85
855.3867	1044.9814	10063.95	9112.35
855.5317	1046.9636	10013.2	9061.75
855.6768	1048.9452	10000.15	9047.9
855.8219	1050.926	10034.1	9080.15
855.9669	1052.9061	10030.9	9074.45
856.112	1054.8855	10019.55	9064
856.257	1056.8642	10089	9131.7
856.4021	1058.8421	10129.55	9169.9
856.5471	1060.8194	10170.25	9215.2
856.6921	1062.7959	10211.2	9251.8
856.8372	1064.7717	10236.5	9282
856.9822	1066.7469	10259.55	9301.8
857.1272	1068.7213	10302.5	9344.35
857.2723	1070.695	10328.25	9373.7
857.4173	1072.6679	10267.45	9311.9
857.5623	1074.6402	10265.8	9306.45
857.7073	1076.6117	10221.65	9259.65
857.8523	1078.5826	10203.65	9246.55
857.9973	1080.5527	10176.3	9220.95
858.1423	1082.5221	10217.65	9262.05
858.2873	1084.4908	10325.1	9370.85
858.4323	1086.4587	10477.1	9522.8
858.5773	1088.426	10575.9	9618.4
858.7223	1090.3925	10606.1	9642.95
858.8673	1092.3584	10581.2	9629.95
859.0123	1094.3235	10472.35	9518.3
859.1573	1096.2879	10457.75	9505.6
859.3022	1098.2515	10497.5	9545.7
859.4472	1100.2145	10601.75	9651.1
859.5922	1102.1767	10710.9	9757.35
859.7371	1104.1382	10902.3	9950.2
859.8821	1106.099	11129.9	10174.3
860.027	1108.0591	11343.9	10389.95
860.172	1110.0185	11493.4	10535.5
860.3169	1111.9771	11512.45	10557.8
860.4619	1113.9351	11373.2	10418.05
860.6068	1115.8923	11126.6	10174.35
860.7517	1117.8488	10852.15	9897.6
860.8967	1119.8045	10642.3	9690.8
861.0416	1121.7596	10514.55	9562.2
861.1865	1123.7139	10456.05	9504.05
861.3314	1125.6675	10430.25	9475.65
861.4763	1127.6204	10469.1	9518.05
861.6212	1129.5726	10450.25	9495.95
861.7661	1131.524	10431.05	9480
861.911	1133.4748	10383.55	9428.55
862.0559	1135.4248	10303.55	9346.75
862.2008	1137.3741	10245.7	9292.4
862.3457	1139.3226	10220.6	9266.55
862.4905	1141.2705	10137.05	9182.2
862.6354	1143.2176	10079.25	9120.5
862.7803	1145.164	10060.4	9104.75
862.9251	1147.1097	10035.85	9078.6
863.07	1149.0546	10005.95	9052.3
863.2148	1150.9989	9915.6	8966
863.3597	1152.9424	9826.75	8873.4
863.5045	1154.8852	9673.35	8724.35
863.6493	1156.8272	9599.5	8647.45
863.7942	1158.7686	9556.45	8597.95
863.939	1160.7092	9548.5	8592.05
864.0838	1162.6491	9542.45	8585.7
864.2286	1164.5883	9649.6	8697.65
864.3734	1166.5267	9733.4	8777.4
864.5182	1168.4644	9857.5	8904.5
864.663	1170.4014	10044	9093.15
864.8078	1172.3377	10297.65	9346.8
864.9526	1174.2732	10534.55	9583.55
865.0974	1176.2081	10840.3	9889.35
865.2421	1178.1421	11141.6	10184.15
865.3869	1180.0755	11456.55	10507.2
865.5317	1182.0082	11644.05	10694.95
865.6764	1183.9401	11695.15	10744.95
865.8212	1185.8713	11567	10626
865.9659	1187.8017	11342.85	10404.75
866.1106	1189.7315	11064.2	10136.2
866.2554	1191.6605	10744.85	9815.6
866.4001	1193.5888	10519.7	9587.2
866.5448	1195.5163	10412.95	9468.6
866.6895	1197.4432	10327.8	9379
866.8342	1199.3693	10314.6	9366.85
866.9789	1201.2947	10291.7	9341.05
867.1236	1203.2193	10245.3	9293.45
867.2683	1205.1432	10292.1	9343.9
867.413	1207.0664	10282.55	9332
867.5576	1208.9889	10290.4	9342.45
867.7023	1210.9106	10300.1	9352.7
867.847	1212.8316	10345	9398.5
867.9916	1214.7519	10408.85	9451.05
868.1363	1216.6715	10423.2	9473.55
868.2809	1218.5903	10453.05	9503.4
868.4255	1220.5084	10464.75	9520.75
868.5701	1222.4257	10464.25	9516
868.7148	1224.3424	10482.7	9538.7
868.8594	1226.2583	10523.4	9570.7
869.004	1228.1735	10643.85	9693.75
869.1486	1230.0879	10736.95	9785.95
869.2932	1232.0016	10870.5	9923.4
869.4377	1233.9146	10919.25	9969.55
869.5823	1235.8269	10894.2	9949.75
869.7269	1237.7384	10775.1	9826.5
869.8715	1239.6492	10603.4	9656.9
870.016	1241.5592	10540.35	9592.2
870.1606	1243.4686	10463.65	9516.55
870.3051	1245.3772	10496.2	9549.4
870.4496	1247.285	10552.85	9602.05
870.5941	1249.1922	10592.4	9644.35
870.7387	1251.0986	10617.4	9671.5
870.8832	1253.0042	10622.7	9678.5
871.0277	1254.9092	10703.1	9759.65
871.1722	1256.8134	10758.05	9815.3
871.3167	1258.7169	10905	9961.2
871.4611	1260.6196	11067.5	10120.15
871.6056	1262.5216	11297.65	10353.05
871.7501	1264.4229	11456.25	10511.35
871.8945	1266.3234	11635.2	10692.7
872.039	1268.2232	11716.6	10768.8
872.1834	1270.1223	11734.55	10786.25
872.3278	1272.0207	11751.55	10805.55
872.4723	1273.9183	11728.15	10776.3
872.6167	1275.8151	11657.3	10714.25
872.7611	1277.7113	11612	10667.3
872.9055	1279.6067	11556.1	10613.9
873.0499	1281.5014	11537.8	10589.95
873.1943	1283.3953	11647.35	10696.9
873.3386	1285.2885	11772.35	10826.55
873.483	1287.181	11939.75	10995.05
873.6274	1289.0727	12144.8	11199.35
873.7717	1290.9637	12285.6	11343
873.9161	1292.854	12434.15	11491.5
874.0604	1294.7435	12483.9	11538.75
874.2047	1296.6323	12583.45	11638
874.349	1298.5204	12692.3	11743
874.4933	1300.4077	12830.25	11886.95
874.6376	1302.2943	12857.05	11911.05
874.7819	1304.1802	12814.8	11874.55
874.9262	1306.0653	12581.25	11631.6
875.0705	1307.9497	12320.7	11377.1
875.2147	1309.8333	12092.3	11150.8
875.359	1311.7162	11951.45	11007.1
875.5032	1313.5984	11882.15	10933.4
875.6475	1315.4798	11887.9	10944.25
875.7917	1317.3605	11937.4	10977.7
875.9359	1319.2405	11921.25	10972.55
876.0801	1321.1197	11800.55	10852.4
876.2243	1322.9982	11668	10716.9
876.3685	1324.876	11571.25	10627.9
876.5127	1326.753	11396.4	10450.85
876.6569	1328.6293	11323.3	10375.35
876.801	1330.5048	11250.35	10301.6
876.9452	1332.3796	11198.75	10254.6
877.0893	1334.2537	11169.05	10196.25
877.2335	1336.127	11085.15	10141.25
877.3776	1337.9996	11050.95	10107.05
877.5217	1339.8714	11036.8	10093.2
877.6658	1341.7426	11069.25	10081.95
877.8099	1343.6129	11053.75	10108.6
877.954	1345.4826	10986.75	10038.15
878.0981	1347.3515	11027.9	10081.55
878.2422	1349.2196	10972.7	10025.3
878.3862	1351.087	10993.25	10047.65
878.5303	1352.9537	11032.5	10089.35
878.6743	1354.8197	11123.5	10177.8
878.8184	1356.6849	11296	10352.25
878.9624	1358.5493	11416.7	10472.25
879.1064	1360.4131	11508.35	10564.4
879.2504	1362.276	11545.9	10602.25
879.3944	1364.1383	11432.65	10493.45
879.5384	1365.9998	11208.6	10259.95
879.6823	1367.8606	10871.75	9925.5
879.8263	1369.7206	10567.55	9624.3
879.9702	1371.5799	10317.3	9369.5
880.1142	1373.4384	10147.65	9201.6
880.2581	1375.2962	9977.05	9031.8
880.402	1377.1533	9692.3	8748.35
880.5459	1379.0096	9367.5	8426.5
880.6898	1380.8652	9043.8	8107.35
880.8337	1382.7201	8793.7	7855.5
880.9776	1384.5742	8560.15	7616
881.1215	1386.4275	8414.5	7470.3
881.2653	1388.2802	8292.55	7349.8
881.4092	1390.132	8192.45	7247.55
881.553	1391.9832	8091.85	7147.65
881.6968	1393.8336	8039.45	7095.1
881.8406	1395.6832	8036.2	7088.95
881.9844	1397.5322	7982.55	7040.9
882.1282	1399.3803	7961.95	7015.8
882.272	1401.2278	7914.85	6973.95
882.4158	1403.0745	7911.55	6971.35
882.5595	1404.9204	7909.25	6971.35
882.7033	1406.7656	7942.45	6999.25
882.847	1408.6101	7947.3	7003.5
882.9908	1410.4538	7980.55	7037.95
883.1345	1412.2968	8017.9	7074.1
883.2782	1414.139	8049.8	7106.95
883.4219	1415.9805	8144.75	7204.65
883.5656	1417.8213	8224.8	7276.5
883.7092	1419.6613	8338.55	7398.15
883.8529	1421.5006	8509.4	7565.6
883.9965	1423.3391	8726	7783.65
884.1402	1425.1769	9049.4	8104.7
884.2838	1427.0139	9495.55	8553.6
884.4274	1428.8502	10065.45	9122.15
884.571	1430.6858	10572.9	9634.8
884.7146	1432.5206	10980.25	10039.85
884.8582	1434.3547	11221.35	10274.6
885.0018	1436.188	11257.1	10314.3
885.1453	1438.0206	11177.9	10233.4
885.2889	1439.8524	10986.4	10043.5
885.4324	1441.6835	10873.65	9931.8
885.5759	1443.5139	10815.45	9871.6
885.7194	1445.3435	10731.3	9793
885.8629	1447.1724	10699.7	9761
886.0064	1449.0005	10650.5	9712.3
886.1499	1450.8279	10534.1	9596.15
886.2933	1452.6545	10538.15	9599.6
886.4368	1454.4804	10558.5	9622.9
886.5802	1456.3056	10521.15	9578.1
886.7237	1458.13	10431.85	9492.9
886.8671	1459.9536	10260.55	9324.7
887.0105	1461.7766	9951.45	9010.35
887.1539	1463.5987	9575.8	8638.15
887.2972	1465.4202	9205.1	8266.65
887.4406	1467.2409	8871.3	7933.4
887.584	1469.0608	8616.35	7677.7
887.7273	1470.88	8364.4	7421.95
887.8706	1472.6984	8136.35	7195.45
888.0139	1474.5161	7920.1	6981.85
888.1572	1476.3331	7776.35	6837.7
888.3005	1478.1493	7660.75	6720.85
888.4438	1479.9648	7541.25	6602.8
888.5871	1481.7795	7467.5	6524.95
888.7303	1483.5935	7399.85	6459.9
888.8736	1485.4067	7344.2	6403.15
889.0168	1487.2192	7302.5	6362
889.16	1489.031	7259	6318.7
889.3032	1490.842	7192.7	6254.55
889.4464	1492.6522	7199.3	6260.5
889.5896	1494.4618	7153.35	6215.2
889.7327	1496.2705	7119.35	6182.65
889.8759	1498.0785	7089.95	6150.5
890.019	1499.8858	7068.15	6127.95
890.1622	1501.6924	7019.6	6085.2
890.3053	1503.4981	6998	6059.85
890.4484	1505.3032	6969.15	6030.35
890.5914	1507.1075	6936.1	5999.2
890.7345	1508.911	6896.1	5960.7
890.8776	1510.7138	6873.55	5936.1
891.0206	1512.5159	6821.2	5883.05
891.1637	1514.3172	6772.6	5837.2
891.3067	1516.1178	6735.6	5799.55
891.4497	1517.9176	6713.8	5776.7
891.5927	1519.7166	6667.45	5733.2
891.7357	1521.515	6628.55	5685.9
891.8786	1523.3126	6606.55	5674.7
892.0216	1525.1094	6610.9	5676.1
892.1645	1526.9055	6564	5632.25
892.3074	1528.7008	6554.1	5621.45
892.4503	1530.4954	6505.45	5570.7
892.5932	1532.2893	6500.75	5569.05
892.7361	1534.0824	6473.65	5539.75
892.879	1535.8747	6473	5543.75
893.0218	1537.6663	6452.45	5524.45
893.1647	1539.4572	6456.3	5525.75
893.3075	1541.2473	6423.2	5490.65
893.4503	1543.0367	6429.35	5499.2
893.5931	1544.8253	6453.25	5520.25
893.7359	1546.6132	6461.3	5529.65
893.8787	1548.4003	6443.6	5507.9
894.0214	1550.1867	6501	5561.6
894.1642	1551.9723	6555.65	5622.15
894.3069	1553.7572	6566.15	5637.35
894.4496	1555.5414	6641.2	5712.8
894.5923	1557.3247	6737.85	5813.1
894.735	1559.1074	6819.1	5899
894.8777	1560.8893	6947.45	6026.05
895.0204	1562.6705	7016.95	6091.45
895.163	1564.4509	7103.95	6181.35
895.3056	1566.2305	7170.5	6252.15
895.4482	1568.0094	7230.6	6313.6
895.5908	1569.7876	7267.15	6347.25
895.7334	1571.565	7246	6320.45
895.876	1573.3417	7249.3	6325.55
896.0186	1575.1176	7237	6314.45
896.1611	1576.8928	7203.55	6282.25
896.3036	1578.6672	7146.35	6232.7
896.4461	1580.4409	7077.95	6163.7
896.5886	1582.2138	7001.95	6083.9
896.7311	1583.986	6947.35	6029.15
896.8736	1585.7575	6939.25	6020
897.0161	1587.5282	6932.6	6020.9
897.1585	1589.2981	6936.8	6023.6
897.3009	1591.0673	6933.4	6021.4
897.4433	1592.8358	6993.4	6079.55
897.5857	1594.6035	7014.65	6094.4
897.7281	1596.3704	7065.25	6146.8
897.8705	1598.1366	7125.6	6208.6
898.0128	1599.9021	7187.2	6272.55
898.1551	1601.6668	7260.9	6344.95
898.2975	1603.4308	7340.3	6421.5
898.4398	1605.194	7490.5	6570.65
898.5821	1606.9564	7595.8	6685.05
898.7243	1608.7182	7803.1	6895.9
898.8666	1610.4791	7975.95	7077.5
899.0088	1612.2394	8177.55	7276.65
899.1511	1613.9988	8395.15	7492.7
899.2933	1615.7576	8607.1	7698.9
899.4355	1617.5156	8825.15	7901.85
899.5776	1619.2728	8987.15	8069.5
899.7198	1621.0293	9038.15	8121.05
899.862	1622.785	9011.5	8095.3
900.0041	1624.54	8854.25	7944.4
900.1462	1626.2942	8672.65	7762.15
900.2883	1628.0477	8374.95	7463.6
900.4304	1629.8005	8150.75	7238.15
900.5725	1631.5525	7917.35	7008.35
900.7145	1633.3037	7718.4	6814.8
900.8566	1635.0542	7583.4	6675.75
900.9986	1636.804	7454.05	6545.1
901.1406	1638.553	7459.2	6490.3
901.2826	1640.3013	7363.55	6452.7
901.4245	1642.0488	7316.15	6406.1
901.5665	1643.7955	7371.7	6462.25
901.7085	1645.5416	7459.2	6551.85
901.8504	1647.2868	7539.9	6632.85
901.9923	1649.0313	7631.05	6720
902.1342	1650.7751	7787.65	6879.1
902.2761	1652.5181	7940.4	7034
902.4179	1654.2604	8129.55	7224.35
902.5598	1656.0019	8373.45	7469.05
902.7016	1657.7427	8656.15	7749
902.8434	1659.4828	8943.3	8035
902.9852	1661.222	9110.2	8198.7
903.127	1662.9606	9073.5	8164.8
903.2687	1664.6984	8852.9	7941.05
903.4105	1666.4354	8444.2	7528.55
903.5522	1668.1717	7937.85	7024.8
903.6939	1669.9072	7431.35	6520.15
903.8356	1671.642	6982.6	6067.05
903.9773	1673.3761	6623.65	5713.45
904.119	1675.1094	6345.2	5434.95
904.2606	1676.8419	6107.7	5196.85
904.4022	1678.5737	5939.15	5029.95
904.5439	1680.3048	5796.1	4885.1
904.6855	1682.0351	5679	4768.55
904.827	1683.7646	5587.75	4673.45
904.9686	1685.4934	5527.45	4619.25
905.1101	1687.2215	5444	4534.1
905.2517	1688.9488	5395.15	4489.3
905.3932	1690.6754	5337.35	4427.2
905.5347	1692.4012	5299.95	4393.05
905.6761	1694.1263	5267	4356.85
905.8176	1695.8506	5229.1	4319
905.9591	1697.5742	5178.4	4273.95
906.1005	1699.297	5151.7	4251.05
906.2419	1701.0191	5111.35	4208.85
906.3833	1702.7404	5113.9	4212.15
906.5246	1704.461	5060.15	4153.95
906.666	1706.1808	5043.5	4136.7
906.8073	1707.8999	4999.45	4093.65
906.9487	1709.6182	4987.9	4088.55
907.09	1711.3358	4965.8	4070.45
907.2313	1713.0527	4933.6	4034.65
907.3725	1714.7688	4917.65	4011.15
907.5138	1716.4841	4895.05	3988.55
907.655	1718.1987	4898.35	3990.7
907.7962	1719.9126	4851.1	3951.95
907.9374	1721.6257	4828.45	3929.05
908.0786	1723.338	4834.05	3935.15
908.2198	1725.0496	4794.9	3893.9
908.3609	1726.7605	4799.25	3898.9
908.502	1728.4706	4784.5	3881.75
908.6431	1730.18	4750.5	3849
908.7842	1731.8886	4731.75	3832.35
908.9253	1733.5964	4739	3821.65
909.0664	1735.3036	4713.6	3812.45
909.2074	1737.0099	4705.95	3806.05
909.3484	1738.7156	4686.55	3790.2
909.4894	1740.4204	4643.75	3742.85
909.6304	1742.1246	4626.8	3724.75
909.7714	1743.8279	4627.95	3729.15
909.9123	1745.5306	4606	3711
910.0532	1747.2325	4566.6	3669.75
910.1941	1748.9336	4562.3	3662.4
910.335	1750.634	4545.75	3643.4
910.4759	1752.3336	4523.45	3623.7
910.6168	1754.0325	4503.05	3607.4
910.7576	1755.7307	4504.5	3607.35
910.8984	1757.4281	4499.05	3598.6
911.0392	1759.1247	4496.7	3586.4
911.18	1760.8206	4487.2	3579.55
911.3208	1762.5158	4484.45	3579.1
911.4615	1764.2102	4453.15	3552.8
911.6022	1765.9039	4441.9	3544.2
911.7429	1767.5968	4423	3529.4
911.8836	1769.289	4418.8	3524.75
912.0243	1770.9804	4397	3498.85
912.1649	1772.6711	4397.05	3494.15
912.3056	1774.361	4377.05	3472.5
912.4462	1776.0502	4375.8	3471.65
912.5868	1777.7386	4374.65	3470.85
912.7274	1779.4263	4345.5	3445.8
912.8679	1781.1132	4345	3451.45
913.0084	1782.7994	4320.65	3425.85
913.149	1784.4849	4330.45	3437.05
913.2895	1786.1696	4331.3	3418.25
913.4299	1787.8535	4312.15	3419.05
913.5704	1789.5367	4296.15	3405.75
913.7108	1791.2192	4300.9	3407.95
913.8513	1792.9009	4297.45	3375.7
913.9917	1794.5818	4287.3	3388.05
914.132	1796.2621	4260	3362.2
914.2724	1797.9415	4253	3352.95
914.4128	1799.6202	4246.9	3347.1
914.5531	1801.2982	4224.9	3325.45
914.6934	1802.9755	4236.8	3334.8
914.8337	1804.6519	4228.65	3329.25
914.9739	1806.3277	4212.2	3317.9
915.1142	1808.0027	4178.3	3286.5
915.2544	1809.6769	4179.95	3286.6
915.3946	1811.3504	4180.05	3286.75
915.5348	1813.0231	4171.55	3277.1
915.675	1814.6951	4160.3	3264.55
915.8151	1816.3664	4157.4	3258.9
915.9553	1818.0369	4164.2	3269.15
916.0954	1819.7067	4144.25	3248.25
916.2355	1821.3757	4131.65	3233.05
916.3755	1823.044	4137.5	3238.85
916.5156	1824.7115	4126.05	3226.2
916.6556	1826.3783	4104.9	3204.7
916.7956	1828.0443	4084.4	3187.75
916.9356	1829.7096	4077.65	3180.4
917.0756	1831.3741	4087.8	3190.25
917.2155	1833.0379	4065.8	3169.9
917.3555	1834.701	4069.65	3174.65
917.4954	1836.3633	4042.8	3148.25
917.6353	1838.0248	4044.8	3149.8
917.7751	1839.6856	4032.5	3137.1
917.915	1841.3457	4030.45	3134.6
918.0548	1843.005	4024.5	3127.6
918.1946	1844.6636	4031.75	3131.7
918.3344	1846.3214	4011.8	3113.55
918.4742	1847.9785	4028.1	3134.3
918.6139	1849.6349	3993.15	3094.7
918.7537	1851.2904	4012.15	3103.85
918.8934	1852.9453	4005.75	3102.9
919.0331	1854.5994	3985.25	3084.75
919.1727	1856.2528	3995.5	3094
919.3124	1857.9054	3970.95	3071.95
919.452	1859.5572	3973.05	3077.4
919.5916	1861.2083	3970	3070.8
919.7312	1862.8587	3970.1	3072.9
919.8708	1864.5084	3954.4	3054.2
920.0103	1866.1572	3946.45	3047.15
920.1498	1867.8054	3925.25	3024.8
920.2893	1869.4528	3925.2	3025.2
920.4288	1871.0994	3902.35	3002.65
920.5683	1872.7453	3894.1	2994.6
920.7077	1874.3905	3899.05	2984.15
920.8471	1876.0349	3869.65	2971.05
920.9865	1877.6786	3869.1	2969.75
921.1259	1879.3215	3862.5	2963.45
921.2653	1880.9637	3873.6	2973.7
921.4046	1882.6051	3860.4	2963.85
921.5439	1884.2458	3858.05	2961.35
921.6832	1885.8858	3825	2926.85
921.8225	1887.525	3836.85	2938.4
921.9617	1889.1634	3817.5	2922.25
922.101	1890.8011	3809.7	2908.75
922.2402	1892.4381	3795.9	2897.2
922.3794	1894.0743	3796.45	2901.35
922.5185	1895.7098	3785	2887.2
922.6577	1897.3446	3793.95	2895.9
922.7968	1898.9786	3772.85	2872.1
922.9359	1900.6118	3761.35	2865.1
923.075	1902.2443	3748.3	2851.4
923.214	1903.8761	3749.85	2852.75
923.3531	1905.5071	3733.95	2836.3
923.4921	1907.1374	3719.45	2822.85
923.6311	1908.7669	3728.75	2831.2
923.77	1910.3957	3716.4	2820.95
923.909	1912.0237	3682.15	2787.15
924.0479	1913.651	3701.5	2801.9
924.1868	1915.2776	3686.7	2794.05
924.3257	1916.9034	3683.1	2785.8
924.4646	1918.5285	3661.4	2767
924.6034	1920.1528	3644.65	2748.2
924.7422	1921.7764	3647.5	2750.2
924.881	1923.3992	3644.45	2747.2
925.0198	1925.0213	3616.5	2719.95
925.1586	1926.6427	3590	2697.15
925.2973	1928.2633	3784.5	2684.7
925.436	1929.8832	3628.5	2730.65
925.5747	1931.5023	3575.85	2679.05
925.7134	1933.1207	3581	2684.75
925.852	1934.7383	3577.9	2681.6
925.9906	1936.3552	3556.5	2662.4
926.1292	1937.9714	3548.7	2652.75
926.2678	1939.5868	3559.65	2662.2
926.4064	1941.2015	3519.7	2622.1
926.5449	1942.8154	3516	2619.3
926.6834	1944.4286	3514	2615.7
926.8219	1946.041	3513.45	2598.2
926.9604	1947.6528	3479.25	2577.75
927.0988	1949.2637	3476.2	2583.1
927.2372	1950.8739	3464.35	2570.85
927.3756	1952.4834	3462.75	2566.65
927.514	1954.0921	3453.05	2558.45
927.6523	1955.7001	3443.5	2544.95
927.7907	1957.3074	3433.7	2542.45
927.929	1958.9139	3417.2	2525.35
928.0673	1960.5197	3416.8	2522.35
928.2055	1962.1247	3401.4	2510.35
928.3438	1963.729	3388.8	2498.6
928.482	1965.3325	3383.15	2486.1
928.6202	1966.9353	3375.75	2484.3
928.7584	1968.5374	3353.35	2461.5
928.8965	1970.1387	3361.65	2471.45
929.0346	1971.7393	3350.6	2460.15
929.1727	1973.3392	3336.3	2443.65
929.3108	1974.9383	3321.1	2431
929.4489	1976.5366	3311.2	2421.45
929.5869	1978.1342	3304.25	2414.5
929.7249	1979.7311	3290.7	2401.1
929.8629	1981.3273	3287.95	2396.6
930.0009	1982.9227	3291.75	2403.7
930.1388	1984.5173	3283.55	2396.2
930.2767	1986.1112	3258.85	2371.45
930.4146	1987.7044	3273.95	2384.9
930.5525	1989.2968	3252.4	2360.95
930.6904	1990.8885	3265.5	2372.8
930.8282	1992.4795	3235.65	2346.55
930.966	1994.0697	3230.3	2345.05
931.1038	1995.6592	3233.95	2343.3
931.2415	1997.2479	3215.4	2326.7
931.3793	1998.8359	3212.9	2325
931.517	2000.4232	3201.95	2317.85
931.6547	2002.0097	3181.3	2298.9
931.7923	2003.5955	3178.25	2293.5
931.93	2005.1805	3179.4	2294.15
932.0676	2006.7648	3163.95	2281.55
932.2052	2008.3484	3169.5	2283.25
932.3427	2009.9312	3177.8	2294.4
932.4803	2011.5133	3142.85	2261.9
932.6178	2013.0946	3146.6	2264.8
932.7553	2014.6752	3133.75	2250.75
932.8928	2016.2551	3137.8	2252.9
933.0302	2017.8342	3123.5	2236.75
933.1676	2019.4126	3115.2	2232.3
933.305	2020.9902	3116.9	2234.3
933.4424	2022.5672	3097.35	2213.35
933.5798	2024.1433	3106.4	2219.3
933.7171	2025.7188	3088.7	2209.05
933.8544	2027.2935	3083.95	2202.45
933.9917	2028.8674	3063.85	2183.45
934.129	2030.4406	3071.85	2195.05
934.2662	2032.0131	3060.05	2181
934.4034	2033.5849	3044.7	2161.4
934.5406	2035.1559	3047.35	2166.1
934.6778	2036.7261	3045.6	2161.15
934.8149	2038.2957	3042.75	2156.1
934.952	2039.8645	3031.9	2144.2
935.0891	2041.4325	3048.15	2158.65
935.2262	2042.9998	3026.75	2142.75
935.3632	2044.5664	3024.9	2141.5
935.5002	2046.1323	3019.95	2136.95
935.6372	2047.6974	2997.65	2116
935.7742	2049.2617	2991.45	2109.35
935.9111	2050.8254	3015.6	2099.45
936.048	2052.3883	3001.95	2114.9
936.1849	2053.9504	2988.85	2103.6
936.3218	2055.5118	2981.75	2093.7
936.4586	2057.0725	2969.75	2082.7
936.5955	2058.6325	2969.15	2084.8
936.7323	2060.1917	2963.2	2079.65
936.869	2061.7502	2956.15	2072.4
937.0058	2063.3079	2941.7	2061.65
937.1425	2064.8649	2942.5	2054.95
937.2792	2066.4212	2945.1	2059.75
937.4159	2067.9767	2933.55	2048.75
937.5525	2069.5315	2908.95	2025.3
937.6891	2071.0856	2909.7	2025.6
937.8257	2072.6389	2895.85	2012.15
937.9623	2074.1915	2895.1	2014.9
938.0989	2075.7433	2881.5	1995.25
938.2354	2077.2945	2871.35	1988.35
938.3719	2078.8448	2877.35	1990.7
938.5084	2080.3945	2864.05	1976.5
938.6448	2081.9434	2861.25	1974.8
938.7812	2083.4916	2854.8	1964.55
938.9176	2085.039	2858.4	1965.5
939.054	2086.5857	2853.55	1959.3
939.1903	2088.1317	2844.85	1950.3
939.3267	2089.677	2837.25	1942.85
939.463	2091.2215	2834.1	1939.4
939.5992	2092.7652	2828.85	1933.4
939.7355	2094.3083	2817.9	1923.2
939.8717	2095.8506	2822.15	1934.15
940.0079	2097.3921	2815.3	1925.65
940.1441	2098.933	2817.6	1929.15
940.2802	2100.4731	2798.55	1908.9
940.4163	2102.0124	2798.55	1902.8
940.5524	2103.5511	2788.05	1898.2
940.6885	2105.089	2798.75	1908.25
940.8245	2106.6261	2792	1904.25
940.9606	2108.1626	2775.15	1885.75
941.0965	2109.6983	2797.05	1880
941.2325	2111.2332	2772.5	1879.95
941.3684	2112.7675	2774.75	1884.15
941.5044	2114.301	2760.6	1868.9
941.6403	2115.8337	2758.8	1867.4
941.7761	2117.3657	2758.55	1868.35
941.912	2118.897	2758	1865.6
942.0478	2120.4276	2746.8	1849.25
942.1835	2121.9575	2734.65	1843.3
942.3193	2123.4866	2732.15	1838.7
942.455	2125.0149	2736.25	1841.7
942.5907	2126.5426	2721.65	1837.25
942.7264	2128.0695	2717.1	1828.7
942.8621	2129.5956	2709.55	1828.9
942.9977	2131.1211	2723.55	1833.2
943.1333	2132.6458	2697.4	1809.5
943.2689	2134.1698	2696.65	1805.3
943.4044	2135.693	2703.85	1808.3
943.54	2137.2155	2694.85	1798.9
943.6755	2138.7373	2680.3	1792.2
943.8109	2140.2584	2667.85	1783.3
943.9464	2141.7787	2664.5	1775.75
944.0818	2143.2983	2662.6	1781.05
944.2172	2144.8171	2641.85	1759.7
944.3526	2146.3353	2650.65	1763.3
944.4879	2147.8527	2651.75	1764.6
944.6232	2149.3693	2652.55	1762.95
944.7585	2150.8853	2630.3	1735.95
944.8938	2152.4005	2623.8	1730.95
945.029	2153.9149	2628.35	1731.95
945.1642	2155.4287	2624.25	1730.2
945.2994	2156.9417	2619.65	1729.2
945.4346	2158.454	2621.55	1730.6
945.5697	2159.9655	2611.75	1726
945.7048	2161.4764	2611.95	1726
945.8399	2162.9865	2593.65	1707.4
945.9749	2164.4958	2594.1	1709.15
946.1099	2166.0045	2586.55	1695.9
946.2449	2167.5124	2589.55	1700
946.3799	2169.0195	2581.55	1688.05
946.5148	2170.526	2590	1700
946.6498	2172.0317	2575.4	1685.6
946.7846	2173.5367	2553.05	1662.7
946.9195	2175.0409	2570.35	1681.85
947.0543	2176.5445	2577.95	1688.6
947.1891	2178.0473	2557.75	1664.9
947.3239	2179.5494	2563.55	1669.45
947.4587	2181.0507	2552.95	1662.2
947.5934	2182.5513	2535.8	1647.15
947.7281	2184.0512	2543.65	1653.4
947.8628	2185.5504	2538.3	1648.9
947.9974	2187.0488	2523	1636.85
948.132	2188.5465	2523.8	1637
948.2666	2190.0435	2510.65	1622.7
948.4012	2191.5397	2511.4	1621.75
948.5357	2193.0353	2505.85	1612.2
948.6702	2194.5301	2505.6	1613
948.8047	2196.0241	2489.15	1593.5
948.9392	2197.5175	2490.75	1594.05
949.0736	2199.0101	2488.55	1590.15
949.208	2200.502	2471.55	1579.8
949.3424	2201.9931	2475.05	1588.3
949.4767	2203.4835	2469.05	1581.65
949.611	2204.9733	2464.05	1572.8
949.7453	2206.4622	2457.65	1572.35
949.8796	2207.9505	2447.8	1558.8
950.0138	2209.438	2436.25	1552.4
950.148	2210.9248	2438.85	1551.85
950.2822	2212.4109	2430.15	1540.85
950.4164	2213.8962	2425.8	1530.05
950.5505	2215.3809	2434.25	1538.3
950.6846	2216.8648	2427.05	1530.4
950.8186	2218.3479	2418.35	1516.4
950.9527	2219.8304	2410.25	1511.3
951.0867	2221.3121	2418.65	1519.9
951.2207	2222.7931	2400.65	1505.5
951.3546	2224.2733	2390.35	1495.85
951.4886	2225.7529	2389	1495.9
951.6225	2227.2317	2392.95	1502.85
951.7563	2228.7098	2377.3	1491
951.8902	2230.1872	2365.75	1480.9
952.024	2231.6638	2367.2	1480.5
952.1578	2233.1397	2366.3	1475.45
952.2916	2234.6149	2362.95	1474.95
952.4253	2236.0894	2355.65	1464.2
952.559	2237.5632	2354.35	1454.45
952.6927	2239.0362	2340.6	1451.75
952.8263	2240.5085	2339.7	1451.5
952.9599	2241.9801	2334.45	1443.8
953.0935	2243.4509	2327.55	1435.65
953.2271	2244.921	2330.55	1436.25
953.3606	2246.3904	2325.6	1428
953.4941	2247.8591	2327.45	1435.8
953.6276	2249.3271	2309.85	1416.55
953.7611	2250.7943	2312.55	1419.95
953.8945	2252.2608	2291.1	1398.55
954.0279	2253.7266	2292.65	1398.35
954.1612	2255.1917	2301.6	1409.95
954.2946	2256.656	2283.25	1391.7
954.4279	2258.1197	2281.7	1393.9
954.5612	2259.5826	2277.55	1385.35
954.6944	2261.0447	2269.75	1379.1
954.8276	2262.5062	2269.55	1373.5
954.9608	2263.9669	2268.65	1372.4
955.094	2265.4269	2262.8	1370.5
955.2271	2266.8862	2258.15	1367.85
955.3602	2268.3448	2263.4	1374.95
955.4933	2269.8026	2255.65	1367.25
955.6264	2271.2598	2238.65	1349.35
955.7594	2272.7162	2241.85	1354.65
955.8924	2274.1719	2245.7	1354.5
956.0253	2275.6268	2243.7	1349.5
956.1583	2277.0811	2241.45	1346.7
956.2912	2278.5346	2233.9	1344.6
956.4241	2279.9874	2230.7	1340.65
956.5569	2281.4395	2225.3	1338.05
956.6897	2282.8908	2225.9	1332.95
956.8225	2284.3414	2230.4	1338.55
956.9553	2285.7914	2221.25	1330.05
957.088	2287.2406	2207.1	1312.7
957.2207	2288.689	2210.2	1315.75
957.3534	2290.1368	2203.05	1304.15
957.486	2291.5838	2213.3	1312.85
957.6186	2293.0302	2201.6	1304
957.7512	2294.4758	2194.75	1299.65
957.8838	2295.9206	2188.7	1293.85
958.0163	2297.3648	2193.25	1303.1
958.1488	2298.8082	2178.45	1284.55
958.2813	2300.251	2171.25	1278.4
958.4137	2301.693	2176	1278.55
958.5461	2303.1343	2169.75	1275.2
958.6785	2304.5748	2173.85	1282.85
958.8108	2306.0147	2167	1276.6
958.9432	2307.4538	2169.8	1280
959.0754	2308.8922	2151.3	1264.3
959.2077	2310.3299	2154.95	1268.3
959.3399	2311.7669	2146.35	1258
959.4721	2313.2031	2146.8	1255.9
959.6043	2314.6387	2147.5	1254.15
959.7365	2316.0735	2135.9	1243.75
959.8686	2317.5076	2135.15	1242
960.0006	2318.941	2119.6	1225.6
960.1327	2320.3737	2127	1230.25
960.2647	2321.8056	2129.95	1234.5
960.3967	2323.2369	2121.7	1227
960.5287	2324.6674	2118.3	1224.8
960.6606	2326.0972	2117.3	1223.65
960.7925	2327.5263	2108.65	1215.3
960.9244	2328.9547	2120.5	1226.55
961.0562	2330.3823	2104.65	1208.45
961.1881	2331.8092	2099	1202.7
961.3198	2333.2355	2088.85	1191.75
961.4516	2334.661	2088.5	1196.1
961.5833	2336.0858	2098.45	1203.55
961.715	2337.5098	2091.55	1199.45
961.8467	2338.9332	2077.9	1184.5
961.9783	2340.3558	2083.85	1189.9
962.1099	2341.7778	2076.35	1186.45
962.2415	2343.199	2077.85	1185.1
962.373	2344.6195	2076.9	1187.15
962.5045	2346.0393	2065.35	1176.3
962.636	2347.4583	2071.6	1180.75
962.7675	2348.8767	2058.9	1167.1
962.8989	2350.2943	2058.85	1164.9
963.0303	2351.7113	2068.75	1172.55
963.1617	2353.1275	2055.35	1159
963.293	2354.543	2072.25	1169.15
963.4243	2355.9578	2045.5	1153.7
963.5556	2357.3718	2039.05	1148.3
963.6868	2358.7852	2036.2	1142
963.818	2360.1978	2030.25	1140.05
963.9492	2361.6098	2032.4	1143.95
964.0803	2363.021	2037.55	1143.35
964.2114	2364.4315	2024.5	1135
964.3425	2365.8413	2039.05	1149.1
964.4736	2367.2504	2021.6	1133
964.6046	2368.6587	2022.55	1133.85
964.7356	2370.0664	2010.7	1122.65
964.8666	2371.4733	2004.05	1112.55
964.9975	2372.8795	2016.65	1125.85
965.1284	2374.285	2004.95	1114.2
965.2593	2375.6899	1995.65	1105.4
965.3901	2377.0939	1983.75	1095.5
965.5209	2378.4973	1979.65	1091.05
965.6517	2379.9	1984.2	1093.8
965.7825	2381.3019	1967.9	1081.1
965.9132	2382.7032	1983.15	1094.7
966.0439	2384.1037	1968.6	1084.3
966.1745	2385.5035	1969.1	1081.65
966.3051	2386.9027	1959.35	1072.85
966.4357	2388.3011	1975.6	1086.35
966.5663	2389.6987	1956.55	1070.05
966.6968	2391.0957	1948.95	1063.45
966.8273	2392.492	1947.2	1060.55
966.9578	2393.8876	1941.15	1054.65
967.0882	2395.2824	1938.65	1051.25
967.2186	2396.6765	1933.9	1045.75
967.349	2398.07	1938.65	1050.1
967.4793	2399.4627	1929.05	1039
967.6097	2400.8547	1924.55	1034.6
967.7399	2402.246	1929.1	1034.5
967.8702	2403.6366	1910.1	1019.95
968.0004	2405.0265	1909.15	1022.85
968.1306	2406.4156	1909.2	1019.4
968.2607	2407.8041	1907.55	1017.4
968.3909	2409.1918	1906.65	1017.25
968.521	2410.5789	1899.95	1010.5
968.651	2411.9652	1894.2	1001.7
968.781	2413.3508	1887.45	999.5
968.911	2414.7358	1900.65	1012
969.041	2416.12	1886.6	999.95
969.1709	2417.5035	1888.9	1000.95
969.3008	2418.8863	1894.15	1006.05
969.4307	2420.2684	1882.45	993.85
969.5606	2421.6497	1884	993.35
969.6904	2423.0304	1872.45	984.35
969.8201	2424.4104	1873.95	984.55
969.9499	2425.7896	1874.75	987.45
970.0796	2427.1682	1864.6	978.55
970.2093	2428.546	1856.95	969.45
970.3389	2429.9232	1856.6	965.4
970.4685	2431.2996	1856.75	967.5
970.5981	2432.6753	1854.55	964.95
970.7277	2434.0503	1846.95	957.5
970.8572	2435.4246	1842.2	954.95
970.9867	2436.7982	1836.9	944.9
971.1161	2438.1711	1847.55	959.95
971.2456	2439.5433	1843.05	952.55
971.375	2440.9148	1840.45	945.95
971.5043	2442.2856	1830.55	941.8
971.6336	2443.6557	1826.95	937.9
971.7629	2445.025	1825.55	937.6
971.8922	2446.3937	1830.15	939.2
972.0214	2447.7617	1825.95	936.75
972.1506	2449.1289	1812.5	924.55
972.2798	2450.4955	1821.55	930.35
972.4089	2451.8613	1810.85	922.85
972.538	2453.2265	1804	915.55
972.6671	2454.5909	1806	917.7
972.7961	2455.9546	1810.45	922.55
972.9251	2457.3177	1797	910.7
973.0541	2458.68	1804.55	913.2
973.1831	2460.0416	1799.4	910.3
973.312	2461.4025	1795	903.15
973.4408	2462.7627	1813.05	911.55
973.5697	2464.1222	1790.95	905.2
973.6985	2465.4811	1793.2	903.85
973.8273	2466.8392	1793.65	904.2
973.956	2468.1966	1790.8	900.45
974.0847	2469.5533	1784.35	892.4
974.2134	2470.9093	1793.95	905.6
974.3421	2472.2645	1791.65	899.6
974.4707	2473.6191	1776.9	888.45
974.5993	2474.973	1779.05	888.1
974.7278	2476.3262	1780.7	889.25
974.8563	2477.6787	1777.55	890.4
974.9848	2479.0305	1775.4	889.1
975.1132	2480.3816	1764.6	872.9
975.2417	2481.7319	1756.8	867.15
975.37	2483.0816	1758.5	869.2
975.4984	2484.4306	1758.95	870.25
975.6267	2485.7789	1747.65	858.95
975.755	2487.1264	1751.65	861.45
975.8833	2488.4733	1742.3	854.7
976.0115	2489.8195	1758.8	851.15
976.1397	2491.165	1737.1	844.2
976.2678	2492.5097	1737.65	847.1
976.3959	2493.8538	1733.85	845.8
976.524	2495.1972	1735.65	847.35
976.6521	2496.5398	1726.6	835
976.7801	2497.8818	1731.15	838.7
976.9081	2499.2231	1724.5	834.3
977.036	2500.5637	1721.85	831
977.164	2501.9035	1710.7	819.95
977.2918	2503.2427	1723.35	830.3
977.4197	2504.5812	1713.1	822.5
977.5475	2505.919	1711.75	821.65
977.6753	2507.256	1714.9	824.7
977.8031	2508.5924	1707.9	818.85
977.9308	2509.9281	1706.65	811.15
978.0585	2511.2631	1695	807.35
978.1861	2512.5974	1702.1	813.9
978.3137	2513.9309	1694.3	804.35
978.4413	2515.2638	1729.5	813.45
978.5689	2516.596	1705.85	815.15
978.6964	2517.9275	1693.7	802.05
978.8239	2519.2583	1681.15	792.65
978.9513	2520.5884	1692.9	801.8
979.0788	2521.9178	1682.6	793.85
979.2062	2523.2465	1681.2	794.2
979.3335	2524.5745	1670.4	782.8
979.4608	2525.9018	1673.55	783.55
979.5881	2527.2284	1678.3	789.6
979.7154	2528.5543	1676.4	786.9
979.8426	2529.8796	1669.4	778.55
979.9698	2531.2041	1675.75	784.5
980.0969	2532.5279	1661.3	772.6
980.224	2533.851	1673.9	785.2
980.3511	2535.1735	1662.75	774.6
980.4781	2536.4952	1664.25	773.45
980.6052	2537.8163	1665.85	774.2
980.7321	2539.1366	1660.5	768.1
980.8591	2540.4562	1658.25	765.75
980.986	2541.7752	1656.1	764.8
981.1129	2543.0935	1656.05	764.25
981.2397	2544.411	1652.85	758.2
981.3665	2545.7279	1646.4	757.85
981.4933	2547.0441	1655.6	765.1
981.62	2548.3596	1650	756.5
981.7467	2549.6744	1643.3	752.25
981.8734	2550.9885	1648.55	756.15
982.0001	2552.3019	1643.65	752.75
982.1267	2553.6146	1638.5	749.95
982.2532	2554.9266	1637.5	746.8
982.3798	2556.2379	1634.25	744.9
982.5063	2557.5485	1636.05	746.5
982.6327	2558.8585	1635.65	738.85
982.7592	2560.1677	1633.4	737.4
982.8856	2561.4762	1633.25	742.4
983.0119	2562.7841	1638.1	746.25
983.1383	2564.0913	1626.05	735.45
983.2646	2565.3977	1621.35	730.2
983.3908	2566.7035	1623.35	730.65
983.517	2568.0086	1624.7	733.25
983.6432	2569.313	1623.3	731.7
983.7694	2570.6167	1629.35	734.85
983.8955	2571.9197	1620.95	730.8
984.0216	2573.222	1612	718.45
984.1476	2574.5236	1615.45	723.85
984.2737	2575.8246	1611.7	718
984.3996	2577.1248	1618.65	727.3
984.5256	2578.4244	1606.7	716.25
984.6515	2579.7232	1608.05	716.75
984.7774	2581.0214	1643.85	720.3
984.9032	2582.3189	1617.25	729.35
985.029	2583.6157	1624.6	730.95
985.1548	2584.9118	1608.25	718
985.2806	2586.2072	1611	718.65
985.4063	2587.5019	1609.5	719.75
985.5319	2588.7959	1615.25	724.25
985.6576	2590.0893	1615.4	723.85
985.7832	2591.3819	1613.25	724.9
985.9087	2592.6739	1611.45	720.85
986.0343	2593.9652	1613.4	720.25
986.1597	2595.2557	1603.85	713.25
986.2852	2596.5456	1613.65	721.15
986.4106	2597.8348	1617.1	729.1
986.536	2599.1234	1604.15	715.85
986.6614	2600.4112	1610.7	720.1
986.7867	2601.6983	1610.35	718.05
986.912	2602.9848	1608.3	718.9
987.0372	2604.2705	1613	716.15
987.1624	2605.5556	1611.05	719.65
987.2876	2606.84	1601.8	711.75
987.4128	2608.1237	1596.25	705.4
987.5379	2609.4067	1594.9	708
987.6629	2610.689	1602.05	704.8
987.788	2611.9707	1600.2	706.15
987.913	2613.2516	1595.9	699.85
988.0379	2614.5319	1582.2	693.8
988.1629	2615.8115	1589.5	699.15
988.2878	2617.0903	1578.15	687.7
988.4126	2618.3685	1580.9	689.8
988.5375	2619.6461	1585	695.35
988.6622	2620.9229	1569.8	680.15
988.787	2622.199	1571.4	684
988.9117	2623.4745	1585.95	697.7
989.0364	2624.7493	1573	684.95
989.161	2626.0234	1579.4	691.25
989.2857	2627.2968	1571.2	681.5
989.4102	2628.5695	1567.35	674.05
989.5348	2629.8415	1570.15	682.65
989.6593	2631.1128	1566.05	675
989.7837	2632.3835	1563.15	672.9
989.9082	2633.6535	1551.4	661.85
990.0326	2634.9228	1557	667.7
990.1569	2636.1914	1565.85	677.05
990.2812	2637.4593	1557.85	668.4
990.4055	2638.7265	1559.85	669.95
990.5298	2639.9931	1557	669.15
990.654	2641.259	1559.55	669.05
990.7782	2642.5242	1550.1	660.2
990.9023	2643.7887	1552.05	663.8
991.0264	2645.0525	1546.85	657.6
991.1505	2646.3156	1545.9	657.25
991.2745	2647.5781	1538.75	651.55
991.3985	2648.8398	1538.3	649.05
991.5225	2650.1009	1578.15	649.75
991.6464	2651.3613	1530.9	641.3
991.7703	2652.6211	1535.75	644.9
991.8942	2653.8801	1534.1	646.25
992.018	2655.1385	1532.95	642.3
992.1418	2656.3961	1529.3	641
992.2655	2657.6531	1534.85	646.3
992.3892	2658.9094	1531.8	639.5
992.5129	2660.1651	1536.8	648.95
992.6366	2661.42	1535.1	646.75
992.7602	2662.6743	1535.95	647.35
992.8837	2663.9279	1536.95	648.75
993.0073	2665.1808	1540.85	652.35
993.1307	2666.433	1541.25	650.15
993.2542	2667.6846	1538.45	650.35
993.3776	2668.9354	1537.95	648.5
993.501	2670.1856	1543.45	654.4
993.6244	2671.4351	1544.75	657.3
993.7477	2672.6839	1547.7	657.25
993.8709	2673.9321	1540	653.2
993.9942	2675.1795	1549.1	657.75
994.1174	2676.4263	1552.15	663.6
994.2405	2677.6724	1542.7	655.3
994.3637	2678.9179	1549.55	661.75
994.4868	2680.1626	1540.25	653.75
994.6098	2681.4067	1547.15	656.9
994.7328	2682.6501	1549.1	659.55
994.8558	2683.8928	1546.7	656.1
994.9788	2685.1348	1538.7	651
995.1017	2686.3761	1534.85	646.35
995.2245	2687.6168	1531.25	642.55
995.3474	2688.8568	1528.45	637.75
995.4702	2690.0961	1527.55	640.2
995.5929	2691.3348	1514.4	624.6
995.7156	2692.5727	1514.1	625.1
995.8383	2693.81	1520.9	632.2
995.961	2695.0466	1514.3	625
996.0836	2696.2826	1511.45	621.05
996.2062	2697.5178	1516.3	624.95
996.3287	2698.7524	1509.8	620.25
996.4512	2699.9863	1513.7	624.15
996.5737	2701.2195	1520.1	632.75
996.6961	2702.452	1519.95	630.25
996.8185	2703.6839	1523.25	633.65
996.9408	2704.9151	1532.05	643.05
997.0631	2706.1456	1531.25	643.45
997.1854	2707.3755	1531.35	642.8
997.3077	2708.6046	1548.5	658.75
997.4299	2709.8331	1547.25	658.6
997.552	2711.0609	1550.5	661.1
997.6742	2712.2881	1559.05	672.75
997.7963	2713.5145	1569.4	678.45
997.9183	2714.7403	1574.4	689.2
998.0403	2715.9654	1589.75	700.4
998.1623	2717.1899	1613.65	709.5
998.2842	2718.4136	1606.05	720
998.4062	2719.6367	1616.25	727.85
998.528	2720.8591	1625.6	731.35
998.6498	2722.0809	1633.1	744.1
998.7716	2723.3019	1653.65	760.3
998.8934	2724.5223	1656	767.05
999.0151	2725.7421	1657.15	767.35
999.1368	2726.9611	1654.3	763.85
999.2584	2728.1795	1667.2	774
999.38	2729.3972	1653.5	763.6
999.5016	2730.6142	1653.5	753.4
999.6231	2731.8306	1636.05	749.4
999.7446	2733.0462	1608.5	716.95
999.8661	2734.2612	1601.65	709.7
999.9875	2735.4756	1578.15	688.35
1000.1089	2736.6892	1564.65	676.35
1000.2302	2737.9022	1552.25	666.55
1000.3515	2739.1145	1535.35	647.9
1000.4728	2740.3262	1537.6	641.95
1000.594	2741.5372	1519	630.25
1000.7152	2742.7475	1510.25	622.3
1000.8363	2743.9571	1497.95	608.1
1000.9575	2745.1661	1488.1	595
1001.0785	2746.3744	1477.1	588.45
1001.1996	2747.582	1470.9	583.75
1001.3206	2748.7889	1464.45	575.45
1001.4415	2749.9952	1452.85	566.6
1001.5625	2751.2008	1449.1	560.2
1001.6833	2752.4057	1447.3	557.8
1001.8042	2753.61	1444.15	557
1001.925	2754.8136	1439.3	549.5
1002.0458	2756.0165	1436	547.5
1002.1665	2757.2188	1434	547.7
1002.2872	2758.4204	1431.9	546
1002.4078	2759.6213	1435.5	546.8
1002.5285	2760.8215	1438.5	549.05
1002.649	2762.0211	1432.4	542.55
1002.7696	2763.22	1434.5	542.4
1002.8901	2764.4182	1429.15	539.4
1003.0106	2765.6158	1427.5	538.9
1003.131	2766.8127	1419.1	531.65
1003.2514	2768.009	1417.45	528.95
1003.3717	2769.2045	1417.35	530.55
1003.492	2770.3994	1416.7	527.2
1003.6123	2771.5936	1418.65	530.7
1003.7325	2772.7872	1406.3	521.05
1003.8527	2773.9801	1403.2	513.65
1003.9729	2775.1723	1419.3	515.8
1004.093	2776.3639	1405.4	518.05
1004.2131	2777.5548	1399.55	511.85
1004.3331	2778.745	1404.7	516.85
1004.4531	2779.9346	1407.5	522.05
1004.5731	2781.1235	1408.8	521
1004.693	2782.3117	1408	523.15
1004.8129	2783.4992	1406.4	521.6
1004.9328	2784.6861	1419	533.7
1005.0526	2785.8723	1421.95	532.1
1005.1723	2787.0579	1420.85	531.3
1005.2921	2788.2428	1425.85	538.7
1005.4118	2789.427	1439.4	553.15
1005.5314	2790.6106	1441.75	554.55
1005.651	2791.7935	1446.8	558.9
1005.7706	2792.9757	1457.8	573.35
1005.8902	2794.1573	1468.2	581.15
1006.0097	2795.3382	1486.65	601.25
1006.1291	2796.5184	1487.8	603.1
1006.2485	2797.698	1508.35	620.7
1006.3679	2798.8769	1517.25	630.8
1006.4873	2800.0551	1529.8	644.05
1006.6066	2801.2327	1546.4	659.2
1006.7258	2802.4096	1560.95	675.85
1006.8451	2803.5859	1585.35	698.9
1006.9642	2804.7615	1595.05	708.7
1007.0834	2805.9364	1619.4	733.7
1007.2025	2807.1106	1643.85	758.65
1007.3216	2808.2842	1667.6	781.35
1007.4406	2809.4572	1698.2	812
1007.5596	2810.6294	1724.3	837.35
1007.6785	2811.801	1757.45	872.85
1007.7975	2812.972	1801.15	917.05
1007.9163	2814.1423	1844.4	957.8
1008.0352	2815.3119	1884.75	1000.2
1008.154	2816.4808	1925.75	1042.85
1008.2727	2817.6491	1976.1	1087.7
1008.3914	2818.8167	2028.45	1145.4
1008.5101	2819.9837	2077.7	1188.3
1008.6288	2821.15	2130	1244
1008.7474	2822.3157	2168.05	1283.4
1008.8659	2823.4807	2224.05	1337.9
1008.9844	2824.645	2287.3	1403.1
1009.1029	2825.8086	2320.45	1435.15
1009.2214	2826.9716	2363.9	1479.05
1009.3398	2828.134	2411.15	1526.15
1009.4581	2829.2957	2454.6	1567.5
1009.5764	2830.4567	2482.45	1599.45
1009.6947	2831.617	2496.15	1611.6
1009.813	2832.7767	2506.95	1621.05
1009.9312	2833.9358	2513.1	1626.85
1010.0493	2835.0941	2514.4	1627.1
1010.1675	2836.2519	2502.5	1618.3
1010.2855	2837.4089	2485.35	1599.85
1010.4036	2838.5653	2473.3	1587.8
1010.5216	2839.7211	2464	1579.8
1010.6396	2840.8761	2472.4	1585.35
1010.7575	2842.0306	2487.1	1602.1
1010.8754	2843.1843	2529.7	1645.75
1010.9932	2844.3374	2556	1673
1011.111	2845.4899	2603.85	1719.05
1011.2288	2846.6417	2677.2	1793.65
1011.3465	2847.7928	2749	1865.8
1011.4642	2848.9433	2824.05	1939.3
1011.5818	2850.0931	2895.05	2011.85
1011.6995	2851.2422	2956.95	2071.05
1011.817	2852.3907	3016.15	2130.4
1011.9345	2853.5385	3079.65	2193.35
1012.052	2854.6857	3145.2	2250.2
1012.1695	2855.8323	3175.25	2291.85
1012.2869	2856.9781	3219.6	2335.35
1012.4042	2858.1233	3277.2	2392.45
1012.5216	2859.2679	3320.75	2434.6
1012.6389	2860.4118	3368.55	2484.45
1012.7561	2861.555	3407.95	2520.25
1012.8733	2862.6976	3447.15	2561.5
1012.9905	2863.8395	3489.7	2607.15
1013.1076	2864.9808	3505.65	2620.85
1013.2247	2866.1214	3522.2	2642.6
1013.3417	2867.2614	3533.05	2646.65
1013.4587	2868.4007	3550.2	2663
1013.5757	2869.5393	3569.7	2682.85
1013.6926	2870.6773	3572	2686
1013.8095	2871.8146	3589.6	2701.4
1013.9263	2872.9513	3585.4	2697.4
1014.0431	2874.0874	3579.05	2693.95
1014.1599	2875.2227	3570.6	2686.4
1014.2766	2876.3574	3554.3	2668.25
1014.3933	2877.4915	3529.85	2646.3
1014.51	2878.6249	3497.45	2613.4
1014.6266	2879.7577	3480.85	2595.85
1014.7431	2880.8898	3472.25	2579.05
1014.8596	2882.0212	3459	2574.1
1014.9761	2883.152	3441.75	2557.7
1015.0925	2884.2821	3425.55	2543.9
1015.2089	2885.4116	3415.85	2531.15
1015.3253	2886.5405	3414.15	2531.4
1015.4416	2887.6686	3428.85	2541.6
1015.5579	2888.7962	3425.6	2543.35
1015.6741	2889.923	3432.2	2550.15
1015.7903	2891.0493	3453.75	2569.8
1015.9065	2892.1748	3453.55	2570.55
1016.0226	2893.2997	3478	2594.1
1016.1387	2894.424	3490.45	2607.8
1016.2547	2895.5476	3511.3	2628.1
1016.3707	2896.6706	3510.7	2627.9
1016.4866	2897.7929	3554.45	2669.8
1016.6025	2898.9145	3584.9	2702.55
1016.7184	2900.0355	3601.9	2717.15
1016.8342	2901.1559	3648.75	2763.35
1016.95	2902.2756	3677.35	2795.75
1017.0658	2903.3946	3703.25	2820.25
1017.1815	2904.513	3738.1	2854.25
1017.2971	2905.6308	3759.15	2877.1
1017.4127	2906.7479	3780.15	2895.15
1017.5283	2907.8643	3812.7	2927.8
1017.6439	2908.9801	3804.5	2921.8
1017.7594	2910.0953	3823.5	2940.2
1017.8748	2911.2098	3814.15	2926.35
1017.9902	2912.3236	3819.75	2928
1018.1056	2913.4368	3804.45	2917.5
1018.2209	2914.5494	3808.25	2924.9
1018.3362	2915.6613	3756.35	2869.65
1018.4515	2916.7725	3724.5	2839.7
1018.5667	2917.8831	3700.95	2818.05
1018.6819	2918.9931	3668.2	2784.65
1018.797	2920.1024	3634.5	2749.25
1018.9121	2921.211	3627.75	2744.25
1019.0271	2922.319	3610.6	2728.3
1019.1421	2923.4264	3603	2720.75
1019.2571	2924.5331	3577.15	2694.85
1019.372	2925.6391	3549.15	2665.15
1019.4869	2926.7445	3562.25	2681.4
1019.6017	2927.8493	3570.5	2685.6
1019.7165	2928.9534	3576.4	2695.35
1019.8313	2930.0569	3552.95	2667.95
1019.946	2931.1597	3557.9	2673.1
1020.0606	2932.2619	3545.45	2663
1020.1753	2933.3634	3543.15	2660.25
1020.2899	2934.4643	3540.05	2649.9
1020.4044	2935.5645	3540.2	2652.55
1020.5189	2936.6641	3507.4	2620.55
1020.6334	2937.763	3451.1	2568.95
1020.7478	2938.8613	3412.25	2530.1
1020.8622	2939.959	3367.6	2479.05
1020.9765	2941.056	3300.3	2418.1
1021.0908	2942.1523	3213.05	2327.7
1021.2051	2943.248	3137.75	2256.4
1021.3193	2944.3431	3061.9	2180.4
1021.4334	2945.4375	2954.75	2072.05
1021.5476	2946.5313	2859.55	1977.75
1021.6617	2947.6244	2760.8	1878.2
1021.7757	2948.7169	2665.15	1780.85
1021.8897	2949.8087	2575.8	1692.45
1022.0037	2950.8999	2486	1603.8
1022.1176	2951.9904	2404.55	1522.85
1022.2315	2953.0803	2327.05	1444.8
1022.3453	2954.1696	2274	1391.35
1022.4591	2955.2582	2221.6	1338.25
1022.5728	2956.3462	2173.6	1292.25
1022.6865	2957.4335	2151.9	1270.85
1022.8002	2958.5202	2109.05	1226.3
1022.9138	2959.6062	2082.9	1200.7
1023.0274	2960.6916	2052.7	1171.8
1023.141	2961.7764	2036	1153.1
1023.2545	2962.8605	2032.3	1147.85
1023.3679	2963.9439	2008.9	1127.05
1023.4813	2965.0267	2001.3	1120.15
1023.5947	2966.1089	2008.25	1105.55
1023.708	2967.1905	1986.35	1103.4
1023.8213	2968.2714	1986.25	1105.6
1023.9346	2969.3516	1981.15	1099.65
1024.0478	2970.4312	1995.3	1107.35
1024.1609	2971.5102	1979.4	1096.2
1024.274	2972.5885	1987.25	1106.65
1024.3871	2973.6662	1989.45	1102.15
1024.5002	2974.7432	1980.85	1100.6
1024.6132	2975.8196	1971.1	1087.15
1024.7261	2976.8954	1960.55	1079.5
1024.839	2977.9705	1957.75	1077.1
1024.9519	2979.045	1946.25	1064.6
1025.0647	2980.1188	1935.2	1054.5
1025.1775	2981.192	1908.7	1026.75
1025.2902	2982.2645	1893.35	1010.8
1025.4029	2983.3364	1873.2	991.85
1025.5156	2984.4077	1836.95	954.35
1025.6282	2985.4783	1818.7	930.75
1025.7407	2986.5483	1787.2	906.25
1025.8532	2987.6177	1759	878.75
1025.9657	2988.6864	1720.35	838.6
1026.0782	2989.7545	1690.5	805.5
1026.1906	2990.8219	1658	778.9
1026.3029	2991.8887	1626.2	742.25
1026.4152	2992.9548	1595.8	713.6
1026.5275	2994.0204	1566.35	687.1
1026.6397	2995.0852	1541.55	660.2
1026.7519	2996.1495	1509.8	627.75
1026.864	2997.2131	1485	601
1026.9761	2998.276	1463.85	582.45
1027.0882	2999.3383	1444.75	564
1027.2002	3000.4	1430.3	547.1
1027.3122	3001.4611	1406.9	524.05
1027.4241	3002.5215	1395.2	512.65
1027.536	3003.5812	1381.6	501.45
1027.6478	3004.6404	1372.05	492
1027.7596	3005.6989	1362.1	479.45
1027.8714	3006.7567	1348.45	466.6
1027.9831	3007.8139	1371.9	458.95
1028.0947	3008.8705	1329.25	447
1028.2064	3009.9264	1324.45	439.35
1028.3179	3010.9818	1319.45	438.2
1028.4295	3012.0364	1315.15	433.55
1028.541	3013.0905	1312.9	429.8
1028.6524	3014.1439	1305.95	426.5
1028.7638	3015.1966	1305.8	425.3
1028.8752	3016.2487	1304.25	422.6
1028.9865	3017.3002	1306	419.65
1029.0978	3018.3511	1301.45	421.3
1029.209	3019.4013	1298.8	417.8
1029.3202	3020.4509	1292.45	414.1
1029.4314	3021.4998	1302.4	420.65
1029.5425	3022.5481	1295	414.2
1029.6535	3023.5958	1293.2	412
1029.7645	3024.6428	1298.2	414.6
1029.8755	3025.6892	1292.75	414.1
1029.9864	3026.735	1302.95	422.95
1030.0973	3027.7802	1296.45	414.95
1030.2082	3028.8247	1299.95	419.85
1030.319	3029.8685	1303.95	422.2
1030.4297	3030.9118	1310.15	427.25
1030.5404	3031.9544	1310.75	430.75
1030.6511	3032.9963	1311.85	431.2
1030.7617	3034.0376	1315.75	434.25
1030.8723	3035.0783	1317.75	434.7
1030.9829	3036.1184	1317.25	434.3
1031.0934	3037.1578	1321.5	442.15
1031.2038	3038.1966	1327	443.5
1031.3142	3039.2348	1325.3	447.55
1031.4246	3040.2723	1335.45	445.85
1031.5349	3041.3092	1327.35	448.75
1031.6452	3042.3455	1324.9	443.45
1031.7554	3043.3811	1316.15	434.35
1031.8656	3044.4161	1321.7	439.45
1031.9758	3045.4505	1308.25	429.85
1032.0859	3046.4842	1312.95	431.2
1032.1959	3047.5173	1303.3	424.8
1032.3059	3048.5498	1299.05	413.9
1032.4159	3049.5816	1294.5	413
1032.5258	3050.6128	1291.6	408.45
1032.6357	3051.6434	1292.95	409.2
1032.7455	3052.6734	1285.3	404.45
1032.8553	3053.7027	1278.55	398
1032.9651	3054.7314	1274.15	395.15
1033.0748	3055.7594	1270.6	388.95
1033.1845	3056.7868	1269.3	386.05
1033.2941	3057.8136	1261.35	383.95
1033.4037	3058.8398	1260.2	379.2
1033.5132	3059.8653	1253.65	373.5
1033.6227	3060.8902	1249.7	369.25
1033.7321	3061.9145	1238.8	356.85
1033.8415	3062.9381	1243.25	363.3
1033.9509	3063.9612	1253.05	358.95
1034.0602	3064.9835	1232.55	354.8
1034.1694	3066.0053	1231.2	348.8
1034.2787	3067.0264	1225	346
1034.3878	3068.0469	1217.05	335.3
1034.497	3069.0668	1215.6	334.05
1034.6061	3070.086	1203.5	323.4
1034.7151	3071.1046	1192.8	312.2
1034.8241	3072.1226	1193.55	312.65
1034.9331	3073.1399	1182.2	303.9
1035.042	3074.1567	1174.05	292.75
1035.1508	3075.1727	1167.15	286.35
1035.2597	3076.1882	1156.7	276.8
1035.3684	3077.203	1155.55	273.25
1035.4772	3078.2173	1148.3	266.05
1035.5859	3079.2308	1141.75	259.3
1035.6945	3080.2438	1132.1	249.8
1035.8031	3081.2561	1123.75	244.6
1035.9117	3082.2678	1116.25	235.75
1036.0202	3083.2789	1111.15	229.65
1036.1286	3084.2893	1104.65	227.25
1036.2371	3085.2991	1101.65	222.4
1036.3454	3086.3083	1101.5	216.15
1036.4538	3087.3169	1095.8	213.2
1036.562	3088.3248	1089.45	205.6
1036.6703	3089.3321	1082.05	200.45
1036.7785	3090.3388	1076.55	195.35
1036.8866	3091.3449	1072.4	194.05
1036.9948	3092.3503	1073.6	191.15
1037.1028	3093.3551	1067.4	187.8
1037.2108	3094.3593	1063.3	184.7
1037.3188	3095.3629	1062.8	183.15
1037.4267	3096.3658	1064.15	184.65
1037.5346	3097.3681	1051.7	171.3
1037.6425	3098.3698	1053.85	170.55
1037.7503	3099.3708	1055.4	170.45
1037.858	3100.3713	1047.05	167.2
1037.9657	3101.3711	1042.45	162.05
1038.0734	3102.3702	1180.8	165.4
1038.181	3103.3688	1043.2	162.75
1038.2886	3104.3667	1040.3	160.6
1038.3961	3105.364	1034.35	154.5
1038.5036	3106.3607	1037.9	156.25
1038.611	3107.3568	1035.65	154.1
1038.7184	3108.3522	1031.25	154.55
1038.8257	3109.347	1033.1	154.45
1038.933	3110.3412	1030.55	149.1
1039.0403	3111.3348	1024.85	144.4
1039.1475	3112.3277	1026.85	146.95
1039.2547	3113.32	1021.65	143.75
1039.3618	3114.3117	1024.2	142.3
1039.4689	3115.3028	1021.9	141.85
1039.5759	3116.2932	1023	140.1
1039.6829	3117.2831	1026.3	141.9
1039.7898	3118.2723	1013.8	136.45
1039.8967	3119.2608	1017.2	140
1040.0035	3120.2488	1014.85	135.05
1040.1103	3121.2361	1011.25	130
1040.2171	3122.2229	1008.2	129.55
1040.3238	3123.209	1010.15	128.5
1040.4305	3124.1944	1007.5	129.6
1040.5371	3125.1793	1009.5	126.55
1040.6437	3126.1635	1008.65	130.15
1040.7502	3127.1471	1007.4	128.7
1040.8567	3128.1301	1004.35	124.85
1040.9631	3129.1125	1002	125.55
1041.0695	3130.0942	1004.85	124
1041.1759	3131.0753	1013.2	126.7
1041.2822	3132.0558	1003.7	123.65
1041.3884	3133.0357	1000.15	119.9
1041.4946	3134.015	994.8	113.65
1041.6008	3134.9936	997.8	115.95
1041.7069	3135.9716	1016.65	115.95
1041.813	3136.949	998.5	120.1
1041.919	3137.9258	1012.15	116.7
1042.025	3138.902	997.95	114.2
1042.1309	3139.8775	993.6	113.05
1042.2368	3140.8524	987.6	109.5
1042.3427	3141.8267	995.35	113.05
1042.4485	3142.8004	988.15	109.25
1042.5542	3143.7735	997.65	112.95
1042.6599	3144.7459	992.4	112.55
1042.7656	3145.7178	990.6	111.6
1042.8712	3146.689	988.5	111
1042.9768	3147.6596	984.8	103.2
1043.0823	3148.6295	984.85	105.75
1043.1878	3149.5989	982.4	102.8
1043.2932	3150.5676	981.2	103.35
1043.3986	3151.5357	979.55	102.3
1043.5039	3152.5032	979.65	101.65
1043.6092	3153.4701	978.85	101.3
1043.7145	3154.4364	983.4	103.3
1043.8197	3155.402	975.45	96.8
1043.9248	3156.367	980.55	101
1044.03	3157.3315	1006.95	97.8
1044.135	3158.2952	976.3	97.35
1044.24	3159.2584	970.9	93.2
1044.345	3160.221	975.55	96.55
1044.4499	3161.1829	969.45	89.7
1044.5548	3162.1442	972.05	92.6
1044.6596	3163.105	970.35	91.35
1044.7644	3164.065	971.4	91.9
1044.8692	3165.0245	972.8	92.45
1044.9739	3165.9834	969.35	91.75
1045.0785	3166.9416	967.35	90.55
1045.1831	3167.8993	969.75	91.2
1045.2877	3168.8563	970.4	90.4
1045.3922	3169.8127	966.3	87.65
1045.4966	3170.7684	967.95	90.45
1045.6011	3171.7236	966.85	88.8
1045.7054	3172.6782	965.05	86.25
1045.8098	3173.6321	965.55	86
1045.914	3174.5854	968.55	86.65
1046.0183	3175.5381	964	84.8
1046.1224	3176.4902	957.05	78.25
1046.2266	3177.4417	960.65	82.2
1046.3307	3178.3926	958.6	80.7
1046.4347	3179.3428	963.25	85.35
1046.5387	3180.2924	960.55	80.75
1046.6427	3181.2415	960.95	82.35
1046.7466	3182.1899	961.6	82.85
1046.8504	3183.1377	960.55	85
1046.9542	3184.0848	962.15	80.4
1047.058	3185.0314	958.75	80.25
1047.1617	3185.9773	956.8	78.2
1047.2654	3186.9227	956.4	78.3
1047.369	3187.8674	956.55	78.05
1047.4726	3188.8115	959.25	76.7
1047.5761	3189.755	958.45	80.45
1047.6796	3190.6979	956.35	77.6
1047.783	3191.6402	957.7	79.8
1047.8864	3192.5818	953.85	75.6
1047.9898	3193.5229	971.85	75.3
1048.0931	3194.4633	953.9	76.45
1048.1963	3195.4031	956.1	75.65
1048.2995	3196.3423	953.6	75.1
1048.4027	3197.2809	950.4	71.8
1048.5058	3198.2189	948.2	71.4
1048.6089	3199.1563	956.75	71.5
1048.7119	3200.0931	950.6	73.75
1048.8148	3201.0292	949.4	71.2
1048.9178	3201.9648	949.1	70.8
1049.0206	3202.8997	951.45	68.45
1049.1235	3203.834	949	73.15
1049.2262	3204.7677	950.3	71.35
1049.329	3205.7008	947.8	67.65
1049.4317	3206.6333	947.6	71.6
1049.5343	3207.5652	952.25	75.25
1049.6369	3208.4964	948	69.5
1049.7394	3209.4271	946.45	70.7
1049.8419	3210.3571	942.05	65.05
1049.9444	3211.2865	946.65	69.6
1050.0468	3212.2154	947.45	70.05
1050.1491	3213.1436	947.75	67.9
1050.2514	3214.0712	953.15	68.15
1050.3537	3214.9982	943.25	67.1
1050.4559	3215.9246	942.25	63.35
1050.5581	3216.8503	940	62.65
1050.6602	3217.7755	944.7	65.55
1050.7623	3218.7001	944.4	66.45
1050.8643	3219.624	940.15	62.3
1050.9663	3220.5473	941.2	64.05
1051.0682	3221.4701	942.05	63.5
1051.1701	3222.3922	939.05	61.05
1051.2719	3223.3137	940.9	64.95
1051.3737	3224.2346	941.15	62.6
1051.4754	3225.1549	938	61.55
1051.5771	3226.0746	938.75	59.6
1051.6788	3226.9937	938.75	60.15
1051.7804	3227.9121	939.25	61.8
1051.8819	3228.83	938.75	61.15
1051.9834	3229.7473	938.1	62.45
1052.0849	3230.6639	938.7	60.35
1052.1863	3231.5799	937.9	58.4
1052.2876	3232.4954	939.55	62.25
1052.3889	3233.4102	937.35	60
1052.4902	3234.3244	939.75	61.4
1052.5914	3235.238	937.55	61.05
1052.6926	3236.151	961.3	59.4
1052.7937	3237.0634	937	62.35
1052.8948	3237.9752	933.55	55.1
1052.9958	3238.8864	932.1	55.3
1053.0968	3239.797	934.2	55
1053.1977	3240.7069	934.8	56.25
1053.2986	3241.6163	934.6	57.95
1053.3994	3242.5251	931.15	53.7
1053.5002	3243.4332	931.6	53.3
1053.6009	3244.3408	934.7	57
1053.7016	3245.2477	932.6	55.15
1053.8022	3246.154	933.7	54.75
1053.9028	3247.0598	933.05	54.5
1054.0034	3247.9649	931.85	53.45
1054.1039	3248.8694	928.1	49.15
1054.2043	3249.7733	929.8	53.55
1054.3047	3250.6766	927.05	50.95
1054.4051	3251.5793	930.2	51.65
1054.5054	3252.4814	927.25	51.2
1054.6056	3253.3829	922.75	47.35
1054.7058	3254.2838	927.1	49.7
1054.806	3255.1841	928.95	52.25
1054.9061	3256.0838	926.85	49.5
1055.0061	3256.9829	924.3	50.45
1055.1062	3257.8814	927.2	48.25
1055.2061	3258.7792	924.2	44.05
1055.306	3259.6765	923.65	45.1
1055.4059	3260.5731	922.6	47.4
1055.5057	3261.4692	921.65	42.95
1055.6055	3262.3647	923.1	45.25
1055.7052	3263.2595	922.2	45.4
1055.8049	3264.1538	922.65	44.35
1055.9045	3265.0474	919.55	42.1
1056.0041	3265.9404	918.25	42.35
1056.1036	3266.8329	918.6	42.1
1056.2031	3267.7247	926.25	40.45
1056.3025	3268.616	916.55	40.45
1056.4019	3269.5066	914.25	36.95
1056.5013	3270.3966	918.05	40.65
1056.6005	3271.286	914.1	38.15
