Software Version:	3.9.2.0
Unit SN:	10000200
Spectrometer SN:	6960
Date:	3/8/2024 12:32:09 PM
Data Line Index:	25
Spectral Points:	2048
Integration time (ms):	125
Averages:	20
Delay (ms):	30000
Sequence Number:	1
Processing:	dark subtract
Laser Power (mW):	300
Laser Current (mA):	822
Laser Diode Temp (C):	25
Laser Case Temp (C):	26
System Temp (C):	26
Spectrometer Temp (C):	23.8
CCD Temp (C):	0.009
Secondary Temp (C):	20.008
Heatsink Temp (C):	20.371
CCDPCB Temp (C):	36.207
SecondaryPCB Temp (C):	29.326

Wavelength	RamanShift	Raw Counts	Dark Subtracted
787.061	30.1047	447.15	38.25
787.2016	32.3739	448.3	42.35
787.3422	34.6426	450	43.4
787.4828	36.9109	454.65	44.4
787.6235	39.1787	464.3	53.2
787.7642	41.4461	472.35	54.05
787.9049	43.7131	479.85	58.75
788.0456	45.9796	487.5	64.75
788.1863	48.2456	493.75	66.1
788.3271	50.5112	503.3	69.95
788.4679	52.7764	511.45	73.8
788.6087	55.0411	519.8	77.05
788.7496	57.3054	531.7	84.75
788.8904	59.5692	536.9	90.2
789.0313	61.8326	546.6	96.25
789.1722	64.0955	560.5	107.2
789.3132	66.3579	573.45	115.5
789.4541	68.6199	589.5	125.85
789.5951	70.8815	624.7	158.55
789.7361	73.1426	694.75	223.8
789.8771	75.4032	883.3	410.3
790.0181	77.6634	1342.9	863.55
790.1592	79.9231	2420.45	1932.95
790.3003	82.1824	4719.8	4215
790.4414	84.4412	8809.5	8275.75
790.5825	86.6995	14326.6	13758.7
790.7237	88.9574	19636.45	19036.55
790.8648	91.2148	23149.2	22526.4
791.006	93.4717	24716.8	24077.3
791.1472	95.7282	24844.05	24204.1
791.2885	97.9842	24489.4	23840.9
791.4297	100.2398	23755.25	23104.15
791.571	102.4949	22929.5	22277.75
791.7123	104.7495	22071.3	21411.15
791.8536	107.0036	21176.5	20520.45
791.9949	109.2573	20408.85	19752.35
792.1363	111.5105	19703.1	19044
792.2777	113.7632	19067.8	18405.35
792.4191	116.0154	18563.25	17890.8
792.5605	118.2672	18230.95	17563.55
792.7019	120.5185	17840.45	17172.25
792.8434	122.7693	17583.25	16912.15
792.9849	125.0197	17339.75	16666
793.1264	127.2696	17100.35	16423
793.2679	129.519	16861.15	16180.25
793.4094	131.7679	16636.6	15951.25
793.551	134.0163	16354.95	15669.3
793.6926	136.2642	16008.45	15315.55
793.8342	138.5117	15671.95	14973.05
793.9758	140.7587	15330.55	14636.9
794.1175	143.0052	14995.55	14296.85
794.2591	145.2512	14664.45	13970.9
794.4008	147.4967	14338.8	13641.75
794.5425	149.7417	14137.5	13436.75
794.6842	151.9863	13945.7	13236.1
794.826	154.2304	13859.8	13148.75
794.9677	156.4739	13681.2	12966.6
795.1095	158.717	13588.7	12868.85
795.2513	160.9596	13417.05	12695.4
795.3931	163.2017	13173.9	12447.8
795.535	165.4433	12921.55	12198.15
795.6768	167.6844	12644.65	11922.5
795.8187	169.925	12330.85	11601.25
795.9606	172.1651	12059	11330
796.1025	174.4047	11787.15	11053.6
796.2445	176.6439	11566.75	10832.65
796.3864	178.8825	11390.1	10653.95
796.5284	181.1206	11259.8	10512.8
796.6704	183.3582	11156.3	10405.95
796.8124	185.5954	11071.85	10324.3
796.9544	187.832	11003.1	10250.15
797.0965	190.0681	10962.95	10208.05
797.2386	192.3037	10990.95	10231.9
797.3806	194.5388	11003.15	10238.25
797.5228	196.7734	11012.35	10249.6
797.6649	199.0075	11064.35	10299.85
797.807	201.2411	11175.15	10409.8
797.9492	203.4742	11232.85	10468.2
798.0914	205.7068	11371.8	10600.2
798.2336	207.9389	11459.75	10684.25
798.3758	210.1704	11613.4	10843.55
798.518	212.4015	11692.85	10935.75
798.6603	214.632	11808.35	11056.65
798.8025	216.862	11939.65	11192.05
798.9448	219.0915	12005.65	11252.4
799.0871	221.3205	12086.35	11330.3
799.2294	223.549	12170.85	11420.95
799.3718	225.777	12211.3	11462.35
799.5141	228.0044	12290.35	11530.25
799.6565	230.2314	12364.9	11606.2
799.7989	232.4578	12435.55	11675.4
799.9413	234.6837	12492.2	11725.55
800.0837	236.909	12534.1	11760.45
800.2262	239.1339	12537.7	11739.75
800.3687	241.3582	12480.3	11693.25
800.5111	243.582	12441.15	11624.9
800.6536	245.8053	12389.75	11591.5
800.7961	248.0281	12380.6	11586.1
800.9387	250.2503	12398.4	11600.3
801.0812	252.472	12450	11648.8
801.2238	254.6932	12558.3	11761.65
801.3664	256.9139	12691.3	11888.8
801.509	259.134	12891.85	12085.6
801.6516	261.3536	13097.8	12294.9
801.7942	263.5727	13427.1	12618.55
801.9369	265.7912	13687	12880.45
802.0795	268.0092	13994.3	13189.3
802.2222	270.2267	14203.15	13402.35
802.3649	272.4436	14336.5	13531.85
802.5076	274.6601	14409.25	13588.25
802.6504	276.8759	14333.55	13519.85
802.7931	279.0913	14218.3	13401.4
802.9359	281.3061	14109.15	13292.2
803.0787	283.5204	14035.7	13215.85
803.2215	285.7341	14021.2	13198.1
803.3643	287.9473	14034.7	13202.65
803.5071	290.16	14069.75	13244.8
803.6499	292.3721	14104.7	13285.9
803.7928	294.5837	14250.95	13431.75
803.9357	296.7947	14404.2	13583.8
804.0786	299.0052	14572.3	13746.1
804.2215	301.2152	14562.3	13736.6
804.3644	303.4246	14450.95	13633.55
804.5074	305.6334	14191.8	13376.3
804.6503	307.8418	13848.55	13025.85
804.7933	310.0495	13521.9	12697.35
804.9363	312.2568	13100.25	12276.8
805.0793	314.4635	12712.55	11882.3
805.2223	316.6696	12426.65	11594.8
805.3653	318.8752	12196.25	11358.15
805.5084	321.0802	12102.95	11269.4
805.6514	323.2847	12103.3	11265.4
805.7945	325.4887	12147.05	11312.1
805.9376	327.692	12116.25	11280.85
806.0807	329.8949	12105.45	11267.7
806.2238	332.0972	11949.2	11112.35
806.367	334.2989	11768.55	10929.5
806.5101	336.5001	11553.95	10711.9
806.6533	338.7007	11354.05	10511.05
806.7965	340.9008	11183.05	10339.4
806.9397	343.1003	11065.35	10221.4
807.0829	345.2992	10929.95	10086.85
807.2261	347.4976	10861.25	10014.25
807.3693	349.6955	10772.9	9917.85
807.5126	351.8927	10744.5	9894.35
807.6559	354.0895	10665.9	9803.6
807.7991	356.2856	10636.15	9780.05
807.9424	358.4812	10575.7	9720.4
808.0857	360.6763	10572.3	9713.15
808.2291	362.8707	10585.3	9727.9
808.3724	365.0646	10589.3	9733.85
808.5158	367.258	10628.7	9769.1
808.6591	369.4508	10712.45	9846.6
808.8025	371.643	10847.9	9985.5
808.9459	373.8346	10920.75	10055.5
809.0893	376.0257	10995.7	10123.35
809.2327	378.2162	11064.9	10196
809.3762	380.4062	11057.1	10192.3
809.5196	382.5956	10973.6	10109.3
809.6631	384.7844	10872.85	10010.15
809.8066	386.9726	10735.85	9876.25
809.9501	389.1603	10677.05	9817.85
810.0936	391.3474	10633.95	9733
810.2371	393.5339	10597.05	9734.75
810.3806	395.7199	10553.15	9695.4
810.5241	397.9052	10615.3	9755.85
810.6677	400.09	10690	9828.55
810.8113	402.2743	10836.1	9977.25
810.9548	404.4579	11000.9	10143.3
811.0984	406.641	11191.1	10327.15
811.2421	408.8235	11342.55	10485.65
811.3857	411.0054	11455.4	10588.55
811.5293	413.1868	11578.4	10709.8
811.673	415.3675	11626	10751.45
811.8166	417.5477	11597.5	10725.8
811.9603	419.7273	11516.1	10639.5
812.104	421.9064	11457.25	10573
812.2477	424.0848	11410.65	10535.2
812.3914	426.2627	11268.5	10397.4
812.5351	428.4399	11091.25	10217.35
812.6788	430.6166	10794.35	9913.65
812.8226	432.7928	10511.85	9631.2
812.9663	434.9683	10233.25	9355.05
813.1101	437.1432	10050.2	9173.25
813.2539	439.3176	9879	9007.25
813.3977	441.4914	9783.1	8913.5
813.5415	443.6645	9763.5	8888.15
813.6853	445.8371	9719.6	8841.25
813.8291	448.0091	9682.2	8806.9
813.973	450.1806	9669.7	8793.7
814.1168	452.3514	9667.05	8793.35
814.2607	454.5216	9719.65	8833
814.4046	456.6913	9699.85	8822.8
814.5485	458.8603	9743.9	8867.25
814.6924	461.0288	9799.75	8927.8
814.8363	463.1967	9764.55	8892.05
814.9802	465.3639	9794.3	8918.85
815.1241	467.5306	9759.55	8884.1
815.2681	469.6967	9760.9	8888.9
815.412	471.8622	9752.2	8880.05
815.556	474.0271	9791.55	8914.35
815.7	476.1914	9813.3	8931.7
815.844	478.3551	9820.65	8940.35
815.988	480.5182	9848.3	8974.65
816.132	482.6807	9962.2	9092.85
816.276	484.8426	10130.05	9264.2
816.4201	487.0039	10433	9560.05
816.5641	489.1647	10777.7	9896.75
816.7082	491.3248	11039.75	10158.65
816.8522	493.4843	11120.8	10243.9
816.9963	495.6432	11088.5	10213.95
817.1404	497.8015	10980.75	10094.9
817.2845	499.9592	10857.7	9966.2
817.4286	502.1163	10645.4	9752.85
817.5727	504.2728	10377.5	9492
817.7168	506.4287	10115.5	9242.75
817.861	508.5839	9875.15	9001.2
818.0051	510.7386	9718.25	8837.25
818.1493	512.8927	9644.5	8756.55
818.2935	515.0461	9644.05	8754.5
818.4377	517.199	9708.15	8817.6
818.5818	519.3512	9899.15	9010.7
818.726	521.5029	10178.2	9285.3
818.8703	523.6539	10437.95	9549.3
819.0145	525.8043	10535.25	9642.05
819.1587	527.9541	10469.8	9575.1
819.303	530.1033	10261.45	9371.6
819.4472	532.2519	10086.1	9195.7
819.5915	534.3999	10040.65	9148.9
819.7357	536.5472	10067.25	9177
819.88	538.694	10194.8	9305.8
820.0243	540.8401	10383	9492
820.1686	542.9856	10551.25	9649.6
820.3129	545.1305	10558.15	9651.75
820.4572	547.2748	10533.1	9621.6
820.6016	549.4185	10409.4	9502.85
820.7459	551.5615	10293.6	9386.95
820.8902	553.704	10314.5	9405.4
821.0346	555.8458	10410.2	9509.95
821.1789	557.987	10583.25	9683.7
821.3233	560.1276	10817.15	9916.6
821.4677	562.2675	11235.3	10330.9
821.6121	564.4069	11731.1	10829.55
821.7565	566.5456	12203.75	11305.15
821.9009	568.6837	12352.3	11450.7
822.0453	570.8212	11995.55	11096.35
822.1897	572.958	11346.15	10445.8
822.3342	575.0942	10741.55	9842.7
822.4786	577.2299	10286.85	9392.55
822.6231	579.3648	10061.35	9178.35
822.7675	581.4992	10009.6	9133.8
822.912	583.6329	10084.85	9211.5
823.0565	585.766	10242.1	9363.85
823.201	587.8985	10362.1	9473.35
823.3454	590.0304	10438.7	9522.6
823.4899	592.1616	10388.9	9488.85
823.6345	594.2922	10297.05	9393.85
823.779	596.4222	10130.25	9221.6
823.9235	598.5515	9952.35	9043.35
824.068	600.6802	9784.2	8874.55
824.2126	602.8083	9649.7	8743.6
824.3571	604.9358	9653.65	8745.85
824.5017	607.0626	9684.55	8775.4
824.6462	609.1888	9784	8870.65
824.7908	611.3144	9958.85	9045.85
824.9354	613.4393	10094.9	9180.9
825.08	615.5636	10232.55	9318.05
825.2246	617.6873	10256.4	9343.75
825.3692	619.8103	10203.5	9295.5
825.5138	621.9327	10000.55	9090.15
825.6584	624.0544	9799.35	8893.9
825.803	626.1756	9612.05	8705.9
825.9477	628.2961	9483.95	8571.15
826.0923	630.4159	9410.35	8498.4
826.237	632.5351	9374.7	8461.65
826.3816	634.6537	9377.45	8465.75
826.5263	636.7716	9361	8442.55
826.6709	638.8889	9380.9	8462.7
826.8156	641.0056	9404.7	8485.1
826.9603	643.1216	9393.55	8478.8
827.105	645.237	9373.25	8458.1
827.2497	647.3518	9272.1	8361.4
827.3944	649.4659	9199.55	8292.65
827.5391	651.5793	9165	8259.2
827.6838	653.6922	9109.5	8202.6
827.8285	655.8043	9113.3	8200
827.9733	657.9159	9107.15	8194.75
828.118	660.0268	9100.75	8187.3
828.2627	662.137	9096.25	8182.1
828.4075	664.2466	9115.95	8193.75
828.5522	666.3556	9105.25	8189.75
828.697	668.4639	9074.3	8159.55
828.8418	670.5716	9045.35	8134.55
828.9865	672.6786	9004.95	8090.9
829.1313	674.785	8906.4	7984.25
829.2761	676.8907	8895.3	7982.75
829.4209	678.9958	8873.85	7962.6
829.5657	681.1002	8836.55	7919.4
829.7105	683.204	8854.7	7925.85
829.8553	685.3072	8850.35	7926.5
830.0001	687.4097	8835.3	7915.25
830.1449	689.5115	8832.55	7912.25
830.2898	691.6127	8829.7	7912.5
830.4346	693.7132	8830	7919.2
830.5794	695.8131	8865.5	7927.4
830.7243	697.9123	8886.2	7963.3
830.8691	700.0109	8889.25	7964
831.014	702.1089	8941.75	8020.5
831.1588	704.2061	8980.6	8057.55
831.3037	706.3028	9039.35	8116.5
831.4486	708.3987	9120.7	8198.6
831.5935	710.4941	9148.3	8225.95
831.7383	712.5887	9142.95	8222.3
831.8832	714.6827	9206.95	8282.5
832.0281	716.7761	9278	8357.45
832.173	718.8688	9386.1	8466.3
832.3179	720.9608	9533.4	8605.25
832.4628	723.0522	9667.3	8737.15
832.6077	725.1429	9732.75	8810.65
832.7527	727.233	9865.5	8938.7
832.8976	729.3224	9954.45	9030.95
833.0425	731.4112	9929.4	9002.05
833.1874	733.4993	9782.55	8852.3
833.3324	735.5867	9600	8675
833.4773	737.6735	9372.75	8449.75
833.6222	739.7596	9188.45	8263.3
833.7672	741.845	9054.5	8128
833.9122	743.9298	8968.55	8042.8
834.0571	746.014	8961.9	8034.1
834.2021	748.0974	8929.75	8003.55
834.347	750.1802	8945.75	8012.95
834.492	752.2624	8954	8023.5
834.637	754.3439	9005.85	8074.25
834.782	756.4247	9102.7	8163.55
834.9269	758.5048	9275.8	8351.2
835.0719	760.5843	9548.55	8615.15
835.2169	762.6631	9885.9	8950.8
835.3619	764.7413	10409.7	9482.05
835.5069	766.8188	11050.65	10120.9
835.6519	768.8956	11591.15	10656.95
835.7969	770.9718	11971.4	11039.25
835.9419	773.0473	11928.7	10996.25
836.0869	775.1221	11739.9	10807
836.232	777.1962	11502.7	10571
836.377	779.2697	11448.75	10513.45
836.522	781.3426	11507.4	10562.15
836.667	783.4147	11611.3	10678.85
836.8121	785.4862	11597.05	10664.2
836.9571	787.557	11426.8	10491.25
837.1021	789.6271	10976.65	10042.25
837.2472	791.6966	10422.45	9490.05
837.3922	793.7654	9838.65	8903.7
837.5373	795.8335	9494.1	8563.55
837.6823	797.901	9169	8234.2
837.8274	799.9678	9051.8	8115.2
837.9724	802.0339	8943.15	8007.9
838.1175	804.0993	8910.1	7963.95
838.2626	806.1641	8832.8	7894.85
838.4076	808.2282	8773.05	7837.8
838.5527	810.2916	8699.05	7765
838.6978	812.3544	8644.45	7711.2
838.8428	814.4164	8591.3	7656.05
838.9879	816.4778	8639.1	7703.8
839.133	818.5385	8684.45	7745.2
839.2781	820.5986	8834.35	7897.3
839.4232	822.658	9082.8	8141.05
839.5682	824.7166	9399.6	8467.9
839.7133	826.7747	9894.35	8956.2
839.8584	828.832	10412.95	9476.85
840.0035	830.8886	10821.5	9883.6
840.1486	832.9446	10960.5	10023.95
840.2937	834.9999	10827.4	9889.15
840.4388	837.0545	10535.7	9596.7
840.5839	839.1085	10163.1	9219.05
840.729	841.1618	9839.5	8894.3
840.8741	843.2143	9615.2	8677.1
841.0192	845.2662	9373.8	8435.6
841.1643	847.3175	9255.5	8314.95
841.3095	849.368	9144.6	8205.8
841.4546	851.4179	9073.6	8136.8
841.5997	853.467	8970.25	8034
841.7448	855.5155	8938.9	8000.2
841.8899	857.5633	8878.9	7940.45
842.0351	859.6105	8822.35	7881.95
842.1802	861.6569	8730.65	7788.85
842.3253	863.7027	8670.75	7729.15
842.4704	865.7478	8641.2	7698.1
842.6156	867.7922	8556.35	7616.55
842.7607	869.8359	8540	7594.8
842.9058	871.8789	8568.2	7626.2
843.0509	873.9212	8643.95	7671.75
843.1961	875.9629	8683.5	7742.2
843.3412	878.0039	8774.7	7834.05
843.4863	880.0441	8838.5	7901.4
843.6315	882.0837	8913.4	7973.1
843.7766	884.1226	8964	8024.6
843.9218	886.1609	9032	8094.55
844.0669	888.1984	9159	8219.3
844.212	890.2352	9291.2	8350.35
844.3572	892.2714	9336.4	8389
844.5023	894.3069	9288.5	8346.85
844.6475	896.3416	9130.55	8187.05
844.7926	898.3757	8986.35	8045.45
844.9377	900.4091	8871.3	7925.05
845.0829	902.4418	8850.75	7901.45
845.228	904.4739	8873.7	7927.2
845.3732	906.5052	8941.65	7998.25
845.5183	908.5358	8926.65	7985.3
845.6635	910.5658	8800.25	7854.1
845.8086	912.595	8628.9	7683.6
845.9538	914.6236	8398.8	7453.55
846.0989	916.6515	8292.25	7349.05
846.2441	918.6786	8191.7	7246.95
846.3892	920.7051	8183.2	7239.45
846.5344	922.7309	8217.1	7268.35
846.6795	924.756	8248.25	7307.75
846.8246	926.7804	8293.65	7346.45
846.9698	928.8041	8304.65	7360.55
847.1149	930.8272	8352.3	7409.4
847.2601	932.8495	8349.1	7407.6
847.4052	934.8711	8358.05	7411.95
847.5504	936.892	8338.2	7391.15
847.6955	938.9123	8341.3	7393.3
847.8407	940.9318	8364	7423.7
847.9858	942.9506	8388.9	7441.7
848.131	944.9688	8329.1	7388.25
848.2761	946.9862	8240.35	7295.25
848.4213	949.003	8113.25	7169.25
848.5664	951.019	8010.8	7068.75
848.7115	953.0344	7963.05	7018.35
848.8567	955.0491	7943.1	6997.75
849.0018	957.063	7950.4	7003.55
849.147	959.0763	8036.95	7092.1
849.2921	961.0888	8051	7107.5
849.4373	963.1007	8086.75	7145.6
849.5824	965.1119	8087.05	7151.05
849.7275	967.1223	8089.9	7160.65
849.8727	969.1321	8062.45	7134.4
850.0178	971.1412	8050.5	7114.3
850.1629	973.1495	8018.85	7080.95
850.3081	975.1572	8090.7	7104.45
850.4532	977.1641	8064.65	7120.2
850.5983	979.1704	8047.45	7100.9
850.7435	981.1759	8018.05	7070.95
850.8886	983.1808	8030.85	7084.8
851.0337	985.1849	8043.4	7088.25
851.1788	987.1884	8074.2	7128.15
851.324	989.1911	8147.65	7202.7
851.4691	991.1932	8180.7	7237.5
851.6142	993.1945	8199.4	7255.05
851.7593	995.1951	8167.45	7224.35
851.9045	997.1951	8177.35	7229.95
852.0496	999.1943	8135.9	7190.8
852.1947	1001.1928	8128.9	7182.45
852.3398	1003.1906	8169.15	7225.9
852.4849	1005.1877	8312	7368.2
852.63	1007.1841	8393.8	7450.25
852.7751	1009.1798	8425.25	7484.8
852.9202	1011.1748	8382.1	7436.95
853.0653	1013.1691	8258.9	7315.5
853.2104	1015.1627	8072.85	7129.4
853.3555	1017.1556	7907.95	6966.15
853.5006	1019.1477	7814.5	6873.65
853.6457	1021.1392	7686.3	6751.1
853.7908	1023.1299	7661.9	6731.1
853.9359	1025.12	7663	6734.5
854.081	1027.1093	7711.2	6793.9
854.2261	1029.0979	7815.55	6901.65
854.3712	1031.0859	7921.5	6998.35
854.5163	1033.0731	7967.35	7037.7
854.6613	1035.0596	7932	6997.55
854.8064	1037.0454	7818.5	6878.7
854.9515	1039.0304	7752.35	6811.65
855.0965	1041.0148	7644.65	6704.2
855.2416	1042.9985	7553.8	6611.1
855.3867	1044.9814	7516.6	6576.55
855.5317	1046.9636	7490.1	6546.85
855.6768	1048.9452	7471.55	6533
855.8219	1050.926	7504	6565.6
855.9669	1052.9061	7539.45	6596.7
856.112	1054.8855	7573.45	6630.65
856.257	1056.8642	7605.95	6664.6
856.4021	1058.8421	7638.65	6692.7
856.5471	1060.8194	7672.25	6728.4
856.6921	1062.7959	7722.8	6780.4
856.8372	1064.7717	7780.85	6836.1
856.9822	1066.7469	7847.5	6905.45
857.1272	1068.7213	7943.3	6999.7
857.2723	1070.695	8019.8	7077.85
857.4173	1072.6679	8042.05	7100.3
857.5623	1074.6402	8083.85	7142.65
857.7073	1076.6117	8056.15	7111.45
857.8523	1078.5826	7958.9	7014.45
857.9973	1080.5527	7829.5	6884.7
858.1423	1082.5221	7692.15	6749.6
858.2873	1084.4908	7656.65	6711.45
858.4323	1086.4587	7616	6674.5
858.5773	1088.426	7668.6	6725.45
858.7223	1090.3925	7662.8	6714.55
858.8673	1092.3584	7694.35	6750.5
859.0123	1094.3235	7733.65	6793.65
859.1573	1096.2879	7823.15	6882.15
859.3022	1098.2515	7957.15	7017.95
859.4472	1100.2145	8114.1	7175
859.5922	1102.1767	8326.35	7383.1
859.7371	1104.1382	8520.85	7581.05
859.8821	1106.099	8754.65	7814.8
860.027	1108.0591	8956.8	8017.85
860.172	1110.0185	9080.05	8135.1
860.3169	1111.9771	9162.45	8223.9
860.4619	1113.9351	9095.3	8155.8
860.6068	1115.8923	9027.9	8091.85
860.7517	1117.8488	8944.4	8000.05
860.8967	1119.8045	8770.5	7833.1
861.0416	1121.7596	8644.3	7704.7
861.1865	1123.7139	8510.85	7573
861.3314	1125.6675	8451.55	7514.6
861.4763	1127.6204	8459.4	7521.15
861.6212	1129.5726	8431.45	7489.2
861.7661	1131.524	8369.25	7427.95
861.911	1133.4748	8203.15	7263.8
862.0559	1135.4248	8026.4	7084.7
862.2008	1137.3741	7874	6936
862.3457	1139.3226	7760.6	6820.25
862.4905	1141.2705	7716.55	6776.25
862.6354	1143.2176	7659.65	6714.9
862.7803	1145.164	7610.45	6668.8
862.9251	1147.1097	7534.65	6590.85
863.07	1149.0546	7441.25	6498.75
863.2148	1150.9989	7358.45	6418.05
863.3597	1152.9424	7285.7	6346.15
863.5045	1154.8852	7207.25	6268.55
863.6493	1156.8272	7183.7	6242.3
863.7942	1158.7686	7192.8	6245.2
863.939	1160.7092	7231.2	6289.9
864.0838	1162.6491	7261.6	6319.5
864.2286	1164.5883	7362.1	6423.5
864.3734	1166.5267	7462.4	6521.5
864.5182	1168.4644	7625.75	6684.8
864.663	1170.4014	7783.65	6841.3
864.8078	1172.3377	8040.85	7102.7
864.9526	1174.2732	8334.45	7395.9
865.0974	1176.2081	8716.8	7780.4
865.2421	1178.1421	9208.65	8265.65
865.3869	1180.0755	9725.5	8788.1
865.5317	1182.0082	10094.9	9160.3
865.6764	1183.9401	10264.3	9327.25
865.8212	1185.8713	10108.7	9178.8
865.9659	1187.8017	9812.8	8887
866.1106	1189.7315	9386.1	8467.8
866.2554	1191.6605	9006.55	8087
866.4001	1193.5888	8759.5	7834.75
866.5448	1195.5163	8598.25	7668.3
866.6895	1197.4432	8506.2	7567.65
866.8342	1199.3693	8474.65	7540.5
866.9789	1201.2947	8436.95	7498.55
867.1236	1203.2193	8391.75	7460.15
867.2683	1205.1432	8385.55	7452.3
867.413	1207.0664	8355.75	7421.4
867.5576	1208.9889	8334.8	7398.7
867.7023	1210.9106	8301.9	7367.4
867.847	1212.8316	8295.7	7361
867.9916	1214.7519	8332.55	7388.15
868.1363	1216.6715	8349.5	7416.5
868.2809	1218.5903	8439.25	7502.5
868.4255	1220.5084	8543.6	7606.95
868.5701	1222.4257	8629.45	7694.55
868.7148	1224.3424	8715	7784.25
868.8594	1226.2583	8840.1	7900
869.004	1228.1735	8986.55	8053.5
869.1486	1230.0879	9151.75	8219.4
869.2932	1232.0016	9330.55	8395.85
869.4377	1233.9146	9459.8	8520.45
869.5823	1235.8269	9515.25	8582.1
869.7269	1237.7384	9515.95	8583.4
869.8715	1239.6492	9426.9	8492.9
870.016	1241.5592	9432.95	8499.45
870.1606	1243.4686	9510.45	8576.55
870.3051	1245.3772	9699.1	8765.8
870.4496	1247.285	9946.7	9009.8
870.5941	1249.1922	10163	9228.15
870.7387	1251.0986	10356.3	9423.35
870.8832	1253.0042	10453.05	9520.15
871.0277	1254.9092	10575.95	9643.45
871.1722	1256.8134	10667.6	9736.55
871.3167	1258.7169	10808	9875.8
871.4611	1260.6196	10946.55	10011.65
871.6056	1262.5216	11123.25	10189.7
871.7501	1264.4229	11309.5	10373.55
871.8945	1266.3234	11506.3	10570.2
872.039	1268.2232	11621.85	10689
872.1834	1270.1223	11688.2	10751.7
872.3278	1272.0207	11725.1	10791.15
872.4723	1273.9183	11725.65	10787.3
872.6167	1275.8151	11692.8	10762.6
872.7611	1277.7113	11700.55	10768.25
872.9055	1279.6067	11779.05	10847.8
873.0499	1281.5014	12099.8	11164.85
873.1943	1283.3953	12549.2	11614.55
873.3386	1285.2885	13110.15	12179.85
873.483	1287.181	13659.9	12725.7
873.6274	1289.0727	14226.1	13293.75
873.7717	1290.9637	14577.7	13646.2
873.9161	1292.854	14745.35	13816
874.0604	1294.7435	14757.15	13823.2
874.2047	1296.6323	14603.25	13673.1
874.349	1298.5204	14391.35	13457.15
874.4933	1300.4077	14106.55	13173.6
874.6376	1302.2943	13785.6	12855.1
874.7819	1304.1802	13436.75	12504.8
874.9262	1306.0653	12959.35	12024.5
875.0705	1307.9497	12441.45	11509.85
875.2147	1309.8333	12018.95	11087.05
875.359	1311.7162	11647.85	10716.6
875.5032	1313.5984	11461.4	10524.5
875.6475	1315.4798	11297.3	10364.05
875.7917	1317.3605	11171.1	10220.95
875.9359	1319.2405	11020.1	10086.15
876.0801	1321.1197	10774.65	9839.7
876.2243	1322.9982	10451.95	9516.45
876.3685	1324.876	10158.25	9223.55
876.5127	1326.753	9842.35	8912.8
876.6569	1328.6293	9612.7	8680.05
876.801	1330.5048	9427.9	8489.5
876.9452	1332.3796	9266.75	8333.2
877.0893	1334.2537	9159.25	8202
877.2335	1336.127	9038.6	8108.15
877.3776	1337.9996	8987.2	8054.2
877.5217	1339.8714	8965	8034.6
877.6658	1341.7426	9015.2	8036.7
877.8099	1343.6129	9013.3	8080.35
877.954	1345.4826	9010.45	8077.65
878.0981	1347.3515	9021.7	8084.5
878.2422	1349.2196	9000.3	8066.05
878.3862	1351.087	9030.95	8097.9
878.5303	1352.9537	9069.15	8136.75
878.6743	1354.8197	9155.85	8220.2
878.8184	1356.6849	9293.1	8362.15
878.9624	1358.5493	9452.15	8518.3
879.1064	1360.4131	9630.1	8697.8
879.2504	1362.276	9814.8	8884.4
879.3944	1364.1383	9840.5	8909.85
879.5384	1365.9998	9731.1	8791.4
879.6823	1367.8606	9439	8504.55
879.8263	1369.7206	9092.9	8157.85
879.9702	1371.5799	8782.05	7846.55
880.1142	1373.4384	8511.15	7579.05
880.2581	1375.2962	8316.8	7383.45
880.402	1377.1533	8013.25	7084.1
880.5459	1379.0096	7666.15	6738.35
880.6898	1380.8652	7395.6	6469.8
880.8337	1382.7201	7098.2	6168.5
880.9776	1384.5742	6892.45	5961.65
881.1215	1386.4275	6741.85	5809.1
881.2653	1388.2802	6606.9	5677.3
881.4092	1390.132	6507.4	5573.25
881.553	1391.9832	6456.35	5526.5
881.6968	1393.8336	6374.1	5443.75
881.8406	1395.6832	6320.05	5386.5
881.9844	1397.5322	6305.5	5376.85
882.1282	1399.3803	6284.8	5348.05
882.272	1401.2278	6256.85	5327.35
882.4158	1403.0745	6230.8	5303.1
882.5595	1404.9204	6208.25	5279.9
882.7033	1406.7656	6207.95	5276.4
882.847	1408.6101	6208.05	5278.3
882.9908	1410.4538	6244.55	5314.45
883.1345	1412.2968	6288.2	5358.5
883.2782	1414.139	6328.15	5400.55
883.4219	1415.9805	6391.15	5461.95
883.5656	1417.8213	6449.95	5515.8
883.7092	1419.6613	6522.1	5597.15
883.8529	1421.5006	6645.45	5718.4
883.9965	1423.3391	6802.55	5873.75
884.1402	1425.1769	7087.95	6157.5
884.2838	1427.0139	7442.8	6513
884.4274	1428.8502	7885.8	6957.45
884.571	1430.6858	8359.1	7432.95
884.7146	1432.5206	8698.35	7769.85
884.8582	1434.3547	8890	7961.8
885.0018	1436.188	8919.3	7988.9
885.1453	1438.0206	8847.7	7918.95
885.2889	1439.8524	8717.55	7789.5
885.4324	1441.6835	8588.1	7660.65
885.5759	1443.5139	8529.05	7599.75
885.7194	1445.3435	8463.35	7536.8
885.8629	1447.1724	8445.65	7517.75
886.0064	1449.0005	8406.3	7477.7
886.1499	1450.8279	8371.8	7446.55
886.2933	1452.6545	8367.95	7437.75
886.4368	1454.4804	8371.75	7447.05
886.5802	1456.3056	8374.75	7443.45
886.7237	1458.13	8309.5	7382.65
886.8671	1459.9536	8181.8	7257.8
887.0105	1461.7766	7968.7	7044.1
887.1539	1463.5987	7717.15	6788.7
887.2972	1465.4202	7426.9	6499.05
887.4406	1467.2409	7137	6211.25
887.584	1469.0608	6893.05	5966.6
887.7273	1470.88	6652.05	5725.05
887.8706	1472.6984	6456.05	5529.15
888.0139	1474.5161	6289.15	5361.5
888.1572	1476.3331	6147.95	5224.25
888.3005	1478.1493	6076.65	5150.25
888.4438	1479.9648	5994.4	5069.35
888.5871	1481.7795	5924.05	4996.8
888.7303	1483.5935	5879.35	4955.05
888.8736	1485.4067	5853.2	4928
889.0168	1487.2192	5815.4	4888.95
889.16	1489.031	5783.5	4857
889.3032	1490.842	5736.2	4811.65
889.4464	1492.6522	5719.15	4797.45
889.5896	1494.4618	5682.55	4756.8
889.7327	1496.2705	5654.9	4729.65
889.8759	1498.0785	5616.25	4688.75
890.019	1499.8858	5597.6	4671.5
890.1622	1501.6924	5530.35	4605.45
890.3053	1503.4981	5520.2	4593.7
890.4484	1505.3032	5465.55	4541.15
890.5914	1507.1075	5432.7	4510.7
890.7345	1508.911	5380.95	4454.4
890.8776	1510.7138	5355.85	4435
891.0206	1512.5159	5312.65	4389.25
891.1637	1514.3172	5275.8	4352.85
891.3067	1516.1178	5226.1	4304.8
891.4497	1517.9176	5223.95	4298.7
891.5927	1519.7166	5179.6	4257.9
891.7357	1521.515	5151.5	4222.95
891.8786	1523.3126	5116.35	4195.2
892.0216	1525.1094	5106	4180.55
892.1645	1526.9055	5086.7	4165.8
892.3074	1528.7008	5079.85	4159.4
892.4503	1530.4954	5059.45	4137.7
892.5932	1532.2893	5042.25	4123.25
892.7361	1534.0824	5029	4105.6
892.879	1535.8747	5035.7	4119.8
893.0218	1537.6663	5028.45	4109.8
893.1647	1539.4572	5024	4104.3
893.3075	1541.2473	5016.9	4097
893.4503	1543.0367	5033.4	4115.9
893.5931	1544.8253	5036.3	4113.8
893.7359	1546.6132	5088.2	4165.65
893.8787	1548.4003	5121.35	4191.9
894.0214	1550.1867	5173.75	4247.6
894.1642	1551.9723	5228.6	4307.65
894.3069	1553.7572	5338.5	4421
894.4496	1555.5414	5433.2	4517.25
894.5923	1557.3247	5591.6	4677.5
894.735	1559.1074	5735.55	4822.65
894.8777	1560.8893	5912.15	4999.05
895.0204	1562.6705	6077.8	5164.3
895.163	1564.4509	6197.25	5284.1
895.3056	1566.2305	6278.1	5368.25
895.4482	1568.0094	6307.45	5397.6
895.5908	1569.7876	6304.55	5395.1
895.7334	1571.565	6266.75	5352.6
895.876	1573.3417	6270.5	5360.65
896.0186	1575.1176	6274.65	5362.6
896.1611	1576.8928	6284.1	5374.7
896.3036	1578.6672	6323.5	5418
896.4461	1580.4409	6333.05	5430.8
896.5886	1582.2138	6403.2	5497.2
896.7311	1583.986	6473.45	5565.25
896.8736	1585.7575	6582.9	5673.65
897.0161	1587.5282	6692.65	5786.1
897.1585	1589.2981	6818.75	5914.7
897.3009	1591.0673	6918.65	6014
897.4433	1592.8358	7053.55	6148.6
897.5857	1594.6035	7162.9	6254.1
897.7281	1596.3704	7251.4	6342.35
897.8705	1598.1366	7368.9	6461.75
898.0128	1599.9021	7467.8	6563.25
898.1551	1601.6668	7546	6639.6
898.2975	1603.4308	7661.55	6755.85
898.4398	1605.194	7834.05	6919.5
898.5821	1606.9564	8023.4	7122.95
898.7243	1608.7182	8259.95	7359.75
898.8666	1610.4791	8561.9	7667.65
899.0088	1612.2394	8865.65	7970.05
899.1511	1613.9988	9180.7	8283.4
899.2933	1615.7576	9491.55	8589.55
899.4355	1617.5156	9655.6	8745.85
899.5776	1619.2728	9728.55	8820.5
899.7198	1621.0293	9610.8	8705.3
899.862	1622.785	9352.25	8446.05
900.0041	1624.54	8963.85	8062.95
900.1462	1626.2942	8589.4	7688.05
900.2883	1628.0477	8155.35	7251.8
900.4304	1629.8005	7770.95	6867.1
900.5725	1631.5525	7427.75	6529.35
900.7145	1633.3037	7141.6	6242.15
900.8566	1635.0542	6917.25	6018.4
900.9986	1636.804	6733.8	5834
901.1406	1638.553	6696.3	5694.3
901.2826	1640.3013	6531.55	5627.5
901.4245	1642.0488	6485.2	5585.7
901.5665	1643.7955	6467.65	5568.85
901.7085	1645.5416	6512.7	5615.05
901.8504	1647.2868	6592.5	5692.05
901.9923	1649.0313	6677.8	5775.65
902.1342	1650.7751	6824.35	5920.15
902.2761	1652.5181	6948.35	6048.85
902.4179	1654.2604	7099.25	6200
902.5598	1656.0019	7300.3	6402.6
902.7016	1657.7427	7509.35	6609.65
902.8434	1659.4828	7742.55	6842.4
902.9852	1661.222	7871.35	6968.9
903.127	1662.9606	7841.5	6940.1
903.2687	1664.6984	7647.4	6744
903.4105	1666.4354	7308.15	6407.65
903.5522	1668.1717	6801.5	5896.9
903.6939	1669.9072	6300.7	5395.45
903.8356	1671.642	5887	4982.7
903.9773	1673.3761	5530.5	4627.65
904.119	1675.1094	5232.75	4332.25
904.2606	1676.8419	5033.15	4135.15
904.4022	1678.5737	4844.3	3941.65
904.5439	1680.3048	4683.75	3782.35
904.6855	1682.0351	4581.75	3681.15
904.827	1683.7646	4488.25	3583.95
904.9686	1685.4934	4414.6	3513.65
905.1101	1687.2215	4349.2	3446.8
905.2517	1688.9488	4264.05	3365.15
905.3932	1690.6754	4200.9	3303.25
905.5347	1692.4012	4174.9	3272.6
905.6761	1694.1263	4132.05	3233.05
905.8176	1695.8506	4084.95	3184.65
905.9591	1697.5742	4054.15	3156.75
906.1005	1699.297	4007.9	3113
906.2419	1701.0191	3960	3065.85
906.3833	1702.7404	3943.7	3049
906.5246	1704.461	3908.3	3009.6
906.666	1706.1808	3877.65	2978.35
906.8073	1707.8999	3851.2	2956.6
906.9487	1709.6182	3826.25	2932.2
907.09	1711.3358	3803.25	2912.45
907.2313	1713.0527	3792.7	2902.35
907.3725	1714.7688	3781.15	2881.7
907.5138	1716.4841	3752	2856.25
907.655	1718.1987	3734.85	2834.8
907.7962	1719.9126	3724.8	2833.3
907.9374	1721.6257	3706.65	2810.35
908.0786	1723.338	3680.75	2788.4
908.2198	1725.0496	3689.45	2795.9
908.3609	1726.7605	3664.8	2769.65
908.502	1728.4706	3671.5	2778.1
908.6431	1730.18	3650.05	2756.2
908.7842	1731.8886	3645.1	2752.25
908.9253	1733.5964	3640.7	2728.7
909.0664	1735.3036	3615	2720.4
909.2074	1737.0099	3591.65	2697.45
909.3484	1738.7156	3564.35	2672.4
909.4894	1740.4204	3558.05	2661.45
909.6304	1742.1246	3534.65	2640
909.7714	1743.8279	3517.8	2623.75
909.9123	1745.5306	3496.35	2605.2
910.0532	1747.2325	3484.15	2591.95
910.1941	1748.9336	3465.85	2573.4
910.335	1750.634	3442.5	2546.65
910.4759	1752.3336	3445.7	2551.6
910.6168	1754.0325	3433.15	2542.6
910.7576	1755.7307	3413.1	2520.85
910.8984	1757.4281	3408.4	2514.75
911.0392	1759.1247	3410.65	2508.75
911.18	1760.8206	3408.25	2508.35
911.3208	1762.5158	3410.3	2509.8
911.4615	1764.2102	3382.75	2488.7
911.6022	1765.9039	3369.45	2476.7
911.7429	1767.5968	3376.25	2487
911.8836	1769.289	3364.95	2473.9
912.0243	1770.9804	3350.55	2454.55
912.1649	1772.6711	3342.4	2445.15
912.3056	1774.361	3330.4	2433.1
912.4462	1776.0502	3320.3	2424.75
912.5868	1777.7386	3308.15	2410.15
912.7274	1779.4263	3301.85	2408.05
912.8679	1781.1132	3318.4	2427.75
913.0084	1782.7994	3300.3	2408
913.149	1784.4849	3295.5	2405.65
913.2895	1786.1696	3296.95	2388.1
913.4299	1787.8535	3286.4	2397.45
913.5704	1789.5367	3271.8	2383.2
913.7108	1791.2192	3268.4	2380
913.8513	1792.9009	3270.55	2353.05
913.9917	1794.5818	3251.35	2356.55
914.132	1796.2621	3234.4	2341.7
914.2724	1797.9415	3235.1	2342.25
914.4128	1799.6202	3224.2	2332.65
914.5531	1801.2982	3221.45	2328.1
914.6934	1802.9755	3227.85	2333.9
914.8337	1804.6519	3218.55	2326
914.9739	1806.3277	3197.65	2308.5
915.1142	1808.0027	3196.65	2309.35
915.2544	1809.6769	3189.7	2302.35
915.3946	1811.3504	3180.1	2287.85
915.5348	1813.0231	3175.2	2284.35
915.675	1814.6951	3176.15	2285.4
915.8151	1816.3664	3166.3	2271.65
915.9553	1818.0369	3170.05	2277.25
916.0954	1819.7067	3158.45	2268.65
916.2355	1821.3757	3160.65	2268.1
916.3755	1823.044	3157.45	2264.8
916.5156	1824.7115	3144.2	2250.4
916.6556	1826.3783	3126.75	2235.6
916.7956	1828.0443	3121.65	2233.05
916.9356	1829.7096	3125.65	2232.4
917.0756	1831.3741	3121.7	2227.35
917.2155	1833.0379	3102.35	2214
917.3555	1834.701	3093.95	2203.45
917.4954	1836.3633	3098.65	2210.8
917.6353	1838.0248	3098.25	2207.85
917.7751	1839.6856	3095.65	2206.1
917.915	1841.3457	3099.4	2209
918.0548	1843.005	3082.85	2191.35
918.1946	1844.6636	3095.9	2205
918.3344	1846.3214	3078.55	2187.6
918.4742	1847.9785	3082.95	2192.6
918.6139	1849.6349	3067.6	2174.3
918.7537	1851.2904	3077.9	2173.55
918.8934	1852.9453	3072.85	2177.3
919.0331	1854.5994	3058.95	2163.9
919.1727	1856.2528	3071.15	2174.9
919.3124	1857.9054	3056	2164.6
919.452	1859.5572	3040.35	2149.05
919.5916	1861.2083	3038.45	2146
919.7312	1862.8587	3047	2153.35
919.8708	1864.5084	3036.15	2141.4
920.0103	1866.1572	3034.35	2141
920.1498	1867.8054	3002.5	2108.35
920.2893	1869.4528	2998.5	2105.65
920.4288	1871.0994	3011.55	2117
920.5683	1872.7453	3006.6	2114.95
920.7077	1874.3905	3006.15	2107.7
920.8471	1876.0349	2979.15	2088.6
920.9865	1877.6786	2994.65	2102.75
921.1259	1879.3215	2994.4	2102.45
921.2653	1880.9637	2966.65	2072.95
921.4046	1882.6051	2968.3	2077.75
921.5439	1884.2458	2967.05	2075
921.6832	1885.8858	2944.5	2054.9
921.8225	1887.525	2955.8	2062.5
921.9617	1889.1634	2938.75	2046.1
922.101	1890.8011	2937.2	2042.9
922.2402	1892.4381	2932.95	2044.2
922.3794	1894.0743	2927.4	2037.15
922.5185	1895.7098	2930.15	2040.85
922.6577	1897.3446	2914.5	2023.75
922.7968	1898.9786	2902.95	2007.2
922.9359	1900.6118	2908.45	2019.35
923.075	1902.2443	2900	2009.4
923.214	1903.8761	2888.75	1997.9
923.3531	1905.5071	2881.65	1989.6
923.4921	1907.1374	2879.55	1987.6
923.6311	1908.7669	2885.1	1995.1
923.77	1910.3957	2878.55	1988.9
923.909	1912.0237	2858.4	1966.4
924.0479	1913.651	2853.8	1960.75
924.1868	1915.2776	2850.3	1960.65
924.3257	1916.9034	2834.65	1946.35
924.4646	1918.5285	2837.4	1948.9
924.6034	1920.1528	2818.85	1927.85
924.7422	1921.7764	2821.5	1929.5
924.881	1923.3992	2817.2	1926.85
925.0198	1925.0213	2808.6	1918.3
925.1586	1926.6427	2794.05	1904.6
925.2973	1928.2633	2853.35	1876.95
925.436	1929.8832	2790.95	1896.75
925.5747	1931.5023	2760.8	1868.2
925.7134	1933.1207	2767.2	1876.65
925.852	1934.7383	2760.55	1872.15
925.9906	1936.3552	2768.9	1880.25
926.1292	1937.9714	2751.15	1860.4
926.2678	1939.5868	2755.45	1864.55
926.4064	1941.2015	2733.3	1840.1
926.5449	1942.8154	2726.2	1832.65
926.6834	1944.4286	2718.55	1827.05
926.8219	1946.041	2723.7	1809
926.9604	1947.6528	2715.05	1819.75
927.0988	1949.2637	2718	1828.55
927.2372	1950.8739	2701.85	1810.1
927.3756	1952.4834	2697.55	1805.25
927.514	1954.0921	2694.55	1802.6
927.6523	1955.7001	2684	1789.45
927.7907	1957.3074	2682.3	1793.65
927.929	1958.9139	2668.65	1779.5
928.0673	1960.5197	2676.85	1785.75
928.2055	1962.1247	2657.8	1768.85
928.3438	1963.729	2651.1	1764.15
928.482	1965.3325	2656.3	1761.5
928.6202	1966.9353	2641.25	1753.5
928.7584	1968.5374	2622	1734.6
928.8965	1970.1387	2629.65	1740.95
929.0346	1971.7393	2621.3	1732.2
929.1727	1973.3392	2611.1	1722.7
929.3108	1974.9383	2604.9	1722.65
929.4489	1976.5366	2590.2	1706.7
929.5869	1978.1342	2597.3	1711.9
929.7249	1979.7311	2580.8	1692.8
929.8629	1981.3273	2583.9	1697.6
930.0009	1982.9227	2580.15	1695.1
930.1388	1984.5173	2573.85	1688.9
930.2767	1986.1112	2550.45	1663.25
930.4146	1987.7044	2564	1677.9
930.5525	1989.2968	2560.5	1675.5
930.6904	1990.8885	2555	1667.1
930.8282	1992.4795	2541.3	1655.85
930.966	1994.0697	2543.5	1659.2
931.1038	1995.6592	2540.15	1657.3
931.2415	1997.2479	2543.5	1657.75
931.3793	1998.8359	2531.5	1647.1
931.517	2000.4232	2520.95	1639.85
931.6547	2002.0097	2505.85	1626.85
931.7923	2003.5955	2515.25	1631.75
931.93	2005.1805	2504.1	1620.4
932.0676	2006.7648	2512.35	1627.95
932.2052	2008.3484	2501.9	1620.1
932.3427	2009.9312	2497.65	1614.15
932.4803	2011.5133	2493.6	1613.6
932.6178	2013.0946	2486.45	1603.45
932.7553	2014.6752	2484.4	1602.5
932.8928	2016.2551	2475.85	1592.45
933.0302	2017.8342	2473.9	1590.95
933.1676	2019.4126	2469.8	1590.2
933.305	2020.9902	2455.4	1577.3
933.4424	2022.5672	2451.4	1569.65
933.5798	2024.1433	2462	1576.35
933.7171	2025.7188	2448.8	1569.5
933.8544	2027.2935	2441.55	1561.7
933.9917	2028.8674	2436.65	1556.6
934.129	2030.4406	2431.25	1552.25
934.2662	2032.0131	2423.35	1545.95
934.4034	2033.5849	2420.6	1535.15
934.5406	2035.1559	2429.3	1550.9
934.6778	2036.7261	2421.85	1538.9
934.8149	2038.2957	2410.7	1526.65
934.952	2039.8645	2410.45	1526.15
935.0891	2041.4325	2402.55	1514.4
935.2262	2042.9998	2408	1526.45
935.3632	2044.5664	2399.1	1519.05
935.5002	2046.1323	2393.95	1513.5
935.6372	2047.6974	2374.25	1494.1
935.7742	2049.2617	2383.55	1501.75
935.9111	2050.8254	2387.95	1500.55
936.048	2052.3883	2380.55	1497.05
936.1849	2053.9504	2373.5	1488.25
936.3218	2055.5118	2377.55	1492.6
936.4586	2057.0725	2383.1	1496.1
936.5955	2058.6325	2377.15	1495.65
936.7323	2060.1917	2362.45	1481.2
936.869	2061.7502	2357.5	1473
937.0058	2063.3079	2351.85	1471.6
937.1425	2064.8649	2345	1459.4
937.2792	2066.4212	2354.2	1470.45
937.4159	2067.9767	2352.8	1470.8
937.5525	2069.5315	2345.25	1462.05
937.6891	2071.0856	2328.95	1445.95
937.8257	2072.6389	2312.2	1430.95
937.9623	2074.1915	2327.15	1447.4
938.0989	2075.7433	2301.9	1420.2
938.2354	2077.2945	2304.05	1422.2
938.3719	2078.8448	2312.85	1428.9
938.5084	2080.3945	2293.4	1408.8
938.6448	2081.9434	2292.85	1409.8
938.7812	2083.4916	2293.55	1408.15
938.9176	2085.039	2294	1405
939.054	2086.5857	2288.9	1398.65
939.1903	2088.1317	2284.25	1397.25
939.3267	2089.677	2286.3	1395.9
939.463	2091.2215	2286.25	1396.35
939.5992	2092.7652	2273.65	1381.05
939.7355	2094.3083	2277.2	1389.25
939.8717	2095.8506	2274.25	1388.5
940.0079	2097.3921	2269.85	1385.5
940.1441	2098.933	2250.55	1364.95
940.2802	2100.4731	2258.15	1369.8
940.4163	2102.0124	2267.9	1363.4
940.5524	2103.5511	2254.1	1366.2
940.6885	2105.089	2246.65	1358.4
940.8245	2106.6261	2245	1358.7
940.9606	2108.1626	2241.25	1354.85
941.0965	2109.6983	2268.35	1351.85
941.2325	2111.2332	2252.05	1364.65
941.3684	2112.7675	2240.45	1352.5
941.5044	2114.301	2226.5	1336.95
941.6403	2115.8337	2228.85	1341.7
941.7761	2117.3657	2219.4	1334.25
941.912	2118.897	2226.15	1338.85
942.0478	2120.4276	2221.9	1327.8
942.1835	2121.9575	2208.35	1320.85
942.3193	2123.4866	2215.8	1326.55
942.455	2125.0149	2210.8	1320.5
942.5907	2126.5426	2200.7	1317.5
942.7264	2128.0695	2189.05	1302.9
942.8621	2129.5956	2185.05	1306.75
942.9977	2131.1211	2191.5	1304.6
943.1333	2132.6458	2179.95	1294.4
943.2689	2134.1698	2188.75	1300.3
943.4044	2135.693	2183.05	1291.65
943.54	2137.2155	2186.15	1296
943.6755	2138.7373	2174.9	1287.35
943.8109	2140.2584	2168.75	1284.1
943.9464	2141.7787	2170.25	1284.1
944.0818	2143.2983	2151.8	1270.3
944.2172	2144.8171	2141.7	1261.45
944.3526	2146.3353	2149.85	1266.1
944.4879	2147.8527	2138.05	1254.5
944.6232	2149.3693	2145.4	1259.95
944.7585	2150.8853	2146.45	1259.95
944.8938	2152.4005	2133.3	1245.45
945.029	2153.9149	2141.35	1252.95
945.1642	2155.4287	2139.45	1250.15
945.2994	2156.9417	2132.8	1247.75
945.4346	2158.454	2127.25	1241.15
945.5697	2159.9655	2125.2	1241.15
945.7048	2161.4764	2109.05	1225.8
945.8399	2162.9865	2110.8	1224.8
945.9749	2164.4958	2113.8	1227.4
946.1099	2166.0045	2104.75	1216.6
946.2449	2167.5124	2102.7	1216.9
946.3799	2169.0195	2101.55	1215.75
946.5148	2170.526	2102.4	1212.55
946.6498	2172.0317	2100	1213.4
946.7846	2173.5367	2096.65	1210.05
946.9195	2175.0409	2089.7	1204.45
947.0543	2176.5445	2098.8	1212.5
947.1891	2178.0473	2091.5	1202.5
947.3239	2179.5494	2089.55	1197.65
947.4587	2181.0507	2078.35	1193.5
947.5934	2182.5513	2070.15	1182.15
947.7281	2184.0512	2067.95	1179.6
947.8628	2185.5504	2079.7	1193.15
947.9974	2187.0488	2062	1176.1
948.132	2188.5465	2060	1175.25
948.2666	2190.0435	2046.55	1159.75
948.4012	2191.5397	2051.6	1164.35
948.5357	2193.0353	2050.55	1164.9
948.6702	2194.5301	2046.3	1156.65
948.8047	2196.0241	2052.2	1161.55
948.9392	2197.5175	2046.85	1155
949.0736	2199.0101	2048.55	1154
949.208	2200.502	2036.05	1149.5
949.3424	2201.9931	2026.55	1140.3
949.4767	2203.4835	2027.45	1141.8
949.611	2204.9733	2031.1	1129.8
949.7453	2206.4622	2012.35	1126.7
949.8796	2207.9505	2021.95	1137.35
950.0138	2209.438	2009.7	1127.8
950.148	2210.9248	1998.5	1112.85
950.2822	2212.4109	2007.7	1122.55
950.4164	2213.8962	2008.85	1120.1
950.5505	2215.3809	2004.3	1112.65
950.6846	2216.8648	2001.85	1108.8
950.8186	2218.3479	1995.45	1097.45
950.9527	2219.8304	1999.15	1104.25
951.0867	2221.3121	1999.9	1106.55
951.2207	2222.7931	1986.1	1096
951.3546	2224.2733	1988.6	1099.75
951.4886	2225.7529	1977.6	1091.95
951.6225	2227.2317	1967.25	1077.95
951.7563	2228.7098	1964.6	1081.5
951.8902	2230.1872	1948.6	1065.35
952.024	2231.6638	1956.6	1071.3
952.1578	2233.1397	1956.5	1068.6
952.2916	2234.6149	1952.7	1069.2
952.4253	2236.0894	1946.05	1059.65
952.559	2237.5632	1970.45	1074.85
952.6927	2239.0362	1945	1058.5
952.8263	2240.5085	1941.75	1056.7
952.9599	2241.9801	1931.8	1044.85
953.0935	2243.4509	1926.1	1039.05
953.2271	2244.921	1929.15	1041.05
953.3606	2246.3904	1934.35	1042.25
953.4941	2247.8591	1919.9	1032.3
953.6276	2249.3271	1919.1	1031.9
953.7611	2250.7943	1914.3	1024.5
953.8945	2252.2608	1912.9	1023.5
954.0279	2253.7266	1904.15	1017.55
954.1612	2255.1917	1902.1	1015.35
954.2946	2256.656	1899.05	1012.2
954.4279	2258.1197	1894.3	1009.8
954.5612	2259.5826	1903.85	1016.95
954.6944	2261.0447	1897.95	1010.15
954.8276	2262.5062	1896.25	1006.65
954.9608	2263.9669	1899.85	1009.25
955.094	2265.4269	1890.4	1001.75
955.2271	2266.8862	1881.55	994.6
955.3602	2268.3448	1886.65	999.75
955.4933	2269.8026	1875.2	989.5
955.6264	2271.2598	1874.65	989.35
955.7594	2272.7162	1874.8	988.95
955.8924	2274.1719	1870.95	985.15
956.0253	2275.6268	1876.6	987.35
956.1583	2277.0811	1867.15	978.35
956.2912	2278.5346	1874.55	985.8
956.4241	2279.9874	1864.65	978.3
956.5569	2281.4395	1856.8	971.65
956.6897	2282.8908	1861.45	969.65
956.8225	2284.3414	1858.75	969.05
956.9553	2285.7914	1858.5	971.8
957.088	2287.2406	1851.25	960.9
957.2207	2288.689	1858.85	968.45
957.3534	2290.1368	1850.3	958.5
957.486	2291.5838	1852.95	958.35
957.6186	2293.0302	1855.7	962.2
957.7512	2294.4758	1845.5	955.45
957.8838	2295.9206	1840.55	950.85
958.0163	2297.3648	1837.7	951
958.1488	2298.8082	1839.2	951.6
958.2813	2300.251	1828.75	938.75
958.4137	2301.693	1830.7	937.75
958.5461	2303.1343	1830.25	937.3
958.6785	2304.5748	1826.7	938.5
958.8108	2306.0147	1821.7	933.35
958.9432	2307.4538	1811.3	924.85
959.0754	2308.8922	1802.85	919.8
959.2077	2310.3299	1812.65	926.7
959.3399	2311.7669	1816	931.45
959.4721	2313.2031	1804.1	916.7
959.6043	2314.6387	1797.75	908.5
959.7365	2316.0735	1804.2	915.95
959.8686	2317.5076	1804.4	914.9
960.0006	2318.941	1796.7	905.7
960.1327	2320.3737	1793	900.5
960.2647	2321.8056	1796.75	902.8
960.3967	2323.2369	1796.05	905.55
960.5287	2324.6674	1784.15	894.65
960.6606	2326.0972	1786.9	898.8
960.7925	2327.5263	1793	903.75
960.9244	2328.9547	1790.5	900.35
961.0562	2330.3823	1784.9	893.35
961.1881	2331.8092	1784.7	889.95
961.3198	2333.2355	1766.45	874.8
961.4516	2334.661	1770.55	879.85
961.5833	2336.0858	1761.45	867.5
961.715	2337.5098	1763.35	875.2
961.8467	2338.9332	1761.7	873.55
961.9783	2340.3558	1770.2	878.8
962.1099	2341.7778	1760.15	873.6
962.2415	2343.199	1751.2	863.35
962.373	2344.6195	1762.85	877.5
962.5045	2346.0393	1751.55	861.3
962.636	2347.4583	1756.25	867.4
962.7675	2348.8767	1747.25	856.55
962.8989	2350.2943	1756.7	863.55
963.0303	2351.7113	1742.2	850.5
963.1617	2353.1275	1764	872.4
963.293	2354.543	1758.1	860.4
963.4243	2355.9578	1745.45	855.6
963.5556	2357.3718	1736.75	850.3
963.6868	2358.7852	1739.15	851.25
963.818	2360.1978	1735.9	846.7
963.9492	2361.6098	1728.65	840.8
964.0803	2363.021	1733.05	837.4
964.2114	2364.4315	1731.8	841.45
964.3425	2365.8413	1720.2	829.7
964.4736	2367.2504	1720.8	833.05
964.6046	2368.6587	1722.05	835.65
964.7356	2370.0664	1721.9	833.45
964.8666	2371.4733	1716.2	828.4
964.9975	2372.8795	1716.95	830.15
965.1284	2374.285	1719	829.35
965.2593	2375.6899	1704.15	814.45
965.3901	2377.0939	1702.35	813.5
965.5209	2378.4973	1704.6	815.9
965.6517	2379.9	1709.7	822
965.7825	2381.3019	1689.6	801.45
965.9132	2382.7032	1685.75	800.2
966.0439	2384.1037	1684.9	801.7
966.1745	2385.5035	1688.4	801.75
966.3051	2386.9027	1688.95	805.55
966.4357	2388.3011	1681.15	791.15
966.5663	2389.6987	1672.35	785.4
966.6968	2391.0957	1677.35	793.9
966.8273	2392.492	1671.45	786.65
966.9578	2393.8876	1674.55	786.95
967.0882	2395.2824	1667	781.8
967.2186	2396.6765	1660.2	773.15
967.349	2398.07	1664.65	776.9
967.4793	2399.4627	1666.2	774
967.6097	2400.8547	1670.05	779.1
967.7399	2402.246	1655.4	761.7
967.8702	2403.6366	1652.65	766.05
968.0004	2405.0265	1650.6	764.3
968.1306	2406.4156	1656.1	764.45
968.2607	2407.8041	1654.05	763.5
968.3909	2409.1918	1644.75	754.3
968.521	2410.5789	1638.2	748.3
968.651	2411.9652	1648.15	756.05
968.781	2413.3508	1643.45	751.75
968.911	2414.7358	1644.4	756.55
969.041	2416.12	1632	744.7
969.1709	2417.5035	1636.75	749.15
969.3008	2418.8863	1632.75	745.8
969.4307	2420.2684	1625	735.25
969.5606	2421.6497	1633.65	742.45
969.6904	2423.0304	1624.25	735.15
969.8201	2424.4104	1622.1	732.85
969.9499	2425.7896	1629.8	734.15
970.0796	2427.1682	1622.75	735.4
970.2093	2428.546	1614.3	725.2
970.3389	2429.9232	1623.8	734.4
970.4685	2431.2996	1617.8	728.1
970.5981	2432.6753	1623.6	735.25
970.7277	2434.0503	1609.75	720.45
970.8572	2435.4246	1606.75	718.5
970.9867	2436.7982	1608.85	716.75
971.1161	2438.1711	1608.65	720.8
971.2456	2439.5433	1602.85	715.45
971.375	2440.9148	1606.15	712.65
971.5043	2442.2856	1600.7	712.95
971.6336	2443.6557	1585.9	695.1
971.7629	2445.025	1585.35	695.75
971.8922	2446.3937	1590.7	699.3
972.0214	2447.7617	1592.25	701.65
972.1506	2449.1289	1583.8	695.05
972.2798	2450.4955	1586.15	696.55
972.4089	2451.8613	1584.15	697.85
972.538	2453.2265	1580.55	692
972.6671	2454.5909	1579.3	688.75
972.7961	2455.9546	1575.8	689.85
972.9251	2457.3177	1579.2	693.25
973.0541	2458.68	1576.65	687.55
973.1831	2460.0416	1573.5	686.65
973.312	2461.4025	1565.2	675.6
973.4408	2462.7627	1577.35	679.05
973.5697	2464.1222	1566.05	679.9
973.6985	2465.4811	1559.45	672.05
973.8273	2466.8392	1560.45	677.4
973.956	2468.1966	1562.35	672.25
974.0847	2469.5533	1559.9	669.35
974.2134	2470.9093	1568.65	680.3
974.3421	2472.2645	1562.9	671.5
974.4707	2473.6191	1558.5	673
974.5993	2474.973	1562.5	672.8
974.7278	2476.3262	1562.8	673.4
974.8563	2477.6787	1555.8	669.95
974.9848	2479.0305	1549.15	660.4
975.1132	2480.3816	1551.6	661.05
975.2417	2481.7319	1549.35	662.25
975.37	2483.0816	1545.05	655.25
975.4984	2484.4306	1543.25	653.15
975.6267	2485.7789	1538.05	651.3
975.755	2487.1264	1539.5	650.7
975.8833	2488.4733	1533.7	648.55
976.0115	2489.8195	1556.85	652.2
976.1397	2491.165	1543.9	654.25
976.2678	2492.5097	1536.35	648.9
976.3959	2493.8538	1527.95	641.7
976.524	2495.1972	1523.2	636.1
976.6521	2496.5398	1526.5	635.7
976.7801	2497.8818	1534.4	644.75
976.9081	2499.2231	1521.15	631.85
977.036	2500.5637	1532.8	642.7
977.164	2501.9035	1522.75	632.9
977.2918	2503.2427	1522.85	629.05
977.4197	2504.5812	1514.7	625.55
977.5475	2505.919	1513.25	622.7
977.6753	2507.256	1511.8	621.6
977.8031	2508.5924	1508.15	621.1
977.9308	2509.9281	1514	620.15
978.0585	2511.2631	1511.3	626.9
978.1861	2512.5974	1505.3	617.25
978.3137	2513.9309	1506.9	618.9
978.4413	2515.2638	1534.25	620.85
978.5689	2516.596	1510.9	622.5
978.6964	2517.9275	1508.35	619.4
978.8239	2519.2583	1492.8	604.2
978.9513	2520.5884	1500.3	610.75
979.0788	2521.9178	1490.4	604.15
979.2062	2523.2465	1484.65	596.35
979.3335	2524.5745	1482.4	596.05
979.4608	2525.9018	1485.8	595.75
979.5881	2527.2284	1490.1	602.4
979.7154	2528.5543	1489.8	603.35
979.8426	2529.8796	1482.05	593.55
979.9698	2531.2041	1482.7	593.6
980.0969	2532.5279	1488.85	602.15
980.224	2533.851	1490.4	604.05
980.3511	2535.1735	1492.95	605.7
980.4781	2536.4952	1490.75	603.5
980.6052	2537.8163	1486.55	594.95
980.7321	2539.1366	1482.25	594.7
980.8591	2540.4562	1483.7	594.6
980.986	2541.7752	1478.35	591.35
981.1129	2543.0935	1480.2	592.8
981.2397	2544.411	1480.4	591.55
981.3665	2545.7279	1476.05	588.2
981.4933	2547.0441	1465.25	576.7
981.62	2548.3596	1477.3	585.5
981.7467	2549.6744	1479.8	592.1
981.8734	2550.9885	1477.95	581.7
982.0001	2552.3019	1462.7	574.7
982.1267	2553.6146	1482.1	592.95
982.2532	2554.9266	1474.8	585.9
982.3798	2556.2379	1468	578.6
982.5063	2557.5485	1456.5	569.9
982.6327	2558.8585	1476	581.25
982.7592	2560.1677	1465.8	572.95
982.8856	2561.4762	1458.95	568.9
983.0119	2562.7841	1459.45	568.65
983.1383	2564.0913	1458.1	570
983.2646	2565.3977	1462.85	576.1
983.3908	2566.7035	1457	567.25
983.517	2568.0086	1460.3	570.4
983.6432	2569.313	1455.55	566.65
983.7694	2570.6167	1455.3	562.35
983.8955	2571.9197	1453.65	565.75
984.0216	2573.222	1462.05	570.25
984.1476	2574.5236	1455.75	567.35
984.2737	2575.8246	1458	567.3
984.3996	2577.1248	1460	569.8
984.5256	2578.4244	1455.7	569.05
984.6515	2579.7232	1450.65	563.3
984.7774	2581.0214	1471.15	556.15
984.9032	2582.3189	1444.6	556.05
985.029	2583.6157	1452.8	561
985.1548	2584.9118	1451.55	563.4
985.2806	2586.2072	1446.85	559.85
985.4063	2587.5019	1455.4	568.2
985.5319	2588.7959	1446.9	560.05
985.6576	2590.0893	1449.55	560.55
985.7832	2591.3819	1455.45	567.6
985.9087	2592.6739	1447.4	562.65
986.0343	2593.9652	1454.55	566.1
986.1597	2595.2557	1452.2	565.45
986.2852	2596.5456	1450.05	559.5
986.4106	2597.8348	1444.7	558.7
986.536	2599.1234	1449.9	566.15
986.6614	2600.4112	1445.9	559.45
986.7867	2601.6983	1455	567.4
986.912	2602.9848	1446.2	560.15
987.0372	2604.2705	1445.55	552.85
987.1624	2605.5556	1447.2	561.4
987.2876	2606.84	1443.85	557.65
987.4128	2608.1237	1434.85	546.05
987.5379	2609.4067	1439.8	552.7
987.6629	2610.689	1443.5	548.55
987.788	2611.9707	1434.85	546.2
987.913	2613.2516	1428.75	537.95
988.0379	2614.5319	1431.8	546.65
988.1629	2615.8115	1423.5	535.85
988.2878	2617.0903	1427.65	540.2
988.4126	2618.3685	1424.1	536.9
988.5375	2619.6461	1409.2	524.45
988.6622	2620.9229	1414.55	529.25
988.787	2622.199	1416.65	526.5
988.9117	2623.4745	1420.2	534.45
989.0364	2624.7493	1414.1	527.55
989.161	2626.0234	1417.1	533.6
989.2857	2627.2968	1411	526.05
989.4102	2628.5695	1412.35	528.15
989.5348	2629.8415	1413.15	526
989.6593	2631.1128	1415.05	525.75
989.7837	2632.3835	1407.9	523.75
989.9082	2633.6535	1406.7	521.35
990.0326	2634.9228	1402.15	516.75
990.1569	2636.1914	1406.5	523.75
990.2812	2637.4593	1408.05	523.4
990.4055	2638.7265	1401.35	513.8
990.5298	2639.9931	1402.75	517.5
990.654	2641.259	1405.75	519.15
990.7782	2642.5242	1400.05	514.75
990.9023	2643.7887	1396.1	510.1
991.0264	2645.0525	1395.85	510.15
991.1505	2646.3156	1391.65	503.4
991.2745	2647.5781	1390.05	504.8
991.3985	2648.8398	1385.8	503
991.5225	2650.1009	1421.85	498.9
991.6464	2651.3613	1387.95	504.2
991.7703	2652.6211	1390.85	506.55
991.8942	2653.8801	1384.55	500.8
992.018	2655.1385	1385.55	497
992.1418	2656.3961	1390.65	505.2
992.2655	2657.6531	1390.2	506.1
992.3892	2658.9094	1383.45	499.45
992.5129	2660.1651	1383.4	499.05
992.6366	2661.42	1382.8	497.25
992.7602	2662.6743	1391.25	503.9
992.8837	2663.9279	1385.5	500.75
993.0073	2665.1808	1388.75	500.05
993.1307	2666.433	1394.35	508
993.2542	2667.6846	1392.75	506.4
993.3776	2668.9354	1393.95	507
993.501	2670.1856	1399.45	514.7
993.6244	2671.4351	1397.5	512.2
993.7477	2672.6839	1402.45	514.25
993.8709	2673.9321	1398.45	511.85
993.9942	2675.1795	1396.4	511.25
994.1174	2676.4263	1404.25	520.45
994.2405	2677.6724	1400.95	516.35
994.3637	2678.9179	1405.35	521.75
994.4868	2680.1626	1400.3	517.35
994.6098	2681.4067	1404.4	517.8
994.7328	2682.6501	1407.25	520.4
994.8558	2683.8928	1390.65	507.3
994.9788	2685.1348	1393.05	509.8
995.1017	2686.3761	1389.45	505.65
995.2245	2687.6168	1383.7	499
995.3474	2688.8568	1387.2	503.75
995.4702	2690.0961	1374.05	489.45
995.5929	2691.3348	1376.25	493
995.7156	2692.5727	1375.55	490.7
995.8383	2693.81	1373.3	487.25
995.961	2695.0466	1371.45	488.35
996.0836	2696.2826	1377.2	489.4
996.2062	2697.5178	1374.65	487.2
996.3287	2698.7524	1372.1	486.4
996.4512	2699.9863	1378.15	490.2
996.5737	2701.2195	1374.1	490.7
996.6961	2702.452	1383.4	497.55
996.8185	2703.6839	1380.75	493.35
996.9408	2704.9151	1390.45	506.5
997.0631	2706.1456	1390.95	509.1
997.1854	2707.3755	1399.15	515.3
997.3077	2708.6046	1403	516.8
997.4299	2709.8331	1406.1	521.35
997.552	2711.0609	1408.05	524.5
997.6742	2712.2881	1417.5	534.25
997.7963	2713.5145	1427.7	540.95
997.9183	2714.7403	1425.45	540.45
998.0403	2715.9654	1441.25	555.9
998.1623	2717.1899	1455.6	556.7
998.2842	2718.4136	1452.1	569.6
998.4062	2719.6367	1467.4	582.5
998.528	2720.8591	1477.4	588
998.6498	2722.0809	1482.3	599.25
998.7716	2723.3019	1493.8	604.8
998.8934	2724.5223	1497.5	611.95
999.0151	2725.7421	1503.2	618.6
999.1368	2726.9611	1507.45	621.55
999.2584	2728.1795	1510.2	621.75
999.38	2729.3972	1499.05	615.7
999.5016	2730.6142	1493.95	602.65
999.6231	2731.8306	1476.8	591.95
999.7446	2733.0462	1469.5	584.85
999.8661	2734.2612	1454.3	565.7
999.9875	2735.4756	1444.2	557.35
1000.1089	2736.6892	1417.25	533.05
1000.2302	2737.9022	1412.2	531.8
1000.3515	2739.1145	1405.15	522
1000.4728	2740.3262	1406.7	516.5
1000.594	2741.5372	1380.6	497
1000.7152	2742.7475	1373	487.75
1000.8363	2743.9571	1363.9	477.65
1000.9575	2745.1661	1362.75	473.35
1001.0785	2746.3744	1346.55	461.5
1001.1996	2747.582	1339.7	455.7
1001.3206	2748.7889	1338.65	453
1001.4415	2749.9952	1331.7	449.35
1001.5625	2751.2008	1333.25	447.45
1001.6833	2752.4057	1326.55	440.4
1001.8042	2753.61	1324.45	440.6
1001.925	2754.8136	1322.35	437.65
1002.0458	2756.0165	1314.5	432.4
1002.1665	2757.2188	1319.4	436.25
1002.2872	2758.4204	1316.45	433.9
1002.4078	2759.6213	1314.85	431.65
1002.5285	2760.8215	1326.6	438.65
1002.649	2762.0211	1314.9	430
1002.7696	2763.22	1314.9	429.95
1002.8901	2764.4182	1315.55	431.05
1003.0106	2765.6158	1306.2	422.95
1003.131	2766.8127	1312.6	428.9
1003.2514	2768.009	1309.9	426.8
1003.3717	2769.2045	1300.2	415.9
1003.492	2770.3994	1304.45	419.65
1003.6123	2771.5936	1301.25	418.45
1003.7325	2772.7872	1299	414.8
1003.8527	2773.9801	1294.3	410.25
1003.9729	2775.1723	1311.05	411.95
1004.093	2776.3639	1288.95	407.45
1004.2131	2777.5548	1288.65	403.05
1004.3331	2778.745	1291.9	406.6
1004.4531	2779.9346	1285.5	402.6
1004.5731	2781.1235	1299.3	414.45
1004.693	2782.3117	1287.45	406.35
1004.8129	2783.4992	1291.95	408.45
1004.9328	2784.6861	1296.55	414.8
1005.0526	2785.8723	1297.1	415.45
1005.1723	2787.0579	1305.1	420.05
1005.2921	2788.2428	1310	425.8
1005.4118	2789.427	1309.5	429.6
1005.5314	2790.6106	1309	427.35
1005.651	2791.7935	1317.45	436.05
1005.7706	2792.9757	1315.7	433.6
1005.8902	2794.1573	1325.35	440.05
1006.0097	2795.3382	1332.95	449.35
1006.1291	2796.5184	1337.2	456.45
1006.2485	2797.698	1348.9	464.55
1006.3679	2798.8769	1358.25	474.6
1006.4873	2800.0551	1360.2	475.85
1006.6066	2801.2327	1368.15	485.25
1006.7258	2802.4096	1383.05	501.9
1006.8451	2803.5859	1398.55	516.4
1006.9642	2804.7615	1403.45	520.3
1007.0834	2805.9364	1416.1	534
1007.2025	2807.1106	1439.55	559
1007.3216	2808.2842	1455.25	571.4
1007.4406	2809.4572	1486.15	606
1007.5596	2810.6294	1501.7	619.05
1007.6785	2811.801	1536.65	655.45
1007.7975	2812.972	1561.75	681.4
1007.9163	2814.1423	1592.05	710.3
1008.0352	2815.3119	1621.3	740.05
1008.154	2816.4808	1667.55	789.7
1008.2727	2817.6491	1717.8	835.05
1008.3914	2818.8167	1751.55	871.65
1008.5101	2819.9837	1793.6	907.45
1008.6288	2821.15	1841.35	957.7
1008.7474	2822.3157	1897.3	1018.25
1008.8659	2823.4807	1954.75	1072.15
1008.9844	2824.645	2006.1	1124.6
1009.1029	2825.8086	2047.8	1167.3
1009.2214	2826.9716	2098.3	1218.5
1009.3398	2828.134	2153.7	1271.35
1009.4581	2829.2957	2190.65	1307.95
1009.5764	2830.4567	2219.25	1339.75
1009.6947	2831.617	2243.35	1361.15
1009.813	2832.7767	2250.45	1370.35
1009.9312	2833.9358	2239.05	1359.85
1010.0493	2835.0941	2239.9	1355.7
1010.1675	2836.2519	2234.7	1354.2
1010.2855	2837.4089	2215.2	1333.05
1010.4036	2838.5653	2197.15	1316
1010.5216	2839.7211	2195.3	1313.95
1010.6396	2840.8761	2184.95	1300.25
1010.7575	2842.0306	2195.45	1315.8
1010.8754	2843.1843	2202.1	1320.1
1010.9932	2844.3374	2233.9	1351.8
1011.111	2845.4899	2261.35	1379.25
1011.2288	2846.6417	2305.65	1424.55
1011.3465	2847.7928	2338.75	1458.05
1011.4642	2848.9433	2387.15	1509.05
1011.5818	2850.0931	2446.3	1565.15
1011.6995	2851.2422	2492.9	1611.9
1011.817	2852.3907	2547.85	1666.35
1011.9345	2853.5385	2598.6	1713.85
1012.052	2854.6857	2641.4	1735
1012.1695	2855.8323	2656.7	1774.35
1012.2869	2856.9781	2708.45	1828.9
1012.4042	2858.1233	2759.7	1874.45
1012.5216	2859.2679	2804.95	1923.9
1012.6389	2860.4118	2841.75	1963.3
1012.7561	2861.555	2886.6	2000.1
1012.8733	2862.6976	2920.35	2039.6
1012.9905	2863.8395	2948.8	2067.75
1013.1076	2864.9808	2976.45	2095.4
1013.2247	2866.1214	2990.25	2110.45
1013.3417	2867.2614	3010.45	2129.9
1013.4587	2868.4007	3031.55	2148.75
1013.5757	2869.5393	3036.5	2151.1
1013.6926	2870.6773	3050.2	2166.95
1013.8095	2871.8146	3064.25	2177.35
1013.9263	2872.9513	3061.25	2177.35
1014.0431	2874.0874	3052.85	2170.85
1014.1599	2875.2227	3039.1	2158.05
1014.2766	2876.3574	3029.95	2146.4
1014.3933	2877.4915	3004.2	2124.05
1014.51	2878.6249	2972.9	2092.4
1014.6266	2879.7577	2968.75	2086.5
1014.7431	2880.8898	2950	2057.4
1014.8596	2882.0212	2931.2	2050.05
1014.9761	2883.152	2925.75	2045.75
1015.0925	2884.2821	2905.1	2025.6
1015.2089	2885.4116	2901.1	2022.3
1015.3253	2886.5405	2916.65	2037.4
1015.4416	2887.6686	2920.4	2035.5
1015.5579	2888.7962	2920.65	2042.85
1015.6741	2889.923	2921.2	2042.5
1015.7903	2891.0493	2941.05	2060.6
1015.9065	2892.1748	2934.3	2055.1
1016.0226	2893.2997	2960.55	2078.3
1016.1387	2894.424	2965.95	2087.9
1016.2547	2895.5476	2983.05	2099.25
1016.3707	2896.6706	3002.5	2121.1
1016.4866	2897.7929	3008.7	2127.85
1016.6025	2898.9145	3036.8	2156.5
1016.7184	2900.0355	3065.3	2184.6
1016.8342	2901.1559	3086.1	2204.85
1016.95	2902.2756	3096.35	2210.4
1017.0658	2903.3946	3127.75	2247.4
1017.1815	2904.513	3147.05	2265.4
1017.2971	2905.6308	3174.2	2293.8
1017.4127	2906.7479	3179.25	2299.15
1017.5283	2907.8643	3207.25	2326.15
1017.6439	2908.9801	3219.2	2341.6
1017.7594	2910.0953	3236.25	2356.45
1017.8748	2911.2098	3228.2	2345.55
1017.9902	2912.3236	3215	2329.05
1018.1056	2913.4368	3216.6	2334.2
1018.2209	2914.5494	3184.35	2304
1018.3362	2915.6613	3170.2	2284.45
1018.4515	2916.7725	3160.35	2277.05
1018.5667	2917.8831	3124.8	2243.6
1018.6819	2918.9931	3109.8	2227.9
1018.797	2920.1024	3075.55	2195.75
1018.9121	2921.211	3045.15	2165.15
1019.0271	2922.319	3044.75	2164
1019.1421	2923.4264	3027.75	2149.3
1019.2571	2924.5331	3018.8	2140.55
1019.372	2925.6391	3015.9	2137.05
1019.4869	2926.7445	3028.05	2150.25
1019.6017	2927.8493	3022.6	2141.2
1019.7165	2928.9534	3023.1	2143.9
1019.8313	2930.0569	3039.15	2155.55
1019.946	2931.1597	3037.25	2155.7
1020.0606	2932.2619	3048.05	2167.65
1020.1753	2933.3634	3053.35	2173.65
1020.2899	2934.4643	3046.65	2160.85
1020.4044	2935.5645	3039.6	2152.9
1020.5189	2936.6641	3035.15	2150.75
1020.6334	2937.763	3002.85	2123.2
1020.7478	2938.8613	2968.5	2088.9
1020.8622	2939.959	2954.1	2069.4
1020.9765	2941.056	2886.15	2005.7
1021.0908	2942.1523	2838.7	1958.85
1021.2051	2943.248	2765.7	1886.9
1021.3193	2944.3431	2692.65	1811.7
1021.4334	2945.4375	2614.3	1734.6
1021.5476	2946.5313	2527.4	1647.95
1021.6617	2947.6244	2460.75	1582
1021.7757	2948.7169	2372.5	1493.25
1021.8897	2949.8087	2296.45	1414.75
1022.0037	2950.8999	2218.15	1338.35
1022.1176	2951.9904	2155.25	1275.65
1022.2315	2953.0803	2099.85	1219.1
1022.3453	2954.1696	2039.1	1159.75
1022.4591	2955.2582	2012.35	1132.7
1022.5728	2956.3462	1974.2	1096.15
1022.6865	2957.4335	1928.55	1048.4
1022.8002	2958.5202	1911.05	1030.15
1022.9138	2959.6062	1882.85	1004.35
1023.0274	2960.6916	1864.6	984.6
1023.141	2961.7764	1833.85	953.2
1023.2545	2962.8605	1829.7	948.1
1023.3679	2963.9439	1819.5	940.4
1023.4813	2965.0267	1805.45	925.2
1023.5947	2966.1089	1816.05	913.45
1023.708	2967.1905	1804.35	925.85
1023.8213	2968.2714	1798.45	922.1
1023.9346	2969.3516	1788.4	909.95
1024.0478	2970.4312	1810.65	924.95
1024.1609	2971.5102	1795.65	918.05
1024.274	2972.5885	1806.6	925.6
1024.3871	2973.6662	1814	931.1
1024.5002	2974.7432	1804.55	925.35
1024.6132	2975.8196	1809.05	930.45
1024.7261	2976.8954	1799.7	920.05
1024.839	2977.9705	1795.55	917.15
1024.9519	2979.045	1785.8	907.25
1025.0647	2980.1188	1779.35	900.7
1025.1775	2981.192	1762.95	884.85
1025.2902	2982.2645	1747.5	867.4
1025.4029	2983.3364	1732.4	853.9
1025.5156	2984.4077	1708.15	829.85
1025.6282	2985.4783	1694.6	808.05
1025.7407	2986.5483	1666.8	789.65
1025.8532	2987.6177	1631.25	750.85
1025.9657	2988.6864	1613.75	733.65
1026.0782	2989.7545	1584.45	703.1
1026.1906	2990.8219	1546.15	666.7
1026.3029	2991.8887	1524.6	643.15
1026.4152	2992.9548	1496.9	615.35
1026.5275	2994.0204	1468.25	590.05
1026.6397	2995.0852	1452.25	575.2
1026.7519	2996.1495	1423.85	543.6
1026.864	2997.2131	1399.6	520.6
1026.9761	2998.276	1386.6	508.55
1027.0882	2999.3383	1364.95	484.65
1027.2002	3000.4	1348.15	470
1027.3122	3001.4611	1332.4	452
1027.4241	3002.5215	1311	433.3
1027.536	3003.5812	1300	421.6
1027.6478	3004.6404	1289.35	411.15
1027.7596	3005.6989	1283.95	403.4
1027.8714	3006.7567	1275.75	397.25
1027.9831	3007.8139	1285.6	376.6
1028.0947	3008.8705	1247.25	368.2
1028.2064	3009.9264	1243	360.45
1028.3179	3010.9818	1237.95	359.8
1028.4295	3012.0364	1229.15	350
1028.541	3013.0905	1223.9	345.3
1028.6524	3014.1439	1227.75	347.5
1028.7638	3015.1966	1212.95	334.9
1028.8752	3016.2487	1209.1	329.5
1028.9865	3017.3002	1213.25	327.85
1029.0978	3018.3511	1204.95	327.2
1029.209	3019.4013	1204.35	325.3
1029.3202	3020.4509	1198.45	320
1029.4314	3021.4998	1201.6	322.1
1029.5425	3022.5481	1193.65	314.8
1029.6535	3023.5958	1194.5	316
1029.7645	3024.6428	1193.8	314.8
1029.8755	3025.6892	1190.55	313.7
1029.9864	3026.735	1195.85	316.15
1030.0973	3027.7802	1191.15	312.15
1030.2082	3028.8247	1189.5	311.45
1030.319	3029.8685	1186.65	309.15
1030.4297	3030.9118	1187.95	308.15
1030.5404	3031.9544	1191.05	313.95
1030.6511	3032.9963	1190.4	310.45
1030.7617	3034.0376	1191.7	313.65
1030.8723	3035.0783	1198.95	318.75
1030.9829	3036.1184	1200.4	319.05
1031.0934	3037.1578	1196.15	318.65
1031.2038	3038.1966	1203.2	324.6
1031.3142	3039.2348	1198.6	321.3
1031.4246	3040.2723	1208.75	321.2
1031.5349	3041.3092	1205.15	328.35
1031.6452	3042.3455	1205.15	325.5
1031.7554	3043.3811	1200.7	320.35
1031.8656	3044.4161	1194.75	314.3
1031.9758	3045.4505	1196.75	320.5
1032.0859	3046.4842	1196.2	316.25
1032.1959	3047.5173	1195.75	319.05
1032.3059	3048.5498	1190.65	312.25
1032.4159	3049.5816	1189.45	311.65
1032.5258	3050.6128	1187.6	309.6
1032.6357	3051.6434	1188.05	306.45
1032.7455	3052.6734	1182.45	302.6
1032.8553	3053.7027	1183.1	305.1
1032.9651	3054.7314	1185.5	305.55
1033.0748	3055.7594	1181.8	303.8
1033.1845	3056.7868	1176.65	296.05
1033.2941	3057.8136	1174.15	297.3
1033.4037	3058.8398	1179.05	300.25
1033.5132	3059.8653	1175.4	297.9
1033.6227	3060.8902	1171	292.95
1033.7321	3061.9145	1173.1	293.7
1033.8415	3062.9381	1172.75	294.15
1033.9509	3063.9612	1174.6	279.5
1034.0602	3064.9835	1165.65	287.8
1034.1694	3066.0053	1166	284.85
1034.2787	3067.0264	1158.6	280.65
1034.3878	3068.0469	1157.6	279.55
1034.497	3069.0668	1160.3	279.4
1034.6061	3070.086	1147.4	269.75
1034.7151	3071.1046	1147.95	269.3
1034.8241	3072.1226	1141.05	260.65
1034.9331	3073.1399	1130.15	252.25
1035.042	3074.1567	1130.9	252.7
1035.1508	3075.1727	1129.25	248.85
1035.2597	3076.1882	1123.9	244.55
1035.3684	3077.203	1113.8	236.6
1035.4772	3078.2173	1106.4	226.1
1035.5859	3079.2308	1108.15	227.05
1035.6945	3080.2438	1103.05	221.05
1035.8031	3081.2561	1096.15	217.35
1035.9117	3082.2678	1091.8	215.05
1036.0202	3083.2789	1082.7	202.45
1036.1286	3084.2893	1076.4	199.95
1036.2371	3085.2991	1080.1	200.55
1036.3454	3086.3083	1082.2	199.75
1036.4538	3087.3169	1069.9	189.75
1036.562	3088.3248	1072.4	194.15
1036.6703	3089.3321	1064.8	182.95
1036.7785	3090.3388	1058.9	180.05
1036.8866	3091.3449	1054.85	175.9
1036.9948	3092.3503	1055.35	176.85
1037.1028	3093.3551	1049.75	173.95
1037.2108	3094.3593	1046.4	170.65
1037.3188	3095.3629	1044.35	166.75
1037.4267	3096.3658	1044.8	165.65
1037.5346	3097.3681	1041.35	164.8
1037.6425	3098.3698	1041.85	161.25
1037.7503	3099.3708	1046.8	160.1
1037.858	3100.3713	1033.3	157.45
1037.9657	3101.3711	1031.1	152.95
1038.0734	3102.3702	1138.95	147.15
1038.181	3103.3688	1028.9	150.25
1038.2886	3104.3667	1022.95	147
1038.3961	3105.364	1023.3	144
1038.5036	3106.3607	1025.55	145.25
1038.611	3107.3568	1021.65	142.1
1038.7184	3108.3522	1016.3	137.55
1038.8257	3109.347	1017.5	137.55
1038.933	3110.3412	1016	133.75
1039.0403	3111.3348	1011.65	136.2
1039.1475	3112.3277	1012.3	134.95
1039.2547	3113.32	1009.1	131.9
1039.3618	3114.3117	1005.45	127.4
1039.4689	3115.3028	1008.4	133.4
1039.5759	3116.2932	1007.75	128.05
1039.6829	3117.2831	1009.5	125.5
1039.7898	3118.2723	1005.65	129.15
1039.8967	3119.2608	1001.5	122.55
1040.0035	3120.2488	998.65	122.1
1040.1103	3121.2361	996.45	118.7
1040.2171	3122.2229	997.75	120.55
1040.3238	3123.209	997.2	117.3
1040.4305	3124.1944	994	117.05
1040.5371	3125.1793	992.3	113
1040.6437	3126.1635	989.75	111.5
1040.7502	3127.1471	991.55	116.2
1040.8567	3128.1301	987.75	110.35
1040.9631	3129.1125	985.3	107.65
1041.0695	3130.0942	985.6	106.75
1041.1759	3131.0753	994.45	107.15
1041.2822	3132.0558	987.75	107.5
1041.3884	3133.0357	983.5	104.75
1041.4946	3134.015	985.35	107.5
1041.6008	3134.9936	984.05	104.15
1041.7069	3135.9716	1004.1	105.85
1041.813	3136.949	975	98.35
1041.919	3137.9258	998.3	102.85
1042.025	3138.902	986.6	103.4
1042.1309	3139.8775	977.5	100.75
1042.2368	3140.8524	976.75	98.2
1042.3427	3141.8267	978.75	99.15
1042.4485	3142.8004	973.65	95.05
1042.5542	3143.7735	980.95	96.95
1042.6599	3144.7459	976.2	96.35
1042.7656	3145.7178	972.75	93.45
1042.8712	3146.689	974.75	98.7
1042.9768	3147.6596	974.1	95
1043.0823	3148.6295	975.85	98.7
1043.1878	3149.5989	971.25	92.2
1043.2932	3150.5676	968.85	93
1043.3986	3151.5357	969.05	93.35
1043.5039	3152.5032	966.3	87.2
1043.6092	3153.4701	963.9	86.5
1043.7145	3154.4364	968.1	87.85
1043.8197	3155.402	965.95	91.3
1043.9248	3156.367	967.05	87.4
1044.03	3157.3315	1003.3	89.05
1044.135	3158.2952	966.4	89.95
1044.24	3159.2584	964.2	87.55
1044.345	3160.221	962.4	85.9
1044.4499	3161.1829	960.75	82.7
1044.5548	3162.1442	962.35	84.6
1044.6596	3163.105	960.4	82.75
1044.7644	3164.065	961.95	84.8
1044.8692	3165.0245	961.3	81.2
1044.9739	3165.9834	958.35	82.5
1045.0785	3166.9416	959.55	82.05
1045.1831	3167.8993	957.2	80.65
1045.2877	3168.8563	958.85	82
1045.3922	3169.8127	958.1	81.8
1045.4966	3170.7684	959.2	81.65
1045.6011	3171.7236	958.05	77.3
1045.7054	3172.6782	954.75	77.9
1045.8098	3173.6321	954.3	76.6
1045.914	3174.5854	961	80.6
1046.0183	3175.5381	956.55	80.9
1046.1224	3176.4902	952.55	74
1046.2266	3177.4417	951.85	76.3
1046.3307	3178.3926	954.15	78.35
1046.4347	3179.3428	951.5	73.5
1046.5387	3180.2924	952.6	75.4
1046.6427	3181.2415	950.9	73.15
1046.7466	3182.1899	952.7	72.4
1046.8504	3183.1377	950.55	71.55
1046.9542	3184.0848	951.65	70.6
1047.058	3185.0314	949.55	73.6
1047.1617	3185.9773	948.55	70.2
1047.2654	3186.9227	948.75	72.4
1047.369	3187.8674	946.35	69.85
1047.4726	3188.8115	950.3	69.3
1047.5761	3189.755	949.35	71.7
1047.6796	3190.6979	950.45	72.2
1047.783	3191.6402	946.85	70.55
1047.8864	3192.5818	944.7	68.4
1047.9898	3193.5229	950.75	66.15
1048.0931	3194.4633	942.75	64.2
1048.1963	3195.4031	943.9	67.9
1048.2995	3196.3423	944.1	67.15
1048.4027	3197.2809	943.75	65.35
1048.5058	3198.2189	941.5	65.6
1048.6089	3199.1563	963.25	69.35
1048.7119	3200.0931	941	68.25
1048.8148	3201.0292	940.25	64.4
1048.9178	3201.9648	938.05	60.75
1049.0206	3202.8997	942.9	62.45
1049.1235	3203.834	940.25	63.25
1049.2262	3204.7677	940.3	62.95
1049.329	3205.7008	944.45	66.25
1049.4317	3206.6333	938.95	64.05
1049.5343	3207.5652	940.55	61.55
1049.6369	3208.4964	939.6	61.1
1049.7394	3209.4271	940.25	64.3
1049.8419	3210.3571	938.65	62.8
1049.9444	3211.2865	937.7	58.9
1050.0468	3212.2154	938.7	58.15
1050.1491	3213.1436	939.95	59.95
1050.2514	3214.0712	941.85	58.7
1050.3537	3214.9982	936.3	61.25
1050.4559	3215.9246	937.5	60.95
1050.5581	3216.8503	935.1	59.9
1050.6602	3217.7755	936	58.85
1050.7623	3218.7001	934.85	59.35
1050.8643	3219.624	935.55	57.4
1050.9663	3220.5473	934.2	57.1
1051.0682	3221.4701	933.5	56.55
1051.1701	3222.3922	938	59.35
1051.2719	3223.3137	930.3	53.3
1051.3737	3224.2346	933.75	56.85
1051.4754	3225.1549	930.6	54.05
1051.5771	3226.0746	933.4	57.35
1051.6788	3226.9937	931.05	53
1051.7804	3227.9121	933.55	58.5
1051.8819	3228.83	928.35	51.4
1051.9834	3229.7473	932.75	55.9
1052.0849	3230.6639	928.35	51.35
1052.1863	3231.5799	929.25	52.9
1052.2876	3232.4954	928	50.8
1052.3889	3233.4102	928.95	52.6
1052.4902	3234.3244	931.9	55.45
1052.5914	3235.238	930.45	53.8
1052.6926	3236.151	951.35	51.45
1052.7937	3237.0634	926.6	53.15
1052.8948	3237.9752	926.7	52.1
1052.9958	3238.8864	927.75	49.15
1053.0968	3239.797	924.55	48.2
1053.1977	3240.7069	927.05	48.4
1053.2986	3241.6163	929.05	49.8
1053.3994	3242.5251	926.95	50.8
1053.5002	3243.4332	925.1	50.3
1053.6009	3244.3408	924.3	46.4
1053.7016	3245.2477	924.15	48.1
1053.8022	3246.154	924.95	47
1053.9028	3247.0598	925.65	48.35
1054.0034	3247.9649	923.35	47.9
1054.1039	3248.8694	922.55	46.05
1054.2043	3249.7733	923	43.45
1054.3047	3250.6766	922.35	44
1054.4051	3251.5793	921.6	43.9
1054.5054	3252.4814	919.65	42.25
1054.6056	3253.3829	919.9	43
1054.7058	3254.2838	923	46.95
1054.806	3255.1841	919.15	42.25
1054.9061	3256.0838	919.85	43.7
1055.0061	3256.9829	917.4	41.15
1055.1062	3257.8814	920.9	42.55
1055.2061	3258.7792	919.5	40.5
1055.306	3259.6765	919.5	41.3
1055.4059	3260.5731	919	43.85
1055.5057	3261.4692	919.45	41.45
1055.6055	3262.3647	917.3	39.95
1055.7052	3263.2595	916.65	39.4
1055.8049	3264.1538	912.6	38.1
1055.9045	3265.0474	913.95	37.9
1056.0041	3265.9404	916.25	40.6
1056.1036	3266.8329	914.65	39.15
1056.2031	3267.7247	919.45	35.6
1056.3025	3268.616	910.3	33.7
1056.4019	3269.5066	910.9	35.05
1056.5013	3270.3966	910.5	30.45
1056.6005	3271.286	906.65	32.2
