Software Version:	3.9.2.0
Unit SN:	10000200
Spectrometer SN:	6960
Date:	3/8/2024 1:42:16 PM
Data Line Index:	25
Spectral Points:	2048
Integration time (ms):	125
Averages:	20
Delay (ms):	30000
Sequence Number:	1
Processing:	dark subtract
Laser Power (mW):	305
Laser Current (mA):	822
Laser Diode Temp (C):	25
Laser Case Temp (C):	26.3
System Temp (C):	26.2
Spectrometer Temp (C):	24
CCD Temp (C):	0.007
Secondary Temp (C):	20.013
Heatsink Temp (C):	21.338
CCDPCB Temp (C):	36.285
SecondaryPCB Temp (C):	29.682

Wavelength	RamanShift	Raw Counts	Dark Subtracted
787.061	30.1047	464.65	54.1
787.2016	32.3739	462.85	57.55
787.3422	34.6426	469.45	61.6
787.4828	36.9109	476.8	68.3
787.6235	39.1787	488.6	74.5
787.7642	41.4461	496.75	78.5
787.9049	43.7131	506.4	85.3
788.0456	45.9796	514.7	92.05
788.1863	48.2456	524.95	97.95
788.3271	50.5112	535.2	103.4
788.4679	52.7764	545.3	110.5
788.6087	55.0411	557.4	117.95
788.7496	57.3054	568.55	123.1
788.8904	59.5692	574.6	127.95
789.0313	61.8326	589.5	141.55
789.1722	64.0955	602.2	149.05
789.3132	66.3579	618.4	159.6
789.4541	68.6199	644.05	181.3
789.5951	70.8815	681.65	215.3
789.7361	73.1426	763.9	294.9
789.8771	75.4032	982.7	510.85
790.0181	77.6634	1510.95	1031.55
790.1592	79.9231	2760.55	2273.7
790.3003	82.1824	5497.85	4993.7
790.4414	84.4412	10453.3	9916.55
790.5825	86.6995	17286.5	16710.85
790.7237	88.9574	23939	23334.5
790.8648	91.2148	28550.05	27922.2
791.006	93.4717	30741.1	30099.7
791.1472	95.7282	31192.5	30543.4
791.2885	97.9842	31154.15	30497.05
791.4297	100.2398	30631.35	29973
791.571	102.4949	30031.2	29374.25
791.7123	104.7495	29308	28641.65
791.8536	107.0036	28476.9	27816.8
791.9949	109.2573	27722.6	27058
792.1363	111.5105	27041.95	26377.05
792.2777	113.7632	26331.25	25662.15
792.4191	116.0154	25747.25	25065.7
792.5605	118.2672	25336	24663.05
792.7019	120.5185	24885.6	24210.05
792.8434	122.7693	24540.4	23865.5
792.9849	125.0197	24257.65	23579.2
793.1264	127.2696	24006.3	23323.6
793.2679	129.519	23871.3	23181.85
793.4094	131.7679	23646.75	22954.2
793.551	134.0163	23486.8	22787.8
793.6926	136.2642	23308.55	22610.55
793.8342	138.5117	23128.3	22430
793.9758	140.7587	22880.6	22178.15
794.1175	143.0052	22687.6	21979.45
794.2591	145.2512	22445.75	21741.65
794.4008	147.4967	22202.45	21496.2
794.5425	149.7417	22039.8	21332.45
794.6842	151.9863	21915.1	21205.25
794.826	154.2304	21885.25	21159.85
794.9677	156.4739	21742.25	21017.7
795.1095	158.717	21699.65	20979.2
795.2513	160.9596	21556.55	20830.25
795.3931	163.2017	21322.85	20594.3
795.535	165.4433	21046.5	20313.15
795.6768	167.6844	20721.5	19990.75
795.8187	169.925	20441.45	19706.1
795.9606	172.1651	20078.15	19339.45
796.1025	174.4047	19829.15	19090.15
796.2445	176.6439	19529.05	18787.5
796.3864	178.8825	19330.95	18587.3
796.5284	181.1206	19201.85	18451.35
796.6704	183.3582	19040.15	18288.85
796.8124	185.5954	18958.95	18203.75
796.9544	187.832	18915.55	18152.65
797.0965	190.0681	18872	18108.75
797.2386	192.3037	18884.3	18114.55
797.3806	194.5388	18869.35	18098.5
797.5228	196.7734	18938.35	18172.1
797.6649	199.0075	19061.15	18289.4
797.807	201.2411	19196.5	18424
797.9492	203.4742	19278.55	18500.95
798.0914	205.7068	19458.7	18679.65
798.2336	207.9389	19565.3	18783.5
798.3758	210.1704	19761.55	18984.7
798.518	212.4015	19849	19087.75
798.6603	214.632	20008.2	19252.95
798.8025	216.862	20230.4	19475.3
798.9448	219.0915	20408.4	19649.6
799.0871	221.3205	20607.4	19844.5
799.2294	223.549	20895.8	20135.35
799.3718	225.777	21158.05	20400.85
799.5141	228.0044	21510.35	20747.35
799.6565	230.2314	21961.7	21196.1
799.7989	232.4578	22360.25	21593.45
799.9413	234.6837	22766.55	21992.1
800.0837	236.909	22955.75	22177.65
800.2262	239.1339	22964.4	22160.2
800.3687	241.3582	22792.75	22002.85
800.5111	243.582	22501.75	21678.4
800.6536	245.8053	22201.75	21396.85
800.7961	248.0281	21914.4	21110.45
800.9387	250.2503	21712.75	20906.15
801.0812	252.472	21578.7	20772.85
801.2238	254.6932	21582.7	20778.6
801.3664	256.9139	21547.85	20737.65
801.509	259.134	21593.45	20779.5
801.6516	261.3536	21586.3	20772.85
801.7942	263.5727	21707.6	20894.5
801.9369	265.7912	21654.1	20842.8
802.0795	268.0092	21778	20964.9
802.2222	270.2267	21785.35	20976.1
802.3649	272.4436	21772.55	20962.95
802.5076	274.6601	21757.4	20936.55
802.6504	276.8759	21658.4	20838.45
802.7931	279.0913	21650.6	20834.8
802.9359	281.3061	21605.6	20784.55
803.0787	283.5204	21637.25	20807.7
803.2215	285.7341	21730.3	20907.65
803.3643	287.9473	21900.6	21062.45
803.5071	290.16	22120.95	21290.4
803.6499	292.3721	22379.45	21556.9
803.7928	294.5837	22819.05	21990.7
803.9357	296.7947	23138.5	22312.85
804.0786	299.0052	23373.1	22544.55
804.2215	301.2152	23254.7	22424.2
804.3644	303.4246	22950.6	22126.8
804.5074	305.6334	22421.65	21597.95
804.6503	307.8418	21930.05	21101.05
804.7933	310.0495	21568	20735.2
804.9363	312.2568	21245.05	20412.2
805.0793	314.4635	21024.7	20192.2
805.2223	316.6696	20890.65	20051.9
805.3653	318.8752	20837.4	19990
805.5084	321.0802	20885.15	20047.5
805.6514	323.2847	20996.55	20154.95
805.7945	325.4887	21032.25	20188.2
805.9376	327.692	21015.7	20173.05
806.0807	329.8949	20939.7	20092.35
806.2238	332.0972	20673.95	19828.1
806.367	334.2989	20438.95	19590.3
806.5101	336.5001	20159.6	19313.85
806.6533	338.7007	19976.45	19124.9
806.7965	340.9008	19918.2	19070.5
806.9397	343.1003	19789.2	18937.7
807.0829	345.2992	19737.8	18889.65
807.2261	347.4976	19717.05	18865.75
807.3693	349.6955	19676.65	18821.4
807.5126	351.8927	19794.8	18927.85
807.6559	354.0895	19780.45	18909.9
807.7991	356.2856	19847	18984.8
807.9424	358.4812	19825.35	18966.05
808.0857	360.6763	19873.5	19007.3
808.2291	362.8707	19851.5	18987.45
808.3724	365.0646	19904.05	19035.5
808.5158	367.258	19930.6	19062.45
808.6591	369.4508	19934.75	19066.15
808.8025	371.643	20068.45	19195.3
808.9459	373.8346	20056.55	19183.55
809.0893	376.0257	20087.4	19213.15
809.2327	378.2162	19990.75	19119
809.3762	380.4062	19936.3	19062.15
809.5196	382.5956	19791.75	18923.05
809.6631	384.7844	19732.05	18868.4
809.8066	386.9726	19632.3	18767.35
809.9501	389.1603	19548.15	18687.7
810.0936	391.3474	19537.15	18643.3
810.2371	393.5339	19505.7	18638.95
810.3806	395.7199	19478	18615.1
810.5241	397.9052	19505.05	18639.05
810.6677	400.09	19560.6	18697.4
810.8113	402.2743	19631.7	18768.05
810.9548	404.4579	19729.8	18861.65
811.0984	406.641	19922.7	19051.1
811.2421	408.8235	20103.55	19232.05
811.3857	411.0054	20424.65	19552.1
811.5293	413.1868	20879.65	20000.9
811.673	415.3675	21174.55	20292.45
811.8166	417.5477	21332.55	20448.8
811.9603	419.7273	21371.65	20493.85
812.104	421.9064	21299.4	20414.9
812.2477	424.0848	21210.05	20332.3
812.3914	426.2627	20964.35	20083.8
812.5351	428.4399	20672.75	19791.65
812.6788	430.6166	20349.4	19463.6
812.8226	432.7928	19989.2	19101.85
812.9663	434.9683	19741.65	18857.8
813.1101	437.1432	19531.9	18651.95
813.2539	439.3176	19331.05	18450.9
813.3977	441.4914	19196.15	18321.25
813.5415	443.6645	19214.45	18336.15
813.6853	445.8371	19153.4	18272
813.8291	448.0091	19071.75	18193.15
813.973	450.1806	19032.8	18152.4
814.1168	452.3514	18991.5	18116.45
814.2607	454.5216	19022.8	18132.6
814.4046	456.6913	18924.25	18041.95
814.5485	458.8603	18994.8	18113.3
814.6924	461.0288	19069.25	18195.8
814.8363	463.1967	19085.05	18210.25
814.9802	465.3639	19229.25	18350.05
815.1241	467.5306	19290.25	18411.15
815.2681	469.6967	19416.75	18545.6
815.412	471.8622	19563.95	18688.55
815.556	474.0271	19715.35	18836.85
815.7	476.1914	19773.1	18888.55
815.844	478.3551	19786.7	18903.85
815.988	480.5182	19796.1	18919.5
816.132	482.6807	19811.1	18938.75
816.276	484.8426	19951.75	19084.5
816.4201	487.0039	20259.1	19386.4
816.5641	489.1647	20681.9	19800.35
816.7082	491.3248	21085.8	20202.05
816.8522	493.4843	21269.15	20390.35
816.9963	495.6432	21276.15	20397.25
817.1404	497.8015	21183.1	20291.65
817.2845	499.9592	21224.25	20324.55
817.4286	502.1163	21117.85	20223.3
817.5727	504.2728	20938.65	20051.85
817.7168	506.4287	20640.7	19764.95
817.861	508.5839	20214.75	19338.7
818.0051	510.7386	19956.55	19076.15
818.1493	512.8927	19784.95	18894.15
818.2935	515.0461	19696.4	18804.3
818.4377	517.199	19632.85	18738.85
818.5818	519.3512	19686.4	18793.85
818.726	521.5029	19814.8	18917.55
818.8703	523.6539	19912.85	19021.9
819.0145	525.8043	19956.9	19060.7
819.1587	527.9541	19951.3	19049.5
819.303	530.1033	19947	19053.2
819.4472	532.2519	19962.1	19067.4
819.5915	534.3999	20048.05	19150.4
819.7357	536.5472	20341.75	19448.1
819.88	538.694	20773.6	19882.7
820.0243	540.8401	21325.65	20426.85
820.1686	542.9856	21770.3	20864.7
820.3129	545.1305	21973.3	21061.25
820.4572	547.2748	21869.35	20952.65
820.6016	549.4185	21524.1	20609.55
820.7459	551.5615	21227.8	20318.25
820.8902	553.704	21106.45	20196.45
821.0346	555.8458	21100.2	20197
821.1789	557.987	21128.1	20225.9
821.3233	560.1276	21125.3	20224.5
821.4677	562.2675	21222.25	20317.35
821.6121	564.4069	21327.6	20421.5
821.7565	566.5456	21355.1	20451.3
821.9009	568.6837	21326.4	20423.05
822.0453	570.8212	21006.25	20104.05
822.1897	572.958	20669.3	19768.6
822.3342	575.0942	20361	19460.65
822.4786	577.2299	20142.5	19247.2
822.6231	579.3648	20113.1	19227.9
822.7675	581.4992	20123.85	19247.9
822.912	583.6329	20333.15	19458.05
823.0565	585.766	20532.2	19650
823.201	587.8985	20674	19786.7
823.3454	590.0304	20687.35	19763.85
823.4899	592.1616	20647.55	19740.1
823.6345	594.2922	20551.65	19644.35
823.779	596.4222	20336	19423.8
823.9235	598.5515	20235.35	19327.15
824.068	600.6802	20068.9	19158.5
824.2126	602.8083	19870.55	18963.8
824.3571	604.9358	19881.85	18973.85
824.5017	607.0626	19769.25	18859.65
824.6462	609.1888	19778.8	18861.25
824.7908	611.3144	19813.5	18896.7
824.9354	613.4393	19717.1	18801.1
825.08	615.5636	19599.15	18679.6
825.2246	617.6873	19561.55	18646.65
825.3692	619.8103	19518.7	18599.55
825.5138	621.9327	19405.05	18491.55
825.6584	624.0544	19351.1	18440.1
825.803	626.1756	19327.25	18417.75
825.9477	628.2961	19249.85	18333.2
826.0923	630.4159	19209.65	18295.2
826.237	632.5351	19237.25	18319.8
826.3816	634.6537	19189.8	18275.85
826.5263	636.7716	19185.7	18266.2
826.6709	638.8889	19203.55	18281.1
826.8156	641.0056	19238.3	18316.75
826.9603	643.1216	19231.3	18312.15
827.105	645.237	19266.75	18345.35
827.2497	647.3518	19263.05	18351.75
827.3944	649.4659	19259.7	18353.35
827.5391	651.5793	19246.3	18340.95
827.6838	653.6922	19277.25	18370.3
827.8285	655.8043	19280.1	18369.6
827.9733	657.9159	19313.2	18402.05
828.118	660.0268	19181.4	18269.7
828.2627	662.137	19174.15	18256.55
828.4075	664.2466	19166.15	18243.95
828.5522	666.3556	19182.45	18259.75
828.697	668.4639	19117.05	18197.3
828.8418	670.5716	19187.45	18278.8
828.9865	672.6786	19283.25	18362.25
829.1313	674.785	19314.4	18388.95
829.2761	676.8907	19384.7	18469.05
829.4209	678.9958	19429.85	18518.6
829.5657	681.1002	19404.7	18487.85
829.7105	683.204	19410.45	18485.65
829.8553	685.3072	19378.9	18456.55
830.0001	687.4097	19344.05	18420.9
830.1449	689.5115	19316.9	18392.7
830.2898	691.6127	19274.35	18353.95
830.4346	693.7132	19215.85	18299.65
830.5794	695.8131	19232	18304.3
830.7243	697.9123	19212.6	18282.8
830.8691	700.0109	19162.9	18237.1
831.014	702.1089	19157.35	18230.55
831.1588	704.2061	19201.4	18277.85
831.3037	706.3028	19241.85	18314.65
831.4486	708.3987	19316.3	18390.9
831.5935	710.4941	19390.1	18468.7
831.7383	712.5887	19584.95	18661.5
831.8832	714.6827	19775.55	18848.95
832.0281	716.7761	20140.8	19221.1
832.173	718.8688	20517.25	19596.5
832.3179	720.9608	20704.85	19773.25
832.4628	723.0522	20814.65	19880.9
832.6077	725.1429	20625.65	19696.8
832.7527	727.233	20402.1	19475.55
832.8976	729.3224	20224.55	19296.35
833.0425	731.4112	19974.4	19047.25
833.1874	733.4993	19793.25	18865.25
833.3324	735.5867	19636.95	18709.95
833.4773	737.6735	19538.9	18609.95
833.6222	739.7596	19456.1	18525.65
833.7672	741.845	19398.2	18473.75
833.9122	743.9298	19377.7	18451.4
834.0571	746.014	19366.35	18435.05
834.2021	748.0974	19360.6	18424
834.347	750.1802	19391.6	18456
834.492	752.2624	19394.7	18461.9
834.637	754.3439	19426.2	18492.95
834.782	756.4247	19510.55	18568.85
834.9269	758.5048	19629.9	18696.4
835.0719	760.5843	19843.75	18909.75
835.2169	762.6631	20163.9	19231.55
835.3619	764.7413	20621.75	19689.8
835.5069	766.8188	21223.95	20288.05
835.6519	768.8956	21691.65	20756.95
835.7969	770.9718	22008.1	21077.15
835.9419	773.0473	21886.05	20950.6
836.0869	775.1221	21590.65	20659.05
836.232	777.1962	21251.85	20318.55
836.377	779.2697	21075.7	20139.1
836.522	781.3426	21142.55	20191.45
836.667	783.4147	21324.7	20388.85
836.8121	785.4862	21611.9	20679.7
836.9571	787.557	21634.35	20696.3
837.1021	789.6271	21290.8	20354.35
837.2472	791.6966	20716.8	19783.35
837.3922	793.7654	20207.35	19273.5
837.5373	795.8335	19874.6	18938.05
837.6823	797.901	19713.2	18778.85
837.8274	799.9678	19625.2	18687.9
837.9724	802.0339	19629.8	18693.85
838.1175	804.0993	19666.8	18717.25
838.2626	806.1641	19655.6	18715.35
838.4076	808.2282	19586.85	18650.4
838.5527	810.2916	19484.35	18545
838.6978	812.3544	19407.15	18472.95
838.8428	814.4164	19371.6	18433.25
838.9879	816.4778	19416.65	18473.85
839.133	818.5385	19401.2	18464.85
839.2781	820.5986	19490.25	18547.55
839.4232	822.658	19636.65	18695.95
839.5682	824.7166	19750.4	18811
839.7133	826.7747	20056.75	19119.85
839.8584	828.832	20259.85	19316.2
840.0035	830.8886	20386.3	19446.05
840.1486	832.9446	20559.6	19615.85
840.2937	834.9999	20593.15	19652.3
840.4388	837.0545	20549.35	19602.15
840.5839	839.1085	20497.15	19557.65
840.729	841.1618	20464.4	19517.65
840.8741	843.2143	20403.35	19463.95
841.0192	845.2662	20291.55	19349.35
841.1643	847.3175	20259.05	19319
841.3095	849.368	20156.4	19216.2
841.4546	851.4179	20038.45	19098
841.5997	853.467	19875.9	18937.7
841.7448	855.5155	19783.65	18840.35
841.8899	857.5633	19722.75	18777.65
842.0351	859.6105	19580.5	18639.25
842.1802	861.6569	19576.15	18633.75
842.3253	863.7027	19526.25	18580.7
842.4704	865.7478	19532.55	18588.85
842.6156	867.7922	19531.05	18591.2
842.7607	869.8359	19533.4	18590.5
842.9058	871.8789	19695.35	18751.9
843.0509	873.9212	19881.65	18903.95
843.1961	875.9629	19982.85	19037
843.3412	878.0039	20179	19235.25
843.4863	880.0441	20273.6	19332.5
843.6315	882.0837	20345.7	19402
843.7766	884.1226	20266.2	19321
843.9218	886.1609	20172.6	19231
844.0669	888.1984	20142.3	19199
844.212	890.2352	20178.85	19236.7
844.3572	892.2714	20121.55	19172.1
844.5023	894.3069	20118.25	19172.4
844.6475	896.3416	20052.85	19109
844.7926	898.3757	20024.2	19078.3
844.9377	900.4091	19998.15	19049.75
845.0829	902.4418	20050.9	19100.15
845.228	904.4739	20020	19070.85
845.3732	906.5052	20047.65	19098.7
845.5183	908.5358	19960	19015.8
845.6635	910.5658	19820.65	18871.3
845.8086	912.595	19666.2	18722.2
845.9538	914.6236	19474.45	18528.4
846.0989	916.6515	19438.1	18490.9
846.2441	918.6786	19414.4	18464.5
846.3892	920.7051	19507	18556.65
846.5344	922.7309	19610.4	18662.15
846.6795	924.756	19669.85	18725.05
846.8246	926.7804	19755.35	18804.7
846.9698	928.8041	19679.75	18733.65
847.1149	930.8272	19735.6	18787.75
847.2601	932.8495	19666.55	18716.35
847.4052	934.8711	19654.6	18706.4
847.5504	936.892	19506.15	18557.8
847.6955	938.9123	19380	18431.15
847.8407	940.9318	19264.8	18317.05
847.9858	942.9506	19148.8	18199.85
848.131	944.9688	19073.3	18128.9
848.2761	946.9862	19027.6	18082
848.4213	949.003	18915.45	17967.8
848.5664	951.019	18923.55	17975.1
848.7115	953.0344	18950.4	17999.5
848.8567	955.0491	18946.45	17999.45
849.0018	957.063	19067.05	18119.35
849.147	959.0763	19204.8	18256.8
849.2921	961.0888	19219.75	18277
849.4373	963.1007	19365	18420.4
849.5824	965.1119	19394.05	18458.95
849.7275	967.1223	19396.05	18465.65
849.8727	969.1321	19425.9	18496.05
850.0178	971.1412	19468.35	18533.15
850.1629	973.1495	19435.6	18492.9
850.3081	975.1572	19529.95	18534.15
850.4532	977.1641	19532.1	18583.85
850.5983	979.1704	19506.75	18560.65
850.7435	981.1759	19488.8	18538.4
850.8886	983.1808	19582.4	18632.95
851.0337	985.1849	19683.45	18725.9
851.1788	987.1884	19757.95	18808.5
851.324	989.1911	19935.95	18987.1
851.4691	991.1932	20045.6	19100.25
851.6142	993.1945	20087.45	19141.15
851.7593	995.1951	19993.75	19048
851.9045	997.1951	20021.7	19070.15
852.0496	999.1943	19929.4	18982.6
852.1947	1001.1928	19880.2	18933.85
852.3398	1003.1906	19855.85	18908
852.4849	1005.1877	19968.7	19018.05
852.63	1007.1841	19927.5	18982.45
852.7751	1009.1798	19881.35	18937.7
852.9202	1011.1748	19651.6	18705.75
853.0653	1013.1691	19471.5	18524.6
853.2104	1015.1627	19269.65	18323.7
853.3555	1017.1556	19041.3	18098.7
853.5006	1019.1477	18970.55	18031.25
853.6457	1021.1392	18832.4	17895.1
853.7908	1023.1299	18825.6	17890.75
853.9359	1025.12	18832.6	17901.35
854.081	1027.1093	18841.45	17925.35
854.2261	1029.0979	18937.05	18019.6
854.3712	1031.0859	18993.9	18072.25
854.5163	1033.0731	18998.7	18066.6
854.6613	1035.0596	18916.3	17979.05
854.8064	1037.0454	18800.85	17861.15
854.9515	1039.0304	18695.6	17755.05
855.0965	1041.0148	18554.9	17612.55
855.2416	1042.9985	18445.95	17501.35
855.3867	1044.9814	18429.75	17487.35
855.5317	1046.9636	18339.25	17398.05
855.6768	1048.9452	18311.55	17371.3
855.8219	1050.926	18358.9	17417.3
855.9669	1052.9061	18326.45	17378.3
856.112	1054.8855	18350.05	17404
856.257	1056.8642	18408.65	17462.05
856.4021	1058.8421	18466.05	17513.65
856.5471	1060.8194	18490.5	17544.4
856.6921	1062.7959	18499.85	17555.15
856.8372	1064.7717	18556.65	17609.3
856.9822	1066.7469	18567.3	17621.1
857.1272	1068.7213	18568.65	17621.55
857.2723	1070.695	18600.45	17658.55
857.4173	1072.6679	18512.95	17568.65
857.5623	1074.6402	18484.9	17538.45
857.7073	1076.6117	18482.45	17531.65
857.8523	1078.5826	18450	17504.45
857.9973	1080.5527	18464.6	17517.5
858.1423	1082.5221	18505.7	17560.65
858.2873	1084.4908	18677.7	17733.5
858.4323	1086.4587	18801.35	17856.25
858.5773	1088.426	18923.6	17980.05
858.7223	1090.3925	18885.05	17938.3
858.8673	1092.3584	18882.15	17941.75
859.0123	1094.3235	18749.45	17804.25
859.1573	1096.2879	18690.55	17748.3
859.3022	1098.2515	18718.35	17774.1
859.4472	1100.2145	18831.3	17886.25
859.5922	1102.1767	18901	17952.65
859.7371	1104.1382	19046.5	18102.5
859.8821	1106.099	19277.3	18333.2
860.027	1108.0591	19449.25	18504.4
860.172	1110.0185	19617	18672.85
860.3169	1111.9771	19682.15	18738.9
860.4619	1113.9351	19456.5	18514.15
860.6068	1115.8923	19140.85	18195.1
860.7517	1117.8488	18921.25	17972.2
860.8967	1119.8045	18598.7	17656.2
861.0416	1121.7596	18519.3	17578
861.1865	1123.7139	18430.55	17490.3
861.3314	1125.6675	18439.15	17497
861.4763	1127.6204	18527.7	17585
861.6212	1129.5726	18455.4	17509.95
861.7661	1131.524	18473.6	17534.7
861.911	1133.4748	18432.05	17486.05
862.0559	1135.4248	18351.4	17409.65
862.2008	1137.3741	18326	17383.95
862.3457	1139.3226	18267.25	17322.25
862.4905	1141.2705	18278.6	17335.55
862.6354	1143.2176	18141.3	17191.6
862.7803	1145.164	18114.8	17168.45
862.9251	1147.1097	18129.6	17183.95
863.07	1149.0546	18114.1	17167.35
863.2148	1150.9989	18032.95	17090.95
863.3597	1152.9424	17913.2	16969.85
863.5045	1154.8852	17768.2	16824.5
863.6493	1156.8272	17668.85	16727.9
863.7942	1158.7686	17677.55	16730.15
863.939	1160.7092	17624.1	16681.1
864.0838	1162.6491	17596.75	16652.6
864.2286	1164.5883	17659.4	16714.55
864.3734	1166.5267	17721.45	16775.75
864.5182	1168.4644	17905.6	16960.25
864.663	1170.4014	18047.95	17101
864.8078	1172.3377	18350.75	17409.5
864.9526	1174.2732	18527.9	17586.75
865.0974	1176.2081	18837	17894.4
865.2421	1178.1421	19079	18131.75
865.3869	1180.0755	19342.85	18403.95
865.5317	1182.0082	19450.05	18511.6
865.6764	1183.9401	19507.4	18569.1
865.8212	1185.8713	19371.7	18439.7
865.9659	1187.8017	19111.9	18183.75
866.1106	1189.7315	18836.25	17916.25
866.2554	1191.6605	18522.25	17603.75
866.4001	1193.5888	18308.4	17379.95
866.5448	1195.5163	18176.5	17244.2
866.6895	1197.4432	18112.55	17175.15
866.8342	1199.3693	18039.7	17102.25
866.9789	1201.2947	17992.65	17051.7
867.1236	1203.2193	17961.85	17021.7
867.2683	1205.1432	18023.4	17083.6
867.413	1207.0664	18029.75	17090.5
867.5576	1208.9889	18014.5	17072.45
867.7023	1210.9106	18031.25	17091.7
867.847	1212.8316	18040.55	17104
867.9916	1214.7519	18115.1	17164.9
868.1363	1216.6715	18071.25	17132.85
868.2809	1218.5903	18071.5	17130.8
868.4255	1220.5084	18066.2	17125.5
868.5701	1222.4257	18098.1	17160.45
868.7148	1224.3424	18037.1	17102.8
868.8594	1226.2583	18092.45	17148.15
869.004	1228.1735	18169.8	17230.05
869.1486	1230.0879	18240	17297.5
869.2932	1232.0016	18373.65	17435.5
869.4377	1233.9146	18381.45	17442.1
869.5823	1235.8269	18286.65	17350.2
869.7269	1237.7384	18201.3	17263.25
869.8715	1239.6492	18000.05	17060.55
870.016	1241.5592	17935.3	16996
870.1606	1243.4686	17842.5	16906.15
870.3051	1245.3772	17843.9	16905.4
870.4496	1247.285	17847.5	16908.15
870.5941	1249.1922	17789.55	16853.35
870.7387	1251.0986	17864.75	16930.55
870.8832	1253.0042	17810.3	16873.65
871.0277	1254.9092	17828	16890.3
871.1722	1256.8134	17936.4	17001.05
871.3167	1258.7169	18084.55	17147.8
871.4611	1260.6196	18210	17271.95
871.6056	1262.5216	18442.15	17504.85
871.7501	1264.4229	18565.45	17629.6
871.8945	1266.3234	18696.15	17757.7
872.039	1268.2232	18799.75	17860.9
872.1834	1270.1223	18816	17876.6
872.3278	1272.0207	18838.85	17898.65
872.4723	1273.9183	18775.6	17833.95
872.6167	1275.8151	18705.7	17773.75
872.7611	1277.7113	18641.85	17706.2
872.9055	1279.6067	18512.2	17577.65
873.0499	1281.5014	18490.9	17555.4
873.1943	1283.3953	18479.8	17541.55
873.3386	1285.2885	18531.25	17595.1
873.483	1287.181	18609.55	17675.35
873.6274	1289.0727	18777.85	17844.55
873.7717	1290.9637	18844.5	17907.65
873.9161	1292.854	18983.95	18047.75
874.0604	1294.7435	19094.65	18160.4
874.2047	1296.6323	19194.4	18259.05
874.349	1298.5204	19406.85	18467.9
874.4933	1300.4077	19564.7	18626.25
874.6376	1302.2943	19643.95	18707.45
874.7819	1304.1802	19648.7	18709.7
874.9262	1306.0653	19448.75	18511.75
875.0705	1307.9497	19252.35	18317.05
875.2147	1309.8333	19049.4	18115.85
875.359	1311.7162	18935.5	18000.6
875.5032	1313.5984	18915.15	17977.3
875.6475	1315.4798	18946.6	18007.4
875.7917	1317.3605	18955.15	18018.3
875.9359	1319.2405	19043.2	18106.1
876.0801	1321.1197	18925.2	17987.35
876.2243	1322.9982	18779.55	17839.15
876.3685	1324.876	18701.45	17766.55
876.5127	1326.753	18569.95	17637.25
876.6569	1328.6293	18529.8	17591.4
876.801	1330.5048	18522.15	17582.65
876.9452	1332.3796	18430.2	17494
877.0893	1334.2537	18421.35	17458.7
877.2335	1336.127	18354.4	17419.6
877.3776	1337.9996	18309.75	17376.1
877.5217	1339.8714	18266.5	17330.5
877.6658	1341.7426	18256	17274
877.8099	1343.6129	18212.8	17274.6
877.954	1345.4826	18144.45	17205.85
878.0981	1347.3515	18146.1	17209.7
878.2422	1349.2196	18110.6	17172.8
878.3862	1351.087	18139.85	17202.8
878.5303	1352.9537	18171.5	17235.15
878.6743	1354.8197	18274.6	17335.9
878.8184	1356.6849	18437.75	17498.5
878.9624	1358.5493	18501.7	17565.6
879.1064	1360.4131	18581.2	17645.35
879.2504	1362.276	18491.75	17558.6
879.3944	1364.1383	18375.4	17439.05
879.5384	1365.9998	18170.05	17228.25
879.6823	1367.8606	17826.95	16889.2
879.8263	1369.7206	17506.05	16567
879.9702	1371.5799	17240.75	16301.2
880.1142	1373.4384	17058.75	16122.8
880.2581	1375.2962	16883.6	15948.3
880.402	1377.1533	16605.7	15670.4
880.5459	1379.0096	16254.5	15323.5
880.6898	1380.8652	15955.9	15027.15
880.8337	1382.7201	15691.55	14760
880.9776	1384.5742	15441.7	14508.8
881.1215	1386.4275	15260	14323.25
881.2653	1388.2802	15107.15	14172.8
881.4092	1390.132	14990.35	14055.05
881.553	1391.9832	14937.7	14002.8
881.6968	1393.8336	14820.1	13883.85
881.8406	1395.6832	14771.9	13834.9
881.9844	1397.5322	14697.45	13763.4
882.1282	1399.3803	14661.45	13723.65
882.272	1401.2278	14607.05	13673.4
882.4158	1403.0745	14576.95	13644.8
882.5595	1404.9204	14550.8	13619.3
882.7033	1406.7656	14537.3	13602.05
882.847	1408.6101	14532.5	13600.45
882.9908	1410.4538	14547.55	13614.15
883.1345	1412.2968	14585.1	13649.4
883.2782	1414.139	14594.15	13660.5
883.4219	1415.9805	14644.9	13711.25
883.5656	1417.8213	14721.05	13783.85
883.7092	1419.6613	14813.6	13882.95
883.8529	1421.5006	14987.85	14054.25
883.9965	1423.3391	15184.4	14248.75
884.1402	1425.1769	15493	14564.2
884.2838	1427.0139	15986.7	15052.95
884.4274	1428.8502	16535.8	15602
884.571	1430.6858	17053.4	16120.45
884.7146	1432.5206	17406.35	16473.65
884.8582	1434.3547	17652.6	16721.55
885.0018	1436.188	17689.2	16758.55
885.1453	1438.0206	17607.8	16674.5
885.2889	1439.8524	17434.7	16499.7
885.4324	1441.6835	17347.3	16416.45
885.5759	1443.5139	17228.05	16294.75
885.7194	1445.3435	17138.4	16207.9
885.8629	1447.1724	17105.2	16175.6
886.0064	1449.0005	17033.15	16100.7
886.1499	1450.8279	16898.5	15969
886.2933	1452.6545	16873.15	15946.5
886.4368	1454.4804	16913.35	15986.65
886.5802	1456.3056	16874.7	15939.7
886.7237	1458.13	16767.15	15836.6
886.8671	1459.9536	16579.7	15648.65
887.0105	1461.7766	16240.25	15311.8
887.1539	1463.5987	15847.3	14911.7
887.2972	1465.4202	15481.4	14548
887.4406	1467.2409	15085.75	14157.65
887.584	1469.0608	14827.85	13899.9
887.7273	1470.88	14551.8	13621.9
887.8706	1472.6984	14320.4	13389.8
888.0139	1474.5161	14081.75	13149.95
888.1572	1476.3331	13923.75	12995.5
888.3005	1478.1493	13779.4	12850.5
888.4438	1479.9648	13695.35	12766.75
888.5871	1481.7795	13574.55	12641.4
888.7303	1483.5935	13522.25	12594.15
888.8736	1485.4067	13443.9	12514.15
889.0168	1487.2192	13377.2	12446.65
889.16	1489.031	13327.55	12397.9
889.3032	1490.842	13259.3	12327.55
889.4464	1492.6522	13210.85	12280.35
889.5896	1494.4618	13190.7	12261.2
889.7327	1496.2705	13137.85	12208.6
889.8759	1498.0785	13119.95	12189.75
890.019	1499.8858	13090.15	12159.95
890.1622	1501.6924	12992.85	12064.1
890.3053	1503.4981	12965.1	12032.6
890.4484	1505.3032	12920.5	11990.25
890.5914	1507.1075	12908.6	11979.4
890.7345	1508.911	12841.5	11912.85
890.8776	1510.7138	12820.15	11890
891.0206	1512.5159	12753.6	11826.9
891.1637	1514.3172	12679.5	11753.8
891.3067	1516.1178	12613.95	11688.4
891.4497	1517.9176	12612.7	11684.75
891.5927	1519.7166	12542.45	11613.65
891.7357	1521.515	12497.3	11564
891.8786	1523.3126	12475.2	11547.65
892.0216	1525.1094	12435.35	11507.95
892.1645	1526.9055	12397.45	11471.15
892.3074	1528.7008	12309.2	11384.3
892.4503	1530.4954	12275.95	11349.65
892.5932	1532.2893	12247.95	11325.7
892.7361	1534.0824	12204.9	11278.9
892.879	1535.8747	12198.2	11276.85
893.0218	1537.6663	12168.75	11246.7
893.1647	1539.4572	12135.15	11209.7
893.3075	1541.2473	12121.35	11193.1
893.4503	1543.0367	12060.6	11138.3
893.5931	1544.8253	12049.95	11121.6
893.7359	1546.6132	12042.35	11115.8
893.8787	1548.4003	12017.5	11085.65
894.0214	1550.1867	12049.8	11120.7
894.1642	1551.9723	12045.75	11119.85
894.3069	1553.7572	12089.15	11168.4
894.4496	1555.5414	12144.5	11225.35
894.5923	1557.3247	12196.4	11277.8
894.735	1559.1074	12261.45	11347.6
894.8777	1560.8893	12314.6	11399.7
895.0204	1562.6705	12357.65	11442.6
895.163	1564.4509	12407.55	11494.45
895.3056	1566.2305	12482.8	11569.45
895.4482	1568.0094	12536.7	11623.85
895.5908	1569.7876	12562.95	11648.5
895.7334	1571.565	12579.95	11662.45
895.876	1573.3417	12586.5	11667.65
896.0186	1575.1176	12536.2	11622.05
896.1611	1576.8928	12490.45	11579.5
896.3036	1578.6672	12401.8	11492.7
896.4461	1580.4409	12271.9	11366.8
896.5886	1582.2138	12204.6	11292
896.7311	1583.986	12113.5	11201.2
896.8736	1585.7575	12058.2	11144.3
897.0161	1587.5282	11980.1	11071.5
897.1585	1589.2981	11975	11068.3
897.3009	1591.0673	11934.95	11027.95
897.4433	1592.8358	11951.5	11043.75
897.5857	1594.6035	11970.8	11058.9
897.7281	1596.3704	11992.65	11080.25
897.8705	1598.1366	11979.85	11069.65
898.0128	1599.9021	12018.5	11110.8
898.1551	1601.6668	12072.5	11160.5
898.2975	1603.4308	12146.25	11235
898.4398	1605.194	12222.4	11310.35
898.5821	1606.9564	12362.7	11456
898.7243	1608.7182	12499.45	11597.2
898.8666	1610.4791	12654.35	11755.7
899.0088	1612.2394	12805.35	11907.6
899.1511	1613.9988	12959.4	12061.2
899.2933	1615.7576	13200.7	12298.6
899.4355	1617.5156	13412.1	12495
899.5776	1619.2728	13577.5	12663.35
899.7198	1621.0293	13679.1	12771.05
899.862	1622.785	13667.1	12757.1
900.0041	1624.54	13511	12605.8
900.1462	1626.2942	13342.25	12437.85
900.2883	1628.0477	13064.6	12157.65
900.4304	1629.8005	12846.8	11940.05
900.5725	1631.5525	12624.15	11721.8
900.7145	1633.3037	12410.95	11509.4
900.8566	1635.0542	12260.25	11361.6
900.9986	1636.804	12126.7	11223.05
901.1406	1638.553	12122.15	11148.85
901.2826	1640.3013	12023.85	11117
901.4245	1642.0488	11989.8	11083.35
901.5665	1643.7955	12005.05	11102.45
901.7085	1645.5416	12054.55	11151.85
901.8504	1647.2868	12140.55	11239.6
901.9923	1649.0313	12199.2	11294.65
902.1342	1650.7751	12344.15	11438.2
902.2761	1652.5181	12486.7	11585.25
902.4179	1654.2604	12683.15	11782.75
902.5598	1656.0019	12916.3	12015.05
902.7016	1657.7427	13205.8	12302.95
902.8434	1659.4828	13489.85	12583.1
902.9852	1661.222	13625.5	12719.7
903.127	1662.9606	13627.7	12723.05
903.2687	1664.6984	13407.8	12499.05
903.4105	1666.4354	13013.45	12104.8
903.5522	1668.1717	12482.9	11575.35
903.6939	1669.9072	11963.9	11057.55
903.8356	1671.642	11555.3	10647.85
903.9773	1673.3761	11168.45	10267
904.119	1675.1094	10857.6	9954.15
904.2606	1676.8419	10627.4	9721.75
904.4022	1678.5737	10434	9531.75
904.5439	1680.3048	10301.6	9396.7
904.6855	1682.0351	10156	9251
904.827	1683.7646	10042.1	9136.2
904.9686	1685.4934	9951.85	9048.8
905.1101	1687.2215	9866.95	8965.85
905.2517	1688.9488	9811.5	8909.6
905.3932	1690.6754	9700.1	8797.45
905.5347	1692.4012	9672.95	8768.3
905.6761	1694.1263	9634.5	8728.45
905.8176	1695.8506	9594.35	8690.05
905.9591	1697.5742	9575.7	8675.5
906.1005	1699.297	9496.95	8597.1
906.2419	1701.0191	9426	8527.65
906.3833	1702.7404	9384.2	8486.25
906.5246	1704.461	9332.05	8431.55
906.666	1706.1808	9303.1	8400.75
906.8073	1707.8999	9252.1	8354.05
906.9487	1709.6182	9211.6	8315.25
907.09	1711.3358	9187.25	8296.15
907.2313	1713.0527	9147.2	8252.95
907.3725	1714.7688	9098.45	8195.75
907.5138	1716.4841	9062.2	8162.2
907.655	1718.1987	9056.7	8153.1
907.7962	1719.9126	9013.35	8118.45
907.9374	1721.6257	8978.75	8082.05
908.0786	1723.338	8957.15	8063.1
908.2198	1725.0496	8898.45	8000.05
908.3609	1726.7605	8908.95	8008.45
908.502	1728.4706	8865.1	7967.8
908.6431	1730.18	8827	7929.45
908.7842	1731.8886	8777.6	7883.3
908.9253	1733.5964	8773.55	7857.35
909.0664	1735.3036	8745.8	7848.25
909.2074	1737.0099	8713.7	7818.8
909.3484	1738.7156	8682.35	7789.05
909.4894	1740.4204	8627.3	7728.4
909.6304	1742.1246	8610.15	7714.95
909.7714	1743.8279	8603.35	7709.65
909.9123	1745.5306	8587.45	7693.15
910.0532	1747.2325	8539.4	7647.15
910.1941	1748.9336	8499.25	7603.55
910.335	1750.634	8467.05	7571.5
910.4759	1752.3336	8450.3	7557.65
910.6168	1754.0325	8436.1	7544.2
910.7576	1755.7307	8405.3	7514.05
910.8984	1757.4281	8408.6	7514.2
911.0392	1759.1247	8380.9	7477.2
911.18	1760.8206	8381.15	7479.6
911.3208	1762.5158	8360.65	7458.65
911.4615	1764.2102	8299.2	7403.1
911.6022	1765.9039	8292.95	7398.4
911.7429	1767.5968	8265.6	7375.9
911.8836	1769.289	8250.25	7355.3
912.0243	1770.9804	8222.7	7325.9
912.1649	1772.6711	8215.45	7315.75
912.3056	1774.361	8165.35	7266.2
912.4462	1776.0502	8157.2	7260.45
912.5868	1777.7386	8157.65	7256.55
912.7274	1779.4263	8134.75	7240
912.8679	1781.1132	8106.7	7217.85
913.0084	1782.7994	8077.55	7187.25
913.149	1784.4849	8047.15	7156.35
913.2895	1786.1696	8053	7155.85
913.4299	1787.8535	8025.4	7135.1
913.5704	1789.5367	8012.4	7122
913.7108	1791.2192	7984.6	7094.3
913.8513	1792.9009	8001.85	7084.35
913.9917	1794.5818	7968.35	7071.25
914.132	1796.2621	7951.6	7055.45
914.2724	1797.9415	7924.95	7029.55
914.4128	1799.6202	7871.2	6976.45
914.5531	1801.2982	7858.75	6962.95
914.6934	1802.9755	7836.35	6940.3
914.8337	1804.6519	7831.2	6934.9
914.9739	1806.3277	7799.8	6906.7
915.1142	1808.0027	7775.9	6886.45
915.2544	1809.6769	7781.45	6893.05
915.3946	1811.3504	7735.9	6845.9
915.5348	1813.0231	7735.9	6845.85
915.675	1814.6951	7713.95	6822.75
915.8151	1816.3664	7723.75	6827.3
915.9553	1818.0369	7678.65	6783.8
916.0954	1819.7067	7680.05	6786
916.2355	1821.3757	7672.85	6774.4
916.3755	1823.044	7644.8	6751.95
916.5156	1824.7115	7619.95	6725.3
916.6556	1826.3783	7587	6692.35
916.7956	1828.0443	7558.35	6664.4
916.9356	1829.7096	7574.85	6679.6
917.0756	1831.3741	7541.35	6646.35
917.2155	1833.0379	7503.55	6613.4
917.3555	1834.701	7485.3	6595.05
917.4954	1836.3633	7488.6	6599.25
917.6353	1838.0248	7478.45	6586.5
917.7751	1839.6856	7450.5	6556.25
917.915	1841.3457	7464.35	6571.65
918.0548	1843.005	7438.85	6545.05
918.1946	1844.6636	7427.6	6534.45
918.3344	1846.3214	7404.2	6511.4
918.4742	1847.9785	7393.15	6501
918.6139	1849.6349	7366.55	6473.6
918.7537	1851.2904	7396.4	6492.75
918.8934	1852.9453	7356.65	6460.3
919.0331	1854.5994	7299.3	6402.95
919.1727	1856.2528	7324.35	6424.45
919.3124	1857.9054	7303.85	6408.9
919.452	1859.5572	7284.25	6392.75
919.5916	1861.2083	7261.25	6367.85
919.7312	1862.8587	7275.05	6382
919.8708	1864.5084	7249.6	6354.1
920.0103	1866.1572	7228.5	6331.9
920.1498	1867.8054	7186.55	6290.95
920.2893	1869.4528	7202.9	6308.4
920.4288	1871.0994	7158.35	6262.15
920.5683	1872.7453	7162.8	6268.15
920.7077	1874.3905	7163.15	6252.45
920.8471	1876.0349	7095.9	6202.9
920.9865	1877.6786	7093.15	6199.4
921.1259	1879.3215	7100.85	6206.65
921.2653	1880.9637	7084.65	6190.3
921.4046	1882.6051	7055.2	6163.15
921.5439	1884.2458	7039.9	6142.1
921.6832	1885.8858	7025.85	6133.65
921.8225	1887.525	7005	6110.5
921.9617	1889.1634	6971.15	6079.05
922.101	1890.8011	6961.75	6065.05
922.2402	1892.4381	6949	6055.5
922.3794	1894.0743	6951.45	6058.05
922.5185	1895.7098	6922.25	6031.05
922.6577	1897.3446	6898.35	6004.75
922.7968	1898.9786	6886	5987.4
922.9359	1900.6118	6852.65	5959
923.075	1902.2443	6843.7	5951.15
923.214	1903.8761	6827.45	5934.3
923.3531	1905.5071	6808.65	5915.15
923.4921	1907.1374	6793.9	5901.15
923.6311	1908.7669	6786	5893.75
923.77	1910.3957	6764.3	5875.85
923.909	1912.0237	6722.95	5831.3
924.0479	1913.651	6706.9	5813.1
924.1868	1915.2776	6706.25	5813.75
924.3257	1916.9034	6663.6	5771.65
924.4646	1918.5285	6647.7	5757.35
924.6034	1920.1528	6596.3	5703.25
924.7422	1921.7764	6597.8	5707.2
924.881	1923.3992	6582.95	5690.4
925.0198	1925.0213	6539.65	5646.1
925.1586	1926.6427	6511.65	5619.75
925.2973	1928.2633	6583.35	5604.2
925.436	1929.8832	6512.4	5621.45
925.5747	1931.5023	6476.4	5585.85
925.7134	1933.1207	6448.8	5555.75
925.852	1934.7383	6444.3	5552.5
925.9906	1936.3552	6412.65	5523.6
926.1292	1937.9714	6407.05	5514.85
926.2678	1939.5868	6369.65	5477.1
926.4064	1941.2015	6348	5455.7
926.5449	1942.8154	6333.55	5440.25
926.6834	1944.4286	6316.25	5423.65
926.8219	1946.041	6305.15	5388.15
926.9604	1947.6528	6255.9	5356.75
927.0988	1949.2637	6246.55	5356.6
927.2372	1950.8739	6235.85	5343.9
927.3756	1952.4834	6203.8	5312.5
927.514	1954.0921	6217.7	5327.65
927.6523	1955.7001	6179.1	5286.05
927.7907	1957.3074	6167.5	5279.15
927.929	1958.9139	6136.9	5250.55
928.0673	1960.5197	6123.5	5231.4
928.2055	1962.1247	6084.6	5193.3
928.3438	1963.729	6068.65	5183.45
928.482	1965.3325	6033.45	5139.4
928.6202	1966.9353	6024.9	5137.3
928.7584	1968.5374	6025.15	5137.65
928.8965	1970.1387	5989.05	5098
929.0346	1971.7393	5984.25	5095.45
929.1727	1973.3392	5953.4	5065.85
929.3108	1974.9383	5921.65	5034.85
929.4489	1976.5366	5911.25	5025.1
929.5869	1978.1342	5893.25	5006.25
929.7249	1979.7311	5890.4	5001.15
929.8629	1981.3273	5876.6	4989.85
930.0009	1982.9227	5857.9	4971.25
930.1388	1984.5173	5823.25	4938.75
930.2767	1986.1112	5819.1	4932.85
930.4146	1987.7044	5824.05	4939.6
930.5525	1989.2968	5775	4886.8
930.6904	1990.8885	5765.15	4875.85
930.8282	1992.4795	5770.65	4884.85
930.966	1994.0697	5745.05	4858.5
931.1038	1995.6592	5735.45	4853.45
931.2415	1997.2479	5711.95	4824.95
931.3793	1998.8359	5707.6	4825.7
931.517	2000.4232	5648.85	4767.85
931.6547	2002.0097	5656.9	4779.15
931.7923	2003.5955	5634	4752.85
931.93	2005.1805	5617.4	4733.45
932.0676	2006.7648	5619.2	4737.9
932.2052	2008.3484	5581.9	4701.15
932.3427	2009.9312	5613.7	4730.6
932.4803	2011.5133	5568.2	4689.25
932.6178	2013.0946	5548.55	4666.9
932.7553	2014.6752	5530.9	4649.7
932.8928	2016.2551	5514.45	4632.5
933.0302	2017.8342	5506.3	4624.1
933.1676	2019.4126	5485.55	4604.55
933.305	2020.9902	5464.65	4584.45
933.4424	2022.5672	5474.1	4594.25
933.5798	2024.1433	5441	4556.15
933.7171	2025.7188	5445	4567.25
933.8544	2027.2935	5423.9	4541.75
933.9917	2028.8674	5395.35	4516.3
934.129	2030.4406	5385.4	4507
934.2662	2032.0131	5363.75	4486.5
934.4034	2033.5849	5342.85	4462
934.5406	2035.1559	5331.3	4451.35
934.6778	2036.7261	5348.35	4466.35
934.8149	2038.2957	5328.05	4445.75
934.952	2039.8645	5313.2	4431.05
935.0891	2041.4325	5315.85	4428.8
935.2262	2042.9998	5298.6	4417.3
935.3632	2044.5664	5273.4	4391.9
935.5002	2046.1323	5247.2	4366.85
935.6372	2047.6974	5242	4363.4
935.7742	2049.2617	5242.9	4364.5
935.9111	2050.8254	5267.25	4352.85
936.048	2052.3883	5206.5	4322.4
936.1849	2053.9504	5208.6	4322.5
936.3218	2055.5118	5194.35	4309.45
936.4586	2057.0725	5162.55	4276.95
936.5955	2058.6325	5163.95	4282.4
936.7323	2060.1917	5137.55	4258.5
936.869	2061.7502	5132.85	4248
937.0058	2063.3079	5124.6	4245.05
937.1425	2064.8649	5104	4220.9
937.2792	2066.4212	5097.05	4218.05
937.4159	2067.9767	5072.85	4191
937.5525	2069.5315	5065.85	4184.65
937.6891	2071.0856	5029.05	4146.1
937.8257	2072.6389	5003.85	4122.7
937.9623	2074.1915	5000.15	4122.15
938.0989	2075.7433	4977	4094.6
938.2354	2077.2945	4977.3	4094.65
938.3719	2078.8448	4952.95	4070
938.5084	2080.3945	4948.1	4063.7
938.6448	2081.9434	4954	4068.1
938.7812	2083.4916	4916.7	4031.45
938.9176	2085.039	4926.1	4036.75
939.054	2086.5857	4897.05	4005.55
939.1903	2088.1317	4896.3	4006.8
939.3267	2089.677	4877.55	3985.65
939.463	2091.2215	4868.9	3978.95
939.5992	2092.7652	4856.15	3963.75
939.7355	2094.3083	4863.4	3971.4
939.8717	2095.8506	4826.8	3940.2
940.0079	2097.3921	4841	3953.95
940.1441	2098.933	4813.5	3928.7
940.2802	2100.4731	4803.55	3916.65
940.4163	2102.0124	4801.2	3908
940.5524	2103.5511	4783	3894.1
940.6885	2105.089	4787.05	3898.6
940.8245	2106.6261	4765.5	3879.7
940.9606	2108.1626	4761.5	3876.4
941.0965	2109.6983	4764.4	3850
941.2325	2111.2332	4736.25	3847.15
941.3684	2112.7675	4728.4	3840.15
941.5044	2114.301	4717.15	3828.35
941.6403	2115.8337	4717.25	3828.7
941.7761	2117.3657	4688.65	3802.3
941.912	2118.897	4691.25	3802.8
942.0478	2120.4276	4671.05	3776.15
942.1835	2121.9575	4656.95	3766.7
942.3193	2123.4866	4671.45	3769.3
942.455	2125.0149	4635.55	3745.65
942.5907	2126.5426	4615.6	3731.25
942.7264	2128.0695	4600	3715.85
942.8621	2129.5956	4587.9	3709.2
942.9977	2131.1211	4593.5	3707.1
943.1333	2132.6458	4567.85	3681.4
943.2689	2134.1698	4573.65	3685.25
943.4044	2135.693	4567.55	3673.55
943.54	2137.2155	4555.75	3665.1
943.6755	2138.7373	4541.25	3654.75
943.8109	2140.2584	4517.55	3633.75
943.9464	2141.7787	4521.8	3632.55
944.0818	2143.2983	4489.45	3608.35
944.2172	2144.8171	4484.2	3605.1
944.3526	2146.3353	4494.35	3611.25
944.4879	2147.8527	4451.95	3568.05
944.6232	2149.3693	4452.85	3567.25
944.7585	2150.8853	4460.95	3571.85
944.8938	2152.4005	4425.5	3535.8
945.029	2153.9149	4441.35	3551.5
945.1642	2155.4287	4426.9	3537.4
945.2994	2156.9417	4402.75	3513.8
945.4346	2158.454	4401.1	3513.15
945.5697	2159.9655	4391.6	3507.1
945.7048	2161.4764	4383.2	3497.35
945.8399	2162.9865	4367.2	3482.65
945.9749	2164.4958	4349.6	3465.15
946.1099	2166.0045	4346.65	3458.4
946.2449	2167.5124	4329.45	3444
946.3799	2169.0195	4323.7	3437.35
946.5148	2170.526	4319.65	3431.65
946.6498	2172.0317	4317.8	3430.2
946.7846	2173.5367	4298.45	3410.9
946.9195	2175.0409	4293.2	3406.95
947.0543	2176.5445	4277.15	3390.55
947.1891	2178.0473	4271.15	3384
947.3239	2179.5494	4263.6	3371.75
947.4587	2181.0507	4247.2	3360.35
947.5934	2182.5513	4233.4	3348.1
947.7281	2184.0512	4226.7	3338.85
947.8628	2185.5504	4209.55	3322.35
947.9974	2187.0488	4189.2	3305.75
948.132	2188.5465	4174.2	3291.7
948.2666	2190.0435	4148.1	3262.1
948.4012	2191.5397	4151.65	3265.35
948.5357	2193.0353	4159.05	3269.8
948.6702	2194.5301	4132.9	3241.35
948.8047	2196.0241	4120	3227.1
948.9392	2197.5175	4117.9	3226.45
949.0736	2199.0101	4116.85	3220.85
949.208	2200.502	4094.55	3207.35
949.3424	2201.9931	4068.9	3182.8
949.4767	2203.4835	4054.4	3170.5
949.611	2204.9733	4052.1	3163.15
949.7453	2206.4622	4036.05	3152.2
949.8796	2207.9505	4037.7	3153.05
950.0138	2209.438	4019.3	3137.8
950.148	2210.9248	3998.2	3114
950.2822	2212.4109	3993.1	3108.45
950.4164	2213.8962	3985.1	3092.35
950.5505	2215.3809	3991.45	3098.65
950.6846	2216.8648	3975.55	3083.15
950.8186	2218.3479	3976.75	3080.65
950.9527	2219.8304	3960	3062.85
951.0867	2221.3121	3945.2	3050.3
951.2207	2222.7931	3924.7	3034.45
951.3546	2224.2733	3908.9	3018.2
951.4886	2225.7529	3904.8	3017.55
951.6225	2227.2317	3891.7	3003.45
951.7563	2228.7098	3892	3006.85
951.8902	2230.1872	3859	2975.1
952.024	2231.6638	3870.9	2987.65
952.1578	2233.1397	3836.65	2949.8
952.2916	2234.6149	3845.55	2960.4
952.4253	2236.0894	3833.7	2945.55
952.559	2237.5632	3841.2	2945.25
952.6927	2239.0362	3821.1	2933.85
952.8263	2240.5085	3803.55	2917.4
952.9599	2241.9801	3776.45	2889.9
953.0935	2243.4509	3779.8	2890.75
953.2271	2244.921	3772.65	2881.25
953.3606	2246.3904	3776.6	2880.65
953.4941	2247.8591	3751.9	2861.25
953.6276	2249.3271	3753.9	2864.65
953.7611	2250.7943	3721.75	2829.6
953.8945	2252.2608	3725.05	2836.45
954.0279	2253.7266	3716.25	2827.85
954.1612	2255.1917	3702.25	2813.05
954.2946	2256.656	3697.9	2809.45
954.4279	2258.1197	3690.3	2803.85
954.5612	2259.5826	3676.45	2789.35
954.6944	2261.0447	3664.8	2775.5
954.8276	2262.5062	3666.15	2776.1
954.9608	2263.9669	3649.8	2758.7
955.094	2265.4269	3636.75	2747.8
955.2271	2266.8862	3639.15	2750.9
955.3602	2268.3448	3635.45	2751.65
955.4933	2269.8026	3613.9	2727.7
955.6264	2271.2598	3601.85	2715.75
955.7594	2272.7162	3595.7	2710.25
955.8924	2274.1719	3595.9	2704.5
956.0253	2275.6268	3599.3	2708.65
956.1583	2277.0811	3589.95	2699.6
956.2912	2278.5346	3582.15	2696.25
956.4241	2279.9874	3568.75	2681.75
956.5569	2281.4395	3563.7	2678.35
956.6897	2282.8908	3551.55	2658.8
956.8225	2284.3414	3545.05	2655.95
956.9553	2285.7914	3544.5	2656.25
957.088	2287.2406	3529.15	2638.35
957.2207	2288.689	3533.1	2639.85
957.3534	2290.1368	3524.9	2630.45
957.486	2291.5838	3528.75	2631.65
957.6186	2293.0302	3505.9	2612.45
957.7512	2294.4758	3494	2600.4
957.8838	2295.9206	3473.55	2583.6
958.0163	2297.3648	3468.6	2582.2
958.1488	2298.8082	3465.35	2575.55
958.2813	2300.251	3460.65	2570.9
958.4137	2301.693	3460.4	2565.6
958.5461	2303.1343	3444.55	2551.5
958.6785	2304.5748	3425.8	2538.1
958.8108	2306.0147	3421.3	2533.15
958.9432	2307.4538	3416.75	2528.4
959.0754	2308.8922	3413.5	2530.85
959.2077	2310.3299	3421.35	2535.6
959.3399	2311.7669	3380.35	2494.4
959.4721	2313.2031	3372.9	2486.35
959.6043	2314.6387	3387.9	2498.85
959.7365	2316.0735	3375.8	2486.75
959.8686	2317.5076	3367.95	2478.15
960.0006	2318.941	3358.35	2467.35
960.1327	2320.3737	3340.5	2447.1
960.2647	2321.8056	3336.25	2443.35
960.3967	2323.2369	3333.65	2443.45
960.5287	2324.6674	3328.95	2438.5
960.6606	2326.0972	3315.9	2426
960.7925	2327.5263	3307.5	2418.8
960.9244	2328.9547	3295.5	2407.7
961.0562	2330.3823	3305.75	2411.55
961.1881	2331.8092	3296	2400.15
961.3198	2333.2355	3277.65	2384.55
961.4516	2334.661	3269.7	2377.9
961.5833	2336.0858	3277.95	2386.6
961.715	2337.5098	3260.65	2369.45
961.8467	2338.9332	3262	2373.35
961.9783	2340.3558	3255.9	2364.95
962.1099	2341.7778	3233.8	2344.1
962.2415	2343.199	3228	2339.1
962.373	2344.6195	3214.7	2325.25
962.5045	2346.0393	3209	2320.55
962.636	2347.4583	3200.3	2312.65
962.7675	2348.8767	3210.25	2321.05
962.8989	2350.2943	3209.15	2319.2
963.0303	2351.7113	3194.65	2300
963.1617	2353.1275	3188.9	2296.75
963.293	2354.543	3193.8	2291.4
963.4243	2355.9578	3174.1	2285.5
963.5556	2357.3718	3139.1	2254.6
963.6868	2358.7852	3147.75	2260.25
963.818	2360.1978	3131.7	2244.2
963.9492	2361.6098	3121.9	2235.05
964.0803	2363.021	3125.9	2232.35
964.2114	2364.4315	3122.8	2234.5
964.3425	2365.8413	3127.3	2237.55
964.4736	2367.2504	3111	2225
964.6046	2368.6587	3092.9	2205.25
964.7356	2370.0664	3093.2	2205.25
964.8666	2371.4733	3081.1	2193.45
964.9975	2372.8795	3066	2178.15
965.1284	2374.285	3054.9	2168.05
965.2593	2375.6899	3057.55	2173.1
965.3901	2377.0939	3027.25	2139.7
965.5209	2378.4973	3035.5	2150.6
965.6517	2379.9	3027.65	2142.65
965.7825	2381.3019	3027.35	2139.2
965.9132	2382.7032	3015.05	2131.15
966.0439	2384.1037	2996.2	2114
966.1745	2385.5035	3001.95	2118.15
966.3051	2386.9027	2992.8	2112
966.4357	2388.3011	2982.15	2094.25
966.5663	2389.6987	2976.3	2090.55
966.6968	2391.0957	2977.7	2094.05
966.8273	2392.492	2951.55	2068.15
966.9578	2393.8876	2946.2	2061.8
967.0882	2395.2824	2940.6	2055.5
967.2186	2396.6765	2927.4	2045.45
967.349	2398.07	2921.2	2036.1
967.4793	2399.4627	2921.2	2034.45
967.6097	2400.8547	2919.75	2036.8
967.7399	2402.246	2912.6	2020.05
967.8702	2403.6366	2900.8	2016.55
968.0004	2405.0265	2879.05	1994.6
968.1306	2406.4156	2889	1999.8
968.2607	2407.8041	2875.25	1988
968.3909	2409.1918	2864	1975.55
968.521	2410.5789	2854.05	1967.5
968.651	2411.9652	2856.95	1967.85
968.781	2413.3508	2846.25	1960.05
968.911	2414.7358	2822.65	1935.5
969.041	2416.12	2825.35	1941.5
969.1709	2417.5035	2834.6	1950.95
969.3008	2418.8863	2805.6	1919.2
969.4307	2420.2684	2823.65	1938.4
969.5606	2421.6497	2802.45	1917.45
969.6904	2423.0304	2781.75	1896.7
969.8201	2424.4104	2802.85	1918
969.9499	2425.7896	2782.2	1895.15
970.0796	2427.1682	2779.55	1895.15
970.2093	2428.546	2781.6	1897.75
970.3389	2429.9232	2771.6	1884.8
970.4685	2431.2996	2763.2	1878.4
970.5981	2432.6753	2760.05	1875.8
970.7277	2434.0503	2760.4	1872.85
970.8572	2435.4246	2731.3	1849.05
970.9867	2436.7982	2739.75	1851.4
971.1161	2438.1711	2732.45	1848.05
971.2456	2439.5433	2717.9	1831.4
971.375	2440.9148	2724.85	1834.9
971.5043	2442.2856	2695.95	1811.6
971.6336	2443.6557	2709.65	1821.1
971.7629	2445.025	2697.8	1809.15
971.8922	2446.3937	2688.55	1804.55
972.0214	2447.7617	2678.35	1791.05
972.1506	2449.1289	2685.9	1799.85
972.2798	2450.4955	2676.95	1788.7
972.4089	2451.8613	2675.85	1791.7
972.538	2453.2265	2648.3	1762.2
972.6671	2454.5909	2648.1	1760.1
972.7961	2455.9546	2649.05	1764.8
972.9251	2457.3177	2652	1766.75
973.0541	2458.68	2652.55	1765.7
973.1831	2460.0416	2652.3	1764.7
973.312	2461.4025	2635.7	1747.9
973.4408	2462.7627	2644.2	1746.85
973.5697	2464.1222	2618.75	1736.2
973.6985	2465.4811	2626.2	1743.85
973.8273	2466.8392	2626.25	1738.5
973.956	2468.1966	2619.6	1732.8
974.0847	2469.5533	2608.2	1719.8
974.2134	2470.9093	2602.4	1715.85
974.3421	2472.2645	2604.9	1717.8
974.4707	2473.6191	2603.9	1717.05
974.5993	2474.973	2593.8	1705.2
974.7278	2476.3262	2586.75	1698.9
974.8563	2477.6787	2575.05	1688.65
974.9848	2479.0305	2568.7	1683.9
975.1132	2480.3816	2562.8	1675.75
975.2417	2481.7319	2557.6	1670.2
975.37	2483.0816	2556.45	1670.65
975.4984	2484.4306	2553.75	1666.6
975.6267	2485.7789	2546.2	1661.35
975.755	2487.1264	2540.9	1654.7
975.8833	2488.4733	2523.4	1639.3
976.0115	2489.8195	2515.45	1623
976.1397	2491.165	2504.75	1615.75
976.2678	2492.5097	2515.7	1627.9
976.3959	2493.8538	2494.5	1610.45
976.524	2495.1972	2487.4	1599.9
976.6521	2496.5398	2487.6	1600.15
976.7801	2497.8818	2490.95	1602.6
976.9081	2499.2231	2478.35	1589.55
977.036	2500.5637	2467.05	1577.5
977.164	2501.9035	2458.25	1570.45
977.2918	2503.2427	2458.15	1565.75
977.4197	2504.5812	2439.5	1555.1
977.5475	2505.919	2464.55	1574.9
977.6753	2507.256	2455.1	1567.45
977.8031	2508.5924	2448.3	1564.05
977.9308	2509.9281	2437.55	1544.05
978.0585	2511.2631	2416.85	1530.35
978.1861	2512.5974	2417.45	1530.55
978.3137	2513.9309	2422.65	1537.05
978.4413	2515.2638	2443.15	1526.95
978.5689	2516.596	2408.55	1519.85
978.6964	2517.9275	2400.2	1510.6
978.8239	2519.2583	2393.85	1506.1
978.9513	2520.5884	2386.15	1499.8
979.0788	2521.9178	2381	1494.65
979.2062	2523.2465	2371.3	1485.4
979.3335	2524.5745	2366.05	1481.35
979.4608	2525.9018	2364.5	1476.2
979.5881	2527.2284	2372.4	1485.7
979.7154	2528.5543	2360.75	1474.55
979.8426	2529.8796	2359.5	1471.45
979.9698	2531.2041	2349.85	1463.8
980.0969	2532.5279	2348.5	1462
980.224	2533.851	2359.25	1473.2
980.3511	2535.1735	2342.1	1454.6
980.4781	2536.4952	2346.75	1458.75
980.6052	2537.8163	2332.75	1444.7
980.7321	2539.1366	2325.2	1436.2
980.8591	2540.4562	2330.5	1442.5
980.986	2541.7752	2327.5	1439.3
981.1129	2543.0935	2324.7	1436
981.2397	2544.411	2316.8	1428.8
981.3665	2545.7279	2307.6	1420.9
981.4933	2547.0441	2301.55	1411.85
981.62	2548.3596	2315.8	1424.2
981.7467	2549.6744	2309.8	1420.4
981.8734	2550.9885	2301.7	1412.6
982.0001	2552.3019	2290.15	1402.9
982.1267	2553.6146	2291.4	1405.2
982.2532	2554.9266	2285.1	1399.1
982.3798	2556.2379	2286.25	1396.35
982.5063	2557.5485	2277.75	1394.2
982.6327	2558.8585	2284.45	1390.8
982.7592	2560.1677	2272.8	1381.55
982.8856	2561.4762	2271.85	1384.9
983.0119	2562.7841	2264	1371.25
983.1383	2564.0913	2268.15	1383.1
983.2646	2565.3977	2262.25	1375.75
983.3908	2566.7035	2245.35	1359.6
983.517	2568.0086	2264.3	1374.4
983.6432	2569.313	2256.35	1366.05
983.7694	2570.6167	2256.7	1366.95
983.8955	2571.9197	2242.6	1354.3
984.0216	2573.222	2244.45	1354.35
984.1476	2574.5236	2245.7	1359.55
984.2737	2575.8246	2238.8	1347.25
984.3996	2577.1248	2234.15	1344.5
984.5256	2578.4244	2217.25	1331.9
984.6515	2579.7232	2221.5	1332.85
984.7774	2581.0214	2252.7	1338.9
984.9032	2582.3189	2229.95	1343.25
985.029	2583.6157	2223.5	1334.4
985.1548	2584.9118	2231.7	1343.4
985.2806	2586.2072	2213.8	1325.85
985.4063	2587.5019	2224.9	1339.8
985.5319	2588.7959	2216.05	1327.7
985.6576	2590.0893	2209.05	1319.9
985.7832	2591.3819	2210.4	1323.25
985.9087	2592.6739	2199.7	1310.8
986.0343	2593.9652	2210.95	1322.95
986.1597	2595.2557	2202.15	1315.4
986.2852	2596.5456	2203.05	1311.4
986.4106	2597.8348	2196.35	1310.1
986.536	2599.1234	2189.95	1302.1
986.6614	2600.4112	2199.05	1311.3
986.7867	2601.6983	2202.45	1313.25
986.912	2602.9848	2183.75	1297.7
987.0372	2604.2705	2185.95	1292.7
987.1624	2605.5556	2179.95	1291
987.2876	2606.84	2173.9	1287.25
987.4128	2608.1237	2172.9	1284.25
987.5379	2609.4067	2169.85	1281.95
987.6629	2610.689	2164.55	1269.8
987.788	2611.9707	2161.7	1271
987.913	2613.2516	2153.25	1261.3
988.0379	2614.5319	2142.25	1256.2
988.1629	2615.8115	2137.15	1248.7
988.2878	2617.0903	2120.35	1231.7
988.4126	2618.3685	2117.9	1228.2
988.5375	2619.6461	2115.4	1227.95
988.6622	2620.9229	2117.4	1229.1
988.787	2622.199	2115.6	1228.95
988.9117	2623.4745	2120.7	1233.8
989.0364	2624.7493	2107.55	1219.15
989.161	2626.0234	2114.7	1229.2
989.2857	2627.2968	2105.45	1218.8
989.4102	2628.5695	2100.3	1213.6
989.5348	2629.8415	2087.6	1200.25
989.6593	2631.1128	2092.85	1204.35
989.7837	2632.3835	2085.8	1200.35
989.9082	2633.6535	2086.9	1199.15
990.0326	2634.9228	2090.85	1203
990.1569	2636.1914	2072.9	1189
990.2812	2637.4593	2079.55	1190.25
990.4055	2638.7265	2078.15	1190
990.5298	2639.9931	2071.85	1183.3
990.654	2641.259	2065.5	1175.35
990.7782	2642.5242	2055.5	1167.6
990.9023	2643.7887	2063.5	1174.8
991.0264	2645.0525	2060.7	1173.25
991.1505	2646.3156	2046.7	1159.2
991.2745	2647.5781	2044.85	1157.7
991.3985	2648.8398	2034.55	1152.2
991.5225	2650.1009	2049.45	1153
991.6464	2651.3613	2038.15	1151.7
991.7703	2652.6211	2027.25	1140.3
991.8942	2653.8801	2017.8	1133
992.018	2655.1385	2015.8	1127.15
992.1418	2656.3961	2019.3	1129.95
992.2655	2657.6531	2024.55	1139.35
992.3892	2658.9094	2020.8	1133.85
992.5129	2660.1651	2006.9	1118.45
992.6366	2661.42	2016	1129.95
992.7602	2662.6743	2016.55	1129.1
992.8837	2663.9279	2011.05	1126.05
993.0073	2665.1808	2010.95	1124.45
993.1307	2666.433	2014.7	1123.7
993.2542	2667.6846	2009.6	1124.2
993.3776	2668.9354	2017	1127
993.501	2670.1856	2007.3	1121.4
993.6244	2671.4351	2005.45	1120
993.7477	2672.6839	2012.3	1124.45
993.8709	2673.9321	2016.5	1131
993.9942	2675.1795	2007.1	1118.15
994.1174	2676.4263	2005.1	1119.55
994.2405	2677.6724	2009.55	1126.3
994.3637	2678.9179	2010.65	1124.05
994.4868	2680.1626	2009.8	1125
994.6098	2681.4067	1999.2	1113.4
994.7328	2682.6501	2003.4	1114.4
994.8558	2683.8928	2001.05	1113.75
994.9788	2685.1348	1982.8	1096.8
995.1017	2686.3761	1984.25	1098.15
995.2245	2687.6168	1987.4	1103.05
995.3474	2688.8568	1977.35	1089.75
995.4702	2690.0961	1967.15	1085
995.5929	2691.3348	1970.9	1084.05
995.7156	2692.5727	1961.9	1076.5
995.8383	2693.81	1952.45	1065.6
995.961	2695.0466	1943.5	1057.2
996.0836	2696.2826	1961.35	1073.4
996.2062	2697.5178	1967	1060.75
996.3287	2698.7524	1945	1059.35
996.4512	2699.9863	1948.2	1061.6
996.5737	2701.2195	1939.95	1055.05
996.6961	2702.452	1954.7	1068.55
996.8185	2703.6839	1947.95	1060.45
996.9408	2704.9151	1943	1057.7
997.0631	2706.1456	1954.5	1070.5
997.1854	2707.3755	1951.5	1062.25
997.3077	2708.6046	1967.05	1080.25
997.4299	2709.8331	1957.9	1071.75
997.552	2711.0609	1965.05	1079.2
997.6742	2712.2881	1969.35	1082
997.7963	2713.5145	1986.65	1096.25
997.9183	2714.7403	1988.15	1103.35
998.0403	2715.9654	2000.3	1113.65
998.1623	2717.1899	2011.3	1111.95
998.2842	2718.4136	2006.6	1121.95
998.4062	2719.6367	2027.5	1139.55
998.528	2720.8591	2031.5	1138.65
998.6498	2722.0809	2036.45	1150.85
998.7716	2723.3019	2038.85	1149.5
998.8934	2724.5223	2046.3	1161.85
999.0151	2725.7421	2054.75	1167.2
999.1368	2726.9611	2054.05	1167.5
999.2584	2728.1795	2051.65	1162.25
999.38	2729.3972	2037.95	1151.75
999.5016	2730.6142	2035	1136.2
999.6231	2731.8306	2008.9	1120.95
999.7446	2733.0462	2001.45	1116.4
999.8661	2734.2612	1971.5	1081.85
999.9875	2735.4756	1962.35	1075.55
1000.1089	2736.6892	1936.55	1049.7
1000.2302	2737.9022	1923.35	1038
1000.3515	2739.1145	1914	1029.2
1000.4728	2740.3262	1900.5	1005.6
1000.594	2741.5372	1884.65	995.35
1000.7152	2742.7475	1861.05	975.45
1000.8363	2743.9571	1860.5	974.4
1000.9575	2745.1661	1845.7	954.6
1001.0785	2746.3744	1837.25	950.85
1001.1996	2747.582	1823.9	938.45
1001.3206	2748.7889	1823.2	937.35
1001.4415	2749.9952	1811.35	927.95
1001.5625	2751.2008	1799.5	913.6
1001.6833	2752.4057	1797.95	910.85
1001.8042	2753.61	1793.3	904.4
1001.925	2754.8136	1788.5	902.3
1002.0458	2756.0165	1783.4	897.55
1002.1665	2757.2188	1789.05	904.75
1002.2872	2758.4204	1779.15	895.45
1002.4078	2759.6213	1775.45	887
1002.5285	2760.8215	1781.8	893.4
1002.649	2762.0211	1770.15	882.7
1002.7696	2763.22	1767.45	879.75
1002.8901	2764.4182	1764.45	879.75
1003.0106	2765.6158	1766.1	881.55
1003.131	2766.8127	1757.25	871.55
1003.2514	2768.009	1755.4	869.95
1003.3717	2769.2045	1748.45	863.35
1003.492	2770.3994	1748.7	861.9
1003.6123	2771.5936	1747.45	861.45
1003.7325	2772.7872	1745.35	861.2
1003.8527	2773.9801	1735.7	849.8
1003.9729	2775.1723	1747.5	847.4
1004.093	2776.3639	1730.15	845.9
1004.2131	2777.5548	1731.35	842.7
1004.3331	2778.745	1729	841.8
1004.4531	2779.9346	1716.45	831.7
1004.5731	2781.1235	1735.9	848.05
1004.693	2782.3117	1730.75	848.95
1004.8129	2783.4992	1739	855.4
1004.9328	2784.6861	1736.9	852.75
1005.0526	2785.8723	1735.05	849
1005.1723	2787.0579	1738.55	854.35
1005.2921	2788.2428	1753.9	868.15
1005.4118	2789.427	1742.9	858.55
1005.5314	2790.6106	1755.75	871.25
1005.651	2791.7935	1763.35	880.25
1005.7706	2792.9757	1774.35	888.3
1005.8902	2794.1573	1776.4	888.65
1006.0097	2795.3382	1783.25	901.4
1006.1291	2796.5184	1794.55	910.85
1006.2485	2797.698	1815.7	929.8
1006.3679	2798.8769	1820.45	936.65
1006.4873	2800.0551	1829.9	946.6
1006.6066	2801.2327	1855.2	970.4
1006.7258	2802.4096	1873.6	990.35
1006.8451	2803.5859	1889.7	1006.95
1006.9642	2804.7615	1903.8	1018.6
1007.0834	2805.9364	1925.15	1043.7
1007.2025	2807.1106	1953.1	1068.25
1007.3216	2808.2842	1979.45	1095.7
1007.4406	2809.4572	2004.2	1121.35
1007.5596	2810.6294	2036.7	1150.2
1007.6785	2811.801	2075.9	1195.75
1007.7975	2812.972	2116	1233.45
1007.9163	2814.1423	2151.95	1268.55
1008.0352	2815.3119	2203.7	1318.95
1008.154	2816.4808	2244.15	1361.6
1008.2727	2817.6491	2284.9	1401.7
1008.3914	2818.8167	2353.2	1470.65
1008.5101	2819.9837	2397.3	1507.8
1008.6288	2821.15	2424.8	1541.8
1008.7474	2822.3157	2469.35	1586.9
1008.8659	2823.4807	2532.2	1648.95
1008.9844	2824.645	2565.6	1681.55
1009.1029	2825.8086	2619.2	1734.4
1009.2214	2826.9716	2663.75	1780.9
1009.3398	2828.134	2722.1	1836.85
1009.4581	2829.2957	2753	1869.15
1009.5764	2830.4567	2784.2	1903.3
1009.6947	2831.617	2811.8	1926.75
1009.813	2832.7767	2804.75	1921.9
1009.9312	2833.9358	2805.6	1923.85
1010.0493	2835.0941	2797.2	1911.85
1010.1675	2836.2519	2795.95	1913.85
1010.2855	2837.4089	2784.55	1898.5
1010.4036	2838.5653	2769	1886.05
1010.5216	2839.7211	2765	1883
1010.6396	2840.8761	2767.45	1883
1010.7575	2842.0306	2787.8	1908.55
1010.8754	2843.1843	2815.95	1934.55
1010.9932	2844.3374	2882	2000.7
1011.111	2845.4899	2909.4	2024.7
1011.2288	2846.6417	2988.8	2106.1
1011.3465	2847.7928	3050.9	2169.85
1011.4642	2848.9433	3124.75	2242.45
1011.5818	2850.0931	3204.65	2320.75
1011.6995	2851.2422	3274.35	2387.4
1011.817	2852.3907	3342.95	2456.8
1011.9345	2853.5385	3403.65	2518.7
1012.052	2854.6857	3477.45	2566
1012.1695	2855.8323	3500.25	2618.55
1012.2869	2856.9781	3541.75	2662.1
1012.4042	2858.1233	3598.25	2716.3
1012.5216	2859.2679	3631	2749.25
1012.6389	2860.4118	3693.7	2811.15
1012.7561	2861.555	3734.25	2848.8
1012.8733	2862.6976	3766.1	2881.9
1012.9905	2863.8395	3786.2	2900.35
1013.1076	2864.9808	3821.1	2939.65
1013.2247	2866.1214	3825.8	2943.7
1013.3417	2867.2614	3835.85	2955.15
1013.4587	2868.4007	3857.9	2974.6
1013.5757	2869.5393	3859.55	2975.95
1013.6926	2870.6773	3896.3	3009.65
1013.8095	2871.8146	3900.65	3013.7
1013.9263	2872.9513	3905.75	3019.9
1014.0431	2874.0874	3878.25	2995.8
1014.1599	2875.2227	3892.75	3009.1
1014.2766	2876.3574	3852.85	2969.4
1014.3933	2877.4915	3842.95	2959
1014.51	2878.6249	3822.85	2939.05
1014.6266	2879.7577	3798.2	2913.95
1014.7431	2880.8898	3776.05	2884.9
1014.8596	2882.0212	3759.2	2876.7
1014.9761	2883.152	3731.9	2849.05
1015.0925	2884.2821	3733.7	2854.1
1015.2089	2885.4116	3716.65	2835.9
1015.3253	2886.5405	3719.65	2837.2
1015.4416	2887.6686	3720.7	2834.85
1015.5579	2888.7962	3728.15	2847.5
1015.6741	2889.923	3734.65	2854.65
1015.7903	2891.0493	3749.4	2867.4
1015.9065	2892.1748	3749.8	2867.5
1016.0226	2893.2997	3767.95	2883.25
1016.1387	2894.424	3764.25	2882.75
1016.2547	2895.5476	3791.85	2910.2
1016.3707	2896.6706	3815.5	2933.95
1016.4866	2897.7929	3836.05	2953.55
1016.6025	2898.9145	3871.85	2989.9
1016.7184	2900.0355	3900.85	3019
1016.8342	2901.1559	3919.75	3038
1016.95	2902.2756	3966.95	3087.3
1017.0658	2903.3946	3988.4	3106.8
1017.1815	2904.513	4015.35	3133.4
1017.2971	2905.6308	4029.15	3146.6
1017.4127	2906.7479	4056.25	3173.6
1017.5283	2907.8643	4078.5	3194.15
1017.6439	2908.9801	4102.05	3220.1
1017.7594	2910.0953	4108.7	3226.55
1017.8748	2911.2098	4119.35	3236.2
1017.9902	2912.3236	4098.6	3209.45
1018.1056	2913.4368	4084.4	3200.85
1018.2209	2914.5494	4069.45	3187.15
1018.3362	2915.6613	4040.7	3152.55
1018.4515	2916.7725	4009.8	3124.75
1018.5667	2917.8831	3975.8	3095.15
1018.6819	2918.9931	3943.85	3060.7
1018.797	2920.1024	3927.4	3046.55
1018.9121	2921.211	3905.65	3025.25
1019.0271	2922.319	3906	3025.2
1019.1421	2923.4264	3869.7	2990.25
1019.2571	2924.5331	3857.85	2978.95
1019.372	2925.6391	3848.05	2967.55
1019.4869	2926.7445	3842.3	2961.65
1019.6017	2927.8493	3840.25	2960.6
1019.7165	2928.9534	3822.4	2940.95
1019.8313	2930.0569	3811.35	2929.1
1019.946	2931.1597	3815.95	2933.15
1020.0606	2932.2619	3799.3	2919
1020.1753	2933.3634	3805	2925.2
1020.2899	2934.4643	3800.35	2914.5
1020.4044	2935.5645	3798.75	2912.55
1020.5189	2936.6641	3735.3	2849.75
1020.6334	2937.763	3699.45	2820.3
1020.7478	2938.8613	3645.8	2763.3
1020.8622	2939.959	3599.65	2712.45
1020.9765	2941.056	3539.45	2659.2
1021.0908	2942.1523	3444.4	2562.6
1021.2051	2943.248	3369.95	2486.6
1021.3193	2944.3431	3279.95	2400
1021.4334	2945.4375	3178.75	2297.7
1021.5476	2946.5313	3079.9	2201.85
1021.6617	2947.6244	2977.3	2095.9
1021.7757	2948.7169	2873.15	1991
1021.8897	2949.8087	2769.6	1888.15
1022.0037	2950.8999	2679.3	1796.35
1022.1176	2951.9904	2616.85	1736.1
1022.2315	2953.0803	2535.05	1653.45
1022.3453	2954.1696	2475.1	1594.45
1022.4591	2955.2582	2419.65	1539.6
1022.5728	2956.3462	2365.55	1481.65
1022.6865	2957.4335	2322.45	1440.15
1022.8002	2958.5202	2298.15	1415
1022.9138	2959.6062	2260.05	1380.35
1023.0274	2960.6916	2234.05	1355.25
1023.141	2961.7764	2214	1332.9
1023.2545	2962.8605	2186.4	1305.5
1023.3679	2963.9439	2185	1303.8
1023.4813	2965.0267	2185.25	1302.05
1023.5947	2966.1089	2191.95	1286.2
1023.708	2967.1905	2163.2	1281.4
1023.8213	2968.2714	2151.65	1271.6
1023.9346	2969.3516	2149.6	1271
1024.0478	2970.4312	2160.95	1275.9
1024.1609	2971.5102	2162.6	1282.7
1024.274	2972.5885	2149.45	1271.8
1024.3871	2973.6662	2160.2	1274.2
1024.5002	2974.7432	2157.85	1277.5
1024.6132	2975.8196	2147.55	1266.7
1024.7261	2976.8954	2130.15	1252.55
1024.839	2977.9705	2119.5	1238.35
1024.9519	2979.045	2098.6	1219.4
1025.0647	2980.1188	2093.5	1214.6
1025.1775	2981.192	2081.45	1202.45
1025.2902	2982.2645	2060.35	1180.35
1025.4029	2983.3364	2032.75	1153.4
1025.5156	2984.4077	2005.3	1125.5
1025.6282	2985.4783	1972.95	1085.55
1025.7407	2986.5483	1930.75	1050.05
1025.8532	2987.6177	1902	1020.85
1025.9657	2988.6864	1874	993.75
1026.0782	2989.7545	1831.05	950.75
1026.1906	2990.8219	1804.75	925.05
1026.3029	2991.8887	1768.05	885.8
1026.4152	2992.9548	1735.4	854.45
1026.5275	2994.0204	1702.55	823.4
1026.6397	2995.0852	1671	790.3
1026.7519	2996.1495	1654.85	773.05
1026.864	2997.2131	1625.8	745.45
1026.9761	2998.276	1609.2	728.85
1027.0882	2999.3383	1589.15	709.05
1027.2002	3000.4	1572.85	690.85
1027.3122	3001.4611	1546.15	668.4
1027.4241	3002.5215	1538.85	658.45
1027.536	3003.5812	1516.9	636.85
1027.6478	3004.6404	1507.2	625.95
1027.7596	3005.6989	1497.85	615.8
1027.8714	3006.7567	1484.9	606.85
1027.9831	3007.8139	1507	594.25
1028.0947	3008.8705	1465.15	585.3
1028.2064	3009.9264	1470.35	586.05
1028.3179	3010.9818	1459.95	580.3
1028.4295	3012.0364	1447.45	569.85
1028.541	3013.0905	1436.75	556.25
1028.6524	3014.1439	1445.35	565.2
1028.7638	3015.1966	1439.5	560.7
1028.8752	3016.2487	1431	549.2
1028.9865	3017.3002	1432.45	548.35
1029.0978	3018.3511	1429.85	551.3
1029.209	3019.4013	1428.65	549.65
1029.3202	3020.4509	1424.3	545.75
1029.4314	3021.4998	1432.85	552.05
1029.5425	3022.5481	1424.65	546
1029.6535	3023.5958	1425.55	547
1029.7645	3024.6428	1431.5	551.95
1029.8755	3025.6892	1423.9	545.6
1029.9864	3026.735	1428	545.8
1030.0973	3027.7802	1424.2	546.65
1030.2082	3028.8247	1432.65	555.05
1030.319	3029.8685	1432.1	553.65
1030.4297	3030.9118	1428.35	547.1
1030.5404	3031.9544	1437.6	559.1
1030.6511	3032.9963	1437.65	558.1
1030.7617	3034.0376	1440.65	561.45
1030.8723	3035.0783	1442.1	559.3
1030.9829	3036.1184	1447.4	567.55
1031.0934	3037.1578	1446	567.8
1031.2038	3038.1966	1451.45	571.55
1031.3142	3039.2348	1441.6	564.85
1031.4246	3040.2723	1458.75	569.05
1031.5349	3041.3092	1447.75	571.5
1031.6452	3042.3455	1445.95	568.7
1031.7554	3043.3811	1442.35	563.75
1031.8656	3044.4161	1436.9	558.1
1031.9758	3045.4505	1435.35	556.55
1032.0859	3046.4842	1428.8	547.9
1032.1959	3047.5173	1429.05	549.2
1032.3059	3048.5498	1415	536.9
1032.4159	3049.5816	1414.7	536.05
1032.5258	3050.6128	1409.5	527.8
1032.6357	3051.6434	1405.4	526.75
1032.7455	3052.6734	1401.8	520.45
1032.8553	3053.7027	1386.85	508.4
1032.9651	3054.7314	1381.3	500.7
1033.0748	3055.7594	1372	494.9
1033.1845	3056.7868	1377.05	498.25
1033.2941	3057.8136	1365.7	488.45
1033.4037	3058.8398	1363.6	486
1033.5132	3059.8653	1355.65	476.75
1033.6227	3060.8902	1352.35	474.3
1033.7321	3061.9145	1348.9	471.7
1033.8415	3062.9381	1345.7	466.15
1033.9509	3063.9612	1354.75	459.65
1034.0602	3064.9835	1326.6	448.15
1034.1694	3066.0053	1323.85	443.15
1034.2787	3067.0264	1322.5	445.65
1034.3878	3068.0469	1314	435.4
1034.497	3069.0668	1313.95	431.65
1034.6061	3070.086	1305.9	427.25
1034.7151	3071.1046	1292.95	413.45
1034.8241	3072.1226	1285.7	406.3
1034.9331	3073.1399	1277	397.8
1035.042	3074.1567	1272.1	392.6
1035.1508	3075.1727	1264.65	385.75
1035.2597	3076.1882	1249.65	373.15
1035.3684	3077.203	1240.95	361.65
1035.4772	3078.2173	1233.4	352.05
1035.5859	3079.2308	1226.65	345.75
1035.6945	3080.2438	1220.4	339.5
1035.8031	3081.2561	1215.25	336.8
1035.9117	3082.2678	1206.1	327.3
1036.0202	3083.2789	1202.65	325
1036.1286	3084.2893	1192.8	314.15
1036.2371	3085.2991	1193.55	315.15
1036.3454	3086.3083	1182.8	301.9
1036.4538	3087.3169	1174.85	294.2
1036.562	3088.3248	1176.2	297.5
1036.6703	3089.3321	1169.4	289
1036.7785	3090.3388	1163.35	286
1036.8866	3091.3449	1155.3	276.65
1036.9948	3092.3503	1151.5	268.05
1037.1028	3093.3551	1148.95	272.95
1037.2108	3094.3593	1142.15	262.75
1037.3188	3095.3629	1144.05	266.8
1037.4267	3096.3658	1142.9	263.3
1037.5346	3097.3681	1134.15	258.15
1037.6425	3098.3698	1143.8	264.65
1037.7503	3099.3708	1135.65	253.15
1037.858	3100.3713	1127.1	248.05
1037.9657	3101.3711	1127.75	249.45
1038.0734	3102.3702	1256.2	237.25
1038.181	3103.3688	1125.05	244.2
1038.2886	3104.3667	1114.6	238.25
1038.3961	3105.364	1115.15	236.25
1038.5036	3106.3607	1112.6	232.75
1038.611	3107.3568	1111.55	231.6
1038.7184	3108.3522	1104.05	227
1038.8257	3109.347	1109.2	229.8
1038.933	3110.3412	1104.15	222
1039.0403	3111.3348	1101.4	224.1
1039.1475	3112.3277	1098.4	220.2
1039.2547	3113.32	1096.75	219.55
1039.3618	3114.3117	1096.8	218.4
1039.4689	3115.3028	1095.75	217.15
1039.5759	3116.2932	1091.2	213
1039.6829	3117.2831	1095.45	211.2
1039.7898	3118.2723	1091.9	215.2
1039.8967	3119.2608	1085.1	207.95
1040.0035	3120.2488	1084.15	205.2
1040.1103	3121.2361	1083.05	205
1040.2171	3122.2229	1082.5	206.7
1040.3238	3123.209	1084.15	206
1040.4305	3124.1944	1077.85	200
1040.5371	3125.1793	1078.15	197.9
1040.6437	3126.1635	1071.85	195.35
1040.7502	3127.1471	1071.85	194.15
1040.8567	3128.1301	1070.95	193.75
1040.9631	3129.1125	1072.1	194.65
1041.0695	3130.0942	1068.25	188.75
1041.1759	3131.0753	1079.1	192.55
1041.2822	3132.0558	1067.55	185.6
1041.3884	3133.0357	1064.45	185.95
1041.4946	3134.015	1061.35	182.85
1041.6008	3134.9936	1064.95	184.9
1041.7069	3135.9716	1084.5	187
1041.813	3136.949	1059.45	182.6
1041.919	3137.9258	1077.6	183.05
1042.025	3138.902	1060.5	176.9
1042.1309	3139.8775	1054.4	178.2
1042.2368	3140.8524	1052.85	176.15
1042.3427	3141.8267	1055.9	176.9
1042.4485	3142.8004	1053.8	177.6
1042.5542	3143.7735	1056.6	175.8
1042.6599	3144.7459	1047.75	169.7
1042.7656	3145.7178	1044.35	166.65
1042.8712	3146.689	1045.1	169.2
1042.9768	3147.6596	1047.8	167.35
1043.0823	3148.6295	1047.5	169
1043.1878	3149.5989	1043.05	166
1043.2932	3150.5676	1042.8	166.55
1043.3986	3151.5357	1037.55	162.15
1043.5039	3152.5032	1038.5	161.4
1043.6092	3153.4701	1036.65	159.25
1043.7145	3154.4364	1035.8	156.5
1043.8197	3155.402	1035.35	158.4
1043.9248	3156.367	1035.8	158.1
1044.03	3157.3315	1061.7	154.35
1044.135	3158.2952	1036.65	160.45
1044.24	3159.2584	1029.6	151.85
1044.345	3160.221	1030.05	151.25
1044.4499	3161.1829	1030.8	152.65
1044.5548	3162.1442	1024.2	145.9
1044.6596	3163.105	1025.9	149.9
1044.7644	3164.065	1025.5	145.7
1044.8692	3165.0245	1025.15	147.4
1044.9739	3165.9834	1024.7	147.65
1045.0785	3166.9416	1025.45	149
1045.1831	3167.8993	1020.5	143.35
1045.2877	3168.8563	1020.15	142.75
1045.3922	3169.8127	1019.6	141.35
1045.4966	3170.7684	1019.2	141.9
1045.6011	3171.7236	1020.85	142.5
1045.7054	3172.6782	1016.65	140.6
1045.8098	3173.6321	1016.5	139.35
1045.914	3174.5854	1019.45	139
1046.0183	3175.5381	1015	137.65
1046.1224	3176.4902	1015.4	138.15
1046.2266	3177.4417	1010.9	133.3
1046.3307	3178.3926	1008	130.2
1046.4347	3179.3428	1013.4	136.35
1046.5387	3180.2924	1010	135.95
1046.6427	3181.2415	1008.95	132.3
1046.7466	3182.1899	1006.5	129.55
1046.8504	3183.1377	1008.15	131.1
1046.9542	3184.0848	1011.05	129.8
1047.058	3185.0314	1007.8	131.1
1047.1617	3185.9773	1001.65	124.55
1047.2654	3186.9227	1007.95	131.85
1047.369	3187.8674	1003.55	124.2
1047.4726	3188.8115	1008.1	126.7
1047.5761	3189.755	1003.5	127.15
1047.6796	3190.6979	1000.55	123.5
1047.783	3191.6402	997.5	119.85
1047.8864	3192.5818	998.1	120.5
1047.9898	3193.5229	1015.95	120.7
1048.0931	3194.4633	999.3	123.55
1048.1963	3195.4031	1002.4	124.05
1048.2995	3196.3423	994.85	119.2
1048.4027	3197.2809	999.3	120.8
1048.5058	3198.2189	994.5	117.3
1048.6089	3199.1563	1000.35	117.6
1048.7119	3200.0931	996.6	119.65
1048.8148	3201.0292	992.35	114.1
1048.9178	3201.9648	990.25	113.1
1049.0206	3202.8997	997.45	118.25
1049.1235	3203.834	994.55	118.25
1049.2262	3204.7677	989.65	110.75
1049.329	3205.7008	990.15	111.4
1049.4317	3206.6333	987.15	112.15
1049.5343	3207.5652	991.15	111.7
1049.6369	3208.4964	988.85	112.3
1049.7394	3209.4271	985.7	109.6
1049.8419	3210.3571	985.6	106.95
1049.9444	3211.2865	987.1	107.9
1050.0468	3212.2154	989.2	112.55
1050.1491	3213.1436	988.9	109.4
1050.2514	3214.0712	991.45	109.15
1050.3537	3214.9982	982.4	105.05
1050.4559	3215.9246	983.5	106.35
1050.5581	3216.8503	979.5	104.1
1050.6602	3217.7755	981.8	107.5
1050.7623	3218.7001	982.2	104.4
1050.8643	3219.624	981.75	103.5
1050.9663	3220.5473	980.25	106.45
1051.0682	3221.4701	979.45	103.65
1051.1701	3222.3922	983	106.15
1051.2719	3223.3137	976.15	100.8
1051.3737	3224.2346	978.65	103.1
1051.4754	3225.1549	976.7	100.1
1051.5771	3226.0746	974.6	98.2
1051.6788	3226.9937	975.65	97.75
1051.7804	3227.9121	972.35	97.35
1051.8819	3228.83	974.9	99.4
1051.9834	3229.7473	971.2	94
1052.0849	3230.6639	975	98.05
1052.1863	3231.5799	974.45	97.75
1052.2876	3232.4954	970.15	95.85
1052.3889	3233.4102	971.7	96.5
1052.4902	3234.3244	974.3	99.15
1052.5914	3235.238	972	96.85
1052.6926	3236.151	993.25	95.15
1052.7937	3237.0634	967.65	95
1052.8948	3237.9752	968	92.15
1052.9958	3238.8864	969.65	91.85
1053.0968	3239.797	968.5	93.6
1053.1977	3240.7069	966.55	91.2
1053.2986	3241.6163	966.7	87.35
1053.3994	3242.5251	966.7	93
1053.5002	3243.4332	964.35	91.1
1053.6009	3244.3408	964.45	86.6
1053.7016	3245.2477	964.4	89.05
1053.8022	3246.154	962.3	87.5
1053.9028	3247.0598	963.3	86.45
1054.0034	3247.9649	963.45	85.85
1054.1039	3248.8694	960.55	83.45
1054.2043	3249.7733	960.9	83
1054.3047	3250.6766	958.4	83.2
1054.4051	3251.5793	956.9	79.95
1054.5054	3252.4814	957.1	81.75
1054.6056	3253.3829	956.6	82.05
1054.7058	3254.2838	957.9	83.3
1054.806	3255.1841	956.05	81.7
1054.9061	3256.0838	957.85	81.45
1055.0061	3256.9829	953.85	79.95
1055.1062	3257.8814	955.9	78.95
1055.2061	3258.7792	953.25	75.05
1055.306	3259.6765	954.6	78.95
1055.4059	3260.5731	951.35	76.15
1055.5057	3261.4692	953	77.2
1055.6055	3262.3647	951.35	74.8
1055.7052	3263.2595	945.4	70
1055.8049	3264.1538	946.8	73.35
1055.9045	3265.0474	948.3	73
1056.0041	3265.9404	943.65	69.45
1056.1036	3266.8329	939.65	65.3
1056.2031	3267.7247	953.05	68.15
1056.3025	3268.616	939	64.65
1056.4019	3269.5066	937.65	60.3
1056.5013	3270.3966	936.65	58.9
1056.6005	3271.286	934.85	62.55
