Software Version:	3.9.2.0
Unit SN:	10000200
Spectrometer SN:	6960
Date:	3/8/2024 11:33:20 AM
Data Line Index:	25
Spectral Points:	2048
Integration time (ms):	125
Averages:	20
Delay (ms):	30000
Sequence Number:	1
Processing:	dark subtract
Laser Power (mW):	305
Laser Current (mA):	821
Laser Diode Temp (C):	25
Laser Case Temp (C):	25.1
System Temp (C):	25.1
Spectrometer Temp (C):	22.8
CCD Temp (C):	0.007
Secondary Temp (C):	20.01
Heatsink Temp (C):	19.818
CCDPCB Temp (C):	32.394
SecondaryPCB Temp (C):	26.947

Wavelength	RamanShift	Raw Counts	Dark Subtracted
787.061	30.1047	413.55	4.6
787.2016	32.3739	412.1	5.85
787.3422	34.6426	413	3
787.4828	36.9109	415.85	5.9
787.6235	39.1787	421.35	7.35
787.7642	41.4461	428.3	9.95
787.9049	43.7131	431.5	9.05
788.0456	45.9796	432.2	6.15
788.1863	48.2456	438.25	11.05
788.3271	50.5112	443.8	10.8
788.4679	52.7764	446.7	12.8
788.6087	55.0411	451.3	11.5
788.7496	57.3054	457.85	13.5
788.8904	59.5692	459.75	14.35
789.0313	61.8326	463.3	13.7
789.1722	64.0955	467.45	15.4
789.3132	66.3579	477.15	19.65
789.4541	68.6199	483.25	23.3
789.5951	70.8815	493.8	28.3
789.7361	73.1426	511.35	40.65
789.8771	75.4032	549.15	75.85
790.0181	77.6634	625.55	148.15
790.1592	79.9231	803.9	325.85
790.3003	82.1824	1183.4	698.6
790.4414	84.4412	1799.95	1302.4
790.5825	86.6995	2583.3	2075.35
790.7237	88.9574	3324.2	2803.2
790.8648	91.2148	3824.95	3298.4
791.006	93.4717	4032.9	3501.05
791.1472	95.7282	4064.7	3528.85
791.2885	97.9842	4054.7	3515.4
791.4297	100.2398	4001.45	3460.95
791.571	102.4949	3937.6	3394.95
791.7123	104.7495	3901.95	3356.45
791.8536	107.0036	3840.1	3289.95
791.9949	109.2573	3767.95	3222.85
792.1363	111.5105	3663.3	3115.35
792.2777	113.7632	3582.9	3030.4
792.4191	116.0154	3478.8	2917.4
792.5605	118.2672	3362.5	2806.8
792.7019	120.5185	3242.35	2686.05
792.8434	122.7693	3136.65	2572.7
792.9849	125.0197	3055.7	2489.65
793.1264	127.2696	2965.8	2398.75
793.2679	129.519	2930.3	2358.85
793.4094	131.7679	2899.15	2326.6
793.551	134.0163	2880.25	2305.45
793.6926	136.2642	2863.3	2283.25
793.8342	138.5117	2844.95	2262.55
793.9758	140.7587	2822.15	2240.9
794.1175	143.0052	2764.05	2176.3
794.2591	145.2512	2711.95	2124.8
794.4008	147.4967	2665.4	2077.7
794.5425	149.7417	2614.95	2022.9
794.6842	151.9863	2590.4	1993.9
794.826	154.2304	2582.55	1980.45
794.9677	156.4739	2572	1965.6
795.1095	158.717	2587.15	1982.25
795.2513	160.9596	2605.15	1995.4
795.3931	163.2017	2634.6	2022.5
795.535	165.4433	2656.65	2042.15
795.6768	167.6844	2651.55	2035.4
795.8187	169.925	2617.1	1997.05
795.9606	172.1651	2551.6	1926.6
796.1025	174.4047	2509.9	1883.6
796.2445	176.6439	2486.85	1857.6
796.3864	178.8825	2437.05	1806.45
796.5284	181.1206	2426.5	1788.5
796.6704	183.3582	2412.75	1774.05
796.8124	185.5954	2412.8	1770.55
796.9544	187.832	2412.75	1765.6
797.0965	190.0681	2405.55	1758.25
797.2386	192.3037	2420.8	1768.65
797.3806	194.5388	2430.2	1774.25
797.5228	196.7734	2430.3	1775.65
797.6649	199.0075	2450.95	1793.7
797.807	201.2411	2469.95	1812.8
797.9492	203.4742	2503.6	1843.55
798.0914	205.7068	2523.7	1858.3
798.2336	207.9389	2544.6	1877.45
798.3758	210.1704	2562.6	1901.75
798.518	212.4015	2553.3	1902.15
798.6603	214.632	2565.5	1922.4
798.8025	216.862	2561.4	1920.05
798.9448	219.0915	2573.75	1931.55
799.0871	221.3205	2581.3	1934.6
799.2294	223.549	2600.95	1958.95
799.3718	225.777	2596.75	1955.15
799.5141	228.0044	2580.25	1930.55
799.6565	230.2314	2586	1937.1
799.7989	232.4578	2561.1	1902.8
799.9413	234.6837	2559.25	1893.35
800.0837	236.909	2545.15	1878.35
800.2262	239.1339	2559.2	1868.55
800.3687	241.3582	2529.8	1854.15
800.5111	243.582	2558.1	1852.4
800.6536	245.8053	2553.25	1863.5
800.7961	248.0281	2542.45	1855.65
800.9387	250.2503	2571.7	1881.4
801.0812	252.472	2571.7	1876.8
801.2238	254.6932	2584.65	1890.85
801.3664	256.9139	2590.65	1897.65
801.509	259.134	2611.05	1909.95
801.6516	261.3536	2619.75	1921.15
801.7942	263.5727	2673	1974.85
801.9369	265.7912	2719	2020.15
802.0795	268.0092	2791.4	2092.7
802.2222	270.2267	2839.35	2140.65
802.3649	272.4436	2891.65	2189.05
802.5076	274.6601	2939.2	2226.5
802.6504	276.8759	2972.7	2264.95
802.7931	279.0913	2998.35	2291.45
802.9359	281.3061	2998.65	2288.45
803.0787	283.5204	3028.8	2317.45
803.2215	285.7341	3051.25	2335.55
803.3643	287.9473	3074.2	2358.2
803.5071	290.16	3083.3	2362.2
803.6499	292.3721	3038.85	2326.1
803.7928	294.5837	2998.85	2284.15
803.9357	296.7947	2962.95	2250.4
804.0786	299.0052	2943.15	2226.55
804.2215	301.2152	2926.5	2205.7
804.3644	303.4246	2911.65	2192.65
804.5074	305.6334	2888.5	2172.15
804.6503	307.8418	2875.65	2155.9
804.7933	310.0495	2855.3	2133.6
804.9363	312.2568	2813.65	2092
805.0793	314.4635	2766.4	2043.65
805.2223	316.6696	2713.95	1987
805.3653	318.8752	2668.9	1934.1
805.5084	321.0802	2647.35	1920.7
805.6514	323.2847	2634.35	1901.15
805.7945	325.4887	2627.3	1895.9
805.9376	327.692	2659	1925.75
806.0807	329.8949	2706.6	1973.95
806.2238	332.0972	2745.9	2010.7
806.367	334.2989	2779.45	2039
806.5101	336.5001	2777.45	2040.15
806.6533	338.7007	2743.4	2006.55
806.7965	340.9008	2689.7	1951
806.9397	343.1003	2627.75	1884.3
807.0829	345.2992	2573.7	1827.35
807.2261	347.4976	2531.85	1784
807.3693	349.6955	2502.65	1753.45
807.5126	351.8927	2485.25	1736.15
807.6559	354.0895	2465.35	1707
807.7991	356.2856	2458.65	1706.2
807.9424	358.4812	2439	1687.85
808.0857	360.6763	2437.2	1684.85
808.2291	362.8707	2433.15	1676.4
808.3724	365.0646	2439.5	1680.25
808.5158	367.258	2442.3	1680.35
808.6591	369.4508	2466.65	1703
808.8025	371.643	2493.75	1731
808.9459	373.8346	2518.35	1753.3
809.0893	376.0257	2564.25	1795.35
809.2327	378.2162	2594.7	1827.4
809.3762	380.4062	2601.15	1831.75
809.5196	382.5956	2577.65	1812.1
809.6631	384.7844	2536.6	1776.1
809.8066	386.9726	2487.5	1727.45
809.9501	389.1603	2454.7	1697.2
810.0936	391.3474	2466.8	1673.7
810.2371	393.5339	2438	1674.65
810.3806	395.7199	2447.1	1688.85
810.5241	397.9052	2473.1	1710.05
810.6677	400.09	2534.7	1772.9
810.8113	402.2743	2566.9	1803.45
810.9548	404.4579	2619.9	1855.25
811.0984	406.641	2656.85	1887.1
811.2421	408.8235	2709.9	1940.65
811.3857	411.0054	2760.15	1989.5
811.5293	413.1868	2812.9	2039
811.673	415.3675	2865.85	2089.6
811.8166	417.5477	2877	2100.15
811.9603	419.7273	2812.75	2034.85
812.104	421.9064	2734.1	1948.75
812.2477	424.0848	2666.85	1886.8
812.3914	426.2627	2577.9	1793.8
812.5351	428.4399	2520.6	1738.2
812.6788	430.6166	2473.25	1687.35
812.8226	432.7928	2414.7	1626.4
812.9663	434.9683	2364.35	1577.4
813.1101	437.1432	2345.3	1556.55
813.2539	439.3176	2316.2	1527.95
813.3977	441.4914	2303.7	1515.55
813.5415	443.6645	2301.4	1512.2
813.6853	445.8371	2299.6	1509.95
813.8291	448.0091	2308.35	1521.6
813.973	450.1806	2292.8	1502.3
814.1168	452.3514	2294.5	1502.3
814.2607	454.5216	2309.15	1508.05
814.4046	456.6913	2298.8	1504.45
814.5485	458.8603	2310.3	1517
814.6924	461.0288	2299.75	1509.2
814.8363	463.1967	2295.1	1504.3
814.9802	465.3639	2310.3	1515.8
815.1241	467.5306	2299.2	1506.45
815.2681	469.6967	2279.6	1487.05
815.412	471.8622	2272.45	1479.6
815.556	474.0271	2278.25	1483.65
815.7	476.1914	2274.25	1475
815.844	478.3551	2268.1	1469.1
815.988	480.5182	2279.1	1483
816.132	482.6807	2269.1	1469.8
816.276	484.8426	2296.4	1500.65
816.4201	487.0039	2341.55	1545.15
816.5641	489.1647	2408.7	1610
816.7082	491.3248	2449	1649.6
816.8522	493.4843	2474.05	1674.5
816.9963	495.6432	2454.25	1655.45
817.1404	497.8015	2428.45	1622.5
817.2845	499.9592	2379.45	1574.4
817.4286	502.1163	2316.1	1509.7
817.5727	504.2728	2271.45	1465
817.7168	506.4287	2243.15	1438.25
817.861	508.5839	2223.85	1419.7
818.0051	510.7386	2222	1416.9
818.1493	512.8927	2230.1	1418.4
818.2935	515.0461	2237.05	1428.75
818.4377	517.199	2256.15	1450.2
818.5818	519.3512	2296.3	1489.35
818.726	521.5029	2377.9	1563.65
818.8703	523.6539	2430.35	1619.75
819.0145	525.8043	2443.4	1632.55
819.1587	527.9541	2398.25	1584.85
819.303	530.1033	2311.5	1498.75
819.4472	532.2519	2252.05	1439.3
819.5915	534.3999	2244.3	1430.4
819.7357	536.5472	2219.8	1408.15
819.88	538.694	2216.3	1404.4
820.0243	540.8401	2245.35	1430.65
820.1686	542.9856	2271.6	1453.95
820.3129	545.1305	2283.4	1464.85
820.4572	547.2748	2290.7	1468.4
820.6016	549.4185	2296.15	1473.85
820.7459	551.5615	2298.75	1478.75
820.8902	553.704	2320.25	1499
821.0346	555.8458	2336.1	1516.35
821.1789	557.987	2361.35	1543.75
821.3233	560.1276	2400.8	1581.05
821.4677	562.2675	2452.65	1632.35
821.6121	564.4069	2528.15	1707.95
821.7565	566.5456	2578.7	1759.4
821.9009	568.6837	2558	1740
822.0453	570.8212	2474.85	1654.9
822.1897	572.958	2384.9	1564.3
822.3342	575.0942	2322.3	1504.2
822.4786	577.2299	2285.35	1466.75
822.6231	579.3648	2253.7	1436.45
822.7675	581.4992	2235	1418.75
822.912	583.6329	2245.2	1430.1
823.0565	585.766	2274.25	1457
823.201	587.8985	2329.15	1511
823.3454	590.0304	2386.65	1551.75
823.4899	592.1616	2411.9	1585.1
823.6345	594.2922	2410.8	1583.65
823.779	596.4222	2372.6	1544.95
823.9235	598.5515	2320.85	1493.5
824.068	600.6802	2251.9	1424.2
824.2126	602.8083	2198.95	1372.55
824.3571	604.9358	2182.6	1353.35
824.5017	607.0626	2184.8	1352
824.6462	609.1888	2197.45	1364.65
824.7908	611.3144	2217.75	1388.9
824.9354	613.4393	2267.3	1436.4
825.08	615.5636	2316.9	1487
825.2246	617.6873	2375.05	1544.6
825.3692	619.8103	2416.6	1582.7
825.5138	621.9327	2401.95	1566.05
825.6584	624.0544	2365.5	1534
825.803	626.1756	2292.45	1461.45
825.9477	628.2961	2234.9	1400.45
826.0923	630.4159	2213.9	1380.65
826.237	632.5351	2228.6	1393
826.3816	634.6537	2214.3	1379.45
826.5263	636.7716	2198.2	1362
826.6709	638.8889	2190.5	1351.8
826.8156	641.0056	2195.45	1357.55
826.9603	643.1216	2216.2	1378.05
827.105	645.237	2215.35	1374.5
827.2497	647.3518	2194.3	1359.85
827.3944	649.4659	2160.2	1326.4
827.5391	651.5793	2133.85	1296.7
827.6838	653.6922	2135.45	1299.5
827.8285	655.8043	2112.75	1274.25
827.9733	657.9159	2110.75	1270.75
828.118	660.0268	2085.7	1244.75
828.2627	662.137	2092.25	1253.7
828.4075	664.2466	2088.4	1248.05
828.5522	666.3556	2089.45	1246.45
828.697	668.4639	2074.4	1231.35
828.8418	670.5716	2074.15	1234.9
828.9865	672.6786	2067.85	1227.5
829.1313	674.785	2070.6	1227.3
829.2761	676.8907	2041.65	1199.95
829.4209	678.9958	2044.65	1204.35
829.5657	681.1002	2038.65	1196.15
829.7105	683.204	2046.15	1198.75
829.8553	685.3072	2052.3	1208.25
830.0001	687.4097	2058.3	1215.75
830.1449	689.5115	2049.7	1203.35
830.2898	691.6127	2031.45	1188.1
830.4346	693.7132	2039.15	1195.45
830.5794	695.8131	2052.35	1192.45
830.7243	697.9123	2057.5	1209.35
830.8691	700.0109	2051.85	1206
831.014	702.1089	2063.35	1218.25
831.1588	704.2061	2075.8	1227.55
831.3037	706.3028	2109.9	1258.75
831.4486	708.3987	2120.4	1271.7
831.5935	710.4941	2146.4	1298.35
831.7383	712.5887	2149.9	1302.65
831.8832	714.6827	2147.35	1291.5
832.0281	716.7761	2136.1	1289.95
832.173	718.8688	2128.65	1279.05
832.3179	720.9608	2137.65	1283.25
832.4628	723.0522	2157	1300.2
832.6077	725.1429	2178.2	1327.4
832.7527	727.233	2213.05	1359.05
832.8976	729.3224	2281.45	1431.55
833.0425	731.4112	2332.75	1480
833.1874	733.4993	2358.85	1502.95
833.3324	735.5867	2300.9	1448.2
833.4773	737.6735	2226.95	1370.75
833.6222	739.7596	2151.35	1297.6
833.7672	741.845	2129.65	1278.25
833.9122	743.9298	2120.45	1263.55
834.0571	746.014	2116.2	1262.15
834.2021	748.0974	2129.5	1276
834.347	750.1802	2130.4	1275.3
834.492	752.2624	2126.7	1272.75
834.637	754.3439	2117.55	1260.8
834.782	756.4247	2123.5	1260.45
834.9269	758.5048	2116.2	1259.6
835.0719	760.5843	2130	1272.5
835.2169	762.6631	2160.35	1303.65
835.3619	764.7413	2234.35	1379.3
835.5069	766.8188	2310.45	1452.2
835.6519	768.8956	2417.1	1558.75
835.7969	770.9718	2471.6	1615.4
835.9419	773.0473	2460.55	1602.65
836.0869	775.1221	2427.2	1569.5
836.232	777.1962	2416.8	1559.05
836.377	779.2697	2480.55	1620.7
836.522	781.3426	2593.35	1716.1
836.667	783.4147	2660.3	1800.25
836.8121	785.4862	2654.05	1797.15
836.9571	787.557	2553.5	1695.75
837.1021	789.6271	2397.7	1537
837.2472	791.6966	2266.7	1407.1
837.3922	793.7654	2159.95	1300.75
837.5373	795.8335	2106.7	1248.75
837.6823	797.901	2075.5	1216.35
837.8274	799.9678	2063.8	1202.9
837.9724	802.0339	2062.6	1204.3
838.1175	804.0993	2073.9	1203.6
838.2626	806.1641	2053.65	1191.45
838.4076	808.2282	2037.65	1178.25
838.5527	810.2916	2011.85	1148.05
838.6978	812.3544	1998.95	1139.1
838.8428	814.4164	1988.65	1129.7
838.9879	816.4778	2000.05	1136.2
839.133	818.5385	2009.35	1145.85
839.2781	820.5986	2040.9	1179.15
839.4232	822.658	2103.75	1239.35
839.5682	824.7166	2168.3	1307.9
839.7133	826.7747	2261.85	1400.2
839.8584	828.832	2355.35	1491.95
840.0035	830.8886	2423.75	1558.45
840.1486	832.9446	2460.35	1596.45
840.2937	834.9999	2406.1	1544.4
840.4388	837.0545	2337.45	1469.1
840.5839	839.1085	2238.1	1374.35
840.729	841.1618	2167.25	1297.6
840.8741	843.2143	2098.65	1231.4
841.0192	845.2662	2056.75	1190.2
841.1643	847.3175	2029.1	1166.15
841.3095	849.368	2026.55	1161.6
841.4546	851.4179	2028.85	1165.1
841.5997	853.467	2016.75	1150.55
841.7448	855.5155	2017.95	1150.3
841.8899	857.5633	2035.45	1169.5
842.0351	859.6105	2028.2	1162.2
842.1802	861.6569	2007.8	1139.5
842.3253	863.7027	2006.25	1138.9
842.4704	865.7478	1988.8	1120.05
842.6156	867.7922	1983.45	1117.45
842.7607	869.8359	1968.95	1103.35
842.9058	871.8789	1955.4	1085.8
843.0509	873.9212	1986.7	1089.5
843.1961	875.9629	1964.75	1095.1
843.3412	878.0039	1985.1	1114.6
843.4863	880.0441	1992.7	1123.75
843.6315	882.0837	2018.9	1149
843.7766	884.1226	2056.75	1186.25
843.9218	886.1609	2082.8	1215.5
844.0669	888.1984	2136.8	1266.5
844.212	890.2352	2197.55	1329.35
844.3572	892.2714	2185.45	1311.1
844.5023	894.3069	2165.6	1299.3
844.6475	896.3416	2115.15	1246.4
844.7926	898.3757	2069.9	1199.75
844.9377	900.4091	2037.3	1167.7
845.0829	902.4418	2041.1	1166.05
845.228	904.4739	2072.8	1200.95
845.3732	906.5052	2076.2	1203.7
845.5183	908.5358	2063.9	1195.45
845.6635	910.5658	2048.55	1176.25
845.8086	912.595	2023.4	1152.4
845.9538	914.6236	1972.4	1101.8
846.0989	916.6515	1937.65	1068.55
846.2441	918.6786	1926.15	1053.3
846.3892	920.7051	1908.75	1035.85
846.5344	922.7309	1905.7	1033.15
846.6795	924.756	1913	1039.7
846.8246	926.7804	1928.65	1054.45
846.9698	928.8041	1933.9	1060.7
847.1149	930.8272	1951.9	1079.45
847.2601	932.8495	1959.85	1085.1
847.4052	934.8711	1980.25	1106.95
847.5504	936.892	1979.45	1107.5
847.6955	938.9123	1992.2	1118
847.8407	940.9318	2023.1	1151.8
847.9858	942.9506	2040.2	1167.55
848.131	944.9688	2028.3	1158.4
848.2761	946.9862	2001.2	1129.3
848.4213	949.003	1976.8	1104.35
848.5664	951.019	1934.45	1060.65
848.7115	953.0344	1922.4	1046.15
848.8567	955.0491	1910.15	1036.35
849.0018	957.063	1894.35	1019.6
849.147	959.0763	1897.55	1023.85
849.2921	961.0888	1897.9	1021.7
849.4373	963.1007	1887.8	1011.95
849.5824	965.1119	1888.2	1016.35
849.7275	967.1223	1880.4	1007.8
849.8727	969.1321	1870.45	999.3
850.0178	971.1412	1877.75	1004.7
850.1629	973.1495	1864.5	988.45
850.3081	975.1572	1896.6	987.9
850.4532	977.1641	1876.85	999.6
850.5983	979.1704	1872.6	995.4
850.7435	981.1759	1859.2	980.2
850.8886	983.1808	1856.5	982.35
851.0337	985.1849	1849.8	963.1
851.1788	987.1884	1841.45	962.9
851.324	989.1911	1847.7	971.15
851.4691	991.1932	1856.05	976.5
851.6142	993.1945	1865.8	990.15
851.7593	995.1951	1858.45	980.25
851.9045	997.1951	1859.8	979.3
852.0496	999.1943	1841.8	965.85
852.1947	1001.1928	1855.2	977.45
852.3398	1003.1906	1856.65	979.55
852.4849	1005.1877	1894.45	1016.7
852.63	1007.1841	1921.7	1044.05
852.7751	1009.1798	1935.45	1058.95
852.9202	1011.1748	1919.6	1042.75
853.0653	1013.1691	1898.95	1022.35
853.2104	1015.1627	1862.2	984.45
853.3555	1017.1556	1828.8	953.3
853.5006	1019.1477	1811.35	932.05
853.6457	1021.1392	1789.6	915.5
853.7908	1023.1299	1779.1	904.55
853.9359	1025.12	1781.2	906.15
854.081	1027.1093	1784.6	915.5
854.2261	1029.0979	1810.2	939.75
854.3712	1031.0859	1826.65	953.15
854.5163	1033.0731	1847.2	970.7
854.6613	1035.0596	1840.2	965.5
854.8064	1037.0454	1834.15	959.15
854.9515	1039.0304	1821.5	942.7
855.0965	1041.0148	1798.7	922.8
855.2416	1042.9985	1774.55	894.3
855.3867	1044.9814	1776.4	900.8
855.5317	1046.9636	1765.6	884.3
855.6768	1048.9452	1769.75	893.45
855.8219	1050.926	1785.85	908.85
855.9669	1052.9061	1810.9	934.75
856.112	1054.8855	1809.9	930.85
856.257	1056.8642	1814.1	938.45
856.4021	1058.8421	1805.85	920.7
856.5471	1060.8194	1809.3	929.5
856.6921	1062.7959	1795.4	915.4
856.8372	1064.7717	1806.3	925.25
856.9822	1066.7469	1806.75	926.9
857.1272	1068.7213	1813.9	932.75
857.2723	1070.695	1822.2	945.2
857.4173	1072.6679	1838.15	960.55
857.5623	1074.6402	1873.25	994.7
857.7073	1076.6117	1879.85	995.9
857.8523	1078.5826	1854.35	974.5
857.9973	1080.5527	1822.7	940.6
858.1423	1082.5221	1771.35	890.75
858.2873	1084.4908	1757.85	876.5
858.4323	1086.4587	1729.7	848.75
858.5773	1088.426	1730.9	851.95
858.7223	1090.3925	1732.95	849.25
858.8673	1092.3584	1724.85	843.55
859.0123	1094.3235	1740.15	859.4
859.1573	1096.2879	1748.95	868.35
859.3022	1098.2515	1778.1	900
859.4472	1100.2145	1813.95	934.4
859.5922	1102.1767	1844.55	964.95
859.7371	1104.1382	1887.45	1007.2
859.8821	1106.099	1946.9	1063.1
860.027	1108.0591	1988.45	1109.65
860.172	1110.0185	2037	1152.5
860.3169	1111.9771	2095.05	1216.15
860.4619	1113.9351	2143.95	1262.65
860.6068	1115.8923	2200.4	1318.95
860.7517	1117.8488	2235.45	1351.7
860.8967	1119.8045	2178.65	1300.3
861.0416	1121.7596	2085.25	1203.85
861.1865	1123.7139	1968.75	1088
861.3314	1125.6675	1906.5	1026.55
861.4763	1127.6204	1906.35	1026.25
861.6212	1129.5726	1928.7	1045.45
861.7661	1131.524	1922.1	1042.2
861.911	1133.4748	1883.85	1002.4
862.0559	1135.4248	1821.3	938.55
862.2008	1137.3741	1769.9	890.9
862.3457	1139.3226	1744.55	862.9
862.4905	1141.2705	1743.6	863.25
862.6354	1143.2176	1756.8	868.6
862.7803	1145.164	1766	883.05
862.9251	1147.1097	1760.65	880
863.07	1149.0546	1732.2	846.3
863.2148	1150.9989	1708.25	825.65
863.3597	1152.9424	1682.2	800.5
863.5045	1154.8852	1680.1	797.4
863.6493	1156.8272	1666.4	785.1
863.7942	1158.7686	1672.05	783.1
863.939	1160.7092	1664.7	779.65
864.0838	1162.6491	1663.9	779.9
864.2286	1164.5883	1677.1	793.55
864.3734	1166.5267	1703.95	821.2
864.5182	1168.4644	1728.75	847.25
864.663	1170.4014	1757.85	873.15
864.8078	1172.3377	1809.9	928.15
864.9526	1174.2732	1853.25	972.3
865.0974	1176.2081	1954.5	1074.6
865.2421	1178.1421	2079.95	1193.5
865.3869	1180.0755	2219	1339.55
865.5317	1182.0082	2276.95	1393.85
865.6764	1183.9401	2265.65	1383.6
865.8212	1185.8713	2154.8	1277.25
865.9659	1187.8017	2012.35	1133.05
866.1106	1189.7315	1906.55	1028.95
866.2554	1191.6605	1842.15	936.65
866.4001	1193.5888	1766.75	886.7
866.5448	1195.5163	1734.4	854.95
866.6895	1197.4432	1719.5	833.95
866.8342	1199.3693	1697.85	814.75
866.9789	1201.2947	1680.5	795.95
867.1236	1203.2193	1668.6	786.7
867.2683	1205.1432	1675.1	792.5
867.413	1207.0664	1660.1	777.1
867.5576	1208.9889	1666.25	780.05
867.7023	1210.9106	1673.2	791.5
867.847	1212.8316	1679.8	798.45
867.9916	1214.7519	1689.25	798.25
868.1363	1216.6715	1689.45	806.65
868.2809	1218.5903	1707.95	828
868.4255	1220.5084	1734.4	853.5
868.5701	1222.4257	1737.7	855.15
868.7148	1224.3424	1753.75	871.3
868.8594	1226.2583	1773.95	886
869.004	1228.1735	1801.05	919.05
869.1486	1230.0879	1839.8	956.85
869.2932	1232.0016	1889.5	1007.55
869.4377	1233.9146	1931.05	1045.95
869.5823	1235.8269	1943.1	1060.35
869.7269	1237.7384	1964.8	1081.6
869.8715	1239.6492	1953.05	1069.3
870.016	1241.5592	1970.9	1085.65
870.1606	1243.4686	2015.25	1133.5
870.3051	1245.3772	2096.4	1214.45
870.4496	1247.285	2193.05	1308.8
870.5941	1249.1922	2269.75	1386.85
870.7387	1251.0986	2350.25	1468.25
870.8832	1253.0042	2423.75	1541.1
871.0277	1254.9092	2520.85	1638.45
871.1722	1256.8134	2609.8	1725.65
871.3167	1258.7169	2697.15	1810.85
871.4611	1260.6196	2751.25	1867.6
871.6056	1262.5216	2747	1864.85
871.7501	1264.4229	2734.65	1851.9
871.8945	1266.3234	2705.8	1818.25
872.039	1268.2232	2654.55	1770.55
872.1834	1270.1223	2597.45	1711.9
872.3278	1272.0207	2561.1	1677.3
872.4723	1273.9183	2533.05	1640.2
872.6167	1275.8151	2538.4	1654.15
872.7611	1277.7113	2565	1681
872.9055	1279.6067	2668.95	1783.2
873.0499	1281.5014	2819.6	1932.4
873.1943	1283.3953	2995.3	2110.05
873.3386	1285.2885	3211.45	2327.15
873.483	1287.181	3353.2	2466.85
873.6274	1289.0727	3413.55	2531.15
873.7717	1290.9637	3358.1	2471.9
873.9161	1292.854	3257.85	2375.2
874.0604	1294.7435	3148.75	2262.55
874.2047	1296.6323	3009.15	2126.3
874.349	1298.5204	2921.4	2033.25
874.4933	1300.4077	2831.75	1946.85
874.6376	1302.2943	2777.6	1892.95
874.7819	1304.1802	2738.85	1856.55
874.9262	1306.0653	2701.65	1814.85
875.0705	1307.9497	2663.85	1780.05
875.2147	1309.8333	2627.85	1741.8
875.359	1311.7162	2578.8	1696.5
875.5032	1313.5984	2561.25	1674
875.6475	1315.4798	2546.85	1652.1
875.7917	1317.3605	2528.5	1640.75
875.9359	1319.2405	2526.6	1639.25
876.0801	1321.1197	2501.9	1615.4
876.2243	1322.9982	2458.6	1568.6
876.3685	1324.876	2379.55	1495.3
876.5127	1326.753	2275.35	1388.15
876.6569	1328.6293	2184.65	1297.25
876.801	1330.5048	2096.85	1210.45
876.9452	1332.3796	2007.55	1122.65
877.0893	1334.2537	1977.35	1068.95
877.2335	1336.127	1903.3	1017.85
877.3776	1337.9996	1871.75	985.25
877.5217	1339.8714	1857.7	974.1
877.6658	1341.7426	1882.35	954.15
877.8099	1343.6129	1828.05	941.9
877.954	1345.4826	1806.25	921.5
878.0981	1347.3515	1794.7	905.2
878.2422	1349.2196	1779.15	893.3
878.3862	1351.087	1763.85	877.55
878.5303	1352.9537	1761.4	874.2
878.6743	1354.8197	1764.1	880.9
878.8184	1356.6849	1770.4	884.2
878.9624	1358.5493	1798.4	913.65
879.1064	1360.4131	1814.2	927.7
879.2504	1362.276	1853.8	968.1
879.3944	1364.1383	1892.35	1006.95
879.5384	1365.9998	1920.8	1028.95
879.6823	1367.8606	1896.7	1011.05
879.8263	1369.7206	1896.55	1011.55
879.9702	1371.5799	1884.65	997.75
880.1142	1373.4384	1883.8	999.3
880.2581	1375.2962	1848.9	962.65
880.402	1377.1533	1790.6	904.8
880.5459	1379.0096	1745.6	860.7
880.6898	1380.8652	1708.6	823.15
880.8337	1382.7201	1676.25	792.25
880.9776	1384.5742	1650.15	765.05
881.1215	1386.4275	1628.5	742.1
881.2653	1388.2802	1603	719.45
881.4092	1390.132	1591.65	705.1
881.553	1391.9832	1592.35	705.45
881.6968	1393.8336	1583.35	697.1
881.8406	1395.6832	1570.75	683.85
881.9844	1397.5322	1565.3	679.6
882.1282	1399.3803	1550.9	660.25
882.272	1401.2278	1539.9	653.25
882.4158	1403.0745	1532.3	646.95
882.5595	1404.9204	1526.05	641.35
882.7033	1406.7656	1523.2	638.6
882.847	1408.6101	1516.05	629.3
882.9908	1410.4538	1509.2	623.85
883.1345	1412.2968	1510.05	623
883.2782	1414.139	1514.25	629.6
883.4219	1415.9805	1524.45	640.55
883.5656	1417.8213	1547.95	654.8
883.7092	1419.6613	1551.15	663.75
883.8529	1421.5006	1588.25	700.65
883.9965	1423.3391	1630.1	742.65
884.1402	1425.1769	1671.65	784.35
884.2838	1427.0139	1752.75	866.75
884.4274	1428.8502	1847.6	961.3
884.571	1430.6858	1921	1035.6
884.7146	1432.5206	1949.65	1065
884.8582	1434.3547	1944.35	1058.95
885.0018	1436.188	1916.75	1031.15
885.1453	1438.0206	1896.65	1009.15
885.2889	1439.8524	1897.65	1009.9
885.4324	1441.6835	1892.15	1006.55
885.5759	1443.5139	1896.8	1005.75
885.7194	1445.3435	1895.1	1009.85
885.8629	1447.1724	1902.6	1017.8
886.0064	1449.0005	1891.35	1004.9
886.1499	1450.8279	1888.15	999.7
886.2933	1452.6545	1886.75	1000.9
886.4368	1454.4804	1874.55	988.45
886.5802	1456.3056	1872.9	981.6
886.7237	1458.13	1847.35	962.15
886.8671	1459.9536	1824.95	939.85
887.0105	1461.7766	1790.5	905.2
887.1539	1463.5987	1744.55	857.45
887.2972	1465.4202	1700.7	814.15
887.4406	1467.2409	1665.65	777.7
887.584	1469.0608	1628.9	743.75
887.7273	1470.88	1603.95	718.55
887.8706	1472.6984	1564.7	678.15
888.0139	1474.5161	1543.85	655.1
888.1572	1476.3331	1525.8	640.65
888.3005	1478.1493	1528.15	641.5
888.4438	1479.9648	1520.65	635.8
888.5871	1481.7795	1512.45	626.9
888.7303	1483.5935	1520.2	633.95
888.8736	1485.4067	1510.15	622.3
889.0168	1487.2192	1518.8	630
889.16	1489.031	1519.9	632.2
889.3032	1490.842	1511.7	628.7
889.4464	1492.6522	1509.35	622.35
889.5896	1494.4618	1505.95	619.1
889.7327	1496.2705	1501.9	616.5
889.8759	1498.0785	1503.7	616.65
890.019	1499.8858	1491.8	605.8
890.1622	1501.6924	1489.85	606.15
890.3053	1503.4981	1478.5	593.7
890.4484	1505.3032	1474.4	589.6
890.5914	1507.1075	1465.95	581.7
890.7345	1508.911	1459.55	574.2
890.8776	1510.7138	1453.3	566.3
891.0206	1512.5159	1448.55	562.35
891.1637	1514.3172	1438.5	551.75
891.3067	1516.1178	1432.6	547.95
891.4497	1517.9176	1430.05	541.75
891.5927	1519.7166	1426.7	540.5
891.7357	1521.515	1420.4	527.1
891.8786	1523.3126	1412.05	524.85
892.0216	1525.1094	1408.95	520.9
892.1645	1526.9055	1403.3	516.95
892.3074	1528.7008	1393.75	507.75
892.4503	1530.4954	1393.75	501.05
892.5932	1532.2893	1389.55	505.05
892.7361	1534.0824	1398.5	509.15
892.879	1535.8747	1387.55	502.9
893.0218	1537.6663	1381.85	496.1
893.1647	1539.4572	1388.25	501.05
893.3075	1541.2473	1379.1	493.9
893.4503	1543.0367	1383.1	498.35
893.5931	1544.8253	1382.45	493.05
893.7359	1546.6132	1399.45	511.65
893.8787	1548.4003	1407.4	511.9
894.0214	1550.1867	1414	518.65
894.1642	1551.9723	1421.7	529.6
894.3069	1553.7572	1425	539
894.4496	1555.5414	1450.9	565.6
894.5923	1557.3247	1479.55	593.85
894.735	1559.1074	1511.6	629.15
894.8777	1560.8893	1556.25	671.85
895.0204	1562.6705	1589.5	706.05
895.163	1564.4509	1624.9	742.4
895.3056	1566.2305	1630.25	746.8
895.4482	1568.0094	1630.9	747.85
895.5908	1569.7876	1623.45	742.05
895.7334	1571.565	1628	743.6
895.876	1573.3417	1623.6	741.4
896.0186	1575.1176	1627.7	741.7
896.1611	1576.8928	1639.75	755.05
896.3036	1578.6672	1661.95	781.55
896.4461	1580.4409	1696.25	816.2
896.5886	1582.2138	1721.7	833.05
896.7311	1583.986	1771.55	886.7
896.8736	1585.7575	1810.95	929.2
897.0161	1587.5282	1844.95	962.7
897.1585	1589.2981	1861.25	980.75
897.3009	1591.0673	1872.3	989.95
897.4433	1592.8358	1894.25	1014.6
897.5857	1594.6035	1889.85	1006.8
897.7281	1596.3704	1876.85	993.5
897.8705	1598.1366	1858.3	975.55
898.0128	1599.9021	1833.9	950.45
898.1551	1601.6668	1800.2	916.15
898.2975	1603.4308	1790.45	905.3
898.4398	1605.194	1805.05	917.5
898.5821	1606.9564	1830.6	948.5
898.7243	1608.7182	1889.65	1005.4
898.8666	1610.4791	1964.1	1083.2
899.0088	1612.2394	2066	1187.65
899.1511	1613.9988	2164.15	1283.6
899.2933	1615.7576	2239.4	1358.7
899.4355	1617.5156	2282.9	1393.45
899.5776	1619.2728	2243.7	1360.3
899.7198	1621.0293	2163.65	1280.5
899.862	1622.785	2047.7	1160.1
900.0041	1624.54	1910.9	1028
900.1462	1626.2942	1805.6	920.35
900.2883	1628.0477	1697.9	812.3
900.4304	1629.8005	1615.9	728.65
900.5725	1631.5525	1546.75	665.6
900.7145	1633.3037	1496.25	615.45
900.8566	1635.0542	1445.7	561.7
900.9986	1636.804	1420.2	538.6
901.1406	1638.553	1459.5	516.35
901.2826	1640.3013	1366.8	484.55
901.4245	1642.0488	1354.5	470.3
901.5665	1643.7955	1333.55	452.4
901.7085	1645.5416	1323.05	440.35
901.8504	1647.2868	1316.1	437.3
901.9923	1649.0313	1308.1	425.4
902.1342	1650.7751	1304.75	419.9
902.2761	1652.5181	1302.25	419.75
902.4179	1654.2604	1294.5	410.05
902.5598	1656.0019	1307.95	425.15
902.7016	1657.7427	1319.4	436.7
902.8434	1659.4828	1345.5	464.7
902.9852	1661.222	1362.55	478.25
903.127	1662.9606	1405.5	522.2
903.2687	1664.6984	1429.65	546.15
903.4105	1666.4354	1439.5	557.05
903.5522	1668.1717	1416.45	530.45
903.6939	1669.9072	1371.15	487.45
903.8356	1671.642	1331.2	443.45
903.9773	1673.3761	1293.2	410.75
904.119	1675.1094	1265.1	383.3
904.2606	1676.8419	1245	366.4
904.4022	1678.5737	1231	350
904.5439	1680.3048	1223.75	339.8
904.6855	1682.0351	1213.9	328.85
904.827	1683.7646	1209.75	321.85
904.9686	1685.4934	1196.8	314.15
905.1101	1687.2215	1188.2	304.65
905.2517	1688.9488	1187.65	304
905.3932	1690.6754	1190.2	306.9
905.5347	1692.4012	1182.9	299.2
905.6761	1694.1263	1178.25	295.7
905.8176	1695.8506	1177.5	295.3
905.9591	1697.5742	1175.95	292.75
906.1005	1699.297	1175.05	293
906.2419	1701.0191	1170.15	288.95
906.3833	1702.7404	1166.5	284.35
906.5246	1704.461	1165.15	280.75
906.666	1706.1808	1156.65	270.2
906.8073	1707.8999	1157.25	274.55
906.9487	1709.6182	1161.75	280.05
907.09	1711.3358	1154.5	273.95
907.2313	1713.0527	1152.45	273.7
907.3725	1714.7688	1161.4	272.95
907.5138	1716.4841	1154.15	271.3
907.655	1718.1987	1159.15	273.5
907.7962	1719.9126	1150.8	270.9
907.9374	1721.6257	1150.4	266.15
908.0786	1723.338	1146.75	263.7
908.2198	1725.0496	1147.95	264.7
908.3609	1726.7605	1146.1	263.15
908.502	1728.4706	1144.35	260.2
908.6431	1730.18	1144.35	259.25
908.7842	1731.8886	1138.8	258.3
908.9253	1733.5964	1160.35	258.3
909.0664	1735.3036	1141.2	257.6
909.2074	1737.0099	1136.25	253.75
909.3484	1738.7156	1140.75	260.05
909.4894	1740.4204	1141.25	257.25
909.6304	1742.1246	1134.1	249.6
909.7714	1743.8279	1137.15	256.85
909.9123	1745.5306	1136.6	253.25
910.0532	1747.2325	1129.6	248.2
910.1941	1748.9336	1138.55	255.6
910.335	1750.634	1135.2	250.45
910.4759	1752.3336	1133.4	252.6
910.6168	1754.0325	1127.05	246.55
910.7576	1755.7307	1129.85	250.25
910.8984	1757.4281	1130.6	248.45
911.0392	1759.1247	1136.35	244.65
911.18	1760.8206	1135.9	250.15
911.3208	1762.5158	1134.6	247.05
911.4615	1764.2102	1124.75	244.45
911.6022	1765.9039	1126.3	241.85
911.7429	1767.5968	1126.15	243.95
911.8836	1769.289	1121.35	238.1
912.0243	1770.9804	1119.4	234.6
912.1649	1772.6711	1124.45	242.35
912.3056	1774.361	1128.45	243.15
912.4462	1776.0502	1125.1	242.15
912.5868	1777.7386	1124.9	241.25
912.7274	1779.4263	1122.05	240.15
912.8679	1781.1132	1120.75	239.65
913.0084	1782.7994	1121.7	241.15
913.149	1784.4849	1118.25	238.3
913.2895	1786.1696	1135.95	237
913.4299	1787.8535	1118.35	238.15
913.5704	1789.5367	1120.5	240.3
913.7108	1791.2192	1111.85	231.5
913.8513	1792.9009	1139.25	232.95
913.9917	1794.5818	1120.35	234.95
914.132	1796.2621	1111.1	228.85
914.2724	1797.9415	1109.95	228.1
914.4128	1799.6202	1109.2	226.8
914.5531	1801.2982	1113.65	232.55
914.6934	1802.9755	1111.7	228.45
914.8337	1804.6519	1109.95	226.1
914.9739	1806.3277	1108.1	224.65
915.1142	1808.0027	1105.95	225.6
915.2544	1809.6769	1105.4	223.95
915.3946	1811.3504	1106.7	223.8
915.5348	1813.0231	1107.55	225.65
915.675	1814.6951	1100.85	219.2
915.8151	1816.3664	1111.95	228
915.9553	1818.0369	1108.65	225.15
916.0954	1819.7067	1102.85	220.55
916.2355	1821.3757	1105.3	222.05
916.3755	1823.044	1099.55	218.05
916.5156	1824.7115	1103.05	221.3
916.6556	1826.3783	1102.5	221.2
916.7956	1828.0443	1103.05	222.2
916.9356	1829.7096	1102.45	218.35
917.0756	1831.3741	1105.85	218.65
917.2155	1833.0379	1095.9	217.35
917.3555	1834.701	1100.65	217.1
917.4954	1836.3633	1095.8	214.4
917.6353	1838.0248	1100.15	216.4
917.7751	1839.6856	1093.85	213
917.915	1841.3457	1098	218.85
918.0548	1843.005	1097.4	215.95
918.1946	1844.6636	1098.35	216.9
918.3344	1846.3214	1096.05	213.15
918.4742	1847.9785	1098	216
918.6139	1849.6349	1099	217.1
918.7537	1851.2904	1100.05	206.45
918.8934	1852.9453	1091.6	210.25
919.0331	1854.5994	1095.45	210.3
919.1727	1856.2528	1095.05	207.7
919.3124	1857.9054	1093.65	211.3
919.452	1859.5572	1096.3	215.05
919.5916	1861.2083	1093.4	211.3
919.7312	1862.8587	1089.9	206.7
919.8708	1864.5084	1088.65	205.05
920.0103	1866.1572	1087.95	208.35
920.1498	1867.8054	1087.9	205
920.2893	1869.4528	1088.85	207
920.4288	1871.0994	1082.4	199.55
920.5683	1872.7453	1089.2	206.75
920.7077	1874.3905	1089.95	199.1
920.8471	1876.0349	1086.5	204.05
920.9865	1877.6786	1089.1	205.45
921.1259	1879.3215	1085.95	204.2
921.2653	1880.9637	1087.7	205.95
921.4046	1882.6051	1084.3	203
921.5439	1884.2458	1088.65	204.5
921.6832	1885.8858	1082.6	199
921.8225	1887.525	1080.8	197.75
921.9617	1889.1634	1080.6	200.2
922.101	1890.8011	1079.1	195.95
922.2402	1892.4381	1081.2	200.3
922.3794	1894.0743	1073.4	192.15
922.5185	1895.7098	1082.5	199.65
922.6577	1897.3446	1082.5	198.4
922.7968	1898.9786	1079.7	192
922.9359	1900.6118	1080.5	201
923.075	1902.2443	1078.5	193.8
923.214	1903.8761	1074.7	193.65
923.3531	1905.5071	1077	193.7
923.4921	1907.1374	1077.25	195.4
923.6311	1908.7669	1073.3	189.45
923.77	1910.3957	1071.3	188.25
923.909	1912.0237	1071.65	187
924.0479	1913.651	1071.85	190.7
924.1868	1915.2776	1069.5	186.9
924.3257	1916.9034	1068.85	189
924.4646	1918.5285	1066.6	184.9
924.6034	1920.1528	1068	186.4
924.7422	1921.7764	1066.25	182.65
924.881	1923.3992	1065.55	185.05
925.0198	1925.0213	1066.1	184.6
925.1586	1926.6427	1065.2	183.95
925.2973	1928.2633	1272.45	181
925.436	1929.8832	1075.85	189.65
925.5747	1931.5023	1065.95	184.85
925.7134	1933.1207	1063.4	179.2
925.852	1934.7383	1067.8	188
925.9906	1936.3552	1061.55	180.45
926.1292	1937.9714	1062.8	180.05
926.2678	1939.5868	1071.35	189.25
926.4064	1941.2015	1063.3	181.3
926.5449	1942.8154	1065.6	180.85
926.6834	1944.4286	1062.45	180.45
926.8219	1946.041	1082.4	175.6
926.9604	1947.6528	1062.75	174.75
927.0988	1949.2637	1058.85	177.55
927.2372	1950.8739	1061.35	177.85
927.3756	1952.4834	1058.9	175.55
927.514	1954.0921	1058.4	175.4
927.6523	1955.7001	1060.1	173.9
927.7907	1957.3074	1053.2	174.45
927.929	1958.9139	1053.2	172.65
928.0673	1960.5197	1057.7	177.65
928.2055	1962.1247	1051.75	170.6
928.3438	1963.729	1054.35	174.5
928.482	1965.3325	1056.15	171.25
928.6202	1966.9353	1052.5	172.3
928.7584	1968.5374	1057.15	175.9
928.8965	1970.1387	1055.4	174.1
929.0346	1971.7393	1049.7	166.4
929.1727	1973.3392	1049.4	170.05
929.3108	1974.9383	1046.25	166.3
929.4489	1976.5366	1047.5	164.9
929.5869	1978.1342	1048.25	169
929.7249	1979.7311	1049.8	167.95
929.8629	1981.3273	1049.4	169.6
930.0009	1982.9227	1053.1	170.15
930.1388	1984.5173	1049.85	169.75
930.2767	1986.1112	1044.55	164.15
930.4146	1987.7044	1044.1	166.6
930.5525	1989.2968	1046.15	165.15
930.6904	1990.8885	1046.95	164.75
930.8282	1992.4795	1044.6	163.35
930.966	1994.0697	1046.05	167.45
931.1038	1995.6592	1045.1	164.7
931.2415	1997.2479	1042.55	162.55
931.3793	1998.8359	1038.15	155.8
931.517	2000.4232	1036.7	159.6
931.6547	2002.0097	1040.65	163.3
931.7923	2003.5955	1043.5	165.25
931.93	2005.1805	1042.05	158.1
932.0676	2006.7648	1041	162.4
932.2052	2008.3484	1039.9	160.15
932.3427	2009.9312	1043.45	162.85
932.4803	2011.5133	1039.3	161.55
932.6178	2013.0946	1042.85	164.4
932.7553	2014.6752	1036.9	159.65
932.8928	2016.2551	1040.1	160.65
933.0302	2017.8342	1043.85	165.2
933.1676	2019.4126	1037.35	159.15
933.305	2020.9902	1038.7	161.95
933.4424	2022.5672	1039.3	158.25
933.5798	2024.1433	1041.2	158.2
933.7171	2025.7188	1036.25	158.55
933.8544	2027.2935	1035.65	154.8
933.9917	2028.8674	1035.6	158.9
934.129	2030.4406	1033.4	156.5
934.2662	2032.0131	1031.9	155.3
934.4034	2033.5849	1040.65	158.4
934.5406	2035.1559	1035.65	158.15
934.6778	2036.7261	1029.85	150.1
934.8149	2038.2957	1034.9	155.4
934.952	2039.8645	1033.9	156.2
935.0891	2041.4325	1038.25	157.55
935.2262	2042.9998	1034	157.5
935.3632	2044.5664	1029.65	149.6
935.5002	2046.1323	1029.5	154.05
935.6372	2047.6974	1030.75	153
935.7742	2049.2617	1032.85	155.2
935.9111	2050.8254	1057.35	152.05
936.048	2052.3883	1035.05	155.75
936.1849	2053.9504	1037.95	157.75
936.3218	2055.5118	1031.05	149.1
936.4586	2057.0725	1032.8	150.95
936.5955	2058.6325	1034.95	156.75
936.7323	2060.1917	1027.3	149.55
936.869	2061.7502	1035.45	154.9
937.0058	2063.3079	1028.15	150.7
937.1425	2064.8649	1035.75	153.8
937.2792	2066.4212	1032.9	153.75
937.4159	2067.9767	1029.85	150.4
937.5525	2069.5315	1028.8	149.05
937.6891	2071.0856	1029.75	151.75
937.8257	2072.6389	1030.9	151.7
937.9623	2074.1915	1027.15	149.3
938.0989	2075.7433	1028.5	146.5
938.2354	2077.2945	1026.3	148.45
938.3719	2078.8448	1026.05	147.2
938.5084	2080.3945	1024.95	147.35
938.6448	2081.9434	1027.9	148.65
938.7812	2083.4916	1030.45	152.6
938.9176	2085.039	1032.8	148.65
939.054	2086.5857	1034.75	152.95
939.1903	2088.1317	1028.75	148.15
939.3267	2089.677	1029.85	148.45
939.463	2091.2215	1028.5	147.9
939.5992	2092.7652	1030.85	148.8
939.7355	2094.3083	1028.55	146.5
939.8717	2095.8506	1026.9	148.1
940.0079	2097.3921	1026.05	148.3
940.1441	2098.933	1022.2	141.2
940.2802	2100.4731	1026.8	146.6
940.4163	2102.0124	1045.35	148.5
940.5524	2103.5511	1028.3	149.4
940.6885	2105.089	1023.5	143.4
940.8245	2106.6261	1027	147.75
940.9606	2108.1626	1028.6	148.8
941.0965	2109.6983	1057.05	149.9
941.2325	2111.2332	1026.75	147.25
941.3684	2112.7675	1027.5	146.55
941.5044	2114.301	1026.15	145.25
941.6403	2115.8337	1026.75	146.4
941.7761	2117.3657	1027.6	148.35
941.912	2118.897	1028.35	147.55
942.0478	2120.4276	1029.8	144.8
942.1835	2121.9575	1024.05	143.2
942.3193	2123.4866	1036.05	144.1
942.455	2125.0149	1026.55	144.4
942.5907	2126.5426	1024.25	144.65
942.7264	2128.0695	1027.8	146.75
942.8621	2129.5956	1019.65	141.15
942.9977	2131.1211	1024.35	140.5
943.1333	2132.6458	1020.45	141.95
943.2689	2134.1698	1020.8	141.2
943.4044	2135.693	1026.4	144.5
943.54	2137.2155	1025.95	145.4
943.6755	2138.7373	1025.15	145.45
943.8109	2140.2584	1019.75	143.05
943.9464	2141.7787	1024.4	139.45
944.0818	2143.2983	1019.15	143.95
944.2172	2144.8171	1017.8	142.3
944.3526	2146.3353	1023.85	142.4
944.4879	2147.8527	1022.25	145.05
944.6232	2149.3693	1022	142.65
944.7585	2150.8853	1021.5	141.85
944.8938	2152.4005	1021.4	140.15
945.029	2153.9149	1021.25	143
945.1642	2155.4287	1021.05	141.65
945.2994	2156.9417	1021.95	142.6
945.4346	2158.454	1017.4	135.5
945.5697	2159.9655	1016.1	137.55
945.7048	2161.4764	1019.1	140.4
945.8399	2162.9865	1015.9	135.15
945.9749	2164.4958	1019.75	140.5
946.1099	2166.0045	1024.45	144.15
946.2449	2167.5124	1017.95	139.8
946.3799	2169.0195	1018.7	141
946.5148	2170.526	1020.5	140.1
946.6498	2172.0317	1017.9	137.05
946.7846	2173.5367	1014.35	133.25
946.9195	2175.0409	1015.3	136.35
947.0543	2176.5445	1018.55	142.15
947.1891	2178.0473	1021.15	140.7
947.3239	2179.5494	1017.7	133
947.4587	2181.0507	1014.75	134.35
947.5934	2182.5513	1014.75	135.15
947.7281	2184.0512	1013.65	134.7
947.8628	2185.5504	1013.4	134.1
947.9974	2187.0488	1014.2	135.35
948.132	2188.5465	1011.6	132.3
948.2666	2190.0435	1011.9	133.6
948.4012	2191.5397	1010.95	132.25
948.5357	2193.0353	1011.85	133.4
948.6702	2194.5301	1014.7	134.2
948.8047	2196.0241	1017.55	138.9
948.9392	2197.5175	1011.95	132
949.0736	2199.0101	1013.35	128.85
949.208	2200.502	1007.75	128.15
949.3424	2201.9931	1011.6	132.35
949.4767	2203.4835	1012.6	131.95
949.611	2204.9733	1026.2	130.7
949.7453	2206.4622	1011.05	131.7
949.8796	2207.9505	1013.05	132.35
950.0138	2209.438	1007.4	129.9
950.148	2210.9248	1012.8	133.2
950.2822	2212.4109	1007.9	129.45
950.4164	2213.8962	1012.75	130
950.5505	2215.3809	1009.8	127.95
950.6846	2216.8648	1007.45	126.15
950.8186	2218.3479	1009.9	126.05
950.9527	2219.8304	1008.95	123.9
951.0867	2221.3121	1009.2	127.8
951.2207	2222.7931	1006	126.3
951.3546	2224.2733	1003.9	124.1
951.4886	2225.7529	1006.4	127.25
951.6225	2227.2317	1010.8	128.4
951.7563	2228.7098	1003.6	126.35
951.8902	2230.1872	1006.65	127.75
952.024	2231.6638	1004.6	125.8
952.1578	2233.1397	1007.25	120.75
952.2916	2234.6149	1000.2	122.25
952.4253	2236.0894	1004.15	122.95
952.559	2237.5632	1013.55	124.9
952.6927	2239.0362	1004.3	125.55
952.8263	2240.5085	1001.65	121.95
952.9599	2241.9801	1002.35	122.9
953.0935	2243.4509	1000.4	119.65
953.2271	2244.921	1002.95	124.5
953.3606	2246.3904	1004.8	122.15
953.4941	2247.8591	1002.3	121.15
953.6276	2249.3271	1002.25	123.7
953.7611	2250.7943	999.55	118.8
953.8945	2252.2608	998.2	120.1
954.0279	2253.7266	1005.05	125.8
954.1612	2255.1917	996.6	116.95
954.2946	2256.656	998.55	118.3
954.4279	2258.1197	998.6	120.55
954.5612	2259.5826	998.5	118.45
954.6944	2261.0447	996.85	117.65
954.8276	2262.5062	1001	119.1
954.9608	2263.9669	1001.65	121.25
955.094	2265.4269	997.95	118.55
955.2271	2266.8862	996.4	118.7
955.3602	2268.3448	994.95	115.2
955.4933	2269.8026	996.35	116.8
955.6264	2271.2598	994.2	114.6
955.7594	2272.7162	990.55	113.2
955.8924	2274.1719	995.25	114.45
956.0253	2275.6268	995.8	115.95
956.1583	2277.0811	996.7	117.55
956.2912	2278.5346	993.6	113.8
956.4241	2279.9874	989.95	112.8
956.5569	2281.4395	992.25	113
956.6897	2282.8908	997.65	113.1
956.8225	2284.3414	996.35	112.7
956.9553	2285.7914	991.95	113.6
957.088	2287.2406	994.15	112.45
957.2207	2288.689	993.9	112.8
957.3534	2290.1368	991.9	110.85
957.486	2291.5838	994.65	110.95
957.6186	2293.0302	995.75	115.8
957.7512	2294.4758	995.15	115.3
957.8838	2295.9206	994.35	110.7
958.0163	2297.3648	992.85	115.45
958.1488	2298.8082	994.6	115.1
958.2813	2300.251	995.85	118.05
958.4137	2301.693	995.2	111.5
958.5461	2303.1343	993.45	112.25
958.6785	2304.5748	991.2	111.55
958.8108	2306.0147	990.05	111.45
958.9432	2307.4538	991.6	110.05
959.0754	2308.8922	986.15	107.8
959.2077	2310.3299	988.3	109.25
959.3399	2311.7669	989.85	111.75
959.4721	2313.2031	985.85	107.7
959.6043	2314.6387	988.95	111.35
959.7365	2316.0735	984.25	104.5
959.8686	2317.5076	989.85	111.35
960.0006	2318.941	989.45	112.55
960.1327	2320.3737	984.45	103
960.2647	2321.8056	989.85	107.1
960.3967	2323.2369	988.25	106.4
960.5287	2324.6674	991.75	111.3
960.6606	2326.0972	991.2	108.65
960.7925	2327.5263	995.1	115.95
960.9244	2328.9547	998.9	117.6
961.0562	2330.3823	993.75	114.55
961.1881	2331.8092	995.1	112.75
961.3198	2333.2355	987.6	108.25
961.4516	2334.661	985.75	105.35
961.5833	2336.0858	985.95	101.95
961.715	2337.5098	985.1	106.65
961.8467	2338.9332	986.85	105.2
961.9783	2340.3558	987.55	104.7
962.1099	2341.7778	984.2	103.9
962.2415	2343.199	983.4	101.1
962.373	2344.6195	981.15	101.2
962.5045	2346.0393	977.5	101.1
962.636	2347.4583	980.8	101.8
962.7675	2348.8767	985.95	105.9
962.8989	2350.2943	985	105.4
963.0303	2351.7113	989.05	108.6
963.1617	2353.1275	983.15	103.9
963.293	2354.543	1006.2	99.9
963.4243	2355.9578	983.05	102.3
963.5556	2357.3718	980.2	99.55
963.6868	2358.7852	984.5	103.2
963.818	2360.1978	983.25	104.55
963.9492	2361.6098	981.25	100.9
964.0803	2363.021	987.2	103.2
964.2114	2364.4315	978.6	99.15
964.3425	2365.8413	987.25	101.95
964.4736	2367.2504	978.5	98.9
964.6046	2368.6587	979.25	97.45
964.7356	2370.0664	978.2	98.75
964.8666	2371.4733	981.35	102.6
964.9975	2372.8795	981.75	101.85
965.1284	2374.285	978.35	99.9
965.2593	2375.6899	979.2	99.15
965.3901	2377.0939	976.8	98.35
965.5209	2378.4973	978.25	99.5
965.6517	2379.9	981.5	99.4
965.7825	2381.3019	979.05	98.9
965.9132	2382.7032	974.9	96.5
966.0439	2384.1037	976.3	96.65
966.1745	2385.5035	973.4	93.75
966.3051	2386.9027	976.95	97.2
966.4357	2388.3011	976.3	94.1
966.5663	2389.6987	977.9	98.65
966.6968	2391.0957	976.4	95.5
966.8273	2392.492	973.6	93.05
966.9578	2393.8876	976.85	96.25
967.0882	2395.2824	974.9	95.15
967.2186	2396.6765	970.5	90.75
967.349	2398.07	971.35	90.1
967.4793	2399.4627	973.9	92.55
967.6097	2400.8547	974.75	96.3
967.7399	2402.246	977.1	89.35
967.8702	2403.6366	972.55	92.5
968.0004	2405.0265	969.55	87.95
968.1306	2406.4156	974.9	90
968.2607	2407.8041	972.05	88.25
968.3909	2409.1918	976.05	94.35
968.521	2410.5789	971.85	90.25
968.651	2411.9652	973.5	90.35
968.781	2413.3508	971.8	91.25
968.911	2414.7358	970.55	90.8
969.041	2416.12	970.7	90.55
969.1709	2417.5035	969.2	89.45
969.3008	2418.8863	971.25	89.7
969.4307	2420.2684	967.5	86.55
969.5606	2421.6497	974.85	93.95
969.6904	2423.0304	967.4	87.8
969.8201	2424.4104	970.7	89
969.9499	2425.7896	973.8	86.25
970.0796	2427.1682	971.65	93.6
970.2093	2428.546	969.15	87.6
970.3389	2429.9232	966.7	86.25
970.4685	2431.2996	965.9	84.6
970.5981	2432.6753	963.15	82.9
970.7277	2434.0503	966.95	84.25
970.8572	2435.4246	967	86.85
970.9867	2436.7982	970.8	86.9
971.1161	2438.1711	964.95	84.25
971.2456	2439.5433	967.35	85.45
971.375	2440.9148	969.3	88.65
971.5043	2442.2856	962	79.2
971.6336	2443.6557	965.3	83.9
971.7629	2445.025	964.3	83.55
971.8922	2446.3937	966.35	83.25
972.0214	2447.7617	965.35	85.35
972.1506	2449.1289	962.4	81.95
972.2798	2450.4955	968.85	84.05
972.4089	2451.8613	963.2	83.5
972.538	2453.2265	962	79.75
972.6671	2454.5909	964.55	84.65
972.7961	2455.9546	964.2	84.2
972.9251	2457.3177	962.75	83.2
973.0541	2458.68	960.95	79.25
973.1831	2460.0416	961.4	81.25
973.312	2461.4025	962.55	81.2
973.4408	2462.7627	973.1	81.55
973.5697	2464.1222	962.75	85.5
973.6985	2465.4811	962.5	79.35
973.8273	2466.8392	965	83.1
973.956	2468.1966	964.2	81.65
974.0847	2469.5533	966.4	83
974.2134	2470.9093	960.8	80.15
974.3421	2472.2645	965.35	82.25
974.4707	2473.6191	962.95	84
974.5993	2474.973	960.65	81.15
974.7278	2476.3262	961.3	78.4
974.8563	2477.6787	960.4	81.3
974.9848	2479.0305	958.75	79.85
975.1132	2480.3816	961.2	80.25
975.2417	2481.7319	962.5	83.5
975.37	2483.0816	962.4	80.75
975.4984	2484.4306	962.85	80.55
975.6267	2485.7789	959.25	81
975.755	2487.1264	959.85	78.45
975.8833	2488.4733	959.65	78.5
976.0115	2489.8195	966.5	76.55
976.1397	2491.165	963	78.75
976.2678	2492.5097	959.85	76.9
976.3959	2493.8538	956.95	76.35
976.524	2495.1972	959.75	79.15
976.6521	2496.5398	960.35	79.8
976.7801	2497.8818	961.6	79.85
976.9081	2499.2231	955.35	74.25
977.036	2500.5637	958.5	76.4
977.164	2501.9035	960.75	79.1
977.2918	2503.2427	959.45	74.65
977.4197	2504.5812	956.1	76.5
977.5475	2505.919	958.6	76.5
977.6753	2507.256	955.65	74.1
977.8031	2508.5924	955.2	77.4
977.9308	2509.9281	958.7	71.75
978.0585	2511.2631	955.2	76.75
978.1861	2512.5974	951.7	70.15
978.3137	2513.9309	954.7	74.2
978.4413	2515.2638	983	74.3
978.5689	2516.596	956.45	77.15
978.6964	2517.9275	954.7	73
978.8239	2519.2583	956.8	76.35
978.9513	2520.5884	954.95	73.6
979.0788	2521.9178	953.6	73.2
979.2062	2523.2465	954.85	74.3
979.3335	2524.5745	949.3	71.4
979.4608	2525.9018	953.95	73
979.5881	2527.2284	949.4	71.8
979.7154	2528.5543	951.1	71.75
979.8426	2529.8796	949.25	69.6
979.9698	2531.2041	955.15	76.2
980.0969	2532.5279	952.3	74.45
980.224	2533.851	954.35	73.85
980.3511	2535.1735	952.85	73.1
980.4781	2536.4952	952.6	72.1
980.6052	2537.8163	951.55	70.55
980.7321	2539.1366	951.85	72.1
980.8591	2540.4562	951.75	69.7
980.986	2541.7752	948.8	68.8
981.1129	2543.0935	952.55	72.85
981.2397	2544.411	955.05	72.95
981.3665	2545.7279	950.95	71.15
981.4933	2547.0441	952.5	70.9
981.62	2548.3596	951.6	68.35
981.7467	2549.6744	949.35	68.15
981.8734	2550.9885	956.9	67.4
982.0001	2552.3019	947.5	68
982.1267	2553.6146	950	69.8
982.2532	2554.9266	946.55	66.05
982.3798	2556.2379	951.35	70.1
982.5063	2557.5485	947.25	66.05
982.6327	2558.8585	957.05	68
982.7592	2560.1677	952.45	69.15
982.8856	2561.4762	949.1	67.5
983.0119	2562.7841	951.9	69.75
983.1383	2564.0913	946.95	66.85
983.2646	2565.3977	947.05	64.85
983.3908	2566.7035	946.85	66.85
983.517	2568.0086	945.85	63.35
983.6432	2569.313	946.95	65.75
983.7694	2570.6167	951.8	68.15
983.8955	2571.9197	946.15	65.35
984.0216	2573.222	950.35	66.3
984.1476	2574.5236	949	68.65
984.2737	2575.8246	953	70.25
984.3996	2577.1248	947	64.75
984.5256	2578.4244	948.35	67.75
984.6515	2579.7232	950.55	67.9
984.7774	2581.0214	970.35	62.2
984.9032	2582.3189	943.9	63.65
985.029	2583.6157	949.7	66.15
985.1548	2584.9118	946.95	67.35
985.2806	2586.2072	947.3	68.2
985.4063	2587.5019	944.3	62
985.5319	2588.7959	946.7	65.5
985.6576	2590.0893	948.75	66.65
985.7832	2591.3819	944.65	65.6
985.9087	2592.6739	945.3	65.8
986.0343	2593.9652	948.85	65.35
986.1597	2595.2557	947.65	67.7
986.2852	2596.5456	948.45	65.45
986.4106	2597.8348	946.9	69.9
986.536	2599.1234	947.15	68.8
986.6614	2600.4112	946.95	65.8
986.7867	2601.6983	951.4	67.75
986.912	2602.9848	947.95	68
987.0372	2604.2705	952.1	67.75
987.1624	2605.5556	947.2	67.35
987.2876	2606.84	947.3	64.65
987.4128	2608.1237	946.4	65.5
987.5379	2609.4067	945.45	65.35
987.6629	2610.689	954.35	65
987.788	2611.9707	950.6	66.1
987.913	2613.2516	951.95	67.8
988.0379	2614.5319	943.5	65.5
988.1629	2615.8115	945	62.4
988.2878	2617.0903	948.75	68.7
988.4126	2618.3685	943.75	64.85
988.5375	2619.6461	940.6	60.8
988.6622	2620.9229	942.35	64.45
988.787	2622.199	946.5	65.45
988.9117	2623.4745	942.95	62.9
989.0364	2624.7493	938.75	59.9
989.161	2626.0234	941.2	62.45
989.2857	2627.2968	937.8	58.45
989.4102	2628.5695	943	62.15
989.5348	2629.8415	943.65	62.8
989.6593	2631.1128	942.25	59.35
989.7837	2632.3835	938.3	56.4
989.9082	2633.6535	939.4	59.25
990.0326	2634.9228	940	59.85
990.1569	2636.1914	941.6	62.1
990.2812	2637.4593	942.75	62.25
990.4055	2638.7265	941	58.55
990.5298	2639.9931	937.7	58.95
990.654	2641.259	939.9	58.25
990.7782	2642.5242	940.15	60.3
990.9023	2643.7887	940.05	58.7
991.0264	2645.0525	940.3	59.9
991.1505	2646.3156	940.9	60.4
991.2745	2647.5781	938.45	61
991.3985	2648.8398	941.15	60.6
991.5225	2650.1009	974.4	58.25
991.6464	2651.3613	938.15	57.05
991.7703	2652.6211	938.9	58.85
991.8942	2653.8801	935.55	55.3
992.018	2655.1385	940.25	57.35
992.1418	2656.3961	936.05	56.7
992.2655	2657.6531	937.55	56.95
992.3892	2658.9094	938.2	59.6
992.5129	2660.1651	936.8	58.95
992.6366	2661.42	935.6	54.95
992.7602	2662.6743	936.7	56.45
992.8837	2663.9279	936.8	59.15
993.0073	2665.1808	938.65	58.1
993.1307	2666.433	938.55	57.1
993.2542	2667.6846	938.8	59.95
993.3776	2668.9354	943.2	59.35
993.501	2670.1856	937.7	57.6
993.6244	2671.4351	937.55	57.85
993.7477	2672.6839	937.8	56.75
993.8709	2673.9321	938.5	62.6
993.9942	2675.1795	938.6	57.6
994.1174	2676.4263	937.85	58.65
994.2405	2677.6724	937.9	60.65
994.3637	2678.9179	936.4	56.2
994.4868	2680.1626	936.6	58.65
994.6098	2681.4067	938.3	60.3
994.7328	2682.6501	939.8	60.25
994.8558	2683.8928	937.6	57.6
994.9788	2685.1348	938.05	58.55
995.1017	2686.3761	934.45	53.9
995.2245	2687.6168	932.9	52.95
995.3474	2688.8568	933.95	55.1
995.4702	2690.0961	935.55	56.65
995.5929	2691.3348	932.9	54.05
995.7156	2692.5727	933.25	53.85
995.8383	2693.81	935.7	56.9
995.961	2695.0466	934	56.75
996.0836	2696.2826	934.45	53
996.2062	2697.5178	936.55	51.1
996.3287	2698.7524	934.8	56.6
996.4512	2699.9863	935.05	52.55
996.5737	2701.2195	933.8	56.7
996.6961	2702.452	934.45	53.55
996.8185	2703.6839	936.6	55.75
996.9408	2704.9151	934.05	56.5
997.0631	2706.1456	933.4	53
997.1854	2707.3755	936.9	57
997.3077	2708.6046	937.55	57.2
997.4299	2709.8331	938.05	57.85
997.552	2711.0609	934.85	55.1
997.6742	2712.2881	936.9	55.65
997.7963	2713.5145	937	55.95
997.9183	2714.7403	934.4	54.9
998.0403	2715.9654	938	56.8
998.1623	2717.1899	954.4	61.55
998.2842	2718.4136	939.45	60.1
998.4062	2719.6367	943.2	63.85
998.528	2720.8591	949.15	62.6
998.6498	2722.0809	942.7	63.6
998.7716	2723.3019	947.3	63.45
998.8934	2724.5223	943.85	63.9
999.0151	2725.7421	947.25	67.2
999.1368	2726.9611	943.95	62.5
999.2584	2728.1795	946.95	63
999.38	2729.3972	940.15	61.6
999.5016	2730.6142	946.95	59.45
999.6231	2731.8306	939	59.7
999.7446	2733.0462	938.3	57.85
999.8661	2734.2612	937.6	54.7
999.9875	2735.4756	936.75	57.45
1000.1089	2736.6892	935.1	57.45
1000.2302	2737.9022	934.75	57.4
1000.3515	2739.1145	934.45	55.8
1000.4728	2740.3262	942.35	56.1
1000.594	2741.5372	933.25	55.25
1000.7152	2742.7475	931.4	51.45
1000.8363	2743.9571	930.9	49.75
1000.9575	2745.1661	932.1	48.35
1001.0785	2746.3744	929.85	49.85
1001.1996	2747.582	925.85	47
1001.3206	2748.7889	930.65	49.9
1001.4415	2749.9952	928.3	50.55
1001.5625	2751.2008	927.7	45.85
1001.6833	2752.4057	928.55	46.85
1001.8042	2753.61	928.85	48.25
1001.925	2754.8136	927.15	44.75
1002.0458	2756.0165	924.8	46.3
1002.1665	2757.2188	924.8	46.9
1002.2872	2758.4204	923.3	44.6
1002.4078	2759.6213	926.65	45.5
1002.5285	2760.8215	928.7	46
1002.649	2762.0211	927.35	46.05
1002.7696	2763.22	927.15	43.35
1002.8901	2764.4182	923.95	45.1
1003.0106	2765.6158	924.85	45.05
1003.131	2766.8127	924.15	44.25
1003.2514	2768.009	927.7	49.15
1003.3717	2769.2045	922.7	44.25
1003.492	2770.3994	926.05	44.2
1003.6123	2771.5936	922.8	43.25
1003.7325	2772.7872	921.15	44.45
1003.8527	2773.9801	924.2	42.95
1003.9729	2775.1723	938.1	40.85
1004.093	2776.3639	921.05	40.8
1004.2131	2777.5548	923.95	42.1
1004.3331	2778.745	923.8	42.3
1004.4531	2779.9346	920.2	42.05
1004.5731	2781.1235	922.75	42
1004.693	2782.3117	922.55	44.7
1004.8129	2783.4992	921.65	42.45
1004.9328	2784.6861	921.9	42.75
1005.0526	2785.8723	924.5	41.85
1005.1723	2787.0579	920.5	40.45
1005.2921	2788.2428	924.55	45.75
1005.4118	2789.427	920.9	41.7
1005.5314	2790.6106	922.35	43.3
1005.651	2791.7935	924.45	45.75
1005.7706	2792.9757	920.1	42.6
1005.8902	2794.1573	925.3	44.25
1006.0097	2795.3382	923.7	45.05
1006.1291	2796.5184	921.55	44
1006.2485	2797.698	923.05	42.95
1006.3679	2798.8769	923.15	47.45
1006.4873	2800.0551	923.1	45.1
1006.6066	2801.2327	927.7	47
1006.7258	2802.4096	923.2	45.9
1006.8451	2803.5859	925.25	46
1006.9642	2804.7615	927.35	46.95
1007.0834	2805.9364	923.8	45.1
1007.2025	2807.1106	925.4	45.7
1007.3216	2808.2842	927.75	48.75
1007.4406	2809.4572	928.1	49.7
1007.5596	2810.6294	929.7	50.65
1007.6785	2811.801	933.3	56.1
1007.7975	2812.972	932.4	54.85
1007.9163	2814.1423	931.95	52.3
1008.0352	2815.3119	936.95	55.8
1008.154	2816.4808	937.5	57.85
1008.2727	2817.6491	943.4	63.8
1008.3914	2818.8167	947.2	67.55
1008.5101	2819.9837	954.75	73.2
1008.6288	2821.15	952.1	73.15
1008.7474	2822.3157	959.55	83
1008.8659	2823.4807	967.8	88.85
1008.9844	2824.645	977.85	97.55
1009.1029	2825.8086	982.15	103.65
1009.2214	2826.9716	990.1	113.05
1009.3398	2828.134	997.65	119.15
1009.4581	2829.2957	1008.15	130.3
1009.5764	2830.4567	1010.4	133.7
1009.6947	2831.617	1014.5	133.6
1009.813	2832.7767	1015.25	137
1009.9312	2833.9358	1018.65	139.3
1010.0493	2835.0941	1022.35	142.6
1010.1675	2836.2519	1014.6	138
1010.2855	2837.4089	1010.1	129.25
1010.4036	2838.5653	1001.35	123.5
1010.5216	2839.7211	1004.4	128.75
1010.6396	2840.8761	999.55	119
1010.7575	2842.0306	997.2	118.55
1010.8754	2843.1843	998.6	121.95
1010.9932	2844.3374	997.75	119.25
1011.111	2845.4899	1000.95	121.15
1011.2288	2846.6417	1003.3	126
1011.3465	2847.7928	1003.05	125.05
1011.4642	2848.9433	1002.5	125.5
1011.5818	2850.0931	1005.5	126.45
1011.6995	2851.2422	1011.15	133.6
1011.817	2852.3907	1009.05	127.75
1011.9345	2853.5385	1012.65	131.65
1012.052	2854.6857	1040.2	135.05
1012.1695	2855.8323	1011.65	133.6
1012.2869	2856.9781	1015	135.85
1012.4042	2858.1233	1018.25	141
1012.5216	2859.2679	1023.25	145.4
1012.6389	2860.4118	1028.35	150.55
1012.7561	2861.555	1034.75	152.1
1012.8733	2862.6976	1031.95	148.8
1012.9905	2863.8395	1037.65	161.7
1013.1076	2864.9808	1037.9	158
1013.2247	2866.1214	1039.8	162.45
1013.3417	2867.2614	1038.75	158.75
1013.4587	2868.4007	1042.05	163.8
1013.5757	2869.5393	1042.85	161.25
1013.6926	2870.6773	1047.5	166.8
1013.8095	2871.8146	1055.85	172.55
1013.9263	2872.9513	1051.45	170.9
1014.0431	2874.0874	1050.2	171.45
1014.1599	2875.2227	1058.75	180.05
1014.2766	2876.3574	1052	172.85
1014.3933	2877.4915	1053.5	174.4
1014.51	2878.6249	1056.45	178.2
1014.6266	2879.7577	1064.9	185.9
1014.7431	2880.8898	1075.35	187.9
1014.8596	2882.0212	1062.95	185.45
1014.9761	2883.152	1075.95	195.7
1015.0925	2884.2821	1067.8	190.15
1015.2089	2885.4116	1072.5	194.8
1015.3253	2886.5405	1074	195.8
1015.4416	2887.6686	1072.15	190.45
1015.5579	2888.7962	1078.8	202.95
1015.6741	2889.923	1070.85	192.7
1015.7903	2891.0493	1073.7	195.4
1015.9065	2892.1748	1078.55	199.8
1016.0226	2893.2997	1074	193.65
1016.1387	2894.424	1073.7	196
1016.2547	2895.5476	1075.45	198.3
1016.3707	2896.6706	1075.75	200.25
1016.4866	2897.7929	1073.95	197.2
1016.6025	2898.9145	1076.7	197.75
1016.7184	2900.0355	1074.45	196
1016.8342	2901.1559	1076.7	197
1016.95	2902.2756	1076.95	194.35
1017.0658	2903.3946	1075.1	199.9
1017.1815	2904.513	1074.6	191.25
1017.2971	2905.6308	1071.15	192.75
1017.4127	2906.7479	1075.05	197.9
1017.5283	2907.8643	1072.15	195
1017.6439	2908.9801	1072.3	195.8
1017.7594	2910.0953	1072.3	195.05
1017.8748	2911.2098	1073.6	192.25
1017.9902	2912.3236	1076.4	190.45
1018.1056	2913.4368	1071.15	188.85
1018.2209	2914.5494	1068.45	189.4
1018.3362	2915.6613	1073.4	190.3
1018.4515	2916.7725	1062.25	182.2
1018.5667	2917.8831	1061.5	183.55
1018.6819	2918.9931	1061.65	179.45
1018.797	2920.1024	1056.6	179.5
1018.9121	2921.211	1053.15	175.75
1019.0271	2922.319	1055.1	177.6
1019.1421	2923.4264	1053.4	176.8
1019.2571	2924.5331	1047.3	169.55
1019.372	2925.6391	1047.9	171.65
1019.4869	2926.7445	1050.5	172.5
1019.6017	2927.8493	1051.7	173.8
1019.7165	2928.9534	1048.4	171.45
1019.8313	2930.0569	1054.05	174.8
1019.946	2931.1597	1055.1	176.1
1020.0606	2932.2619	1052.7	175.75
1020.1753	2933.3634	1049.55	174.1
1020.2899	2934.4643	1063.4	181.2
1020.4044	2935.5645	1064.05	180.45
1020.5189	2936.6641	1064	182.6
1020.6334	2937.763	1056.75	180.75
1020.7478	2938.8613	1053.25	173.05
1020.8622	2939.959	1060.75	176.95
1020.9765	2941.056	1056.8	179.05
1021.0908	2942.1523	1049.65	170
1021.2051	2943.248	1038.6	161
1021.3193	2944.3431	1030.8	154.3
1021.4334	2945.4375	1019.95	139.9
1021.5476	2946.5313	1013.9	137
1021.6617	2947.6244	1008.15	128.95
1021.7757	2948.7169	999.5	123.15
1021.8897	2949.8087	995.6	118.85
1022.0037	2950.8999	991	112.45
1022.1176	2951.9904	985.05	108.15
1022.2315	2953.0803	979.85	100.45
1022.3453	2954.1696	975.7	98.35
1022.4591	2955.2582	973.65	95.4
1022.5728	2956.3462	969.1	90.75
1022.6865	2957.4335	966.7	87.9
1022.8002	2958.5202	967.85	87.2
1022.9138	2959.6062	965	86.75
1023.0274	2960.6916	961.85	84.5
1023.141	2961.7764	968.05	88
1023.2545	2962.8605	970.8	94.25
1023.3679	2963.9439	964.7	89.25
1023.4813	2965.0267	967.45	88.4
1023.5947	2966.1089	983.6	82.6
1023.708	2967.1905	963.3	84.9
1023.8213	2968.2714	965.15	89.7
1023.9346	2969.3516	960.4	82.1
1024.0478	2970.4312	970.95	86.5
1024.1609	2971.5102	960.4	83.8
1024.274	2972.5885	958.15	82.6
1024.3871	2973.6662	969.1	87.4
1024.5002	2974.7432	961.35	83.6
1024.6132	2975.8196	961.95	84
1024.7261	2976.8954	963.4	85.25
1024.839	2977.9705	964.2	85.3
1024.9519	2979.045	961.45	84.5
1025.0647	2980.1188	958.8	80.1
1025.1775	2981.192	961.7	84.55
1025.2902	2982.2645	959.7	80.3
1025.4029	2983.3364	961.55	83.85
1025.5156	2984.4077	957.1	80.35
1025.6282	2985.4783	961.8	78.3
1025.7407	2986.5483	954.35	77.95
1025.8532	2987.6177	950.15	72.95
1025.9657	2988.6864	949.45	70.3
1026.0782	2989.7545	946.3	65.7
1026.1906	2990.8219	941.5	64.45
1026.3029	2991.8887	942.25	63.15
1026.4152	2992.9548	937.95	59.4
1026.5275	2994.0204	936.4	60.1
1026.6397	2995.0852	929.7	52.15
1026.7519	2996.1495	929.6	51.85
1026.864	2997.2131	929.45	50.45
1026.9761	2998.276	925.85	47
1027.0882	2999.3383	921.5	42.6
1027.2002	3000.4	920.85	41.75
1027.3122	3001.4611	920.1	42.15
1027.4241	3002.5215	916.95	39.15
1027.536	3003.5812	913.15	34.7
1027.6478	3004.6404	913.75	34.75
1027.7596	3005.6989	913	32.85
1027.8714	3006.7567	912.75	36.05
1027.9831	3007.8139	943.8	33.65
1028.0947	3008.8705	907.75	29.05
1028.2064	3009.9264	911.35	30.2
1028.3179	3010.9818	910.85	33.65
1028.4295	3012.0364	909.4	32.3
1028.541	3013.0905	908.25	29.55
1028.6524	3014.1439	908.1	30.95
1028.7638	3015.1966	905.6	27.1
1028.8752	3016.2487	906.45	29.75
1028.9865	3017.3002	909.8	27.8
1029.0978	3018.3511	906	30.05
1029.209	3019.4013	905.8	28.65
1029.3202	3020.4509	904.6	25.05
1029.4314	3021.4998	906.65	29.2
1029.5425	3022.5481	906.45	30.35
1029.6535	3023.5958	905.9	27.8
1029.7645	3024.6428	904.85	23.8
1029.8755	3025.6892	903.85	29.65
1029.9864	3026.735	906.35	27.35
1030.0973	3027.7802	905.1	26.3
1030.2082	3028.8247	903.15	26.5
1030.319	3029.8685	903.55	24.25
1030.4297	3030.9118	905.7	25.5
1030.5404	3031.9544	902.85	25.7
1030.6511	3032.9963	902.95	25.2
1030.7617	3034.0376	905.4	28.1
1030.8723	3035.0783	908	28.3
1030.9829	3036.1184	904.75	25.65
1031.0934	3037.1578	904.35	28.75
1031.2038	3038.1966	907.9	28.55
1031.3142	3039.2348	905.2	28.85
1031.4246	3040.2723	914.05	27.75
1031.5349	3041.3092	903.95	27.55
1031.6452	3042.3455	904	27
1031.7554	3043.3811	905.4	27.2
1031.8656	3044.4161	906.6	26.75
1031.9758	3045.4505	902.05	26.6
1032.0859	3046.4842	907.3	29.6
1032.1959	3047.5173	903.65	28.45
1032.3059	3048.5498	905.9	27.5
1032.4159	3049.5816	906.3	28.95
1032.5258	3050.6128	909.55	32.6
1032.6357	3051.6434	907.45	28.65
1032.7455	3052.6734	907.6	30.25
1032.8553	3053.7027	904.05	28
1032.9651	3054.7314	904.25	27.3
1033.0748	3055.7594	904.4	28.15
1033.1845	3056.7868	907.05	29.2
1033.2941	3057.8136	904.9	28.7
1033.4037	3058.8398	905.2	29.25
1033.5132	3059.8653	904.85	25.2
1033.6227	3060.8902	907.1	30.55
1033.7321	3061.9145	905.85	29.1
1033.8415	3062.9381	907.4	30
1033.9509	3063.9612	921.5	26.85
1034.0602	3064.9835	908.45	30.4
1034.1694	3066.0053	908.15	28.3
1034.2787	3067.0264	906.8	29.8
1034.3878	3068.0469	907.05	29.35
1034.497	3069.0668	909.15	30.9
1034.6061	3070.086	906.45	31.7
1034.7151	3071.1046	905.45	27.05
1034.8241	3072.1226	907.75	28.15
1034.9331	3073.1399	906.8	28.75
1035.042	3074.1567	905.8	27.65
1035.1508	3075.1727	906.2	25.35
1035.2597	3076.1882	905.2	29.4
1035.3684	3077.203	905.05	27.5
1035.4772	3078.2173	903.4	25.55
1035.5859	3079.2308	904.75	23.7
1035.6945	3080.2438	904.15	24.3
1035.8031	3081.2561	899.7	23.25
1035.9117	3082.2678	899.45	23.65
1036.0202	3083.2789	900.75	23.3
1036.1286	3084.2893	897.05	17.95
1036.2371	3085.2991	898.85	22.85
1036.3454	3086.3083	904.75	21.15
1036.4538	3087.3169	899.7	20.65
1036.562	3088.3248	899.35	19.3
1036.6703	3089.3321	898.9	21.6
1036.7785	3090.3388	898	21.35
1036.8866	3091.3449	896.35	18.95
1036.9948	3092.3503	898	18.05
1037.1028	3093.3551	896.5	22.25
1037.2108	3094.3593	895.8	21.8
1037.3188	3095.3629	895.25	16.5
1037.4267	3096.3658	897.3	18.8
1037.5346	3097.3681	896.65	20.6
1037.6425	3098.3698	899.9	20.8
1037.7503	3099.3708	899.75	24.1
1037.858	3100.3713	895.3	17.45
1037.9657	3101.3711	895.4	17.8
1038.0734	3102.3702	1030.05	21
1038.181	3103.3688	897.85	17.8
1038.2886	3104.3667	893.5	19.25
1038.3961	3105.364	896.4	20.9
1038.5036	3106.3607	895.25	15.15
1038.611	3107.3568	895.5	18.05
1038.7184	3108.3522	892.2	15.7
1038.8257	3109.347	895.75	16.25
1038.933	3110.3412	896.85	13.95
1039.0403	3111.3348	894	16.05
1039.1475	3112.3277	893.65	16.05
1039.2547	3113.32	890.8	14.65
1039.3618	3114.3117	893.8	15.85
1039.4689	3115.3028	892.35	15.8
1039.5759	3116.2932	892.7	14.95
1039.6829	3117.2831	896.85	13.55
1039.7898	3118.2723	894.75	21.05
1039.8967	3119.2608	890.85	13.15
1040.0035	3120.2488	892.1	16
1040.1103	3121.2361	891.95	15.65
1040.2171	3122.2229	891.45	14.8
1040.3238	3123.209	891.95	13
1040.4305	3124.1944	889.7	13.55
1040.5371	3125.1793	891.65	13.65
1040.6437	3126.1635	891.4	17.8
1040.7502	3127.1471	891.15	17.1
1040.8567	3128.1301	890.3	12.55
1040.9631	3129.1125	891.8	16.1
1041.0695	3130.0942	888.05	11.05
1041.1759	3131.0753	898.85	13
1041.2822	3132.0558	893.6	16.35
1041.3884	3133.0357	890.5	10.45
1041.4946	3134.015	890.1	11.55
1041.6008	3134.9936	889.35	10.1
1041.7069	3135.9716	910.5	9.5
1041.813	3136.949	892.1	14.9
1041.919	3137.9258	908.75	12.8
1042.025	3138.902	895.4	12.8
1042.1309	3139.8775	889.15	11.15
1042.2368	3140.8524	888.35	10.45
1042.3427	3141.8267	889.5	10.55
1042.4485	3142.8004	890.25	13.4
1042.5542	3143.7735	895.7	12.65
1042.6599	3144.7459	891.2	13.9
1042.7656	3145.7178	890.15	11.8
1042.8712	3146.689	887.2	11.4
1042.9768	3147.6596	888.6	9.2
1043.0823	3148.6295	889.15	11.7
1043.1878	3149.5989	887.65	11.6
1043.2932	3150.5676	887	11.75
1043.3986	3151.5357	885.1	9.7
1043.5039	3152.5032	886.45	9.2
1043.6092	3153.4701	889.15	11.3
1043.7145	3154.4364	890.2	11.45
1043.8197	3155.402	887.15	11.5
1043.9248	3156.367	889.05	10.15
1044.03	3157.3315	932.3	11.95
1044.135	3158.2952	889.5	13.75
1044.24	3159.2584	887.1	10.3
1044.345	3160.221	888.45	11.15
1044.4499	3161.1829	887.2	12.1
1044.5548	3162.1442	888.25	10.4
1044.6596	3163.105	887.6	11.9
1044.7644	3164.065	887.65	9.7
1044.8692	3165.0245	891.2	11.35
1044.9739	3165.9834	885.95	9.35
1045.0785	3166.9416	887.4	10.65
1045.1831	3167.8993	887.25	9.7
1045.2877	3168.8563	888.2	9.6
1045.3922	3169.8127	885.55	8.2
1045.4966	3170.7684	885.75	7.55
1045.6011	3171.7236	887.55	9
1045.7054	3172.6782	888.7	13
1045.8098	3173.6321	885.9	6.9
1045.914	3174.5854	890.75	9.2
1046.0183	3175.5381	887.3	10.75
1046.1224	3176.4902	883.95	7.4
1046.2266	3177.4417	884.45	8.7
1046.3307	3178.3926	887.9	10.7
1046.4347	3179.3428	883	6.9
1046.5387	3180.2924	885.65	9.15
1046.6427	3181.2415	884.95	7.05
1046.7466	3182.1899	885.85	7.2
1046.8504	3183.1377	887.15	10.35
1046.9542	3184.0848	889.75	10.25
1047.058	3185.0314	884.05	7.55
1047.1617	3185.9773	886.55	7.8
1047.2654	3186.9227	887.15	12.2
1047.369	3187.8674	886.65	9.15
1047.4726	3188.8115	891.55	10.4
1047.5761	3189.755	884.85	8.45
1047.6796	3190.6979	884.4	6.7
1047.783	3191.6402	882.85	5.95
1047.8864	3192.5818	884.65	8.45
1047.9898	3193.5229	909.85	8.35
1048.0931	3194.4633	885.5	9.25
1048.1963	3195.4031	885.3	6.95
1048.2995	3196.3423	884.25	4.95
1048.4027	3197.2809	886.1	8.3
1048.5058	3198.2189	886.85	8.9
1048.6089	3199.1563	890	6.6
1048.7119	3200.0931	886	9.85
1048.8148	3201.0292	882.15	6.15
1048.9178	3201.9648	883.5	4.7
1049.0206	3202.8997	887.65	7.4
1049.1235	3203.834	885.9	8.5
1049.2262	3204.7677	885.35	9
1049.329	3205.7008	888.3	11.25
1049.4317	3206.6333	883.15	7.8
1049.5343	3207.5652	887.15	9.35
1049.6369	3208.4964	884.35	7.2
1049.7394	3209.4271	883.4	8.8
1049.8419	3210.3571	883.15	6.75
1049.9444	3211.2865	883.9	8
1050.0468	3212.2154	883.7	5.45
1050.1491	3213.1436	888.65	10.25
1050.2514	3214.0712	890.2	5.75
1050.3537	3214.9982	885.75	10.1
1050.4559	3215.9246	884.45	7.6
1050.5581	3216.8503	882.85	6.9
1050.6602	3217.7755	885.65	8
1050.7623	3218.7001	883	6.75
1050.8643	3219.624	884.2	7.35
1050.9663	3220.5473	885.95	10.6
1051.0682	3221.4701	884.05	5.4
1051.1701	3222.3922	885.3	5.75
1051.2719	3223.3137	883.45	6.85
1051.3737	3224.2346	884.65	7.55
1051.4754	3225.1549	881.55	5.65
1051.5771	3226.0746	880.05	2.65
1051.6788	3226.9937	884.4	7.95
1051.7804	3227.9121	882.15	4.6
1051.8819	3228.83	884.35	9.1
1051.9834	3229.7473	881.3	1.85
1052.0849	3230.6639	882.9	4.9
1052.1863	3231.5799	885.15	9.25
1052.2876	3232.4954	884.8	6.65
1052.3889	3233.4102	883.35	6.55
1052.4902	3234.3244	882.85	8.3
1052.5914	3235.238	883.2	5.2
1052.6926	3236.151	906.35	5.6
1052.7937	3237.0634	881.55	4.9
1052.8948	3237.9752	880.4	1.85
1052.9958	3238.8864	884.2	6.3
1053.0968	3239.797	886.45	8.2
1053.1977	3240.7069	884.65	6
1053.2986	3241.6163	885.6	8.05
1053.3994	3242.5251	882.7	6.15
1053.5002	3243.4332	883	6.3
1053.6009	3244.3408	883	6.55
1053.7016	3245.2477	880.3	4.35
1053.8022	3246.154	884	6.35
1053.9028	3247.0598	882.75	4.8
1054.0034	3247.9649	882.8	5.2
1054.1039	3248.8694	884.45	7.4
1054.2043	3249.7733	882.9	6.45
1054.3047	3250.6766	884.05	9.05
1054.4051	3251.5793	882.6	3.95
1054.5054	3252.4814	880.9	5.7
1054.6056	3253.3829	883.7	9.8
1054.7058	3254.2838	881.4	5.55
1054.806	3255.1841	882.55	6
1054.9061	3256.0838	879.85	3.45
1055.0061	3256.9829	882.05	7.15
1055.1062	3257.8814	884.6	5.5
1055.2061	3258.7792	884.1	3.55
1055.306	3259.6765	881.4	4.8
1055.4059	3260.5731	880.45	3.8
1055.5057	3261.4692	882.55	7.1
1055.6055	3262.3647	883.6	6.65
1055.7052	3263.2595	880.6	6.05
1055.8049	3264.1538	881.25	4.1
1055.9045	3265.0474	882.95	6.9
1056.0041	3265.9404	880.5	3.8
1056.1036	3266.8329	880.7	3.85
1056.2031	3267.7247	889.55	3.05
1056.3025	3268.616	879.55	3.8
1056.4019	3269.5066	882.55	5
1056.5013	3270.3966	880.75	3.3
1056.6005	3271.286	878.35	2.1
