Software Version:	3.9.2.0
Unit SN:	10000200
Spectrometer SN:	6960
Date:	3/8/2024 12:43:57 PM
Data Line Index:	25
Spectral Points:	2048
Integration time (ms):	125
Averages:	20
Delay (ms):	30000
Sequence Number:	1
Processing:	dark subtract
Laser Power (mW):	305
Laser Current (mA):	822
Laser Diode Temp (C):	25
Laser Case Temp (C):	26.1
System Temp (C):	26.1
Spectrometer Temp (C):	24
CCD Temp (C):	-0.009
Secondary Temp (C):	20.007
Heatsink Temp (C):	21.096
CCDPCB Temp (C):	36.307
SecondaryPCB Temp (C):	30.093

Wavelength	RamanShift	Raw Counts	Dark Subtracted
787.061	30.1047	454.5	46.3
787.2016	32.3739	455.35	47.85
787.3422	34.6426	459.4	51.9
787.4828	36.9109	465.5	54.15
787.6235	39.1787	475.3	59.95
787.7642	41.4461	483.7	63.3
787.9049	43.7131	492.4	70.2
788.0456	45.9796	499.05	74.7
788.1863	48.2456	509.4	79.6
788.3271	50.5112	519.3	85.65
788.4679	52.7764	528.8	90.65
788.6087	55.0411	536.85	95.95
788.7496	57.3054	549.8	103.8
788.8904	59.5692	558.95	111.2
789.0313	61.8326	567.4	117.05
789.1722	64.0955	579.95	127.6
789.3132	66.3579	597.8	140
789.4541	68.6199	613.55	149.95
789.5951	70.8815	649.35	181.55
789.7361	73.1426	733.2	261.45
789.8771	75.4032	946.3	471.05
790.0181	77.6634	1464.75	983.1
790.1592	79.9231	2684.25	2193.75
790.3003	82.1824	5337.5	4825
790.4414	84.4412	10041.9	9496.55
790.5825	86.6995	16426.9	15833.45
790.7237	88.9574	22570.25	21938.05
790.8648	91.2148	26745.2	26085.75
791.006	93.4717	28558.15	27881.55
791.1472	95.7282	28796.05	28112.7
791.2885	97.9842	28464.65	27776.9
791.4297	100.2398	27669.25	26978.45
791.571	102.4949	26792	26099.8
791.7123	104.7495	25840.95	25145.85
791.8536	107.0036	24904.2	24205.7
791.9949	109.2573	24034.4	23337.8
792.1363	111.5105	23287.65	22589.85
792.2777	113.7632	22631.55	21930.35
792.4191	116.0154	22049.05	21332.55
792.5605	118.2672	21647.8	20941
792.7019	120.5185	21259.15	20552.6
792.8434	122.7693	20932.2	20224.1
792.9849	125.0197	20685.75	19973.7
793.1264	127.2696	20373.7	19658.1
793.2679	129.519	20210.25	19491.95
793.4094	131.7679	19929.85	19203.95
793.551	134.0163	19649.85	18920.75
793.6926	136.2642	19277.6	18544.85
793.8342	138.5117	18916.15	18174.1
793.9758	140.7587	18513.75	17774.65
794.1175	143.0052	18179.35	17440.2
794.2591	145.2512	17828	17090.9
794.4008	147.4967	17476.4	16738.25
794.5425	149.7417	17273.45	16531.7
794.6842	151.9863	17067.95	16319.6
794.826	154.2304	16963.15	16212.7
794.9677	156.4739	16800.7	16045
795.1095	158.717	16656.4	15899.7
795.2513	160.9596	16482.75	15720.85
795.3931	163.2017	16195.5	15431.35
795.535	165.4433	15926.95	15163.2
795.6768	167.6844	15600.75	14833.1
795.8187	169.925	15296.75	14529.45
795.9606	172.1651	14919.1	14152.1
796.1025	174.4047	14682.2	13909.55
796.2445	176.6439	14420.7	13646.4
796.3864	178.8825	14221.95	13444.7
796.5284	181.1206	14083.65	13299.3
796.6704	183.3582	13932	13144.35
796.8124	185.5954	13830.7	13034.95
796.9544	187.832	13780.3	12989.15
797.0965	190.0681	13749.6	12956.35
797.2386	192.3037	13745.45	12945.55
797.3806	194.5388	13765.25	12964
797.5228	196.7734	13787.7	12984.8
797.6649	199.0075	13838.8	13030.35
797.807	201.2411	13988.45	13177.9
797.9492	203.4742	14046.3	13238.95
798.0914	205.7068	14199.5	13391.1
798.2336	207.9389	14343.8	13529.8
798.3758	210.1704	14477.15	13667.2
798.518	212.4015	14598.9	13799.2
798.6603	214.632	14729.45	13935.15
798.8025	216.862	14864.05	14074.45
798.9448	219.0915	14966.05	14169.15
799.0871	221.3205	15089.05	14295.45
799.2294	223.549	15194.3	14401.75
799.3718	225.777	15268.35	14477.8
799.5141	228.0044	15359.1	14564.85
799.6565	230.2314	15489	14690.85
799.7989	232.4578	15586.6	14783.8
799.9413	234.6837	15697.45	14893.3
800.0837	236.909	15772.8	14964.4
800.2262	239.1339	15779.05	14941.9
800.3687	241.3582	15718.9	14896
800.5111	243.582	15629.15	14776.65
800.6536	245.8053	15570.3	14732.35
800.7961	248.0281	15449.25	14615.2
800.9387	250.2503	15464.6	14625.3
801.0812	252.472	15534.15	14692.3
801.2238	254.6932	15644.9	14802.75
801.3664	256.9139	15736.5	14894.8
801.509	259.134	15980.1	15134.6
801.6516	261.3536	16210.55	15370.05
801.7942	263.5727	16513.9	15669.8
801.9369	265.7912	16757.45	15917.1
802.0795	268.0092	17069.1	16227.05
802.2222	270.2267	17313.75	16468.55
802.3649	272.4436	17432.8	16590.65
802.5076	274.6601	17483.95	16624.6
802.6504	276.8759	17352.35	16504.55
802.7931	279.0913	17285.4	16436.65
802.9359	281.3061	17139.25	16291.85
803.0787	283.5204	17106.05	16247.2
803.2215	285.7341	17058.5	16195.6
803.3643	287.9473	17095.55	16226.65
803.5071	290.16	17122.05	16261.1
803.6499	292.3721	17202.55	16347.15
803.7928	294.5837	17420.6	16560.6
803.9357	296.7947	17629.6	16771.5
804.0786	299.0052	17800.2	16938.9
804.2215	301.2152	17755.15	16898.5
804.3644	303.4246	17623.4	16766.2
804.5074	305.6334	17248.45	16394.65
804.6503	307.8418	16885.8	16026.15
804.7933	310.0495	16472.1	15613.2
804.9363	312.2568	16052.1	15191.4
805.0793	314.4635	15633.3	14768.35
805.2223	316.6696	15342	14472.75
805.3653	318.8752	15123.9	14246.45
805.5084	321.0802	15000	14127.55
805.6514	323.2847	15025.25	14154.85
805.7945	325.4887	15077.55	14205.15
805.9376	327.692	15027.15	14150.35
806.0807	329.8949	15013.35	14141.55
806.2238	332.0972	14833.8	13953.25
806.367	334.2989	14663.5	13783.05
806.5101	336.5001	14405.6	13525.5
806.6533	338.7007	14149.1	13269.4
806.7965	340.9008	14012.95	13135.85
806.9397	343.1003	13847.35	12965.2
807.0829	345.2992	13715.15	12833.4
807.2261	347.4976	13616.75	12730.75
807.3693	349.6955	13555.3	12667.15
807.5126	351.8927	13547.7	12660.2
807.6559	354.0895	13477.85	12576
807.7991	356.2856	13458.4	12567.25
807.9424	358.4812	13387.15	12496.6
808.0857	360.6763	13402.9	12511.3
808.2291	362.8707	13351.95	12456.2
808.3724	365.0646	13414.5	12513.75
808.5158	367.258	13423.85	12527.4
808.6591	369.4508	13508.85	12612.85
808.8025	371.643	13669	12768.75
808.9459	373.8346	13711.35	12804.35
809.0893	376.0257	13820	12916.05
809.2327	378.2162	13834.65	12931.6
809.3762	380.4062	13830.6	12925.45
809.5196	382.5956	13758.05	12856.55
809.6631	384.7844	13611.15	12714
809.8066	386.9726	13484.55	12592.9
809.9501	389.1603	13367.2	12475.35
810.0936	391.3474	13338.35	12421.05
810.2371	393.5339	13289.85	12391.35
810.3806	395.7199	13251.75	12360.2
810.5241	397.9052	13319	12425.35
810.6677	400.09	13381.4	12486.05
810.8113	402.2743	13529.2	12638.95
810.9548	404.4579	13722.2	12829.55
811.0984	406.641	13935.05	13035.55
811.2421	408.8235	14089.85	13192.75
811.3857	411.0054	14226.5	13327.5
811.5293	413.1868	14410.1	13505.95
811.673	415.3675	14456.95	13546.5
811.8166	417.5477	14452.25	13547.15
811.9603	419.7273	14435.8	13526.4
812.104	421.9064	14324.05	13412.7
812.2477	424.0848	14255.1	13347.6
812.3914	426.2627	14116.15	13208.25
812.5351	428.4399	13889.05	12978.7
812.6788	430.6166	13557.8	12643.8
812.8226	432.7928	13234.25	12319.3
812.9663	434.9683	12954.3	12042.95
813.1101	437.1432	12730.25	11820.05
813.2539	439.3176	12529.75	11627.8
813.3977	441.4914	12420	11522.85
813.5415	443.6645	12417.7	11515.95
813.6853	445.8371	12336.9	11428.7
813.8291	448.0091	12283.1	11375.35
813.973	450.1806	12262.15	11357.3
814.1168	452.3514	12242.6	11337.45
814.2607	454.5216	12301.35	11385.85
814.4046	456.6913	12275.55	11364.7
814.5485	458.8603	12343.2	11429.1
814.6924	461.0288	12371.7	11471.45
814.8363	463.1967	12332.4	11434.25
814.9802	465.3639	12364.5	11460.8
815.1241	467.5306	12339.05	11431.3
815.2681	469.6967	12350.2	11446.35
815.412	471.8622	12376.85	11475.75
815.556	474.0271	12445.7	11543.45
815.7	476.1914	12484.4	11568.45
815.844	478.3551	12470.1	11564.2
815.988	480.5182	12534.6	11631.55
816.132	482.6807	12599	11700.5
816.276	484.8426	12789.65	11902.45
816.4201	487.0039	13117.15	12220
816.5641	489.1647	13502.75	12596.65
816.7082	491.3248	13826.35	12917.5
816.8522	493.4843	13918	13017.25
816.9963	495.6432	13913.9	13010.25
817.1404	497.8015	13744.85	12831.2
817.2845	499.9592	13660.95	12738.5
817.4286	502.1163	13475.85	12556.6
817.5727	504.2728	13148.8	12239.55
817.7168	506.4287	12877.65	11977.7
817.861	508.5839	12531.8	11633
818.0051	510.7386	12363.25	11455.7
818.1493	512.8927	12285.1	11362.8
818.2935	515.0461	12225.9	11309.55
818.4377	517.199	12321.65	11396.1
818.5818	519.3512	12509.95	11585.85
818.726	521.5029	12798.25	11873.95
818.8703	523.6539	13022.9	12103.55
819.0145	525.8043	13143.4	12225.3
819.1587	527.9541	13097.15	12175.2
819.303	530.1033	12887.85	11968.25
819.4472	532.2519	12708.2	11789
819.5915	534.3999	12671	11748.75
819.7357	536.5472	12693.45	11777.3
819.88	538.694	12904.9	11988.15
820.0243	540.8401	13178	12253
820.1686	542.9856	13391.85	12462.35
820.3129	545.1305	13395.05	12457.55
820.4572	547.2748	13349.5	12412.05
820.6016	549.4185	13172.85	12227.65
820.7459	551.5615	13066	12126.15
820.8902	553.704	13059.25	12120.45
821.0346	555.8458	13080.35	12146.1
821.1789	557.987	13267.15	12335.4
821.3233	560.1276	13505.35	12570.25
821.4677	562.2675	13950.9	13015.5
821.6121	564.4069	14461.7	13526.35
821.7565	566.5456	14909.1	13981.2
821.9009	568.6837	15076	14146.35
822.0453	570.8212	14670.85	13742.5
822.1897	572.958	13977.65	13052.1
822.3342	575.0942	13317.25	12392.55
822.4786	577.2299	12854.75	11936
822.6231	579.3648	12669.15	11763.2
822.7675	581.4992	12563.2	11668.25
822.912	583.6329	12655.65	11762.3
823.0565	585.766	12817.95	11915.9
823.201	587.8985	12987.8	12077.5
823.3454	590.0304	13070.2	12128.15
823.4899	592.1616	12990.3	12060.2
823.6345	594.2922	12892.45	11956.25
823.779	596.4222	12699.75	11763.5
823.9235	598.5515	12526	11587.9
824.068	600.6802	12337.35	11398.75
824.2126	602.8083	12172.3	11242.9
824.3571	604.9358	12145.8	11209.3
824.5017	607.0626	12145.65	11206.5
824.6462	609.1888	12277.35	11336.7
824.7908	611.3144	12415.3	11472.15
824.9354	613.4393	12569	11628.95
825.08	615.5636	12691.95	11748.55
825.2246	617.6873	12687.8	11749
825.3692	619.8103	12654.45	11710
825.5138	621.9327	12426.6	11486.55
825.6584	624.0544	12227.25	11295.95
825.803	626.1756	12019.8	11086.6
825.9477	628.2961	11853.3	10913.55
826.0923	630.4159	11808.05	10866.3
826.237	632.5351	11755.6	10812.5
826.3816	634.6537	11744.65	10802.55
826.5263	636.7716	11769.55	10820.05
826.6709	638.8889	11781.8	10830.35
826.8156	641.0056	11816.35	10862.35
826.9603	643.1216	11792.9	10845.45
827.105	645.237	11741.25	10795.4
827.2497	647.3518	11641.45	10704.2
827.3944	649.4659	11580.9	10649.3
827.5391	651.5793	11514.65	10584.85
827.6838	653.6922	11479.3	10542.5
827.8285	655.8043	11455.95	10516.6
827.9733	657.9159	11462.1	10522.05
828.118	660.0268	11457.75	10523.05
828.2627	662.137	11456.95	10519.1
828.4075	664.2466	11482.85	10532.25
828.5522	666.3556	11446.3	10500.95
828.697	668.4639	11386.45	10443.9
828.8418	670.5716	11363.5	10428.05
828.9865	672.6786	11337	10392.1
829.1313	674.785	11272.25	10322.15
829.2761	676.8907	11260.4	10319.1
829.4209	678.9958	11255.65	10323.35
829.5657	681.1002	11202.25	10259.6
829.7105	683.204	11207.7	10252.85
829.8553	685.3072	11183.3	10231.8
830.0001	687.4097	11146.4	10200.1
830.1449	689.5115	11173.8	10223.55
830.2898	691.6127	11176.8	10228.95
830.4346	693.7132	11133.55	10190.85
830.5794	695.8131	11207.9	10241.95
830.7243	697.9123	11173.5	10215.4
830.8691	700.0109	11205.5	10246.95
831.014	702.1089	11254.4	10303.3
831.1588	704.2061	11316.15	10366.3
831.3037	706.3028	11381.9	10431.35
831.4486	708.3987	11412.3	10462.4
831.5935	710.4941	11434.65	10483.8
831.7383	712.5887	11472.05	10523.85
831.8832	714.6827	11561.85	10608.7
832.0281	716.7761	11684.1	10741.75
832.173	718.8688	11836.15	10890.25
832.3179	720.9608	11979.7	11023.55
832.4628	723.0522	12129.05	11167.65
832.6077	725.1429	12193.95	11239.8
832.7527	727.233	12254.65	11299.2
832.8976	729.3224	12350.75	11398.4
833.0425	731.4112	12276.35	11324.15
833.1874	733.4993	12111.95	11158.65
833.3324	735.5867	11900.85	10950.95
833.4773	737.6735	11675.8	10719.5
833.6222	739.7596	11490.55	10532.55
833.7672	741.845	11343.75	10387.85
833.9122	743.9298	11233.75	10277.55
834.0571	746.014	11220.2	10268.4
834.2021	748.0974	11208.5	10246.45
834.347	750.1802	11181.9	10221.95
834.492	752.2624	11209.25	10248.25
834.637	754.3439	11262.45	10300.55
834.782	756.4247	11363.6	10396.35
834.9269	758.5048	11552.15	10597.55
835.0719	760.5843	11853.15	10893.7
835.2169	762.6631	12235.25	11277.9
835.3619	764.7413	12839.25	11878.3
835.5069	766.8188	13525.8	12565.35
835.6519	768.8956	14133	13173.6
835.7969	770.9718	14521.35	13562.15
835.9419	773.0473	14456.8	13499.9
836.0869	775.1221	14216.5	13257.8
836.232	777.1962	13968.95	13009.3
836.377	779.2697	13861.15	12897.45
836.522	781.3426	13906.4	12936.35
836.667	783.4147	13994.05	13029.85
836.8121	785.4862	14084.05	13123.75
836.9571	787.557	13886.7	12924.5
837.1021	789.6271	13428.45	12464.65
837.2472	791.6966	12798.6	11833.1
837.3922	793.7654	12159.55	11198.55
837.5373	795.8335	11758.05	10796.85
837.6823	797.901	11436.7	10473.85
837.8274	799.9678	11270.05	10306.75
837.9724	802.0339	11161.15	10199.2
838.1175	804.0993	11155.55	10183.95
838.2626	806.1641	11065.65	10100.95
838.4076	808.2282	10984.25	10020.3
838.5527	810.2916	10926.55	9964.1
838.6978	812.3544	10835.1	9875.1
838.8428	814.4164	10790	9832
838.9879	816.4778	10826.35	9858.5
839.133	818.5385	10874.65	9909.2
839.2781	820.5986	11012.05	10045.15
839.4232	822.658	11259.7	10291.05
839.5682	824.7166	11616.95	10650.5
839.7133	826.7747	12130.15	11163.9
839.8584	828.832	12653.9	11688.1
840.0035	830.8886	13061.65	12093.55
840.1486	832.9446	13264.95	12298.8
840.2937	834.9999	13148.45	12182.7
840.4388	837.0545	12815.3	11845.65
840.5839	839.1085	12425.85	11458.6
840.729	841.1618	12140	11171.55
840.8741	843.2143	11851.85	10886.5
841.0192	845.2662	11632.1	10667.45
841.1643	847.3175	11494.35	10524.95
841.3095	849.368	11369	10402.4
841.4546	851.4179	11281.45	10319.7
841.5997	853.467	11188.75	10222.25
841.7448	855.5155	11147.75	10181.65
841.8899	857.5633	11049.9	10082.8
842.0351	859.6105	10986.2	10016.4
842.1802	861.6569	10903.7	9935.2
842.3253	863.7027	10796.45	9826.8
842.4704	865.7478	10762.95	9793.1
842.6156	867.7922	10726.55	9758.35
842.7607	869.8359	10670.3	9704.95
842.9058	871.8789	10737.2	9764.95
843.0509	873.9212	10828.85	9827.3
843.1961	875.9629	10878.85	9907.7
843.3412	878.0039	10984.05	10012.7
843.4863	880.0441	11071.9	10101.15
843.6315	882.0837	11123	10158.4
843.7766	884.1226	11194.55	10223.2
843.9218	886.1609	11250.3	10283.05
844.0669	888.1984	11345.3	10378.15
844.212	890.2352	11483.75	10510.5
844.3572	892.2714	11530.3	10558.1
844.5023	894.3069	11467.45	10499.75
844.6475	896.3416	11290.25	10319.1
844.7926	898.3757	11120.25	10149.9
844.9377	900.4091	11035.1	10062.85
845.0829	902.4418	11037.1	10059.1
845.228	904.4739	11046.6	10071.8
845.3732	906.5052	11113.45	10139.2
845.5183	908.5358	11066.45	10094.3
845.6635	910.5658	10956.7	9983.2
845.8086	912.595	10749.8	9778.05
845.9538	914.6236	10518.1	9546.7
846.0989	916.6515	10388.4	9420.65
846.2441	918.6786	10298.55	9324.1
846.3892	920.7051	10280.65	9304.95
846.5344	922.7309	10302.7	9328.75
846.6795	924.756	10353.45	9382.5
846.8246	926.7804	10406.55	9431.65
846.9698	928.8041	10396.35	9420.95
847.1149	930.8272	10483.6	9511.65
847.2601	932.8495	10444.45	9470.7
847.4052	934.8711	10436.8	9459.95
847.5504	936.892	10390.2	9417.7
847.6955	938.9123	10394.85	9421.95
847.8407	940.9318	10411.65	9438.4
847.9858	942.9506	10403.9	9432.25
848.131	944.9688	10355.6	9384.35
848.2761	946.9862	10291.9	9320.5
848.4213	949.003	10130.85	9156.25
848.5664	951.019	10019.65	9048.35
848.7115	953.0344	9961.55	8991.8
848.8567	955.0491	9926.15	8953.15
849.0018	957.063	9964.7	8994
849.147	959.0763	10020.9	9051.15
849.2921	961.0888	10065.6	9096.25
849.4373	963.1007	10121.4	9148
849.5824	965.1119	10146.9	9186.55
849.7275	967.1223	10138.6	9187.6
849.8727	969.1321	10121.45	9168.45
850.0178	971.1412	10117.2	9156.2
850.1629	973.1495	10087.75	9122.9
850.3081	975.1572	10142.1	9126.9
850.4532	977.1641	10122.65	9150.55
850.5983	979.1704	10088.5	9115.25
850.7435	981.1759	10060.85	9085.55
850.8886	983.1808	10058.15	9087.65
851.0337	985.1849	10098.4	9118.35
851.1788	987.1884	10136.8	9163.3
851.324	989.1911	10216	9245.2
851.4691	991.1932	10306	9335.05
851.6142	993.1945	10325.05	9356.9
851.7593	995.1951	10279.75	9308.15
851.9045	997.1951	10266.1	9289.2
852.0496	999.1943	10211.55	9240.65
852.1947	1001.1928	10218.2	9246.65
852.3398	1003.1906	10258.15	9287.65
852.4849	1005.1877	10390.55	9419.25
852.63	1007.1841	10474.9	9508.9
852.7751	1009.1798	10501.25	9529.55
852.9202	1011.1748	10451.65	9479
853.0653	1013.1691	10294.55	9323.4
853.2104	1015.1627	10104.55	9135.8
853.3555	1017.1556	9881.65	8915.95
853.5006	1019.1477	9739.2	8776.8
853.6457	1021.1392	9618.05	8660.3
853.7908	1023.1299	9580.3	8626.75
853.9359	1025.12	9597.85	8649.25
854.081	1027.1093	9660.45	8725.05
854.2261	1029.0979	9757.25	8824
854.3712	1031.0859	9838.9	8895.5
854.5163	1033.0731	9910	8957.3
854.6613	1035.0596	9846.45	8887.65
854.8064	1037.0454	9769.85	8808.35
854.9515	1039.0304	9636.85	8669.7
855.0965	1041.0148	9549	8582.25
855.2416	1042.9985	9444.4	8472.4
855.3867	1044.9814	9396.05	8431.3
855.5317	1046.9636	9340.2	8375.55
855.6768	1048.9452	9336.1	8372.65
855.8219	1050.926	9371.55	8404.55
855.9669	1052.9061	9379.4	8416.3
856.112	1054.8855	9425.25	8459.1
856.257	1056.8642	9465.4	8499.1
856.4021	1058.8421	9512.8	8540.6
856.5471	1060.8194	9520.6	8551.8
856.6921	1062.7959	9587.45	8619.9
856.8372	1064.7717	9648.4	8678.4
856.9822	1066.7469	9730.7	8764.55
857.1272	1068.7213	9795.45	8822.5
857.2723	1070.695	9905.55	8938.2
857.4173	1072.6679	9954.85	8985.2
857.5623	1074.6402	9939.2	8971.55
857.7073	1076.6117	9914.35	8942.1
857.8523	1078.5826	9809.4	8839.8
857.9973	1080.5527	9668.55	8699.2
858.1423	1082.5221	9552.35	8585.15
858.2873	1084.4908	9528.95	8562.95
858.4323	1086.4587	9533.15	8563.65
858.5773	1088.426	9583.55	8614.65
858.7223	1090.3925	9584.9	8612
858.8673	1092.3584	9621.25	8655.65
859.0123	1094.3235	9638.45	8671.95
859.1573	1096.2879	9718.3	8753.35
859.3022	1098.2515	9851.05	8886.05
859.4472	1100.2145	10026	9063.75
859.5922	1102.1767	10198.55	9228.7
859.7371	1104.1382	10428.5	9464.8
859.8821	1106.099	10687.3	9721.65
860.027	1108.0591	10937.7	9973.4
860.172	1110.0185	11092.75	10129.5
860.3169	1111.9771	11140.95	10176.55
860.4619	1113.9351	11075.85	10112.8
860.6068	1115.8923	10933.85	9968.4
860.7517	1117.8488	10814.85	9851.75
860.8967	1119.8045	10623.45	9661.7
861.0416	1121.7596	10501.75	9539.3
861.1865	1123.7139	10370.75	9409.4
861.3314	1125.6675	10298.5	9338.55
861.4763	1127.6204	10324.05	9361.2
861.6212	1129.5726	10281.25	9315.8
861.7661	1131.524	10185.55	9221.75
861.911	1133.4748	10063.45	9098.15
862.0559	1135.4248	9846.2	8878.35
862.2008	1137.3741	9688.4	8726.3
862.3457	1139.3226	9570.6	8603.25
862.4905	1141.2705	9507.1	8544
862.6354	1143.2176	9440.45	8470.5
862.7803	1145.164	9409	8443.05
862.9251	1147.1097	9327.8	8365.2
863.07	1149.0546	9241.2	8275.7
863.2148	1150.9989	9131.45	8165.2
863.3597	1152.9424	9043.6	8077.9
863.5045	1154.8852	8953.95	7991.75
863.6493	1156.8272	8919.5	7954
863.7942	1158.7686	8925.2	7956.1
863.939	1160.7092	8955.55	7992.3
864.0838	1162.6491	8988.15	8021.5
864.2286	1164.5883	9079.25	8116
864.3734	1166.5267	9209.45	8242.85
864.5182	1168.4644	9377.2	8412.2
864.663	1170.4014	9575.85	8610.65
864.8078	1172.3377	9828.3	8868.1
864.9526	1174.2732	10156.9	9197.95
865.0974	1176.2081	10583.95	9619.9
865.2421	1178.1421	11072.4	10106.95
865.3869	1180.0755	11627.55	10666.3
865.5317	1182.0082	12031.3	11072.2
865.6764	1183.9401	12197.8	11238.3
865.8212	1185.8713	12024.25	11073.1
865.9659	1187.8017	11694.1	10748.5
866.1106	1189.7315	11291.65	10356.45
866.2554	1191.6605	10878.95	9944.05
866.4001	1193.5888	10569.25	9625.8
866.5448	1195.5163	10416.75	9463.35
866.6895	1197.4432	10309.3	9356.1
866.8342	1199.3693	10284.85	9330.15
866.9789	1201.2947	10212	9246.6
867.1236	1203.2193	10184.35	9222.45
867.2683	1205.1432	10185.75	9227.2
867.413	1207.0664	10143.35	9185.5
867.5576	1208.9889	10129.8	9169.35
867.7023	1210.9106	10104.6	9146.7
867.847	1212.8316	10126.1	9169.4
867.9916	1214.7519	10146.6	9181.3
868.1363	1216.6715	10186.15	9225.35
868.2809	1218.5903	10256.9	9300.15
868.4255	1220.5084	10340.55	9383.25
868.5701	1222.4257	10446.7	9490.95
868.7148	1224.3424	10496.45	9538.65
868.8594	1226.2583	10616.85	9656.3
869.004	1228.1735	10768.85	9811.45
869.1486	1230.0879	10931.65	9970.7
869.2932	1232.0016	11130.65	10172.95
869.4377	1233.9146	11257.8	10297.25
869.5823	1235.8269	11310.9	10353.85
869.7269	1237.7384	11308.85	10349.95
869.8715	1239.6492	11163.65	10209.15
870.016	1241.5592	11135	10179.7
870.1606	1243.4686	11208.15	10251.55
870.3051	1245.3772	11429.4	10471.1
870.4496	1247.285	11652.25	10692.85
870.5941	1249.1922	11859.75	10903.3
870.7387	1251.0986	12050.15	11093
870.8832	1253.0042	12123.35	11166.7
871.0277	1254.9092	12245.8	11292.9
871.1722	1256.8134	12339.55	11387.05
871.3167	1258.7169	12507.4	11553.35
871.4611	1260.6196	12646.15	11692.7
871.6056	1262.5216	12872.8	11916.45
871.7501	1264.4229	13075.35	12120.05
871.8945	1266.3234	13276.65	12321.1
872.039	1268.2232	13418	12461.1
872.1834	1270.1223	13532.65	12573.9
872.3278	1272.0207	13553.25	12594.9
872.4723	1273.9183	13523.15	12561.9
872.6167	1275.8151	13454.65	12501.8
872.7611	1277.7113	13450.2	12494.5
872.9055	1279.6067	13538.8	12584.95
873.0499	1281.5014	13823	12864.75
873.1943	1283.3953	14250.3	13295.25
873.3386	1285.2885	14800.85	13849.4
873.483	1287.181	15406.85	14451.35
873.6274	1289.0727	15947	14995.35
873.7717	1290.9637	16272.85	15317.4
873.9161	1292.854	16503.8	15551.25
874.0604	1294.7435	16509.25	15551.1
874.2047	1296.6323	16375.2	15422.1
874.349	1298.5204	16206.15	15250.2
874.4933	1300.4077	15919.4	14962.95
874.6376	1302.2943	15630.7	14676.6
874.7819	1304.1802	15284.3	14330.1
874.9262	1306.0653	14811.95	13858.45
875.0705	1307.9497	14294.25	13343.3
875.2147	1309.8333	13817.85	12865.8
875.359	1311.7162	13445.85	12493.4
875.5032	1313.5984	13240	12282.5
875.6475	1315.4798	13087.75	12124.2
875.7917	1317.3605	12983.1	12025.5
875.9359	1319.2405	12836.6	11881.7
876.0801	1321.1197	12604.4	11648.15
876.2243	1322.9982	12262.8	11305.75
876.3685	1324.876	11958.45	11006.65
876.5127	1326.753	11644.2	10688.6
876.6569	1328.6293	11391.75	10436.7
876.801	1330.5048	11195.05	10238.2
876.9452	1332.3796	11030.3	10075.65
877.0893	1334.2537	10955.55	9976.85
877.2335	1336.127	10836.5	9885
877.3776	1337.9996	10790.55	9838.2
877.5217	1339.8714	10773.85	9817.5
877.6658	1341.7426	10782.5	9782.25
877.8099	1343.6129	10788.25	9828.4
877.954	1345.4826	10797.25	9843.55
878.0981	1347.3515	10802.95	9846.15
878.2422	1349.2196	10796.3	9841.2
878.3862	1351.087	10835.45	9877.25
878.5303	1352.9537	10847.75	9894.75
878.6743	1354.8197	10937.1	9980.3
878.8184	1356.6849	11101	10143.1
878.9624	1358.5493	11315	10360.65
879.1064	1360.4131	11493.8	10540.85
879.2504	1362.276	11625.85	10673.1
879.3944	1364.1383	11661.95	10712.65
879.5384	1365.9998	11477.85	10514.4
879.6823	1367.8606	11173.4	10219.2
879.8263	1369.7206	10811.35	9857.45
879.9702	1371.5799	10497.85	9540.2
880.1142	1373.4384	10199.85	9246.55
880.2581	1375.2962	9919.7	8965.55
880.402	1377.1533	9596.95	8645.35
880.5459	1379.0096	9241.15	8291.25
880.6898	1380.8652	8901.2	7953
880.8337	1382.7201	8620.1	7670.75
880.9776	1384.5742	8342.55	7390.05
881.1215	1386.4275	8169.25	7213.5
881.2653	1388.2802	8009.7	7055.7
881.4092	1390.132	7901.55	6947.8
881.553	1391.9832	7834.35	6879
881.6968	1393.8336	7751.8	6797.9
881.8406	1395.6832	7689.95	6734.35
881.9844	1397.5322	7672.75	6717.9
882.1282	1399.3803	7658.55	6702.3
882.272	1401.2278	7583.9	6630.5
882.4158	1403.0745	7562	6610.55
882.5595	1404.9204	7554.75	6605.05
882.7033	1406.7656	7578.2	6627.05
882.847	1408.6101	7571.4	6620.3
882.9908	1410.4538	7605.1	6651.45
883.1345	1412.2968	7670.3	6718.9
883.2782	1414.139	7706.05	6754.9
883.4219	1415.9805	7789.45	6839.4
883.5656	1417.8213	7871.7	6916
883.7092	1419.6613	7951.3	7004.6
883.8529	1421.5006	8086.8	7137.95
883.9965	1423.3391	8278.85	7329.65
884.1402	1425.1769	8561.4	7611.2
884.2838	1427.0139	8984.7	8035.2
884.4274	1428.8502	9478.95	8529.85
884.571	1430.6858	10041.7	9092.3
884.7146	1432.5206	10422.25	9472.05
884.8582	1434.3547	10632.3	9680.65
885.0018	1436.188	10667.85	9719.4
885.1453	1438.0206	10575.3	9623.45
885.2889	1439.8524	10425.3	9476.7
885.4324	1441.6835	10293.45	9343.2
885.5759	1443.5139	10207.05	9254.7
885.7194	1445.3435	10127.7	9179.5
885.8629	1447.1724	10087.7	9139.35
886.0064	1449.0005	10051.1	9102.9
886.1499	1450.8279	10027.35	9081.55
886.2933	1452.6545	10000.7	9055.65
886.4368	1454.4804	10010.9	9062.2
886.5802	1456.3056	10043.75	9093.6
886.7237	1458.13	9950	9004.05
886.8671	1459.9536	9783.4	8836.55
887.0105	1461.7766	9536.25	8589.35
887.1539	1463.5987	9239.05	8292.1
887.2972	1465.4202	8920.45	7972.1
887.4406	1467.2409	8583.6	7635.95
887.584	1469.0608	8314.85	7365.35
887.7273	1470.88	8034.45	7087.2
887.8706	1472.6984	7826.8	6879.35
888.0139	1474.5161	7614.25	6667.65
888.1572	1476.3331	7453.6	6506.8
888.3005	1478.1493	7341.4	6391.3
888.4438	1479.9648	7241.1	6294.5
888.5871	1481.7795	7174.15	6229.15
888.7303	1483.5935	7131.25	6183.65
888.8736	1485.4067	7071.75	6121.15
889.0168	1487.2192	7047.7	6097.9
889.16	1489.031	7010.85	6060.35
889.3032	1490.842	6956.45	6011
889.4464	1492.6522	6917	5970.95
889.5896	1494.4618	6875.05	5931.05
889.7327	1496.2705	6871.15	5921.3
889.8759	1498.0785	6821.9	5874.85
890.019	1499.8858	6781.45	5836.75
890.1622	1501.6924	6736.7	5794.7
890.3053	1503.4981	6698.85	5751.4
890.4484	1505.3032	6653.55	5707.25
890.5914	1507.1075	6586.85	5641.9
890.7345	1508.911	6563.8	5615.2
890.8776	1510.7138	6530.4	5586.45
891.0206	1512.5159	6468.95	5524.25
891.1637	1514.3172	6443.75	5501.75
891.3067	1516.1178	6376.85	5438.2
891.4497	1517.9176	6363	5420.35
891.5927	1519.7166	6326.5	5383.75
891.7357	1521.515	6294.1	5347.25
891.8786	1523.3126	6255.9	5311.25
892.0216	1525.1094	6232.05	5287.05
892.1645	1526.9055	6227.15	5285.5
892.3074	1528.7008	6203.2	5261.7
892.4503	1530.4954	6185.25	5241.1
892.5932	1532.2893	6159.1	5222.2
892.7361	1534.0824	6118.15	5176.3
892.879	1535.8747	6117.2	5177.65
893.0218	1537.6663	6093.1	5156.9
893.1647	1539.4572	6114.7	5175.7
893.3075	1541.2473	6113.1	5174.85
893.4503	1543.0367	6144.9	5210.65
893.5931	1544.8253	6157.7	5214.5
893.7359	1546.6132	6175.7	5236.15
893.8787	1548.4003	6192.25	5244.85
894.0214	1550.1867	6253.55	5308
894.1642	1551.9723	6325.55	5385.15
894.3069	1553.7572	6434.5	5501
894.4496	1555.5414	6529.85	5597.55
894.5923	1557.3247	6689.3	5756.95
894.735	1559.1074	6856.5	5930.1
894.8777	1560.8893	7022.7	6091.6
895.0204	1562.6705	7198	6268.35
895.163	1564.4509	7346.45	6416.1
895.3056	1566.2305	7405.5	6479.3
895.4482	1568.0094	7459.05	6536.6
895.5908	1569.7876	7431	6504.45
895.7334	1571.565	7442.5	6510.7
895.876	1573.3417	7407.7	6476.9
896.0186	1575.1176	7414.4	6484.45
896.1611	1576.8928	7398.75	6475.5
896.3036	1578.6672	7403.85	6482.75
896.4461	1580.4409	7456.75	6540.45
896.5886	1582.2138	7491.55	6568.05
896.7311	1583.986	7553.1	6625.15
896.8736	1585.7575	7650.5	6724.75
897.0161	1587.5282	7762.75	6840.8
897.1585	1589.2981	7860	6943.45
897.3009	1591.0673	7936.4	7017
897.4433	1592.8358	8111.65	7190
897.5857	1594.6035	8225.15	7299.9
897.7281	1596.3704	8317.35	7393.75
897.8705	1598.1366	8416.3	7492.1
898.0128	1599.9021	8507.3	7583.3
898.1551	1601.6668	8609.2	7687.75
898.2975	1603.4308	8759.65	7835.55
898.4398	1605.194	8934.25	8006.55
898.5821	1606.9564	9111.7	8197.4
898.7243	1608.7182	9412.75	8499.6
898.8666	1610.4791	9715.65	8810.05
899.0088	1612.2394	10067.1	9163.2
899.1511	1613.9988	10354.55	9445.8
899.2933	1615.7576	10666.75	9753.15
899.4355	1617.5156	10883.35	9955.4
899.5776	1619.2728	10972.8	10050.15
899.7198	1621.0293	10866.1	9945.45
899.862	1622.785	10630.3	9707.45
900.0041	1624.54	10248.95	9331.75
900.1462	1626.2942	9868.5	8952.85
900.2883	1628.0477	9374.8	8458.8
900.4304	1629.8005	8992.5	8077.85
900.5725	1631.5525	8646.6	7732
900.7145	1633.3037	8350.3	7436.75
900.8566	1635.0542	8100.85	7188.55
900.9986	1636.804	7902.45	6988.8
901.1406	1638.553	7836.7	6832.25
901.2826	1640.3013	7702.85	6786.35
901.4245	1642.0488	7643.05	6727.25
901.5665	1643.7955	7646.9	6736.7
901.7085	1645.5416	7694.8	6782.25
901.8504	1647.2868	7807.85	6895.6
901.9923	1649.0313	7892.5	6974.85
902.1342	1650.7751	8035.2	7117.85
902.2761	1652.5181	8198.45	7287
902.4179	1654.2604	8350.6	7437.25
902.5598	1656.0019	8575.9	7664.25
902.7016	1657.7427	8827.9	7913.4
902.8434	1659.4828	9094.6	8177.5
902.9852	1661.222	9244.1	8327.5
903.127	1662.9606	9230.25	8311.35
903.2687	1664.6984	8996	8078.95
903.4105	1666.4354	8580.8	7663.1
903.5522	1668.1717	8035.9	7117.1
903.6939	1669.9072	7465.85	6545.65
903.8356	1671.642	6986.95	6065.95
903.9773	1673.3761	6595.9	5678.2
904.119	1675.1094	6264.65	5352.1
904.2606	1676.8419	6017.9	5104.55
904.4022	1678.5737	5801.3	4883.05
904.5439	1680.3048	5658.05	4742.45
904.6855	1682.0351	5509.7	4593.7
904.827	1683.7646	5408.95	4491.2
904.9686	1685.4934	5320.6	4404.3
905.1101	1687.2215	5233.4	4319.65
905.2517	1688.9488	5159.2	4243.6
905.3932	1690.6754	5101.4	4187.35
905.5347	1692.4012	5050.2	4133.2
905.6761	1694.1263	5008.25	4092
905.8176	1695.8506	4956.45	4042.4
905.9591	1697.5742	4893.45	3984.5
906.1005	1699.297	4868.3	3960.6
906.2419	1701.0191	4815.7	3912.05
906.3833	1702.7404	4787	3877.65
906.5246	1704.461	4741.05	3830.6
906.666	1706.1808	4708.7	3795.9
906.8073	1707.8999	4692.7	3782.95
906.9487	1709.6182	4645.25	3741.05
907.09	1711.3358	4630.15	3725.1
907.2313	1713.0527	4614.55	3711.6
907.3725	1714.7688	4577.7	3667.35
907.5138	1716.4841	4538.6	3626.75
907.655	1718.1987	4546.5	3633.6
907.7962	1719.9126	4523.65	3618.1
907.9374	1721.6257	4502.95	3597.7
908.0786	1723.338	4477.5	3573.2
908.2198	1725.0496	4468.95	3562.05
908.3609	1726.7605	4465.15	3557.8
908.502	1728.4706	4454.7	3549.5
908.6431	1730.18	4436.5	3529
908.7842	1731.8886	4434.1	3531.85
908.9253	1733.5964	4419.3	3494.6
909.0664	1735.3036	4382.7	3474.35
909.2074	1737.0099	4359.15	3455.05
909.3484	1738.7156	4342.6	3440.2
909.4894	1740.4204	4316.5	3411.25
909.6304	1742.1246	4304.65	3395.4
909.7714	1743.8279	4271.55	3364.45
909.9123	1745.5306	4251.35	3348.6
910.0532	1747.2325	4234.4	3330.5
910.1941	1748.9336	4209	3304.2
910.335	1750.634	4196.7	3289.85
910.4759	1752.3336	4171.3	3268.65
910.6168	1754.0325	4166.1	3267.3
910.7576	1755.7307	4151.6	3246.8
910.8984	1757.4281	4169.55	3265.65
911.0392	1759.1247	4164	3246.8
911.18	1760.8206	4141.7	3228.8
911.3208	1762.5158	4146.65	3233.4
911.4615	1764.2102	4107.05	3202.05
911.6022	1765.9039	4088.7	3188.15
911.7429	1767.5968	4076.25	3172.85
911.8836	1769.289	4062.4	3160.9
912.0243	1770.9804	4069.25	3162.35
912.1649	1772.6711	4076.35	3165.1
912.3056	1774.361	4066.9	3156.9
912.4462	1776.0502	4053.85	3144.6
912.5868	1777.7386	4039.95	3129.2
912.7274	1779.4263	4010.9	3106.25
912.8679	1781.1132	4019.8	3119.3
913.0084	1782.7994	4017.6	3117.6
913.149	1784.4849	3998.65	3099.85
913.2895	1786.1696	4009.1	3088.5
913.4299	1787.8535	3989.2	3089.2
913.5704	1789.5367	3972.7	3075.4
913.7108	1791.2192	3967.8	3067.9
913.8513	1792.9009	3979.65	3050.4
913.9917	1794.5818	3947.2	3040.8
914.132	1796.2621	3926.25	3022.6
914.2724	1797.9415	3921.95	3016.85
914.4128	1799.6202	3924.25	3018.1
914.5531	1801.2982	3906.55	3001.75
914.6934	1802.9755	3905.3	2997.45
914.8337	1804.6519	3900.25	2995.9
914.9739	1806.3277	3886.7	2981.75
915.1142	1808.0027	3875.95	2976.05
915.2544	1809.6769	3855.55	2957.5
915.3946	1811.3504	3859.35	2960.9
915.5348	1813.0231	3852.6	2953.35
915.675	1814.6951	3847.35	2946.15
915.8151	1816.3664	3856.6	2951.3
915.9553	1818.0369	3865.35	2963.85
916.0954	1819.7067	3835.25	2932.85
916.2355	1821.3757	3832.4	2923.9
916.3755	1823.044	3817.3	2912.8
916.5156	1824.7115	3807.6	2901.45
916.6556	1826.3783	3780.9	2877.6
916.7956	1828.0443	3782.05	2880.05
916.9356	1829.7096	3773.2	2869.5
917.0756	1831.3741	3787.85	2881.3
917.2155	1833.0379	3759.1	2859.6
917.3555	1834.701	3754.6	2854.85
917.4954	1836.3633	3756.9	2858.65
917.6353	1838.0248	3753.2	2850.9
917.7751	1839.6856	3754.35	2851.2
917.915	1841.3457	3720.75	2818.6
918.0548	1843.005	3724.75	2820.25
918.1946	1844.6636	3737.9	2833.75
918.3344	1846.3214	3735.35	2832.9
918.4742	1847.9785	3720.85	2819.7
918.6139	1849.6349	3713.7	2809.15
918.7537	1851.2904	3718.25	2803.95
918.8934	1852.9453	3716.05	2807.85
919.0331	1854.5994	3686.85	2779.8
919.1727	1856.2528	3714.4	2806.3
919.3124	1857.9054	3682.55	2779.3
919.452	1859.5572	3684.95	2785
919.5916	1861.2083	3676.2	2772.95
919.7312	1862.8587	3671.55	2766.5
919.8708	1864.5084	3648.15	2742.35
920.0103	1866.1572	3663.9	2757.35
920.1498	1867.8054	3642.7	2734.85
920.2893	1869.4528	3634.55	2729.4
920.4288	1871.0994	3624.15	2719.3
920.5683	1872.7453	3631.6	2724.5
920.7077	1874.3905	3628	2717.15
920.8471	1876.0349	3605.45	2699.45
920.9865	1877.6786	3606.5	2698.05
921.1259	1879.3215	3598.3	2693.05
921.2653	1880.9637	3590.2	2685.9
921.4046	1882.6051	3587.2	2685.65
921.5439	1884.2458	3593.35	2689.3
921.6832	1885.8858	3558.1	2659.1
921.8225	1887.525	3562.65	2657.7
921.9617	1889.1634	3544.65	2636.95
922.101	1890.8011	3560.25	2654.45
922.2402	1892.4381	3537.15	2632
922.3794	1894.0743	3519.55	2617.2
922.5185	1895.7098	3529.95	2628.9
922.6577	1897.3446	3509	2604.5
922.7968	1898.9786	3508.35	2599.5
922.9359	1900.6118	3500.55	2600
923.075	1902.2443	3493.45	2589.2
923.214	1903.8761	3500.8	2599.7
923.3531	1905.5071	3467.35	2565.75
923.4921	1907.1374	3471.55	2566.45
923.6311	1908.7669	3450.95	2548.7
923.77	1910.3957	3440	2536.55
923.909	1912.0237	3420.75	2516.8
924.0479	1913.651	3421.85	2518.5
924.1868	1915.2776	3423.65	2522.2
924.3257	1916.9034	3412.6	2513.65
924.4646	1918.5285	3401.2	2501
924.6034	1920.1528	3397.3	2496.3
924.7422	1921.7764	3387.55	2485.95
924.881	1923.3992	3378.85	2478.6
925.0198	1925.0213	3354.1	2452.65
925.1586	1926.6427	3360.2	2459.2
925.2973	1928.2633	3419.8	2440.5
925.436	1929.8832	3346.5	2443.3
925.5747	1931.5023	3345.1	2444.05
925.7134	1933.1207	3336.85	2434.65
925.852	1934.7383	3323.25	2421.55
925.9906	1936.3552	3291.3	2390.1
926.1292	1937.9714	3301.9	2400.95
926.2678	1939.5868	3306.2	2402.45
926.4064	1941.2015	3277.85	2375.05
926.5449	1942.8154	3284.4	2381.1
926.6834	1944.4286	3266.65	2362.4
926.8219	1946.041	3273.75	2345.65
926.9604	1947.6528	3269.3	2362.7
927.0988	1949.2637	3239.45	2337.55
927.2372	1950.8739	3218.3	2317.05
927.3756	1952.4834	3233	2331.05
927.514	1954.0921	3219.9	2319.45
927.6523	1955.7001	3217.4	2315.65
927.7907	1957.3074	3200.25	2304.05
927.929	1958.9139	3193.5	2299.6
928.0673	1960.5197	3195.6	2298.35
928.2055	1962.1247	3183.1	2283.5
928.3438	1963.729	3172.75	2277
928.482	1965.3325	3161	2260.45
928.6202	1966.9353	3155.45	2258.95
928.7584	1968.5374	3135.2	2239.65
928.8965	1970.1387	3145.95	2250.7
929.0346	1971.7393	3139.3	2241.45
929.1727	1973.3392	3120.7	2225.3
929.3108	1974.9383	3115.95	2222.7
929.4489	1976.5366	3108.6	2213.8
929.5869	1978.1342	3086.5	2196
929.7249	1979.7311	3085.65	2192.25
929.8629	1981.3273	3080.9	2188.15
930.0009	1982.9227	3071.05	2176.9
930.1388	1984.5173	3060.25	2169.15
930.2767	1986.1112	3062.95	2170.75
930.4146	1987.7044	3045.4	2153.25
930.5525	1989.2968	3054	2158.7
930.6904	1990.8885	3042.5	2145.95
930.8282	1992.4795	3026.5	2134.55
930.966	1994.0697	3029.7	2140.7
931.1038	1995.6592	3017.3	2127.9
931.2415	1997.2479	3019.6	2127.4
931.3793	1998.8359	3015.5	2125.45
931.517	2000.4232	3004.9	2117.45
931.6547	2002.0097	2987.25	2101.7
931.7923	2003.5955	2986.25	2100.1
931.93	2005.1805	2984.4	2094.65
932.0676	2006.7648	2979.45	2088.7
932.2052	2008.3484	2964.15	2075.15
932.3427	2009.9312	2971	2084.55
932.4803	2011.5133	2953.9	2069.25
932.6178	2013.0946	2943.45	2058.05
932.7553	2014.6752	2936.85	2047.9
932.8928	2016.2551	2952.5	2063.2
933.0302	2017.8342	2936.05	2047.65
933.1676	2019.4126	2935.35	2048.25
933.305	2020.9902	2918.95	2033.05
933.4424	2022.5672	2916.95	2034.5
933.5798	2024.1433	2914.55	2024.6
933.7171	2025.7188	2909	2027.5
933.8544	2027.2935	2900.75	2016
933.9917	2028.8674	2890.25	2006.05
934.129	2030.4406	2887.75	2003.2
934.2662	2032.0131	2869.5	1985.5
934.4034	2033.5849	2873.9	1984.65
934.5406	2035.1559	2862.75	1977.8
934.6778	2036.7261	2855.05	1968.3
934.8149	2038.2957	2862.3	1971.75
934.952	2039.8645	2865.75	1972.8
935.0891	2041.4325	2862.3	1968.8
935.2262	2042.9998	2837.9	1948.2
935.3632	2044.5664	2837.2	1948.75
935.5002	2046.1323	2838.05	1953.85
935.6372	2047.6974	2833.8	1948.05
935.7742	2049.2617	2822.3	1937.3
935.9111	2050.8254	2833.55	1925.3
936.048	2052.3883	2829.55	1939.8
936.1849	2053.9504	2824.05	1933.35
936.3218	2055.5118	2807.45	1916.95
936.4586	2057.0725	2803.65	1913.35
936.5955	2058.6325	2789.3	1902.25
936.7323	2060.1917	2787.5	1900.1
936.869	2061.7502	2777.15	1890.6
937.0058	2063.3079	2782.75	1898.85
937.1425	2064.8649	2773	1883.15
937.2792	2066.4212	2773	1885.6
937.4159	2067.9767	2767.35	1878.7
937.5525	2069.5315	2761.2	1873.05
937.6891	2071.0856	2754.1	1866.9
937.8257	2072.6389	2745.4	1859.85
937.9623	2074.1915	2723.7	1839.1
938.0989	2075.7433	2719.85	1834.3
938.2354	2077.2945	2720.35	1834.95
938.3719	2078.8448	2712.6	1820.1
938.5084	2080.3945	2709.5	1819.3
938.6448	2081.9434	2707.1	1817.15
938.7812	2083.4916	2710.25	1817.05
938.9176	2085.039	2703.4	1806.7
939.054	2086.5857	2711.5	1811.65
939.1903	2088.1317	2682.95	1786.85
939.3267	2089.677	2686.5	1787
939.463	2091.2215	2690.7	1791.05
939.5992	2092.7652	2677.1	1776.45
939.7355	2094.3083	2671.55	1772.5
939.8717	2095.8506	2673.5	1778.8
940.0079	2097.3921	2656.25	1763.45
940.1441	2098.933	2647.45	1754.2
940.2802	2100.4731	2662.8	1772.15
940.4163	2102.0124	2660.65	1749
940.5524	2103.5511	2650.05	1754.6
940.6885	2105.089	2639.35	1744.8
940.8245	2106.6261	2637.9	1743.8
940.9606	2108.1626	2621.9	1729.2
941.0965	2109.6983	2648.25	1728.7
941.2325	2111.2332	2627.55	1733.75
941.3684	2112.7675	2622.45	1726.8
941.5044	2114.301	2630.5	1736.15
941.6403	2115.8337	2614.1	1718.85
941.7761	2117.3657	2618.3	1724.9
941.912	2118.897	2602.4	1705.95
942.0478	2120.4276	2608.65	1708.6
942.1835	2121.9575	2587.9	1693.8
942.3193	2123.4866	2599.2	1703.25
942.455	2125.0149	2590.75	1693.9
942.5907	2126.5426	2576.85	1687.15
942.7264	2128.0695	2577.6	1687.95
942.8621	2129.5956	2562.05	1677.35
942.9977	2131.1211	2566.4	1672.75
943.1333	2132.6458	2557.7	1666.85
943.2689	2134.1698	2564.85	1669.35
943.4044	2135.693	2556.95	1656.9
943.54	2137.2155	2558.35	1660.5
943.6755	2138.7373	2553.75	1660.7
943.8109	2140.2584	2544.85	1657
943.9464	2141.7787	2526.85	1635.45
944.0818	2143.2983	2500.95	1616.9
944.2172	2144.8171	2496.5	1615
944.3526	2146.3353	2511.45	1622.35
944.4879	2147.8527	2510.55	1620.85
944.6232	2149.3693	2506.95	1612.7
944.7585	2150.8853	2509.65	1614.05
944.8938	2152.4005	2506.7	1610.65
945.029	2153.9149	2493.25	1597.4
945.1642	2155.4287	2497.75	1605.15
945.2994	2156.9417	2478.45	1584.2
945.4346	2158.454	2470.7	1578.6
945.5697	2159.9655	2470.1	1580.85
945.7048	2161.4764	2478.35	1588.15
945.8399	2162.9865	2474.95	1584.45
945.9749	2164.4958	2462.15	1574
946.1099	2166.0045	2467.35	1574.8
946.2449	2167.5124	2457.05	1567.05
946.3799	2169.0195	2449.05	1555.35
946.5148	2170.526	2459.7	1565.55
946.6498	2172.0317	2447.5	1555.35
946.7846	2173.5367	2443.25	1551.3
946.9195	2175.0409	2435.1	1545.85
947.0543	2176.5445	2426.85	1534.75
947.1891	2178.0473	2432.1	1536.45
947.3239	2179.5494	2423.45	1524.05
947.4587	2181.0507	2422.45	1529.45
947.5934	2182.5513	2421.85	1528.2
947.7281	2184.0512	2409.75	1514.75
947.8628	2185.5504	2413.85	1520.4
947.9974	2187.0488	2389.75	1499.2
948.132	2188.5465	2394.25	1507.25
948.2666	2190.0435	2389.25	1497.3
948.4012	2191.5397	2396.9	1504.55
948.5357	2193.0353	2383.65	1490.2
948.6702	2194.5301	2378.65	1480.6
948.8047	2196.0241	2389.1	1488.25
948.9392	2197.5175	2377.75	1477.7
949.0736	2199.0101	2375.4	1474.15
949.208	2200.502	2353.8	1459.05
949.3424	2201.9931	2350.2	1458.25
949.4767	2203.4835	2353.6	1463.6
949.611	2204.9733	2360.9	1455.5
949.7453	2206.4622	2331.6	1444.55
949.8796	2207.9505	2332.45	1440.6
950.0138	2209.438	2324.75	1440.35
950.148	2210.9248	2320.25	1432
950.2822	2212.4109	2317.3	1428.35
950.4164	2213.8962	2322.2	1422.4
950.5505	2215.3809	2325.15	1426.3
950.6846	2216.8648	2312.55	1411.1
950.8186	2218.3479	2310.6	1405.4
950.9527	2219.8304	2306.05	1403.1
951.0867	2221.3121	2289.35	1386.95
951.2207	2222.7931	2287.35	1390.95
951.3546	2224.2733	2288.35	1392.25
951.4886	2225.7529	2273	1379.9
951.6225	2227.2317	2279.75	1385.9
951.7563	2228.7098	2263	1374.7
951.8902	2230.1872	2265.85	1378.65
952.024	2231.6638	2267.95	1379.6
952.1578	2233.1397	2260.85	1367.5
952.2916	2234.6149	2250.3	1361.35
952.4253	2236.0894	2250.85	1357.55
952.559	2237.5632	2254.3	1352.1
952.6927	2239.0362	2232.7	1341.1
952.8263	2240.5085	2232	1340.6
952.9599	2241.9801	2231.5	1340.05
953.0935	2243.4509	2233.1	1337.45
953.2271	2244.921	2230.8	1331.5
953.3606	2246.3904	2219.6	1317.4
953.4941	2247.8591	2220.8	1324
953.6276	2249.3271	2206.85	1309.4
953.7611	2250.7943	2198.6	1300.75
953.8945	2252.2608	2198.9	1302.7
954.0279	2253.7266	2203.2	1307.4
954.1612	2255.1917	2187.2	1290.7
954.2946	2256.656	2186.8	1295.15
954.4279	2258.1197	2180.75	1291.6
954.5612	2259.5826	2180.95	1289.9
954.6944	2261.0447	2182.7	1289.7
954.8276	2262.5062	2171.3	1271.3
954.9608	2263.9669	2174	1276.2
955.094	2265.4269	2170.3	1275.6
955.2271	2266.8862	2156.2	1260.9
955.3602	2268.3448	2160.6	1271.75
955.4933	2269.8026	2147.85	1259
955.6264	2271.2598	2148.6	1256.95
955.7594	2272.7162	2152.15	1261.25
955.8924	2274.1719	2152.7	1256.1
956.0253	2275.6268	2144.4	1247.6
956.1583	2277.0811	2141.05	1245.6
956.2912	2278.5346	2147.4	1255.45
956.4241	2279.9874	2145.15	1254.2
956.5569	2281.4395	2142.95	1255.4
956.6897	2282.8908	2133.85	1236.15
956.8225	2284.3414	2133.45	1240.25
956.9553	2285.7914	2120.35	1228.45
957.088	2287.2406	2126.25	1229.35
957.2207	2288.689	2136.8	1240.3
957.3534	2290.1368	2117.5	1220
957.486	2291.5838	2124.85	1222.3
957.6186	2293.0302	2115.85	1215.55
957.7512	2294.4758	2115.1	1211.95
957.8838	2295.9206	2105.45	1206.3
958.0163	2297.3648	2105.65	1210.9
958.1488	2298.8082	2101	1207.45
958.2813	2300.251	2101.6	1205.15
958.4137	2301.693	2094.4	1197.6
958.5461	2303.1343	2102.2	1205.25
958.6785	2304.5748	2090.15	1196.2
958.8108	2306.0147	2081.2	1190.15
958.9432	2307.4538	2076	1183.1
959.0754	2308.8922	2066.75	1180
959.2077	2310.3299	2063.35	1170.55
959.3399	2311.7669	2067.45	1177.75
959.4721	2313.2031	2061.65	1167.65
959.6043	2314.6387	2062.55	1167.7
959.7365	2316.0735	2051.5	1157.5
959.8686	2317.5076	2057.2	1161.1
960.0006	2318.941	2056.5	1159.15
960.1327	2320.3737	2050.8	1152.1
960.2647	2321.8056	2046.8	1146.5
960.3967	2323.2369	2045.2	1147.45
960.5287	2324.6674	2053.3	1156.65
960.6606	2326.0972	2040.3	1143.9
960.7925	2327.5263	2033.05	1139.25
960.9244	2328.9547	2028.7	1131.1
961.0562	2330.3823	2033.95	1136.9
961.1881	2331.8092	2037.35	1138.5
961.3198	2333.2355	2022.4	1125.1
961.4516	2334.661	2028.25	1130.65
961.5833	2336.0858	2015.8	1115.65
961.715	2337.5098	2007.05	1110.3
961.8467	2338.9332	2006.4	1111.05
961.9783	2340.3558	2010.8	1112.25
962.1099	2341.7778	1992.95	1099.7
962.2415	2343.199	1997.3	1101.75
962.373	2344.6195	1990.1	1097.1
962.5045	2346.0393	1989.45	1096.6
962.636	2347.4583	1992.55	1096.9
962.7675	2348.8767	1993.25	1095.25
962.8989	2350.2943	1997.65	1096.7
963.0303	2351.7113	1992.15	1089.95
963.1617	2353.1275	1984.05	1085.35
963.293	2354.543	1991.35	1084.7
963.4243	2355.9578	1985.65	1087.9
963.5556	2357.3718	1971.25	1078.8
963.6868	2358.7852	1967.45	1073.8
963.818	2360.1978	1968.2	1072.7
963.9492	2361.6098	1972.75	1080.1
964.0803	2363.021	1966.95	1069.05
964.2114	2364.4315	1965.55	1068.3
964.3425	2365.8413	1961.3	1065.55
964.4736	2367.2504	1953	1060.35
964.6046	2368.6587	1944.25	1052.25
964.7356	2370.0664	1942.7	1049.7
964.8666	2371.4733	1937.2	1040.85
964.9975	2372.8795	1940.4	1043.6
965.1284	2374.285	1933.15	1040.5
965.2593	2375.6899	1936.1	1042.75
965.3901	2377.0939	1926.75	1032.1
965.5209	2378.4973	1924.9	1030.9
965.6517	2379.9	1927.4	1032.25
965.7825	2381.3019	1913.4	1020.05
965.9132	2382.7032	1915.25	1024.45
966.0439	2384.1037	1910.1	1020.5
966.1745	2385.5035	1907.8	1017.6
966.3051	2386.9027	1905.7	1014.45
966.4357	2388.3011	1902.7	1008.25
966.5663	2389.6987	1904.8	1011.8
966.6968	2391.0957	1901.5	1010.6
966.8273	2392.492	1892.05	1003.25
966.9578	2393.8876	1880.55	988.6
967.0882	2395.2824	1878.6	985.5
967.2186	2396.6765	1883.4	987
967.349	2398.07	1864.5	969.7
967.4793	2399.4627	1874.4	977.95
967.6097	2400.8547	1870.9	974.85
967.7399	2402.246	1881.9	981.1
967.8702	2403.6366	1860.7	965.45
968.0004	2405.0265	1854.3	962.1
968.1306	2406.4156	1863.2	966.25
968.2607	2407.8041	1864.05	967.05
968.3909	2409.1918	1852.85	955.15
968.521	2410.5789	1845.8	951.25
968.651	2411.9652	1844.2	946.45
968.781	2413.3508	1849.9	956.1
968.911	2414.7358	1836.6	940.5
969.041	2416.12	1842.35	947.6
969.1709	2417.5035	1844.7	950.4
969.3008	2418.8863	1840.7	946.2
969.4307	2420.2684	1831.7	935.8
969.5606	2421.6497	1824.4	929.45
969.6904	2423.0304	1830.9	936.9
969.8201	2424.4104	1827.95	933.3
969.9499	2425.7896	1830.2	929.35
970.0796	2427.1682	1813.85	918
970.2093	2428.546	1815.15	918.6
970.3389	2429.9232	1810.2	914.3
970.4685	2431.2996	1815.1	919.9
970.5981	2432.6753	1807.95	913.75
970.7277	2434.0503	1811.9	914.35
970.8572	2435.4246	1806.05	910.6
970.9867	2436.7982	1802.35	903.95
971.1161	2438.1711	1801.6	907.3
971.2456	2439.5433	1799.6	902.05
971.375	2440.9148	1796.4	896.1
971.5043	2442.2856	1780.75	886.9
971.6336	2443.6557	1788.7	889.5
971.7629	2445.025	1782.55	887.4
971.8922	2446.3937	1778.8	882.25
972.0214	2447.7617	1775.8	880.45
972.1506	2449.1289	1781.6	886.4
972.2798	2450.4955	1769.25	873
972.4089	2451.8613	1766.4	873.95
972.538	2453.2265	1761	868.85
972.6671	2454.5909	1771.25	878.95
972.7961	2455.9546	1768.3	873.35
972.9251	2457.3177	1760.45	865
973.0541	2458.68	1742.7	845.9
973.1831	2460.0416	1747.25	849.95
973.312	2461.4025	1762.45	867.2
973.4408	2462.7627	1761.8	856.8
973.5697	2464.1222	1747.05	855.25
973.6985	2465.4811	1748.45	856.45
973.8273	2466.8392	1740.8	849.85
973.956	2468.1966	1747.8	854
974.0847	2469.5533	1749.95	851.95
974.2134	2470.9093	1741.6	847.65
974.3421	2472.2645	1740.1	843.75
974.4707	2473.6191	1740.95	844.65
974.5993	2474.973	1737.95	844.45
974.7278	2476.3262	1729.4	834.3
974.8563	2477.6787	1731.35	841.85
974.9848	2479.0305	1730.3	835.75
975.1132	2480.3816	1731.4	834.3
975.2417	2481.7319	1733.85	838.9
975.37	2483.0816	1727.55	832.6
975.4984	2484.4306	1720.65	826.5
975.6267	2485.7789	1718.5	827.4
975.755	2487.1264	1716.85	825.1
975.8833	2488.4733	1712.35	819.05
976.0115	2489.8195	1715.55	814.5
976.1397	2491.165	1709.7	811.5
976.2678	2492.5097	1710.15	816.45
976.3959	2493.8538	1691.85	801.25
976.524	2495.1972	1694.9	800.6
976.6521	2496.5398	1689.95	796.15
976.7801	2497.8818	1690.7	792.55
976.9081	2499.2231	1702.95	807.5
977.036	2500.5637	1689.9	793
977.164	2501.9035	1685.4	788.7
977.2918	2503.2427	1685	786.65
977.4197	2504.5812	1684.65	787.95
977.5475	2505.919	1686.2	787.95
977.6753	2507.256	1679.7	784.25
977.8031	2508.5924	1672.5	778.95
977.9308	2509.9281	1682.05	783.1
978.0585	2511.2631	1672.75	778.65
978.1861	2512.5974	1673.15	778.95
978.3137	2513.9309	1663.25	769
978.4413	2515.2638	1688.05	768.1
978.5689	2516.596	1662.5	768.15
978.6964	2517.9275	1663.55	768.75
978.8239	2519.2583	1654.8	762.7
978.9513	2520.5884	1659.25	764.35
979.0788	2521.9178	1647.55	755.15
979.2062	2523.2465	1644.75	754.35
979.3335	2524.5745	1650.6	757.5
979.4608	2525.9018	1640.4	746.35
979.5881	2527.2284	1656.25	764.15
979.7154	2528.5543	1648.8	757.4
979.8426	2529.8796	1646.2	752
979.9698	2531.2041	1642.65	748.9
980.0969	2532.5279	1634.7	744.1
980.224	2533.851	1649.45	755.1
980.3511	2535.1735	1636.9	743.35
980.4781	2536.4952	1633.4	739.25
980.6052	2537.8163	1638.5	741.55
980.7321	2539.1366	1619.85	724.15
980.8591	2540.4562	1635.4	738.2
980.986	2541.7752	1636.1	740.85
981.1129	2543.0935	1637.05	740.7
981.2397	2544.411	1635.95	738.45
981.3665	2545.7279	1626.5	731.05
981.4933	2547.0441	1635	739.7
981.62	2548.3596	1638.05	739.9
981.7467	2549.6744	1631.2	737.15
981.8734	2550.9885	1633.45	731.05
982.0001	2552.3019	1619.2	725.85
982.1267	2553.6146	1625.85	730.85
982.2532	2554.9266	1611.55	713.7
982.3798	2556.2379	1617.3	721.85
982.5063	2557.5485	1606.25	712.55
982.6327	2558.8585	1614.8	714.85
982.7592	2560.1677	1619.25	719.2
982.8856	2561.4762	1615.25	721.3
983.0119	2562.7841	1615	716.35
983.1383	2564.0913	1602.4	709.85
983.2646	2565.3977	1601.35	706.25
983.3908	2566.7035	1608.1	713.7
983.517	2568.0086	1609.95	712.25
983.6432	2569.313	1598.35	704.4
983.7694	2570.6167	1602.6	704.95
983.8955	2571.9197	1598	702.55
984.0216	2573.222	1600.35	701.25
984.1476	2574.5236	1598.55	701.9
984.2737	2575.8246	1599.9	704.55
984.3996	2577.1248	1596.65	697.8
984.5256	2578.4244	1594.25	702.3
984.6515	2579.7232	1589.55	696.75
984.7774	2581.0214	1618.3	692.45
984.9032	2582.3189	1603.85	709.7
985.029	2583.6157	1598.55	700.45
985.1548	2584.9118	1597.65	701.55
985.2806	2586.2072	1591.75	697.7
985.4063	2587.5019	1593.6	700.45
985.5319	2588.7959	1593.2	698.4
985.6576	2590.0893	1590.35	694.55
985.7832	2591.3819	1590.65	697.15
985.9087	2592.6739	1600.55	710.25
986.0343	2593.9652	1595.6	699
986.1597	2595.2557	1590.3	696
986.2852	2596.5456	1589.15	694.95
986.4106	2597.8348	1584.15	691.45
986.536	2599.1234	1584.05	690.05
986.6614	2600.4112	1588.45	694.55
986.7867	2601.6983	1590.35	696.6
986.912	2602.9848	1593.3	699.8
987.0372	2604.2705	1592.8	694.35
987.1624	2605.5556	1581.15	688.1
987.2876	2606.84	1580.05	687.3
987.4128	2608.1237	1585.7	692.7
987.5379	2609.4067	1579.45	686.85
987.6629	2610.689	1575.15	674.65
987.788	2611.9707	1571.6	675.6
987.913	2613.2516	1573.05	675.85
988.0379	2614.5319	1563.05	671.6
988.1629	2615.8115	1552.55	659.5
988.2878	2617.0903	1562.75	670.75
988.4126	2618.3685	1562.55	671.6
988.5375	2619.6461	1549.25	659.2
988.6622	2620.9229	1557.25	666.55
988.787	2622.199	1548.7	656.05
988.9117	2623.4745	1546.9	654
989.0364	2624.7493	1554.7	663.4
989.161	2626.0234	1551.05	660.85
989.2857	2627.2968	1545.15	655.6
989.4102	2628.5695	1546.45	653.9
989.5348	2629.8415	1543.8	650.7
989.6593	2631.1128	1544.8	652.35
989.7837	2632.3835	1547.8	656.15
989.9082	2633.6535	1536.8	644.4
990.0326	2634.9228	1538	647.3
990.1569	2636.1914	1533.85	644.3
990.2812	2637.4593	1539.45	647.55
990.4055	2638.7265	1537.8	645.95
990.5298	2639.9931	1533.05	641.3
990.654	2641.259	1530.8	638.35
990.7782	2642.5242	1519.3	628.5
990.9023	2643.7887	1521.25	630.5
991.0264	2645.0525	1515.65	626.7
991.1505	2646.3156	1523.9	632
991.2745	2647.5781	1508.85	618
991.3985	2648.8398	1512.6	621.65
991.5225	2650.1009	1546.65	614.6
991.6464	2651.3613	1510.8	620.35
991.7703	2652.6211	1513.1	621.45
991.8942	2653.8801	1509.45	619.1
992.018	2655.1385	1510.85	617.85
992.1418	2656.3961	1509.15	619.15
992.2655	2657.6531	1508.2	618.05
992.3892	2658.9094	1510.7	618.4
992.5129	2660.1651	1508.85	618.1
992.6366	2661.42	1509.15	617.5
992.7602	2662.6743	1506.95	615.25
992.8837	2663.9279	1508.8	619.65
993.0073	2665.1808	1516.55	625.35
993.1307	2666.433	1521.05	629.9
993.2542	2667.6846	1515.55	625.8
993.3776	2668.9354	1514.9	619.7
993.501	2670.1856	1522.55	630.95
993.6244	2671.4351	1518.65	629.05
993.7477	2672.6839	1520.05	627.9
993.8709	2673.9321	1515.9	625
993.9942	2675.1795	1527.85	637.8
994.1174	2676.4263	1525	635.2
994.2405	2677.6724	1523.35	634.1
994.3637	2678.9179	1537.05	645.95
994.4868	2680.1626	1527.35	637.55
994.6098	2681.4067	1522.8	630.8
994.7328	2682.6501	1515.8	625.65
994.8558	2683.8928	1522.65	632.4
994.9788	2685.1348	1515.85	627.25
995.1017	2686.3761	1517.8	629.8
995.2245	2687.6168	1497.2	606.75
995.3474	2688.8568	1502.35	611.65
995.4702	2690.0961	1497.95	606.3
995.5929	2691.3348	1500.85	609.55
995.7156	2692.5727	1494.6	604.9
995.8383	2693.81	1493.05	602.35
995.961	2695.0466	1493.85	605.25
996.0836	2696.2826	1492	602.6
996.2062	2697.5178	1502.2	607.15
996.3287	2698.7524	1491	602.25
996.4512	2699.9863	1497.35	605.8
996.5737	2701.2195	1495.5	607.3
996.6961	2702.452	1500	607.9
996.8185	2703.6839	1506.7	614.75
996.9408	2704.9151	1509.15	619.55
997.0631	2706.1456	1503.9	613.3
997.1854	2707.3755	1513.75	625
997.3077	2708.6046	1527.4	634.55
997.4299	2709.8331	1524	632.35
997.552	2711.0609	1528.3	638.35
997.6742	2712.2881	1536.6	645.35
997.7963	2713.5145	1551.4	659.45
997.9183	2714.7403	1552.3	664
998.0403	2715.9654	1562.4	670.5
998.1623	2717.1899	1584.1	681.7
998.2842	2718.4136	1581.7	691.8
998.4062	2719.6367	1584.3	695.6
998.528	2720.8591	1599.65	704.3
998.6498	2722.0809	1610.85	720.5
998.7716	2723.3019	1622.15	730.45
998.8934	2724.5223	1620.75	730.85
999.0151	2725.7421	1635.1	742.95
999.1368	2726.9611	1638.05	747.85
999.2584	2728.1795	1635.75	741.85
999.38	2729.3972	1620.4	731.95
999.5016	2730.6142	1626.05	721.7
999.6231	2731.8306	1599.85	709.05
999.7446	2733.0462	1592.25	700.3
999.8661	2734.2612	1579.2	687.05
999.9875	2735.4756	1553	664.95
1000.1089	2736.6892	1541.15	652.5
1000.2302	2737.9022	1526.75	637
1000.3515	2739.1145	1515.35	625.3
1000.4728	2740.3262	1514.05	617.65
1000.594	2741.5372	1500.6	613.65
1000.7152	2742.7475	1485.95	597.35
1000.8363	2743.9571	1481.2	591.8
1000.9575	2745.1661	1470.9	574.5
1001.0785	2746.3744	1453.2	563.35
1001.1996	2747.582	1445.55	555.65
1001.3206	2748.7889	1444.5	553.9
1001.4415	2749.9952	1440.9	552.75
1001.5625	2751.2008	1438.7	551.1
1001.6833	2752.4057	1425.25	533.65
1001.8042	2753.61	1426.9	536.55
1001.925	2754.8136	1423.7	534.3
1002.0458	2756.0165	1420.15	531
1002.1665	2757.2188	1419.95	531
1002.2872	2758.4204	1415.5	526.95
1002.4078	2759.6213	1415.05	523.4
1002.5285	2760.8215	1421.05	529.05
1002.649	2762.0211	1420.95	529.2
1002.7696	2763.22	1411.1	519.95
1002.8901	2764.4182	1417.2	525.9
1003.0106	2765.6158	1412.25	523.1
1003.131	2766.8127	1399.7	512.6
1003.2514	2768.009	1400.9	511
1003.3717	2769.2045	1398.05	509.75
1003.492	2770.3994	1396.65	506.05
1003.6123	2771.5936	1397.2	506.1
1003.7325	2772.7872	1392.5	504.7
1003.8527	2773.9801	1387.25	496.8
1003.9729	2775.1723	1397.05	490.1
1004.093	2776.3639	1384.2	496.75
1004.2131	2777.5548	1388	499.55
1004.3331	2778.745	1387.2	498.85
1004.4531	2779.9346	1387.6	501.15
1004.5731	2781.1235	1381.85	495.25
1004.693	2782.3117	1387.8	501.2
1004.8129	2783.4992	1387.55	498.75
1004.9328	2784.6861	1385.9	499.9
1005.0526	2785.8723	1392.6	503.4
1005.1723	2787.0579	1393.3	504.65
1005.2921	2788.2428	1398.8	511.7
1005.4118	2789.427	1412	523.55
1005.5314	2790.6106	1410.55	525.3
1005.651	2791.7935	1417.45	528.9
1005.7706	2792.9757	1423.85	539.6
1005.8902	2794.1573	1420.2	530.95
1006.0097	2795.3382	1438.3	550.5
1006.1291	2796.5184	1434.85	549.85
1006.2485	2797.698	1458.2	568.65
1006.3679	2798.8769	1464.95	577.35
1006.4873	2800.0551	1466.15	577.75
1006.6066	2801.2327	1472.5	582.3
1006.7258	2802.4096	1492.9	607
1006.8451	2803.5859	1508.65	620.2
1006.9642	2804.7615	1528.7	642
1007.0834	2805.9364	1547.45	661.5
1007.2025	2807.1106	1571.15	682.75
1007.3216	2808.2842	1580.05	691.7
1007.4406	2809.4572	1603.15	715.7
1007.5596	2810.6294	1636.15	750.1
1007.6785	2811.801	1668.25	782.05
1007.7975	2812.972	1703.95	818.15
1007.9163	2814.1423	1735.9	848.7
1008.0352	2815.3119	1781.85	893.8
1008.154	2816.4808	1818.55	932.35
1008.2727	2817.6491	1862.55	975.25
1008.3914	2818.8167	1919.65	1033.1
1008.5101	2819.9837	1977.25	1087.15
1008.6288	2821.15	2034.3	1148.65
1008.7474	2822.3157	2080.5	1195.05
1008.8659	2823.4807	2140.65	1252.7
1008.9844	2824.645	2203.35	1315.1
1009.1029	2825.8086	2248.7	1363.35
1009.2214	2826.9716	2307	1422.95
1009.3398	2828.134	2364.2	1477.05
1009.4581	2829.2957	2398.85	1512.2
1009.5764	2830.4567	2433.35	1548.65
1009.6947	2831.617	2468	1579.75
1009.813	2832.7767	2486.65	1600.85
1009.9312	2833.9358	2474.85	1588.5
1010.0493	2835.0941	2474.5	1587.75
1010.1675	2836.2519	2460.4	1575.45
1010.2855	2837.4089	2435.75	1549.5
1010.4036	2838.5653	2421.8	1537.65
1010.5216	2839.7211	2406.15	1521.55
1010.6396	2840.8761	2406.95	1521
1010.7575	2842.0306	2414.5	1530.35
1010.8754	2843.1843	2430.05	1543.55
1010.9932	2844.3374	2464.4	1579.8
1011.111	2845.4899	2492.5	1603.65
1011.2288	2846.6417	2546.9	1662.1
1011.3465	2847.7928	2606.65	1721.45
1011.4642	2848.9433	2669.7	1785.35
1011.5818	2850.0931	2715.6	1829.85
1011.6995	2851.2422	2780.95	1893.85
1011.817	2852.3907	2839.15	1953.65
1011.9345	2853.5385	2898.1	2009.1
1012.052	2854.6857	2964.2	2052
1012.1695	2855.8323	2985.2	2098.8
1012.2869	2856.9781	3032.05	2147.2
1012.4042	2858.1233	3070.25	2184.2
1012.5216	2859.2679	3111.6	2229.15
1012.6389	2860.4118	3180.7	2296.05
1012.7561	2861.555	3221.4	2332.3
1012.8733	2862.6976	3266.45	2378.5
1012.9905	2863.8395	3288.35	2402.05
1013.1076	2864.9808	3322.85	2436.2
1013.2247	2866.1214	3336.65	2453.9
1013.3417	2867.2614	3375.65	2490.55
1013.4587	2868.4007	3387.9	2501.5
1013.5757	2869.5393	3408	2518.85
1013.6926	2870.6773	3429.65	2542.1
1013.8095	2871.8146	3420.75	2531.3
1013.9263	2872.9513	3421.55	2532.1
1014.0431	2874.0874	3408.4	2522.05
1014.1599	2875.2227	3412.8	2525.6
1014.2766	2876.3574	3393.35	2507.95
1014.3933	2877.4915	3365.6	2478.25
1014.51	2878.6249	3331.4	2447.1
1014.6266	2879.7577	3303.6	2418.85
1014.7431	2880.8898	3287.7	2394.25
1014.8596	2882.0212	3277.2	2393.3
1014.9761	2883.152	3263.8	2379.2
1015.0925	2884.2821	3247.6	2364.95
1015.2089	2885.4116	3252.15	2368.6
1015.3253	2886.5405	3256.25	2372.25
1015.4416	2887.6686	3256.2	2370.05
1015.5579	2888.7962	3273.65	2391.15
1015.6741	2889.923	3263	2379.05
1015.7903	2891.0493	3290.55	2406.5
1015.9065	2892.1748	3288.75	2403.95
1016.0226	2893.2997	3309.25	2424.55
1016.1387	2894.424	3322.75	2439.2
1016.2547	2895.5476	3341.2	2456.95
1016.3707	2896.6706	3355.7	2471.8
1016.4866	2897.7929	3364.2	2480.45
1016.6025	2898.9145	3388	2503.95
1016.7184	2900.0355	3410.95	2526.15
1016.8342	2901.1559	3438.95	2555.35
1016.95	2902.2756	3484.15	2593.3
1017.0658	2903.3946	3491.75	2608.4
1017.1815	2904.513	3539.95	2651.8
1017.2971	2905.6308	3549.25	2664.35
1017.4127	2906.7479	3593.55	2708.95
1017.5283	2907.8643	3609.25	2722.45
1017.6439	2908.9801	3612.65	2728.35
1017.7594	2910.0953	3621.5	2737.45
1017.8748	2911.2098	3628.35	2740.2
1017.9902	2912.3236	3611.25	2718.95
1018.1056	2913.4368	3609.05	2720.9
1018.2209	2914.5494	3572.75	2688.25
1018.3362	2915.6613	3565.25	2675.4
1018.4515	2916.7725	3526.8	2636.95
1018.5667	2917.8831	3499.3	2614.5
1018.6819	2918.9931	3475.3	2588.55
1018.797	2920.1024	3427.5	2542.35
1018.9121	2921.211	3404.15	2519.1
1019.0271	2922.319	3411.2	2526.15
1019.1421	2923.4264	3389.8	2506.75
1019.2571	2924.5331	3378.15	2494.4
1019.372	2925.6391	3382.9	2498.9
1019.4869	2926.7445	3379.65	2497.4
1019.6017	2927.8493	3373.95	2489.7
1019.7165	2928.9534	3373.55	2489.2
1019.8313	2930.0569	3389.05	2500.15
1019.946	2931.1597	3388.5	2503.85
1020.0606	2932.2619	3400.75	2517.85
1020.1753	2933.3634	3394.4	2508.7
1020.2899	2934.4643	3411.1	2521.85
1020.4044	2935.5645	3386.65	2494.5
1020.5189	2936.6641	3385.35	2498
1020.6334	2937.763	3357.5	2474.95
1020.7478	2938.8613	3316	2430.35
1020.8622	2939.959	3270	2383.1
1020.9765	2941.056	3220.95	2338.1
1021.0908	2942.1523	3156.95	2272.75
1021.2051	2943.248	3067.8	2185.7
1021.3193	2944.3431	2979.05	2092.9
1021.4334	2945.4375	2899.85	2015.55
1021.5476	2946.5313	2805.7	1924.75
1021.6617	2947.6244	2700.05	1815.7
1021.7757	2948.7169	2609.1	1723
1021.8897	2949.8087	2536.9	1652.45
1022.0037	2950.8999	2436.1	1551.25
1022.1176	2951.9904	2365.8	1482.1
1022.2315	2953.0803	2289.25	1405
1022.3453	2954.1696	2249.05	1364.75
1022.4591	2955.2582	2183.95	1302.7
1022.5728	2956.3462	2146.45	1263.75
1022.6865	2957.4335	2095.75	1210.95
1022.8002	2958.5202	2078.45	1192.9
1022.9138	2959.6062	2036.4	1152.6
1023.0274	2960.6916	2016.3	1133.85
1023.141	2961.7764	2000.15	1114.65
1023.2545	2962.8605	1984.4	1101.25
1023.3679	2963.9439	1975.8	1091.8
1023.4813	2965.0267	1963.35	1080.6
1023.5947	2966.1089	1966	1059
1023.708	2967.1905	1948.5	1064.45
1023.8213	2968.2714	1955.6	1073.9
1023.9346	2969.3516	1947.6	1065.45
1024.0478	2970.4312	1951.5	1063.6
1024.1609	2971.5102	1950.4	1065.7
1024.274	2972.5885	1966.35	1080.4
1024.3871	2973.6662	1964.9	1075.35
1024.5002	2974.7432	1968.35	1084.8
1024.6132	2975.8196	1957.6	1075.3
1024.7261	2976.8954	1947.3	1064.95
1024.839	2977.9705	1952.05	1069.95
1024.9519	2979.045	1936.3	1053.7
1025.0647	2980.1188	1914.35	1031.65
1025.1775	2981.192	1906.65	1025.75
1025.2902	2982.2645	1889.8	1005.7
1025.4029	2983.3364	1870.05	986.85
1025.5156	2984.4077	1843.25	961.55
1025.6282	2985.4783	1810.3	923.4
1025.7407	2986.5483	1793.8	911.35
1025.8532	2987.6177	1756.3	875.25
1025.9657	2988.6864	1722.2	839.6
1026.0782	2989.7545	1703.05	818.95
1026.1906	2990.8219	1665.75	784.35
1026.3029	2991.8887	1634	749
1026.4152	2992.9548	1602.65	719.65
1026.5275	2994.0204	1569.75	687.35
1026.6397	2995.0852	1538.7	658.65
1026.7519	2996.1495	1513.7	629
1026.864	2997.2131	1489.85	606.95
1026.9761	2998.276	1467.5	585.4
1027.0882	2999.3383	1446.85	563.5
1027.2002	3000.4	1427.85	544.7
1027.3122	3001.4611	1417.5	534.45
1027.4241	3002.5215	1394	511.5
1027.536	3003.5812	1379.8	495.9
1027.6478	3004.6404	1365.05	481.25
1027.7596	3005.6989	1354.75	472.4
1027.8714	3006.7567	1340.65	458.7
1027.9831	3007.8139	1357.2	443.45
1028.0947	3008.8705	1321.6	440.4
1028.2064	3009.9264	1314.85	427.85
1028.3179	3010.9818	1304.3	422.15
1028.4295	3012.0364	1290.5	407.2
1028.541	3013.0905	1296.7	413.15
1028.6524	3014.1439	1293.05	410.1
1028.7638	3015.1966	1279	396.1
1028.8752	3016.2487	1272.55	391.5
1028.9865	3017.3002	1279.3	392.8
1029.0978	3018.3511	1266.55	384.45
1029.209	3019.4013	1267.95	386.35
1029.3202	3020.4509	1264.45	382.9
1029.4314	3021.4998	1265.2	382.9
1029.5425	3022.5481	1259.85	377.45
1029.6535	3023.5958	1260.3	375.6
1029.7645	3024.6428	1260.85	379.15
1029.8755	3025.6892	1256.95	375.65
1029.9864	3026.735	1256.15	374.15
1030.0973	3027.7802	1254.2	372
1030.2082	3028.8247	1256.25	374.05
1030.319	3029.8685	1255.6	374.6
1030.4297	3030.9118	1255.15	373.15
1030.5404	3031.9544	1256.45	374.75
1030.6511	3032.9963	1256.4	373.95
1030.7617	3034.0376	1261	378.4
1030.8723	3035.0783	1262.95	378.4
1030.9829	3036.1184	1261.95	379.85
1031.0934	3037.1578	1264.8	383.6
1031.2038	3038.1966	1272.15	390.65
1031.3142	3039.2348	1264.9	381.75
1031.4246	3040.2723	1274.85	385
1031.5349	3041.3092	1268.6	387.7
1031.6452	3042.3455	1274.9	390.65
1031.7554	3043.3811	1268.35	386.85
1031.8656	3044.4161	1267.7	385.75
1031.9758	3045.4505	1260.4	379.95
1032.0859	3046.4842	1267.65	385.1
1032.1959	3047.5173	1260.4	379.2
1032.3059	3048.5498	1254.2	374.4
1032.4159	3049.5816	1260	376.1
1032.5258	3050.6128	1249.3	366.4
1032.6357	3051.6434	1253.4	369.3
1032.7455	3052.6734	1249.8	367.1
1032.8553	3053.7027	1243.4	363.2
1032.9651	3054.7314	1242.2	362.4
1033.0748	3055.7594	1239.15	360.65
1033.1845	3056.7868	1237.1	353.15
1033.2941	3057.8136	1233.15	351.8
1033.4037	3058.8398	1236.1	355.3
1033.5132	3059.8653	1226.1	344.95
1033.6227	3060.8902	1231.65	352.4
1033.7321	3061.9145	1228.9	348.85
1033.8415	3062.9381	1227.65	346.3
1033.9509	3063.9612	1234.9	338.15
1034.0602	3064.9835	1214.8	333.65
1034.1694	3066.0053	1218.7	335.75
1034.2787	3067.0264	1211.95	332.55
1034.3878	3068.0469	1210.65	325.95
1034.497	3069.0668	1206.9	324.65
1034.6061	3070.086	1205.55	323.95
1034.7151	3071.1046	1190.2	308.4
1034.8241	3072.1226	1189.25	306.75
1034.9331	3073.1399	1183.6	299.5
1035.042	3074.1567	1180.65	298.8
1035.1508	3075.1727	1173.55	291.8
1035.2597	3076.1882	1166.9	286.7
1035.3684	3077.203	1167.9	285.7
1035.4772	3078.2173	1151.85	267.7
1035.5859	3079.2308	1156.55	273
1035.6945	3080.2438	1139.4	258.5
1035.8031	3081.2561	1136	255.75
1035.9117	3082.2678	1126.95	246.5
1036.0202	3083.2789	1121.65	240.75
1036.1286	3084.2893	1114.4	233.45
1036.2371	3085.2991	1114.8	232.75
1036.3454	3086.3083	1112.45	228.25
1036.4538	3087.3169	1111.2	229.5
1036.562	3088.3248	1102.45	221.1
1036.6703	3089.3321	1101.85	217.6
1036.7785	3090.3388	1097.45	215.65
1036.8866	3091.3449	1091.45	209.4
1036.9948	3092.3503	1087.2	203.8
1037.1028	3093.3551	1085.65	205.2
1037.2108	3094.3593	1078.05	196.9
1037.3188	3095.3629	1076.1	197.75
1037.4267	3096.3658	1076.9	193.55
1037.5346	3097.3681	1072.25	190.7
1037.6425	3098.3698	1071.15	188.65
1037.7503	3099.3708	1072.1	185.1
1037.858	3100.3713	1065	185.45
1037.9657	3101.3711	1060.65	179.05
1038.0734	3102.3702	1178.75	184.1
1038.181	3103.3688	1060.6	178.55
1038.2886	3104.3667	1054.55	173.85
1038.3961	3105.364	1048.55	168.35
1038.5036	3106.3607	1049.2	166.55
1038.611	3107.3568	1046.4	164.1
1038.7184	3108.3522	1048.2	170.1
1038.8257	3109.347	1042.25	160.15
1038.933	3110.3412	1048.85	163.6
1039.0403	3111.3348	1040.7	160.05
1039.1475	3112.3277	1035.4	155.05
1039.2547	3113.32	1032.95	153.4
1039.3618	3114.3117	1038.55	158.1
1039.4689	3115.3028	1036.85	157.2
1039.5759	3116.2932	1036.05	155
1039.6829	3117.2831	1037.35	150.8
1039.7898	3118.2723	1027.7	146.75
1039.8967	3119.2608	1027.7	146.95
1040.0035	3120.2488	1023.75	142.15
1040.1103	3121.2361	1023.25	142.15
1040.2171	3122.2229	1020.95	140.1
1040.3238	3123.209	1020.25	139.5
1040.4305	3124.1944	1015.95	137.05
1040.5371	3125.1793	1020.25	137.6
1040.6437	3126.1635	1013.75	132.2
1040.7502	3127.1471	1012.5	133.4
1040.8567	3128.1301	1014.85	136.35
1040.9631	3129.1125	1013.85	132.75
1041.0695	3130.0942	1009.3	130.25
1041.1759	3131.0753	1019.7	131.65
1041.2822	3132.0558	1009.7	126.95
1041.3884	3133.0357	1008.8	128.15
1041.4946	3134.015	1003.75	122.05
1041.6008	3134.9936	1006.9	124.1
1041.7069	3135.9716	1025.95	122.9
1041.813	3136.949	1005.55	126.45
1041.919	3137.9258	1017.9	118.7
1042.025	3138.902	1004.65	121.25
1042.1309	3139.8775	1003.1	123.1
1042.2368	3140.8524	1000.2	118.6
1042.3427	3141.8267	1001.15	119
1042.4485	3142.8004	995.5	115.5
1042.5542	3143.7735	1002	116.15
1042.6599	3144.7459	995.55	113.5
1042.7656	3145.7178	997.25	116.45
1042.8712	3146.689	995.75	115.35
1042.9768	3147.6596	993.6	112.35
1043.0823	3148.6295	991.65	110.15
1043.1878	3149.5989	989.45	108.65
1043.2932	3150.5676	985.6	107.7
1043.3986	3151.5357	988.15	110.45
1043.5039	3152.5032	986.7	107.3
1043.6092	3153.4701	987.8	107.9
1043.7145	3154.4364	988.15	103.6
1043.8197	3155.402	987.1	107.7
1043.9248	3156.367	984.35	102.85
1044.03	3157.3315	1020.9	104.9
1044.135	3158.2952	983.8	103.45
1044.24	3159.2584	980.5	99.7
1044.345	3160.221	982.95	101.65
1044.4499	3161.1829	981.85	100.85
1044.5548	3162.1442	981.25	101.3
1044.6596	3163.105	979.9	98.75
1044.7644	3164.065	978.3	98.8
1044.8692	3165.0245	979.9	97.8
1044.9739	3165.9834	975.1	96.85
1045.0785	3166.9416	976.6	96.8
1045.1831	3167.8993	976.75	95.7
1045.2877	3168.8563	976.2	95.3
1045.3922	3169.8127	976.1	97.15
1045.4966	3170.7684	974.4	93.6
1045.6011	3171.7236	976.5	95.45
1045.7054	3172.6782	972.6	92.7
1045.8098	3173.6321	974.85	93.2
1045.914	3174.5854	974.9	91.7
1046.0183	3175.5381	973.5	92.75
1046.1224	3176.4902	969.7	87.75
1046.2266	3177.4417	969.2	89.45
1046.3307	3178.3926	968.7	87.85
1046.4347	3179.3428	967.7	89.8
1046.5387	3180.2924	969.05	90.65
1046.6427	3181.2415	972.45	92.95
1046.7466	3182.1899	969.15	89.4
1046.8504	3183.1377	971.05	92.4
1046.9542	3184.0848	970.5	86.9
1047.058	3185.0314	965.95	86.15
1047.1617	3185.9773	964.9	86.45
1047.2654	3186.9227	961.75	81.35
1047.369	3187.8674	963.25	84.55
1047.4726	3188.8115	966.55	84.05
1047.5761	3189.755	964.1	83.95
1047.6796	3190.6979	962.5	82.15
1047.783	3191.6402	960.35	82.5
1047.8864	3192.5818	960.5	79.85
1047.9898	3193.5229	971.25	85.6
1048.0931	3194.4633	961.9	81.35
1048.1963	3195.4031	959	78.55
1048.2995	3196.3423	956.2	77.3
1048.4027	3197.2809	955.3	74.05
1048.5058	3198.2189	961.15	81.55
1048.6089	3199.1563	974.55	77.35
1048.7119	3200.0931	961.25	82.25
1048.8148	3201.0292	954.7	75.3
1048.9178	3201.9648	959.5	79.75
1049.0206	3202.8997	957.5	75.15
1049.1235	3203.834	955.1	76.65
1049.2262	3204.7677	954.75	75.95
1049.329	3205.7008	952.65	70.35
1049.4317	3206.6333	954.5	79.9
1049.5343	3207.5652	954.05	74.1
1049.6369	3208.4964	953.75	74.4
1049.7394	3209.4271	951.35	71.35
1049.8419	3210.3571	949.35	70.5
1049.9444	3211.2865	952.7	74.75
1050.0468	3212.2154	953.7	74.9
1050.1491	3213.1436	954.1	70.7
1050.2514	3214.0712	958.65	74.15
1050.3537	3214.9982	951.4	72.95
1050.4559	3215.9246	953.05	73.6
1050.5581	3216.8503	947.1	68.45
1050.6602	3217.7755	948.75	70.35
1050.7623	3218.7001	948.45	71.6
1050.8643	3219.624	952	73.2
1050.9663	3220.5473	952.15	71.35
1051.0682	3221.4701	948.4	67.7
1051.1701	3222.3922	944.55	62.75
1051.2719	3223.3137	945.9	67
1051.3737	3224.2346	944.95	66.05
1051.4754	3225.1549	946.2	67.45
1051.5771	3226.0746	944.75	66.2
1051.6788	3226.9937	947	67.5
1051.7804	3227.9121	946.1	68.25
1051.8819	3228.83	943.25	65.55
1051.9834	3229.7473	943.7	65.25
1052.0849	3230.6639	945.3	65.2
1052.1863	3231.5799	942.95	65.85
1052.2876	3232.4954	945.3	66.75
1052.3889	3233.4102	940.1	61.15
1052.4902	3234.3244	943.45	64.35
1052.5914	3235.238	943.2	64.7
1052.6926	3236.151	966.45	63.15
1052.7937	3237.0634	938.75	61.4
1052.8948	3237.9752	940.35	61.35
1052.9958	3238.8864	939	59.15
1053.0968	3239.797	938.05	58.55
1053.1977	3240.7069	938.4	59.1
1053.2986	3241.6163	939.05	59.55
1053.3994	3242.5251	939.9	61.8
1053.5002	3243.4332	933.85	56.65
1053.6009	3244.3408	937.75	58.9
1053.7016	3245.2477	936.55	57.2
1053.8022	3246.154	936.95	57.2
1053.9028	3247.0598	936.85	57.15
1054.0034	3247.9649	934.25	56.65
1054.1039	3248.8694	935.25	57.05
1054.2043	3249.7733	936.05	55.15
1054.3047	3250.6766	930.7	50.55
1054.4051	3251.5793	935.45	54.9
1054.5054	3252.4814	932.55	53.95
1054.6056	3253.3829	931.15	53.5
1054.7058	3254.2838	935.25	58.15
1054.806	3255.1841	929.85	49.85
1054.9061	3256.0838	929.55	51.15
1055.0061	3256.9829	929.95	52.55
1055.1062	3257.8814	932.15	51.1
1055.2061	3258.7792	931.15	52.65
1055.306	3259.6765	930.05	49.5
1055.4059	3260.5731	928.2	50.7
1055.5057	3261.4692	927.4	47.5
1055.6055	3262.3647	923.1	45.75
1055.7052	3263.2595	927.1	48.45
1055.8049	3264.1538	927.3	48.55
1055.9045	3265.0474	924.8	46.15
1056.0041	3265.9404	923.35	45.7
1056.1036	3266.8329	922.3	43.25
1056.2031	3267.7247	929.25	41.35
1056.3025	3268.616	919.1	42.15
1056.4019	3269.5066	917.9	39.6
1056.5013	3270.3966	921.9	41.2
1056.6005	3271.286	913.35	37.5
