Software Version:	3.9.2.0
Unit SN:	10000200
Spectrometer SN:	6960
Date:	3/8/2024 1:49:22 PM
Data Line Index:	25
Spectral Points:	2048
Integration time (ms):	125
Averages:	20
Delay (ms):	30000
Sequence Number:	1
Processing:	dark subtract
Laser Power (mW):	300
Laser Current (mA):	824
Laser Diode Temp (C):	25
Laser Case Temp (C):	26.4
System Temp (C):	26.4
Spectrometer Temp (C):	24.1
CCD Temp (C):	0.007
Secondary Temp (C):	20.007
Heatsink Temp (C):	21.345
CCDPCB Temp (C):	36.285
SecondaryPCB Temp (C):	32.116

Wavelength	RamanShift	Raw Counts	Dark Subtracted
787.061	30.1047	471.65	63.7
787.2016	32.3739	471.75	65.35
787.3422	34.6426	477.15	70
787.4828	36.9109	483.7	73.15
787.6235	39.1787	491.05	78.45
787.7642	41.4461	503.35	85.65
787.9049	43.7131	511.5	91
788.0456	45.9796	520.2	96.65
788.1863	48.2456	527.55	100.05
788.3271	50.5112	539.3	107.6
788.4679	52.7764	549.9	115.7
788.6087	55.0411	565.35	124.15
788.7496	57.3054	574.55	128.8
788.8904	59.5692	585.45	138.45
789.0313	61.8326	596.3	148.9
789.1722	64.0955	610.2	157.4
789.3132	66.3579	627.05	169.8
789.4541	68.6199	649.4	187.95
789.5951	70.8815	687.15	219.35
789.7361	73.1426	779.5	309.95
789.8771	75.4032	993.95	521.2
790.0181	77.6634	1533.35	1054.1
790.1592	79.9231	2801.55	2314.9
790.3003	82.1824	5595.2	5091.35
790.4414	84.4412	10622.45	10089.1
790.5825	86.6995	17605.35	17034.2
790.7237	88.9574	24456.35	23849.8
790.8648	91.2148	29219.9	28589.35
791.006	93.4717	31465.8	30818.25
791.1472	95.7282	32056.1	31408.1
791.2885	97.9842	32039.45	31386.45
791.4297	100.2398	31570.35	30910.7
791.571	102.4949	30986	30326.1
791.7123	104.7495	30289.4	29623.85
791.8536	107.0036	29533.85	28870.9
791.9949	109.2573	28798.7	28136.25
792.1363	111.5105	28135.5	27471.85
792.2777	113.7632	27462.05	26793.7
792.4191	116.0154	26887.35	26206.4
792.5605	118.2672	26501.5	25822.7
792.7019	120.5185	26052.55	25375.35
792.8434	122.7693	25747	25068.35
792.9849	125.0197	25500.35	24815.85
793.1264	127.2696	25255.25	24572.25
793.2679	129.519	25126.2	24435.25
793.4094	131.7679	24966.65	24272.85
793.551	134.0163	24819.2	24125.2
793.6926	136.2642	24624.65	23926.55
793.8342	138.5117	24435.1	23730.7
793.9758	140.7587	24204.8	23500.25
794.1175	143.0052	24056.15	23344.45
794.2591	145.2512	23795.6	23089.3
794.4008	147.4967	23600.65	22894.35
794.5425	149.7417	23471.5	22761.15
794.6842	151.9863	23352.5	22638.9
794.826	154.2304	23358.5	22640.95
794.9677	156.4739	23207.6	22481
795.1095	158.717	23135.45	22409.3
795.2513	160.9596	23026.5	22300.1
795.3931	163.2017	22812.3	22084.9
795.535	165.4433	22518.7	21787.2
795.6768	167.6844	22196.65	21461.45
795.8187	169.925	21941.1	21203.7
795.9606	172.1651	21574.4	20836.8
796.1025	174.4047	21350.65	20606.55
796.2445	176.6439	21110.55	20366.7
796.3864	178.8825	20885.75	20139.5
796.5284	181.1206	20730.25	19977.75
796.6704	183.3582	20610.65	19854
796.8124	185.5954	20530.4	19773.6
796.9544	187.832	20456.3	19696.3
797.0965	190.0681	20470.9	19709.15
797.2386	192.3037	20494.45	19731.6
797.3806	194.5388	20505.4	19736.5
797.5228	196.7734	20585.55	19814.1
797.6649	199.0075	20716.35	19941.2
797.807	201.2411	20848.55	20072.5
797.9492	203.4742	20968.4	20193
798.0914	205.7068	21138.7	20353.85
798.2336	207.9389	21270.15	20487.9
798.3758	210.1704	21421	20645.6
798.518	212.4015	21554.45	20785.35
798.6603	214.632	21760.25	20998.3
798.8025	216.862	21941.65	21180.9
798.9448	219.0915	22098.85	21336.5
799.0871	221.3205	22365.55	21597.65
799.2294	223.549	22648.4	21884.4
799.3718	225.777	22941.75	22183.65
799.5141	228.0044	23289.95	22524.8
799.6565	230.2314	23735.45	22966.05
799.7989	232.4578	24146.9	23378.55
799.9413	234.6837	24509.15	23732.35
800.0837	236.909	24738.55	23951.45
800.2262	239.1339	24782.5	23975.2
800.3687	241.3582	24596.35	23802.55
800.5111	243.582	24290.95	23466.55
800.6536	245.8053	23980.45	23169.6
800.7961	248.0281	23732.05	22928.95
800.9387	250.2503	23507.65	22702.9
801.0812	252.472	23415.35	22604.65
801.2238	254.6932	23364.6	22557.85
801.3664	256.9139	23338.4	22529
801.509	259.134	23388.75	22573.15
801.6516	261.3536	23435.3	22621.45
801.7942	263.5727	23487.9	22673.4
801.9369	265.7912	23498.5	22687.15
802.0795	268.0092	23544.2	22731.15
802.2222	270.2267	23532.75	22720.45
802.3649	272.4436	23519.8	22700.4
802.5076	274.6601	23537.35	22711.65
802.6504	276.8759	23451.75	22629.75
802.7931	279.0913	23414.75	22596.55
802.9359	281.3061	23440.55	22619.45
803.0787	283.5204	23490.85	22663.1
803.2215	285.7341	23572.95	22745.7
803.3643	287.9473	23746.45	22906.2
803.5071	290.16	24011	23177.5
803.6499	292.3721	24292.3	23467.35
803.7928	294.5837	24700.55	23871.7
803.9357	296.7947	25049.9	24223
804.0786	299.0052	25300.95	24471.95
804.2215	301.2152	25158.8	24330.95
804.3644	303.4246	24871.65	24046.85
804.5074	305.6334	24366.5	23538.45
804.6503	307.8418	23840.8	23011.9
804.7933	310.0495	23507.8	22673.1
804.9363	312.2568	23164.55	22330.5
805.0793	314.4635	22971.7	22131.65
805.2223	316.6696	22874.65	22035.05
805.3653	318.8752	22846.7	22001.4
805.5084	321.0802	22917.4	22078.65
805.6514	323.2847	23035.85	22196.25
805.7945	325.4887	23090.35	22244.55
805.9376	327.692	23035	22193.5
806.0807	329.8949	23008.5	22162.85
806.2238	332.0972	22733.45	21888.95
806.367	334.2989	22458.15	21604.4
806.5101	336.5001	22207.9	21355.35
806.6533	338.7007	22072.8	21222.55
806.7965	340.9008	22000.8	21147.25
806.9397	343.1003	21892.6	21040.75
807.0829	345.2992	21842.5	20992.3
807.2261	347.4976	21839.4	20985.35
807.3693	349.6955	21842.5	20984.2
807.5126	351.8927	21947.7	21089.3
807.6559	354.0895	21952.25	21085.55
807.7991	356.2856	21979.55	21116.25
807.9424	358.4812	21995.75	21133.85
808.0857	360.6763	22075.35	21210.1
808.2291	362.8707	22057	21186.2
808.3724	365.0646	22118.6	21251.65
808.5158	367.258	22139.3	21269.2
808.6591	369.4508	22161.85	21293.95
808.8025	371.643	22283.7	21412.1
808.9459	373.8346	22259.5	21384.15
809.0893	376.0257	22317.35	21441.65
809.2327	378.2162	22212.05	21340.25
809.3762	380.4062	22120.35	21246.55
809.5196	382.5956	22001.5	21130.65
809.6631	384.7844	21955.55	21086.7
809.8066	386.9726	21825.45	20957.35
809.9501	389.1603	21786.75	20920.8
810.0936	391.3474	21775.15	20873.65
810.2371	393.5339	21775.35	20903.4
810.3806	395.7199	21708.2	20843.6
810.5241	397.9052	21768.6	20902
810.6677	400.09	21802.05	20935.2
810.8113	402.2743	21892.8	21024.55
810.9548	404.4579	21963.25	21091.8
811.0984	406.641	22169.2	21299.65
811.2421	408.8235	22415.65	21547.3
811.3857	411.0054	22724.25	21852.5
811.5293	413.1868	23147.95	22271.3
811.673	415.3675	23482.05	22599.85
811.8166	417.5477	23645.85	22766.4
811.9603	419.7273	23691.7	22811.75
812.104	421.9064	23616	22727.4
812.2477	424.0848	23501.8	22619.35
812.3914	426.2627	23280.65	22394.9
812.5351	428.4399	23031.4	22146.35
812.6788	430.6166	22678.65	21790.35
812.8226	432.7928	22340.15	21452.55
812.9663	434.9683	22027.35	21140.05
813.1101	437.1432	21845.25	20960.35
813.2539	439.3176	21688.25	20811.5
813.3977	441.4914	21603.4	20727.75
813.5415	443.6645	21603.95	20724.15
813.6853	445.8371	21518.05	20633.3
813.8291	448.0091	21430.6	20547.4
813.973	450.1806	21417.05	20535.9
814.1168	452.3514	21380.25	20506.2
814.2607	454.5216	21407.2	20512
814.4046	456.6913	21333.35	20448.75
814.5485	458.8603	21377.65	20489.55
814.6924	461.0288	21479.75	20601.65
814.8363	463.1967	21514.55	20641.25
814.9802	465.3639	21622.7	20742.25
815.1241	467.5306	21733.65	20851.25
815.2681	469.6967	21835.1	20956.6
815.412	471.8622	21994.45	21116
815.556	474.0271	22202.45	21321.8
815.7	476.1914	22235.8	21347.9
815.844	478.3551	22267.3	21382.2
815.988	480.5182	22287.95	21407.6
816.132	482.6807	22296.7	21421.9
816.276	484.8426	22415.4	21547.8
816.4201	487.0039	22731.15	21855.8
816.5641	489.1647	23173.45	22287.2
816.7082	491.3248	23597.15	22711
816.8522	493.4843	23776.7	22895.85
816.9963	495.6432	23765.2	22882.4
817.1404	497.8015	23669.6	22780.2
817.2845	499.9592	23677.4	22782.8
817.4286	502.1163	23653.4	22757.15
817.5727	504.2728	23433.45	22543.75
817.7168	506.4287	23166.75	22286.85
817.861	508.5839	22757.8	21879.2
818.0051	510.7386	22483.6	21595.05
818.1493	512.8927	22335.35	21446.55
818.2935	515.0461	22249.1	21358.5
818.4377	517.199	22219.35	21321
818.5818	519.3512	22229.45	21327.95
818.726	521.5029	22328.45	21430.95
818.8703	523.6539	22441.05	21549.15
819.0145	525.8043	22529.65	21630.5
819.1587	527.9541	22544.8	21643.55
819.303	530.1033	22497.2	21601.75
819.4472	532.2519	22503.15	21607.25
819.5915	534.3999	22667.95	21770
819.7357	536.5472	22921.8	22028.35
819.88	538.694	23385.95	22493.85
820.0243	540.8401	24008.2	23108.6
820.1686	542.9856	24470.6	23561.4
820.3129	545.1305	24628.6	23713.5
820.4572	547.2748	24534.25	23623.85
820.6016	549.4185	24208.65	23294.85
820.7459	551.5615	23853.3	22942.9
820.8902	553.704	23784.95	22873.65
821.0346	555.8458	23741.6	22835.6
821.1789	557.987	23775.4	22873.45
821.3233	560.1276	23767.55	22855.9
821.4677	562.2675	23864.55	22952.15
821.6121	564.4069	23928.8	23016.4
821.7565	566.5456	23985.3	23075.35
821.9009	568.6837	23931.7	23026
822.0453	570.8212	23641.75	22738.95
822.1897	572.958	23348.45	22444
822.3342	575.0942	22985.8	22085.5
822.4786	577.2299	22807.1	21907.15
822.6231	579.3648	22762.3	21873.25
822.7675	581.4992	22795.75	21918.25
822.912	583.6329	22997.85	22116.55
823.0565	585.766	23255.85	22370.9
823.201	587.8985	23384.5	22494.65
823.3454	590.0304	23402.55	22478.65
823.4899	592.1616	23342.25	22435.55
823.6345	594.2922	23237.8	22323
823.779	596.4222	23104.7	22191.85
823.9235	598.5515	22934.55	22021.1
824.068	600.6802	22776.75	21864.2
824.2126	602.8083	22614	21703.3
824.3571	604.9358	22608.5	21698.1
824.5017	607.0626	22533.75	21620.9
824.6462	609.1888	22500.55	21581.3
824.7908	611.3144	22481.6	21562.05
824.9354	613.4393	22414	21492.15
825.08	615.5636	22349.85	21430.5
825.2246	617.6873	22305.35	21388.75
825.3692	619.8103	22252.75	21332.3
825.5138	621.9327	22165.15	21251.95
825.6584	624.0544	22152.4	21241.65
825.803	626.1756	22106.3	21193.15
825.9477	628.2961	22103.95	21187.4
826.0923	630.4159	22015.6	21097.8
826.237	632.5351	22043.3	21122.95
826.3816	634.6537	21976.75	21056.9
826.5263	636.7716	22003.75	21079.35
826.6709	638.8889	22038.4	21112.7
826.8156	641.0056	22111.6	21184.8
826.9603	643.1216	22092.55	21167.6
827.105	645.237	22109	21186.95
827.2497	647.3518	22107.1	21189.7
827.3944	649.4659	22145.3	21235.8
827.5391	651.5793	22140.35	21228.05
827.6838	653.6922	22144.45	21226.15
827.8285	655.8043	22162.15	21250.4
827.9733	657.9159	22167.4	21249.8
828.118	660.0268	22107.45	21189.35
828.2627	662.137	22048.8	21129.6
828.4075	664.2466	22093.25	21166.95
828.5522	666.3556	22079.8	21158.65
828.697	668.4639	22065.6	21146.15
828.8418	670.5716	22104.3	21189.8
828.9865	672.6786	22187.9	21266.5
829.1313	674.785	22212.25	21279.5
829.2761	676.8907	22310.05	21388.85
829.4209	678.9958	22384.65	21467.55
829.5657	681.1002	22370	21448.85
829.7105	683.204	22379.75	21449.5
829.8553	685.3072	22317.4	21390
830.0001	687.4097	22280.3	21356.15
830.1449	689.5115	22287.4	21360.7
830.2898	691.6127	22247.25	21322.75
830.4346	693.7132	22186.95	21269
830.5794	695.8131	22179.75	21249.55
830.7243	697.9123	22174.25	21244.45
830.8691	700.0109	22152.4	21219.85
831.014	702.1089	22183.6	21254.15
831.1588	704.2061	22196.8	21273.4
831.3037	706.3028	22257.2	21329.7
831.4486	708.3987	22331.2	21397
831.5935	710.4941	22393.05	21467.4
831.7383	712.5887	22573.15	21645.4
831.8832	714.6827	22870.9	21943.3
832.0281	716.7761	23221.8	22295.9
832.173	718.8688	23559.9	22633.65
832.3179	720.9608	23727.8	22792.3
832.4628	723.0522	23834.8	22895.65
832.6077	725.1429	23639.35	22703.95
832.7527	727.233	23443.1	22508.45
832.8976	729.3224	23271.3	22340.2
833.0425	731.4112	22986.5	22055.95
833.1874	733.4993	22812.65	21882.05
833.3324	735.5867	22631.35	21699.35
833.4773	737.6735	22583.3	21655.25
833.6222	739.7596	22503.9	21569.7
833.7672	741.845	22456.75	21527.6
833.9122	743.9298	22442.1	21506.65
834.0571	746.014	22456.75	21525.25
834.2021	748.0974	22461.25	21524.7
834.347	750.1802	22493.95	21558.55
834.492	752.2624	22485.25	21550.1
834.637	754.3439	22484.9	21547.35
834.782	756.4247	22562.8	21619.85
834.9269	758.5048	22675.5	21740.25
835.0719	760.5843	22898.3	21960.95
835.2169	762.6631	23247.5	22307.25
835.3619	764.7413	23684.25	22750.2
835.5069	766.8188	24268	23331.85
835.6519	768.8956	24714.6	23776.25
835.7969	770.9718	25051.5	24113.35
835.9419	773.0473	24896.6	23960.8
836.0869	775.1221	24575.3	23637.9
836.232	777.1962	24206.7	23267.9
836.377	779.2697	24042.25	23102.55
836.522	781.3426	24140.95	23180.9
836.667	783.4147	24355.4	23414.55
836.8121	785.4862	24650.2	23709.25
836.9571	787.557	24635.8	23694.55
837.1021	789.6271	24339.15	23399.4
837.2472	791.6966	23782.45	22842.6
837.3922	793.7654	23256.3	22317.85
837.5373	795.8335	22985.75	22045.35
837.6823	797.901	22811.1	21869
837.8274	799.9678	22752.2	21810.3
837.9724	802.0339	22784.5	21837.75
838.1175	804.0993	22876.35	21922.6
838.2626	806.1641	22798.6	21855.1
838.4076	808.2282	22730.75	21794.35
838.5527	810.2916	22672.75	21731.95
838.6978	812.3544	22610.4	21671.85
838.8428	814.4164	22500.35	21562.55
838.9879	816.4778	22563.9	21620.25
839.133	818.5385	22567.65	21624.75
839.2781	820.5986	22661	21721.45
839.4232	822.658	22801.55	21855.1
839.5682	824.7166	22899.2	21954.05
839.7133	826.7747	23201.85	22256.7
839.8584	828.832	23388.95	22443.4
840.0035	830.8886	23536.95	22585.65
840.1486	832.9446	23735.8	22787.8
840.2937	834.9999	23726.05	22784.4
840.4388	837.0545	23714.7	22764.95
840.5839	839.1085	23682.4	22737.2
840.729	841.1618	23650.2	22703.4
840.8741	843.2143	23625.65	22682.65
841.0192	845.2662	23456.3	22511.9
841.1643	847.3175	23472.2	22529.05
841.3095	849.368	23383.7	22439.9
841.4546	851.4179	23274.05	22333.7
841.5997	853.467	23130.35	22185.75
841.7448	855.5155	23026.85	22081.7
841.8899	857.5633	22981.5	22038.3
842.0351	859.6105	22850.6	21901.55
842.1802	861.6569	22781	21836.6
842.3253	863.7027	22760.2	21811.25
842.4704	865.7478	22781.6	21834.5
842.6156	867.7922	22772.6	21822.75
842.7607	869.8359	22843.55	21899.55
842.9058	871.8789	22965.95	22018
843.0509	873.9212	23122.5	22143.9
843.1961	875.9629	23249.5	22300.75
843.3412	878.0039	23475.35	22526.85
843.4863	880.0441	23581	22633.75
843.6315	882.0837	23554.6	22607.65
843.7766	884.1226	23527.2	22578.85
843.9218	886.1609	23434.2	22486.2
844.0669	888.1984	23448.95	22502.65
844.212	890.2352	23509.05	22564.65
844.3572	892.2714	23417.55	22464.65
844.5023	894.3069	23456.8	22512.8
844.6475	896.3416	23376.6	22426.65
844.7926	898.3757	23338.85	22389.85
844.9377	900.4091	23331.3	22378.75
845.0829	902.4418	23339.35	22382.9
845.228	904.4739	23375.15	22423.9
845.3732	906.5052	23392.7	22441.2
845.5183	908.5358	23273.2	22322.15
845.6635	910.5658	23099.3	22147.8
845.8086	912.595	22972.9	22023.6
845.9538	914.6236	22845.5	21896.1
846.0989	916.6515	22793.75	21843.4
846.2441	918.6786	22784.8	21828.7
846.3892	920.7051	22841.25	21886
846.5344	922.7309	22947.8	21996.5
846.6795	924.756	23057.65	22107.25
846.8246	926.7804	23166.2	22218.85
846.9698	928.8041	23048.8	22099.95
847.1149	930.8272	23113.95	22162.55
847.2601	932.8495	23027.3	22075.7
847.4052	934.8711	23016.7	22064.4
847.5504	936.892	22883.4	21930.9
847.6955	938.9123	22688.8	21734.85
847.8407	940.9318	22622.65	21670.25
847.9858	942.9506	22507.55	21554.45
848.131	944.9688	22454.5	21504.95
848.2761	946.9862	22414.45	21463.25
848.4213	949.003	22280	21327.4
848.5664	951.019	22295.55	21343.75
848.7115	953.0344	22257.9	21306.2
848.8567	955.0491	22338.35	21389.2
849.0018	957.063	22449.85	21500.2
849.147	959.0763	22577.5	21629.3
849.2921	961.0888	22622.3	21670.15
849.4373	963.1007	22704.35	21756.4
849.5824	965.1119	22758.5	21821.4
849.7275	967.1223	22782.6	21847.8
849.8727	969.1321	22796.8	21864.7
850.0178	971.1412	22880.2	21936.5
850.1629	973.1495	22852.25	21908.3
850.3081	975.1572	22934.85	21932.45
850.4532	977.1641	22941.45	21988.05
850.5983	979.1704	22892.8	21943.9
850.7435	981.1759	22895.4	21940.4
850.8886	983.1808	22946.35	21993.35
851.0337	985.1849	23041.1	22080.45
851.1788	987.1884	23179.05	22229.4
851.324	989.1911	23369.7	22419.1
851.4691	991.1932	23475.85	22524.5
851.6142	993.1945	23513.35	22565.4
851.7593	995.1951	23394.4	22442.15
851.9045	997.1951	23393.2	22436
852.0496	999.1943	23314.95	22363.95
852.1947	1001.1928	23301.05	22347.55
852.3398	1003.1906	23233.55	22285.2
852.4849	1005.1877	23279.75	22327
852.63	1007.1841	23274.95	22326.2
852.7751	1009.1798	23216.65	22271.3
852.9202	1011.1748	23014.4	22062.3
853.0653	1013.1691	22813.1	21861.75
853.2104	1015.1627	22610.4	21663.5
853.3555	1017.1556	22378.4	21432.95
853.5006	1019.1477	22256.6	21308.3
853.6457	1021.1392	22167.4	21228.2
853.7908	1023.1299	22162.15	21223.15
853.9359	1025.12	22125.85	21191.8
854.081	1027.1093	22167.95	21244.55
854.2261	1029.0979	22242.95	21326.05
854.3712	1031.0859	22285.7	21361.65
854.5163	1033.0731	22331.35	21398.55
854.6613	1035.0596	22202.25	21261.4
854.8064	1037.0454	22012.65	21065.8
854.9515	1039.0304	21964.1	21016.9
855.0965	1041.0148	21804.95	20857.45
855.2416	1042.9985	21699.55	20748.65
855.3867	1044.9814	21723	20778.8
855.5317	1046.9636	21634.75	20686.4
855.6768	1048.9452	21620.8	20671.3
855.8219	1050.926	21611.55	20664.05
855.9669	1052.9061	21624.15	20678
856.112	1054.8855	21602.55	20652.95
856.257	1056.8642	21632.4	20684.1
856.4021	1058.8421	21724.1	20771.1
856.5471	1060.8194	21723.15	20775.95
856.6921	1062.7959	21731.4	20781
856.8372	1064.7717	21791.05	20839.85
856.9822	1066.7469	21822.35	20872.85
857.1272	1068.7213	21790.4	20838.6
857.2723	1070.695	21830.15	20882.35
857.4173	1072.6679	21723.45	20772.95
857.5623	1074.6402	21712.45	20763
857.7073	1076.6117	21674.4	20720.3
857.8523	1078.5826	21746.85	20797.75
857.9973	1080.5527	21720.35	20770.1
858.1423	1082.5221	21741.9	20791.65
858.2873	1084.4908	21911.65	20965.3
858.4323	1086.4587	22087.65	21138.25
858.5773	1088.426	22193.35	21240
858.7223	1090.3925	22196.8	21241
858.8673	1092.3584	22158.5	21209.15
859.0123	1094.3235	21976.8	21029.75
859.1573	1096.2879	21928.1	20980.8
859.3022	1098.2515	21933.8	20984.3
859.4472	1100.2145	22012.05	21063.95
859.5922	1102.1767	22121.6	21173.8
859.7371	1104.1382	22243.4	21295.75
859.8821	1106.099	22499.05	21551
860.027	1108.0591	22615.05	21669.55
860.172	1110.0185	22799.2	21849.5
860.3169	1111.9771	22858.45	21914.3
860.4619	1113.9351	22612.4	21666.9
860.6068	1115.8923	22340.95	21395.9
860.7517	1117.8488	22025.4	21077.8
860.8967	1119.8045	21782.8	20839.25
861.0416	1121.7596	21687	20739.75
861.1865	1123.7139	21575.7	20632.55
861.3314	1125.6675	21567.8	20620.25
861.4763	1127.6204	21644.45	20698.7
861.6212	1129.5726	21632.4	20684.75
861.7661	1131.524	21595.45	20653.6
861.911	1133.4748	21562.2	20614.25
862.0559	1135.4248	21541.4	20592.75
862.2008	1137.3741	21533.35	20584.9
862.3457	1139.3226	21505.95	20561
862.4905	1141.2705	21465.2	20519.05
862.6354	1143.2176	21314.2	20360.65
862.7803	1145.164	21356.1	20407.95
862.9251	1147.1097	21345.6	20396.5
863.07	1149.0546	21273.05	20325.4
863.2148	1150.9989	21232.7	20286.4
863.3597	1152.9424	21139.45	20190.75
863.5045	1154.8852	20988.35	20045.8
863.6493	1156.8272	20883.55	19938.6
863.7942	1158.7686	20813	19862.5
863.939	1160.7092	20817.85	19868.1
864.0838	1162.6491	20762.85	19810.65
864.2286	1164.5883	20870.05	19922.2
864.3734	1166.5267	20933.65	19987.8
864.5182	1168.4644	21074.05	20127.5
864.663	1170.4014	21245.1	20297.8
864.8078	1172.3377	21470.25	20527.65
864.9526	1174.2732	21743.45	20800.55
865.0974	1176.2081	22014.2	21067.55
865.2421	1178.1421	22235.95	21286.25
865.3869	1180.0755	22495.7	21552.6
865.5317	1182.0082	22588.3	21642.65
865.6764	1183.9401	22566.7	21624.2
865.8212	1185.8713	22400.9	21466.25
865.9659	1187.8017	22176.25	21243.15
866.1106	1189.7315	21925.75	21005.05
866.2554	1191.6605	21612.35	20687.3
866.4001	1193.5888	21374.75	20443.8
866.5448	1195.5163	21276	20339.2
866.6895	1197.4432	21195.75	20253.6
866.8342	1199.3693	21155.95	20215.35
866.9789	1201.2947	21088.95	20139.75
867.1236	1203.2193	21027.65	20084.8
867.2683	1205.1432	21074.4	20131.35
867.413	1207.0664	21037.65	20097.2
867.5576	1208.9889	21063.1	20118.55
867.7023	1210.9106	21092.45	20150.45
867.847	1212.8316	21122.7	20180.65
867.9916	1214.7519	21151.75	20200.2
868.1363	1216.6715	21143.25	20200.9
868.2809	1218.5903	21147.2	20203.65
868.4255	1220.5084	21088.9	20143
868.5701	1222.4257	21112.85	20169.95
868.7148	1224.3424	21040	20100.95
868.8594	1226.2583	21063.7	20124.15
869.004	1228.1735	21157.6	20217.2
869.1486	1230.0879	21227.5	20284.75
869.2932	1232.0016	21330.3	20388.2
869.4377	1233.9146	21357	20414.7
869.5823	1235.8269	21210.35	20268.3
869.7269	1237.7384	21178.15	20238.7
869.8715	1239.6492	20940.6	20002.65
870.016	1241.5592	20852.35	19910.5
870.1606	1243.4686	20740.8	19797.25
870.3051	1245.3772	20735.05	19794.8
870.4496	1247.285	20732.3	19789.1
870.5941	1249.1922	20717.45	19776.95
870.7387	1251.0986	20706.15	19764.25
870.8832	1253.0042	20653.4	19713.45
871.0277	1254.9092	20711.4	19768.65
871.1722	1256.8134	20808.6	19869.5
871.3167	1258.7169	20931.05	19992.35
871.4611	1260.6196	21030.1	20094.95
871.6056	1262.5216	21252.25	20310.2
871.7501	1264.4229	21384.2	20445.55
871.8945	1266.3234	21543.85	20603.9
872.039	1268.2232	21644.75	20705.7
872.1834	1270.1223	21580.4	20639.9
872.3278	1272.0207	21590.95	20651.5
872.4723	1273.9183	21594.75	20647.35
872.6167	1275.8151	21494.5	20556.7
872.7611	1277.7113	21413.75	20475.25
872.9055	1279.6067	21296.75	20357.95
873.0499	1281.5014	21247.45	20303.25
873.1943	1283.3953	21166.45	20222.55
873.3386	1285.2885	21230.25	20292.65
873.483	1287.181	21299.9	20358.3
873.6274	1289.0727	21450.65	20512.1
873.7717	1290.9637	21531	20592.35
873.9161	1292.854	21646.3	20707.05
874.0604	1294.7435	21765.2	20826.7
874.2047	1296.6323	21906	20970.4
874.349	1298.5204	22100.75	21161.05
874.4933	1300.4077	22277.3	21336.55
874.6376	1302.2943	22341.45	21401.6
874.7819	1304.1802	22417.3	21479.85
874.9262	1306.0653	22242.5	21301.4
875.0705	1307.9497	22003.55	21065.2
875.2147	1309.8333	21801.7	20862.9
875.359	1311.7162	21716.3	20780.7
875.5032	1313.5984	21701.5	20758.75
875.6475	1315.4798	21679.15	20729.15
875.7917	1317.3605	21749.25	20795.6
875.9359	1319.2405	21803.25	20861.15
876.0801	1321.1197	21683.95	20741.9
876.2243	1322.9982	21543.6	20599.9
876.3685	1324.876	21471.55	20530.25
876.5127	1326.753	21377.35	20439.05
876.6569	1328.6293	21324.45	20384
876.801	1330.5048	21322.2	20377.6
876.9452	1332.3796	21276.3	20338.15
877.0893	1334.2537	21207.4	20242.8
877.2335	1336.127	21129.85	20190.55
877.3776	1337.9996	21066	20127.6
877.5217	1339.8714	21044.4	20105.75
877.6658	1341.7426	20995.7	20011.4
877.8099	1343.6129	20986.4	20047.15
877.954	1345.4826	20917.45	19978.95
878.0981	1347.3515	20958.65	20012.75
878.2422	1349.2196	20918.1	19978.75
878.3862	1351.087	20888.35	19948.75
878.5303	1352.9537	20942.75	20002.1
878.6743	1354.8197	21053.35	20113.55
878.8184	1356.6849	21239.75	20301.65
878.9624	1358.5493	21303.95	20366.45
879.1064	1360.4131	21295	20356.55
879.2504	1362.276	21232.85	20291.45
879.3944	1364.1383	21097.65	20158.2
879.5384	1365.9998	20855	19909.7
879.6823	1367.8606	20514.3	19573.45
879.8263	1369.7206	20194.95	19257.5
879.9702	1371.5799	19997.4	19053.6
880.1142	1373.4384	19779.4	18841.05
880.2581	1375.2962	19650.95	18708.75
880.402	1377.1533	19309.55	18375.15
880.5459	1379.0096	18991	18058.95
880.6898	1380.8652	18707.8	17776.4
880.8337	1382.7201	18446.85	17511.55
880.9776	1384.5742	18186.3	17246.65
881.1215	1386.4275	17987.85	17047.75
881.2653	1388.2802	17798.35	16860
881.4092	1390.132	17691.85	16752.65
881.553	1391.9832	17634.8	16694.15
881.6968	1393.8336	17505.75	16568.9
881.8406	1395.6832	17457.5	16517.2
881.9844	1397.5322	17377.95	16443.7
882.1282	1399.3803	17295.35	16350.05
882.272	1401.2278	17286.9	16352.45
882.4158	1403.0745	17244.5	16310.05
882.5595	1404.9204	17190.95	16253.95
882.7033	1406.7656	17208.35	16271.2
882.847	1408.6101	17202	16264.6
882.9908	1410.4538	17173.25	16233.3
883.1345	1412.2968	17178.95	16242.35
883.2782	1414.139	17183.6	16245.6
883.4219	1415.9805	17260.2	16321.95
883.5656	1417.8213	17302.8	16361.55
883.7092	1419.6613	17383.55	16446.25
883.8529	1421.5006	17543.8	16609.7
883.9965	1423.3391	17774.3	16839
884.1402	1425.1769	18070.85	17136.45
884.2838	1427.0139	18527.1	17593.45
884.4274	1428.8502	19057.7	18117.8
884.571	1430.6858	19601.8	18663.05
884.7146	1432.5206	19960.9	19027.4
884.8582	1434.3547	20173.05	19235.2
885.0018	1436.188	20196.65	19263.8
885.1453	1438.0206	20107	19171.3
885.2889	1439.8524	19925.45	18991.05
885.4324	1441.6835	19809.05	18872.25
885.5759	1443.5139	19696.55	18756.3
885.7194	1445.3435	19598.55	18663.75
885.8629	1447.1724	19570.05	18637.35
886.0064	1449.0005	19455.5	18523.95
886.1499	1450.8279	19365.05	18433
886.2933	1452.6545	19364.5	18432.45
886.4368	1454.4804	19375.6	18446.15
886.5802	1456.3056	19344.7	18406.95
886.7237	1458.13	19230.85	18301.45
886.8671	1459.9536	19013.6	18078.9
887.0105	1461.7766	18678.85	17743.95
887.1539	1463.5987	18248.25	17310.8
887.2972	1465.4202	17862.2	16927.5
887.4406	1467.2409	17505.9	16571.95
887.584	1469.0608	17239.55	16305.4
887.7273	1470.88	16934.45	16000.9
887.8706	1472.6984	16717.1	15780.4
888.0139	1474.5161	16528.05	15588.65
888.1572	1476.3331	16349	15416.95
888.3005	1478.1493	16203.55	15266.4
888.4438	1479.9648	16125.3	15189.3
888.5871	1481.7795	15987.3	15053.95
888.7303	1483.5935	15930.35	14997.65
888.8736	1485.4067	15853.05	14918.7
889.0168	1487.2192	15814.3	14881.85
889.16	1489.031	15734.6	14798.9
889.3032	1490.842	15684.4	14748.75
889.4464	1492.6522	15653.65	14720.25
889.5896	1494.4618	15584.75	14650.05
889.7327	1496.2705	15554.35	14621.95
889.8759	1498.0785	15542.8	14613.5
890.019	1499.8858	15462.9	14532.25
890.1622	1501.6924	15417.65	14487.05
890.3053	1503.4981	15372.55	14439.15
890.4484	1505.3032	15339.65	14405.7
890.5914	1507.1075	15265.8	14333.15
890.7345	1508.911	15264.8	14329.3
890.8776	1510.7138	15166.75	14232.4
891.0206	1512.5159	15117.55	14185.5
891.1637	1514.3172	15031.5	14100.7
891.3067	1516.1178	14950.9	14022.6
891.4497	1517.9176	14952.8	14020.25
891.5927	1519.7166	14873.9	13942.2
891.7357	1521.515	14821	13888.1
891.8786	1523.3126	14818.45	13887.95
892.0216	1525.1094	14777.6	13848.05
892.1645	1526.9055	14661.8	13736.15
892.3074	1528.7008	14635	13706.45
892.4503	1530.4954	14583.2	13651.9
892.5932	1532.2893	14526.4	13599.2
892.7361	1534.0824	14451.55	13519.05
892.879	1535.8747	14462.95	13532.35
893.0218	1537.6663	14411.55	13486.85
893.1647	1539.4572	14379.45	13452.95
893.3075	1541.2473	14350.75	13422.95
893.4503	1543.0367	14345.65	13419.9
893.5931	1544.8253	14304.7	13372
893.7359	1546.6132	14303.8	13375
893.8787	1548.4003	14244.3	13308.4
894.0214	1550.1867	14289.5	13356.85
894.1642	1551.9723	14287.8	13357.85
894.3069	1553.7572	14315.55	13392.85
894.4496	1555.5414	14342.35	13419.05
894.5923	1557.3247	14354.7	13433.8
894.735	1559.1074	14415.05	13499.8
894.8777	1560.8893	14475.5	13558.4
895.0204	1562.6705	14503.55	13582.6
895.163	1564.4509	14564.15	13647.1
895.3056	1566.2305	14617.85	13701.65
895.4482	1568.0094	14671.1	13755.6
895.5908	1569.7876	14671.4	13753.75
895.7334	1571.565	14696.15	13778.95
895.876	1573.3417	14713.65	13795.15
896.0186	1575.1176	14635.7	13715.3
896.1611	1576.8928	14579.6	13664.5
896.3036	1578.6672	14494.1	13583.75
896.4461	1580.4409	14401.45	13493.4
896.5886	1582.2138	14282.1	13367.35
896.7311	1583.986	14173.55	13259.1
896.8736	1585.7575	14132.35	13216.7
897.0161	1587.5282	14030.35	13117.1
897.1585	1589.2981	13980	13070.65
897.3009	1591.0673	13947.4	13037.8
897.4433	1592.8358	13981.8	13073.55
897.5857	1594.6035	13976.65	13061.15
897.7281	1596.3704	13970.25	13054.65
897.8705	1598.1366	13961.2	13050.85
898.0128	1599.9021	14016.6	13104.6
898.1551	1601.6668	14030.55	13115.85
898.2975	1603.4308	14118.7	13199.6
898.4398	1605.194	14205.85	13287.9
898.5821	1606.9564	14264.65	13358.9
898.7243	1608.7182	14415.3	13509.35
898.8666	1610.4791	14563.75	13665.8
899.0088	1612.2394	14708.65	13811.2
899.1511	1613.9988	14869.8	13968.95
899.2933	1615.7576	15082.2	14176.25
899.4355	1617.5156	15282.55	14365.8
899.5776	1619.2728	15407.55	14492.5
899.7198	1621.0293	15509.1	14596.65
899.862	1622.785	15504.75	14591.05
900.0041	1624.54	15404.15	14496.35
900.1462	1626.2942	15219.15	14313.55
900.2883	1628.0477	14900.65	13993.55
900.4304	1629.8005	14664.55	13755.8
900.5725	1631.5525	14430.95	13526.15
900.7145	1633.3037	14244.8	13339.45
900.8566	1635.0542	14095.25	13192.3
900.9986	1636.804	13988.3	13080.5
901.1406	1638.553	13947.85	12971.8
901.2826	1640.3013	13846.55	12939.8
901.4245	1642.0488	13834.45	12927.3
901.5665	1643.7955	13847	12944.6
901.7085	1645.5416	13885	12981.85
901.8504	1647.2868	13955.7	13051.4
901.9923	1649.0313	14005.4	13097.7
902.1342	1650.7751	14153.05	13242.8
902.2761	1652.5181	14277.3	13374.1
902.4179	1654.2604	14454.5	13552.6
902.5598	1656.0019	14691.7	13790.65
902.7016	1657.7427	14984.35	14077.05
902.8434	1659.4828	15240.15	14333.2
902.9852	1661.222	15432.85	14524.9
903.127	1662.9606	15397.4	14489.6
903.2687	1664.6984	15172.8	14265.95
903.4105	1666.4354	14764.1	13852.7
903.5522	1668.1717	14251.6	13342.6
903.6939	1669.9072	13729.1	12818.8
903.8356	1671.642	13269.15	12357.35
903.9773	1673.3761	12904.45	11994.95
904.119	1675.1094	12619.7	11712.95
904.2606	1676.8419	12409.45	11501.35
904.4022	1678.5737	12189.25	11283.45
904.5439	1680.3048	12064.45	11154.9
904.6855	1682.0351	11900.3	10992.05
904.827	1683.7646	11802.7	10890.2
904.9686	1685.4934	11685.15	10780.1
905.1101	1687.2215	11630.95	10727.5
905.2517	1688.9488	11545.5	10641.25
905.3932	1690.6754	11465.9	10560.65
905.5347	1692.4012	11427.6	10520.55
905.6761	1694.1263	11406.15	10496.5
905.8176	1695.8506	11365.15	10457.8
905.9591	1697.5742	11284	10381.8
906.1005	1699.297	11243	10345.3
906.2419	1701.0191	11146.8	10248.15
906.3833	1702.7404	11091.7	10191.4
906.5246	1704.461	11012.6	10110.9
906.666	1706.1808	10987.6	10078.45
906.8073	1707.8999	10968.1	10065
906.9487	1709.6182	10893.45	9992.8
907.09	1711.3358	10851.9	9956.8
907.2313	1713.0527	10840.25	9945.65
907.3725	1714.7688	10753.15	9848.15
907.5138	1716.4841	10728.05	9824.35
907.655	1718.1987	10713.15	9810.4
907.7962	1719.9126	10691.2	9792.05
907.9374	1721.6257	10627.95	9729.8
908.0786	1723.338	10609.65	9711.65
908.2198	1725.0496	10535.35	9637.05
908.3609	1726.7605	10526.55	9625.95
908.502	1728.4706	10501.25	9601.8
908.6431	1730.18	10412.45	9515
908.7842	1731.8886	10396.55	9502.45
908.9253	1733.5964	10398.35	9480.1
909.0664	1735.3036	10347.55	9446.65
909.2074	1737.0099	10312.4	9415.2
909.3484	1738.7156	10325.3	9427.95
909.4894	1740.4204	10293.2	9392.7
909.6304	1742.1246	10226.9	9328.9
909.7714	1743.8279	10187.25	9291.05
909.9123	1745.5306	10178.35	9283.35
910.0532	1747.2325	10124.5	9228.8
910.1941	1748.9336	10099.3	9201.5
910.335	1750.634	10041.65	9140.3
910.4759	1752.3336	9993.75	9096.55
910.6168	1754.0325	9971.85	9077.3
910.7576	1755.7307	9973.35	9077.6
910.8984	1757.4281	9950.7	9054.05
911.0392	1759.1247	9938.25	9030.45
911.18	1760.8206	9938.65	9034.3
911.3208	1762.5158	9922.7	9018.95
911.4615	1764.2102	9867.6	8968.2
911.6022	1765.9039	9814.65	8916.8
911.7429	1767.5968	9806.75	8912.8
911.8836	1769.289	9755.45	8862.9
912.0243	1770.9804	9751.6	8852.9
912.1649	1772.6711	9739.2	8840.25
912.3056	1774.361	9705.25	8803.7
912.4462	1776.0502	9680.3	8780.2
912.5868	1777.7386	9644.4	8743.6
912.7274	1779.4263	9639.35	8742.95
912.8679	1781.1132	9636.9	8743.9
913.0084	1782.7994	9583.3	8690.6
913.149	1784.4849	9550.5	8657.6
913.2895	1786.1696	9546.2	8648.1
913.4299	1787.8535	9515.7	8624.45
913.5704	1789.5367	9481.7	8588.8
913.7108	1791.2192	9466.45	8573.8
913.8513	1792.9009	9448.05	8525.35
913.9917	1794.5818	9410.65	8512.25
914.132	1796.2621	9383.35	8486.85
914.2724	1797.9415	9358.05	8458.75
914.4128	1799.6202	9338.1	8439.7
914.5531	1801.2982	9316	8418.9
914.6934	1802.9755	9283.15	8384.25
914.8337	1804.6519	9279.75	8383.35
914.9739	1806.3277	9236.5	8339.6
915.1142	1808.0027	9195.95	8302.2
915.2544	1809.6769	9189.4	8297.45
915.3946	1811.3504	9166.1	8274.75
915.5348	1813.0231	9139.15	8246.7
915.675	1814.6951	9137.6	8244.75
915.8151	1816.3664	9164.5	8269.55
915.9553	1818.0369	9123.05	8225.8
916.0954	1819.7067	9066.55	8169.4
916.2355	1821.3757	9052.4	8153.2
916.3755	1823.044	9070.7	8174.5
916.5156	1824.7115	9035.2	8137.1
916.6556	1826.3783	8970.2	8073.35
916.7956	1828.0443	8955.75	8059.6
916.9356	1829.7096	8942.7	8046
917.0756	1831.3741	8916.1	8016.1
917.2155	1833.0379	8912.3	8017.75
917.3555	1834.701	8893.2	8000.15
917.4954	1836.3633	8882.25	7990.75
917.6353	1838.0248	8856.8	7963.3
917.7751	1839.6856	8809.4	7915.4
917.915	1841.3457	8813.9	7919.45
918.0548	1843.005	8802.8	7907
918.1946	1844.6636	8776.1	7883.55
918.3344	1846.3214	8760.65	7867.65
918.4742	1847.9785	8753.2	7859.35
918.6139	1849.6349	8724.65	7827.25
918.7537	1851.2904	8740.1	7833.65
918.8934	1852.9453	8673.8	7774.9
919.0331	1854.5994	8648.4	7750.05
919.1727	1856.2528	8665.95	7764.55
919.3124	1857.9054	8633.25	7737.35
919.452	1859.5572	8633.15	7737.6
919.5916	1861.2083	8593.85	7696
919.7312	1862.8587	8592.25	7695.25
919.8708	1864.5084	8583.2	7684.15
920.0103	1866.1572	8540.1	7643.9
920.1498	1867.8054	8503.55	7605
920.2893	1869.4528	8483.85	7586.15
920.4288	1871.0994	8458.45	7559.9
920.5683	1872.7453	8432.65	7535
920.7077	1874.3905	8432.65	7522.05
920.8471	1876.0349	8403.8	7506.65
920.9865	1877.6786	8415	7517.15
921.1259	1879.3215	8388.05	7492.55
921.2653	1880.9637	8367	7471.2
921.4046	1882.6051	8321.75	7426.85
921.5439	1884.2458	8346.65	7451.45
921.6832	1885.8858	8285.65	7389.95
921.8225	1887.525	8261.55	7365.65
921.9617	1889.1634	8251.6	7355.65
922.101	1890.8011	8218.75	7319.25
922.2402	1892.4381	8196.25	7299.05
922.3794	1894.0743	8187.9	7291.55
922.5185	1895.7098	8166.9	7274.15
922.6577	1897.3446	8158.6	7262.05
922.7968	1898.9786	8139.75	7241.75
922.9359	1900.6118	8110.95	7219
923.075	1902.2443	8065.95	7172.5
923.214	1903.8761	8076.75	7182.1
923.3531	1905.5071	8043.05	7146.9
923.4921	1907.1374	7985.6	7091.95
923.6311	1908.7669	8000.1	7105.7
923.77	1910.3957	7992.25	7096.2
923.909	1912.0237	7930.15	7036.2
924.0479	1913.651	7891.6	6994.3
924.1868	1915.2776	7888.7	6994.3
924.3257	1916.9034	7858.05	6965.45
924.4646	1918.5285	7829.65	6937.55
924.6034	1920.1528	7794.05	6898.85
924.7422	1921.7764	7787.85	6894.1
924.881	1923.3992	7773.25	6880.55
925.0198	1925.0213	7718.75	6824.7
925.1586	1926.6427	7680.65	6787.35
925.2973	1928.2633	7756.25	6770.6
925.436	1929.8832	7662.8	6767.05
925.5747	1931.5023	7621.8	6727.95
925.7134	1933.1207	7610.75	6716.9
925.852	1934.7383	7588.5	6695.15
925.9906	1936.3552	7561.5	6670.95
926.1292	1937.9714	7533.55	6638.7
926.2678	1939.5868	7512.7	6617.1
926.4064	1941.2015	7479.2	6584.2
926.5449	1942.8154	7473.7	6577.3
926.6834	1944.4286	7414.2	6519.65
926.8219	1946.041	7399.65	6480.2
926.9604	1947.6528	7355.5	6454.75
927.0988	1949.2637	7356.85	6463.7
927.2372	1950.8739	7313.45	6418.3
927.3756	1952.4834	7297.3	6403.25
927.514	1954.0921	7281.05	6388.25
927.6523	1955.7001	7265.15	6369.75
927.7907	1957.3074	7245	6354.1
927.929	1958.9139	7194.85	6305.35
928.0673	1960.5197	7185.1	6292.8
928.2055	1962.1247	7159.9	6267.95
928.3438	1963.729	7121.3	6231.25
928.482	1965.3325	7088	6193.45
928.6202	1966.9353	7076.45	6189.15
928.7584	1968.5374	7068.5	6181.55
928.8965	1970.1387	7034.2	6141.4
929.0346	1971.7393	7024.05	6131.8
929.1727	1973.3392	6999.65	6108.95
929.3108	1974.9383	6945.8	6058.15
929.4489	1976.5366	6934.45	6044.55
929.5869	1978.1342	6943.35	6054.35
929.7249	1979.7311	6916.25	6028.65
929.8629	1981.3273	6891.65	5999.45
930.0009	1982.9227	6862.5	5972.45
930.1388	1984.5173	6855.2	5966.55
930.2767	1986.1112	6813.2	5925.5
930.4146	1987.7044	6799.4	5911.35
930.5525	1989.2968	6785.35	5894.15
930.6904	1990.8885	6783.55	5892.15
930.8282	1992.4795	6761.95	5876.75
930.966	1994.0697	6763.5	5879.15
931.1038	1995.6592	6715.5	5829.25
931.2415	1997.2479	6687.65	5802.3
931.3793	1998.8359	6675.55	5789.75
931.517	2000.4232	6649.95	5767.8
931.6547	2002.0097	6627.55	5746.55
931.7923	2003.5955	6601.25	5718.55
931.93	2005.1805	6592.25	5706.2
932.0676	2006.7648	6584.45	5700.55
932.2052	2008.3484	6569.45	5683.55
932.3427	2009.9312	6554	5670.3
932.4803	2011.5133	6514.15	5632.15
932.6178	2013.0946	6497.35	5613.75
932.7553	2014.6752	6492.5	5609.5
932.8928	2016.2551	6467.1	5579.25
933.0302	2017.8342	6454.1	5570.1
933.1676	2019.4126	6430.75	5546.9
933.305	2020.9902	6407.05	5526.4
933.4424	2022.5672	6378.8	5499.25
933.5798	2024.1433	6397.3	5507.95
933.7171	2025.7188	6349.05	5470
933.8544	2027.2935	6341.35	5458.85
933.9917	2028.8674	6309.5	5428.15
934.129	2030.4406	6300.55	5420.55
934.2662	2032.0131	6262.9	5383.7
934.4034	2033.5849	6269.85	5387.5
934.5406	2035.1559	6254.85	5374.95
934.6778	2036.7261	6257.6	5373.35
934.8149	2038.2957	6228.3	5343.2
934.952	2039.8645	6218.75	5332.4
935.0891	2041.4325	6215.35	5327.45
935.2262	2042.9998	6186.85	5303.9
935.3632	2044.5664	6155.4	5270.55
935.5002	2046.1323	6140.2	5256.8
935.6372	2047.6974	6146.35	5268.05
935.7742	2049.2617	6120.8	5238.9
935.9111	2050.8254	6155.8	5250.25
936.048	2052.3883	6116.4	5228.05
936.1849	2053.9504	6081	5194.1
936.3218	2055.5118	6073.35	5184.95
936.4586	2057.0725	6035.95	5145.65
936.5955	2058.6325	6013	5131.2
936.7323	2060.1917	6015.35	5131.15
936.869	2061.7502	6002.6	5115.75
937.0058	2063.3079	5970.75	5089.75
937.1425	2064.8649	5965.95	5081.2
937.2792	2066.4212	5958.85	5072.35
937.4159	2067.9767	5945.85	5061.05
937.5525	2069.5315	5904.05	5016.9
937.6891	2071.0856	5893.25	5008.9
937.8257	2072.6389	5886.8	5003.35
937.9623	2074.1915	5857.65	4977.4
938.0989	2075.7433	5804.2	4917.5
938.2354	2077.2945	5804.85	4922.55
938.3719	2078.8448	5787.55	4900.05
938.5084	2080.3945	5774.55	4888.4
938.6448	2081.9434	5779.35	4892.95
938.7812	2083.4916	5760.9	4871.85
938.9176	2085.039	5733.7	4843.1
939.054	2086.5857	5728	4832.75
939.1903	2088.1317	5712.9	4819.9
939.3267	2089.677	5693.05	4797.55
939.463	2091.2215	5691.8	4800.8
939.5992	2092.7652	5649.55	4755.75
939.7355	2094.3083	5655.5	4765.55
939.8717	2095.8506	5645.75	4758.6
940.0079	2097.3921	5619.55	4732.8
940.1441	2098.933	5622.5	4736.8
940.2802	2100.4731	5612.5	4723.85
940.4163	2102.0124	5612.95	4715
940.5524	2103.5511	5605.6	4717.35
940.6885	2105.089	5576.55	4686.45
940.8245	2106.6261	5566.45	4679.9
940.9606	2108.1626	5553.15	4663.85
941.0965	2109.6983	5556.15	4638.35
941.2325	2111.2332	5500.95	4611.05
941.3684	2112.7675	5508	4619.55
941.5044	2114.301	5503.1	4611.45
941.6403	2115.8337	5480.5	4591.55
941.7761	2117.3657	5473.95	4583.15
941.912	2118.897	5452.75	4563.1
942.0478	2120.4276	5444.2	4547.9
942.1835	2121.9575	5410.45	4518.3
942.3193	2123.4866	5429.85	4526.3
942.455	2125.0149	5396.5	4504.55
942.5907	2126.5426	5374.55	4488.4
942.7264	2128.0695	5381.9	4493.4
942.8621	2129.5956	5338.8	4458.6
942.9977	2131.1211	5354.85	4466.35
943.1333	2132.6458	5318.65	4431.15
943.2689	2134.1698	5319	4426.55
943.4044	2135.693	5303.1	4408.25
943.54	2137.2155	5305.75	4411.35
943.6755	2138.7373	5278.75	4389.5
943.8109	2140.2584	5263.95	4379.25
943.9464	2141.7787	5251.15	4361.3
944.0818	2143.2983	5225.55	4344.45
944.2172	2144.8171	5200.4	4320.7
944.3526	2146.3353	5213.5	4326.85
944.4879	2147.8527	5182.25	4297.4
944.6232	2149.3693	5178.25	4290.2
944.7585	2150.8853	5151.55	4260.9
944.8938	2152.4005	5146.15	4253.8
945.029	2153.9149	5145.35	4253.85
945.1642	2155.4287	5138.4	4246.6
945.2994	2156.9417	5103.85	4211.45
945.4346	2158.454	5094.9	4204.6
945.5697	2159.9655	5084.75	4199.15
945.7048	2161.4764	5075.4	4186.9
945.8399	2162.9865	5063.9	4178.1
945.9749	2164.4958	5048.65	4162.3
946.1099	2166.0045	5024.05	4135.65
946.2449	2167.5124	5045.8	4158.25
946.3799	2169.0195	5013.85	4125.5
946.5148	2170.526	4993.2	4102.2
946.6498	2172.0317	5002.6	4113.25
946.7846	2173.5367	4973.65	4084.4
946.9195	2175.0409	4964.3	4076.35
947.0543	2176.5445	4975.45	4085.6
947.1891	2178.0473	4969.4	4078.15
947.3239	2179.5494	4940.75	4047.15
947.4587	2181.0507	4920.2	4030.15
947.5934	2182.5513	4907.05	4017.5
947.7281	2184.0512	4914.65	4022.9
947.8628	2185.5504	4881.55	3992.7
947.9974	2187.0488	4840.65	3953.45
948.132	2188.5465	4828.5	3944.1
948.2666	2190.0435	4820	3932.75
948.4012	2191.5397	4777.7	3888.7
948.5357	2193.0353	4803	3912.6
948.6702	2194.5301	4774.4	3882.95
948.8047	2196.0241	4756.6	3863.55
948.9392	2197.5175	4761.1	3867.8
949.0736	2199.0101	4737.7	3839.9
949.208	2200.502	4728.05	3840.4
949.3424	2201.9931	4699.8	3813.7
949.4767	2203.4835	4701.9	3814.65
949.611	2204.9733	4686.55	3794.05
949.7453	2206.4622	4686.45	3801.15
949.8796	2207.9505	4683	3796.5
950.0138	2209.438	4642.6	3757.05
950.148	2210.9248	4629.1	3740.5
950.2822	2212.4109	4624	3737.3
950.4164	2213.8962	4622.75	3729.7
950.5505	2215.3809	4601.7	3706.4
950.6846	2216.8648	4592.45	3697.35
950.8186	2218.3479	4572.55	3674.9
950.9527	2219.8304	4555.5	3658.9
951.0867	2221.3121	4549.4	3652.9
951.2207	2222.7931	4538.2	3644.1
951.3546	2224.2733	4531.7	3639.2
951.4886	2225.7529	4516.9	3626.8
951.6225	2227.2317	4486.2	3595.55
951.7563	2228.7098	4491.3	3605.1
951.8902	2230.1872	4466.85	3582.55
952.024	2231.6638	4467.6	3580.8
952.1578	2233.1397	4438.9	3550.55
952.2916	2234.6149	4442.7	3556.95
952.4253	2236.0894	4420.35	3530.8
952.559	2237.5632	4415.4	3517.05
952.6927	2239.0362	4397.5	3510.25
952.8263	2240.5085	4377.05	3488.15
952.9599	2241.9801	4380.8	3491
953.0935	2243.4509	4367.5	3476.45
953.2271	2244.921	4348.7	3455.1
953.3606	2246.3904	4331.45	3434.35
953.4941	2247.8591	4326.05	3431.35
953.6276	2249.3271	4308.8	3417.65
953.7611	2250.7943	4295.75	3403.2
953.8945	2252.2608	4283.25	3393
954.0279	2253.7266	4276.85	3386.05
954.1612	2255.1917	4265.15	3377.65
954.2946	2256.656	4250.15	3363.25
954.4279	2258.1197	4249.5	3363.1
954.5612	2259.5826	4239.35	3351.35
954.6944	2261.0447	4238.55	3347.35
954.8276	2262.5062	4202.85	3310.05
954.9608	2263.9669	4206.1	3313.4
955.094	2265.4269	4179.4	3287.15
955.2271	2266.8862	4169.1	3278.7
955.3602	2268.3448	4171.15	3280.85
955.4933	2269.8026	4167.6	3279.75
955.6264	2271.2598	4151.85	3264
955.7594	2272.7162	4132.05	3242.75
955.8924	2274.1719	4139.95	3247.65
956.0253	2275.6268	4134.8	3242
956.1583	2277.0811	4118.2	3224.3
956.2912	2278.5346	4113.5	3225.65
956.4241	2279.9874	4089.05	3200.4
956.5569	2281.4395	4092.75	3206
956.6897	2282.8908	4075.05	3180.75
956.8225	2284.3414	4065.8	3174.65
956.9553	2285.7914	4069.65	3179.6
957.088	2287.2406	4042.8	3150.7
957.2207	2288.689	4040.85	3148.6
957.3534	2290.1368	4034.5	3137.35
957.486	2291.5838	4029.5	3132.1
957.6186	2293.0302	4023.05	3125.55
957.7512	2294.4758	4011.35	3116.75
957.8838	2295.9206	3974.5	3080
958.0163	2297.3648	3986.3	3098.3
958.1488	2298.8082	3979.7	3089.3
958.2813	2300.251	3973.75	3081.9
958.4137	2301.693	3965.1	3067.9
958.5461	2303.1343	3947.8	3054.4
958.6785	2304.5748	3939.6	3048.75
958.8108	2306.0147	3922.85	3033.5
958.9432	2307.4538	3916.6	3026.6
959.0754	2308.8922	3909.25	3022.95
959.2077	2310.3299	3892.55	3005.35
959.3399	2311.7669	3883.95	2995.85
959.4721	2313.2031	3872.15	2982.7
959.6043	2314.6387	3859.8	2968.45
959.7365	2316.0735	3851.95	2961.2
959.8686	2317.5076	3843.45	2951.6
960.0006	2318.941	3843.5	2952.2
960.1327	2320.3737	3829.7	2934.2
960.2647	2321.8056	3812.25	2915.25
960.3967	2323.2369	3809.45	2917.55
960.5287	2324.6674	3801.45	2908.7
960.6606	2326.0972	3791.2	2899.25
960.7925	2327.5263	3783.1	2892.75
960.9244	2328.9547	3771	2880.1
961.0562	2330.3823	3760.55	2866.7
961.1881	2331.8092	3765.55	2868.6
961.3198	2333.2355	3737.2	2841.65
961.4516	2334.661	3728.2	2833.95
961.5833	2336.0858	3752.25	2858.7
961.715	2337.5098	3729.7	2836.5
961.8467	2338.9332	3717.2	2825.7
961.9783	2340.3558	3693.05	2801.2
962.1099	2341.7778	3694.4	2804.25
962.2415	2343.199	3681.05	2790.65
962.373	2344.6195	3681.85	2792.25
962.5045	2346.0393	3672.65	2783.6
962.636	2347.4583	3670.1	2778.55
962.7675	2348.8767	3653.4	2761.05
962.8989	2350.2943	3645.65	2752.6
963.0303	2351.7113	3638.2	2741.95
963.1617	2353.1275	3633.3	2739.5
963.293	2354.543	3644.2	2741.75
963.4243	2355.9578	3620.3	2729.4
963.5556	2357.3718	3591.55	2700.65
963.6868	2358.7852	3581.4	2689.3
963.818	2360.1978	3577	2687.95
963.9492	2361.6098	3576.65	2687.8
964.0803	2363.021	3569.3	2674.8
964.2114	2364.4315	3553.9	2663.4
964.3425	2365.8413	3553.55	2661.75
964.4736	2367.2504	3538	2650.75
964.6046	2368.6587	3521.35	2633.35
964.7356	2370.0664	3507.4	2620.9
964.8666	2371.4733	3500.35	2608.45
964.9975	2372.8795	3498.05	2609.05
965.1284	2374.285	3483.3	2594.25
965.2593	2375.6899	3462.15	2574.45
965.3901	2377.0939	3452.25	2564.6
965.5209	2378.4973	3467.1	2580.95
965.6517	2379.9	3445.7	2557.35
965.7825	2381.3019	3432.55	2543.9
965.9132	2382.7032	3424.8	2538.9
966.0439	2384.1037	3430.75	2547.75
966.1745	2385.5035	3406.9	2522.7
966.3051	2386.9027	3395.7	2511.8
966.4357	2388.3011	3389.55	2501.2
966.5663	2389.6987	3374.6	2487.4
966.6968	2391.0957	3362.25	2478.55
966.8273	2392.492	3358.65	2473.8
966.9578	2393.8876	3339.5	2455
967.0882	2395.2824	3334.85	2446.75
967.2186	2396.6765	3318.8	2432.15
967.349	2398.07	3321	2434
967.4793	2399.4627	3318.8	2432.65
967.6097	2400.8547	3307.35	2419.55
967.7399	2402.246	3298.75	2407.65
967.8702	2403.6366	3275.45	2389.1
968.0004	2405.0265	3276.1	2388.95
968.1306	2406.4156	3268.65	2379.8
968.2607	2407.8041	3249.05	2359.95
968.3909	2409.1918	3245.75	2354.75
968.521	2410.5789	3255.5	2369.2
968.651	2411.9652	3230.95	2342.4
968.781	2413.3508	3213.25	2326.05
968.911	2414.7358	3214.55	2327.9
969.041	2416.12	3195.6	2309.45
969.1709	2417.5035	3188.85	2302.8
969.3008	2418.8863	3187.6	2300.05
969.4307	2420.2684	3197.35	2311.1
969.5606	2421.6497	3166.85	2282.15
969.6904	2423.0304	3152.2	2266.9
969.8201	2424.4104	3153.35	2268.35
969.9499	2425.7896	3152.75	2264.1
970.0796	2427.1682	3134.4	2247.85
970.2093	2428.546	3130.3	2242.65
970.3389	2429.9232	3126.45	2238.9
970.4685	2431.2996	3118.3	2230.9
970.5981	2432.6753	3119.9	2233.7
970.7277	2434.0503	3108.1	2220.15
970.8572	2435.4246	3102.55	2215.5
970.9867	2436.7982	3094.95	2204.95
971.1161	2438.1711	3073.95	2188.75
971.2456	2439.5433	3056.45	2170.2
971.375	2440.9148	3068.1	2175.65
971.5043	2442.2856	3053.95	2168.3
971.6336	2443.6557	3053.4	2163.2
971.7629	2445.025	3039.6	2151.7
971.8922	2446.3937	3024.5	2135.95
972.0214	2447.7617	3039.3	2149.5
972.1506	2449.1289	3026.85	2138.9
972.2798	2450.4955	3013.8	2124.05
972.4089	2451.8613	3011.25	2124.6
972.538	2453.2265	3007	2121.1
972.6671	2454.5909	2996.2	2109.2
972.7961	2455.9546	3005.55	2116.3
972.9251	2457.3177	2984.2	2098
973.0541	2458.68	2980.4	2092.3
973.1831	2460.0416	2971.45	2082.9
973.312	2461.4025	2982.3	2091.25
973.4408	2462.7627	2973.7	2073.8
973.5697	2464.1222	2954.3	2069.1
973.6985	2465.4811	2943.6	2055
973.8273	2466.8392	2935.6	2049.2
973.956	2468.1966	2938.3	2047.4
974.0847	2469.5533	2949.05	2059.1
974.2134	2470.9093	2932.75	2044.5
974.3421	2472.2645	2924.6	2037
974.4707	2473.6191	2917.95	2033.25
974.5993	2474.973	2909.55	2021.3
974.7278	2476.3262	2906.05	2017.65
974.8563	2477.6787	2886.85	2002.25
974.9848	2479.0305	2882.7	1993.5
975.1132	2480.3816	2877.75	1988.3
975.2417	2481.7319	2865.85	1977.45
975.37	2483.0816	2865.55	1976.05
975.4984	2484.4306	2851.65	1964.8
975.6267	2485.7789	2850.7	1963.35
975.755	2487.1264	2828.25	1941.1
975.8833	2488.4733	2828.5	1943.2
976.0115	2489.8195	2813.5	1918.85
976.1397	2491.165	2801.65	1911.5
976.2678	2492.5097	2814.3	1927.4
976.3959	2493.8538	2797.1	1911.35
976.524	2495.1972	2777.7	1890.9
976.6521	2496.5398	2773.3	1884.25
976.7801	2497.8818	2774.95	1884.25
976.9081	2499.2231	2764.1	1874.55
977.036	2500.5637	2754.55	1864.2
977.164	2501.9035	2761.9	1871.35
977.2918	2503.2427	2755.9	1862.9
977.4197	2504.5812	2749.3	1861.35
977.5475	2505.919	2739.4	1849.2
977.6753	2507.256	2734.45	1845.95
977.8031	2508.5924	2721.2	1833.9
977.9308	2509.9281	2724.5	1832.45
978.0585	2511.2631	2715.65	1828.6
978.1861	2512.5974	2706.2	1817.75
978.3137	2513.9309	2694.65	1806.95
978.4413	2515.2638	2712.1	1796.55
978.5689	2516.596	2696.85	1808.85
978.6964	2517.9275	2675.95	1785.7
978.8239	2519.2583	2668.4	1779.4
978.9513	2520.5884	2667.4	1777.5
979.0788	2521.9178	2667.45	1779.75
979.2062	2523.2465	2652.35	1765
979.3335	2524.5745	2636.4	1749.9
979.4608	2525.9018	2643.65	1755.65
979.5881	2527.2284	2637.6	1751.5
979.7154	2528.5543	2634.6	1748.45
979.8426	2529.8796	2630.55	1741.95
979.9698	2531.2041	2623.1	1734.35
980.0969	2532.5279	2621.45	1734.95
980.224	2533.851	2618.35	1728.3
980.3511	2535.1735	2611.35	1724.4
980.4781	2536.4952	2604.45	1715.35
980.6052	2537.8163	2609.45	1720.5
980.7321	2539.1366	2596.85	1707.4
980.8591	2540.4562	2582.95	1693
980.986	2541.7752	2591	1700.75
981.1129	2543.0935	2577.9	1688.2
981.2397	2544.411	2576	1687.15
981.3665	2545.7279	2566.15	1678.8
981.4933	2547.0441	2561.8	1672.6
981.62	2548.3596	2563.3	1671.4
981.7467	2549.6744	2563.2	1673.55
981.8734	2550.9885	2560.5	1665.6
982.0001	2552.3019	2545.65	1657.2
982.1267	2553.6146	2546.65	1655.6
982.2532	2554.9266	2531.35	1640.6
982.3798	2556.2379	2538.05	1649.9
982.5063	2557.5485	2538.35	1652.5
982.6327	2558.8585	2532.7	1638.35
982.7592	2560.1677	2525.15	1633.1
982.8856	2561.4762	2521.45	1629.45
983.0119	2562.7841	2528.6	1636.8
983.1383	2564.0913	2512.2	1622.65
983.2646	2565.3977	2503.1	1614.4
983.3908	2566.7035	2515.1	1627.4
983.517	2568.0086	2510.8	1618.7
983.6432	2569.313	2498.25	1608.05
983.7694	2570.6167	2493.95	1598.75
983.8955	2571.9197	2480.05	1591.25
984.0216	2573.222	2489.55	1596.7
984.1476	2574.5236	2489.25	1599.3
984.2737	2575.8246	2478.85	1589.4
984.3996	2577.1248	2481.5	1590
984.5256	2578.4244	2462.35	1573.3
984.6515	2579.7232	2475.95	1587.05
984.7774	2581.0214	2489.95	1575.35
984.9032	2582.3189	2464.75	1575.65
985.029	2583.6157	2472.75	1582.05
985.1548	2584.9118	2457	1567.75
985.2806	2586.2072	2459.7	1570.95
985.4063	2587.5019	2454	1565
985.5319	2588.7959	2448.85	1558.65
985.6576	2590.0893	2459.3	1566.3
985.7832	2591.3819	2445.8	1558.25
985.9087	2592.6739	2432	1542.4
986.0343	2593.9652	2424.95	1533.55
986.1597	2595.2557	2429.15	1542.15
986.2852	2596.5456	2436.35	1544.7
986.4106	2597.8348	2420.65	1533.75
986.536	2599.1234	2418.25	1528.85
986.6614	2600.4112	2428.4	1539.4
986.7867	2601.6983	2416.2	1523.3
986.912	2602.9848	2412	1523.1
987.0372	2604.2705	2404.85	1509.4
987.1624	2605.5556	2408.8	1519.1
987.2876	2606.84	2394.05	1506.75
987.4128	2608.1237	2387.6	1496.1
987.5379	2609.4067	2385.1	1495.25
987.6629	2610.689	2379.85	1482.6
987.788	2611.9707	2377.4	1485.65
987.913	2613.2516	2368.3	1473.8
988.0379	2614.5319	2355.2	1467.6
988.1629	2615.8115	2355.7	1466.35
988.2878	2617.0903	2353.65	1463.05
988.4126	2618.3685	2344.05	1453.15
988.5375	2619.6461	2345.1	1456.15
988.6622	2620.9229	2324.95	1439.2
988.787	2622.199	2324.55	1435.75
988.9117	2623.4745	2332.15	1440.9
989.0364	2624.7493	2327.15	1438.9
989.161	2626.0234	2325.05	1438.3
989.2857	2627.2968	2305.4	1417.35
989.4102	2628.5695	2309	1419.4
989.5348	2629.8415	2308.55	1420.45
989.6593	2631.1128	2291.55	1398.4
989.7837	2632.3835	2286.1	1397.45
989.9082	2633.6535	2288.05	1397.65
990.0326	2634.9228	2286.55	1398.4
990.1569	2636.1914	2277.75	1389.5
990.2812	2637.4593	2282.2	1391.55
990.4055	2638.7265	2282	1391.95
990.5298	2639.9931	2266.2	1376.15
990.654	2641.259	2259.5	1369.25
990.7782	2642.5242	2257.55	1370.3
990.9023	2643.7887	2252.55	1364.25
991.0264	2645.0525	2246.05	1359.2
991.1505	2646.3156	2246.95	1357.85
991.2745	2647.5781	2234.95	1349.5
991.3985	2648.8398	2229.8	1340.7
991.5225	2650.1009	2228.95	1333
991.6464	2651.3613	2233.5	1345.8
991.7703	2652.6211	2226.85	1340.3
991.8942	2653.8801	2218.85	1331.85
992.018	2655.1385	2210.75	1320.75
992.1418	2656.3961	2209.5	1319.5
992.2655	2657.6531	2219.8	1331.7
992.3892	2658.9094	2210.75	1319.65
992.5129	2660.1651	2194.2	1308.85
992.6366	2661.42	2208.3	1320.5
992.7602	2662.6743	2203.75	1313.7
992.8837	2663.9279	2199.2	1310.25
993.0073	2665.1808	2199.6	1309.2
993.1307	2666.433	2195.25	1307.1
993.2542	2667.6846	2190.4	1303.15
993.3776	2668.9354	2196.95	1304.3
993.501	2670.1856	2189.55	1301.8
993.6244	2671.4351	2177.5	1289.85
993.7477	2672.6839	2198.85	1309.9
993.8709	2673.9321	2187.25	1298.95
993.9942	2675.1795	2183.7	1297.1
994.1174	2676.4263	2185.45	1297
994.2405	2677.6724	2185.6	1298.6
994.3637	2678.9179	2186.1	1297.95
994.4868	2680.1626	2187.35	1301.75
994.6098	2681.4067	2182.15	1294.2
994.7328	2682.6501	2170.85	1283.65
994.8558	2683.8928	2171.55	1284.05
994.9788	2685.1348	2171.1	1284.6
995.1017	2686.3761	2152.5	1266.05
995.2245	2687.6168	2145.15	1259.15
995.3474	2688.8568	2152.2	1262.95
995.4702	2690.0961	2145	1259.1
995.5929	2691.3348	2132.2	1243.2
995.7156	2692.5727	2127.8	1240.15
995.8383	2693.81	2125.8	1236.7
995.961	2695.0466	2118.25	1232.15
996.0836	2696.2826	2111.15	1221.85
996.2062	2697.5178	2129.8	1220.15
996.3287	2698.7524	2113.45	1225.65
996.4512	2699.9863	2106.2	1216.6
996.5737	2701.2195	2103.1	1216.85
996.6961	2702.452	2112.5	1222.25
996.8185	2703.6839	2103.9	1217.55
996.9408	2704.9151	2117.1	1231.35
997.0631	2706.1456	2113.35	1229.05
997.1854	2707.3755	2113	1224.45
997.3077	2708.6046	2120.6	1230.5
997.4299	2709.8331	2123.75	1234.05
997.552	2711.0609	2130	1242.7
997.6742	2712.2881	2130.6	1244.1
997.7963	2713.5145	2134.4	1245.15
997.9183	2714.7403	2146.55	1259.55
998.0403	2715.9654	2152.95	1264.05
998.1623	2717.1899	2178.65	1277.15
998.2842	2718.4136	2162.4	1274.95
998.4062	2719.6367	2170.35	1280.6
998.528	2720.8591	2191.45	1296.9
998.6498	2722.0809	2183.55	1295.15
998.7716	2723.3019	2202.95	1313.45
998.8934	2724.5223	2193.6	1304.95
999.0151	2725.7421	2195.2	1307.65
999.1368	2726.9611	2203.1	1312.75
999.2584	2728.1795	2202.75	1309.3
999.38	2729.3972	2186.15	1297.45
999.5016	2730.6142	2177.45	1276.2
999.6231	2731.8306	2159.55	1271.1
999.7446	2733.0462	2140.45	1252.05
999.8661	2734.2612	2123.3	1234.65
999.9875	2735.4756	2103	1215.55
1000.1089	2736.6892	2074.25	1187.7
1000.2302	2737.9022	2070.45	1184.35
1000.3515	2739.1145	2052.95	1165.5
1000.4728	2740.3262	2039.85	1146.15
1000.594	2741.5372	2025	1138.8
1000.7152	2742.7475	2017.05	1130.9
1000.8363	2743.9571	1990.75	1101.35
1000.9575	2745.1661	1988.65	1095.85
1001.0785	2746.3744	1968.55	1079.9
1001.1996	2747.582	1959.95	1074.3
1001.3206	2748.7889	1960.75	1071.25
1001.4415	2749.9952	1937.7	1050.95
1001.5625	2751.2008	1939.35	1052.15
1001.6833	2752.4057	1934.2	1043.85
1001.8042	2753.61	1923.25	1033.8
1001.925	2754.8136	1922.35	1033.15
1002.0458	2756.0165	1916.6	1031
1002.1665	2757.2188	1921.75	1037.9
1002.2872	2758.4204	1913.65	1027.8
1002.4078	2759.6213	1911	1022.6
1002.5285	2760.8215	1914.65	1023.85
1002.649	2762.0211	1912.8	1024.3
1002.7696	2763.22	1897.15	1007.65
1002.8901	2764.4182	1895.9	1007.5
1003.0106	2765.6158	1893.55	1008.35
1003.131	2766.8127	1898.4	1011.8
1003.2514	2768.009	1880	993.7
1003.3717	2769.2045	1879.65	992.7
1003.492	2770.3994	1879.1	991.85
1003.6123	2771.5936	1868.45	980.8
1003.7325	2772.7872	1861.05	977.05
1003.8527	2773.9801	1859.1	972.3
1003.9729	2775.1723	1865.55	963.3
1004.093	2776.3639	1851.25	967.3
1004.2131	2777.5548	1850.6	961.25
1004.3331	2778.745	1851.3	966.4
1004.4531	2779.9346	1847.1	961.6
1004.5731	2781.1235	1851.4	965.55
1004.693	2782.3117	1853.2	968.4
1004.8129	2783.4992	1854.6	968.45
1004.9328	2784.6861	1855.2	968.8
1005.0526	2785.8723	1862.25	974.45
1005.1723	2787.0579	1866.5	981.4
1005.2921	2788.2428	1857.65	972.8
1005.4118	2789.427	1862.55	978.3
1005.5314	2790.6106	1878.1	993.8
1005.651	2791.7935	1879.5	993.65
1005.7706	2792.9757	1879.8	993.75
1005.8902	2794.1573	1902.55	1015.9
1006.0097	2795.3382	1905.9	1020.65
1006.1291	2796.5184	1917.35	1033.6
1006.2485	2797.698	1937.75	1050.6
1006.3679	2798.8769	1942.45	1058.2
1006.4873	2800.0551	1955.2	1069
1006.6066	2801.2327	1970.7	1081.45
1006.7258	2802.4096	1981.45	1097.35
1006.8451	2803.5859	1996.5	1110.05
1006.9642	2804.7615	2023.65	1138.6
1007.0834	2805.9364	2045.8	1162.45
1007.2025	2807.1106	2066.85	1180.5
1007.3216	2808.2842	2092.7	1204.85
1007.4406	2809.4572	2118	1231.6
1007.5596	2810.6294	2153.7	1267.55
1007.6785	2811.801	2187.75	1305.5
1007.7975	2812.972	2222.65	1337.5
1007.9163	2814.1423	2267.65	1383.2
1008.0352	2815.3119	2312	1425.4
1008.154	2816.4808	2354.55	1471.25
1008.2727	2817.6491	2396.2	1510.8
1008.3914	2818.8167	2450.55	1565.8
1008.5101	2819.9837	2500.15	1611.15
1008.6288	2821.15	2535.45	1650.25
1008.7474	2822.3157	2578.65	1694.25
1008.8659	2823.4807	2633.3	1747.35
1008.9844	2824.645	2675.8	1788.7
1009.1029	2825.8086	2719.1	1834.6
1009.2214	2826.9716	2763.5	1881.1
1009.3398	2828.134	2796.5	1912.65
1009.4581	2829.2957	2840.05	1956.05
1009.5764	2830.4567	2868.35	1985.55
1009.6947	2831.617	2889.9	2003.6
1009.813	2832.7767	2902.2	2020.15
1009.9312	2833.9358	2911.45	2029.1
1010.0493	2835.0941	2892.55	2005.45
1010.1675	2836.2519	2878.6	1993.6
1010.2855	2837.4089	2873.5	1988.8
1010.4036	2838.5653	2859.5	1975.45
1010.5216	2839.7211	2843.15	1960.9
1010.6396	2840.8761	2849.05	1962.15
1010.7575	2842.0306	2872.85	1989.05
1010.8754	2843.1843	2914.6	2032
1010.9932	2844.3374	2946.9	2061.25
1011.111	2845.4899	3009.8	2125.15
1011.2288	2846.6417	3074.05	2189.25
1011.3465	2847.7928	3155.65	2274.2
1011.4642	2848.9433	3209.9	2325.35
1011.5818	2850.0931	3286.6	2402.45
1011.6995	2851.2422	3360.3	2472.5
1011.817	2852.3907	3414.35	2531.25
1011.9345	2853.5385	3488.5	2603.6
1012.052	2854.6857	3546.95	2636.1
1012.1695	2855.8323	3580	2696.7
1012.2869	2856.9781	3636.95	2753
1012.4042	2858.1233	3700.55	2816.2
1012.5216	2859.2679	3728.65	2845.15
1012.6389	2860.4118	3757.7	2873.45
1012.7561	2861.555	3809.45	2919.65
1012.8733	2862.6976	3848.2	2958.95
1012.9905	2863.8395	3868.05	2985.4
1013.1076	2864.9808	3883.15	2998.65
1013.2247	2866.1214	3910.75	3028.3
1013.3417	2867.2614	3937.55	3052.8
1013.4587	2868.4007	3956.4	3070.6
1013.5757	2869.5393	3941.95	3057.3
1013.6926	2870.6773	3944.3	3055.1
1013.8095	2871.8146	3967.5	3078.55
1013.9263	2872.9513	3968.25	3080.7
1014.0431	2874.0874	3959.2	3072.65
1014.1599	2875.2227	3950.35	3066.1
1014.2766	2876.3574	3931.25	3047.65
1014.3933	2877.4915	3904	3019.6
1014.51	2878.6249	3877.9	2997.05
1014.6266	2879.7577	3855.6	2971.5
1014.7431	2880.8898	3840.5	2949
1014.8596	2882.0212	3811.45	2928.55
1014.9761	2883.152	3809.2	2925.85
1015.0925	2884.2821	3805.1	2920.95
1015.2089	2885.4116	3786.75	2902.7
1015.3253	2886.5405	3777.3	2894.25
1015.4416	2887.6686	3778.4	2893.7
1015.5579	2888.7962	3782.2	2899.25
1015.6741	2889.923	3790.7	2909.95
1015.7903	2891.0493	3803.75	2921.95
1015.9065	2892.1748	3830.6	2945.1
1016.0226	2893.2997	3823.75	2941.9
1016.1387	2894.424	3826.5	2945.5
1016.2547	2895.5476	3851.7	2968.05
1016.3707	2896.6706	3876.1	2994
1016.4866	2897.7929	3907.8	3022.85
1016.6025	2898.9145	3925.4	3043.3
1016.7184	2900.0355	3960.85	3075.65
1016.8342	2901.1559	3976.8	3092.3
1016.95	2902.2756	4015.45	3132.9
1017.0658	2903.3946	4056.45	3173.55
1017.1815	2904.513	4078.35	3193.5
1017.2971	2905.6308	4085.15	3200.65
1017.4127	2906.7479	4112.1	3229.05
1017.5283	2907.8643	4136.95	3253.15
1017.6439	2908.9801	4165.5	3282.35
1017.7594	2910.0953	4162.65	3280.35
1017.8748	2911.2098	4165.25	3276.95
1017.9902	2912.3236	4168.35	3276.7
1018.1056	2913.4368	4141.25	3255.8
1018.2209	2914.5494	4120.15	3235.6
1018.3362	2915.6613	4081.85	3193.85
1018.4515	2916.7725	4056.15	3170.35
1018.5667	2917.8831	4022.75	3140.5
1018.6819	2918.9931	4002	3116.75
1018.797	2920.1024	3961.95	3074.7
1018.9121	2921.211	3952.05	3069.2
1019.0271	2922.319	3938.9	3054.65
1019.1421	2923.4264	3902.1	3019.95
1019.2571	2924.5331	3879	2997.55
1019.372	2925.6391	3882.5	3000.25
1019.4869	2926.7445	3899.75	3020.1
1019.6017	2927.8493	3870.5	2986.75
1019.7165	2928.9534	3864.8	2981.75
1019.8313	2930.0569	3870.5	2985.5
1019.946	2931.1597	3850.15	2965.1
1020.0606	2932.2619	3845.5	2963.75
1020.1753	2933.3634	3843.4	2961.25
1020.2899	2934.4643	3838.95	2947.8
1020.4044	2935.5645	3814.3	2924.95
1020.5189	2936.6641	3776.65	2889.25
1020.6334	2937.763	3746.5	2864
1020.7478	2938.8613	3698.9	2816.2
1020.8622	2939.959	3638.35	2750.6
1020.9765	2941.056	3573.85	2691.8
1021.0908	2942.1523	3490.15	2606.85
1021.2051	2943.248	3410.3	2527.6
1021.3193	2944.3431	3303.65	2421.25
1021.4334	2945.4375	3206.75	2323.45
1021.5476	2946.5313	3105.45	2223.4
1021.6617	2947.6244	3003.15	2120.05
1021.7757	2948.7169	2923.25	2040.85
1021.8897	2949.8087	2830.75	1948.25
1022.0037	2950.8999	2719.4	1837.95
1022.1176	2951.9904	2634.65	1751.7
1022.2315	2953.0803	2568.65	1685.45
1022.3453	2954.1696	2507.35	1625.65
1022.4591	2955.2582	2475.35	1594.4
1022.5728	2956.3462	2411.75	1529.15
1022.6865	2957.4335	2364.5	1482.45
1022.8002	2958.5202	2340.1	1456.6
1022.9138	2959.6062	2307.9	1427.35
1023.0274	2960.6916	2279.15	1399.05
1023.141	2961.7764	2258	1375.6
1023.2545	2962.8605	2248.55	1364.95
1023.3679	2963.9439	2235.15	1354.5
1023.4813	2965.0267	2217.9	1335.25
1023.5947	2966.1089	2222.8	1319.25
1023.708	2967.1905	2203.45	1321.9
1023.8213	2968.2714	2207.5	1327.4
1023.9346	2969.3516	2201.25	1317.65
1024.0478	2970.4312	2204.5	1315.6
1024.1609	2971.5102	2202.85	1321.9
1024.274	2972.5885	2201.6	1318.8
1024.3871	2973.6662	2201.45	1314.95
1024.5002	2974.7432	2196.1	1315.65
1024.6132	2975.8196	2172.6	1291.05
1024.7261	2976.8954	2171.7	1289.95
1024.839	2977.9705	2168.95	1288.35
1024.9519	2979.045	2155.95	1276.25
1025.0647	2980.1188	2134.7	1255.45
1025.1775	2981.192	2111.5	1230.4
1025.2902	2982.2645	2086.25	1204.15
1025.4029	2983.3364	2070.9	1189.15
1025.5156	2984.4077	2039.4	1157.5
1025.6282	2985.4783	2015.9	1129
1025.7407	2986.5483	1987.3	1106.8
1025.8532	2987.6177	1952.75	1070.95
1025.9657	2988.6864	1900.75	1017.5
1026.0782	2989.7545	1877.5	993.05
1026.1906	2990.8219	1839.55	958.65
1026.3029	2991.8887	1807.35	925.6
1026.4152	2992.9548	1781.5	901.05
1026.5275	2994.0204	1749.3	869.25
1026.6397	2995.0852	1719.6	838.45
1026.7519	2996.1495	1692.15	811.25
1026.864	2997.2131	1667.2	787.9
1026.9761	2998.276	1646	763.3
1027.0882	2999.3383	1629.1	745.4
1027.2002	3000.4	1607.05	723
1027.3122	3001.4611	1587.65	707.1
1027.4241	3002.5215	1575.5	693.9
1027.536	3003.5812	1558.4	678.1
1027.6478	3004.6404	1550.25	667.85
1027.7596	3005.6989	1544.3	663
1027.8714	3006.7567	1528.45	646.1
1027.9831	3007.8139	1557.05	644.35
1028.0947	3008.8705	1510.05	627.9
1028.2064	3009.9264	1508.05	623.55
1028.3179	3010.9818	1497.6	617.45
1028.4295	3012.0364	1485.6	604.05
1028.541	3013.0905	1491.5	610.35
1028.6524	3014.1439	1482.55	599.8
1028.7638	3015.1966	1487.45	609.35
1028.8752	3016.2487	1478.8	596.45
1028.9865	3017.3002	1490.35	605.85
1029.0978	3018.3511	1469.85	589.3
1029.209	3019.4013	1462.4	581.15
1029.3202	3020.4509	1475.7	597.3
1029.4314	3021.4998	1473.55	591.9
1029.5425	3022.5481	1475.2	594.3
1029.6535	3023.5958	1470.8	589.65
1029.7645	3024.6428	1471	587.4
1029.8755	3025.6892	1466.8	587.6
1029.9864	3026.735	1473.95	591.4
1030.0973	3027.7802	1471.85	592.85
1030.2082	3028.8247	1475.2	592.6
1030.319	3029.8685	1477.15	596.85
1030.4297	3030.9118	1467.7	584.8
1030.5404	3031.9544	1477.15	595.8
1030.6511	3032.9963	1487.4	609.4
1030.7617	3034.0376	1492.8	610.85
1030.8723	3035.0783	1490.35	606.8
1030.9829	3036.1184	1491.5	608.8
1031.0934	3037.1578	1492.85	612.6
1031.2038	3038.1966	1498.75	616.9
1031.3142	3039.2348	1497.2	616.6
1031.4246	3040.2723	1499.1	609.5
1031.5349	3041.3092	1489.35	610
1031.6452	3042.3455	1488.65	607.95
1031.7554	3043.3811	1490.05	609
1031.8656	3044.4161	1483.2	601.3
1031.9758	3045.4505	1472.1	593.3
1032.0859	3046.4842	1470.85	590.85
1032.1959	3047.5173	1464.8	584.2
1032.3059	3048.5498	1448.4	566.3
1032.4159	3049.5816	1458.35	577.75
1032.5258	3050.6128	1448.15	565.95
1032.6357	3051.6434	1440.65	559.3
1032.7455	3052.6734	1430.55	547.75
1032.8553	3053.7027	1432.6	552.35
1032.9651	3054.7314	1431.5	550.85
1033.0748	3055.7594	1420.35	541.1
1033.1845	3056.7868	1405.75	523.85
1033.2941	3057.8136	1410	528.6
1033.4037	3058.8398	1403.7	522.7
1033.5132	3059.8653	1401.7	520.9
1033.6227	3060.8902	1389.2	510.4
1033.7321	3061.9145	1388.5	507.5
1033.8415	3062.9381	1381.85	502.4
1033.9509	3063.9612	1392.8	497.4
1034.0602	3064.9835	1367.4	488.45
1034.1694	3066.0053	1361.7	478
1034.2787	3067.0264	1359.45	481.5
1034.3878	3068.0469	1347.9	467.8
1034.497	3069.0668	1349.75	466.25
1034.6061	3070.086	1341.75	462.8
1034.7151	3071.1046	1333.4	451.2
1034.8241	3072.1226	1319.15	438.4
1034.9331	3073.1399	1311.45	430.65
1035.042	3074.1567	1305.45	425.45
1035.1508	3075.1727	1300.45	419.05
1035.2597	3076.1882	1285.3	404.05
1035.3684	3077.203	1276.95	397.15
1035.4772	3078.2173	1271.75	389.6
1035.5859	3079.2308	1259.2	375.75
1035.6945	3080.2438	1259.05	378.3
1035.8031	3081.2561	1253.35	372.85
1035.9117	3082.2678	1237.7	358.3
1036.0202	3083.2789	1236.45	358.35
1036.1286	3084.2893	1225.9	345.1
1036.2371	3085.2991	1221.85	342.8
1036.3454	3086.3083	1218.05	333.2
1036.4538	3087.3169	1203.7	324.15
1036.562	3088.3248	1206.7	323.7
1036.6703	3089.3321	1199.2	318.1
1036.7785	3090.3388	1186.9	305.95
1036.8866	3091.3449	1189.55	309.45
1036.9948	3092.3503	1189.75	305.4
1037.1028	3093.3551	1184.45	306.9
1037.2108	3094.3593	1180.45	301
1037.3188	3095.3629	1172.45	292.75
1037.4267	3096.3658	1174.95	294.5
1037.5346	3097.3681	1163.1	283.1
1037.6425	3098.3698	1162.2	282.2
1037.7503	3099.3708	1170.1	286.85
1037.858	3100.3713	1159.9	280.6
1037.9657	3101.3711	1158.15	276.5
1038.0734	3102.3702	1292.05	272.45
1038.181	3103.3688	1154.85	271.95
1038.2886	3104.3667	1146.6	269.5
1038.3961	3105.364	1144.9	264.15
1038.5036	3106.3607	1144.55	263.95
1038.611	3107.3568	1133.55	253.7
1038.7184	3108.3522	1136.05	259.1
1038.8257	3109.347	1136.7	255.7
1038.933	3110.3412	1131.45	248.5
1039.0403	3111.3348	1132.75	254.4
1039.1475	3112.3277	1123.65	243.9
1039.2547	3113.32	1117.45	239.2
1039.3618	3114.3117	1129.95	247.75
1039.4689	3115.3028	1125	247
1039.5759	3116.2932	1126.8	244.8
1039.6829	3117.2831	1123.75	238.45
1039.7898	3118.2723	1115.2	236.25
1039.8967	3119.2608	1114.45	233.5
1040.0035	3120.2488	1110.85	230.85
1040.1103	3121.2361	1116.05	235.55
1040.2171	3122.2229	1112.05	233.2
1040.3238	3123.209	1104.4	224.3
1040.4305	3124.1944	1105.4	225.35
1040.5371	3125.1793	1103.5	221.7
1040.6437	3126.1635	1101.25	222.2
1040.7502	3127.1471	1097.5	219.85
1040.8567	3128.1301	1097.35	218.3
1040.9631	3129.1125	1097.95	219.7
1041.0695	3130.0942	1097.4	219.1
1041.1759	3131.0753	1100.5	211.5
1041.2822	3132.0558	1094.9	213.2
1041.3884	3133.0357	1095.15	216.9
1041.4946	3134.015	1094	211.55
1041.6008	3134.9936	1092.8	211.8
1041.7069	3135.9716	1107.5	207.6
1041.813	3136.949	1088.6	210.15
1041.919	3137.9258	1108.45	210.8
1042.025	3138.902	1087.25	204.9
1042.1309	3139.8775	1084.9	206.15
1042.2368	3140.8524	1081.85	203.25
1042.3427	3141.8267	1075.3	192.4
1042.4485	3142.8004	1079.9	200.55
1042.5542	3143.7735	1081.6	196.2
1042.6599	3144.7459	1081.2	201
1042.7656	3145.7178	1075.1	196.2
1042.8712	3146.689	1069.05	190.95
1042.9768	3147.6596	1074.95	194.35
1043.0823	3148.6295	1070.5	191.95
1043.1878	3149.5989	1073.9	193.95
1043.2932	3150.5676	1066.2	190.1
1043.3986	3151.5357	1063.2	184.65
1043.5039	3152.5032	1064.7	185
1043.6092	3153.4701	1066.55	187.95
1043.7145	3154.4364	1063.5	184.45
1043.8197	3155.402	1060.75	183.15
1043.9248	3156.367	1064.25	184.75
1044.03	3157.3315	1086.8	180.15
1044.135	3158.2952	1049.2	170.05
1044.24	3159.2584	1054.05	175.45
1044.345	3160.221	1051.65	173.35
1044.4499	3161.1829	1053.65	173.4
1044.5548	3162.1442	1051.6	173.25
1044.6596	3163.105	1049.3	170.3
1044.7644	3164.065	1046.35	166.55
1044.8692	3165.0245	1043.75	161.9
1044.9739	3165.9834	1047.1	169.1
1045.0785	3166.9416	1051.7	173.5
1045.1831	3167.8993	1044.6	163.35
1045.2877	3168.8563	1041.5	162.85
1045.3922	3169.8127	1038.85	162.3
1045.4966	3170.7684	1038.65	158.7
1045.6011	3171.7236	1040.6	161.4
1045.7054	3172.6782	1040	163.4
1045.8098	3173.6321	1041.45	162.2
1045.914	3174.5854	1041.05	158.3
1046.0183	3175.5381	1033.05	153.15
1046.1224	3176.4902	1031.95	153.75
1046.2266	3177.4417	1033.55	156
1046.3307	3178.3926	1033.7	154.5
1046.4347	3179.3428	1029.25	152.55
1046.5387	3180.2924	1033.05	156.4
1046.6427	3181.2415	1027.6	148
1046.7466	3182.1899	1028.95	148.9
1046.8504	3183.1377	1030.65	152.7
1046.9542	3184.0848	1029.35	148.35
1047.058	3185.0314	1026.5	148
1047.1617	3185.9773	1027.55	149.4
1047.2654	3186.9227	1021.6	141.6
1047.369	3187.8674	1023.1	145.65
1047.4726	3188.8115	1028.6	148
1047.5761	3189.755	1022.4	145.75
1047.6796	3190.6979	1020.2	143.6
1047.783	3191.6402	1019.3	141.95
1047.8864	3192.5818	1018.65	139.25
1047.9898	3193.5229	1022.6	137.35
1048.0931	3194.4633	1020.35	140.45
1048.1963	3195.4031	1018.7	138.2
1048.2995	3196.3423	1016.3	136.85
1048.4027	3197.2809	1016.65	137.75
1048.5058	3198.2189	1017.15	139.3
1048.6089	3199.1563	1021.25	136.55
1048.7119	3200.0931	1014.8	137
1048.8148	3201.0292	1010.7	134.6
1048.9178	3201.9648	1012.55	132.3
1049.0206	3202.8997	1011.75	131.45
1049.1235	3203.834	1013.25	135.1
1049.2262	3204.7677	1007.8	128.9
1049.329	3205.7008	1008.3	128.5
1049.4317	3206.6333	1001.6	125.1
1049.5343	3207.5652	1007.95	128.35
1049.6369	3208.4964	1005.4	125.1
1049.7394	3209.4271	1003.05	125.1
1049.8419	3210.3571	1004.05	127.25
1049.9444	3211.2865	1006.4	126.8
1050.0468	3212.2154	1007.85	127.2
1050.1491	3213.1436	1002.4	122.65
1050.2514	3214.0712	1007.05	122.1
1050.3537	3214.9982	1001.85	123.9
1050.4559	3215.9246	1001.45	122.45
1050.5581	3216.8503	1001.9	127.2
1050.6602	3217.7755	996.85	119.15
1050.7623	3218.7001	995.4	116.85
1050.8643	3219.624	1000.05	120.75
1050.9663	3220.5473	1000.15	121.6
1051.0682	3221.4701	1000.65	120.75
1051.1701	3222.3922	1000.85	119.85
1051.2719	3223.3137	995.9	116.7
1051.3737	3224.2346	997.25	120.35
1051.4754	3225.1549	993.4	117.1
1051.5771	3226.0746	991.5	116.2
1051.6788	3226.9937	992.35	112.85
1051.7804	3227.9121	986.8	110.35
1051.8819	3228.83	992.9	114.35
1051.9834	3229.7473	992.1	115.1
1052.0849	3230.6639	993.3	116.1
1052.1863	3231.5799	986.7	111.65
1052.2876	3232.4954	989.4	112.7
1052.3889	3233.4102	990.05	114.3
1052.4902	3234.3244	986.35	106.1
1052.5914	3235.238	989.75	112
1052.6926	3236.151	1007.3	105.1
1052.7937	3237.0634	985.25	108.35
1052.8948	3237.9752	982.15	105.55
1052.9958	3238.8864	984.95	109.1
1053.0968	3239.797	983.85	106.3
1053.1977	3240.7069	985.5	107.4
1053.2986	3241.6163	985.15	105.6
1053.3994	3242.5251	978.95	103.95
1053.5002	3243.4332	978.15	100.55
1053.6009	3244.3408	979.2	102.1
1053.7016	3245.2477	976.3	99.25
1053.8022	3246.154	979.1	99.85
1053.9028	3247.0598	978.3	100.1
1054.0034	3247.9649	978.2	101.4
1054.1039	3248.8694	977.2	99.6
1054.2043	3249.7733	975.8	100.9
1054.3047	3250.6766	974.5	97.65
1054.4051	3251.5793	975.7	96.85
1054.5054	3252.4814	970.5	93.85
1054.6056	3253.3829	969.45	92.75
1054.7058	3254.2838	975.55	98.95
1054.806	3255.1841	968.35	89.8
1054.9061	3256.0838	972.75	95.4
1055.0061	3256.9829	967.2	91
1055.1062	3257.8814	970.2	92.2
1055.2061	3258.7792	968.45	87.45
1055.306	3259.6765	968.45	90.6
1055.4059	3260.5731	965.1	89.05
1055.5057	3261.4692	962	85.85
1055.6055	3262.3647	962.1	83.2
1055.7052	3263.2595	963.2	86.2
1055.8049	3264.1538	958.25	82
1055.9045	3265.0474	959.15	81.25
1056.0041	3265.9404	954.25	76.6
1056.1036	3266.8329	955.4	78.75
1056.2031	3267.7247	962.95	76.15
1056.3025	3268.616	952.2	76.75
1056.4019	3269.5066	949.4	71.15
1056.5013	3270.3966	953.15	75.2
1056.6005	3271.286	943.5	66.65
