Software Version:	3.9.2.0
Unit SN:	10000200
Spectrometer SN:	6960
Date:	3/8/2024 12:20:20 PM
Data Line Index:	25
Spectral Points:	2048
Integration time (ms):	125
Averages:	20
Delay (ms):	30000
Sequence Number:	1
Processing:	dark subtract
Laser Power (mW):	305
Laser Current (mA):	822
Laser Diode Temp (C):	25.1
Laser Case Temp (C):	25.8
System Temp (C):	25.7
Spectrometer Temp (C):	23.6
CCD Temp (C):	0.007
Secondary Temp (C):	20.011
Heatsink Temp (C):	21.031
CCDPCB Temp (C):	35.173
SecondaryPCB Temp (C):	28.548

Wavelength	RamanShift	Raw Counts	Dark Subtracted
787.061	30.1047	428.4	18.8
787.2016	32.3739	425.4	19.4
787.3422	34.6426	430.05	23.45
787.4828	36.9109	431.7	21.35
787.6235	39.1787	436.35	23.8
787.7642	41.4461	442.45	24.75
787.9049	43.7131	448.3	27.6
788.0456	45.9796	453.75	28.65
788.1863	48.2456	457.45	29.85
788.3271	50.5112	465.5	34.8
788.4679	52.7764	471.65	37.75
788.6087	55.0411	476.3	37
788.7496	57.3054	484.75	36.85
788.8904	59.5692	489.5	43.4
789.0313	61.8326	493.9	43.8
789.1722	64.0955	503.75	51.85
789.3132	66.3579	512.15	54.4
789.4541	68.6199	519.75	57.5
789.5951	70.8815	541.6	73.9
789.7361	73.1426	583.75	112.6
789.8771	75.4032	680.35	208.3
790.0181	77.6634	920.25	443.5
790.1592	79.9231	1472.2	989.7
790.3003	82.1824	2620.65	2124.15
790.4414	84.4412	4629	4106.8
790.5825	86.6995	7303.75	6756.2
790.7237	88.9574	9809.45	9238
790.8648	91.2148	11506.4	10921.7
791.006	93.4717	12215.2	11622.2
791.1472	95.7282	12263.55	11662.95
791.2885	97.9842	12042.65	11441.6
791.4297	100.2398	11632.8	11024.4
791.571	102.4949	11225.2	10616.15
791.7123	104.7495	10726.6	10114.8
791.8536	107.0036	10278.4	9663.55
791.9949	109.2573	9864.4	9252.9
792.1363	111.5105	9516.85	8901.1
792.2777	113.7632	9169.45	8551.3
792.4191	116.0154	8917.3	8289.1
792.5605	118.2672	8709.15	8085
792.7019	120.5185	8509.75	7887
792.8434	122.7693	8379.45	7756.35
792.9849	125.0197	8247.1	7616.4
793.1264	127.2696	8109.95	7473.45
793.2679	129.519	8022.65	7382.85
793.4094	131.7679	7878.25	7234.6
793.551	134.0163	7727.55	7082.55
793.6926	136.2642	7555.55	6906.6
793.8342	138.5117	7367.5	6715.1
793.9758	140.7587	7160.5	6509.55
794.1175	143.0052	6991.4	6339.35
794.2591	145.2512	6822.7	6168.15
794.4008	147.4967	6654.2	5996.85
794.5425	149.7417	6524.8	5866
794.6842	151.9863	6440.45	5779
794.826	154.2304	6395.4	5728.85
794.9677	156.4739	6307.4	5636.8
795.1095	158.717	6259.45	5588.15
795.2513	160.9596	6183.85	5506.25
795.3931	163.2017	6068.25	5393.4
795.535	165.4433	5927.35	5245.5
795.6768	167.6844	5779.75	5093.5
795.8187	169.925	5647.65	4960.9
795.9606	172.1651	5486	4794.95
796.1025	174.4047	5353.5	4663.65
796.2445	176.6439	5233.15	4538.2
796.3864	178.8825	5135.5	4440.4
796.5284	181.1206	5075.65	4374.2
796.6704	183.3582	5020.55	4313.15
796.8124	185.5954	4978.55	4272.65
796.9544	187.832	4961.8	4252.65
797.0965	190.0681	4928.1	4214.4
797.2386	192.3037	4943.7	4228.45
797.3806	194.5388	4938.95	4219.5
797.5228	196.7734	4950.7	4231.25
797.6649	199.0075	4961.95	4237.3
797.807	201.2411	5008.4	4286.95
797.9492	203.4742	5055.05	4331.25
798.0914	205.7068	5127.55	4401.4
798.2336	207.9389	5179.75	4449.45
798.3758	210.1704	5245.2	4515.7
798.518	212.4015	5280.2	4566.3
798.6603	214.632	5334.15	4624.45
798.8025	216.862	5393.45	4684.85
798.9448	219.0915	5431.4	4722.9
799.0871	221.3205	5467.3	4756.45
799.2294	223.549	5484.5	4778.75
799.3718	225.777	5499.15	4792.45
799.5141	228.0044	5524.55	4811.65
799.6565	230.2314	5558.85	4847.5
799.7989	232.4578	5581.4	4864
799.9413	234.6837	5602.45	4874
800.0837	236.909	5623.5	4895
800.2262	239.1339	5638.8	4884.4
800.3687	241.3582	5611.3	4871.2
800.5111	243.582	5589.4	4822.25
800.6536	245.8053	5549.8	4794.1
800.7961	248.0281	5560.65	4812.3
800.9387	250.2503	5572.2	4816.25
801.0812	252.472	5597.5	4837.3
801.2238	254.6932	5664.75	4910.4
801.3664	256.9139	5731.9	4972.8
801.509	259.134	5832.15	5068.8
801.6516	261.3536	5946.95	5184.1
801.7942	263.5727	6141.4	5379.95
801.9369	265.7912	6288.8	5527.8
802.0795	268.0092	6434.15	5670.4
802.2222	270.2267	6552.45	5787.85
802.3649	272.4436	6619.3	5853.6
802.5076	274.6601	6670.95	5893.4
802.6504	276.8759	6650.1	5879.05
802.7931	279.0913	6598.9	5828.1
802.9359	281.3061	6540.55	5767.3
803.0787	283.5204	6496.25	5718.6
803.2215	285.7341	6465.9	5686.95
803.3643	287.9473	6482.85	5704.85
803.5071	290.16	6490.85	5706.45
803.6499	292.3721	6492.45	5717.3
803.7928	294.5837	6562.15	5781.1
803.9357	296.7947	6638.25	5861.45
804.0786	299.0052	6719.75	5940.7
804.2215	301.2152	6722.85	5943.65
804.3644	303.4246	6663.35	5886.45
804.5074	305.6334	6532	5757.2
804.6503	307.8418	6365.35	5584.1
804.7933	310.0495	6198.85	5417.3
804.9363	312.2568	5994.1	5212.5
805.0793	314.4635	5788.45	4999.2
805.2223	316.6696	5628.25	4837.4
805.3653	318.8752	5507.85	4706.65
805.5084	321.0802	5453.1	4662.4
805.6514	323.2847	5451.2	4660.3
805.7945	325.4887	5468.4	4671.95
805.9376	327.692	5482.55	4688.8
806.0807	329.8949	5463.25	4665.9
806.2238	332.0972	5408.6	4611.1
806.367	334.2989	5333.05	4535.05
806.5101	336.5001	5209.85	4409.35
806.6533	338.7007	5128.4	4327.6
806.7965	340.9008	5019.6	4217.6
806.9397	343.1003	4943.6	4139.1
807.0829	345.2992	4880.4	4076.65
807.2261	347.4976	4836.6	4029.65
807.3693	349.6955	4779.55	3968.15
807.5126	351.8927	4766.95	3956.15
807.6559	354.0895	4721.75	3897.5
807.7991	356.2856	4706.25	3892.05
807.9424	358.4812	4680.95	3868.1
808.0857	360.6763	4675.4	3859.2
808.2291	362.8707	4675.25	3857.25
808.3724	365.0646	4678.4	3860.4
808.5158	367.258	4707.85	3888.9
808.6591	369.4508	4742.8	3917.85
808.8025	371.643	4819.9	3995.35
808.9459	373.8346	4870.05	4046.9
809.0893	376.0257	4920.3	4090.4
809.2327	378.2162	4964.3	4139.3
809.3762	380.4062	4940.7	4114.15
809.5196	382.5956	4901.7	4074.95
809.6631	384.7844	4856	4036.55
809.8066	386.9726	4781.95	3963.1
809.9501	389.1603	4738.45	3920.25
810.0936	391.3474	4746.2	3894.3
810.2371	393.5339	4714.45	3893.95
810.3806	395.7199	4710.6	3888.4
810.5241	397.9052	4730.45	3913.1
810.6677	400.09	4769.45	3950.35
810.8113	402.2743	4846.1	4024.55
810.9548	404.4579	4951.45	4131.5
811.0984	406.641	5055.45	4230.75
811.2421	408.8235	5117.3	4293.8
811.3857	411.0054	5190.95	4366.65
811.5293	413.1868	5272.5	4443.65
811.673	415.3675	5326.55	4494.7
811.8166	417.5477	5293.25	4459.25
811.9603	419.7273	5228.3	4391.45
812.104	421.9064	5152.45	4312.1
812.2477	424.0848	5125.5	4286.1
812.3914	426.2627	5051.5	4214.4
812.5351	428.4399	4951	4113.25
812.6788	430.6166	4814.9	3972.75
812.8226	432.7928	4679.8	3834.7
812.9663	434.9683	4526.35	3686.25
813.1101	437.1432	4435.25	3593.9
813.2539	439.3176	4356.1	3517.1
813.3977	441.4914	4305.7	3470.4
813.5415	443.6645	4294.85	3455.85
813.6853	445.8371	4278.35	3435.05
813.8291	448.0091	4276.75	3434.45
813.973	450.1806	4274	3431.15
814.1168	452.3514	4281.2	3437.6
814.2607	454.5216	4289.8	3435.95
814.4046	456.6913	4302.15	3458.8
814.5485	458.8603	4310.05	3470
814.6924	461.0288	4311.7	3468.35
814.8363	463.1967	4318.25	3480.95
814.9802	465.3639	4319.1	3476.6
815.1241	467.5306	4322.95	3476.5
815.2681	469.6967	4304.4	3464.85
815.412	471.8622	4309.05	3467.65
815.556	474.0271	4309.25	3465.6
815.7	476.1914	4333.4	3485
815.844	478.3551	4335.2	3487.3
815.988	480.5182	4348.85	3508
816.132	482.6807	4390.55	3548.25
816.276	484.8426	4498.65	3662.05
816.4201	487.0039	4647.1	3807.9
816.5641	489.1647	4821.3	3977.25
816.7082	491.3248	4953.75	4107.45
816.8522	493.4843	4994	4151.6
816.9963	495.6432	4960.7	4115.45
817.1404	497.8015	4906.65	4050.6
817.2845	499.9592	4840.35	3982.7
817.4286	502.1163	4725.1	3869.4
817.5727	504.2728	4603.65	3750.55
817.7168	506.4287	4464.1	3619.2
817.861	508.5839	4333.25	3487.2
818.0051	510.7386	4274.9	3423.85
818.1493	512.8927	4244.5	3386
818.2935	515.0461	4241.2	3386.55
818.4377	517.199	4288	3428.9
818.5818	519.3512	4397.05	3540
818.726	521.5029	4529.3	3664.05
818.8703	523.6539	4660.15	3803.9
819.0145	525.8043	4724	3866.15
819.1587	527.9541	4663.4	3803.55
819.303	530.1033	4581.1	3720.7
819.4472	532.2519	4481.5	3620.7
819.5915	534.3999	4439.75	3580.25
819.7357	536.5472	4449.1	3589.2
819.88	538.694	4510.9	3649.3
820.0243	540.8401	4614.3	3747.6
820.1686	542.9856	4672.1	3804.7
820.3129	545.1305	4691.8	3820
820.4572	547.2748	4671.45	3796.05
820.6016	549.4185	4602.25	3725.7
820.7459	551.5615	4576.55	3702.75
820.8902	553.704	4573.5	3704.4
821.0346	555.8458	4618.5	3749.95
821.1789	557.987	4723.15	3854.6
821.3233	560.1276	4845.2	3976.95
821.4677	562.2675	5054.75	4186.85
821.6121	564.4069	5315.05	4444.8
821.7565	566.5456	5595.55	4726.1
821.9009	568.6837	5678.3	4813.15
822.0453	570.8212	5489.7	4624.15
822.1897	572.958	5166.15	4296.05
822.3342	575.0942	4840.15	3974.65
822.4786	577.2299	4620.5	3758.45
822.6231	579.3648	4497.8	3640.55
822.7675	581.4992	4438.9	3587.05
822.912	583.6329	4471.65	3617.85
823.0565	585.766	4558.55	3702.45
823.201	587.8985	4629.4	3770.45
823.3454	590.0304	4689.4	3799.75
823.4899	592.1616	4658.1	3788.4
823.6345	594.2922	4610.6	3737.95
823.779	596.4222	4528.5	3654.45
823.9235	598.5515	4425.75	3550.15
824.068	600.6802	4345.65	3468.5
824.2126	602.8083	4285.45	3412.5
824.3571	604.9358	4283.35	3407.7
824.5017	607.0626	4311.05	3433.2
824.6462	609.1888	4368.25	3485.1
824.7908	611.3144	4457.65	3578.65
824.9354	613.4393	4549.75	3668.7
825.08	615.5636	4608.85	3729.45
825.2246	617.6873	4631.05	3750.55
825.3692	619.8103	4626.35	3744.9
825.5138	621.9327	4518.95	3638.95
825.6584	624.0544	4398.6	3524.95
825.803	626.1756	4297.85	3424.15
825.9477	628.2961	4225.9	3344.3
826.0923	630.4159	4189.55	3307.3
826.237	632.5351	4177.4	3292.7
826.3816	634.6537	4167.85	3284.8
826.5263	636.7716	4180.7	3295.45
826.6709	638.8889	4188.95	3302.7
826.8156	641.0056	4191.35	3306.55
826.9603	643.1216	4198.6	3315.9
827.105	645.237	4190.35	3300.9
827.2497	647.3518	4137	3254.45
827.3944	649.4659	4089.65	3211.35
827.5391	651.5793	4062.05	3184.4
827.6838	653.6922	4047.35	3169.25
827.8285	655.8043	4033.75	3154.05
827.9733	657.9159	4047.65	3164.45
828.118	660.0268	4038.65	3155.25
828.2627	662.137	4048.7	3167.8
828.4075	664.2466	4059.65	3171.9
828.5522	666.3556	4048.45	3159.75
828.697	668.4639	4034.6	3145.4
828.8418	670.5716	3989.6	3110.05
828.9865	672.6786	3975.7	3091.5
829.1313	674.785	3948.3	3058.3
829.2761	676.8907	3923.45	3037
829.4209	678.9958	3924.3	3042
829.5657	681.1002	3921.5	3035.75
829.7105	683.204	3909.45	3013.75
829.8553	685.3072	3911.2	3014.9
830.0001	687.4097	3897.6	3006.65
830.1449	689.5115	3901.5	3010.9
830.2898	691.6127	3914.3	3027.35
830.4346	693.7132	3896.6	3012.7
830.5794	695.8131	3930.1	3024.35
830.7243	697.9123	3945.2	3053.35
830.8691	700.0109	3944.7	3050.15
831.014	702.1089	3984.9	3093.65
831.1588	704.2061	4024.1	3132.95
831.3037	706.3028	4058.1	3161
831.4486	708.3987	4068.7	3174.4
831.5935	710.4941	4081.2	3190.1
831.7383	712.5887	4093.85	3201.6
831.8832	714.6827	4122.25	3226.1
832.0281	716.7761	4131.05	3240.75
832.173	718.8688	4182.7	3290.05
832.3179	720.9608	4255.5	3359.55
832.4628	723.0522	4327.1	3426.7
832.6077	725.1429	4381.2	3483.15
832.7527	727.233	4450.3	3554.5
832.8976	729.3224	4516.25	3622.95
833.0425	731.4112	4504.9	3610.85
833.1874	733.4993	4454.4	3559.7
833.3324	735.5867	4339.4	3442.8
833.4773	737.6735	4228.75	3330.1
833.6222	739.7596	4130.35	3232.55
833.7672	741.845	4059.1	3163.1
833.9122	743.9298	4046.6	3148.75
834.0571	746.014	4022.65	3127.5
834.2021	748.0974	4015.75	3116.4
834.347	750.1802	4030.5	3130.25
834.492	752.2624	4022.7	3125.1
834.637	754.3439	4045.95	3144.4
834.782	756.4247	4098.75	3193.95
834.9269	758.5048	4169.7	3269.1
835.0719	760.5843	4304.05	3402.1
835.2169	762.6631	4495.65	3595.05
835.3619	764.7413	4758.3	3859.6
835.5069	766.8188	5096.8	4194.9
835.6519	768.8956	5358.7	4455.4
835.7969	770.9718	5561.75	4661.4
835.9419	773.0473	5552.1	4652.25
836.0869	775.1221	5460.35	4556.7
836.232	777.1962	5364.95	4462.35
836.377	779.2697	5329.35	4426.85
836.522	781.3426	5389.75	4468.95
836.667	783.4147	5432.4	4526.55
836.8121	785.4862	5437.55	4535.65
836.9571	787.557	5309.55	4407.1
837.1021	789.6271	5073.2	4167.3
837.2472	791.6966	4788.7	3885
837.3922	793.7654	4485.7	3583.8
837.5373	795.8335	4296.7	3393.95
837.6823	797.901	4154.5	3250.95
837.8274	799.9678	4083.5	3174.45
837.9724	802.0339	4027.55	3122.6
838.1175	804.0993	4011.75	3095.05
838.2626	806.1641	3965.4	3058.95
838.4076	808.2282	3933	3030.7
838.5527	810.2916	3906.4	3000.05
838.6978	812.3544	3884.9	2981.55
838.8428	814.4164	3856.45	2954.15
838.9879	816.4778	3883.95	2974.55
839.133	818.5385	3893.35	2988.25
839.2781	820.5986	3971.05	3061.45
839.4232	822.658	4104.5	3198.05
839.5682	824.7166	4270.05	3364.65
839.7133	826.7747	4530.85	3624.05
839.8584	828.832	4810.35	3902.45
840.0035	830.8886	5002.95	4091.75
840.1486	832.9446	5108.6	4198.05
840.2937	834.9999	5028.65	4121.6
840.4388	837.0545	4872.3	3960.6
840.5839	839.1085	4687.95	3782.2
840.729	841.1618	4501.65	3586.6
840.8741	843.2143	4377.05	3467.85
841.0192	845.2662	4275.75	3362.5
841.1643	847.3175	4192.95	3284.2
841.3095	849.368	4149.55	3238.9
841.4546	851.4179	4116	3206
841.5997	853.467	4066.35	3157.35
841.7448	855.5155	4049.3	3141.6
841.8899	857.5633	4022.85	3110.25
842.0351	859.6105	3984.65	3076.55
842.1802	861.6569	3951.5	3042.75
842.3253	863.7027	3921.4	3008.65
842.4704	865.7478	3899.2	2987.8
842.6156	867.7922	3857.35	2946.25
842.7607	869.8359	3840.45	2931.15
842.9058	871.8789	3854.4	2944.5
843.0509	873.9212	3911.2	2967.25
843.1961	875.9629	3927.4	3018.9
843.3412	878.0039	3960.65	3046.15
843.4863	880.0441	3993.9	3083.9
843.6315	882.0837	4021.95	3111.85
843.7766	884.1226	4069.5	3158.3
843.9218	886.1609	4100.15	3192.9
844.0669	888.1984	4173.05	3262.55
844.212	890.2352	4247.95	3337.05
844.3572	892.2714	4277.15	3359.8
844.5023	894.3069	4262.6	3348.55
844.6475	896.3416	4181.15	3268.3
844.7926	898.3757	4072.55	3158.7
844.9377	900.4091	4023.4	3110
845.0829	902.4418	4018.5	3101.75
845.228	904.4739	4034.25	3116.85
845.3732	906.5052	4080.4	3164.6
845.5183	908.5358	4063.8	3148.9
845.6635	910.5658	4008.05	3090.45
845.8086	912.595	3911.35	2997
845.9538	914.6236	3796.3	2879.8
846.0989	916.6515	3749.35	2837.95
846.2441	918.6786	3708.15	2790
846.3892	920.7051	3692.7	2774.1
846.5344	922.7309	3693.85	2782.9
846.6795	924.756	3707.2	2793.35
846.8246	926.7804	3750	2832.9
846.9698	928.8041	3744.65	2826.15
847.1149	930.8272	3779.45	2866.55
847.2601	932.8495	3776.15	2860.75
847.4052	934.8711	3786.1	2869.7
847.5504	936.892	3769.8	2854.35
847.6955	938.9123	3796.1	2877.75
847.8407	940.9318	3820.95	2905.75
847.9858	942.9506	3847.15	2929.5
848.131	944.9688	3804.05	2887.35
848.2761	946.9862	3766.75	2852.2
848.4213	949.003	3685.85	2771.15
848.5664	951.019	3629.05	2712.2
848.7115	953.0344	3600.35	2686.5
848.8567	955.0491	3590.7	2676.3
849.0018	957.063	3604.55	2686.3
849.147	959.0763	3642.7	2730.25
849.2921	961.0888	3643.4	2725.55
849.4373	963.1007	3678.2	2765
849.5824	965.1119	3673.2	2763.35
849.7275	967.1223	3658.85	2752.5
849.8727	969.1321	3645.3	2738.05
850.0178	971.1412	3639.4	2729.85
850.1629	973.1495	3632.4	2718.85
850.3081	975.1572	3668.05	2718.3
850.4532	977.1641	3647.3	2731.8
850.5983	979.1704	3634.15	2718.25
850.7435	981.1759	3639.85	2722.15
850.8886	983.1808	3634.4	2718.35
851.0337	985.1849	3647.4	2721.05
851.1788	987.1884	3644.15	2727.35
851.324	989.1911	3677.75	2761.8
851.4691	991.1932	3706.15	2790
851.6142	993.1945	3714.85	2801.1
851.7593	995.1951	3680.05	2763.8
851.9045	997.1951	3688.45	2766.55
852.0496	999.1943	3693.95	2779.2
852.1947	1001.1928	3697.55	2782.6
852.3398	1003.1906	3733.75	2817.75
852.4849	1005.1877	3793.35	2875.8
852.63	1007.1841	3845.45	2928.1
852.7751	1009.1798	3882.35	2965.85
852.9202	1011.1748	3837.85	2921.05
853.0653	1013.1691	3787.45	2869.5
853.2104	1015.1627	3695.55	2779.8
853.3555	1017.1556	3611.95	2695.8
853.5006	1019.1477	3564.15	2649.65
853.6457	1021.1392	3505.85	2596.6
853.7908	1023.1299	3492.9	2581.7
853.9359	1025.12	3500.4	2589.7
854.081	1027.1093	3517.4	2619.75
854.2261	1029.0979	3561.05	2663.65
854.3712	1031.0859	3613.05	2709.9
854.5163	1033.0731	3639	2731.3
854.6613	1035.0596	3654.9	2746.9
854.8064	1037.0454	3592.5	2680.85
854.9515	1039.0304	3578.95	2662.35
855.0965	1041.0148	3507.1	2592.95
855.2416	1042.9985	3468.6	2552.1
855.3867	1044.9814	3459.25	2546.15
855.5317	1046.9636	3426.2	2507.3
855.6768	1048.9452	3432.75	2522.15
855.8219	1050.926	3444.15	2531
855.9669	1052.9061	3475.6	2558.4
856.112	1054.8855	3483.95	2566.15
856.257	1056.8642	3501.5	2586.25
856.4021	1058.8421	3522.45	2604.55
856.5471	1060.8194	3544.95	2630.3
856.6921	1062.7959	3560.85	2646.75
856.8372	1064.7717	3590.4	2671.45
856.9822	1066.7469	3640.15	2720.7
857.1272	1068.7213	3684.75	2765.75
857.2723	1070.695	3726.25	2809.45
857.4173	1072.6679	3753.5	2836.8
857.5623	1074.6402	3771.25	2856.15
857.7073	1076.6117	3764.6	2843.25
857.8523	1078.5826	3689.4	2772.15
857.9973	1080.5527	3618.65	2698.3
858.1423	1082.5221	3549.2	2632.45
858.2873	1084.4908	3530.55	2616.5
858.4323	1086.4587	3515.45	2597.95
858.5773	1088.426	3511.45	2597.5
858.7223	1090.3925	3546.95	2624.45
858.8673	1092.3584	3553.1	2636.6
859.0123	1094.3235	3570.9	2655.3
859.1573	1096.2879	3630.15	2714.55
859.3022	1098.2515	3701.55	2789.3
859.4472	1100.2145	3799.05	2884.45
859.5922	1102.1767	3881.25	2961.5
859.7371	1104.1382	4006.05	3089.8
859.8821	1106.099	4120.75	3204
860.027	1108.0591	4228.85	3311.95
860.172	1110.0185	4296.8	3379.4
860.3169	1111.9771	4348.35	3430.4
860.4619	1113.9351	4309.95	3393.8
860.6068	1115.8923	4287.85	3373.8
860.7517	1117.8488	4245.7	3324.8
860.8967	1119.8045	4186.95	3271.85
861.0416	1121.7596	4110.6	3194.4
861.1865	1123.7139	4028.4	3117.55
861.3314	1125.6675	3995.3	3082.5
861.4763	1127.6204	4011.15	3097.2
861.6212	1129.5726	3981.55	3065.35
861.7661	1131.524	3935.65	3021.2
861.911	1133.4748	3872.5	2955.7
862.0559	1135.4248	3765.1	2845.8
862.2008	1137.3741	3682.35	2769.3
862.3457	1139.3226	3626.2	2709
862.4905	1141.2705	3608.4	2690.7
862.6354	1143.2176	3583.05	2660.35
862.7803	1145.164	3553.75	2637.2
862.9251	1147.1097	3515.2	2600.2
863.07	1149.0546	3464.8	2548.45
863.2148	1150.9989	3406.55	2491.45
863.3597	1152.9424	3368.45	2453.35
863.5045	1154.8852	3340.8	2426.4
863.6493	1156.8272	3335.3	2419.45
863.7942	1158.7686	3347.6	2425.3
863.939	1160.7092	3367.15	2450.45
864.0838	1162.6491	3393.7	2474.8
864.2286	1164.5883	3430.35	2516.25
864.3734	1166.5267	3489.25	2572.05
864.5182	1168.4644	3570.65	2654.85
864.663	1170.4014	3663.2	2745.25
864.8078	1172.3377	3779	2865.55
864.9526	1174.2732	3931.9	3018.8
865.0974	1176.2081	4140.5	3221.55
865.2421	1178.1421	4394.8	3476.75
865.3869	1180.0755	4665.55	3750.65
865.5317	1182.0082	4862	3948.55
865.6764	1183.9401	4952.4	4039.05
865.8212	1185.8713	4884.05	3973.5
865.9659	1187.8017	4698.1	3789.1
866.1106	1189.7315	4487.3	3585.4
866.2554	1191.6605	4280.05	3381.05
866.4001	1193.5888	4134.95	3228.5
866.5448	1195.5163	4063.5	3152.1
866.6895	1197.4432	4020.4	3109
866.8342	1199.3693	3998.9	3088
866.9789	1201.2947	3970.3	3054.65
867.1236	1203.2193	3946.35	3032
867.2683	1205.1432	3944.6	3031.7
867.413	1207.0664	3928.3	3012.75
867.5576	1208.9889	3916.45	3000.8
867.7023	1210.9106	3921.55	3009.05
867.847	1212.8316	3917.75	3007.05
867.9916	1214.7519	3951.4	3026.4
868.1363	1216.6715	3959.4	3047.35
868.2809	1218.5903	4013.4	3097.9
868.4255	1220.5084	4039.7	3125.95
868.5701	1222.4257	4112.45	3200.65
868.7148	1224.3424	4149.55	3237.45
868.8594	1226.2583	4224.9	3308.7
869.004	1228.1735	4298.9	3384.55
869.1486	1230.0879	4373.6	3459.85
869.2932	1232.0016	4475.8	3560.75
869.4377	1233.9146	4575.85	3658.95
869.5823	1235.8269	4606.2	3689.2
869.7269	1237.7384	4596.1	3684.2
869.8715	1239.6492	4566.35	3652.75
870.016	1241.5592	4564.25	3649.4
870.1606	1243.4686	4617.85	3702.55
870.3051	1245.3772	4718.35	3806.45
870.4496	1247.285	4875	3962.2
870.5941	1249.1922	4994.85	4082.2
870.7387	1251.0986	5119.3	4208.05
870.8832	1253.0042	5182.3	4268.95
871.0277	1254.9092	5239.95	4327.8
871.1722	1256.8134	5293	4383.8
871.3167	1258.7169	5357.2	4443.65
871.4611	1260.6196	5440.4	4527.65
871.6056	1262.5216	5551.2	4634.25
871.7501	1264.4229	5627.25	4714.55
871.8945	1266.3234	5701.85	4788.05
872.039	1268.2232	5785.95	4873.75
872.1834	1270.1223	5809.6	4896.3
872.3278	1272.0207	5836.05	4921.8
872.4723	1273.9183	5815.35	4898.4
872.6167	1275.8151	5779.65	4869.15
872.7611	1277.7113	5805.05	4890.6
872.9055	1279.6067	5878	4965.6
873.0499	1281.5014	6054.15	5138.35
873.1943	1283.3953	6302.75	5386.05
873.3386	1285.2885	6611.75	5701.85
873.483	1287.181	6954.8	6040.4
873.6274	1289.0727	7260.7	6350.75
873.7717	1290.9637	7428.95	6516.05
873.9161	1292.854	7563.6	6654.15
874.0604	1294.7435	7541.3	6629.4
874.2047	1296.6323	7450.65	6536.95
874.349	1298.5204	7306.4	6389.15
874.4933	1300.4077	7165.6	6251.05
874.6376	1302.2943	6950.9	6038.1
874.7819	1304.1802	6762.4	5852.3
874.9262	1306.0653	6509.05	5596.25
875.0705	1307.9497	6233.25	5322.1
875.2147	1309.8333	5977.7	5066.2
875.359	1311.7162	5805.25	4895.85
875.5032	1313.5984	5701.25	4782.65
875.6475	1315.4798	5597.2	4682.85
875.7917	1317.3605	5546.7	4618.75
875.9359	1319.2405	5483.05	4569.4
876.0801	1321.1197	5333.85	4418.35
876.2243	1322.9982	5159.3	4244.05
876.3685	1324.876	4996.5	4084.1
876.5127	1326.753	4826.05	3914.15
876.6569	1328.6293	4710.95	3797.05
876.801	1330.5048	4585.15	3668.8
876.9452	1332.3796	4479.7	3568.6
877.0893	1334.2537	4436.3	3496.1
877.2335	1336.127	4378.8	3468.15
877.3776	1337.9996	4342.35	3430.15
877.5217	1339.8714	4331.25	3415.35
877.6658	1341.7426	4370.05	3412.75
877.8099	1343.6129	4332.9	3417.3
877.954	1345.4826	4337.25	3422.85
878.0981	1347.3515	4355.4	3440.15
878.2422	1349.2196	4327.85	3417.8
878.3862	1351.087	4352.85	3440.45
878.5303	1352.9537	4367.15	3452.15
878.6743	1354.8197	4423.9	3511.65
878.8184	1356.6849	4491.15	3578.1
878.9624	1358.5493	4569.35	3655.25
879.1064	1360.4131	4665	3751.7
879.2504	1362.276	4763.35	3854.1
879.3944	1364.1383	4791.15	3878.9
879.5384	1365.9998	4733.5	3817
879.6823	1367.8606	4581.3	3665.1
879.8263	1369.7206	4425.5	3513.35
879.9702	1371.5799	4286.65	3370.9
880.1142	1373.4384	4175	3262.1
880.2581	1375.2962	4050.15	3136.05
880.402	1377.1533	3900.6	2988.65
880.5459	1379.0096	3728.55	2816.75
880.6898	1380.8652	3589.1	2678.75
880.8337	1382.7201	3426.55	2515.2
880.9776	1384.5742	3347.05	2436.85
881.1215	1386.4275	3256.3	2344.05
881.2653	1388.2802	3207.65	2295
881.4092	1390.132	3151.85	2238.8
881.553	1391.9832	3118.6	2204.3
881.6968	1393.8336	3091.4	2177.25
881.8406	1395.6832	3070.45	2156.8
881.9844	1397.5322	3051.5	2138.1
882.1282	1399.3803	3042.8	2127.1
882.272	1401.2278	3028.5	2116.35
882.4158	1403.0745	3017.8	2106.9
882.5595	1404.9204	3020.55	2110.05
882.7033	1406.7656	3011.9	2096.95
882.847	1408.6101	3019.35	2106.85
882.9908	1410.4538	3044.25	2129.65
883.1345	1412.2968	3052.6	2141.25
883.2782	1414.139	3071.4	2159.35
883.4219	1415.9805	3091.7	2181.2
883.5656	1417.8213	3140	2221.15
883.7092	1419.6613	3178.75	2267.8
883.8529	1421.5006	3257.7	2346.85
883.9965	1423.3391	3339.3	2425.95
884.1402	1425.1769	3465.4	2555.1
884.2838	1427.0139	3665.25	2753.15
884.4274	1428.8502	3889.6	2979.6
884.571	1430.6858	4140.1	3228.3
884.7146	1432.5206	4315.2	3407.55
884.8582	1434.3547	4403.65	3492.9
885.0018	1436.188	4416.5	3505.55
885.1453	1438.0206	4360.15	3447.15
885.2889	1439.8524	4286	3375.85
885.4324	1441.6835	4253.15	3340.85
885.5759	1443.5139	4207.25	3294.2
885.7194	1445.3435	4181.15	3272.45
885.8629	1447.1724	4164.25	3253.55
886.0064	1449.0005	4143.75	3237.5
886.1499	1450.8279	4137.65	3227.25
886.2933	1452.6545	4145.75	3235.25
886.4368	1454.4804	4157.1	3247.9
886.5802	1456.3056	4154.55	3239.4
886.7237	1458.13	4120.95	3214.4
886.8671	1459.9536	4060.65	3152.95
887.0105	1461.7766	3941.9	3031.1
887.1539	1463.5987	3809.8	2896.15
887.2972	1465.4202	3668.75	2758.65
887.4406	1467.2409	3524.3	2613.9
887.584	1469.0608	3414.65	2504
887.7273	1470.88	3283.15	2373
887.8706	1472.6984	3182.65	2274.85
888.0139	1474.5161	3115.05	2204.1
888.1572	1476.3331	3038.4	2129.55
888.3005	1478.1493	2999.35	2087.05
888.4438	1479.9648	2959.95	2050.2
888.5871	1481.7795	2929.15	2017.95
888.7303	1483.5935	2906.85	1996.7
888.8736	1485.4067	2885.45	1977.35
889.0168	1487.2192	2874.1	1961.6
889.16	1489.031	2865.55	1954.7
889.3032	1490.842	2851.85	1946
889.4464	1492.6522	2844.05	1937.75
889.5896	1494.4618	2806.95	1897.75
889.7327	1496.2705	2808.8	1899.85
889.8759	1498.0785	2793.2	1883.55
890.019	1499.8858	2769.9	1863.05
890.1622	1501.6924	2753.4	1845.3
890.3053	1503.4981	2725.1	1817.45
890.4484	1505.3032	2710.2	1802.25
890.5914	1507.1075	2699.5	1790.2
890.7345	1508.911	2674.9	1767.45
890.8776	1510.7138	2656.55	1747.1
891.0206	1512.5159	2636.95	1728.9
891.1637	1514.3172	2611.15	1705.65
891.3067	1516.1178	2605.35	1699.8
891.4497	1517.9176	2587.8	1678.6
891.5927	1519.7166	2577.3	1670.4
891.7357	1521.515	2560.5	1646.75
891.8786	1523.3126	2553.45	1648.25
892.0216	1525.1094	2540.4	1630.95
892.1645	1526.9055	2534.25	1629.15
892.3074	1528.7008	2523.3	1618.8
892.4503	1530.4954	2518.45	1610.9
892.5932	1532.2893	2504.7	1602.15
892.7361	1534.0824	2509.25	1602.65
892.879	1535.8747	2499.05	1595
893.0218	1537.6663	2509.15	1604.7
893.1647	1539.4572	2514.65	1607.9
893.3075	1541.2473	2515.5	1614.6
893.4503	1543.0367	2516	1609.5
893.5931	1544.8253	2534.7	1624.95
893.7359	1546.6132	2552.65	1645.65
893.8787	1548.4003	2568.6	1653.95
894.0214	1550.1867	2596.25	1685.2
894.1642	1551.9723	2637.5	1730.05
894.3069	1553.7572	2678.75	1775.7
894.4496	1555.5414	2747.85	1845.75
894.5923	1557.3247	2804.75	1903.5
894.735	1559.1074	2890.95	1990.6
894.8777	1560.8893	2990.45	2089.55
895.0204	1562.6705	3067.1	2168.85
895.163	1564.4509	3135.7	2237.65
895.3056	1566.2305	3178.15	2278.75
895.4482	1568.0094	3200.45	2300.15
895.5908	1569.7876	3208.55	2308.8
895.7334	1571.565	3200	2301.6
895.876	1573.3417	3195.45	2293.95
896.0186	1575.1176	3168.75	2271
896.1611	1576.8928	3196.6	2296.35
896.3036	1578.6672	3222.6	2329.15
896.4461	1580.4409	3245.45	2349.5
896.5886	1582.2138	3277.65	2380.15
896.7311	1583.986	3327.2	2427.35
896.8736	1585.7575	3385.15	2489.15
897.0161	1587.5282	3457	2560.2
897.1585	1589.2981	3524.85	2628.55
897.3009	1591.0673	3594.9	2700.45
897.4433	1592.8358	3657.35	2762.4
897.5857	1594.6035	3711.55	2814.65
897.7281	1596.3704	3764.95	2867.2
897.8705	1598.1366	3816.2	2918.75
898.0128	1599.9021	3861.1	2967.15
898.1551	1601.6668	3908.4	3009.3
898.2975	1603.4308	3956.65	3058.85
898.4398	1605.194	4026.6	3126.95
898.5821	1606.9564	4144.4	3252.35
898.7243	1608.7182	4270.7	3377.8
898.8666	1610.4791	4428.75	3541.2
899.0088	1612.2394	4591.8	3703.75
899.1511	1613.9988	4751.1	3860.5
899.2933	1615.7576	4903.9	4013.3
899.4355	1617.5156	5020.85	4119.15
899.5776	1619.2728	5034.9	4137.9
899.7198	1621.0293	4976.8	4080.75
899.862	1622.785	4819.7	3926.1
900.0041	1624.54	4626.25	3732.1
900.1462	1626.2942	4407.85	3513.6
900.2883	1628.0477	4174.15	3279.15
900.4304	1629.8005	3978.5	3082.55
900.5725	1631.5525	3769.7	2876.8
900.7145	1633.3037	3627.6	2735.25
900.8566	1635.0542	3504.1	2612.1
900.9986	1636.804	3414.65	2522.65
901.1406	1638.553	3393.9	2433.2
901.2826	1640.3013	3308.95	2415.7
901.4245	1642.0488	3267.65	2371.25
901.5665	1643.7955	3259.45	2367.8
901.7085	1645.5416	3284.2	2393
901.8504	1647.2868	3313.15	2421.2
901.9923	1649.0313	3367.3	2475.75
902.1342	1650.7751	3423.3	2527.6
902.2761	1652.5181	3483.65	2593.8
902.4179	1654.2604	3547.6	2656.95
902.5598	1656.0019	3656.4	2766.4
902.7016	1657.7427	3752.95	2862.5
902.8434	1659.4828	3874	2982.35
902.9852	1661.222	3955.25	3065.4
903.127	1662.9606	3938.65	3044.95
903.2687	1664.6984	3846.35	2952.85
903.4105	1666.4354	3679.7	2785.2
903.5522	1668.1717	3437.35	2542.6
903.6939	1669.9072	3194.6	2302
903.8356	1671.642	2972.8	2077.8
903.9773	1673.3761	2808.65	1916.5
904.119	1675.1094	2666.55	1774.15
904.2606	1676.8419	2574.05	1682.4
904.4022	1678.5737	2474.8	1581.9
904.5439	1680.3048	2409.9	1517.35
904.6855	1682.0351	2356.15	1462.85
904.827	1683.7646	2313.1	1415.05
904.9686	1685.4934	2264.25	1369.25
905.1101	1687.2215	2236.6	1345.35
905.2517	1688.9488	2194.45	1303.9
905.3932	1690.6754	2183.9	1292.4
905.5347	1692.4012	2155.7	1263.3
905.6761	1694.1263	2128.2	1237.9
905.8176	1695.8506	2122.9	1232.65
905.9591	1697.5742	2096.55	1206.75
906.1005	1699.297	2084.15	1195.3
906.2419	1701.0191	2069.45	1181.35
906.3833	1702.7404	2053.45	1166.85
906.5246	1704.461	2036.25	1143.75
906.666	1706.1808	2029.55	1138.6
906.8073	1707.8999	2014.35	1124.3
906.9487	1709.6182	2001.75	1113.2
907.09	1711.3358	1990.5	1103.2
907.2313	1713.0527	1985.2	1098
907.3725	1714.7688	1984.7	1090.8
907.5138	1716.4841	1967.75	1077
907.655	1718.1987	1967.5	1074.65
907.7962	1719.9126	1947.35	1060.2
907.9374	1721.6257	1942.1	1052.75
908.0786	1723.338	1943.35	1056.25
908.2198	1725.0496	1932.85	1043.75
908.3609	1726.7605	1943.8	1054.5
908.502	1728.4706	1934.35	1045.5
908.6431	1730.18	1935	1046.75
908.7842	1731.8886	1916.1	1030.9
908.9253	1733.5964	1936.15	1028.95
909.0664	1735.3036	1906.5	1016.1
909.2074	1737.0099	1901.95	1015
909.3484	1738.7156	1890.85	1004.15
909.4894	1740.4204	1890.65	1000.65
909.6304	1742.1246	1871.05	980.25
909.7714	1743.8279	1875.45	986
909.9123	1745.5306	1864.15	976.2
910.0532	1747.2325	1851.95	964.75
910.1941	1748.9336	1843.1	955.8
910.335	1750.634	1841.65	949.8
910.4759	1752.3336	1833.95	946.1
910.6168	1754.0325	1833.35	947.55
910.7576	1755.7307	1823.3	937.5
910.8984	1757.4281	1828.6	941.7
911.0392	1759.1247	1832.85	935.3
911.18	1760.8206	1829.1	933.8
911.3208	1762.5158	1822.45	929.5
911.4615	1764.2102	1809.9	920.4
911.6022	1765.9039	1813.4	926.95
911.7429	1767.5968	1804.35	919
911.8836	1769.289	1793.4	905.65
912.0243	1770.9804	1800.2	910.55
912.1649	1772.6711	1806.4	915.65
912.3056	1774.361	1797.55	908.95
912.4462	1776.0502	1795.35	906.35
912.5868	1777.7386	1789.75	898.15
912.7274	1779.4263	1787.6	899.9
912.8679	1781.1132	1788.95	901.5
913.0084	1782.7994	1779.65	892.45
913.149	1784.4849	1781	895.1
913.2895	1786.1696	1786.45	882.15
913.4299	1787.8535	1776.5	890.6
913.5704	1789.5367	1767.4	879.5
913.7108	1791.2192	1768.7	883.95
913.8513	1792.9009	1776.3	863.55
913.9917	1794.5818	1768.4	879.2
914.132	1796.2621	1752.2	864.9
914.2724	1797.9415	1757.8	865.85
914.4128	1799.6202	1750.95	860.6
914.5531	1801.2982	1762.65	875.25
914.6934	1802.9755	1752.25	862
914.8337	1804.6519	1746.05	858
914.9739	1806.3277	1739.4	853.8
915.1142	1808.0027	1732.5	847.05
915.2544	1809.6769	1739.15	854.1
915.3946	1811.3504	1729.9	843.85
915.5348	1813.0231	1725.55	840.65
915.675	1814.6951	1735.65	848.9
915.8151	1816.3664	1733.3	844.35
915.9553	1818.0369	1727.55	839.4
916.0954	1819.7067	1735.1	847.8
916.2355	1821.3757	1734.55	843.55
916.3755	1823.044	1729.35	840.3
916.5156	1824.7115	1721.1	832.7
916.6556	1826.3783	1712.6	825.95
916.7956	1828.0443	1710.85	826.5
916.9356	1829.7096	1713.35	825.6
917.0756	1831.3741	1718.6	829
917.2155	1833.0379	1708.85	820.9
917.3555	1834.701	1711.4	824.6
917.4954	1836.3633	1711.1	825.9
917.6353	1838.0248	1696.15	808
917.7751	1839.6856	1704.3	816
917.915	1841.3457	1705.35	819
918.0548	1843.005	1693.3	807.45
918.1946	1844.6636	1692.4	808
918.3344	1846.3214	1691.1	804.6
918.4742	1847.9785	1698.25	814.5
918.6139	1849.6349	1692.55	805.4
918.7537	1851.2904	1694.8	798.45
918.8934	1852.9453	1702.25	813.25
919.0331	1854.5994	1694.55	807.45
919.1727	1856.2528	1689.95	797.7
919.3124	1857.9054	1684.95	797.7
919.452	1859.5572	1686.05	800.1
919.5916	1861.2083	1688.35	800.8
919.7312	1862.8587	1682.55	795.7
919.8708	1864.5084	1684.85	796.65
920.0103	1866.1572	1681	793.4
920.1498	1867.8054	1673.8	785.3
920.2893	1869.4528	1666.6	777.35
920.4288	1871.0994	1664.85	778.35
920.5683	1872.7453	1667.25	777.15
920.7077	1874.3905	1677.5	783.15
920.8471	1876.0349	1662.65	773.05
920.9865	1877.6786	1658.3	766.55
921.1259	1879.3215	1664	776.65
921.2653	1880.9637	1657.65	769.55
921.4046	1882.6051	1666.95	780.65
921.5439	1884.2458	1651.1	765
921.6832	1885.8858	1650.7	764.3
921.8225	1887.525	1658.55	772.8
921.9617	1889.1634	1648.7	762.05
922.101	1890.8011	1639.45	751.85
922.2402	1892.4381	1644.65	758.25
922.3794	1894.0743	1645.4	759.75
922.5185	1895.7098	1632.15	744.85
922.6577	1897.3446	1636.65	749.65
922.7968	1898.9786	1630.65	739.45
922.9359	1900.6118	1635.35	750
923.075	1902.2443	1629.25	739.55
923.214	1903.8761	1624.1	738.95
923.3531	1905.5071	1622.45	737.35
923.4921	1907.1374	1625.95	739.6
923.6311	1908.7669	1620.1	734.65
923.77	1910.3957	1620.9	735.55
923.909	1912.0237	1611.35	723.1
924.0479	1913.651	1621.4	732.25
924.1868	1915.2776	1604.35	717.25
924.3257	1916.9034	1606.9	722.15
924.4646	1918.5285	1600.85	716.2
924.6034	1920.1528	1604.6	715.1
924.7422	1921.7764	1600.75	714.05
924.881	1923.3992	1603.9	718.95
925.0198	1925.0213	1597.4	711.45
925.1586	1926.6427	1589.1	702.95
925.2973	1928.2633	1665.55	695.5
925.436	1929.8832	1587.75	700.6
925.5747	1931.5023	1580.85	693.85
925.7134	1933.1207	1587.35	699.45
925.852	1934.7383	1585.3	699.7
925.9906	1936.3552	1581	696.5
926.1292	1937.9714	1577.8	692.1
926.2678	1939.5868	1579.65	689.8
926.4064	1941.2015	1570.7	682.45
926.5449	1942.8154	1569.65	682.45
926.6834	1944.4286	1566.95	679.8
926.8219	1946.041	1583.7	676.95
926.9604	1947.6528	1566.9	677.2
927.0988	1949.2637	1559.6	675.3
927.2372	1950.8739	1555.4	668.85
927.3756	1952.4834	1561.25	676.2
927.514	1954.0921	1553.35	667.5
927.6523	1955.7001	1557.75	668
927.7907	1957.3074	1541.45	657.15
927.929	1958.9139	1541.25	655
928.0673	1960.5197	1547.1	660.05
928.2055	1962.1247	1539	653.55
928.3438	1963.729	1538.15	653.45
928.482	1965.3325	1540.3	649.9
928.6202	1966.9353	1530.2	646.45
928.7584	1968.5374	1535.25	649.8
928.8965	1970.1387	1532.15	647.75
929.0346	1971.7393	1530.7	647.05
929.1727	1973.3392	1523.2	637.75
929.3108	1974.9383	1522	637.95
929.4489	1976.5366	1517.1	633.95
929.5869	1978.1342	1523.3	639.65
929.7249	1979.7311	1519.75	635.25
929.8629	1981.3273	1516.25	630.2
930.0009	1982.9227	1515.1	630.9
930.1388	1984.5173	1506.55	622.75
930.2767	1986.1112	1509.55	627.95
930.4146	1987.7044	1508.6	623.55
930.5525	1989.2968	1501.4	618.05
930.6904	1990.8885	1505.55	620.8
930.8282	1992.4795	1503.8	620.9
930.966	1994.0697	1499.25	616.4
931.1038	1995.6592	1496.7	613.95
931.2415	1997.2479	1491.55	608.55
931.3793	1998.8359	1491.15	609.65
931.517	2000.4232	1487.55	607.1
931.6547	2002.0097	1484.25	605.25
931.7923	2003.5955	1487.15	607.75
931.93	2005.1805	1484.8	602.3
932.0676	2006.7648	1480.7	598.3
932.2052	2008.3484	1480.05	598.15
932.3427	2009.9312	1482.55	600.25
932.4803	2011.5133	1479.65	601.4
932.6178	2013.0946	1477.1	594.5
932.7553	2014.6752	1471.15	589.25
932.8928	2016.2551	1476.7	594.05
933.0302	2017.8342	1476.85	595.6
933.1676	2019.4126	1470.6	588.65
933.305	2020.9902	1463.5	583.65
933.4424	2022.5672	1475.7	593.35
933.5798	2024.1433	1468.35	583.85
933.7171	2025.7188	1466.5	586.2
933.8544	2027.2935	1462.25	582.6
933.9917	2028.8674	1466.15	585
934.129	2030.4406	1454.95	575.2
934.2662	2032.0131	1453.25	576.9
934.4034	2033.5849	1456.85	571.25
934.5406	2035.1559	1458	579.75
934.6778	2036.7261	1451.05	568.6
934.8149	2038.2957	1448.35	566.2
934.952	2039.8645	1448.2	565.7
935.0891	2041.4325	1456.55	571.9
935.2262	2042.9998	1442.7	560.8
935.3632	2044.5664	1450.55	569.75
935.5002	2046.1323	1445.6	566.3
935.6372	2047.6974	1441.45	560.4
935.7742	2049.2617	1438.65	561.05
935.9111	2050.8254	1446.15	561.75
936.048	2052.3883	1442.25	559.9
936.1849	2053.9504	1432.75	550.05
936.3218	2055.5118	1438.9	557.1
936.4586	2057.0725	1445.2	561.15
936.5955	2058.6325	1429.45	547.85
936.7323	2060.1917	1432	549.35
936.869	2061.7502	1435.5	553.05
937.0058	2063.3079	1429.6	548.05
937.1425	2064.8649	1432	548.55
937.2792	2066.4212	1431.8	551.4
937.4159	2067.9767	1429.4	549.75
937.5525	2069.5315	1417	534.8
937.6891	2071.0856	1423.7	541.6
937.8257	2072.6389	1423.45	543.4
937.9623	2074.1915	1411.05	530.15
938.0989	2075.7433	1414.85	530.7
938.2354	2077.2945	1412.15	532.3
938.3719	2078.8448	1411.2	530.7
938.5084	2080.3945	1412.95	532.45
938.6448	2081.9434	1411.75	529.55
938.7812	2083.4916	1407.95	524.75
938.9176	2085.039	1416.1	528.25
939.054	2086.5857	1407.8	521.8
939.1903	2088.1317	1408.25	521.9
939.3267	2089.677	1405.7	520.9
939.463	2091.2215	1394.6	508.9
939.5992	2092.7652	1410.55	521.8
939.7355	2094.3083	1397.6	512.4
939.8717	2095.8506	1399.85	516.55
940.0079	2097.3921	1401	518.45
940.1441	2098.933	1399.2	515.8
940.2802	2100.4731	1394.7	511.3
940.4163	2102.0124	1418.3	517.65
940.5524	2103.5511	1396.1	510.8
940.6885	2105.089	1394.65	509.65
940.8245	2106.6261	1390.15	506.2
940.9606	2108.1626	1390.65	506.4
941.0965	2109.6983	1421.5	508.4
941.2325	2111.2332	1385.3	500
941.3684	2112.7675	1386.8	501.3
941.5044	2114.301	1388.2	503.2
941.6403	2115.8337	1384.55	499.45
941.7761	2117.3657	1383.9	500.15
941.912	2118.897	1381.45	496.05
942.0478	2120.4276	1386.25	496.65
942.1835	2121.9575	1380.65	495.55
942.3193	2123.4866	1378.95	492
942.455	2125.0149	1378.75	493.05
942.5907	2126.5426	1369.85	487.45
942.7264	2128.0695	1377.15	492.55
942.8621	2129.5956	1372.8	493.15
942.9977	2131.1211	1373.6	487.25
943.1333	2132.6458	1374.35	491.05
943.2689	2134.1698	1374.8	489.6
943.4044	2135.693	1375.4	487.55
943.54	2137.2155	1362	475.65
943.6755	2138.7373	1363.7	480.3
943.8109	2140.2584	1361.6	480.25
943.9464	2141.7787	1362.7	476.55
944.0818	2143.2983	1355.65	476.6
944.2172	2144.8171	1355.3	475.2
944.3526	2146.3353	1358.65	475.55
944.4879	2147.8527	1353	471
944.6232	2149.3693	1353.2	469.25
944.7585	2150.8853	1360.7	476.05
944.8938	2152.4005	1347.7	462.1
945.029	2153.9149	1362.05	477.7
945.1642	2155.4287	1352.05	466.45
945.2994	2156.9417	1354.2	469.3
945.4346	2158.454	1347.8	461.4
945.5697	2159.9655	1341.55	460.15
945.7048	2161.4764	1341.3	458.45
945.8399	2162.9865	1341.15	458.35
945.9749	2164.4958	1341.75	458.2
946.1099	2166.0045	1347.8	463.05
946.2449	2167.5124	1333.15	451.85
946.3799	2169.0195	1342.35	458.2
946.5148	2170.526	1342.3	457.6
946.6498	2172.0317	1338.6	452.4
946.7846	2173.5367	1342.4	458.5
946.9195	2175.0409	1331.85	448.7
947.0543	2176.5445	1335.1	452.25
947.1891	2178.0473	1333.65	448.2
947.3239	2179.5494	1337.5	449.75
947.4587	2181.0507	1330.95	448.45
947.5934	2182.5513	1329.85	445.2
947.7281	2184.0512	1329.4	441.55
947.8628	2185.5504	1326.8	444.05
947.9974	2187.0488	1325.6	442.8
948.132	2188.5465	1331.9	449.4
948.2666	2190.0435	1329.85	445.75
948.4012	2191.5397	1329.55	446.3
948.5357	2193.0353	1327.45	441.35
948.6702	2194.5301	1320.25	434.45
948.8047	2196.0241	1319.65	432.55
948.9392	2197.5175	1324.95	438.1
949.0736	2199.0101	1320.45	431.9
949.208	2200.502	1319.25	434.55
949.3424	2201.9931	1314	429.5
949.4767	2203.4835	1311.45	427.8
949.611	2204.9733	1325.3	426.5
949.7453	2206.4622	1314.3	432.65
949.8796	2207.9505	1308.85	424.5
950.0138	2209.438	1304.15	424.5
950.148	2210.9248	1305.45	422.4
950.2822	2212.4109	1307.9	426.7
950.4164	2213.8962	1304.95	416.95
950.5505	2215.3809	1307.75	420.5
950.6846	2216.8648	1306.55	419.7
950.8186	2218.3479	1309.45	417.55
950.9527	2219.8304	1303.25	411.05
951.0867	2221.3121	1300.45	413.45
951.2207	2222.7931	1292.7	406.4
951.3546	2224.2733	1301.8	416.65
951.4886	2225.7529	1294.75	411.8
951.6225	2227.2317	1294.9	409.45
951.7563	2228.7098	1294.85	411.4
951.8902	2230.1872	1290	408.4
952.024	2231.6638	1286.3	404.65
952.1578	2233.1397	1282.2	396.95
952.2916	2234.6149	1285.4	405.5
952.4253	2236.0894	1282.3	398.8
952.559	2237.5632	1290.6	397.3
952.6927	2239.0362	1285.2	400.2
952.8263	2240.5085	1285.8	399.9
952.9599	2241.9801	1276.15	391.9
953.0935	2243.4509	1285.05	399.65
953.2271	2244.921	1277.45	391.75
953.3606	2246.3904	1279.5	389.75
953.4941	2247.8591	1283.1	397.85
953.6276	2249.3271	1274.1	390.15
953.7611	2250.7943	1271.5	385.5
953.8945	2252.2608	1273.6	388.8
954.0279	2253.7266	1271.5	385
954.1612	2255.1917	1272.85	388.35
954.2946	2256.656	1264.85	380.7
954.4279	2258.1197	1266	384.9
954.5612	2259.5826	1264.6	376.95
954.6944	2261.0447	1268.8	382
954.8276	2262.5062	1264.5	377.85
954.9608	2263.9669	1267.1	379.95
955.094	2265.4269	1266.95	381.95
955.2271	2266.8862	1258.35	373.85
955.3602	2268.3448	1259.4	374.9
955.4933	2269.8026	1263.55	380.75
955.6264	2271.2598	1262.7	378.8
955.7594	2272.7162	1257.5	372.9
955.8924	2274.1719	1258.65	373.3
956.0253	2275.6268	1251.35	365.4
956.1583	2277.0811	1259.4	374
956.2912	2278.5346	1257.4	375.65
956.4241	2279.9874	1255	373.65
956.5569	2281.4395	1247.1	366
956.6897	2282.8908	1251.85	363.35
956.8225	2284.3414	1251.95	366.3
956.9553	2285.7914	1250	366
957.088	2287.2406	1252.35	365.1
957.2207	2288.689	1259.05	372.75
957.3534	2290.1368	1248.35	359.25
957.486	2291.5838	1252.1	363.95
957.6186	2293.0302	1249.9	360.4
957.7512	2294.4758	1248.4	362.35
957.8838	2295.9206	1256.85	368.6
958.0163	2297.3648	1244.4	360.8
958.1488	2298.8082	1240.45	354.35
958.2813	2300.251	1244.95	359.15
958.4137	2301.693	1246.4	356.35
958.5461	2303.1343	1247.5	359.95
958.6785	2304.5748	1240.6	354.65
958.8108	2306.0147	1236.4	352.9
958.9432	2307.4538	1241.5	356.9
959.0754	2308.8922	1231.15	353
959.2077	2310.3299	1234.8	351.4
959.3399	2311.7669	1230.2	347.4
959.4721	2313.2031	1234.75	351.15
959.6043	2314.6387	1231.1	345.6
959.7365	2316.0735	1229	344.1
959.8686	2317.5076	1234.75	347.7
960.0006	2318.941	1231.1	343.05
960.1327	2320.3737	1226.65	340.95
960.2647	2321.8056	1232	344.85
960.3967	2323.2369	1224.55	340.05
960.5287	2324.6674	1231.15	343.4
960.6606	2326.0972	1229.95	342.85
960.7925	2327.5263	1229.95	344.3
960.9244	2328.9547	1232	346.45
961.0562	2330.3823	1226.4	339.4
961.1881	2331.8092	1232.85	342.8
961.3198	2333.2355	1232.65	345.7
961.4516	2334.661	1228.1	342.5
961.5833	2336.0858	1223.25	335.6
961.715	2337.5098	1223.7	338.2
961.8467	2338.9332	1222.7	336.75
961.9783	2340.3558	1225.8	337.8
962.1099	2341.7778	1216.9	332.2
962.2415	2343.199	1211.6	325.8
962.373	2344.6195	1216.75	331.9
962.5045	2346.0393	1219.3	333.1
962.636	2347.4583	1214.7	331.05
962.7675	2348.8767	1222.65	335.85
962.8989	2350.2943	1218.15	332.15
963.0303	2351.7113	1219.2	330.3
963.1617	2353.1275	1216.5	328.95
963.293	2354.543	1237.9	326.3
963.4243	2355.9578	1215.4	329.9
963.5556	2357.3718	1213.7	330.6
963.6868	2358.7852	1212.05	326.05
963.818	2360.1978	1202.4	315.45
963.9492	2361.6098	1205.4	319.6
964.0803	2363.021	1219.1	329.5
964.2114	2364.4315	1202.4	318.35
964.3425	2365.8413	1209	321.8
964.4736	2367.2504	1212.1	327.75
964.6046	2368.6587	1202.8	316.6
964.7356	2370.0664	1204.35	319.8
964.8666	2371.4733	1200.35	316
964.9975	2372.8795	1205.45	318.4
965.1284	2374.285	1212.4	327.3
965.2593	2375.6899	1201.1	317.45
965.3901	2377.0939	1202.75	315.85
965.5209	2378.4973	1202.55	317.55
965.6517	2379.9	1195.95	308.6
965.7825	2381.3019	1199.7	313.3
965.9132	2382.7032	1195.2	311.3
966.0439	2384.1037	1190.65	306.65
966.1745	2385.5035	1194.2	310.2
966.3051	2386.9027	1193.8	313.75
966.4357	2388.3011	1199.4	313.35
966.5663	2389.6987	1191.3	306.55
966.6968	2391.0957	1184.85	301.95
966.8273	2392.492	1190.1	306.25
966.9578	2393.8876	1180.45	298.85
967.0882	2395.2824	1185.95	300.45
967.2186	2396.6765	1187.6	303.6
967.349	2398.07	1183.3	296.65
967.4793	2399.4627	1195.5	306.4
967.6097	2400.8547	1179.05	292.3
967.7399	2402.246	1183.9	292.55
967.8702	2403.6366	1177.25	290.05
968.0004	2405.0265	1178.9	295.7
968.1306	2406.4156	1182.65	292.7
968.2607	2407.8041	1184.2	297.25
968.3909	2409.1918	1180.7	292.85
968.521	2410.5789	1175.85	291.3
968.651	2411.9652	1179.7	291.55
968.781	2413.3508	1177.15	290.55
968.911	2414.7358	1172.1	287.4
969.041	2416.12	1173.35	288
969.1709	2417.5035	1173.05	288.85
969.3008	2418.8863	1174.55	286.45
969.4307	2420.2684	1175.8	291.5
969.5606	2421.6497	1174.5	287.65
969.6904	2423.0304	1168.65	282.25
969.8201	2424.4104	1166.35	280.15
969.9499	2425.7896	1173.95	283.1
970.0796	2427.1682	1173.85	289.15
970.2093	2428.546	1170.85	283.8
970.3389	2429.9232	1169.3	280.5
970.4685	2431.2996	1167.15	281.2
970.5981	2432.6753	1166.95	282.05
970.7277	2434.0503	1169.55	283.35
970.8572	2435.4246	1166.65	280.8
970.9867	2436.7982	1165.9	279.5
971.1161	2438.1711	1162.85	277.35
971.2456	2439.5433	1156.2	269.05
971.375	2440.9148	1164.05	273.1
971.5043	2442.2856	1164.85	281.2
971.6336	2443.6557	1163	275.3
971.7629	2445.025	1163.05	277.7
971.8922	2446.3937	1160.15	274.4
972.0214	2447.7617	1163.7	277.2
972.1506	2449.1289	1156.8	270.65
972.2798	2450.4955	1154.3	266.05
972.4089	2451.8613	1151.5	267.85
972.538	2453.2265	1154.85	268.8
972.6671	2454.5909	1152.85	265.8
972.7961	2455.9546	1156.1	273.25
972.9251	2457.3177	1149.45	265.8
973.0541	2458.68	1150.6	262.9
973.1831	2460.0416	1153.3	269.95
973.312	2461.4025	1152.95	263.9
973.4408	2462.7627	1161.25	265.7
973.5697	2464.1222	1143.85	260.95
973.6985	2465.4811	1144.4	258.85
973.8273	2466.8392	1142.2	257.45
973.956	2468.1966	1148.1	260.55
974.0847	2469.5533	1153.25	265.65
974.2134	2470.9093	1149.05	263.75
974.3421	2472.2645	1150.6	262.25
974.4707	2473.6191	1150.8	266.35
974.5993	2474.973	1148.25	263.05
974.7278	2476.3262	1146.85	261.05
974.8563	2477.6787	1146.95	262.75
974.9848	2479.0305	1146.7	262
975.1132	2480.3816	1146.3	260.6
975.2417	2481.7319	1143.95	258.2
975.37	2483.0816	1141.85	256.1
975.4984	2484.4306	1142.05	258.75
975.6267	2485.7789	1139.3	255.7
975.755	2487.1264	1141.95	255.65
975.8833	2488.4733	1140.2	258.15
976.0115	2489.8195	1158.95	255.7
976.1397	2491.165	1139.25	251
976.2678	2492.5097	1140.45	254.25
976.3959	2493.8538	1138.55	254.75
976.524	2495.1972	1141.9	258.4
976.6521	2496.5398	1136.55	247.7
976.7801	2497.8818	1136.75	249.85
976.9081	2499.2231	1137.05	250.6
977.036	2500.5637	1133.25	246.15
977.164	2501.9035	1137.9	251.3
977.2918	2503.2427	1138.75	248.7
977.4197	2504.5812	1136.55	249.95
977.5475	2505.919	1138.35	251.55
977.6753	2507.256	1130.5	243.5
977.8031	2508.5924	1134.2	248.95
977.9308	2509.9281	1139	247.5
978.0585	2511.2631	1127.6	242.1
978.1861	2512.5974	1128.5	243.35
978.3137	2513.9309	1130.15	245.85
978.4413	2515.2638	1158.65	241.55
978.5689	2516.596	1127.6	242.7
978.6964	2517.9275	1125	237.2
978.8239	2519.2583	1125.85	239.05
978.9513	2520.5884	1128.1	240.65
979.0788	2521.9178	1124.05	239.6
979.2062	2523.2465	1122.25	239.9
979.3335	2524.5745	1119.25	233.15
979.4608	2525.9018	1123.1	237.7
979.5881	2527.2284	1124.4	241.35
979.7154	2528.5543	1123.3	239.7
979.8426	2529.8796	1123.65	239.25
979.9698	2531.2041	1116.8	232.7
980.0969	2532.5279	1122.2	236.75
980.224	2533.851	1121.85	237.45
980.3511	2535.1735	1120.5	234.8
980.4781	2536.4952	1123.5	237.1
980.6052	2537.8163	1122.65	236.85
980.7321	2539.1366	1117.2	232.2
980.8591	2540.4562	1120.6	234.4
980.986	2541.7752	1122	235.95
981.1129	2543.0935	1121.2	236.15
981.2397	2544.411	1121.4	233.45
981.3665	2545.7279	1114.3	229.85
981.4933	2547.0441	1118.95	232.15
981.62	2548.3596	1119.55	230.7
981.7467	2549.6744	1116.5	232.85
981.8734	2550.9885	1124.1	231.95
982.0001	2552.3019	1115.8	231.2
982.1267	2553.6146	1116.25	230.45
982.2532	2554.9266	1116.3	232.9
982.3798	2556.2379	1118.35	231.1
982.5063	2557.5485	1109.9	227.95
982.6327	2558.8585	1123.4	229.6
982.7592	2560.1677	1124.6	235.4
982.8856	2561.4762	1110.95	226
983.0119	2562.7841	1116.45	229
983.1383	2564.0913	1110.95	226.25
983.2646	2565.3977	1116.35	229.4
983.3908	2566.7035	1113.15	227.45
983.517	2568.0086	1110.8	223.8
983.6432	2569.313	1114.3	228.4
983.7694	2570.6167	1118.25	229.85
983.8955	2571.9197	1109.75	224.95
984.0216	2573.222	1116.65	226.9
984.1476	2574.5236	1107.6	222.05
984.2737	2575.8246	1112.8	227
984.3996	2577.1248	1115.75	227.95
984.5256	2578.4244	1110.05	225.95
984.6515	2579.7232	1109	222.05
984.7774	2581.0214	1134.45	223.75
984.9032	2582.3189	1110.3	226.9
985.029	2583.6157	1114.6	225.55
985.1548	2584.9118	1108.05	223.85
985.2806	2586.2072	1110.95	229.05
985.4063	2587.5019	1113.75	227.7
985.5319	2588.7959	1110.4	226.05
985.6576	2590.0893	1112.55	224.2
985.7832	2591.3819	1109	225.8
985.9087	2592.6739	1105.15	221.25
986.0343	2593.9652	1112.1	226.6
986.1597	2595.2557	1110	225.3
986.2852	2596.5456	1117.95	232.25
986.4106	2597.8348	1115.85	231.7
986.536	2599.1234	1109.65	225.65
986.6614	2600.4112	1113	228.35
986.7867	2601.6983	1114.45	225.75
986.912	2602.9848	1114.15	230.3
987.0372	2604.2705	1112.2	222.25
987.1624	2605.5556	1114.15	228.45
987.2876	2606.84	1114.35	230.4
987.4128	2608.1237	1111.95	227.6
987.5379	2609.4067	1106.3	222.05
987.6629	2610.689	1116.2	223.35
987.788	2611.9707	1111.2	225.85
987.913	2613.2516	1106.25	217.7
988.0379	2614.5319	1107.35	224
988.1629	2615.8115	1098.9	214.3
988.2878	2617.0903	1105.85	220.2
988.4126	2618.3685	1105.1	221.05
988.5375	2619.6461	1101	216.65
988.6622	2620.9229	1105.6	223.35
988.787	2622.199	1102.6	216.15
988.9117	2623.4745	1097.65	214.6
989.0364	2624.7493	1098.3	216.05
989.161	2626.0234	1096.6	215.9
989.2857	2627.2968	1098.35	215.85
989.4102	2628.5695	1101.85	217.55
989.5348	2629.8415	1092.4	209.3
989.6593	2631.1128	1099.15	216.6
989.7837	2632.3835	1099.75	219.2
989.9082	2633.6535	1093.85	211.2
990.0326	2634.9228	1095.2	211.55
990.1569	2636.1914	1096.6	215.15
990.2812	2637.4593	1100.55	217.05
990.4055	2638.7265	1093.5	209.7
990.5298	2639.9931	1094.45	209.3
990.654	2641.259	1090.5	208.15
990.7782	2642.5242	1093.05	208.3
990.9023	2643.7887	1093.85	211.55
991.0264	2645.0525	1087.4	205.5
991.1505	2646.3156	1089.15	206.75
991.2745	2647.5781	1088.7	207.45
991.3985	2648.8398	1088.25	207.15
991.5225	2650.1009	1130	211.5
991.6464	2651.3613	1089.1	206.6
991.7703	2652.6211	1086.75	204.3
991.8942	2653.8801	1086.2	201.4
992.018	2655.1385	1095.45	208.7
992.1418	2656.3961	1091.45	208.6
992.2655	2657.6531	1088.5	204.8
992.3892	2658.9094	1089.7	206.15
992.5129	2660.1651	1089.2	208
992.6366	2661.42	1090.1	207.55
992.7602	2662.6743	1090.85	207
992.8837	2663.9279	1088.6	207.15
993.0073	2665.1808	1093.95	211.15
993.1307	2666.433	1098.15	215.9
993.2542	2667.6846	1088.6	204.9
993.3776	2668.9354	1094.2	208.1
993.501	2670.1856	1092.15	207.7
993.6244	2671.4351	1092.3	211.65
993.7477	2672.6839	1099.1	214.1
993.8709	2673.9321	1093.4	211.65
993.9942	2675.1795	1104.25	220.75
994.1174	2676.4263	1096.25	212.9
994.2405	2677.6724	1095.7	213.4
994.3637	2678.9179	1102	219.7
994.4868	2680.1626	1100.05	218.25
994.6098	2681.4067	1094.4	211.35
994.7328	2682.6501	1093.9	211.95
994.8558	2683.8928	1095.3	211.2
994.9788	2685.1348	1093.75	212.25
995.1017	2686.3761	1087.35	204.85
995.2245	2687.6168	1095.1	213.1
995.3474	2688.8568	1088.1	205.9
995.4702	2690.0961	1084.2	204.05
995.5929	2691.3348	1087.4	203.15
995.7156	2692.5727	1090.3	206.65
995.8383	2693.81	1085.2	203.6
995.961	2695.0466	1084.85	204.25
996.0836	2696.2826	1086.4	202.2
996.2062	2697.5178	1108.55	207.95
996.3287	2698.7524	1085.7	203.55
996.4512	2699.9863	1091.55	208.4
996.5737	2701.2195	1090.65	209.2
996.6961	2702.452	1091.75	206.6
996.8185	2703.6839	1096.75	216.85
996.9408	2704.9151	1092.05	208.5
997.0631	2706.1456	1095.65	211.95
997.1854	2707.3755	1100.9	218.95
997.3077	2708.6046	1103.35	220.35
997.4299	2709.8331	1102.55	219.4
997.552	2711.0609	1111.45	227.8
997.6742	2712.2881	1108.25	225.75
997.7963	2713.5145	1116.25	230.5
997.9183	2714.7403	1117.1	236.65
998.0403	2715.9654	1122.65	237.45
998.1623	2717.1899	1138.75	241.05
998.2842	2718.4136	1135.65	252.6
998.4062	2719.6367	1130	248.55
998.528	2720.8591	1144.55	257.6
998.6498	2722.0809	1144.1	261.4
998.7716	2723.3019	1153.25	268.8
998.8934	2724.5223	1155.55	271.4
999.0151	2725.7421	1156.8	273.25
999.1368	2726.9611	1152.55	266.8
999.2584	2728.1795	1154.25	268.8
999.38	2729.3972	1154.15	271.15
999.5016	2730.6142	1150.7	261.55
999.6231	2731.8306	1147.6	265.15
999.7446	2733.0462	1131.15	247.6
999.8661	2734.2612	1133.25	245.65
999.9875	2735.4756	1122.8	239
1000.1089	2736.6892	1110.8	227.15
1000.2302	2737.9022	1102.95	224.25
1000.3515	2739.1145	1105.35	221.8
1000.4728	2740.3262	1109.55	219.5
1000.594	2741.5372	1098.65	216.65
1000.7152	2742.7475	1094	212.35
1000.8363	2743.9571	1085.45	203.65
1000.9575	2745.1661	1086.35	197.55
1001.0785	2746.3744	1080.7	197.3
1001.1996	2747.582	1076.35	193.7
1001.3206	2748.7889	1077.25	195.6
1001.4415	2749.9952	1072	190.35
1001.5625	2751.2008	1070.85	187.15
1001.6833	2752.4057	1071.5	184.55
1001.8042	2753.61	1068.3	186.55
1001.925	2754.8136	1068.2	185.4
1002.0458	2756.0165	1066.55	185.5
1002.1665	2757.2188	1061.5	180.2
1002.2872	2758.4204	1065.85	183.15
1002.4078	2759.6213	1065.9	181.5
1002.5285	2760.8215	1068.9	183.15
1002.649	2762.0211	1069.15	186.15
1002.7696	2763.22	1068.75	183.05
1002.8901	2764.4182	1065.65	183.6
1003.0106	2765.6158	1059.25	177.35
1003.131	2766.8127	1061.55	180.4
1003.2514	2768.009	1057.25	175.65
1003.3717	2769.2045	1063.55	180.35
1003.492	2770.3994	1062.95	179.45
1003.6123	2771.5936	1059.6	176.3
1003.7325	2772.7872	1056.7	176.05
1003.8527	2773.9801	1051.55	168.85
1003.9729	2775.1723	1072.05	174.1
1004.093	2776.3639	1052.15	173.1
1004.2131	2777.5548	1055.9	173.4
1004.3331	2778.745	1056.05	174.7
1004.4531	2779.9346	1054.65	173.55
1004.5731	2781.1235	1059.05	174.2
1004.693	2782.3117	1050.55	169
1004.8129	2783.4992	1057.5	177.5
1004.9328	2784.6861	1054.6	173.6
1005.0526	2785.8723	1057.1	175.5
1005.1723	2787.0579	1057.05	175.45
1005.2921	2788.2428	1058.4	176.15
1005.4118	2789.427	1062.95	182.35
1005.5314	2790.6106	1065.5	184.55
1005.651	2791.7935	1065.6	183.1
1005.7706	2792.9757	1073.5	193.35
1005.8902	2794.1573	1072.05	187.55
1006.0097	2795.3382	1076.4	195.65
1006.1291	2796.5184	1075.4	196.85
1006.2485	2797.698	1084.6	203.3
1006.3679	2798.8769	1082.35	200.8
1006.4873	2800.0551	1087.75	207.05
1006.6066	2801.2327	1097	214.05
1006.7258	2802.4096	1100.55	220.95
1006.8451	2803.5859	1106.15	223.85
1006.9642	2804.7615	1116.05	231.75
1007.0834	2805.9364	1118.4	239.9
1007.2025	2807.1106	1127.95	245.15
1007.3216	2808.2842	1134.7	252.85
1007.4406	2809.4572	1142.25	262.85
1007.5596	2810.6294	1158.7	273.9
1007.6785	2811.801	1175	295.6
1007.7975	2812.972	1184.75	305.2
1007.9163	2814.1423	1200.6	319.4
1008.0352	2815.3119	1221.4	341.8
1008.154	2816.4808	1243.85	365.35
1008.2727	2817.6491	1257.55	377.45
1008.3914	2818.8167	1275.9	395.5
1008.5101	2819.9837	1302.85	417.2
1008.6288	2821.15	1326.4	445.55
1008.7474	2822.3157	1351.35	470.85
1008.8659	2823.4807	1385.8	504.8
1008.9844	2824.645	1402.55	520.75
1009.1029	2825.8086	1430.1	550.45
1009.2214	2826.9716	1445.95	566.6
1009.3398	2828.134	1477.1	597.85
1009.4581	2829.2957	1503.5	622.15
1009.5764	2830.4567	1511.45	631.85
1009.6947	2831.617	1525.7	644.8
1009.813	2832.7767	1527.2	648.55
1009.9312	2833.9358	1525.9	644.8
1010.0493	2835.0941	1524.35	641.85
1010.1675	2836.2519	1523.2	643
1010.2855	2837.4089	1504.55	622.6
1010.4036	2838.5653	1497.1	616.75
1010.5216	2839.7211	1490.45	612.4
1010.6396	2840.8761	1493.45	608.85
1010.7575	2842.0306	1495.25	616.55
1010.8754	2843.1843	1499.6	619.9
1010.9932	2844.3374	1513.1	632.6
1011.111	2845.4899	1533.15	650.95
1011.2288	2846.6417	1546.85	666.85
1011.3465	2847.7928	1568.3	688.9
1011.4642	2848.9433	1588.4	707.3
1011.5818	2850.0931	1613.5	732.7
1011.6995	2851.2422	1638.05	756.35
1011.817	2852.3907	1668.55	787.1
1011.9345	2853.5385	1670.8	787.55
1012.052	2854.6857	1732.1	825.1
1012.1695	2855.8323	1721.85	840.4
1012.2869	2856.9781	1745.2	865.65
1012.4042	2858.1233	1762	881.3
1012.5216	2859.2679	1785.5	906.05
1012.6389	2860.4118	1811.5	931.1
1012.7561	2861.555	1832.15	946.8
1012.8733	2862.6976	1841.15	957.6
1012.9905	2863.8395	1865.95	985.45
1013.1076	2864.9808	1879.45	1000.6
1013.2247	2866.1214	1888	1009.9
1013.3417	2867.2614	1894.65	1015.05
1013.4587	2868.4007	1900.5	1020.65
1013.5757	2869.5393	1916	1032.35
1013.6926	2870.6773	1915.55	1033.45
1013.8095	2871.8146	1920.85	1037.85
1013.9263	2872.9513	1920	1035.95
1014.0431	2874.0874	1912.7	1032.65
1014.1599	2875.2227	1907.9	1027.05
1014.2766	2876.3574	1895.3	1014
1014.3933	2877.4915	1885.2	1005.95
1014.51	2878.6249	1885.1	1005.05
1014.6266	2879.7577	1876.65	994.8
1014.7431	2880.8898	1866.7	975.65
1014.8596	2882.0212	1852.7	974.4
1014.9761	2883.152	1850.35	968
1015.0925	2884.2821	1849.05	971.35
1015.2089	2885.4116	1847.7	967
1015.3253	2886.5405	1854.85	974.7
1015.4416	2887.6686	1847.45	964.2
1015.5579	2888.7962	1850.75	972.5
1015.6741	2889.923	1855.9	979
1015.7903	2891.0493	1860.35	982.85
1015.9065	2892.1748	1865.7	986.5
1016.0226	2893.2997	1871.2	991.3
1016.1387	2894.424	1875.95	997.95
1016.2547	2895.5476	1881.9	999.5
1016.3707	2896.6706	1890.75	1011.85
1016.4866	2897.7929	1897.55	1016.8
1016.6025	2898.9145	1915.75	1033.65
1016.7184	2900.0355	1928.15	1048.4
1016.8342	2901.1559	1934.3	1054.3
1016.95	2902.2756	1941.5	1063.45
1017.0658	2903.3946	1958.2	1079
1017.1815	2904.513	1966.8	1084.35
1017.2971	2905.6308	1968.6	1089.7
1017.4127	2906.7479	1981.7	1101.1
1017.5283	2907.8643	1994.7	1113.95
1017.6439	2908.9801	2001.2	1121.8
1017.7594	2910.0953	1999.1	1119.4
1017.8748	2911.2098	2010.55	1128.75
1017.9902	2912.3236	2003.5	1116.3
1018.1056	2913.4368	1981.85	1099.9
1018.2209	2914.5494	1982.55	1104.15
1018.3362	2915.6613	1976.35	1091.05
1018.4515	2916.7725	1957.9	1075.65
1018.5667	2917.8831	1944.35	1063.05
1018.6819	2918.9931	1929	1047
1018.797	2920.1024	1935.15	1053.7
1018.9121	2921.211	1907.4	1026.7
1019.0271	2922.319	1909.1	1028.15
1019.1421	2923.4264	1897.3	1017.85
1019.2571	2924.5331	1902.05	1023.9
1019.372	2925.6391	1899.1	1019.2
1019.4869	2926.7445	1892.8	1016.6
1019.6017	2927.8493	1891.6	1011.85
1019.7165	2928.9534	1899.85	1020.2
1019.8313	2930.0569	1911.1	1028.75
1019.946	2931.1597	1908.4	1028.45
1020.0606	2932.2619	1913.65	1034.35
1020.1753	2933.3634	1917.95	1040.55
1020.2899	2934.4643	1923.55	1038.2
1020.4044	2935.5645	1916.95	1029.1
1020.5189	2936.6641	1910.95	1029.2
1020.6334	2937.763	1894.1	1014.65
1020.7478	2938.8613	1876.1	996.9
1020.8622	2939.959	1867.75	983.65
1020.9765	2941.056	1838.7	962.95
1021.0908	2942.1523	1820.6	938.85
1021.2051	2943.248	1781.05	902.05
1021.3193	2944.3431	1746.9	865.95
1021.4334	2945.4375	1702	823
1021.5476	2946.5313	1664.7	785.15
1021.6617	2947.6244	1628.7	748.3
1021.7757	2948.7169	1582.05	699.4
1021.8897	2949.8087	1548.9	670.25
1022.0037	2950.8999	1517.15	637.05
1022.1176	2951.9904	1486.1	608.7
1022.2315	2953.0803	1455.9	574.85
1022.3453	2954.1696	1432.8	553.65
1022.4591	2955.2582	1412.75	533.85
1022.5728	2956.3462	1394.75	515.3
1022.6865	2957.4335	1377.15	496.9
1022.8002	2958.5202	1360.7	479
1022.9138	2959.6062	1352.85	474.05
1023.0274	2960.6916	1339.25	460.25
1023.141	2961.7764	1329.2	449.55
1023.2545	2962.8605	1327.35	448.85
1023.3679	2963.9439	1321.2	442.7
1023.4813	2965.0267	1317.35	439.35
1023.5947	2966.1089	1337.8	436.35
1023.708	2967.1905	1319.7	439.55
1023.8213	2968.2714	1317.05	438.7
1023.9346	2969.3516	1321.55	441.45
1024.0478	2970.4312	1322.7	435.15
1024.1609	2971.5102	1320.2	441.1
1024.274	2972.5885	1323.35	443.9
1024.3871	2973.6662	1321.2	438.5
1024.5002	2974.7432	1320.75	441.6
1024.6132	2975.8196	1323.75	446
1024.7261	2976.8954	1315.95	436.85
1024.839	2977.9705	1313.8	435.3
1024.9519	2979.045	1307.45	428.25
1025.0647	2980.1188	1303.05	423.35
1025.1775	2981.192	1306.65	429.4
1025.2902	2982.2645	1297.8	418.1
1025.4029	2983.3364	1284.7	405.65
1025.5156	2984.4077	1277.05	398.05
1025.6282	2985.4783	1270.3	386.35
1025.7407	2986.5483	1244.4	366.8
1025.8532	2987.6177	1237.9	359.3
1025.9657	2988.6864	1228.55	349.55
1026.0782	2989.7545	1214.75	334.8
1026.1906	2990.8219	1199.05	320.5
1026.3029	2991.8887	1185.6	305.3
1026.4152	2992.9548	1173.95	292.9
1026.5275	2994.0204	1157.35	279.35
1026.6397	2995.0852	1144.55	268
1026.7519	2996.1495	1137.15	255.1
1026.864	2997.2131	1122.7	244.1
1026.9761	2998.276	1109.25	230.55
1027.0882	2999.3383	1107.45	227.5
1027.2002	3000.4	1096.4	218.1
1027.3122	3001.4611	1084.65	204.85
1027.4241	3002.5215	1085.25	204.85
1027.536	3003.5812	1072.7	194.7
1027.6478	3004.6404	1068.55	190.1
1027.7596	3005.6989	1064.25	183
1027.8714	3006.7567	1063.5	185.2
1027.9831	3007.8139	1082.7	172.55
1028.0947	3008.8705	1050.4	172.3
1028.2064	3009.9264	1048.5	166.7
1028.3179	3010.9818	1042	164.45
1028.4295	3012.0364	1038.1	158.7
1028.541	3013.0905	1034.5	157.5
1028.6524	3014.1439	1037.2	158.9
1028.7638	3015.1966	1033.5	154.1
1028.8752	3016.2487	1029.15	150.75
1028.9865	3017.3002	1033.45	150.25
1029.0978	3018.3511	1030	152.95
1029.209	3019.4013	1025.7	147
1029.3202	3020.4509	1021.9	143.75
1029.4314	3021.4998	1021.5	142.95
1029.5425	3022.5481	1022.95	143.55
1029.6535	3023.5958	1023	143.9
1029.7645	3024.6428	1019.75	140.4
1029.8755	3025.6892	1018.35	139.8
1029.9864	3026.735	1020	141.4
1030.0973	3027.7802	1020.8	141.25
1030.2082	3028.8247	1019.15	142.65
1030.319	3029.8685	1020.85	143.3
1030.4297	3030.9118	1022.1	144.4
1030.5404	3031.9544	1019.55	141.05
1030.6511	3032.9963	1026.1	147.35
1030.7617	3034.0376	1021.5	143.1
1030.8723	3035.0783	1022.85	140.75
1030.9829	3036.1184	1025.75	144.6
1031.0934	3037.1578	1021.75	144.95
1031.2038	3038.1966	1023.15	145.15
1031.3142	3039.2348	1020.45	142.2
1031.4246	3040.2723	1034.8	147.45
1031.5349	3041.3092	1026.7	149.35
1031.6452	3042.3455	1021.05	143.55
1031.7554	3043.3811	1023.35	144.55
1031.8656	3044.4161	1022.75	144.75
1031.9758	3045.4505	1024.55	149.1
1032.0859	3046.4842	1021.65	143
1032.1959	3047.5173	1020.25	142.8
1032.3059	3048.5498	1023.8	144.55
1032.4159	3049.5816	1022.1	143.9
1032.5258	3050.6128	1024.25	144.1
1032.6357	3051.6434	1021.9	142.5
1032.7455	3052.6734	1021.3	143.25
1032.8553	3053.7027	1022.05	142.6
1032.9651	3054.7314	1019.65	143.2
1033.0748	3055.7594	1017.8	139.35
1033.1845	3056.7868	1018.2	139.8
1033.2941	3057.8136	1014.4	135.25
1033.4037	3058.8398	1016.25	139.2
1033.5132	3059.8653	1013.45	136.45
1033.6227	3060.8902	1013.2	134.25
1033.7321	3061.9145	1013.1	135.55
1033.8415	3062.9381	1010.15	132.45
1033.9509	3063.9612	1027.95	135.6
1034.0602	3064.9835	1009.35	129.05
1034.1694	3066.0053	1013.4	131.6
1034.2787	3067.0264	1007.75	129.2
1034.3878	3068.0469	1009.2	130.35
1034.497	3069.0668	1012.5	131.8
1034.6061	3070.086	1001.9	125.15
1034.7151	3071.1046	997.5	120.1
1034.8241	3072.1226	1000.85	120.05
1034.9331	3073.1399	996.45	121.45
1035.042	3074.1567	996.85	119.85
1035.1508	3075.1727	991.15	111
1035.2597	3076.1882	989.8	111.2
1035.3684	3077.203	991.05	111.95
1035.4772	3078.2173	988.3	109.05
1035.5859	3079.2308	982.65	99.65
1035.6945	3080.2438	985.05	103.65
1035.8031	3081.2561	978.75	99.85
1035.9117	3082.2678	973.5	95.15
1036.0202	3083.2789	973.6	95.55
1036.1286	3084.2893	974.95	96.6
1036.2371	3085.2991	972.5	93.8
1036.3454	3086.3083	970.25	89.8
1036.4538	3087.3169	967.85	89.65
1036.562	3088.3248	964.15	83
1036.6703	3089.3321	964.15	85
1036.7785	3090.3388	959.5	81.15
1036.8866	3091.3449	960.6	81.9
1036.9948	3092.3503	960.95	78.25
1037.1028	3093.3551	954.75	77.95
1037.2108	3094.3593	953.75	77.15
1037.3188	3095.3629	953.55	76.7
1037.4267	3096.3658	951.6	71.95
1037.5346	3097.3681	952.55	73.85
1037.6425	3098.3698	952.9	74.9
1037.7503	3099.3708	957.3	72.55
1037.858	3100.3713	948.25	70.45
1037.9657	3101.3711	945.4	66.2
1038.0734	3102.3702	1063.15	68.4
1038.181	3103.3688	947.1	66.3
1038.2886	3104.3667	944.15	65.4
1038.3961	3105.364	941.1	63.25
1038.5036	3106.3607	945.9	66.4
1038.611	3107.3568	943.05	66.1
1038.7184	3108.3522	938.65	62.05
1038.8257	3109.347	943.4	66.6
1038.933	3110.3412	943.45	63.3
1039.0403	3111.3348	939.45	61.8
1039.1475	3112.3277	935.9	59
1039.2547	3113.32	935.85	57.35
1039.3618	3114.3117	937.55	60.75
1039.4689	3115.3028	937.1	59.15
1039.5759	3116.2932	937.75	58.1
1039.6829	3117.2831	939.05	57.25
1039.7898	3118.2723	932.05	56.75
1039.8967	3119.2608	930.35	51.95
1040.0035	3120.2488	933.9	57.25
1040.1103	3121.2361	933	54.5
1040.2171	3122.2229	930.25	54.4
1040.3238	3123.209	931.65	52.2
1040.4305	3124.1944	930.15	51.45
1040.5371	3125.1793	930.95	51.9
1040.6437	3126.1635	930.85	52.95
1040.7502	3127.1471	925.55	47.25
1040.8567	3128.1301	926.9	48.75
1040.9631	3129.1125	927.05	49.9
1041.0695	3130.0942	927	51.1
1041.1759	3131.0753	934.15	47.85
1041.2822	3132.0558	928.75	47.75
1041.3884	3133.0357	925.25	47.65
1041.4946	3134.015	924.2	44.9
1041.6008	3134.9936	925.1	45.35
1041.7069	3135.9716	945.95	45.2
1041.813	3136.949	925.25	47.3
1041.919	3137.9258	939.55	45.45
1042.025	3138.902	929.2	48.3
1042.1309	3139.8775	921.3	45.2
1042.2368	3140.8524	920.1	41.6
1042.3427	3141.8267	923.4	42.85
1042.4485	3142.8004	923.6	47
1042.5542	3143.7735	927.1	43.5
1042.6599	3144.7459	922.35	42.95
1042.7656	3145.7178	918.85	40.35
1042.8712	3146.689	915.45	38.65
1042.9768	3147.6596	920.25	40.25
1043.0823	3148.6295	922.25	44.5
1043.1878	3149.5989	920.35	39.65
1043.2932	3150.5676	918.45	41.35
1043.3986	3151.5357	918.55	42.25
1043.5039	3152.5032	915.55	38.2
1043.6092	3153.4701	917.4	40.65
1043.7145	3154.4364	918.1	36.9
1043.8197	3155.402	916.4	39.95
1043.9248	3156.367	917.65	37.9
1044.03	3157.3315	954.35	39.85
1044.135	3158.2952	916	37.85
1044.24	3159.2584	915	36.75
1044.345	3160.221	917.1	40.6
1044.4499	3161.1829	913.75	36.7
1044.5548	3162.1442	911.1	34.5
1044.6596	3163.105	916.85	37.95
1044.7644	3164.065	914.25	36.75
1044.8692	3165.0245	917.6	37.8
1044.9739	3165.9834	912.85	37.25
1045.0785	3166.9416	913.15	34.1
1045.1831	3167.8993	916.5	38.5
1045.2877	3168.8563	913.8	34.5
1045.3922	3169.8127	911.35	32.05
1045.4966	3170.7684	911.9	33.5
1045.6011	3171.7236	914.05	36.95
1045.7054	3172.6782	911.15	34.05
1045.8098	3173.6321	915.45	36.9
1045.914	3174.5854	915.95	34.55
1046.0183	3175.5381	910.05	31.45
1046.1224	3176.4902	912.4	33.85
1046.2266	3177.4417	909.6	32.3
1046.3307	3178.3926	909.25	31.85
1046.4347	3179.3428	910.85	32.4
1046.5387	3180.2924	910.95	34.3
1046.6427	3181.2415	912.25	35.35
1046.7466	3182.1899	909.3	31.85
1046.8504	3183.1377	909.5	32.85
1046.9542	3184.0848	915.2	35.25
1047.058	3185.0314	910.7	31.65
1047.1617	3185.9773	909.9	29.95
1047.2654	3186.9227	909.7	33
1047.369	3187.8674	909.45	31.45
1047.4726	3188.8115	911.75	29.5
1047.5761	3189.755	907.1	29.2
1047.6796	3190.6979	908.45	31.3
1047.783	3191.6402	907.4	34.05
1047.8864	3192.5818	907.9	30.35
1047.9898	3193.5229	921.2	31.3
1048.0931	3194.4633	906.9	28.4
1048.1963	3195.4031	908.25	29.9
1048.2995	3196.3423	907.6	29.45
1048.4027	3197.2809	909.2	31.95
1048.5058	3198.2189	909.45	32.1
1048.6089	3199.1563	922.85	29.85
1048.7119	3200.0931	905.9	31.15
1048.8148	3201.0292	904.95	26.6
1048.9178	3201.9648	903.95	27.1
1049.0206	3202.8997	909.2	27.25
1049.1235	3203.834	905.35	26.1
1049.2262	3204.7677	903.95	27
1049.329	3205.7008	907.95	28.75
1049.4317	3206.6333	905.2	28.3
1049.5343	3207.5652	905.85	27.4
1049.6369	3208.4964	906	27
1049.7394	3209.4271	905.4	30.4
1049.8419	3210.3571	905.15	26.45
1049.9444	3211.2865	908.45	30.75
1050.0468	3212.2154	905.2	26.55
1050.1491	3213.1436	904.95	25.25
1050.2514	3214.0712	911.4	26.65
1050.3537	3214.9982	905.75	27.8
1050.4559	3215.9246	904.5	26.95
1050.5581	3216.8503	903.4	26.1
1050.6602	3217.7755	903	24.55
1050.7623	3218.7001	902.15	25.75
1050.8643	3219.624	902.2	23.05
1050.9663	3220.5473	903.45	27.9
1051.0682	3221.4701	904.45	25.85
1051.1701	3222.3922	904.55	23.7
1051.2719	3223.3137	902	24.3
1051.3737	3224.2346	903.1	25.3
1051.4754	3225.1549	903.1	26.3
1051.5771	3226.0746	902.75	25.8
1051.6788	3226.9937	902.25	23.55
1051.7804	3227.9121	900.2	23.05
1051.8819	3228.83	900.3	23.5
1051.9834	3229.7473	900.7	23.3
1052.0849	3230.6639	900.8	24.1
1052.1863	3231.5799	901.6	25.6
1052.2876	3232.4954	902.35	23.35
1052.3889	3233.4102	902.3	23.5
1052.4902	3234.3244	900.75	22.05
1052.5914	3235.238	897.45	20.8
1052.6926	3236.151	922.05	20.85
1052.7937	3237.0634	900	25.45
1052.8948	3237.9752	900.7	23.85
1052.9958	3238.8864	898.85	21.05
1053.0968	3239.797	898.7	22.7
1053.1977	3240.7069	901.4	22.7
1053.2986	3241.6163	900.25	23.35
1053.3994	3242.5251	901.25	24.9
1053.5002	3243.4332	897.7	20.65
1053.6009	3244.3408	900.45	22.4
1053.7016	3245.2477	899.45	23.55
1053.8022	3246.154	899.05	20.2
1053.9028	3247.0598	900.1	20.8
1054.0034	3247.9649	895.25	18.45
1054.1039	3248.8694	899.3	22.25
1054.2043	3249.7733	897.25	18.1
1054.3047	3250.6766	895.9	18.85
1054.4051	3251.5793	897.8	19.6
1054.5054	3252.4814	897.05	20.5
1054.6056	3253.3829	898.2	21.8
1054.7058	3254.2838	898.4	18.65
1054.806	3255.1841	897.75	21.6
1054.9061	3256.0838	897.35	20.45
1055.0061	3256.9829	897.5	21.1
1055.1062	3257.8814	899.1	20.75
1055.2061	3258.7792	898.3	20.6
1055.306	3259.6765	897	18.1
1055.4059	3260.5731	894.75	16.75
1055.5057	3261.4692	894.9	15.05
1055.6055	3262.3647	896.35	19.85
1055.7052	3263.2595	893.15	15.85
1055.8049	3264.1538	893.75	17.35
1055.9045	3265.0474	895.85	19.1
1056.0041	3265.9404	894	15.55
1056.1036	3266.8329	892.95	15.6
1056.2031	3267.7247	902.7	15.25
1056.3025	3268.616	893.8	18.8
1056.4019	3269.5066	894.2	19.05
1056.5013	3270.3966	894.9	15.35
1056.6005	3271.286	892	15.5
