Software Version:	3.9.2.0
Unit SN:	10000200
Spectrometer SN:	6960
Date:	3/8/2024 11:22:14 AM
Data Line Index:	25
Spectral Points:	2048
Integration time (ms):	125
Averages:	20
Delay (ms):	30000
Sequence Number:	1
Processing:	dark subtract
Laser Power (mW):	305
Laser Current (mA):	822
Laser Diode Temp (C):	25
Laser Case Temp (C):	24.9
System Temp (C):	24.8
Spectrometer Temp (C):	22.8
CCD Temp (C):	0.005
Secondary Temp (C):	20.007
Heatsink Temp (C):	19.704
CCDPCB Temp (C):	33.194
SecondaryPCB Temp (C):	26.614

Wavelength	RamanShift	Raw Counts	Dark Subtracted
787.061	30.1047	417.55	8.15
787.2016	32.3739	413.6	5.35
787.3422	34.6426	416.65	7.1
787.4828	36.9109	418.7	9.1
787.6235	39.1787	422.85	8.4
787.7642	41.4461	430.7	12.2
787.9049	43.7131	431.65	6.55
788.0456	45.9796	435.3	10.55
788.1863	48.2456	441.1	12.4
788.3271	50.5112	445.65	13.5
788.4679	52.7764	449.2	14.95
788.6087	55.0411	453.95	16.4
788.7496	57.3054	459.05	14.35
788.8904	59.5692	461.05	14.5
789.0313	61.8326	467.4	16.05
789.1722	64.0955	471.4	19.05
789.3132	66.3579	479.9	23.1
789.4541	68.6199	485.15	22.45
789.5951	70.8815	499	32.5
789.7361	73.1426	516.45	46
789.8771	75.4032	556.35	83.05
790.0181	77.6634	650.55	173.55
790.1592	79.9231	852.85	371.2
790.3003	82.1824	1269.1	780.6
790.4414	84.4412	1965.75	1465.25
790.5825	86.6995	2851.3	2336.2
790.7237	88.9574	3723.7	3193.2
790.8648	91.2148	4280.95	3741.65
791.006	93.4717	4554.5	4009.45
791.1472	95.7282	4593.7	4044.55
791.2885	97.9842	4584.85	4033.9
791.4297	100.2398	4519.65	3964.55
791.571	102.4949	4468.05	3911.4
791.7123	104.7495	4431.5	3873.05
791.8536	107.0036	4370.35	3809.1
791.9949	109.2573	4288.25	3727.5
792.1363	111.5105	4193.35	3629.5
792.2777	113.7632	4084.4	3518.95
792.4191	116.0154	3984.3	3406.55
792.5605	118.2672	3852.25	3281.3
792.7019	120.5185	3726.05	3153.5
792.8434	122.7693	3616.65	3040.4
792.9849	125.0197	3514.45	2934.45
793.1264	127.2696	3407.55	2824.35
793.2679	129.519	3371.45	2783.1
793.4094	131.7679	3331.6	2746.2
793.551	134.0163	3306.75	2715.6
793.6926	136.2642	3302.35	2706.6
793.8342	138.5117	3284.25	2689.2
793.9758	140.7587	3256.2	2655.8
794.1175	143.0052	3212.6	2609.65
794.2591	145.2512	3164.65	2563.05
794.4008	147.4967	3091.15	2488.3
794.5425	149.7417	3030.45	2425.7
794.6842	151.9863	2999.65	2391.4
794.826	154.2304	2983.25	2369.4
794.9677	156.4739	2955.55	2338.6
795.1095	158.717	2981.5	2361.75
795.2513	160.9596	3016.5	2392.3
795.3931	163.2017	3048.65	2419.9
795.535	165.4433	3076	2450
795.6768	167.6844	3079.35	2446.2
795.8187	169.925	3045.15	2411.85
795.9606	172.1651	2980.1	2343.65
796.1025	174.4047	2924.65	2282.45
796.2445	176.6439	2874.45	2232.8
796.3864	178.8825	2832.35	2190.05
796.5284	181.1206	2819.1	2169.65
796.6704	183.3582	2802.2	2147.45
796.8124	185.5954	2790.65	2135.55
796.9544	187.832	2796.55	2137.45
797.0965	190.0681	2809.7	2149.9
797.2386	192.3037	2803.95	2138.4
797.3806	194.5388	2805.9	2138.85
797.5228	196.7734	2821.85	2151.75
797.6649	199.0075	2842.35	2170.95
797.807	201.2411	2879.85	2209.4
797.9492	203.4742	2905.15	2231.55
798.0914	205.7068	2926.9	2251.2
798.2336	207.9389	2959.05	2279.45
798.3758	210.1704	2972.5	2298.65
798.518	212.4015	2956.25	2290.6
798.6603	214.632	2965.9	2307.15
798.8025	216.862	2968.85	2312.1
798.9448	219.0915	2978.65	2320.35
799.0871	221.3205	2997.25	2337.3
799.2294	223.549	3015.95	2360.45
799.3718	225.777	3016.05	2357.8
799.5141	228.0044	3017.6	2352.25
799.6565	230.2314	3001.9	2337.75
799.7989	232.4578	2984.25	2315
799.9413	234.6837	2981.45	2303.9
800.0837	236.909	2970.35	2290.95
800.2262	239.1339	2964.45	2262.2
800.3687	241.3582	2942.9	2251.9
800.5111	243.582	2973.05	2253.85
800.6536	245.8053	2967.6	2260.1
800.7961	248.0281	2969.55	2266.2
800.9387	250.2503	2974.35	2267.9
801.0812	252.472	2989.9	2283.9
801.2238	254.6932	2991.2	2285.3
801.3664	256.9139	3004.4	2297.45
801.509	259.134	3015.15	2304.1
801.6516	261.3536	3053.55	2341.25
801.7942	263.5727	3090.65	2378.4
801.9369	265.7912	3136.95	2424.6
802.0795	268.0092	3209.4	2497
802.2222	270.2267	3286.1	2571.2
802.3649	272.4436	3355.65	2643.25
802.5076	274.6601	3394.7	2667.25
802.6504	276.8759	3420.7	2699.1
802.7931	279.0913	3444.55	2725.65
802.9359	281.3061	3444.2	2722.5
803.0787	283.5204	3502.6	2775.3
803.2215	285.7341	3521.8	2794.35
803.3643	287.9473	3559.6	2830.05
803.5071	290.16	3552.35	2819.05
803.6499	292.3721	3501.6	2775.85
803.7928	294.5837	3440.25	2713.45
803.9357	296.7947	3406	2678.75
804.0786	299.0052	3390.95	2664.1
804.2215	301.2152	3362.15	2629
804.3644	303.4246	3352.35	2622.85
804.5074	305.6334	3332.95	2603.95
804.6503	307.8418	3334.1	2601.55
804.7933	310.0495	3298.85	2566.05
804.9363	312.2568	3261.15	2527.35
805.0793	314.4635	3209.8	2475.7
805.2223	316.6696	3137.1	2394.05
805.3653	318.8752	3080.8	2330.4
805.5084	321.0802	3039.75	2298.9
805.6514	323.2847	3032.4	2290.05
805.7945	325.4887	3049.25	2303.35
805.9376	327.692	3061.45	2314.8
806.0807	329.8949	3119.85	2373.5
806.2238	332.0972	3161.1	2413.05
806.367	334.2989	3204.5	2451.35
806.5101	336.5001	3213.75	2462.95
806.6533	338.7007	3186.2	2432
806.7965	340.9008	3123.6	2369
806.9397	343.1003	3037.95	2279.95
807.0829	345.2992	2984.1	2228.3
807.2261	347.4976	2935.65	2178.3
807.3693	349.6955	2902.65	2141.05
807.5126	351.8927	2890.15	2128.15
807.6559	354.0895	2856.75	2081.2
807.7991	356.2856	2850.15	2085.55
807.9424	358.4812	2821.2	2057.25
808.0857	360.6763	2832.5	2065.65
808.2291	362.8707	2815.15	2045.75
808.3724	365.0646	2819.5	2048.9
808.5158	367.258	2820.35	2044.3
808.6591	369.4508	2845.1	2068.2
808.8025	371.643	2889.95	2113.2
808.9459	373.8346	2914.75	2135.7
809.0893	376.0257	2959.9	2179.1
809.2327	378.2162	2993.8	2212.85
809.3762	380.4062	3011.8	2227.7
809.5196	382.5956	2979.4	2198.6
809.6631	384.7844	2927.6	2150.65
809.8066	386.9726	2877.15	2104.4
809.9501	389.1603	2827.95	2057.35
810.0936	391.3474	2840.1	2037.05
810.2371	393.5339	2820.9	2045
810.3806	395.7199	2818.05	2043.45
810.5241	397.9052	2841.8	2072.45
810.6677	400.09	2900.1	2124.9
810.8113	402.2743	2961.15	2183.9
810.9548	404.4579	2997.45	2219.1
811.0984	406.641	3056.65	2276.6
811.2421	408.8235	3107.2	2327.75
811.3857	411.0054	3161.25	2380.25
811.5293	413.1868	3225.75	2440.6
811.673	415.3675	3282.3	2494.7
811.8166	417.5477	3276.6	2484.65
811.9603	419.7273	3214.6	2421.45
812.104	421.9064	3138	2339.8
812.2477	424.0848	3060.6	2267.95
812.3914	426.2627	2987.7	2192.7
812.5351	428.4399	2908.2	2112.55
812.6788	430.6166	2834.35	2034.85
812.8226	432.7928	2771.85	1968.55
812.9663	434.9683	2727.8	1927.75
813.1101	437.1432	2704.35	1903.8
813.2539	439.3176	2673.45	1876.3
813.3977	441.4914	2655.5	1859.45
813.5415	443.6645	2658.45	1855.25
813.6853	445.8371	2638.05	1838.5
813.8291	448.0091	2647.65	1847.4
813.973	450.1806	2648.15	1845.75
814.1168	452.3514	2626.45	1821.15
814.2607	454.5216	2652.25	1841.15
814.4046	456.6913	2633.8	1828.35
814.5485	458.8603	2639.2	1834.8
814.6924	461.0288	2657.35	1856.25
814.8363	463.1967	2652.1	1848.75
814.9802	465.3639	2648.95	1844.8
815.1241	467.5306	2639	1832.5
815.2681	469.6967	2624.95	1820
815.412	471.8622	2617.05	1813.8
815.556	474.0271	2608.6	1803.75
815.7	476.1914	2606.1	1796.2
815.844	478.3551	2610.4	1803.1
815.988	480.5182	2606.4	1797.5
816.132	482.6807	2600.7	1793.55
816.276	484.8426	2628.7	1824.45
816.4201	487.0039	2674.15	1868.6
816.5641	489.1647	2745.7	1936.95
816.7082	491.3248	2801.2	1989.15
816.8522	493.4843	2811.95	2001.85
816.9963	495.6432	2809.25	1999.35
817.1404	497.8015	2779	1963.9
817.2845	499.9592	2712.2	1897.25
817.4286	502.1163	2637.95	1820.9
817.5727	504.2728	2598.55	1782.75
817.7168	506.4287	2565.45	1751.45
817.861	508.5839	2549.35	1736.75
818.0051	510.7386	2533.1	1716.75
818.1493	512.8927	2556.5	1730.25
818.2935	515.0461	2556.75	1738.7
818.4377	517.199	2568.3	1747.95
818.5818	519.3512	2625.4	1804.35
818.726	521.5029	2719.6	1895.75
818.8703	523.6539	2787.6	1965.3
819.0145	525.8043	2807.4	1985.1
819.1587	527.9541	2737.45	1913.65
819.303	530.1033	2645.85	1818.75
819.4472	532.2519	2584.55	1760.95
819.5915	534.3999	2549.85	1724.9
819.7357	536.5472	2533	1708.75
819.88	538.694	2543.25	1717.4
820.0243	540.8401	2546.8	1719.4
820.1686	542.9856	2585.2	1755.1
820.3129	545.1305	2602.7	1772.05
820.4572	547.2748	2609.1	1778.8
820.6016	549.4185	2620.45	1789.5
820.7459	551.5615	2626.25	1792.35
820.8902	553.704	2652.4	1820.6
821.0346	555.8458	2669.15	1838.6
821.1789	557.987	2701.4	1869.45
821.3233	560.1276	2746.6	1915.05
821.4677	562.2675	2797.7	1971.95
821.6121	564.4069	2887.7	2059.85
821.7565	566.5456	2944.95	2117.5
821.9009	568.6837	2915	2086.1
822.0453	570.8212	2821.65	1992.35
822.1897	572.958	2724.5	1891.85
822.3342	575.0942	2634.5	1805.3
822.4786	577.2299	2583.35	1751.5
822.6231	579.3648	2557.15	1728.65
822.7675	581.4992	2536.15	1712.85
822.912	583.6329	2540.8	1714.9
823.0565	585.766	2575.85	1748.5
823.201	587.8985	2635.55	1805.25
823.3454	590.0304	2703.05	1859.1
823.4899	592.1616	2749.45	1910.95
823.6345	594.2922	2752.05	1914.45
823.779	596.4222	2717.75	1878.75
823.9235	598.5515	2629.1	1790.45
824.068	600.6802	2563.4	1723.65
824.2126	602.8083	2503.1	1664.45
824.3571	604.9358	2483.75	1645.6
824.5017	607.0626	2476.15	1638.2
824.6462	609.1888	2486.75	1643.6
824.7908	611.3144	2528.7	1686.85
824.9354	613.4393	2565.45	1722.35
825.08	615.5636	2623.7	1779.8
825.2246	617.6873	2693.15	1849.9
825.3692	619.8103	2734.1	1891.8
825.5138	621.9327	2731.7	1885
825.6584	624.0544	2696.1	1853.3
825.803	626.1756	2625.95	1783.85
825.9477	628.2961	2558.4	1712.65
826.0923	630.4159	2517.55	1675.65
826.237	632.5351	2495.1	1649.5
826.3816	634.6537	2498.5	1650.4
826.5263	636.7716	2493.85	1645.85
826.6709	638.8889	2490.25	1640.7
826.8156	641.0056	2499.4	1650.1
826.9603	643.1216	2496.25	1647.05
827.105	645.237	2523.15	1675.1
827.2497	647.3518	2483.5	1638.05
827.3944	649.4659	2455.25	1610.5
827.5391	651.5793	2424.85	1578.9
827.6838	653.6922	2414.4	1569.35
827.8285	655.8043	2383.25	1535.35
827.9733	657.9159	2383.8	1534.45
828.118	660.0268	2355.65	1508.4
828.2627	662.137	2363.4	1514
828.4075	664.2466	2359.15	1505.6
828.5522	666.3556	2356.3	1504.75
828.697	668.4639	2352.85	1501
828.8418	670.5716	2342.45	1494.2
828.9865	672.6786	2327.25	1474.6
829.1313	674.785	2322.6	1467.5
829.2761	676.8907	2322.6	1467.55
829.4209	678.9958	2318.5	1468.8
829.5657	681.1002	2317.25	1462.95
829.7105	683.204	2318.3	1460.75
829.8553	685.3072	2312.8	1456.7
830.0001	687.4097	2309.05	1450.85
830.1449	689.5115	2313.45	1455.7
830.2898	691.6127	2303.9	1450.95
830.4346	693.7132	2310.6	1454.2
830.5794	695.8131	2310.3	1447.2
830.7243	697.9123	2321.15	1463.65
830.8691	700.0109	2325.9	1466.3
831.014	702.1089	2325.95	1470.4
831.1588	704.2061	2344.9	1488
831.3037	706.3028	2379.15	1520.3
831.4486	708.3987	2401.3	1542.9
831.5935	710.4941	2412.5	1553.9
831.7383	712.5887	2420.8	1562.6
831.8832	714.6827	2430.35	1567.7
832.0281	716.7761	2419	1561.35
832.173	718.8688	2402.9	1543.95
832.3179	720.9608	2404.3	1537.15
832.4628	723.0522	2430.25	1563.2
832.6077	725.1429	2431.35	1569.8
832.7527	727.233	2489.25	1626.4
832.8976	729.3224	2558.1	1696.05
833.0425	731.4112	2640.9	1778.9
833.1874	733.4993	2667.95	1804.15
833.3324	735.5867	2607.25	1745.4
833.4773	737.6735	2513.1	1647.7
833.6222	739.7596	2435.05	1569.45
833.7672	741.845	2388.65	1524.7
833.9122	743.9298	2362.1	1499
834.0571	746.014	2377.9	1513.8
834.2021	748.0974	2375.15	1510.1
834.347	750.1802	2387	1522.2
834.492	752.2624	2366.65	1501.6
834.637	754.3439	2368.7	1500.65
834.782	756.4247	2370.4	1495.9
834.9269	758.5048	2365.95	1501.05
835.0719	760.5843	2393.9	1527.8
835.2169	762.6631	2428.4	1561
835.3619	764.7413	2494.8	1628.4
835.5069	766.8188	2598.8	1727.65
835.6519	768.8956	2713.9	1845
835.7969	770.9718	2783.3	1915.95
835.9419	773.0473	2767.6	1900.4
836.0869	775.1221	2713.95	1846.4
836.232	777.1962	2695	1827.7
836.377	779.2697	2760.4	1888
836.522	781.3426	2917	2032.15
836.667	783.4147	2992.1	2123.85
836.8121	785.4862	2998.1	2131.75
836.9571	787.557	2886.85	2019.85
837.1021	789.6271	2730.4	1860.5
837.2472	791.6966	2556.8	1686.45
837.3922	793.7654	2430.6	1557.25
837.5373	795.8335	2353.3	1482.35
837.6823	797.901	2309.4	1438.65
837.8274	799.9678	2290.05	1415
837.9724	802.0339	2305.05	1436.95
838.1175	804.0993	2312.15	1429.4
838.2626	806.1641	2293.4	1422.1
838.4076	808.2282	2279.7	1409
838.5527	810.2916	2263	1389.3
838.6978	812.3544	2233.55	1365.25
838.8428	814.4164	2220	1350.45
838.9879	816.4778	2245.8	1372.2
839.133	818.5385	2241.85	1369.95
839.2781	820.5986	2294.7	1420.15
839.4232	822.658	2355.05	1480.3
839.5682	824.7166	2424.3	1549.45
839.7133	826.7747	2540.9	1669.3
839.8584	828.832	2641.95	1769.3
840.0035	830.8886	2730.2	1853.05
840.1486	832.9446	2759.4	1884.8
840.2937	834.9999	2719.85	1846.4
840.4388	837.0545	2647.1	1769.35
840.5839	839.1085	2524.8	1647.8
840.729	841.1618	2421.2	1543.35
840.8741	843.2143	2349.95	1474.25
841.0192	845.2662	2307.25	1435.1
841.1643	847.3175	2289.35	1418.05
841.3095	849.368	2274.9	1397.05
841.4546	851.4179	2264.75	1388.8
841.5997	853.467	2256.55	1383.4
841.7448	855.5155	2271.5	1396.6
841.8899	857.5633	2281.9	1405.95
842.0351	859.6105	2269.5	1392.4
842.1802	861.6569	2251.85	1378
842.3253	863.7027	2247.6	1367.05
842.4704	865.7478	2224.2	1345.7
842.6156	867.7922	2201.85	1324.5
842.7607	869.8359	2191.1	1313.7
842.9058	871.8789	2188	1308.6
843.0509	873.9212	2219.95	1311.45
843.1961	875.9629	2205.4	1328.55
843.3412	878.0039	2212.8	1333.45
843.4863	880.0441	2224.85	1348
843.6315	882.0837	2248.75	1371.15
843.7766	884.1226	2284.3	1404.65
843.9218	886.1609	2323.7	1444.7
844.0669	888.1984	2393.45	1516.5
844.212	890.2352	2446.55	1568.2
844.3572	892.2714	2477.3	1592.4
844.5023	894.3069	2422.05	1541.75
844.6475	896.3416	2363.5	1483.95
844.7926	898.3757	2309.85	1428.5
844.9377	900.4091	2279.05	1397.1
845.0829	902.4418	2282.35	1396.6
845.228	904.4739	2302.55	1420.5
845.3732	906.5052	2329.25	1449.6
845.5183	908.5358	2330.85	1451.05
845.6635	910.5658	2308.15	1424.7
845.8086	912.595	2258.85	1378.8
845.9538	914.6236	2209.9	1328.6
846.0989	916.6515	2175.3	1295.05
846.2441	918.6786	2150.3	1268.3
846.3892	920.7051	2142.1	1257.75
846.5344	922.7309	2142.85	1260.8
846.6795	924.756	2133.65	1252.05
846.8246	926.7804	2144.45	1263.8
846.9698	928.8041	2161.75	1277.35
847.1149	930.8272	2193.55	1311.85
847.2601	932.8495	2195.65	1312.45
847.4052	934.8711	2204.65	1319.35
847.5504	936.892	2200.5	1317.1
847.6955	938.9123	2231.05	1348.1
847.8407	940.9318	2272.2	1387.85
847.9858	942.9506	2291.8	1408.55
848.131	944.9688	2290.1	1407.4
848.2761	946.9862	2247.25	1364.4
848.4213	949.003	2216.55	1334.55
848.5664	951.019	2169.75	1285.85
848.7115	953.0344	2151.6	1267.8
848.8567	955.0491	2140.95	1257.3
849.0018	957.063	2114.05	1230
849.147	959.0763	2108.5	1225.6
849.2921	961.0888	2125.4	1240.85
849.4373	963.1007	2117.6	1235.15
849.5824	965.1119	2094.3	1216.05
849.7275	967.1223	2095.5	1215.45
849.8727	969.1321	2090.35	1209.6
850.0178	971.1412	2085.35	1203.1
850.1629	973.1495	2077.25	1193.45
850.3081	975.1572	2101.85	1182.75
850.4532	977.1641	2080.8	1196.05
850.5983	979.1704	2079.75	1194.65
850.7435	981.1759	2081.75	1195.25
850.8886	983.1808	2070.2	1183.25
851.0337	985.1849	2074.25	1176.05
851.1788	987.1884	2054.6	1166.55
851.324	989.1911	2070.75	1181.95
851.4691	991.1932	2074.25	1186.95
851.6142	993.1945	2078.85	1193.25
851.7593	995.1951	2072.95	1187.1
851.9045	997.1951	2079.15	1188.15
852.0496	999.1943	2058.55	1173.9
852.1947	1001.1928	2063.4	1174.85
852.3398	1003.1906	2072.85	1188.15
852.4849	1005.1877	2101.9	1215.65
852.63	1007.1841	2123.75	1236.95
852.7751	1009.1798	2159.1	1273.8
852.9202	1011.1748	2151.85	1264.25
853.0653	1013.1691	2111.35	1223.45
853.2104	1015.1627	2074.75	1187.35
853.3555	1017.1556	2042.6	1157.25
853.5006	1019.1477	2007.65	1121.4
853.6457	1021.1392	1988.25	1105.7
853.7908	1023.1299	1974.7	1091.85
853.9359	1025.12	1977.2	1093.35
854.081	1027.1093	1986.8	1109.5
854.2261	1029.0979	2009.1	1131.55
854.3712	1031.0859	2018.6	1141.5
854.5163	1033.0731	2047.3	1163.8
854.6613	1035.0596	2061.35	1176.3
854.8064	1037.0454	2048.35	1161.85
854.9515	1039.0304	2031.3	1143.4
855.0965	1041.0148	1995.9	1108.65
855.2416	1042.9985	1973.35	1084.25
855.3867	1044.9814	1969.15	1082.6
855.5317	1046.9636	1955.85	1065.3
855.6768	1048.9452	1959.2	1073.05
855.8219	1050.926	1980.2	1095.5
855.9669	1052.9061	2013.1	1125.85
856.112	1054.8855	2021	1133.15
856.257	1056.8642	2010.15	1124.95
856.4021	1058.8421	2017.9	1126.7
856.5471	1060.8194	2007.55	1119.75
856.6921	1062.7959	2008.75	1120.9
856.8372	1064.7717	2003.25	1116.95
856.9822	1066.7469	2001.05	1112.2
857.1272	1068.7213	2012.25	1122.15
857.2723	1070.695	2027.7	1138.55
857.4173	1072.6679	2049.65	1161
857.5623	1074.6402	2078.75	1189.1
857.7073	1076.6117	2091.25	1197.4
857.8523	1078.5826	2073.2	1183.05
857.9973	1080.5527	2020.85	1130.1
858.1423	1082.5221	1978.9	1090.1
858.2873	1084.4908	1941.55	1052.35
858.4323	1086.4587	1917.4	1027.2
858.5773	1088.426	1923.75	1033.8
858.7223	1090.3925	1915.6	1024.7
858.8673	1092.3584	1926.3	1040.25
859.0123	1094.3235	1925.45	1036
859.1573	1096.2879	1942.05	1052.9
859.3022	1098.2515	1977.35	1087
859.4472	1100.2145	2019.9	1133.1
859.5922	1102.1767	2055.3	1164.45
859.7371	1104.1382	2107.4	1217.5
859.8821	1106.099	2170.3	1278.05
860.027	1108.0591	2232	1343.1
860.172	1110.0185	2282.5	1391.8
860.3169	1111.9771	2326.85	1437.85
860.4619	1113.9351	2400.05	1510.2
860.6068	1115.8923	2455.6	1565.95
860.7517	1117.8488	2529.65	1639.15
860.8967	1119.8045	2458.9	1569.2
861.0416	1121.7596	2349.95	1460.75
861.1865	1123.7139	2200.25	1313.15
861.3314	1125.6675	2133.55	1244.05
861.4763	1127.6204	2128.25	1241.45
861.6212	1129.5726	2151.2	1259.7
861.7661	1131.524	2158.15	1266.7
861.911	1133.4748	2110.05	1220.55
862.0559	1135.4248	2040.6	1150.45
862.2008	1137.3741	1965.95	1074.9
862.3457	1139.3226	1924.45	1037.05
862.4905	1141.2705	1924.3	1033.25
862.6354	1143.2176	1931.9	1037.15
862.7803	1145.164	1953.35	1062.1
862.9251	1147.1097	1963.3	1073.9
863.07	1149.0546	1936.35	1045.45
863.2148	1150.9989	1905.3	1014.85
863.3597	1152.9424	1879.65	990.8
863.5045	1154.8852	1851.3	958.95
863.6493	1156.8272	1847.65	956.2
863.7942	1158.7686	1848.05	949
863.939	1160.7092	1843.5	952.05
864.0838	1162.6491	1853.35	957.75
864.2286	1164.5883	1859.6	969.6
864.3734	1166.5267	1884.75	991.65
864.5182	1168.4644	1914	1024.9
864.663	1170.4014	1951.5	1060.5
864.8078	1172.3377	1993.2	1102.4
864.9526	1174.2732	2057.3	1169.45
865.0974	1176.2081	2161.55	1271.9
865.2421	1178.1421	2332	1439.45
865.3869	1180.0755	2483.45	1592.05
865.5317	1182.0082	2578.55	1687.15
865.6764	1183.9401	2563.2	1672.15
865.8212	1185.8713	2439.65	1550.35
865.9659	1187.8017	2285.3	1399.5
866.1106	1189.7315	2136.05	1251.5
866.2554	1191.6605	2048.65	1136.95
866.4001	1193.5888	1978.85	1091.8
866.5448	1195.5163	1934.95	1044.95
866.6895	1197.4432	1899.85	1008.7
866.8342	1199.3693	1879.1	988.3
866.9789	1201.2947	1875.9	981.45
867.1236	1203.2193	1852.7	961.2
867.2683	1205.1432	1853.85	962.6
867.413	1207.0664	1844.9	953.8
867.5576	1208.9889	1847.3	953
867.7023	1210.9106	1843.4	953.8
867.847	1212.8316	1852.05	962.6
867.9916	1214.7519	1873.95	975.05
868.1363	1216.6715	1871.85	980.75
868.2809	1218.5903	1891.1	1000.2
868.4255	1220.5084	1916.75	1025.9
868.5701	1222.4257	1929.1	1037.2
868.7148	1224.3424	1934.85	1045.85
868.8594	1226.2583	1966.5	1072.95
869.004	1228.1735	2001.1	1107.9
869.1486	1230.0879	2035.75	1145.75
869.2932	1232.0016	2093.6	1203.1
869.4377	1233.9146	2137.7	1244.8
869.5823	1235.8269	2160.75	1270.45
869.7269	1237.7384	2162.45	1271.95
869.8715	1239.6492	2159.9	1267.45
870.016	1241.5592	2177.6	1287.1
870.1606	1243.4686	2223.5	1329.9
870.3051	1245.3772	2327	1433.45
870.4496	1247.285	2433.9	1541.15
870.5941	1249.1922	2530.25	1636.75
870.7387	1251.0986	2613.75	1722.05
870.8832	1253.0042	2717.65	1825.25
871.0277	1254.9092	2812.7	1921.45
871.1722	1256.8134	2925.45	2034.45
871.3167	1258.7169	3047.85	2156.1
871.4611	1260.6196	3122.05	2231.6
871.6056	1262.5216	3169.7	2275.35
871.7501	1264.4229	3152.65	2261.2
871.8945	1266.3234	3106.8	2215.05
872.039	1268.2232	3054.3	2160.85
872.1834	1270.1223	2969.8	2077.45
872.3278	1272.0207	2912	2019.8
872.4723	1273.9183	2900.7	1999
872.6167	1275.8151	2902.05	2010.4
872.7611	1277.7113	2932.4	2039.45
872.9055	1279.6067	3032.8	2142.25
873.0499	1281.5014	3205.3	2312.3
873.1943	1283.3953	3452.2	2559.55
873.3386	1285.2885	3701.25	2809.6
873.483	1287.181	3909.65	3018.6
873.6274	1289.0727	3978.05	3085.95
873.7717	1290.9637	3914.65	3021.45
873.9161	1292.854	3777.2	2886.7
874.0604	1294.7435	3615.9	2723.35
874.2047	1296.6323	3445.5	2553.95
874.349	1298.5204	3314.4	2419.75
874.4933	1300.4077	3198.8	2307.25
874.6376	1302.2943	3137.6	2245
874.7819	1304.1802	3095.5	2203.7
874.9262	1306.0653	3031.25	2137.15
875.0705	1307.9497	2989.45	2095.15
875.2147	1309.8333	2964.6	2074.55
875.359	1311.7162	2925.05	2033.3
875.5032	1313.5984	2885.2	1989.45
875.6475	1315.4798	2870.25	1968.7
875.7917	1317.3605	2876.9	1980.75
875.9359	1319.2405	2884.3	1989.15
876.0801	1321.1197	2878.5	1985.5
876.2243	1322.9982	2827.4	1928.75
876.3685	1324.876	2731.85	1839.7
876.5127	1326.753	2609.55	1717
876.6569	1328.6293	2512.45	1618.05
876.801	1330.5048	2395.55	1500
876.9452	1332.3796	2285.1	1393.6
877.0893	1334.2537	2231.45	1315.05
877.2335	1336.127	2150.85	1255.15
877.3776	1337.9996	2117.3	1225.6
877.5217	1339.8714	2082.6	1189.2
877.6658	1341.7426	2084.95	1148.65
877.8099	1343.6129	2032.1	1137.1
877.954	1345.4826	2009.3	1116.15
878.0981	1347.3515	1996.25	1101.85
878.2422	1349.2196	1980.35	1085.2
878.3862	1351.087	1974.6	1082.65
878.5303	1352.9537	1958.75	1063.4
878.6743	1354.8197	1969.05	1074.2
878.8184	1356.6849	1978.6	1083
878.9624	1358.5493	1987.5	1093.85
879.1064	1360.4131	2028	1133.2
879.2504	1362.276	2069.8	1176.75
879.3944	1364.1383	2122.95	1230
879.5384	1365.9998	2141	1243.3
879.6823	1367.8606	2116.75	1222.65
879.8263	1369.7206	2116.4	1223.5
879.9702	1371.5799	2123.35	1225.8
880.1142	1373.4384	2113.55	1221.1
880.2581	1375.2962	2084.45	1190.3
880.402	1377.1533	2005.15	1110.1
880.5459	1379.0096	1950.9	1059.2
880.6898	1380.8652	1901.6	1009.15
880.8337	1382.7201	1867.75	977.9
880.9776	1384.5742	1831.8	938.55
881.1215	1386.4275	1810.8	914.9
881.2653	1388.2802	1782.55	889.7
881.4092	1390.132	1762.95	866.3
881.553	1391.9832	1765.95	872
881.6968	1393.8336	1752.8	858.9
881.8406	1395.6832	1748.45	853.8
881.9844	1397.5322	1726.35	832.2
882.1282	1399.3803	1729.7	832.1
882.272	1401.2278	1702.35	806
882.4158	1403.0745	1697.1	805.9
882.5595	1404.9204	1682	789.2
882.7033	1406.7656	1679.15	785.1
882.847	1408.6101	1672.4	778.35
882.9908	1410.4538	1674.25	778.6
883.1345	1412.2968	1676.7	783.6
883.2782	1414.139	1679.4	787.15
883.4219	1415.9805	1688.05	795.8
883.5656	1417.8213	1706.4	806.35
883.7092	1419.6613	1722.7	830.4
883.8529	1421.5006	1758.3	863.7
883.9965	1423.3391	1801.85	908.4
884.1402	1425.1769	1867.5	972.35
884.2838	1427.0139	1963.1	1069
884.4274	1428.8502	2071.55	1177
884.571	1430.6858	2163.65	1269.1
884.7146	1432.5206	2199.85	1307.25
884.8582	1434.3547	2189.45	1293.1
885.0018	1436.188	2155.35	1263.85
885.1453	1438.0206	2139.3	1243.05
885.2889	1439.8524	2125.9	1231.9
885.4324	1441.6835	2131.75	1237.25
885.5759	1443.5139	2127.75	1231.85
885.7194	1445.3435	2132.55	1238.6
885.8629	1447.1724	2141.1	1248.6
886.0064	1449.0005	2126.2	1232.95
886.1499	1450.8279	2113.45	1218
886.2933	1452.6545	2119.25	1225.4
886.4368	1454.4804	2111.35	1218.8
886.5802	1456.3056	2104.65	1206.35
886.7237	1458.13	2074.75	1183.15
886.8671	1459.9536	2035.5	1141.7
887.0105	1461.7766	2001.3	1108.45
887.1539	1463.5987	1957.05	1061.95
887.2972	1465.4202	1916.95	1022.5
887.4406	1467.2409	1859.05	965.95
887.584	1469.0608	1821.8	929
887.7273	1470.88	1777.65	882.4
887.8706	1472.6984	1735.1	842.8
888.0139	1474.5161	1709.95	815.5
888.1572	1476.3331	1695.05	801.9
888.3005	1478.1493	1687.1	794.1
888.4438	1479.9648	1675	782.1
888.5871	1481.7795	1676.5	782.35
888.7303	1483.5935	1675.95	782.55
888.8736	1485.4067	1672.65	779.15
889.0168	1487.2192	1678.5	784.8
889.16	1489.031	1680.7	785.35
889.3032	1490.842	1681.2	789.8
889.4464	1492.6522	1678.25	785.7
889.5896	1494.4618	1671.55	777.45
889.7327	1496.2705	1661.4	771.25
889.8759	1498.0785	1666.75	771.05
890.019	1499.8858	1654.35	759.65
890.1622	1501.6924	1641.55	750.35
890.3053	1503.4981	1638.75	746.25
890.4484	1505.3032	1634.9	742.05
890.5914	1507.1075	1630.65	736.6
890.7345	1508.911	1612.1	719.15
890.8776	1510.7138	1611.05	716.25
891.0206	1512.5159	1603.85	710.25
891.1637	1514.3172	1595.15	701.55
891.3067	1516.1178	1583.7	690.1
891.4497	1517.9176	1582.05	684.5
891.5927	1519.7166	1575.6	683.35
891.7357	1521.515	1568.2	666.55
891.8786	1523.3126	1562.6	668.9
892.0216	1525.1094	1549.9	652.1
892.1645	1526.9055	1545.15	653.15
892.3074	1528.7008	1549.15	655.1
892.4503	1530.4954	1547.05	648.25
892.5932	1532.2893	1539.25	647.1
892.7361	1534.0824	1537.85	640.4
892.879	1535.8747	1531.4	639.95
893.0218	1537.6663	1532.75	640.1
893.1647	1539.4572	1535.35	641.25
893.3075	1541.2473	1529.6	638.75
893.4503	1543.0367	1532.45	641
893.5931	1544.8253	1531.4	635.6
893.7359	1546.6132	1546.05	650.7
893.8787	1548.4003	1538.7	636.6
894.0214	1550.1867	1558.15	656.3
894.1642	1551.9723	1559.15	662.05
894.3069	1553.7572	1571.35	677.95
894.4496	1555.5414	1600.9	708.6
894.5923	1557.3247	1636.75	745.6
894.735	1559.1074	1671.25	782.4
894.8777	1560.8893	1725.3	835.1
895.0204	1562.6705	1777.5	886.1
895.163	1564.4509	1812.5	922.05
895.3056	1566.2305	1810.9	921.8
895.4482	1568.0094	1826.9	936.15
895.5908	1569.7876	1818.75	929.6
895.7334	1571.565	1823.85	932.65
895.876	1573.3417	1811.6	922.2
896.0186	1575.1176	1827.9	937.35
896.1611	1576.8928	1848.6	957.85
896.3036	1578.6672	1871.45	984.25
896.4461	1580.4409	1899.25	1011.9
896.5886	1582.2138	1951.5	1059.9
896.7311	1583.986	1998.55	1106.15
896.8736	1585.7575	2061.2	1171.6
897.0161	1587.5282	2094.4	1210.25
897.1585	1589.2981	2129.15	1241.65
897.3009	1591.0673	2156.95	1270.05
897.4433	1592.8358	2164.9	1277.75
897.5857	1594.6035	2165.55	1273.9
897.7281	1596.3704	2148.15	1257.4
897.8705	1598.1366	2123.8	1233.7
898.0128	1599.9021	2077.15	1188.9
898.1551	1601.6668	2053.5	1165
898.2975	1603.4308	2026.65	1135.75
898.4398	1605.194	2031.25	1138.15
898.5821	1606.9564	2055.35	1165.8
898.7243	1608.7182	2120.25	1231.25
898.8666	1610.4791	2222.4	1337.4
899.0088	1612.2394	2346.1	1461.1
899.1511	1613.9988	2489.25	1603.65
899.2933	1615.7576	2607.8	1720.8
899.4355	1617.5156	2662	1767.4
899.5776	1619.2728	2625.9	1734.55
899.7198	1621.0293	2520.6	1631.55
899.862	1622.785	2381.7	1491.9
900.0041	1624.54	2216.65	1325.25
900.1462	1626.2942	2064.4	1176.25
900.2883	1628.0477	1928.6	1038.8
900.4304	1629.8005	1836.05	943.55
900.5725	1631.5525	1743.4	854.75
900.7145	1633.3037	1672.9	783.7
900.8566	1635.0542	1621.65	734.85
900.9986	1636.804	1582.05	692.15
901.1406	1638.553	1603.5	652.5
901.2826	1640.3013	1520.95	634.25
901.4245	1642.0488	1507.1	618.55
901.5665	1643.7955	1468.75	582.45
901.7085	1645.5416	1460.75	574.45
901.8504	1647.2868	1451.55	564.55
901.9923	1649.0313	1442.7	553.35
902.1342	1650.7751	1440.2	547.55
902.2761	1652.5181	1433.5	545.95
902.4179	1654.2604	1435.55	546.55
902.5598	1656.0019	1432.7	546.2
902.7016	1657.7427	1444.05	555.75
902.8434	1659.4828	1472.25	585.55
902.9852	1661.222	1516.9	627.4
903.127	1662.9606	1555.95	669.55
903.2687	1664.6984	1598	707.5
903.4105	1666.4354	1616.9	724.3
903.5522	1668.1717	1585.95	695.15
903.6939	1669.9072	1543.6	652.1
903.8356	1671.642	1489.3	597.35
903.9773	1673.3761	1433.4	545.75
904.119	1675.1094	1394.35	507
904.2606	1676.8419	1368.45	481.1
904.4022	1678.5737	1347.8	457.95
904.5439	1680.3048	1342.45	452.85
904.6855	1682.0351	1330.05	441
904.827	1683.7646	1320.1	427.8
904.9686	1685.4934	1314.6	426.3
905.1101	1687.2215	1309.95	419.45
905.2517	1688.9488	1294.6	407.6
905.3932	1690.6754	1288.2	400.55
905.5347	1692.4012	1291.3	402.95
905.6761	1694.1263	1285.75	396.65
905.8176	1695.8506	1283.7	394.45
905.9591	1697.5742	1288.2	401.65
906.1005	1699.297	1282.65	395.8
906.2419	1701.0191	1272.2	385.5
906.3833	1702.7404	1270.85	383.35
906.5246	1704.461	1267.25	378.05
906.666	1706.1808	1265.9	376.95
906.8073	1707.8999	1262.3	373.55
906.9487	1709.6182	1260.7	373.05
907.09	1711.3358	1255.8	369.3
907.2313	1713.0527	1257.8	372.1
907.3725	1714.7688	1260.25	367.05
907.5138	1716.4841	1258.55	366
907.655	1718.1987	1253.7	361.05
907.7962	1719.9126	1249.45	362.95
907.9374	1721.6257	1248.05	357.35
908.0786	1723.338	1250.35	361.65
908.2198	1725.0496	1247.9	358.1
908.3609	1726.7605	1245.25	355.75
908.502	1728.4706	1239.15	352.05
908.6431	1730.18	1240.25	350.2
908.7842	1731.8886	1239.2	354.7
908.9253	1733.5964	1259.65	353.2
909.0664	1735.3036	1234.9	343.15
909.2074	1737.0099	1232.9	346.6
909.3484	1738.7156	1230.3	345.6
909.4894	1740.4204	1234.45	344.95
909.6304	1742.1246	1227.7	339.55
909.7714	1743.8279	1231.75	345.15
909.9123	1745.5306	1234.65	346.25
910.0532	1747.2325	1225.65	337.7
910.1941	1748.9336	1231	343.5
910.335	1750.634	1222.8	331.85
910.4759	1752.3336	1225.1	337.75
910.6168	1754.0325	1223.2	337.05
910.7576	1755.7307	1222.1	335.65
910.8984	1757.4281	1222.3	333.55
911.0392	1759.1247	1231.6	336.15
911.18	1760.8206	1224.3	330.9
911.3208	1762.5158	1221	329.95
911.4615	1764.2102	1216.7	330.55
911.6022	1765.9039	1216.35	329.1
911.7429	1767.5968	1215.7	331.05
911.8836	1769.289	1215.25	329.65
912.0243	1770.9804	1214.3	325
912.1649	1772.6711	1212.2	321.95
912.3056	1774.361	1216.1	326
912.4462	1776.0502	1219.95	331
912.5868	1777.7386	1209.95	318.4
912.7274	1779.4263	1207.65	319.35
912.8679	1781.1132	1210.6	324.65
913.0084	1782.7994	1213.05	325.75
913.149	1784.4849	1205.8	319.65
913.2895	1786.1696	1225.85	321.65
913.4299	1787.8535	1206.05	320.95
913.5704	1789.5367	1204.3	319.4
913.7108	1791.2192	1204.8	319.75
913.8513	1792.9009	1232.7	319.05
913.9917	1794.5818	1207.2	317.95
914.132	1796.2621	1206.5	320.25
914.2724	1797.9415	1199.2	310.35
914.4128	1799.6202	1198	309.2
914.5531	1801.2982	1199.15	313.2
914.6934	1802.9755	1197.1	307.65
914.8337	1804.6519	1199.2	311.8
914.9739	1806.3277	1197.3	309.8
915.1142	1808.0027	1193.15	306.55
915.2544	1809.6769	1186.75	301.05
915.3946	1811.3504	1194.45	308.3
915.5348	1813.0231	1190.75	304.5
915.675	1814.6951	1185.4	302.2
915.8151	1816.3664	1192.05	303.6
915.9553	1818.0369	1191.1	304.05
916.0954	1819.7067	1184.9	297.95
916.2355	1821.3757	1189.95	299.1
916.3755	1823.044	1188.65	300.8
916.5156	1824.7115	1186.2	298.2
916.6556	1826.3783	1187.05	300.9
916.7956	1828.0443	1187.7	300.05
916.9356	1829.7096	1178.45	288.45
917.0756	1831.3741	1183.95	294.4
917.2155	1833.0379	1179.8	294.3
917.3555	1834.701	1183.4	295.15
917.4954	1836.3633	1180.95	296.5
917.6353	1838.0248	1177.75	289.15
917.7751	1839.6856	1172.8	287.5
917.915	1841.3457	1179.4	292.8
918.0548	1843.005	1176.85	291.2
918.1946	1844.6636	1179.25	291.85
918.3344	1846.3214	1178.5	292.6
918.4742	1847.9785	1176.85	292.15
918.6139	1849.6349	1173.5	282.95
918.7537	1851.2904	1184.95	285.95
918.8934	1852.9453	1176.4	287.3
919.0331	1854.5994	1174.2	283.75
919.1727	1856.2528	1177.7	286.1
919.3124	1857.9054	1176.2	287.95
919.452	1859.5572	1165.55	277.55
919.5916	1861.2083	1171.45	284.1
919.7312	1862.8587	1172.35	285.9
919.8708	1864.5084	1176.15	288.55
920.0103	1866.1572	1163.25	275.3
920.1498	1867.8054	1169.25	279.95
920.2893	1869.4528	1173.45	283.9
920.4288	1871.0994	1166.35	276.8
920.5683	1872.7453	1168.3	277.7
920.7077	1874.3905	1167.2	272.7
920.8471	1876.0349	1166.15	277.3
920.9865	1877.6786	1175.15	285.3
921.1259	1879.3215	1164.6	278.95
921.2653	1880.9637	1165.4	280.5
921.4046	1882.6051	1160.1	272.75
921.5439	1884.2458	1160.95	271.95
921.6832	1885.8858	1153.8	268.75
921.8225	1887.525	1157.1	268.95
921.9617	1889.1634	1157.5	268.35
922.101	1890.8011	1158.45	270.25
922.2402	1892.4381	1152.15	264.5
922.3794	1894.0743	1150.55	262.5
922.5185	1895.7098	1151.8	264.35
922.6577	1897.3446	1153.2	263.9
922.7968	1898.9786	1160.1	268.7
922.9359	1900.6118	1153.05	264.9
923.075	1902.2443	1153.5	265.05
923.214	1903.8761	1148.9	260.3
923.3531	1905.5071	1153.45	264
923.4921	1907.1374	1147.2	258.15
923.6311	1908.7669	1149.5	262.45
923.77	1910.3957	1143.45	257.1
923.909	1912.0237	1147.55	261.7
924.0479	1913.651	1148.2	259.25
924.1868	1915.2776	1138.4	252.25
924.3257	1916.9034	1142.25	257.85
924.4646	1918.5285	1141.4	255
924.6034	1920.1528	1143.55	255.85
924.7422	1921.7764	1143.95	257.9
924.881	1923.3992	1141	253.1
925.0198	1925.0213	1138.85	249.2
925.1586	1926.6427	1141.7	256.15
925.2973	1928.2633	1349.7	247.8
925.436	1929.8832	1142.35	251
925.5747	1931.5023	1136.05	249.95
925.7134	1933.1207	1138.05	250.45
925.852	1934.7383	1132	246.2
925.9906	1936.3552	1128.8	242.3
926.1292	1937.9714	1126.65	239.5
926.2678	1939.5868	1137.2	247.8
926.4064	1941.2015	1133.45	245.65
926.5449	1942.8154	1131.95	243.6
926.6834	1944.4286	1133.85	244.1
926.8219	1946.041	1152	239.25
926.9604	1947.6528	1132.05	240.05
927.0988	1949.2637	1126.3	238.5
927.2372	1950.8739	1124.1	236.35
927.3756	1952.4834	1126.85	238.35
927.514	1954.0921	1128.35	241.9
927.6523	1955.7001	1129.05	237.3
927.7907	1957.3074	1119.75	234.5
927.929	1958.9139	1122.65	238.55
928.0673	1960.5197	1124.35	237.9
928.2055	1962.1247	1117.25	232.45
928.3438	1963.729	1119.7	234.55
928.482	1965.3325	1139.65	232.3
928.6202	1966.9353	1114.65	228
928.7584	1968.5374	1121.6	236.65
928.8965	1970.1387	1118.4	233.85
929.0346	1971.7393	1113.1	224.6
929.1727	1973.3392	1112.8	227.7
929.3108	1974.9383	1109.2	223.35
929.4489	1976.5366	1109.2	224.35
929.5869	1978.1342	1108.75	224.15
929.7249	1979.7311	1114.15	227.8
929.8629	1981.3273	1107.2	223.3
930.0009	1982.9227	1112.2	227.85
930.1388	1984.5173	1112.25	228.55
930.2767	1986.1112	1108.15	224.95
930.4146	1987.7044	1104.75	221.05
930.5525	1989.2968	1105.9	221.5
930.6904	1990.8885	1105.5	218.15
930.8282	1992.4795	1113.6	228.4
930.966	1994.0697	1107.8	223.45
931.1038	1995.6592	1106.4	222.15
931.2415	1997.2479	1104	218.9
931.3793	1998.8359	1102.35	219.15
931.517	2000.4232	1099.2	217.65
931.6547	2002.0097	1103	220.5
931.7923	2003.5955	1095.6	211.45
931.93	2005.1805	1102.1	216.95
932.0676	2006.7648	1098.9	215.85
932.2052	2008.3484	1098.05	214.6
932.3427	2009.9312	1103.3	220
932.4803	2011.5133	1093.25	212.65
932.6178	2013.0946	1099.6	217.1
932.7553	2014.6752	1093.2	211.15
932.8928	2016.2551	1095.6	213.15
933.0302	2017.8342	1096.95	216.4
933.1676	2019.4126	1094.2	214.05
933.305	2020.9902	1093.3	214.5
933.4424	2022.5672	1096.05	211.5
933.5798	2024.1433	1095.8	209.85
933.7171	2025.7188	1089.3	209.65
933.8544	2027.2935	1089.05	207.7
933.9917	2028.8674	1092.2	211.35
934.129	2030.4406	1087.05	207.05
934.2662	2032.0131	1092.3	214.6
934.4034	2033.5849	1092.05	202.85
934.5406	2035.1559	1087.85	207.85
934.6778	2036.7261	1085.1	204.85
934.8149	2038.2957	1092.55	211.7
934.952	2039.8645	1087.15	205.4
935.0891	2041.4325	1085.3	199.45
935.2262	2042.9998	1084.7	201.65
935.3632	2044.5664	1087.65	204.05
935.5002	2046.1323	1085.15	203.95
935.6372	2047.6974	1086.2	205.9
935.7742	2049.2617	1083.9	203.45
935.9111	2050.8254	1121.15	204.1
936.048	2052.3883	1089.7	208.05
936.1849	2053.9504	1088.9	205
936.3218	2055.5118	1084.1	200.9
936.4586	2057.0725	1089.55	203
936.5955	2058.6325	1083.45	201.05
936.7323	2060.1917	1079.9	198.9
936.869	2061.7502	1086.65	203.7
937.0058	2063.3079	1082.55	200.55
937.1425	2064.8649	1084.95	200.45
937.2792	2066.4212	1085	200.55
937.4159	2067.9767	1078.3	197.1
937.5525	2069.5315	1085.85	201.8
937.6891	2071.0856	1077.3	194.85
937.8257	2072.6389	1081.15	199.15
937.9623	2074.1915	1077.2	197.9
938.0989	2075.7433	1083.7	201.05
938.2354	2077.2945	1074.6	194.5
938.3719	2078.8448	1075.55	192.1
938.5084	2080.3945	1081.7	199.25
938.6448	2081.9434	1079.35	197.35
938.7812	2083.4916	1076.35	193.05
938.9176	2085.039	1083	195.85
939.054	2086.5857	1079	191.65
939.1903	2088.1317	1076.1	192.55
939.3267	2089.677	1076	191.2
939.463	2091.2215	1075.25	190.2
939.5992	2092.7652	1080.45	196.4
939.7355	2094.3083	1076.75	192.2
939.8717	2095.8506	1074.35	191.8
940.0079	2097.3921	1074.85	190.85
940.1441	2098.933	1077.5	192.75
940.2802	2100.4731	1080.1	197.05
940.4163	2102.0124	1094.5	194.05
940.5524	2103.5511	1074.75	192.15
940.6885	2105.089	1074.6	189.55
940.8245	2106.6261	1073.2	189.45
940.9606	2108.1626	1076.3	192.7
941.0965	2109.6983	1098.95	186.15
941.2325	2111.2332	1078.55	196.3
941.3684	2112.7675	1075.3	193.3
941.5044	2114.301	1076.1	190.45
941.6403	2115.8337	1071.45	187
941.7761	2117.3657	1070.3	186.7
941.912	2118.897	1069.8	184.85
942.0478	2120.4276	1076.6	189.3
942.1835	2121.9575	1070.8	187.35
942.3193	2123.4866	1088.15	191.45
942.455	2125.0149	1074.2	187.8
942.5907	2126.5426	1065.6	182.95
942.7264	2128.0695	1068.3	184.3
942.8621	2129.5956	1065.3	183.1
942.9977	2131.1211	1069.65	181.85
943.1333	2132.6458	1073.2	193.15
943.2689	2134.1698	1069.35	185.55
943.4044	2135.693	1072.05	184.8
943.54	2137.2155	1068.9	179.7
943.6755	2138.7373	1068.45	185.5
943.8109	2140.2584	1064.3	183.1
943.9464	2141.7787	1069.25	181.35
944.0818	2143.2983	1064.05	185.3
944.2172	2144.8171	1062.3	183.6
944.3526	2146.3353	1062.75	180.8
944.4879	2147.8527	1066.2	184.35
944.6232	2149.3693	1065.25	182.65
944.7585	2150.8853	1066.35	181.9
944.8938	2152.4005	1063.85	180.65
945.029	2153.9149	1067.8	182.85
945.1642	2155.4287	1067.75	183.3
945.2994	2156.9417	1064.7	179.1
945.4346	2158.454	1062.85	178.45
945.5697	2159.9655	1061.4	179.6
945.7048	2161.4764	1059	178.3
945.8399	2162.9865	1059.2	177.8
945.9749	2164.4958	1063.1	180.9
946.1099	2166.0045	1061.1	177.6
946.2449	2167.5124	1059.55	179.45
946.3799	2169.0195	1058.35	174.7
946.5148	2170.526	1059.4	176.25
946.6498	2172.0317	1061.7	178.65
946.7846	2173.5367	1063.9	182.2
946.9195	2175.0409	1054.45	171.05
947.0543	2176.5445	1058.85	176.45
947.1891	2178.0473	1056.8	171.9
947.3239	2179.5494	1060.35	173.2
947.4587	2181.0507	1055.9	173.75
947.5934	2182.5513	1058.3	176.4
947.7281	2184.0512	1059.7	176.6
947.8628	2185.5504	1055.15	172.55
947.9974	2187.0488	1055.6	173.85
948.132	2188.5465	1055.2	172.7
948.2666	2190.0435	1053.3	168.25
948.4012	2191.5397	1048.9	165.2
948.5357	2193.0353	1052.2	168.95
948.6702	2194.5301	1053.25	168.45
948.8047	2196.0241	1052.05	167.45
948.9392	2197.5175	1052.85	166.55
949.0736	2199.0101	1057.25	170.65
949.208	2200.502	1048.65	164.75
949.3424	2201.9931	1050.9	167.2
949.4767	2203.4835	1048.6	165
949.611	2204.9733	1065.35	165.95
949.7453	2206.4622	1053.25	172.5
949.8796	2207.9505	1051.35	167.25
950.0138	2209.438	1045.15	165.6
950.148	2210.9248	1047.8	163.35
950.2822	2212.4109	1049.15	166.4
950.4164	2213.8962	1050	165.5
950.5505	2215.3809	1050.65	166.35
950.6846	2216.8648	1048.6	164.55
950.8186	2218.3479	1050.05	161.5
950.9527	2219.8304	1050.95	161.4
951.0867	2221.3121	1046.7	159.45
951.2207	2222.7931	1041.4	157.75
951.3546	2224.2733	1039.3	156.45
951.4886	2225.7529	1042.95	159.4
951.6225	2227.2317	1044.05	157.9
951.7563	2228.7098	1038.5	157.55
951.8902	2230.1872	1040.95	159.3
952.024	2231.6638	1037.1	154.3
952.1578	2233.1397	1044.7	157.55
952.2916	2234.6149	1035.85	153.75
952.4253	2236.0894	1039.55	155.8
952.559	2237.5632	1045.55	153.95
952.6927	2239.0362	1039.45	156.8
952.8263	2240.5085	1042.4	160.3
952.9599	2241.9801	1036.55	153.1
953.0935	2243.4509	1041.8	159.45
953.2271	2244.921	1036.7	153.85
953.3606	2246.3904	1038.6	150.65
953.4941	2247.8591	1035.6	151.95
953.6276	2249.3271	1033.65	150
953.7611	2250.7943	1037.8	152.7
953.8945	2252.2608	1033.25	150.05
954.0279	2253.7266	1033.95	150.25
954.1612	2255.1917	1033.8	149
954.2946	2256.656	1033.65	148.4
954.4279	2258.1197	1032.5	151.15
954.5612	2259.5826	1035.3	150.6
954.6944	2261.0447	1032.9	149.35
954.8276	2262.5062	1033.65	150.65
954.9608	2263.9669	1034.6	151.1
955.094	2265.4269	1029.3	145.85
955.2271	2266.8862	1028.2	146.15
955.3602	2268.3448	1030.5	147.6
955.4933	2269.8026	1032.8	150.35
955.6264	2271.2598	1032.35	149.05
955.7594	2272.7162	1029.15	147.75
955.8924	2274.1719	1029	144.35
956.0253	2275.6268	1028.5	145.85
956.1583	2277.0811	1025.4	140.35
956.2912	2278.5346	1028.2	144.3
956.4241	2279.9874	1028.15	145.8
956.5569	2281.4395	1025.05	142.15
956.6897	2282.8908	1025.85	140.5
956.8225	2284.3414	1028.25	143.75
956.9553	2285.7914	1023.8	141.35
957.088	2287.2406	1029.05	144.4
957.2207	2288.689	1031.85	149.35
957.3534	2290.1368	1028.3	143.35
957.486	2291.5838	1029.15	143.9
957.6186	2293.0302	1028.2	141.9
957.7512	2294.4758	1021.95	135.4
957.8838	2295.9206	1026.75	140.9
958.0163	2297.3648	1021	137.5
958.1488	2298.8082	1027.3	143.05
958.2813	2300.251	1019	135.2
958.4137	2301.693	1026.05	139.1
958.5461	2303.1343	1024.1	142.1
958.6785	2304.5748	1022.4	138.55
958.8108	2306.0147	1025.85	143.25
958.9432	2307.4538	1024.4	139.6
959.0754	2308.8922	1021.1	141.45
959.2077	2310.3299	1020.85	138.35
959.3399	2311.7669	1019.95	137.7
959.4721	2313.2031	1019.9	136.15
959.6043	2314.6387	1023.8	140.55
959.7365	2316.0735	1020.05	135.8
959.8686	2317.5076	1023.05	139.1
960.0006	2318.941	1019.35	133.25
960.1327	2320.3737	1017.8	135.15
960.2647	2321.8056	1022.9	137.1
960.3967	2323.2369	1019	133.65
960.5287	2324.6674	1025.25	141.1
960.6606	2326.0972	1026.25	141.55
960.7925	2327.5263	1024.5	138.95
960.9244	2328.9547	1034.15	148.45
961.0562	2330.3823	1029	144.5
961.1881	2331.8092	1027.45	141.1
961.3198	2333.2355	1017.55	132.5
961.4516	2334.661	1016.85	134.7
961.5833	2336.0858	1020.5	135.8
961.715	2337.5098	1014.65	132.05
961.8467	2338.9332	1017.9	133.45
961.9783	2340.3558	1016.7	129.9
962.1099	2341.7778	1011.1	127.2
962.2415	2343.199	1016.4	131.25
962.373	2344.6195	1013.55	130.65
962.5045	2346.0393	1011.95	127.75
962.636	2347.4583	1016.1	133.4
962.7675	2348.8767	1013.45	128.8
962.8989	2350.2943	1013.4	128.75
963.0303	2351.7113	1014.4	129
963.1617	2353.1275	1013.55	127.95
963.293	2354.543	1035.55	125
963.4243	2355.9578	1014.15	127.35
963.5556	2357.3718	1009.05	126.2
963.6868	2358.7852	1009.95	123.65
963.818	2360.1978	1009.45	125.65
963.9492	2361.6098	1008.2	125.4
964.0803	2363.021	1013.5	124.5
964.2114	2364.4315	1010.15	127.35
964.3425	2365.8413	1013.05	128.25
964.4736	2367.2504	1008.95	127.1
964.6046	2368.6587	1010	125.65
964.7356	2370.0664	1009.9	126.4
964.8666	2371.4733	1012.4	127.6
964.9975	2372.8795	1008.8	124.1
965.1284	2374.285	1009	123.55
965.2593	2375.6899	1008.05	123.7
965.3901	2377.0939	1006	118.6
965.5209	2378.4973	1006.55	120.55
965.6517	2379.9	1007.9	122
965.7825	2381.3019	1007.05	122.85
965.9132	2382.7032	1006.65	125.1
966.0439	2384.1037	998.45	115.75
966.1745	2385.5035	998.65	115.3
966.3051	2386.9027	1003.65	119.45
966.4357	2388.3011	1007.25	121.3
966.5663	2389.6987	1006	121.35
966.6968	2391.0957	1003.4	120
966.8273	2392.492	999.5	115.85
966.9578	2393.8876	1000.1	116.15
967.0882	2395.2824	999.15	113.7
967.2186	2396.6765	1002.55	116.25
967.349	2398.07	1005.75	120.7
967.4793	2399.4627	1006.7	119.75
967.6097	2400.8547	999.4	114.1
967.7399	2402.246	1007.35	116.6
967.8702	2403.6366	996.6	110.95
968.0004	2405.0265	999.6	115.45
968.1306	2406.4156	1004	116
968.2607	2407.8041	998.2	110.25
968.3909	2409.1918	999.7	114
968.521	2410.5789	997.35	111.65
968.651	2411.9652	1002.85	114.35
968.781	2413.3508	998.5	112.9
968.911	2414.7358	997.15	112.45
969.041	2416.12	998.65	114.85
969.1709	2417.5035	996.5	113.9
969.3008	2418.8863	997.15	110.3
969.4307	2420.2684	996.2	110.8
969.5606	2421.6497	997.2	111.4
969.6904	2423.0304	994.1	110.7
969.8201	2424.4104	996.05	110.45
969.9499	2425.7896	998.9	112.7
970.0796	2427.1682	993.4	108.55
970.2093	2428.546	990.55	105.85
970.3389	2429.9232	994.9	108.15
970.4685	2431.2996	994.2	109.25
970.5981	2432.6753	992.95	107.95
970.7277	2434.0503	994.2	108.6
970.8572	2435.4246	993.35	107.7
970.9867	2436.7982	996.9	110.7
971.1161	2438.1711	992.2	107.95
971.2456	2439.5433	995.35	107.75
971.375	2440.9148	992.75	108.4
971.5043	2442.2856	988.4	104.5
971.6336	2443.6557	994.35	108.25
971.7629	2445.025	990.9	105.5
971.8922	2446.3937	992.4	104.75
972.0214	2447.7617	986.4	101.05
972.1506	2449.1289	989.75	105.65
972.2798	2450.4955	991.55	103.45
972.4089	2451.8613	987.65	104.15
972.538	2453.2265	988.35	103.5
972.6671	2454.5909	989.35	103.25
972.7961	2455.9546	987.65	101.8
972.9251	2457.3177	988.85	106.15
973.0541	2458.68	991.4	102.7
973.1831	2460.0416	987.55	102.9
973.312	2461.4025	987.75	100.85
973.4408	2462.7627	999.25	102.7
973.5697	2464.1222	984.65	101.7
973.6985	2465.4811	988.7	104.25
973.8273	2466.8392	982.65	98.2
973.956	2468.1966	994.25	109.5
974.0847	2469.5533	987.3	101.9
974.2134	2470.9093	989.45	103.45
974.3421	2472.2645	989	101.3
974.4707	2473.6191	987.15	103.2
974.5993	2474.973	985.1	100.9
974.7278	2476.3262	984.7	97.75
974.8563	2477.6787	985.8	101.95
974.9848	2479.0305	983.1	100.4
975.1132	2480.3816	987.9	101.8
975.2417	2481.7319	985.6	100.9
975.37	2483.0816	981.85	95.85
975.4984	2484.4306	984.05	98.75
975.6267	2485.7789	982.25	97.5
975.755	2487.1264	988.5	101.55
975.8833	2488.4733	980.4	95.95
976.0115	2489.8195	987.8	94.25
976.1397	2491.165	985.8	100
976.2678	2492.5097	987.15	103.1
976.3959	2493.8538	980.3	98.2
976.524	2495.1972	984.8	100.7
976.6521	2496.5398	982.95	98.35
976.7801	2497.8818	983.05	95.9
976.9081	2499.2231	983.6	98.85
977.036	2500.5637	981.5	93.9
977.164	2501.9035	982.15	95.9
977.2918	2503.2427	984.6	96.5
977.4197	2504.5812	981.55	98.05
977.5475	2505.919	983.35	95.25
977.6753	2507.256	980.6	96.5
977.8031	2508.5924	975.95	91.85
977.9308	2509.9281	984.75	94.85
978.0585	2511.2631	979.75	96.55
978.1861	2512.5974	978.65	93.15
978.3137	2513.9309	975.9	92.5
978.4413	2515.2638	1003.55	91.4
978.5689	2516.596	979.2	94.45
978.6964	2517.9275	978.8	92.8
978.8239	2519.2583	977.75	93.2
978.9513	2520.5884	978.9	94.1
979.0788	2521.9178	976.25	92.15
979.2062	2523.2465	977	93.65
979.3335	2524.5745	972.3	89.05
979.4608	2525.9018	974.5	89.15
979.5881	2527.2284	973.05	90.35
979.7154	2528.5543	971	87.8
979.8426	2529.8796	974.1	90.7
979.9698	2531.2041	974.05	88.95
980.0969	2532.5279	972.6	88.5
980.224	2533.851	976.95	94.05
980.3511	2535.1735	974.2	90.6
980.4781	2536.4952	974.4	90.95
980.6052	2537.8163	974.95	90.85
980.7321	2539.1366	969.7	86.1
980.8591	2540.4562	974.2	87.75
980.986	2541.7752	975.9	93.2
981.1129	2543.0935	972.15	89.8
981.2397	2544.411	974.35	90
981.3665	2545.7279	975.6	90.6
981.4933	2547.0441	973.45	87.3
981.62	2548.3596	973.4	86.45
981.7467	2549.6744	970.3	84.95
981.8734	2550.9885	978.85	84.9
982.0001	2552.3019	971.5	88.7
982.1267	2553.6146	973.3	87.65
982.2532	2554.9266	972.3	89.15
982.3798	2556.2379	974.65	88.1
982.5063	2557.5485	973.35	91.7
982.6327	2558.8585	976.3	85.75
982.7592	2560.1677	972.35	85.25
982.8856	2561.4762	967.6	81.95
983.0119	2562.7841	974.15	85.75
983.1383	2564.0913	968.3	84.65
983.2646	2565.3977	967.25	83.1
983.3908	2566.7035	970.4	85.25
983.517	2568.0086	972.1	85.45
983.6432	2569.313	974.5	91
983.7694	2570.6167	968.85	81.45
983.8955	2571.9197	968.3	84.75
984.0216	2573.222	974	85.25
984.1476	2574.5236	968.85	85.55
984.2737	2575.8246	970.15	81.45
984.3996	2577.1248	971.6	83.95
984.5256	2578.4244	968.8	86.8
984.6515	2579.7232	969.35	86.9
984.7774	2581.0214	992.65	82.25
984.9032	2582.3189	967.65	84.7
985.029	2583.6157	970.8	81.15
985.1548	2584.9118	967.85	82.7
985.2806	2586.2072	966.6	81.6
985.4063	2587.5019	966	82.3
985.5319	2588.7959	968.8	83.45
985.6576	2590.0893	970.2	84.7
985.7832	2591.3819	967.75	83.7
985.9087	2592.6739	965.45	83.9
986.0343	2593.9652	971.9	88.4
986.1597	2595.2557	968.35	85.8
986.2852	2596.5456	972.4	87
986.4106	2597.8348	967.8	84.75
986.536	2599.1234	968.1	82.15
986.6614	2600.4112	968.2	84.1
986.7867	2601.6983	970.7	83.75
986.912	2602.9848	970.75	85.65
987.0372	2604.2705	975.45	83.2
987.1624	2605.5556	969.9	86.1
987.2876	2606.84	969.15	84.9
987.4128	2608.1237	967.95	82.45
987.5379	2609.4067	965.6	83.55
987.6629	2610.689	973.95	82.9
987.788	2611.9707	969.4	81.7
987.913	2613.2516	971.55	84.75
988.0379	2614.5319	961.95	78.95
988.1629	2615.8115	963	78
988.2878	2617.0903	964.45	80.85
988.4126	2618.3685	963.9	78.45
988.5375	2619.6461	962.25	77.9
988.6622	2620.9229	960.6	76.35
988.787	2622.199	965.95	80.4
988.9117	2623.4745	962.45	78.75
989.0364	2624.7493	959.05	75.75
989.161	2626.0234	961.7	79.35
989.2857	2627.2968	960.85	76.5
989.4102	2628.5695	962.75	74.5
989.5348	2629.8415	960.95	76.65
989.6593	2631.1128	962.05	75.3
989.7837	2632.3835	958.95	77.25
989.9082	2633.6535	959.2	75.35
990.0326	2634.9228	960.65	78.3
990.1569	2636.1914	960.75	77.6
990.2812	2637.4593	961.85	78.1
990.4055	2638.7265	960.6	75.65
990.5298	2639.9931	958.35	73.45
990.654	2641.259	962.4	77.2
990.7782	2642.5242	961.4	78.7
990.9023	2643.7887	956.1	74.35
991.0264	2645.0525	957.3	73.45
991.1505	2646.3156	961.45	76.6
991.2745	2647.5781	957.25	72.55
991.3985	2648.8398	955.75	73.85
991.5225	2650.1009	993.4	72.6
991.6464	2651.3613	958.5	73.55
991.7703	2652.6211	956.1	75.15
991.8942	2653.8801	952.3	68.85
992.018	2655.1385	956.7	71.05
992.1418	2656.3961	955.2	71.05
992.2655	2657.6531	956.2	72.7
992.3892	2658.9094	955.1	71.6
992.5129	2660.1651	958.15	75.9
992.6366	2661.42	957.1	71.25
992.7602	2662.6743	956	72.9
992.8837	2663.9279	956.55	73.5
993.0073	2665.1808	953.9	69.9
993.1307	2666.433	959.6	73
993.2542	2667.6846	954.5	70.2
993.3776	2668.9354	959.55	74.4
993.501	2670.1856	954.1	71.1
993.6244	2671.4351	956.15	72.55
993.7477	2672.6839	957.55	72.95
993.8709	2673.9321	958.6	75.1
993.9942	2675.1795	957.4	73.8
994.1174	2676.4263	956.9	73.85
994.2405	2677.6724	956.8	71.5
994.3637	2678.9179	956.65	71.9
994.4868	2680.1626	954.15	70.15
994.6098	2681.4067	958.5	73.9
994.7328	2682.6501	955.1	70.4
994.8558	2683.8928	958.4	76.6
994.9788	2685.1348	955.6	73.8
995.1017	2686.3761	952.8	71.75
995.2245	2687.6168	953.8	70.95
995.3474	2688.8568	950.4	66.3
995.4702	2690.0961	951.1	69.9
995.5929	2691.3348	951.55	65.8
995.7156	2692.5727	953.2	70.15
995.8383	2693.81	948.95	66.5
995.961	2695.0466	949.25	66.4
996.0836	2696.2826	949.55	63.6
996.2062	2697.5178	955.25	68.35
996.3287	2698.7524	949.9	68.95
996.4512	2699.9863	956	71.45
996.5737	2701.2195	952.1	70.05
996.6961	2702.452	953.85	70.6
996.8185	2703.6839	954.65	72.6
996.9408	2704.9151	951.1	69.95
997.0631	2706.1456	955.1	73.35
997.1854	2707.3755	954.95	70.8
997.3077	2708.6046	954.4	70.05
997.4299	2709.8331	956.8	73.3
997.552	2711.0609	953.9	69.5
997.6742	2712.2881	953.1	70
997.7963	2713.5145	959.6	74.5
997.9183	2714.7403	955.6	73.65
998.0403	2715.9654	960.65	79.65
998.1623	2717.1899	974.1	75
998.2842	2718.4136	958.85	76.45
998.4062	2719.6367	959.5	77.1
998.528	2720.8591	969.8	80.8
998.6498	2722.0809	962.8	79.8
998.7716	2723.3019	965.05	78.55
998.8934	2724.5223	967.8	83.8
999.0151	2725.7421	968.4	82.55
999.1368	2726.9611	966.45	80.85
999.2584	2728.1795	965.75	79.25
999.38	2729.3972	958.75	74.95
999.5016	2730.6142	969.75	79.2
999.6231	2731.8306	955.15	69.6
999.7446	2733.0462	954.7	70.5
999.8661	2734.2612	958.15	72.2
999.9875	2735.4756	953.65	69.8
1000.1089	2736.6892	953.45	69.15
1000.2302	2737.9022	950.05	68.2
1000.3515	2739.1145	949.55	65.35
1000.4728	2740.3262	959.3	68.9
1000.594	2741.5372	946.7	65.55
1000.7152	2742.7475	949.4	66.65
1000.8363	2743.9571	952	69.3
1000.9575	2745.1661	953	64.05
1001.0785	2746.3744	946.55	63.5
1001.1996	2747.582	945.85	62.9
1001.3206	2748.7889	944.45	59.95
1001.4415	2749.9952	940.9	58.6
1001.5625	2751.2008	943.5	59.65
1001.6833	2752.4057	945.15	60.45
1001.8042	2753.61	946.15	61.9
1001.925	2754.8136	941.55	57.05
1002.0458	2756.0165	941.75	59.95
1002.1665	2757.2188	939.55	56.25
1002.2872	2758.4204	943.5	60.8
1002.4078	2759.6213	944.05	59.3
1002.5285	2760.8215	946.4	59.8
1002.649	2762.0211	941.25	56.3
1002.7696	2763.22	945.9	60.3
1002.8901	2764.4182	941.05	57.8
1003.0106	2765.6158	937.95	57.35
1003.131	2766.8127	941.95	59.05
1003.2514	2768.009	938.2	58.35
1003.3717	2769.2045	938.9	52.5
1003.492	2770.3994	942.15	56.75
1003.6123	2771.5936	938.5	53.8
1003.7325	2772.7872	936.85	54.9
1003.8527	2773.9801	938.95	56.2
1003.9729	2775.1723	955.85	55.8
1004.093	2776.3639	935.45	53.85
1004.2131	2777.5548	939.05	54.35
1004.3331	2778.745	939.3	54.65
1004.4531	2779.9346	937.4	56.25
1004.5731	2781.1235	938.75	53.85
1004.693	2782.3117	935.65	54.85
1004.8129	2783.4992	934.65	52.65
1004.9328	2784.6861	937.05	52.6
1005.0526	2785.8723	934.15	51.75
1005.1723	2787.0579	938.1	53.5
1005.2921	2788.2428	935.1	52.1
1005.4118	2789.427	939.6	59
1005.5314	2790.6106	935.2	51.25
1005.651	2791.7935	936.8	55.3
1005.7706	2792.9757	935.65	54.65
1005.8902	2794.1573	938.3	52.4
1006.0097	2795.3382	936.85	55.95
1006.1291	2796.5184	936.8	53.4
1006.2485	2797.698	939.8	55.8
1006.3679	2798.8769	938.45	55.5
1006.4873	2800.0551	939.2	55.45
1006.6066	2801.2327	944.9	58.85
1006.7258	2802.4096	938.1	57.95
1006.8451	2803.5859	940.5	58.55
1006.9642	2804.7615	939.25	53.5
1007.0834	2805.9364	938.45	57.75
1007.2025	2807.1106	940.1	59.5
1007.3216	2808.2842	942.55	60.55
1007.4406	2809.4572	946.25	63.4
1007.5596	2810.6294	945.65	61.4
1007.6785	2811.801	946.7	66.3
1007.7975	2812.972	946.8	65.9
1007.9163	2814.1423	947.6	65.1
1008.0352	2815.3119	954.5	70.2
1008.154	2816.4808	957.65	76.1
1008.2727	2817.6491	961.55	77
1008.3914	2818.8167	963.9	84.55
1008.5101	2819.9837	975.45	86
1008.6288	2821.15	973.75	92.55
1008.7474	2822.3157	982.5	101.65
1008.8659	2823.4807	995.55	111.8
1008.9844	2824.645	1005.75	122.2
1009.1029	2825.8086	1011.3	129.55
1009.2214	2826.9716	1020.65	140
1009.3398	2828.134	1033.45	151.5
1009.4581	2829.2957	1041.9	159.9
1009.5764	2830.4567	1047.9	167.1
1009.6947	2831.617	1052.6	171.1
1009.813	2832.7767	1055.95	175.45
1009.9312	2833.9358	1055.1	173.85
1010.0493	2835.0941	1058	174.35
1010.1675	2836.2519	1051.8	169.8
1010.2855	2837.4089	1050.55	167.4
1010.4036	2838.5653	1040.5	157.75
1010.5216	2839.7211	1038.8	157.45
1010.6396	2840.8761	1038.65	156.05
1010.7575	2842.0306	1034.55	155.55
1010.8754	2843.1843	1033.55	151.9
1010.9932	2844.3374	1033.5	153.2
1011.111	2845.4899	1033.85	151.1
1011.2288	2846.6417	1036.9	154.8
1011.3465	2847.7928	1040.1	158.55
1011.4642	2848.9433	1043.95	162.4
1011.5818	2850.0931	1042.65	158.35
1011.6995	2851.2422	1047.7	163.95
1011.817	2852.3907	1045.9	162.6
1011.9345	2853.5385	1048.55	163.5
1012.052	2854.6857	1078.8	171.15
1012.1695	2855.8323	1047.2	166.65
1012.2869	2856.9781	1058.25	176.85
1012.4042	2858.1233	1054.05	172.95
1012.5216	2859.2679	1059.45	177.9
1012.6389	2860.4118	1068	187.4
1012.7561	2861.555	1078.65	192.5
1012.8733	2862.6976	1079.1	195
1012.9905	2863.8395	1081.5	198.45
1013.1076	2864.9808	1076.15	195.8
1013.2247	2866.1214	1077.7	197.05
1013.3417	2867.2614	1085.4	202.5
1013.4587	2868.4007	1088.7	205.55
1013.5757	2869.5393	1092	209.3
1013.6926	2870.6773	1095.4	211.25
1013.8095	2871.8146	1098.1	214.9
1013.9263	2872.9513	1102.65	217.65
1014.0431	2874.0874	1098.8	217.8
1014.1599	2875.2227	1106.6	223.3
1014.2766	2876.3574	1104.45	222.95
1014.3933	2877.4915	1107.45	228.15
1014.51	2878.6249	1101.35	219.4
1014.6266	2879.7577	1116	235.1
1014.7431	2880.8898	1126.3	231.95
1014.8596	2882.0212	1121.7	240.2
1014.9761	2883.152	1126.55	244.4
1015.0925	2884.2821	1131.5	250.95
1015.2089	2885.4116	1128.4	249.3
1015.3253	2886.5405	1131	247.3
1015.4416	2887.6686	1135.95	251.5
1015.5579	2888.7962	1135.45	256.45
1015.6741	2889.923	1130.45	248.5
1015.7903	2891.0493	1131.1	250.4
1015.9065	2892.1748	1130.95	248.6
1016.0226	2893.2997	1132.45	247.85
1016.1387	2894.424	1130.6	250.7
1016.2547	2895.5476	1134.15	253.65
1016.3707	2896.6706	1133	252.25
1016.4866	2897.7929	1136	251.9
1016.6025	2898.9145	1129.9	248.15
1016.7184	2900.0355	1131.65	249.9
1016.8342	2901.1559	1133.45	251.75
1016.95	2902.2756	1137.35	249.25
1017.0658	2903.3946	1132.9	251.65
1017.1815	2904.513	1127.6	244.55
1017.2971	2905.6308	1119.2	238.7
1017.4127	2906.7479	1128.3	247.2
1017.5283	2907.8643	1119.75	237.45
1017.6439	2908.9801	1121.45	240.3
1017.7594	2910.0953	1120.9	240.1
1017.8748	2911.2098	1125.25	239.75
1017.9902	2912.3236	1135.3	246.1
1018.1056	2913.4368	1128.25	243.2
1018.2209	2914.5494	1115.55	233.75
1018.3362	2915.6613	1119.55	231.45
1018.4515	2916.7725	1119.95	238.15
1018.5667	2917.8831	1115	232.15
1018.6819	2918.9931	1112.4	230.45
1018.797	2920.1024	1108.1	226.8
1018.9121	2921.211	1101.3	221.4
1019.0271	2922.319	1100.6	219.65
1019.1421	2923.4264	1097.95	218.1
1019.2571	2924.5331	1093.5	211.45
1019.372	2925.6391	1091.55	211.7
1019.4869	2926.7445	1091.85	210.15
1019.6017	2927.8493	1099.35	217.3
1019.7165	2928.9534	1095.6	214.6
1019.8313	2930.0569	1101.75	217.2
1019.946	2931.1597	1103	219.75
1020.0606	2932.2619	1101.45	222.55
1020.1753	2933.3634	1101.95	221.35
1020.2899	2934.4643	1113.25	226.55
1020.4044	2935.5645	1113.25	226
1020.5189	2936.6641	1111.3	225.65
1020.6334	2937.763	1108.1	225.55
1020.7478	2938.8613	1109.65	227.9
1020.8622	2939.959	1109.15	221.2
1020.9765	2941.056	1102.85	223.3
1021.0908	2942.1523	1097.5	216
1021.2051	2943.248	1086.9	206.1
1021.3193	2944.3431	1072.25	192.2
1021.4334	2945.4375	1067.1	184.55
1021.5476	2946.5313	1052.95	172.3
1021.6617	2947.6244	1044.4	162.15
1021.7757	2948.7169	1038.65	157.35
1021.8897	2949.8087	1031.55	151.15
1022.0037	2950.8999	1020.7	139.5
1022.1176	2951.9904	1014.5	134.15
1022.2315	2953.0803	1005.75	123.8
1022.3453	2954.1696	1001.1	120.2
1022.4591	2955.2582	996.85	117.8
1022.5728	2956.3462	996.75	115.2
1022.6865	2957.4335	996.75	114.65
1022.8002	2958.5202	999.85	116.05
1022.9138	2959.6062	993.9	112.7
1023.0274	2960.6916	992.2	111.3
1023.141	2961.7764	996.85	115.4
1023.2545	2962.8605	993.55	112.7
1023.3679	2963.9439	992.75	113.85
1023.4813	2965.0267	992.75	110.1
1023.5947	2966.1089	1017.25	113.9
1023.708	2967.1905	991.5	110.85
1023.8213	2968.2714	990.3	110.45
1023.9346	2969.3516	985.55	103.85
1024.0478	2970.4312	993.9	107.05
1024.1609	2971.5102	986.5	106.6
1024.274	2972.5885	987.1	109.45
1024.3871	2973.6662	991.95	103.2
1024.5002	2974.7432	985	103.6
1024.6132	2975.8196	987.2	107
1024.7261	2976.8954	986.55	106.95
1024.839	2977.9705	989.15	107.7
1024.9519	2979.045	986	104.3
1025.0647	2980.1188	989.7	110.05
1025.1775	2981.192	989.65	109.25
1025.2902	2982.2645	986	102.85
1025.4029	2983.3364	986.2	107.15
1025.5156	2984.4077	982.1	98.85
1025.6282	2985.4783	984.7	98.1
1025.7407	2986.5483	970.85	90.6
1025.8532	2987.6177	971.4	90.75
1025.9657	2988.6864	970.25	87.75
1026.0782	2989.7545	968.25	84.2
1026.1906	2990.8219	966.3	85.4
1026.3029	2991.8887	962.75	79.15
1026.4152	2992.9548	956.95	76.4
1026.5275	2994.0204	950.55	70.8
1026.6397	2995.0852	948.15	70.5
1026.7519	2996.1495	949.95	66.5
1026.864	2997.2131	941.55	61.15
1026.9761	2998.276	940.45	59.35
1027.0882	2999.3383	938.35	57.3
1027.2002	3000.4	932.65	51.65
1027.3122	3001.4611	931.45	50.65
1027.4241	3002.5215	930.4	48.2
1027.536	3003.5812	926.6	47.4
1027.6478	3004.6404	925.85	45.3
1027.7596	3005.6989	928.5	43.85
1027.8714	3006.7567	923.8	42.1
1027.9831	3007.8139	947.7	41.75
1028.0947	3008.8705	921.75	42
1028.2064	3009.9264	940.25	40.55
1028.3179	3010.9818	920.35	40.7
1028.4295	3012.0364	919.5	38.55
1028.541	3013.0905	918.9	40.55
1028.6524	3014.1439	919.75	38.3
1028.7638	3015.1966	915.35	36.8
1028.8752	3016.2487	916.65	35.8
1028.9865	3017.3002	922.05	37.65
1029.0978	3018.3511	916.65	36
1029.209	3019.4013	916.75	35.55
1029.3202	3020.4509	916.2	35.05
1029.4314	3021.4998	914.4	31.3
1029.5425	3022.5481	916.45	36.2
1029.6535	3023.5958	915.65	34.35
1029.7645	3024.6428	917.8	34.7
1029.8755	3025.6892	914.25	34.45
1029.9864	3026.735	916.7	38.45
1030.0973	3027.7802	911.7	30.3
1030.2082	3028.8247	916.65	36.65
1030.319	3029.8685	914.75	34.05
1030.4297	3030.9118	917.5	37.85
1030.5404	3031.9544	912.75	32.3
1030.6511	3032.9963	913.9	32.75
1030.7617	3034.0376	913.5	32.35
1030.8723	3035.0783	918.85	36.3
1030.9829	3036.1184	912.45	29.45
1031.0934	3037.1578	912.1	31.55
1031.2038	3038.1966	915.85	33.65
1031.3142	3039.2348	913.55	33.1
1031.4246	3040.2723	924.7	37.3
1031.5349	3041.3092	914.6	37.4
1031.6452	3042.3455	914.95	35.25
1031.7554	3043.3811	918.7	36.75
1031.8656	3044.4161	915.35	32.5
1031.9758	3045.4505	913.7	32.65
1032.0859	3046.4842	915.45	34.15
1032.1959	3047.5173	914.75	37
1032.3059	3048.5498	914.7	35
1032.4159	3049.5816	915.45	36.1
1032.5258	3050.6128	917.5	35.95
1032.6357	3051.6434	915.55	35.65
1032.7455	3052.6734	918.6	38.15
1032.8553	3053.7027	915.05	35.3
1032.9651	3054.7314	912.9	31.8
1033.0748	3055.7594	914.95	35
1033.1845	3056.7868	914.95	33.9
1033.2941	3057.8136	915.95	35.9
1033.4037	3058.8398	912.15	33.05
1033.5132	3059.8653	916.1	37.05
1033.6227	3060.8902	916.55	36.65
1033.7321	3061.9145	915.35	34.4
1033.8415	3062.9381	916.05	36.45
1033.9509	3063.9612	932.55	36.7
1034.0602	3064.9835	917.45	36.55
1034.1694	3066.0053	917.45	36
1034.2787	3067.0264	917.35	37.4
1034.3878	3068.0469	919.6	38.95
1034.497	3069.0668	921.9	39.25
1034.6061	3070.086	916.1	38.4
1034.7151	3071.1046	916.5	34
1034.8241	3072.1226	917.9	36.15
1034.9331	3073.1399	915	35.75
1035.042	3074.1567	915.2	34.7
1035.1508	3075.1727	915.6	34.15
1035.2597	3076.1882	913.75	33.5
1035.3684	3077.203	913.8	32.4
1035.4772	3078.2173	914.25	33
1035.5859	3079.2308	915.45	31.8
1035.6945	3080.2438	912.5	31.1
1035.8031	3081.2561	909.05	29.55
1035.9117	3082.2678	910	30
1036.0202	3083.2789	909.45	29.35
1036.1286	3084.2893	909.9	29.65
1036.2371	3085.2991	908.75	27.4
1036.3454	3086.3083	911.8	27.45
1036.4538	3087.3169	907.1	24.05
1036.562	3088.3248	908.7	25.8
1036.6703	3089.3321	910.9	29.1
1036.7785	3090.3388	902.15	24.05
1036.8866	3091.3449	906.55	26.55
1036.9948	3092.3503	907.8	24.4
1037.1028	3093.3551	901.5	23
1037.2108	3094.3593	906.85	27.45
1037.3188	3095.3629	902.2	24.2
1037.4267	3096.3658	904.85	24.15
1037.5346	3097.3681	904.85	24.6
1037.6425	3098.3698	906.85	23.7
1037.7503	3099.3708	904.55	24.1
1037.858	3100.3713	903.1	22.7
1037.9657	3101.3711	904.4	24.35
1038.0734	3102.3702	1039.15	16.5
1038.181	3103.3688	905.25	24.1
1038.2886	3104.3667	901.85	23.3
1038.3961	3105.364	901.05	19.95
1038.5036	3106.3607	903.45	21.25
1038.611	3107.3568	902.45	22.8
1038.7184	3108.3522	900.45	22.7
1038.8257	3109.347	901.85	20.2
1038.933	3110.3412	902.5	18.6
1039.0403	3111.3348	900.3	21.55
1039.1475	3112.3277	898.25	17.9
1039.2547	3113.32	897.5	18.9
1039.3618	3114.3117	900	18.6
1039.4689	3115.3028	899.5	20.15
1039.5759	3116.2932	900.3	18.2
1039.6829	3117.2831	904.35	19.85
1039.7898	3118.2723	899.1	20.4
1039.8967	3119.2608	898.8	17.85
1040.0035	3120.2488	897.4	15.9
1040.1103	3121.2361	896.95	16.2
1040.2171	3122.2229	895.4	14.4
1040.3238	3123.209	898.1	15.65
1040.4305	3124.1944	897.6	17.4
1040.5371	3125.1793	899.75	17.9
1040.6437	3126.1635	895.8	16.8
1040.7502	3127.1471	894.15	13.7
1040.8567	3128.1301	898.2	17.35
1040.9631	3129.1125	895.5	17.3
1041.0695	3130.0942	896.25	16.45
1041.1759	3131.0753	905.25	17.8
1041.2822	3132.0558	898.2	15.3
1041.3884	3133.0357	898.45	17.15
1041.4946	3134.015	896.45	15
1041.6008	3134.9936	897.15	15.45
1041.7069	3135.9716	917.6	15.3
1041.813	3136.949	894.75	14.65
1041.919	3137.9258	913.75	15.75
1042.025	3138.902	901.4	18.4
1042.1309	3139.8775	894.7	14.25
1042.2368	3140.8524	893.95	15.45
1042.3427	3141.8267	897.25	14.85
1042.4485	3142.8004	896.2	17.1
1042.5542	3143.7735	900.85	15.05
1042.6599	3144.7459	895.5	13.45
1042.7656	3145.7178	896.05	16.6
1042.8712	3146.689	893.9	12.55
1042.9768	3147.6596	895.25	13.6
1043.0823	3148.6295	894.3	12.85
1043.1878	3149.5989	892.4	13.25
1043.2932	3150.5676	892.55	14.4
1043.3986	3151.5357	893.7	16.75
1043.5039	3152.5032	893.35	13.7
1043.6092	3153.4701	891.7	13.1
1043.7145	3154.4364	897.05	15.5
1043.8197	3155.402	892.3	14.55
1043.9248	3156.367	895.15	14.55
1044.03	3157.3315	928.5	13.75
1044.135	3158.2952	895.1	14.85
1044.24	3159.2584	889.4	10.2
1044.345	3160.221	894.6	13.3
1044.4499	3161.1829	892.15	12.85
1044.5548	3162.1442	893	14.15
1044.6596	3163.105	890.95	9.95
1044.7644	3164.065	893.7	13.7
1044.8692	3165.0245	895	11.05
1044.9739	3165.9834	891	14
1045.0785	3166.9416	893.3	14.6
1045.1831	3167.8993	891.6	12.15
1045.2877	3168.8563	894.4	12.9
1045.3922	3169.8127	893.45	14.75
1045.4966	3170.7684	891.5	14.7
1045.6011	3171.7236	892.4	11
1045.7054	3172.6782	893.75	14.9
1045.8098	3173.6321	891.8	11.3
1045.914	3174.5854	895.3	11.85
1046.0183	3175.5381	893.3	16.2
1046.1224	3176.4902	891.95	12.35
1046.2266	3177.4417	890.8	12.25
1046.3307	3178.3926	890.4	8.9
1046.4347	3179.3428	889.4	10.1
1046.5387	3180.2924	890.3	11.75
1046.6427	3181.2415	892.65	13.4
1046.7466	3182.1899	890.9	9.7
1046.8504	3183.1377	889.55	11.2
1046.9542	3184.0848	892.85	8.55
1047.058	3185.0314	890.4	11.65
1047.1617	3185.9773	891.05	10.95
1047.2654	3186.9227	891.35	12.6
1047.369	3187.8674	887.95	8.55
1047.4726	3188.8115	894.85	11.7
1047.5761	3189.755	889.35	9.3
1047.6796	3190.6979	888.35	8.95
1047.783	3191.6402	890.55	11.35
1047.8864	3192.5818	889.2	7.65
1047.9898	3193.5229	913.4	8.05
1048.0931	3194.4633	888.4	8.15
1048.1963	3195.4031	890.1	10.4
1048.2995	3196.3423	890.1	10.65
1048.4027	3197.2809	890	11.4
1048.5058	3198.2189	887.5	7.8
1048.6089	3199.1563	895.15	8.2
1048.7119	3200.0931	888.65	11.2
1048.8148	3201.0292	887.2	6.55
1048.9178	3201.9648	890.15	11.6
1049.0206	3202.8997	895	13.8
1049.1235	3203.834	890.55	9.5
1049.2262	3204.7677	890.4	11.2
1049.329	3205.7008	890.85	9.85
1049.4317	3206.6333	888.7	9.55
1049.5343	3207.5652	890.05	9.2
1049.6369	3208.4964	890.3	10.85
1049.7394	3209.4271	889.55	11.85
1049.8419	3210.3571	887.6	6.85
1049.9444	3211.2865	888.65	6.1
1050.0468	3212.2154	890.35	9.05
1050.1491	3213.1436	893.15	10.65
1050.2514	3214.0712	896	7.4
1050.3537	3214.9982	887.35	9.65
1050.4559	3215.9246	887.85	7.9
1050.5581	3216.8503	887.9	9.4
1050.6602	3217.7755	887.5	7.65
1050.7623	3218.7001	888.1	8.4
1050.8643	3219.624	889.25	9.75
1050.9663	3220.5473	891.65	11.75
1051.0682	3221.4701	890.65	8.05
1051.1701	3222.3922	891.1	10.25
1051.2719	3223.3137	887.4	7.65
1051.3737	3224.2346	887.5	7.15
1051.4754	3225.1549	886.55	7.6
1051.5771	3226.0746	888.25	9.7
1051.6788	3226.9937	887.9	9.2
1051.7804	3227.9121	886.65	7.05
1051.8819	3228.83	887.25	7.35
1051.9834	3229.7473	889.9	11.3
1052.0849	3230.6639	887.85	7.65
1052.1863	3231.5799	886.3	7.6
1052.2876	3232.4954	886.5	7.5
1052.3889	3233.4102	887.1	9.8
1052.4902	3234.3244	887.05	6.1
1052.5914	3235.238	887.2	8.1
1052.6926	3236.151	912.1	8.7
1052.7937	3237.0634	886.05	7.95
1052.8948	3237.9752	886.65	7.35
1052.9958	3238.8864	886.35	6
1053.0968	3239.797	886.45	6.8
1053.1977	3240.7069	887.5	7.1
1053.2986	3241.6163	889.75	8
1053.3994	3242.5251	886	7.3
1053.5002	3243.4332	886.6	6.2
1053.6009	3244.3408	885.35	4.85
1053.7016	3245.2477	886.8	8.55
1053.8022	3246.154	888.15	7.75
1053.9028	3247.0598	888.05	6.25
1054.0034	3247.9649	887.35	10.95
1054.1039	3248.8694	887.7	8.75
1054.2043	3249.7733	886.8	9.1
1054.3047	3250.6766	885.3	6.1
1054.4051	3251.5793	886.25	6
1054.5054	3252.4814	886.45	7.8
1054.6056	3253.3829	884.25	6.1
1054.7058	3254.2838	887.4	9.1
1054.806	3255.1841	887.25	8.4
1054.9061	3256.0838	886.6	7.1
1055.0061	3256.9829	886.3	7.95
1055.1062	3257.8814	888.65	7.55
1055.2061	3258.7792	888.3	8.05
1055.306	3259.6765	885.45	6.45
1055.4059	3260.5731	884.75	5.25
1055.5057	3261.4692	885.4	7.35
1055.6055	3262.3647	885.45	1.55
1055.7052	3263.2595	885.3	8.05
1055.8049	3264.1538	884.7	6.3
1055.9045	3265.0474	886	6
1056.0041	3265.9404	883.25	5.95
1056.1036	3266.8329	883.65	5.25
1056.2031	3267.7247	897	8.45
1056.3025	3268.616	881.85	5.45
1056.4019	3269.5066	885.75	5.65
1056.5013	3270.3966	887.15	7.15
1056.6005	3271.286	883.2	5
