Software Version:	3.9.2.0
Unit SN:	10000200
Spectrometer SN:	6960
Date:	3/8/2024 11:38:05 AM
Data Line Index:	25
Spectral Points:	2048
Integration time (ms):	125
Averages:	20
Delay (ms):	30000
Sequence Number:	1
Processing:	dark subtract
Laser Power (mW):	305
Laser Current (mA):	823
Laser Diode Temp (C):	25.1
Laser Case Temp (C):	25.2
System Temp (C):	25.1
Spectrometer Temp (C):	23.1
CCD Temp (C):	0.007
Secondary Temp (C):	20.001
Heatsink Temp (C):	19.952
CCDPCB Temp (C):	34.039
SecondaryPCB Temp (C):	27.536

Wavelength	RamanShift	Raw Counts	Dark Subtracted
787.061	30.1047	414.55	6.95
787.2016	32.3739	414.35	7.8
787.3422	34.6426	414.9	6.1
787.4828	36.9109	415.2	6.8
787.6235	39.1787	420	5.45
787.7642	41.4461	427.6	10
787.9049	43.7131	431.1	9.9
788.0456	45.9796	434.15	9.55
788.1863	48.2456	439.55	12
788.3271	50.5112	443.15	11.8
788.4679	52.7764	444.95	7.75
788.6087	55.0411	450.35	10.45
788.7496	57.3054	457.95	11.45
788.8904	59.5692	460.8	16.2
789.0313	61.8326	464.1	16.4
789.1722	64.0955	468.8	16.8
789.3132	66.3579	476.35	19.6
789.4541	68.6199	481.3	20.25
789.5951	70.8815	493.05	27.3
789.7361	73.1426	511.7	42.55
789.8771	75.4032	546	74.45
790.0181	77.6634	623.95	149.8
790.1592	79.9231	797.2	316.6
790.3003	82.1824	1165.5	679.9
790.4414	84.4412	1758.95	1261.75
790.5825	86.6995	2517.75	2008.8
790.7237	88.9574	3243	2722.5
790.8648	91.2148	3725.5	3198.95
791.006	93.4717	3940.2	3409.9
791.1472	95.7282	3938.3	3404.7
791.2885	97.9842	3923.45	3387.85
791.4297	100.2398	3875.35	3335.75
791.571	102.4949	3821.75	3277.05
791.7123	104.7495	3787.55	3240.95
791.8536	107.0036	3727.7	3178.75
791.9949	109.2573	3653.2	3108.5
792.1363	111.5105	3553.2	3004.3
792.2777	113.7632	3450.5	2898.55
792.4191	116.0154	3369.2	2807.95
792.5605	118.2672	3240.3	2684.35
792.7019	120.5185	3130.05	2572.25
792.8434	122.7693	3024	2463.6
792.9849	125.0197	2946.45	2381.35
793.1264	127.2696	2859.7	2291.95
793.2679	129.519	2817.2	2246.75
793.4094	131.7679	2767.5	2192.95
793.551	134.0163	2751.8	2176.55
793.6926	136.2642	2754.45	2176.05
793.8342	138.5117	2739.9	2156.4
793.9758	140.7587	2714.4	2133.15
794.1175	143.0052	2659	2071.65
794.2591	145.2512	2609.05	2020.75
794.4008	147.4967	2547.55	1959.65
794.5425	149.7417	2497.85	1905.05
794.6842	151.9863	2484.75	1890.25
794.826	154.2304	2471.1	1872.25
794.9677	156.4739	2461.85	1859
795.1095	158.717	2482.6	1879.3
795.2513	160.9596	2510.75	1899.75
795.3931	163.2017	2521.1	1909.3
795.535	165.4433	2539.15	1923.9
795.6768	167.6844	2532.95	1917.05
795.8187	169.925	2501.45	1879.8
795.9606	172.1651	2444.5	1822.85
796.1025	174.4047	2400.65	1776.5
796.2445	176.6439	2351.1	1722.6
796.3864	178.8825	2326.45	1693.45
796.5284	181.1206	2296.05	1661.85
796.6704	183.3582	2308.75	1672.05
796.8124	185.5954	2300.35	1661.3
796.9544	187.832	2285.9	1644.05
797.0965	190.0681	2293.95	1646.05
797.2386	192.3037	2306.1	1651.75
797.3806	194.5388	2307.6	1651.35
797.5228	196.7734	2328.45	1675
797.6649	199.0075	2343.85	1685.7
797.807	201.2411	2356.3	1699.4
797.9492	203.4742	2374.25	1716.4
798.0914	205.7068	2419.15	1755
798.2336	207.9389	2439.6	1773.3
798.3758	210.1704	2443	1785.95
798.518	212.4015	2434.65	1781.1
798.6603	214.632	2455.55	1813.6
798.8025	216.862	2456.35	1815.4
798.9448	219.0915	2453.55	1806.3
799.0871	221.3205	2467.15	1820.55
799.2294	223.549	2472.7	1831.95
799.3718	225.777	2471.4	1828.3
799.5141	228.0044	2463.05	1813.5
799.6565	230.2314	2466.6	1815.8
799.7989	232.4578	2431.15	1776.05
799.9413	234.6837	2445.55	1780.35
800.0837	236.909	2427.9	1760.4
800.2262	239.1339	2439.5	1748.95
800.3687	241.3582	2425.45	1750.1
800.5111	243.582	2447.45	1739.7
800.6536	245.8053	2447.75	1753.65
800.7961	248.0281	2442.8	1756.75
800.9387	250.2503	2441.5	1748.95
801.0812	252.472	2451.15	1756.2
801.2238	254.6932	2457.05	1765.55
801.3664	256.9139	2468	1773.5
801.509	259.134	2493.2	1792.55
801.6516	261.3536	2508.7	1810.6
801.7942	263.5727	2568.25	1871.8
801.9369	265.7912	2616.5	1918.2
802.0795	268.0092	2675.25	1974.15
802.2222	270.2267	2737.95	2038.75
802.3649	272.4436	2783.95	2083.5
802.5076	274.6601	2829.45	2116.1
802.6504	276.8759	2850.25	2142.1
802.7931	279.0913	2863.75	2153.6
802.9359	281.3061	2886.2	2176.55
803.0787	283.5204	2914.45	2203.95
803.2215	285.7341	2933.75	2216.8
803.3643	287.9473	2947.8	2230.65
803.5071	290.16	2941.1	2219.15
803.6499	292.3721	2905.55	2192.95
803.7928	294.5837	2870.35	2156.9
803.9357	296.7947	2843.95	2130.5
804.0786	299.0052	2837.65	2123.1
804.2215	301.2152	2818.25	2097.25
804.3644	303.4246	2801.2	2086.05
804.5074	305.6334	2776.15	2059.45
804.6503	307.8418	2759.95	2036.7
804.7933	310.0495	2728.7	2006.35
804.9363	312.2568	2694.6	1970.25
805.0793	314.4635	2650.15	1927.8
805.2223	316.6696	2598	1869.65
805.3653	318.8752	2552.9	1817.3
805.5084	321.0802	2514.75	1788.25
805.6514	323.2847	2506.65	1774.45
805.7945	325.4887	2520.3	1791.15
805.9376	327.692	2548.25	1816.25
806.0807	329.8949	2591.8	1858.35
806.2238	332.0972	2628.95	1891
806.367	334.2989	2656.55	1919.3
806.5101	336.5001	2640.7	1901.45
806.6533	338.7007	2602.95	1865.6
806.7965	340.9008	2585	1844.45
806.9397	343.1003	2509.5	1764.45
807.0829	345.2992	2457.15	1713.55
807.2261	347.4976	2423.1	1680.6
807.3693	349.6955	2387.1	1637
807.5126	351.8927	2365.85	1617.1
807.6559	354.0895	2358.55	1596.4
807.7991	356.2856	2340.85	1586.3
807.9424	358.4812	2328.95	1576.6
808.0857	360.6763	2330.1	1577.1
808.2291	362.8707	2326.25	1568.15
808.3724	365.0646	2329.25	1569.7
808.5158	367.258	2335.2	1574.3
808.6591	369.4508	2364.85	1601.1
808.8025	371.643	2393.25	1630.45
808.9459	373.8346	2418.05	1650.15
809.0893	376.0257	2453.9	1685.4
809.2327	378.2162	2476.85	1710.15
809.3762	380.4062	2479.85	1713.5
809.5196	382.5956	2461.1	1693.05
809.6631	384.7844	2418.75	1655.4
809.8066	386.9726	2369.7	1605.9
809.9501	389.1603	2335.6	1576
810.0936	391.3474	2347.8	1552.2
810.2371	393.5339	2330	1568.9
810.3806	395.7199	2329.45	1569.8
810.5241	397.9052	2372.1	1611.2
810.6677	400.09	2404.3	1643.05
810.8113	402.2743	2457.85	1693.55
810.9548	404.4579	2503.15	1735.35
811.0984	406.641	2545.3	1779.75
811.2421	408.8235	2596.9	1830.2
811.3857	411.0054	2647.35	1876.5
811.5293	413.1868	2697.4	1925.1
811.673	415.3675	2756.2	1980.75
811.8166	417.5477	2756.9	1979.5
811.9603	419.7273	2695.85	1915.15
812.104	421.9064	2607.35	1819.15
812.2477	424.0848	2540.65	1761.1
812.3914	426.2627	2468.9	1689.1
812.5351	428.4399	2407.9	1625.35
812.6788	430.6166	2362.2	1574.3
812.8226	432.7928	2311.15	1524.45
812.9663	434.9683	2267.6	1478.85
813.1101	437.1432	2243	1454.6
813.2539	439.3176	2210.9	1420.9
813.3977	441.4914	2197.35	1408.45
813.5415	443.6645	2208.25	1418.7
813.6853	445.8371	2201.45	1412.35
813.8291	448.0091	2201.9	1412.9
813.973	450.1806	2203.1	1413.1
814.1168	452.3514	2197.35	1405.65
814.2607	454.5216	2201.05	1399.4
814.4046	456.6913	2202.4	1407.7
814.5485	458.8603	2197.5	1405.3
814.6924	461.0288	2213.35	1421.95
814.8363	463.1967	2205.7	1414.5
814.9802	465.3639	2202.05	1407.8
815.1241	467.5306	2200.05	1405.05
815.2681	469.6967	2188.85	1394.2
815.412	471.8622	2177.95	1383.25
815.556	474.0271	2176.3	1380.35
815.7	476.1914	2183.25	1381.9
815.844	478.3551	2166.3	1368.1
815.988	480.5182	2175.6	1380.05
816.132	482.6807	2169.05	1373.4
816.276	484.8426	2187.95	1392.25
816.4201	487.0039	2239.1	1442
816.5641	489.1647	2287.4	1487.55
816.7082	491.3248	2344.8	1545.75
816.8522	493.4843	2361.15	1563.65
816.9963	495.6432	2355.85	1553.75
817.1404	497.8015	2324	1516.35
817.2845	499.9592	2282.85	1480.65
817.4286	502.1163	2219.35	1412.5
817.5727	504.2728	2179.5	1374.3
817.7168	506.4287	2149.55	1344.55
817.861	508.5839	2136.5	1333.9
818.0051	510.7386	2127.65	1323.5
818.1493	512.8927	2139.75	1325.4
818.2935	515.0461	2131.85	1322.55
818.4377	517.199	2158.05	1348.7
818.5818	519.3512	2204.9	1397.15
818.726	521.5029	2285.1	1469.75
818.8703	523.6539	2328.5	1517.35
819.0145	525.8043	2336.25	1523.85
819.1587	527.9541	2293.9	1478.35
819.303	530.1033	2216.5	1404.35
819.4472	532.2519	2163.9	1348.05
819.5915	534.3999	2139	1323.35
819.7357	536.5472	2127.95	1313.5
819.88	538.694	2123.65	1311.3
820.0243	540.8401	2154.85	1339.45
820.1686	542.9856	2176.35	1358.2
820.3129	545.1305	2189.4	1369.85
820.4572	547.2748	2195.35	1377
820.6016	549.4185	2211.3	1390.4
820.7459	551.5615	2219.55	1400.4
820.8902	553.704	2238.55	1419.65
821.0346	555.8458	2246.9	1428.9
821.1789	557.987	2282.55	1466.7
821.3233	560.1276	2297	1476.85
821.4677	562.2675	2365.05	1548.1
821.6121	564.4069	2434.5	1614
821.7565	566.5456	2476.45	1659.9
821.9009	568.6837	2464.9	1643.35
822.0453	570.8212	2372.1	1551.2
822.1897	572.958	2293.05	1471.1
822.3342	575.0942	2233.75	1409.35
822.4786	577.2299	2203.4	1380.6
822.6231	579.3648	2175.4	1357.1
822.7675	581.4992	2146.45	1324.6
822.912	583.6329	2148.65	1330.5
823.0565	585.766	2192.45	1372.55
823.201	587.8985	2240.15	1417.25
823.3454	590.0304	2289.75	1451.85
823.4899	592.1616	2320.1	1491.55
823.6345	594.2922	2315.85	1488.85
823.779	596.4222	2271.35	1440.9
823.9235	598.5515	2218.1	1389.75
824.068	600.6802	2155.25	1327.25
824.2126	602.8083	2111.8	1284.5
824.3571	604.9358	2112.15	1282.75
824.5017	607.0626	2095.8	1266.15
824.6462	609.1888	2106	1276.15
824.7908	611.3144	2133.7	1301.8
824.9354	613.4393	2178.1	1346.3
825.08	615.5636	2233.95	1402.7
825.2246	617.6873	2289.75	1458.65
825.3692	619.8103	2317.05	1481.95
825.5138	621.9327	2307.85	1473.55
825.6584	624.0544	2269.45	1436.9
825.803	626.1756	2211.85	1382.2
825.9477	628.2961	2155.8	1321.6
826.0923	630.4159	2135.55	1300.75
826.237	632.5351	2134.45	1298.7
826.3816	634.6537	2119.55	1283.7
826.5263	636.7716	2121.95	1286.15
826.6709	638.8889	2101.85	1265.55
826.8156	641.0056	2099.75	1262.6
826.9603	643.1216	2111.05	1269.75
827.105	645.237	2128.3	1286.5
827.2497	647.3518	2094.55	1256.5
827.3944	649.4659	2075.05	1241.65
827.5391	651.5793	2045.25	1207.4
827.6838	653.6922	2032.25	1196.65
827.8285	655.8043	2019.7	1182.3
827.9733	657.9159	2025.4	1187.75
828.118	660.0268	2000.8	1160.55
828.2627	662.137	2007.9	1167.9
828.4075	664.2466	2014.7	1172.9
828.5522	666.3556	2003.6	1162.95
828.697	668.4639	1995.75	1150.6
828.8418	670.5716	1991	1151.15
828.9865	672.6786	1982.15	1138.45
829.1313	674.785	1977.65	1132.55
829.2761	676.8907	1968.15	1125.05
829.4209	678.9958	1972.45	1129.45
829.5657	681.1002	1961.3	1120.05
829.7105	683.204	1977.9	1129.2
829.8553	685.3072	1978.1	1132.4
830.0001	687.4097	1968.2	1123.45
830.1449	689.5115	1968.75	1120.85
830.2898	691.6127	1969.05	1128.25
830.4346	693.7132	1966.3	1121.8
830.5794	695.8131	1977.1	1124.65
830.7243	697.9123	1979.65	1131.6
830.8691	700.0109	1973.85	1125.6
831.014	702.1089	1984.5	1137.2
831.1588	704.2061	1992.95	1145.25
831.3037	706.3028	2027.1	1176.1
831.4486	708.3987	2050.8	1203.1
831.5935	710.4941	2062.9	1213.65
831.7383	712.5887	2070.8	1220.9
831.8832	714.6827	2069.75	1215.1
832.0281	716.7761	2056.35	1208.7
832.173	718.8688	2060.15	1210
832.3179	720.9608	2068.95	1213.8
832.4628	723.0522	2073.45	1219.85
832.6077	725.1429	2101.85	1252.4
832.7527	727.233	2149.7	1295.45
832.8976	729.3224	2211.9	1358.25
833.0425	731.4112	2260.2	1405.8
833.1874	733.4993	2269.25	1415.8
833.3324	735.5867	2223.2	1371.6
833.4773	737.6735	2139.5	1283.85
833.6222	739.7596	2071.15	1216.1
833.7672	741.845	2047.05	1190.25
833.9122	743.9298	2033.95	1178.2
834.0571	746.014	2044.45	1190.45
834.2021	748.0974	2058.8	1202.9
834.347	750.1802	2069.3	1213.2
834.492	752.2624	2050.2	1195.1
834.637	754.3439	2037.75	1182.75
834.782	756.4247	2043.05	1177.8
834.9269	758.5048	2027.55	1172.6
835.0719	760.5843	2056.7	1198.85
835.2169	762.6631	2095.55	1238.05
835.3619	764.7413	2156.25	1298.65
835.5069	766.8188	2243.2	1386.25
835.6519	768.8956	2329.95	1472.55
835.7969	770.9718	2386.75	1528.6
835.9419	773.0473	2380.8	1524.4
836.0869	775.1221	2353.9	1496.85
836.232	777.1962	2337.1	1477.55
836.377	779.2697	2403.1	1542.8
836.522	781.3426	2512.65	1635.2
836.667	783.4147	2572.3	1713.8
836.8121	785.4862	2549.15	1690.5
836.9571	787.557	2463.45	1604.5
837.1021	789.6271	2321.35	1460.95
837.2472	791.6966	2189.6	1328.7
837.3922	793.7654	2081.2	1219.3
837.5373	795.8335	2027.85	1167.65
837.6823	797.901	2004.5	1144.05
837.8274	799.9678	1983.3	1120.4
837.9724	802.0339	1976.75	1118.15
838.1175	804.0993	1998.95	1126.1
838.2626	806.1641	1983.4	1119.3
838.4076	808.2282	1959.3	1098.15
838.5527	810.2916	1941.9	1077.2
838.6978	812.3544	1921.55	1062.5
838.8428	814.4164	1925.9	1064.7
838.9879	816.4778	1930.45	1068.5
839.133	818.5385	1950.95	1087
839.2781	820.5986	1976.25	1114.35
839.4232	822.658	2033.5	1167.2
839.5682	824.7166	2091.45	1225.25
839.7133	826.7747	2190.95	1326.65
839.8584	828.832	2281.3	1417.85
840.0035	830.8886	2344.4	1477.45
840.1486	832.9446	2372.7	1509.15
840.2937	834.9999	2329.1	1465.7
840.4388	837.0545	2276.7	1408.75
840.5839	839.1085	2158.65	1292.75
840.729	841.1618	2075.4	1205.3
840.8741	843.2143	2025.35	1157.25
841.0192	845.2662	1982.3	1114.65
841.1643	847.3175	1977.05	1109.8
841.3095	849.368	1967.55	1100.35
841.4546	851.4179	1969.05	1104.5
841.5997	853.467	1960.5	1096
841.7448	855.5155	1962.3	1093.35
841.8899	857.5633	1964.15	1096.15
842.0351	859.6105	1959.4	1093.5
842.1802	861.6569	1947.05	1081.2
842.3253	863.7027	1933.35	1062.6
842.4704	865.7478	1912.75	1044.1
842.6156	867.7922	1909.5	1040.95
842.7607	869.8359	1901.5	1034.25
842.9058	871.8789	1898.35	1030.15
843.0509	873.9212	1938.45	1038.85
843.1961	875.9629	1909	1040
843.3412	878.0039	1915.15	1043.85
843.4863	880.0441	1930.3	1064.45
843.6315	882.0837	1953.9	1082.1
843.7766	884.1226	1976.35	1105.8
843.9218	886.1609	2016.25	1148.6
844.0669	888.1984	2076.6	1206.6
844.212	890.2352	2118.45	1248.2
844.3572	892.2714	2130.9	1258
844.5023	894.3069	2098.6	1229.6
844.6475	896.3416	2041.05	1170.8
844.7926	898.3757	2007	1135.55
844.9377	900.4091	1987.7	1116.35
845.0829	902.4418	1981.6	1105.3
845.228	904.4739	2004.6	1132.45
845.3732	906.5052	2008.65	1136.5
845.5183	908.5358	2004	1132.8
845.6635	910.5658	1991.35	1118.55
845.8086	912.595	1961.25	1088
845.9538	914.6236	1908.4	1036.25
846.0989	916.6515	1882.15	1011.8
846.2441	918.6786	1855	983
846.3892	920.7051	1856.4	979.65
846.5344	922.7309	1861	985.9
846.6795	924.756	1844.4	971.65
846.8246	926.7804	1858.2	982.35
846.9698	928.8041	1864.3	991.2
847.1149	930.8272	1890.6	1019
847.2601	932.8495	1898.8	1022.55
847.4052	934.8711	1904.5	1031.7
847.5504	936.892	1907.85	1035
847.6955	938.9123	1937.1	1064.95
847.8407	940.9318	1967.15	1093.3
847.9858	942.9506	1973.2	1097.85
848.131	944.9688	1965.75	1090.35
848.2761	946.9862	1938.45	1065.3
848.4213	949.003	1894.2	1021.15
848.5664	951.019	1875.45	1000.3
848.7115	953.0344	1864.5	989.85
848.8567	955.0491	1850.15	976.45
849.0018	957.063	1837.05	962.5
849.147	959.0763	1841.3	966.5
849.2921	961.0888	1839.05	961.05
849.4373	963.1007	1838.8	964.1
849.5824	965.1119	1829.55	957.15
849.7275	967.1223	1816.95	945.05
849.8727	969.1321	1806.55	936.05
850.0178	971.1412	1814.5	942.05
850.1629	973.1495	1807.45	934.25
850.3081	975.1572	1833.55	923.95
850.4532	977.1641	1808.1	933.8
850.5983	979.1704	1802.85	926.7
850.7435	981.1759	1803.6	923.25
850.8886	983.1808	1804.55	927.35
851.0337	985.1849	1794	904.4
851.1788	987.1884	1787.3	909.2
851.324	989.1911	1795.85	915.7
851.4691	991.1932	1811.85	936.25
851.6142	993.1945	1799.35	925.05
851.7593	995.1951	1801.1	925.75
851.9045	997.1951	1813	932.3
852.0496	999.1943	1793.25	916.25
852.1947	1001.1928	1809.6	932.2
852.3398	1003.1906	1805.05	928.4
852.4849	1005.1877	1835.75	956.6
852.63	1007.1841	1857.25	980.85
852.7751	1009.1798	1861.95	983.15
852.9202	1011.1748	1852.5	976.25
853.0653	1013.1691	1834.6	956.5
853.2104	1015.1627	1806.05	930.45
853.3555	1017.1556	1772.95	898.25
853.5006	1019.1477	1747.5	869.45
853.6457	1021.1392	1731.85	856.5
853.7908	1023.1299	1720.25	842.85
853.9359	1025.12	1726.1	851.4
854.081	1027.1093	1734.5	861.2
854.2261	1029.0979	1754	882.3
854.3712	1031.0859	1764.95	891.75
854.5163	1033.0731	1781.65	903.5
854.6613	1035.0596	1779.65	904.95
854.8064	1037.0454	1781.1	903.8
854.9515	1039.0304	1774.15	895.55
855.0965	1041.0148	1742.4	862.35
855.2416	1042.9985	1731.7	852.9
855.3867	1044.9814	1714.35	836.75
855.5317	1046.9636	1712.3	831.35
855.6768	1048.9452	1709.3	832.4
855.8219	1050.926	1734.05	856.05
855.9669	1052.9061	1736.7	859.1
856.112	1054.8855	1762.6	881.6
856.257	1056.8642	1753.8	875.15
856.4021	1058.8421	1754.65	871.15
856.5471	1060.8194	1750.85	872.45
856.6921	1062.7959	1750.9	868.4
856.8372	1064.7717	1739.35	859.05
856.9822	1066.7469	1738.8	856.65
857.1272	1068.7213	1763.95	880.65
857.2723	1070.695	1770.4	890.5
857.4173	1072.6679	1794.7	913.9
857.5623	1074.6402	1811.9	929.55
857.7073	1076.6117	1824.55	942.1
857.8523	1078.5826	1801.85	922.6
857.9973	1080.5527	1762.9	880.35
858.1423	1082.5221	1714.95	832.15
858.2873	1084.4908	1693.85	814.6
858.4323	1086.4587	1676.35	792.85
858.5773	1088.426	1677.85	797.1
858.7223	1090.3925	1677.85	792.05
858.8673	1092.3584	1677.15	797.15
859.0123	1094.3235	1688.6	808.25
859.1573	1096.2879	1700.05	818.8
859.3022	1098.2515	1728.35	846.6
859.4472	1100.2145	1758.5	880.25
859.5922	1102.1767	1786.4	902.05
859.7371	1104.1382	1843.05	964.3
859.8821	1106.099	1903.95	1021.5
860.027	1108.0591	1947.9	1067.8
860.172	1110.0185	1985.8	1102.25
860.3169	1111.9771	2031.6	1151.7
860.4619	1113.9351	2083.55	1203.05
860.6068	1115.8923	2145.35	1262.2
860.7517	1117.8488	2163.65	1278.55
860.8967	1119.8045	2111.8	1228.45
861.0416	1121.7596	2019.4	1137.75
861.1865	1123.7139	1905.95	1025
861.3314	1125.6675	1852.55	971.8
861.4763	1127.6204	1845.85	964.3
861.6212	1129.5726	1875.65	991.95
861.7661	1131.524	1867.3	987.65
861.911	1133.4748	1827.1	946.85
862.0559	1135.4248	1764.8	881
862.2008	1137.3741	1716.55	832.85
862.3457	1139.3226	1688.3	803.65
862.4905	1141.2705	1684.6	801.95
862.6354	1143.2176	1700.4	811.8
862.7803	1145.164	1719.55	835.05
862.9251	1147.1097	1713.5	831.6
863.07	1149.0546	1684.45	800.5
863.2148	1150.9989	1663.95	779.8
863.3597	1152.9424	1641.2	759.9
863.5045	1154.8852	1624.3	742.05
863.6493	1156.8272	1621.55	739.95
863.7942	1158.7686	1617.05	727.1
863.939	1160.7092	1626.15	741.5
864.0838	1162.6491	1624	739.5
864.2286	1164.5883	1641.8	758.25
864.3734	1166.5267	1656.7	772.35
864.5182	1168.4644	1687.1	804.45
864.663	1170.4014	1717.15	830
864.8078	1172.3377	1747.15	864.55
864.9526	1174.2732	1813.05	931.25
865.0974	1176.2081	1907.5	1024.9
865.2421	1178.1421	2030.2	1145.15
865.3869	1180.0755	2153.15	1272.75
865.5317	1182.0082	2209.75	1328.55
865.6764	1183.9401	2180	1295.95
865.8212	1185.8713	2065.55	1185.25
865.9659	1187.8017	1956	1076.9
866.1106	1189.7315	1843.3	965.1
866.2554	1191.6605	1787.6	879.85
866.4001	1193.5888	1713.75	833.2
866.5448	1195.5163	1689.8	807.55
866.6895	1197.4432	1671.85	788.35
866.8342	1199.3693	1652.05	768.95
866.9789	1201.2947	1639.25	753.45
867.1236	1203.2193	1628.3	744.25
867.2683	1205.1432	1629	743.05
867.413	1207.0664	1627.4	742.8
867.5576	1208.9889	1626.85	740.95
867.7023	1210.9106	1625.25	740.5
867.847	1212.8316	1628.6	747.75
867.9916	1214.7519	1638.8	746.35
868.1363	1216.6715	1647.55	765.2
868.2809	1218.5903	1668.05	787.4
868.4255	1220.5084	1683.85	798.3
868.5701	1222.4257	1689.75	805.4
868.7148	1224.3424	1696.05	813.85
868.8594	1226.2583	1737.05	851.55
869.004	1228.1735	1758.7	873.8
869.1486	1230.0879	1801.15	916.7
869.2932	1232.0016	1843.6	958.75
869.4377	1233.9146	1876.45	992.35
869.5823	1235.8269	1907.45	1023.45
869.7269	1237.7384	1907.75	1024.7
869.8715	1239.6492	1898.6	1014.05
870.016	1241.5592	1917.9	1031.6
870.1606	1243.4686	1969.6	1085.95
870.3051	1245.3772	2046.55	1160.6
870.4496	1247.285	2144.3	1260.3
870.5941	1249.1922	2220.3	1334.25
870.7387	1251.0986	2296.85	1412
870.8832	1253.0042	2373.4	1489.7
871.0277	1254.9092	2446.8	1561.8
871.1722	1256.8134	2532.4	1649.15
871.3167	1258.7169	2631.6	1744.95
871.4611	1260.6196	2651.6	1768.2
871.6056	1262.5216	2667.9	1782
871.7501	1264.4229	2638.35	1756.5
871.8945	1266.3234	2614.5	1730.5
872.039	1268.2232	2560.2	1675.45
872.1834	1270.1223	2511.4	1625.3
872.3278	1272.0207	2470.55	1585.5
872.4723	1273.9183	2445.05	1553.1
872.6167	1275.8151	2453.05	1568.65
872.7611	1277.7113	2497.05	1612
872.9055	1279.6067	2591.35	1707.3
873.0499	1281.5014	2739.3	1852.2
873.1943	1283.3953	2922.2	2036.85
873.3386	1285.2885	3104.9	2220.05
873.483	1287.181	3231.3	2343.8
873.6274	1289.0727	3277.3	2392.75
873.7717	1290.9637	3223.9	2338.45
873.9161	1292.854	3144.9	2261.2
874.0604	1294.7435	3015.9	2130.45
874.2047	1296.6323	2928.75	2042.25
874.349	1298.5204	2822.2	1935.1
874.4933	1300.4077	2748.95	1862.25
874.6376	1302.2943	2695.5	1810
874.7819	1304.1802	2667.25	1784.15
874.9262	1306.0653	2628.2	1740.7
875.0705	1307.9497	2596.35	1710.25
875.2147	1309.8333	2551.9	1667.45
875.359	1311.7162	2512.5	1628.35
875.5032	1313.5984	2483.55	1595.45
875.6475	1315.4798	2462.6	1566.15
875.7917	1317.3605	2460.05	1569.35
875.9359	1319.2405	2448.1	1557.65
876.0801	1321.1197	2423.05	1533.5
876.2243	1322.9982	2355.45	1463.4
876.3685	1324.876	2284.45	1397.85
876.5127	1326.753	2199.75	1315.1
876.6569	1328.6293	2098.9	1211.25
876.801	1330.5048	2018.95	1130.95
876.9452	1332.3796	1936.85	1051.5
877.0893	1334.2537	1911	999.05
877.2335	1336.127	1847.95	960.75
877.3776	1337.9996	1816.7	931.15
877.5217	1339.8714	1801.4	915.4
877.6658	1341.7426	1828.2	898.95
877.8099	1343.6129	1777.3	891.6
877.954	1345.4826	1751.55	866
878.0981	1347.3515	1736.4	847.75
878.2422	1349.2196	1722.75	837.1
878.3862	1351.087	1712.1	825.45
878.5303	1352.9537	1715.05	828.75
878.6743	1354.8197	1728.5	842.45
878.8184	1356.6849	1719.7	833.8
878.9624	1358.5493	1736.3	850.8
879.1064	1360.4131	1773.25	887.9
879.2504	1362.276	1816	930.5
879.3944	1364.1383	1837.4	949.9
879.5384	1365.9998	1866.4	974.45
879.6823	1367.8606	1846.85	960.25
879.8263	1369.7206	1830.25	944.4
879.9702	1371.5799	1837.9	948.2
880.1142	1373.4384	1829.45	944.15
880.2581	1375.2962	1800.65	913.05
880.402	1377.1533	1742.75	854.1
880.5459	1379.0096	1686.65	799.45
880.6898	1380.8652	1658.95	774.7
880.8337	1382.7201	1624.9	740.8
880.9776	1384.5742	1600.85	713.1
881.1215	1386.4275	1579.35	691.35
881.2653	1388.2802	1557.9	673.5
881.4092	1390.132	1539.25	652.05
881.553	1391.9832	1546.8	659.1
881.6968	1393.8336	1539.8	651.2
881.8406	1395.6832	1531.8	642.45
881.9844	1397.5322	1522.6	633.85
882.1282	1399.3803	1519.15	626.85
882.272	1401.2278	1500.35	612.45
882.4158	1403.0745	1492.1	605.25
882.5595	1404.9204	1488.05	601.55
882.7033	1406.7656	1477.6	593.45
882.847	1408.6101	1480.9	593.25
882.9908	1410.4538	1480.75	595.25
883.1345	1412.2968	1475.35	584.95
883.2782	1414.139	1481.8	596.6
883.4219	1415.9805	1487.8	601.55
883.5656	1417.8213	1498	606.35
883.7092	1419.6613	1531.75	644.6
883.8529	1421.5006	1544.6	659.15
883.9965	1423.3391	1587.85	701
884.1402	1425.1769	1638.45	750.2
884.2838	1427.0139	1705.65	815.95
884.4274	1428.8502	1798.75	911.55
884.571	1430.6858	1859.85	971.55
884.7146	1432.5206	1892.85	1007.75
884.8582	1434.3547	1890.35	1002.35
885.0018	1436.188	1862.05	975.4
885.1453	1438.0206	1842.35	956.2
885.2889	1439.8524	1829.8	942.9
885.4324	1441.6835	1840.25	952.1
885.5759	1443.5139	1843.1	953.65
885.7194	1445.3435	1836.85	947.05
885.8629	1447.1724	1844.9	959.65
886.0064	1449.0005	1836.4	949.7
886.1499	1450.8279	1830.65	942.95
886.2933	1452.6545	1824	937.4
886.4368	1454.4804	1821.2	938.55
886.5802	1456.3056	1819.6	925.85
886.7237	1458.13	1796.05	909
886.8671	1459.9536	1772.8	885.55
887.0105	1461.7766	1742.05	855.1
887.1539	1463.5987	1689.5	801.8
887.2972	1465.4202	1649.65	764.1
887.4406	1467.2409	1614.25	727.65
887.584	1469.0608	1586.7	701.45
887.7273	1470.88	1551.3	662.75
887.8706	1472.6984	1528.15	642.4
888.0139	1474.5161	1505.3	614.85
888.1572	1476.3331	1486.8	601.3
888.3005	1478.1493	1480.35	592.7
888.4438	1479.9648	1479.25	591.5
888.5871	1481.7795	1473.4	587.15
888.7303	1483.5935	1475.6	589.25
888.8736	1485.4067	1474.55	586.65
889.0168	1487.2192	1474.35	589.9
889.16	1489.031	1476.05	586.35
889.3032	1490.842	1473.85	586.75
889.4464	1492.6522	1471.35	584.25
889.5896	1494.4618	1475.15	585.9
889.7327	1496.2705	1472.85	585.55
889.8759	1498.0785	1460.35	571.75
890.019	1499.8858	1447.1	559.7
890.1622	1501.6924	1441.5	555
890.3053	1503.4981	1437.2	549.7
890.4484	1505.3032	1433.05	547.55
890.5914	1507.1075	1429.55	542.9
890.7345	1508.911	1416.85	532.3
890.8776	1510.7138	1417.15	528.7
891.0206	1512.5159	1404.7	514.9
891.1637	1514.3172	1402.25	518.3
891.3067	1516.1178	1398.55	511.85
891.4497	1517.9176	1397.1	508.7
891.5927	1519.7166	1388.4	502.85
891.7357	1521.515	1391.9	500
891.8786	1523.3126	1374.95	487.1
892.0216	1525.1094	1379	490.9
892.1645	1526.9055	1363.8	475.55
892.3074	1528.7008	1361.75	476.65
892.4503	1530.4954	1365.1	472.15
892.5932	1532.2893	1362.15	477.65
892.7361	1534.0824	1359.35	467.8
892.879	1535.8747	1353.25	467.7
893.0218	1537.6663	1350.95	465.3
893.1647	1539.4572	1350.25	462.9
893.3075	1541.2473	1351.3	463.8
893.4503	1543.0367	1360.45	475
893.5931	1544.8253	1354.25	463.65
893.7359	1546.6132	1356.95	466.55
893.8787	1548.4003	1368.05	471.55
894.0214	1550.1867	1380.7	487.15
894.1642	1551.9723	1393.65	504.35
894.3069	1553.7572	1392.95	506.05
894.4496	1555.5414	1413.3	529.55
894.5923	1557.3247	1448.15	562.7
894.735	1559.1074	1470.45	586.25
894.8777	1560.8893	1511.25	628.05
895.0204	1562.6705	1555.95	671.2
895.163	1564.4509	1563.7	680.35
895.3056	1566.2305	1588.8	704.95
895.4482	1568.0094	1588.5	704.6
895.5908	1569.7876	1587.9	705.45
895.7334	1571.565	1575.3	690.55
895.876	1573.3417	1576.4	692.75
896.0186	1575.1176	1582.8	696.75
896.1611	1576.8928	1601.35	716
896.3036	1578.6672	1616.45	733.95
896.4461	1580.4409	1652.4	771.05
896.5886	1582.2138	1677.3	793.1
896.7311	1583.986	1719.55	835.45
896.8736	1585.7575	1750.6	866.1
897.0161	1587.5282	1774.65	891.3
897.1585	1589.2981	1815.2	933.6
897.3009	1591.0673	1824.4	940.65
897.4433	1592.8358	1828.4	947
897.5857	1594.6035	1833.05	947.15
897.7281	1596.3704	1831.1	946.9
897.8705	1598.1366	1804.9	920.2
898.0128	1599.9021	1783.6	903
898.1551	1601.6668	1752.65	866.65
898.2975	1603.4308	1738.85	853
898.4398	1605.194	1760.6	872.25
898.5821	1606.9564	1775.1	891.3
898.7243	1608.7182	1836.2	950.1
898.8666	1610.4791	1916.75	1036.75
899.0088	1612.2394	2006.25	1124.2
899.1511	1613.9988	2095.25	1213.35
899.2933	1615.7576	2175.55	1294.65
899.4355	1617.5156	2196.5	1307.4
899.5776	1619.2728	2163.45	1279.3
899.7198	1621.0293	2079.2	1196.95
899.862	1622.785	1965.8	1077.3
900.0041	1624.54	1843.25	957.8
900.1462	1626.2942	1735.85	850.5
900.2883	1628.0477	1649.6	764.95
900.4304	1629.8005	1554.7	669.05
900.5725	1631.5525	1504.05	622.25
900.7145	1633.3037	1459.45	575.6
900.8566	1635.0542	1414.6	531.3
900.9986	1636.804	1377.1	494.9
901.1406	1638.553	1410.6	464.35
901.2826	1640.3013	1335.55	453.1
901.4245	1642.0488	1317.8	432.9
901.5665	1643.7955	1303.15	419.75
901.7085	1645.5416	1303.15	419
901.8504	1647.2868	1291.05	408
901.9923	1649.0313	1276.05	393.2
902.1342	1650.7751	1270.6	384.5
902.2761	1652.5181	1275.75	392.65
902.4179	1654.2604	1272.8	388.1
902.5598	1656.0019	1271.15	387.9
902.7016	1657.7427	1286.25	401.7
902.8434	1659.4828	1305.35	422.75
902.9852	1661.222	1336.65	450.2
903.127	1662.9606	1363.05	479.45
903.2687	1664.6984	1401.75	518
903.4105	1666.4354	1399.95	513.45
903.5522	1668.1717	1381.75	499.25
903.6939	1669.9072	1338.4	453.1
903.8356	1671.642	1298.75	412.4
903.9773	1673.3761	1262.95	381
904.119	1675.1094	1233.85	351.6
904.2606	1676.8419	1214.45	330.45
904.4022	1678.5737	1200.3	316.4
904.5439	1680.3048	1193.15	309.3
904.6855	1682.0351	1180.45	296.2
904.827	1683.7646	1180.55	295.4
904.9686	1685.4934	1178.3	296.1
905.1101	1687.2215	1169.75	287.75
905.2517	1688.9488	1166.25	280.3
905.3932	1690.6754	1161.6	279.3
905.5347	1692.4012	1154.8	271.5
905.6761	1694.1263	1161	275.55
905.8176	1695.8506	1163.05	278.55
905.9591	1697.5742	1147.5	263.7
906.1005	1699.297	1146.7	262.15
906.2419	1701.0191	1149.55	267.25
906.3833	1702.7404	1141.25	259
906.5246	1704.461	1145.9	260.15
906.666	1706.1808	1142.1	257.15
906.8073	1707.8999	1140.8	256.45
906.9487	1709.6182	1134.5	251.25
907.09	1711.3358	1137.35	252.8
907.2313	1713.0527	1130.2	247.95
907.3725	1714.7688	1134.35	245.1
907.5138	1716.4841	1132.25	248.3
907.655	1718.1987	1128.2	239.95
907.7962	1719.9126	1125.2	242.6
907.9374	1721.6257	1127.8	242.2
908.0786	1723.338	1126.05	244.8
908.2198	1725.0496	1122.35	238.15
908.3609	1726.7605	1120.9	235.9
908.502	1728.4706	1121.8	237.85
908.6431	1730.18	1122.05	236.95
908.7842	1731.8886	1119.25	238.2
908.9253	1733.5964	1139.8	235.35
909.0664	1735.3036	1122.4	235.9
909.2074	1737.0099	1115.15	231.75
909.3484	1738.7156	1113.05	232.35
909.4894	1740.4204	1121.5	237.4
909.6304	1742.1246	1120.95	235.5
909.7714	1743.8279	1112.9	231.35
909.9123	1745.5306	1111.25	228.95
910.0532	1747.2325	1116.85	234.8
910.1941	1748.9336	1109.4	226.85
910.335	1750.634	1112.25	226.25
910.4759	1752.3336	1105.25	221.55
910.6168	1754.0325	1103.35	224.2
910.7576	1755.7307	1109.25	228.35
910.8984	1757.4281	1109.1	225.3
911.0392	1759.1247	1121.65	228.3
911.18	1760.8206	1118.5	228.85
911.3208	1762.5158	1112.2	225.3
911.4615	1764.2102	1106.6	224.9
911.6022	1765.9039	1105.2	222.5
911.7429	1767.5968	1102.4	220.5
911.8836	1769.289	1104.35	223.05
912.0243	1770.9804	1101.75	219.05
912.1649	1772.6711	1101.1	217.2
912.3056	1774.361	1105.75	220.75
912.4462	1776.0502	1107.25	221.95
912.5868	1777.7386	1106	218.8
912.7274	1779.4263	1096.75	215.15
912.8679	1781.1132	1100.6	217.3
913.0084	1782.7994	1099.9	215.65
913.149	1784.4849	1099.55	217.75
913.2895	1786.1696	1115.95	214.25
913.4299	1787.8535	1096	216
913.5704	1789.5367	1093.5	210.8
913.7108	1791.2192	1097.4	216
913.8513	1792.9009	1116.35	207.15
913.9917	1794.5818	1101.75	217.7
914.132	1796.2621	1092.45	210.5
914.2724	1797.9415	1090.8	207.9
914.4128	1799.6202	1096.35	212.85
914.5531	1801.2982	1089.7	205.8
914.6934	1802.9755	1092.1	208.55
914.8337	1804.6519	1094.85	212
914.9739	1806.3277	1087	207.35
915.1142	1808.0027	1085.8	204.35
915.2544	1809.6769	1088.4	206.65
915.3946	1811.3504	1093.45	212.2
915.5348	1813.0231	1087.65	205.75
915.675	1814.6951	1087.15	201.85
915.8151	1816.3664	1086.1	200.85
915.9553	1818.0369	1088.05	203.2
916.0954	1819.7067	1087.15	204.15
916.2355	1821.3757	1081.2	194.95
916.3755	1823.044	1084.75	200.15
916.5156	1824.7115	1080.45	196.4
916.6556	1826.3783	1077.35	193.55
916.7956	1828.0443	1081.7	198.8
916.9356	1829.7096	1081.5	198.8
917.0756	1831.3741	1081.75	197.8
917.2155	1833.0379	1078.15	196.95
917.3555	1834.701	1078.85	195.4
917.4954	1836.3633	1080.65	197.2
917.6353	1838.0248	1078.15	195.5
917.7751	1839.6856	1076.1	192.1
917.915	1841.3457	1076.25	193.15
918.0548	1843.005	1073.75	190.05
918.1946	1844.6636	1074.2	193.65
918.3344	1846.3214	1081.2	198.4
918.4742	1847.9785	1077.25	195
918.6139	1849.6349	1077	192.15
918.7537	1851.2904	1086.75	193.2
918.8934	1852.9453	1075.8	192.1
919.0331	1854.5994	1077.6	193.9
919.1727	1856.2528	1077.45	187.3
919.3124	1857.9054	1074.95	191.65
919.452	1859.5572	1069.55	187.85
919.5916	1861.2083	1077.45	190.35
919.7312	1862.8587	1073.3	189.85
919.8708	1864.5084	1073.9	190.15
920.0103	1866.1572	1073.35	191.65
920.1498	1867.8054	1066.85	184.85
920.2893	1869.4528	1067.9	183
920.4288	1871.0994	1070.55	185.7
920.5683	1872.7453	1067.6	182.45
920.7077	1874.3905	1073.25	183.5
920.8471	1876.0349	1064.25	182.15
920.9865	1877.6786	1069.55	184.75
921.1259	1879.3215	1067.2	184.85
921.2653	1880.9637	1063.35	178.65
921.4046	1882.6051	1064.65	181
921.5439	1884.2458	1066.6	182.25
921.6832	1885.8858	1067.6	185.35
921.8225	1887.525	1063.85	178.8
921.9617	1889.1634	1065.7	183.55
922.101	1890.8011	1065.2	180.35
922.2402	1892.4381	1059.4	178.75
922.3794	1894.0743	1060.75	178.5
922.5185	1895.7098	1061.85	178
922.6577	1897.3446	1061.85	179.45
922.7968	1898.9786	1064.75	176.1
922.9359	1900.6118	1058.4	177.85
923.075	1902.2443	1059.95	179.55
923.214	1903.8761	1058.2	174.2
923.3531	1905.5071	1058.55	174.45
923.4921	1907.1374	1061.2	177.8
923.6311	1908.7669	1059.2	176.95
923.77	1910.3957	1058.35	176.7
923.909	1912.0237	1056.15	173.4
924.0479	1913.651	1059.3	176.65
924.1868	1915.2776	1052.25	170.7
924.3257	1916.9034	1050.95	168.8
924.4646	1918.5285	1047.6	166
924.6034	1920.1528	1057.25	174.2
924.7422	1921.7764	1047.65	166.8
924.881	1923.3992	1049.25	167.45
925.0198	1925.0213	1051.15	167.7
925.1586	1926.6427	1050.6	171.25
925.2973	1928.2633	1263.15	162.1
925.436	1929.8832	1059.05	170.85
925.5747	1931.5023	1050.65	166.45
925.7134	1933.1207	1050	165.35
925.852	1934.7383	1050.95	167.2
925.9906	1936.3552	1048.75	166.75
926.1292	1937.9714	1047.75	165.3
926.2678	1939.5868	1050.15	165.3
926.4064	1941.2015	1046.65	161.5
926.5449	1942.8154	1046.9	163.9
926.6834	1944.4286	1045	158.45
926.8219	1946.041	1070.45	163.65
926.9604	1947.6528	1050.65	160.7
927.0988	1949.2637	1046.1	162.45
927.2372	1950.8739	1039.6	155.35
927.3756	1952.4834	1041.05	157.3
927.514	1954.0921	1043.7	162.55
927.6523	1955.7001	1049.5	161.15
927.7907	1957.3074	1044.8	165.15
927.929	1958.9139	1037.45	156.7
928.0673	1960.5197	1045.4	162.35
928.2055	1962.1247	1039.6	157.95
928.3438	1963.729	1037.7	156.5
928.482	1965.3325	1045.95	155.55
928.6202	1966.9353	1036.15	156.65
928.7584	1968.5374	1040.25	157.35
928.8965	1970.1387	1035.4	154.65
929.0346	1971.7393	1037.6	155.2
929.1727	1973.3392	1037.3	154
929.3108	1974.9383	1033.5	153.2
929.4489	1976.5366	1036.8	157.3
929.5869	1978.1342	1036.55	155.4
929.7249	1979.7311	1034.2	151.25
929.8629	1981.3273	1039.85	158.35
930.0009	1982.9227	1037.35	154.2
930.1388	1984.5173	1031.5	150.45
930.2767	1986.1112	1029.25	149.25
930.4146	1987.7044	1032.9	152.85
930.5525	1989.2968	1031.75	148.85
930.6904	1990.8885	1031.15	146.6
930.8282	1992.4795	1029.1	147.1
930.966	1994.0697	1028.95	147.35
931.1038	1995.6592	1030.85	151.75
931.2415	1997.2479	1034.05	153.3
931.3793	1998.8359	1027.35	145.45
931.517	2000.4232	1025.2	146.95
931.6547	2002.0097	1030.1	150.75
931.7923	2003.5955	1028	148.15
931.93	2005.1805	1029.1	147.5
932.0676	2006.7648	1029.85	149.1
932.2052	2008.3484	1029.2	149.4
932.3427	2009.9312	1026.2	143.75
932.4803	2011.5133	1022.95	145.6
932.6178	2013.0946	1029.15	150.65
932.7553	2014.6752	1027.15	146.9
932.8928	2016.2551	1028.55	148.55
933.0302	2017.8342	1025.4	145.85
933.1676	2019.4126	1024.9	146.75
933.305	2020.9902	1022.9	142.5
933.4424	2022.5672	1025.2	143.2
933.5798	2024.1433	1029.35	143.95
933.7171	2025.7188	1018.6	141.1
933.8544	2027.2935	1024.85	143.35
933.9917	2028.8674	1021.4	143.7
934.129	2030.4406	1018.5	140.5
934.2662	2032.0131	1020.15	143.8
934.4034	2033.5849	1022.8	134.25
934.5406	2035.1559	1021.95	143.3
934.6778	2036.7261	1020.95	140.4
934.8149	2038.2957	1022.05	143.8
934.952	2039.8645	1028.25	149.45
935.0891	2041.4325	1024.8	143.4
935.2262	2042.9998	1023.5	143.25
935.3632	2044.5664	1018.3	137.1
935.5002	2046.1323	1021.1	142.75
935.6372	2047.6974	1019.25	139.6
935.7742	2049.2617	1020.35	143.95
935.9111	2050.8254	1044.95	140.05
936.048	2052.3883	1028.2	148.85
936.1849	2053.9504	1023.8	141.55
936.3218	2055.5118	1022.5	142.4
936.4586	2057.0725	1022.5	137.7
936.5955	2058.6325	1013.85	135.35
936.7323	2060.1917	1018.25	138.75
936.869	2061.7502	1018.65	139.5
937.0058	2063.3079	1020.5	141.5
937.1425	2064.8649	1021.8	141.55
937.2792	2066.4212	1019.4	138.85
937.4159	2067.9767	1020.05	140.7
937.5525	2069.5315	1018.85	139.5
937.6891	2071.0856	1023	141.1
937.8257	2072.6389	1021.95	141.45
937.9623	2074.1915	1016.6	139.85
938.0989	2075.7433	1019.15	138.25
938.2354	2077.2945	1017.05	138.3
938.3719	2078.8448	1016.2	135.95
938.5084	2080.3945	1015.2	136.05
938.6448	2081.9434	1020.45	137.9
938.7812	2083.4916	1017	135.2
938.9176	2085.039	1016.9	134.05
939.054	2086.5857	1017.3	134.5
939.1903	2088.1317	1018.25	135.85
939.3267	2089.677	1019.2	137.5
939.463	2091.2215	1016.1	135.35
939.5992	2092.7652	1019.45	136.45
939.7355	2094.3083	1019.6	137
939.8717	2095.8506	1015.55	136.75
940.0079	2097.3921	1016.5	135.6
940.1441	2098.933	1011.8	131.85
940.2802	2100.4731	1015.3	136.05
940.4163	2102.0124	1033.4	133.95
940.5524	2103.5511	1010.45	129.8
940.6885	2105.089	1011.35	130.1
940.8245	2106.6261	1015.65	135.45
940.9606	2108.1626	1015.85	136.15
941.0965	2109.6983	1040.85	133.55
941.2325	2111.2332	1016.6	134.65
941.3684	2112.7675	1015.05	132.85
941.5044	2114.301	1015.05	133.85
941.6403	2115.8337	1012.2	131.35
941.7761	2117.3657	1009.85	130.05
941.912	2118.897	1016.95	135.75
942.0478	2120.4276	1018.65	132.45
942.1835	2121.9575	1016.25	134.65
942.3193	2123.4866	1027.45	130.6
942.455	2125.0149	1019.9	135.4
942.5907	2126.5426	1012.95	133.75
942.7264	2128.0695	1013.55	129.55
942.8621	2129.5956	1010.45	132.2
942.9977	2131.1211	1015.35	131.1
943.1333	2132.6458	1010.8	132.15
943.2689	2134.1698	1009.65	130.4
943.4044	2135.693	1016.75	133.75
943.54	2137.2155	1018.4	135.9
943.6755	2138.7373	1009.4	129.4
943.8109	2140.2584	1013.85	134.05
943.9464	2141.7787	1013.85	128.8
944.0818	2143.2983	1007.3	129.45
944.2172	2144.8171	1008.15	129.4
944.3526	2146.3353	1009.7	126.95
944.4879	2147.8527	1009.5	133.05
944.6232	2149.3693	1009.45	129.85
944.7585	2150.8853	1011.7	130.8
944.8938	2152.4005	1008.65	126.6
945.029	2153.9149	1011.25	131.6
945.1642	2155.4287	1005.95	127.65
945.2994	2156.9417	1007.35	126.45
945.4346	2158.454	1010.05	129
945.5697	2159.9655	1007.65	127.6
945.7048	2161.4764	1006.35	126.3
945.8399	2162.9865	1003.5	123.45
945.9749	2164.4958	1007.15	127.2
946.1099	2166.0045	1011.2	128.55
946.2449	2167.5124	1005.05	127.65
946.3799	2169.0195	1007.1	126.8
946.5148	2170.526	1008.5	128.7
946.6498	2172.0317	1008.4	128.5
946.7846	2173.5367	1005.5	122.95
946.9195	2175.0409	1008.1	128.25
947.0543	2176.5445	1003.1	122.55
947.1891	2178.0473	1008.65	127.65
947.3239	2179.5494	1010.15	126.4
947.4587	2181.0507	1006.15	124.9
947.5934	2182.5513	1005.35	126.45
947.7281	2184.0512	1004.6	124
947.8628	2185.5504	1001.55	119.1
947.9974	2187.0488	1003.6	123.85
948.132	2188.5465	1005.85	124.95
948.2666	2190.0435	1005.25	127.6
948.4012	2191.5397	1003.05	122.25
948.5357	2193.0353	1003.45	125.2
948.6702	2194.5301	1004.4	123.35
948.8047	2196.0241	1008.8	128.35
948.9392	2197.5175	1005.3	123.8
949.0736	2199.0101	1008	124.6
949.208	2200.502	1002.3	122.35
949.3424	2201.9931	1002.35	121.05
949.4767	2203.4835	1005.4	125.65
949.611	2204.9733	1018.15	122.55
949.7453	2206.4622	998.75	118.55
949.8796	2207.9505	1003.15	121.15
950.0138	2209.438	999.8	122
950.148	2210.9248	996.75	114.8
950.2822	2212.4109	997.55	118.4
950.4164	2213.8962	1003.3	121.2
950.5505	2215.3809	1001.45	120.5
950.6846	2216.8648	1000.6	119.05
950.8186	2218.3479	1001.45	115.2
950.9527	2219.8304	1002.55	119
951.0867	2221.3121	1000.85	117
951.2207	2222.7931	998.65	118.25
951.3546	2224.2733	998.65	115.75
951.4886	2225.7529	999.05	116.05
951.6225	2227.2317	995.7	114.4
951.7563	2228.7098	993.4	114.55
951.8902	2230.1872	993.8	112.95
952.024	2231.6638	994.85	114.05
952.1578	2233.1397	999.35	113.9
952.2916	2234.6149	996.85	117.25
952.4253	2236.0894	995.45	114.4
952.559	2237.5632	1003.95	112.55
952.6927	2239.0362	992.05	113.05
952.8263	2240.5085	992.2	113.1
952.9599	2241.9801	992.7	112.5
953.0935	2243.4509	992	112.85
953.2271	2244.921	992.85	111.25
953.3606	2246.3904	999.65	116.55
953.4941	2247.8591	995.4	117.15
953.6276	2249.3271	991.15	111
953.7611	2250.7943	993.1	112.15
953.8945	2252.2608	991.05	112.8
954.0279	2253.7266	992.2	113.1
954.1612	2255.1917	992.7	112.45
954.2946	2256.656	988.2	108.45
954.4279	2258.1197	984.8	106
954.5612	2259.5826	989.65	108.25
954.6944	2261.0447	990.9	111.7
954.8276	2262.5062	988.45	106.6
954.9608	2263.9669	987.8	104.35
955.094	2265.4269	990	112.6
955.2271	2266.8862	987.25	106.3
955.3602	2268.3448	987.6	106.05
955.4933	2269.8026	991.1	109.75
955.6264	2271.2598	987.3	106.65
955.7594	2272.7162	984.2	104.5
955.8924	2274.1719	986.3	104.15
956.0253	2275.6268	987.05	106.3
956.1583	2277.0811	984.95	105.65
956.2912	2278.5346	984.25	105.75
956.4241	2279.9874	988.3	108.7
956.5569	2281.4395	982.85	104.8
956.6897	2282.8908	988.15	104.55
956.8225	2284.3414	986.4	106
956.9553	2285.7914	986.55	106.65
957.088	2287.2406	986.85	103.6
957.2207	2288.689	983.5	103.9
957.3534	2290.1368	987.25	103.3
957.486	2291.5838	987.25	104.2
957.6186	2293.0302	988.35	105.8
957.7512	2294.4758	986.05	106.5
957.8838	2295.9206	984.3	100.6
958.0163	2297.3648	987.75	109.4
958.1488	2298.8082	984.7	104.65
958.2813	2300.251	984.7	104.85
958.4137	2301.693	985.35	100.3
958.5461	2303.1343	985.8	106.8
958.6785	2304.5748	986.1	104.85
958.8108	2306.0147	981.8	102.75
958.9432	2307.4538	983.8	100.65
959.0754	2308.8922	981.55	103.05
959.2077	2310.3299	982.35	102.5
959.3399	2311.7669	981.25	100.9
959.4721	2313.2031	979.9	99.3
959.6043	2314.6387	979.05	98.2
959.7365	2316.0735	982.55	102
959.8686	2317.5076	981.65	101.05
960.0006	2318.941	982.6	101.65
960.1327	2320.3737	981.6	100.65
960.2647	2321.8056	982.8	102.2
960.3967	2323.2369	985.1	102.25
960.5287	2324.6674	986.85	103.45
960.6606	2326.0972	987.85	105.5
960.7925	2327.5263	989.05	107.45
960.9244	2328.9547	988.55	106.65
961.0562	2330.3823	994.05	113.25
961.1881	2331.8092	993.65	108.3
961.3198	2333.2355	982.1	100.95
961.4516	2334.661	979.65	98.5
961.5833	2336.0858	983.25	99.65
961.715	2337.5098	978.05	96.3
961.8467	2338.9332	980.65	100.35
961.9783	2340.3558	980.85	96.05
962.1099	2341.7778	978.55	97.85
962.2415	2343.199	977.9	97.5
962.373	2344.6195	976.05	93.95
962.5045	2346.0393	973	93.25
962.636	2347.4583	978.75	98.45
962.7675	2348.8767	977.4	94.35
962.8989	2350.2943	980.25	98.85
963.0303	2351.7113	976.75	92.75
963.1617	2353.1275	982.15	100.15
963.293	2354.543	996.7	91.95
963.4243	2355.9578	974.95	93
963.5556	2357.3718	974.5	93.45
963.6868	2358.7852	979.85	96.45
963.818	2360.1978	976.4	94.95
963.9492	2361.6098	974.95	94.4
964.0803	2363.021	979.9	93.05
964.2114	2364.4315	975.95	96.1
964.3425	2365.8413	980.05	94.35
964.4736	2367.2504	974.9	95.4
964.6046	2368.6587	974.9	94.55
964.7356	2370.0664	972.35	92.1
964.8666	2371.4733	975.45	97.55
964.9975	2372.8795	976.65	94.95
965.1284	2374.285	972.35	92.3
965.2593	2375.6899	976.4	94.1
965.3901	2377.0939	972.35	90.75
965.5209	2378.4973	972.05	93.05
965.6517	2379.9	971.6	90.15
965.7825	2381.3019	974.35	91.55
965.9132	2382.7032	976.3	96.2
966.0439	2384.1037	972.2	91.2
966.1745	2385.5035	972.3	91.35
966.3051	2386.9027	969.1	90.2
966.4357	2388.3011	973.95	89.35
966.5663	2389.6987	969.65	88.25
966.6968	2391.0957	967.7	85.7
966.8273	2392.492	969.35	87
966.9578	2393.8876	966.85	84.85
967.0882	2395.2824	973.4	91.05
967.2186	2396.6765	966.95	85.65
967.349	2398.07	968.15	86.8
967.4793	2399.4627	968.55	85.85
967.6097	2400.8547	968.55	87.35
967.7399	2402.246	975.7	85
967.8702	2403.6366	971.55	89.3
968.0004	2405.0265	967.05	85.3
968.1306	2406.4156	972.4	85.85
968.2607	2407.8041	969.8	84.5
968.3909	2409.1918	967.1	83.1
968.521	2410.5789	966.8	83
968.651	2411.9652	969.75	82.7
968.781	2413.3508	967.7	84.15
968.911	2414.7358	968.1	85.9
969.041	2416.12	965.45	83.7
969.1709	2417.5035	965.8	83.95
969.3008	2418.8863	968.15	86
969.4307	2420.2684	966.75	82.85
969.5606	2421.6497	965.3	84.55
969.6904	2423.0304	961.4	80.1
969.8201	2424.4104	963.8	82.4
969.9499	2425.7896	969.9	82.95
970.0796	2427.1682	963.1	83.55
970.2093	2428.546	963.1	78.5
970.3389	2429.9232	967.65	84.45
970.4685	2431.2996	966.6	84.85
970.5981	2432.6753	964.05	83.35
970.7277	2434.0503	960.6	79.15
970.8572	2435.4246	961.8	78.95
970.9867	2436.7982	968.6	84.4
971.1161	2438.1711	962.45	82.9
971.2456	2439.5433	963.2	80.2
971.375	2440.9148	963.35	80.7
971.5043	2442.2856	959.45	77.65
971.6336	2443.6557	959.65	77.4
971.7629	2445.025	961.55	81.05
971.8922	2446.3937	964.7	82.2
972.0214	2447.7617	962.55	78.65
972.1506	2449.1289	960.25	80.2
972.2798	2450.4955	962.2	77.35
972.4089	2451.8613	961.4	81.25
972.538	2453.2265	957.45	76.75
972.6671	2454.5909	955.6	71.8
972.7961	2455.9546	956.6	77.85
972.9251	2457.3177	955.6	76.25
973.0541	2458.68	960.5	78.95
973.1831	2460.0416	958.75	79.35
973.312	2461.4025	960.6	76.25
973.4408	2462.7627	967.3	72.35
973.5697	2464.1222	955.45	74.2
973.6985	2465.4811	959.25	74.2
973.8273	2466.8392	958.75	78.35
973.956	2468.1966	962.35	78.25
974.0847	2469.5533	958.85	76.3
974.2134	2470.9093	957.2	75.15
974.3421	2472.2645	959.55	76.85
974.4707	2473.6191	955.65	75.9
974.5993	2474.973	954.45	71.45
974.7278	2476.3262	958.35	73.45
974.8563	2477.6787	953.15	72.85
974.9848	2479.0305	955.25	73.2
975.1132	2480.3816	957.85	75.6
975.2417	2481.7319	960.8	82.15
975.37	2483.0816	956.65	72.2
975.4984	2484.4306	960.75	80.95
975.6267	2485.7789	955.5	76.1
975.755	2487.1264	958.05	73.95
975.8833	2488.4733	953	73.85
976.0115	2489.8195	960.9	74.15
976.1397	2491.165	956.35	74.2
976.2678	2492.5097	957.25	73.15
976.3959	2493.8538	957	76.95
976.524	2495.1972	953.9	69.95
976.6521	2496.5398	960.35	78.05
976.7801	2497.8818	957.95	75.15
976.9081	2499.2231	953.7	71.55
977.036	2500.5637	957.9	76.75
977.164	2501.9035	952.25	70.35
977.2918	2503.2427	954.85	70.05
977.4197	2504.5812	953.35	74.75
977.5475	2505.919	956.35	71.05
977.6753	2507.256	952	69.3
977.8031	2508.5924	949.9	70.6
977.9308	2509.9281	957.15	68.9
978.0585	2511.2631	948	66.7
978.1861	2512.5974	951.7	71.45
978.3137	2513.9309	951.2	69.4
978.4413	2515.2638	972.4	64.7
978.5689	2516.596	952.65	73.75
978.6964	2517.9275	951.85	70.85
978.8239	2519.2583	949.95	68
978.9513	2520.5884	950.95	66.3
979.0788	2521.9178	952.75	70.6
979.2062	2523.2465	948.1	68.45
979.3335	2524.5745	947.25	64.7
979.4608	2525.9018	949.9	69.95
979.5881	2527.2284	950.4	69.4
979.7154	2528.5543	946.4	67.2
979.8426	2529.8796	948.85	65.35
979.9698	2531.2041	948.55	68.4
980.0969	2532.5279	945	64.55
980.224	2533.851	949.85	69.85
980.3511	2535.1735	945	64.9
980.4781	2536.4952	949.65	67.95
980.6052	2537.8163	949.6	67.4
980.7321	2539.1366	947.65	67.05
980.8591	2540.4562	950.1	68.05
980.986	2541.7752	949.15	70.45
981.1129	2543.0935	947.9	65.55
981.2397	2544.411	947.25	64.55
981.3665	2545.7279	946.4	63.25
981.4933	2547.0441	947.5	66.4
981.62	2548.3596	950.55	68.15
981.7467	2549.6744	945.85	64.5
981.8734	2550.9885	953.65	63.8
982.0001	2552.3019	945.35	65.6
982.1267	2553.6146	946.25	65.55
982.2532	2554.9266	950.85	69.45
982.3798	2556.2379	946.6	64.85
982.5063	2557.5485	944.05	65.45
982.6327	2558.8585	954.85	66.05
982.7592	2560.1677	952.1	65.8
982.8856	2561.4762	947.35	65.05
983.0119	2562.7841	950.4	65.65
983.1383	2564.0913	943.5	63.8
983.2646	2565.3977	946.55	66.15
983.3908	2566.7035	942.4	59.1
983.517	2568.0086	949.45	67.9
983.6432	2569.313	942.4	60.5
983.7694	2570.6167	949.1	65.3
983.8955	2571.9197	944.25	66.65
984.0216	2573.222	948.8	64.65
984.1476	2574.5236	945.6	64.35
984.2737	2575.8246	947.7	63
984.3996	2577.1248	944.4	60.15
984.5256	2578.4244	944.1	64.45
984.6515	2579.7232	939.4	58.25
984.7774	2581.0214	971.8	66.25
984.9032	2582.3189	940.7	61.8
985.029	2583.6157	951.55	65.7
985.1548	2584.9118	944.7	65.35
985.2806	2586.2072	942.85	63.7
985.4063	2587.5019	943.75	61.5
985.5319	2588.7959	946.35	63.1
985.6576	2590.0893	948.25	65.25
985.7832	2591.3819	946.15	66.35
985.9087	2592.6739	941.6	62.85
986.0343	2593.9652	948.75	66.55
986.1597	2595.2557	945.7	65.2
986.2852	2596.5456	945.85	62
986.4106	2597.8348	943	62.85
986.536	2599.1234	943.85	63.2
986.6614	2600.4112	944.95	62.6
986.7867	2601.6983	945.35	60.8
986.912	2602.9848	945.05	64.75
987.0372	2604.2705	952.85	64.4
987.1624	2605.5556	944.85	62.85
987.2876	2606.84	944.75	63.9
987.4128	2608.1237	945.05	63.65
987.5379	2609.4067	944.2	62.1
987.6629	2610.689	953.1	64.65
987.788	2611.9707	946.5	61.35
987.913	2613.2516	945.35	59.65
988.0379	2614.5319	939.25	58.1
988.1629	2615.8115	940.9	58.25
988.2878	2617.0903	940.2	57.6
988.4126	2618.3685	941.1	58.45
988.5375	2619.6461	941.4	58.55
988.6622	2620.9229	942.75	62.75
988.787	2622.199	942.6	61.2
988.9117	2623.4745	939.55	55.85
989.0364	2624.7493	935.15	55.2
989.161	2626.0234	937.1	58.25
989.2857	2627.2968	939.55	58.8
989.4102	2628.5695	939.9	57.25
989.5348	2629.8415	938.05	58.15
989.6593	2631.1128	942.05	59.7
989.7837	2632.3835	940.75	60.6
989.9082	2633.6535	934.25	54.05
990.0326	2634.9228	938.25	58
990.1569	2636.1914	939.65	58.9
990.2812	2637.4593	941.5	55.65
990.4055	2638.7265	940.7	60.2
990.5298	2639.9931	941.6	62
990.654	2641.259	937.7	54.3
990.7782	2642.5242	937.4	57.15
990.9023	2643.7887	935.1	55.45
991.0264	2645.0525	937.95	55.8
991.1505	2646.3156	936.4	54.55
991.2745	2647.5781	935.85	55.2
991.3985	2648.8398	933.35	53
991.5225	2650.1009	944	54.05
991.6464	2651.3613	935.35	53.85
991.7703	2652.6211	933	51.85
991.8942	2653.8801	933.7	55.45
992.018	2655.1385	939.25	57.35
992.1418	2656.3961	934.9	54.8
992.2655	2657.6531	934.3	53.55
992.3892	2658.9094	934.15	52.85
992.5129	2660.1651	934.75	55.5
992.6366	2661.42	935.35	53.9
992.7602	2662.6743	936.85	54.7
992.8837	2663.9279	933.35	51.6
993.0073	2665.1808	933.15	55.45
993.1307	2666.433	937.75	55.3
993.2542	2667.6846	933.2	51.75
993.3776	2668.9354	937.7	54.9
993.501	2670.1856	932.9	51.95
993.6244	2671.4351	936.4	56.5
993.7477	2672.6839	934.05	52.5
993.8709	2673.9321	936.3	57.3
993.9942	2675.1795	937.4	54.4
994.1174	2676.4263	935.9	55.15
994.2405	2677.6724	935.4	57.1
994.3637	2678.9179	935.8	53.45
994.4868	2680.1626	937.45	57.45
994.6098	2681.4067	935.1	54.3
994.7328	2682.6501	935.85	54.7
994.8558	2683.8928	934.05	53.4
994.9788	2685.1348	934.65	54.4
995.1017	2686.3761	933.9	55.35
995.2245	2687.6168	934.85	53.7
995.3474	2688.8568	932.15	51.65
995.4702	2690.0961	931.3	53.7
995.5929	2691.3348	934.45	54.6
995.7156	2692.5727	929.6	48.8
995.8383	2693.81	932	49.75
995.961	2695.0466	927.2	48.55
996.0836	2696.2826	934.95	54.05
996.2062	2697.5178	951.65	67.05
996.3287	2698.7524	931	52.4
996.4512	2699.9863	931.35	49.75
996.5737	2701.2195	929.3	52.05
996.6961	2702.452	934.95	53.05
996.8185	2703.6839	932.65	53.7
996.9408	2704.9151	933.9	54.2
997.0631	2706.1456	932.7	52.7
997.1854	2707.3755	932.75	49.8
997.3077	2708.6046	936.85	55.15
997.4299	2709.8331	933.95	51.3
997.552	2711.0609	936.05	53.55
997.6742	2712.2881	935.1	54
997.7963	2713.5145	940.1	57.45
997.9183	2714.7403	932.7	53.15
998.0403	2715.9654	935.2	54.4
998.1623	2717.1899	951.25	54.9
998.2842	2718.4136	936.7	57.4
998.4062	2719.6367	938.2	60.15
998.528	2720.8591	942.6	56.35
998.6498	2722.0809	940.15	58.45
998.7716	2723.3019	945.75	62
998.8934	2724.5223	942.55	60.1
999.0151	2725.7421	940.7	58.65
999.1368	2726.9611	942.95	60.65
999.2584	2728.1795	943.8	61.2
999.38	2729.3972	938.25	58.1
999.5016	2730.6142	944.9	57.9
999.6231	2731.8306	936.85	56
999.7446	2733.0462	937.35	54.75
999.8661	2734.2612	940.7	53.75
999.9875	2735.4756	936	55.1
1000.1089	2736.6892	933.8	52.55
1000.2302	2737.9022	933	54.65
1000.3515	2739.1145	930.5	48.75
1000.4728	2740.3262	940.6	53
1000.594	2741.5372	927.25	49.7
1000.7152	2742.7475	928.05	47.1
1000.8363	2743.9571	929.35	46.55
1000.9575	2745.1661	934.05	47.85
1001.0785	2746.3744	930.7	50.1
1001.1996	2747.582	929.1	49.5
1001.3206	2748.7889	925.1	44
1001.4415	2749.9952	922.6	42.55
1001.5625	2751.2008	925	43.85
1001.6833	2752.4057	926.3	43.7
1001.8042	2753.61	923.35	42.45
1001.925	2754.8136	926.05	43.35
1002.0458	2756.0165	925.4	44.35
1002.1665	2757.2188	923.4	42.9
1002.2872	2758.4204	922.6	41.65
1002.4078	2759.6213	926.45	42.65
1002.5285	2760.8215	929.35	45.55
1002.649	2762.0211	926.8	44.55
1002.7696	2763.22	927.75	44.35
1002.8901	2764.4182	926.05	45.5
1003.0106	2765.6158	924.45	43.35
1003.131	2766.8127	921.4	42.55
1003.2514	2768.009	923.3	43.05
1003.3717	2769.2045	926.05	43.5
1003.492	2770.3994	923	40.55
1003.6123	2771.5936	922.45	41.55
1003.7325	2772.7872	920.15	42.1
1003.8527	2773.9801	918.95	36.85
1003.9729	2775.1723	939.2	41.45
1004.093	2776.3639	915.95	37.85
1004.2131	2777.5548	922.6	39.4
1004.3331	2778.745	925.6	44.4
1004.4531	2779.9346	920.75	42.95
1004.5731	2781.1235	924	41.4
1004.693	2782.3117	919.4	40.6
1004.8129	2783.4992	918.4	39.1
1004.9328	2784.6861	919.25	39
1005.0526	2785.8723	919.65	38.4
1005.1723	2787.0579	921.35	41.3
1005.2921	2788.2428	920	40.6
1005.4118	2789.427	918.3	38.6
1005.5314	2790.6106	920.7	42.2
1005.651	2791.7935	921.55	40.55
1005.7706	2792.9757	921.9	42.25
1005.8902	2794.1573	923.65	41.2
1006.0097	2795.3382	919.85	40.55
1006.1291	2796.5184	917.9	38.75
1006.2485	2797.698	920.85	39.85
1006.3679	2798.8769	919.3	38.1
1006.4873	2800.0551	921.6	41.75
1006.6066	2801.2327	923.45	40.7
1006.7258	2802.4096	923.1	46
1006.8451	2803.5859	921.85	43.45
1006.9642	2804.7615	925.15	46.7
1007.0834	2805.9364	925.1	45.95
1007.2025	2807.1106	925.25	47.95
1007.3216	2808.2842	925.1	44.7
1007.4406	2809.4572	925.2	44.15
1007.5596	2810.6294	926.4	45.65
1007.6785	2811.801	928.8	48.3
1007.7975	2812.972	929.55	49.35
1007.9163	2814.1423	931.85	54.35
1008.0352	2815.3119	932.55	51.8
1008.154	2816.4808	935.6	57.85
1008.2727	2817.6491	942.05	60.9
1008.3914	2818.8167	940.5	62.6
1008.5101	2819.9837	949.8	64.1
1008.6288	2821.15	952.05	73.1
1008.7474	2822.3157	954.7	76.8
1008.8659	2823.4807	963.4	84.35
1008.9844	2824.645	972	91.15
1009.1029	2825.8086	975.8	97.7
1009.2214	2826.9716	983.1	103.55
1009.3398	2828.134	991.7	112.25
1009.4581	2829.2957	999.2	118.95
1009.5764	2830.4567	1002.25	125.1
1009.6947	2831.617	1011.15	132.05
1009.813	2832.7767	1011.9	133.05
1009.9312	2833.9358	1009.7	132.45
1010.0493	2835.0941	1013.8	133.65
1010.1675	2836.2519	1007.65	128.65
1010.2855	2837.4089	1000.05	119.6
1010.4036	2838.5653	998.05	118
1010.5216	2839.7211	994.4	113.95
1010.6396	2840.8761	994.1	112.9
1010.7575	2842.0306	986.15	107.95
1010.8754	2843.1843	993	113.9
1010.9932	2844.3374	995.55	116.7
1011.111	2845.4899	995.9	115.55
1011.2288	2846.6417	991.45	113.6
1011.3465	2847.7928	996.1	117.4
1011.4642	2848.9433	998.3	119.55
1011.5818	2850.0931	1001.15	122.25
1011.6995	2851.2422	999	117.6
1011.817	2852.3907	1000.55	121.75
1011.9345	2853.5385	1007.8	125.5
1012.052	2854.6857	1030.55	124.4
1012.1695	2855.8323	1007.5	128.75
1012.2869	2856.9781	1008.35	129.6
1012.4042	2858.1233	1015.4	134.85
1012.5216	2859.2679	1018.7	140.35
1012.6389	2860.4118	1020.6	141.75
1012.7561	2861.555	1029.95	147.3
1012.8733	2862.6976	1026.85	146.25
1012.9905	2863.8395	1026.15	147.3
1013.1076	2864.9808	1029.35	149.8
1013.2247	2866.1214	1030.7	152
1013.3417	2867.2614	1032.95	152
1013.4587	2868.4007	1033.95	153.2
1013.5757	2869.5393	1036.65	155.65
1013.6926	2870.6773	1039.75	157.15
1013.8095	2871.8146	1037.65	154.5
1013.9263	2872.9513	1044.1	163.1
1014.0431	2874.0874	1040.2	160.3
1014.1599	2875.2227	1043.65	163.4
1014.2766	2876.3574	1045.8	166.65
1014.3933	2877.4915	1045.15	166.55
1014.51	2878.6249	1048.5	168.9
1014.6266	2879.7577	1051.8	169.8
1014.7431	2880.8898	1062.1	173.85
1014.8596	2882.0212	1054.15	176.2
1014.9761	2883.152	1055.65	173.35
1015.0925	2884.2821	1058.1	180.15
1015.2089	2885.4116	1059.15	179.35
1015.3253	2886.5405	1061.15	183
1015.4416	2887.6686	1066.8	183.4
1015.5579	2888.7962	1064.15	185.4
1015.6741	2889.923	1062.75	183.55
1015.7903	2891.0493	1062.3	185.4
1015.9065	2892.1748	1063	182.45
1016.0226	2893.2997	1067.55	189.25
1016.1387	2894.424	1060.9	182.35
1016.2547	2895.5476	1064.15	183.75
1016.3707	2896.6706	1065.9	189.2
1016.4866	2897.7929	1064.85	184.55
1016.6025	2898.9145	1065.7	185
1016.7184	2900.0355	1065	186.75
1016.8342	2901.1559	1065.1	184.45
1016.95	2902.2756	1069.45	184.95
1017.0658	2903.3946	1060.55	181.5
1017.1815	2904.513	1067.3	187.45
1017.2971	2905.6308	1063.85	186.35
1017.4127	2906.7479	1063.6	181.35
1017.5283	2907.8643	1060.7	183.25
1017.6439	2908.9801	1058.5	177
1017.7594	2910.0953	1058.05	180.7
1017.8748	2911.2098	1066	183.05
1017.9902	2912.3236	1074.8	188.35
1018.1056	2913.4368	1068.15	186.75
1018.2209	2914.5494	1058.4	179.45
1018.3362	2915.6613	1063.25	178.3
1018.4515	2916.7725	1059.9	178.5
1018.5667	2917.8831	1051.65	170.8
1018.6819	2918.9931	1055.9	174.75
1018.797	2920.1024	1047.5	167.35
1018.9121	2921.211	1044.6	164.5
1019.0271	2922.319	1043.85	165.5
1019.1421	2923.4264	1039.35	159.7
1019.2571	2924.5331	1041.25	164.6
1019.372	2925.6391	1041.15	163.35
1019.4869	2926.7445	1041.1	163.2
1019.6017	2927.8493	1042.7	162.8
1019.7165	2928.9534	1042.65	162.9
1019.8313	2930.0569	1045.35	164.35
1019.946	2931.1597	1046.5	165.65
1020.0606	2932.2619	1048.6	169.65
1020.1753	2933.3634	1045.3	167.2
1020.2899	2934.4643	1054.6	168.3
1020.4044	2935.5645	1055.4	169.65
1020.5189	2936.6641	1048.5	164.95
1020.6334	2937.763	1044.1	167
1020.7478	2938.8613	1050.55	170.3
1020.8622	2939.959	1051.85	167.6
1020.9765	2941.056	1042.75	165.15
1021.0908	2942.1523	1040.7	160.15
1021.2051	2943.248	1029.05	149.75
1021.3193	2944.3431	1021.9	142.6
1021.4334	2945.4375	1014.9	134.7
1021.5476	2946.5313	1008.9	130.45
1021.6617	2947.6244	1001.55	123.55
1021.7757	2948.7169	999	118.15
1021.8897	2949.8087	990.05	112.35
1022.0037	2950.8999	984.95	103.95
1022.1176	2951.9904	980.35	101.6
1022.2315	2953.0803	975.25	95.95
1022.3453	2954.1696	970.2	90.35
1022.4591	2955.2582	962.2	86.4
1022.5728	2956.3462	965.6	85.6
1022.6865	2957.4335	965.3	86.5
1022.8002	2958.5202	966.05	84.55
1022.9138	2959.6062	963.65	84.5
1023.0274	2960.6916	961.9	83.5
1023.141	2961.7764	962.65	83.3
1023.2545	2962.8605	963.25	85.25
1023.3679	2963.9439	961.35	83.05
1023.4813	2965.0267	962.65	83.05
1023.5947	2966.1089	984.5	81.25
1023.708	2967.1905	960.2	81.9
1023.8213	2968.2714	959.45	79.45
1023.9346	2969.3516	958.35	80.05
1024.0478	2970.4312	965.9	79.85
1024.1609	2971.5102	960.8	86.45
1024.274	2972.5885	956.1	78.65
1024.3871	2973.6662	964.9	81.8
1024.5002	2974.7432	961.3	82.85
1024.6132	2975.8196	961.25	83.8
1024.7261	2976.8954	957.45	81.15
1024.839	2977.9705	955.6	76.85
1024.9519	2979.045	958.9	79.05
1025.0647	2980.1188	957.2	77.95
1025.1775	2981.192	956.95	78.1
1025.2902	2982.2645	958.2	81.55
1025.4029	2983.3364	958.15	80.45
1025.5156	2984.4077	955.4	75.65
1025.6282	2985.4783	957.25	71.9
1025.7407	2986.5483	950.15	73.05
1025.8532	2987.6177	947.1	67.05
1025.9657	2988.6864	945.95	68.8
1026.0782	2989.7545	944.35	62.6
1026.1906	2990.8219	939.8	61.05
1026.3029	2991.8887	942.15	61.05
1026.4152	2992.9548	935.9	56.8
1026.5275	2994.0204	934	57
1026.6397	2995.0852	928.75	51.65
1026.7519	2996.1495	929.55	50.45
1026.864	2997.2131	924.4	45.4
1026.9761	2998.276	923.8	44.95
1027.0882	2999.3383	920.15	41
1027.2002	3000.4	916.45	36
1027.3122	3001.4611	917.65	35.7
1027.4241	3002.5215	914.9	36.55
1027.536	3003.5812	915.7	36.65
1027.6478	3004.6404	913.05	36.75
1027.7596	3005.6989	915.05	36.9
1027.8714	3006.7567	910.5	32.35
1027.9831	3007.8139	942.7	32.8
1028.0947	3008.8705	912.35	34.7
1028.2064	3009.9264	913.55	30.15
1028.3179	3010.9818	906.85	29.5
1028.4295	3012.0364	908.9	29.6
1028.541	3013.0905	907.15	29.15
1028.6524	3014.1439	909.2	30.25
1028.7638	3015.1966	907.75	30.65
1028.8752	3016.2487	905.65	27.2
1028.9865	3017.3002	912.05	31.5
1029.0978	3018.3511	904.5	26.8
1029.209	3019.4013	903.45	25.1
1029.3202	3020.4509	902.55	24.7
1029.4314	3021.4998	906.55	27.85
1029.5425	3022.5481	903	25.25
1029.6535	3023.5958	906.05	28.55
1029.7645	3024.6428	905.25	25.55
1029.8755	3025.6892	905.6	28.25
1029.9864	3026.735	904.95	25.65
1030.0973	3027.7802	903.25	25.15
1030.2082	3028.8247	901.15	22.7
1030.319	3029.8685	905.25	27.65
1030.4297	3030.9118	904.5	25.3
1030.5404	3031.9544	902.45	23.65
1030.6511	3032.9963	904.5	27.25
1030.7617	3034.0376	901.5	21.9
1030.8723	3035.0783	906	24.25
1030.9829	3036.1184	903.05	23.4
1031.0934	3037.1578	901.4	24.6
1031.2038	3038.1966	905.45	25.15
1031.3142	3039.2348	901.45	23.4
1031.4246	3040.2723	911.05	23.55
1031.5349	3041.3092	902.6	27.6
1031.6452	3042.3455	901	21.3
1031.7554	3043.3811	903.95	24.4
1031.8656	3044.4161	904.75	23.5
1031.9758	3045.4505	904.4	27.3
1032.0859	3046.4842	905.55	27.2
1032.1959	3047.5173	903.85	24.7
1032.3059	3048.5498	904.4	26.75
1032.4159	3049.5816	901.75	25.15
1032.5258	3050.6128	904.4	24.05
1032.6357	3051.6434	906.55	25.6
1032.7455	3052.6734	906.7	28.1
1032.8553	3053.7027	905.15	25.9
1032.9651	3054.7314	904.6	25.65
1033.0748	3055.7594	902.9	25.1
1033.1845	3056.7868	906.35	26.4
1033.2941	3057.8136	904.95	26.8
1033.4037	3058.8398	904.45	27.8
1033.5132	3059.8653	903.35	24.75
1033.6227	3060.8902	904.8	27.35
1033.7321	3061.9145	908.5	30.15
1033.8415	3062.9381	906.4	27.5
1033.9509	3063.9612	924.05	30.95
1034.0602	3064.9835	906.4	29.8
1034.1694	3066.0053	909.8	29.8
1034.2787	3067.0264	905.4	26.4
1034.3878	3068.0469	909.65	29.65
1034.497	3069.0668	906.6	24
1034.6061	3070.086	904.8	29.15
1034.7151	3071.1046	906.2	27.7
1034.8241	3072.1226	906.35	28.3
1034.9331	3073.1399	905.05	26.85
1035.042	3074.1567	905.75	26.9
1035.1508	3075.1727	905.25	25.8
1035.2597	3076.1882	903.4	24.75
1035.3684	3077.203	904	25
1035.4772	3078.2173	904.05	26.4
1035.5859	3079.2308	905.25	22.75
1035.6945	3080.2438	907.95	25.95
1035.8031	3081.2561	900.55	20.6
1035.9117	3082.2678	900.8	24.1
1036.0202	3083.2789	900.4	23.2
1036.1286	3084.2893	898.25	20.45
1036.2371	3085.2991	898.65	21
1036.3454	3086.3083	903.15	21.45
1036.4538	3087.3169	902.55	22.35
1036.562	3088.3248	899.55	20.5
1036.6703	3089.3321	901.45	20.3
1036.7785	3090.3388	896.9	21.8
1036.8866	3091.3449	899.35	21.65
1036.9948	3092.3503	899.4	17.95
1037.1028	3093.3551	896.3	20.9
1037.2108	3094.3593	896.55	18.25
1037.3188	3095.3629	896.15	18.6
1037.4267	3096.3658	897.1	16.3
1037.5346	3097.3681	897	18.9
1037.6425	3098.3698	897.6	16.95
1037.7503	3099.3708	897	18.65
1037.858	3100.3713	895.8	18.4
1037.9657	3101.3711	894.75	15.1
1038.0734	3102.3702	1033.95	17.65
1038.181	3103.3688	895.6	18.35
1038.2886	3104.3667	894.4	18.8
1038.3961	3105.364	895.2	17.6
1038.5036	3106.3607	895.05	14.8
1038.611	3107.3568	893.95	14.15
1038.7184	3108.3522	892.85	16.7
1038.8257	3109.347	895.95	17.8
1038.933	3110.3412	900.5	19.1
1039.0403	3111.3348	892.6	14.15
1039.1475	3112.3277	894.75	16.65
1039.2547	3113.32	893.25	17.25
1039.3618	3114.3117	890.95	11.85
1039.4689	3115.3028	894.25	14.7
1039.5759	3116.2932	895.95	17.1
1039.6829	3117.2831	898.75	16.45
1039.7898	3118.2723	888.7	11.5
1039.8967	3119.2608	893.1	13
1040.0035	3120.2488	892.35	15
1040.1103	3121.2361	892.05	14.25
1040.2171	3122.2229	891.4	13.55
1040.3238	3123.209	893.9	15.45
1040.4305	3124.1944	891.45	12.3
1040.5371	3125.1793	893.95	13.15
1040.6437	3126.1635	889.4	11.8
1040.7502	3127.1471	891.4	14.6
1040.8567	3128.1301	889.35	14.65
1040.9631	3129.1125	890.1	10.9
1041.0695	3130.0942	892.2	15.4
1041.1759	3131.0753	899.15	12.2
1041.2822	3132.0558	893.35	12.95
1041.3884	3133.0357	891.3	11.45
1041.4946	3134.015	888.5	8.75
1041.6008	3134.9936	891.5	11.2
1041.7069	3135.9716	906.05	6.25
1041.813	3136.949	889.15	11.75
1041.919	3137.9258	906.6	10.75
1042.025	3138.902	897	14.3
1042.1309	3139.8775	889.9	12
1042.2368	3140.8524	888.05	9.7
1042.3427	3141.8267	890.65	10.05
1042.4485	3142.8004	889.9	13.15
1042.5542	3143.7735	895.45	10.3
1042.6599	3144.7459	893	13.8
1042.7656	3145.7178	892	12.55
1042.8712	3146.689	887.4	9.9
1042.9768	3147.6596	889.55	10.55
1043.0823	3148.6295	887.7	9.25
1043.1878	3149.5989	888.85	11.8
1043.2932	3150.5676	887	10.85
1043.3986	3151.5357	886.7	8
1043.5039	3152.5032	885.7	5.45
1043.6092	3153.4701	886.75	10.15
1043.7145	3154.4364	891.1	9.3
1043.8197	3155.402	888.65	11.85
1043.9248	3156.367	889.2	8.85
1044.03	3157.3315	930.15	10.2
1044.135	3158.2952	888.55	11.15
1044.24	3159.2584	885.4	7.15
1044.345	3160.221	887.85	10
1044.4499	3161.1829	886.15	7.25
1044.5548	3162.1442	887.5	8.85
1044.6596	3163.105	887.9	9.55
1044.7644	3164.065	887.05	8.8
1044.8692	3165.0245	889	8.05
1044.9739	3165.9834	884.6	8.35
1045.0785	3166.9416	888.9	12.3
1045.1831	3167.8993	888.35	9.85
1045.2877	3168.8563	886.7	7.85
1045.3922	3169.8127	887.4	10.35
1045.4966	3170.7684	885.5	8.1
1045.6011	3171.7236	887.5	7.65
1045.7054	3172.6782	885.55	9.55
1045.8098	3173.6321	887.7	10.05
1045.914	3174.5854	892.6	10.4
1046.0183	3175.5381	887	9.05
1046.1224	3176.4902	887.65	9.85
1046.2266	3177.4417	884.9	7.9
1046.3307	3178.3926	886.45	8.3
1046.4347	3179.3428	884.8	9
1046.5387	3180.2924	885.6	8.75
1046.6427	3181.2415	888.2	10.15
1046.7466	3182.1899	887.1	9.35
1046.8504	3183.1377	884.85	3.5
1046.9542	3184.0848	888.95	7.1
1047.058	3185.0314	887.05	10.05
1047.1617	3185.9773	887.9	9.45
1047.2654	3186.9227	887.7	7.15
1047.369	3187.8674	885.8	7.2
1047.4726	3188.8115	889.45	6.25
1047.5761	3189.755	886.7	10
1047.6796	3190.6979	887.45	6.45
1047.783	3191.6402	885.25	8.75
1047.8864	3192.5818	885.35	6.45
1047.9898	3193.5229	912.15	10.1
1048.0931	3194.4633	886.25	7.8
1048.1963	3195.4031	887	8.5
1048.2995	3196.3423	883	4.7
1048.4027	3197.2809	885.95	6.1
1048.5058	3198.2189	884.8	7.45
1048.6089	3199.1563	891.65	8.35
1048.7119	3200.0931	884.3	7.55
1048.8148	3201.0292	885	6.95
1048.9178	3201.9648	883.55	5.9
1049.0206	3202.8997	889.25	9.7
1049.1235	3203.834	883.95	6.05
1049.2262	3204.7677	884.4	6.9
1049.329	3205.7008	886.6	7.2
1049.4317	3206.6333	882.65	6.45
1049.5343	3207.5652	887.55	7.6
1049.6369	3208.4964	885.25	8.1
1049.7394	3209.4271	883.2	6.5
1049.8419	3210.3571	885.55	8.75
1049.9444	3211.2865	884.9	6.05
1050.0468	3212.2154	884.25	5.65
1050.1491	3213.1436	887.95	6.15
1050.2514	3214.0712	891.3	7.35
1050.3537	3214.9982	883.85	4.8
1050.4559	3215.9246	884	5.6
1050.5581	3216.8503	884.6	8
1050.6602	3217.7755	883.65	4.05
1050.7623	3218.7001	883.85	6
1050.8643	3219.624	884.6	3.85
1050.9663	3220.5473	886.55	10.2
1051.0682	3221.4701	886.45	9.05
1051.1701	3222.3922	886.2	4.95
1051.2719	3223.3137	884.1	5.7
1051.3737	3224.2346	885.45	8.75
1051.4754	3225.1549	884.8	6.6
1051.5771	3226.0746	884.7	5.3
1051.6788	3226.9937	886.75	9.65
1051.7804	3227.9121	881.55	2.7
1051.8819	3228.83	882.25	5.5
1051.9834	3229.7473	882.95	5.3
1052.0849	3230.6639	883.65	5.75
1052.1863	3231.5799	886.45	8.45
1052.2876	3232.4954	886.15	7.8
1052.3889	3233.4102	886.15	8.1
1052.4902	3234.3244	884.8	6.4
1052.5914	3235.238	883.65	6.25
1052.6926	3236.151	909.2	8.65
1052.7937	3237.0634	882.05	5.95
1052.8948	3237.9752	882.55	5.2
1052.9958	3238.8864	884.4	4.3
1053.0968	3239.797	884.25	7.2
1053.1977	3240.7069	884.85	6.65
1053.2986	3241.6163	885.5	6
1053.3994	3242.5251	882.8	7.4
1053.5002	3243.4332	882.85	6.45
1053.6009	3244.3408	883.55	3.6
1053.7016	3245.2477	882.8	6.15
1053.8022	3246.154	884	7.1
1053.9028	3247.0598	886.75	8.1
1054.0034	3247.9649	883.3	6.85
1054.1039	3248.8694	885.3	6.55
1054.2043	3249.7733	883.05	6.25
1054.3047	3250.6766	883.9	6.6
1054.4051	3251.5793	884.95	8.65
1054.5054	3252.4814	881.4	2.7
1054.6056	3253.3829	882	4.25
1054.7058	3254.2838	884	6.35
1054.806	3255.1841	882.6	5.55
1054.9061	3256.0838	883.15	5.8
1055.0061	3256.9829	881.05	5.75
1055.1062	3257.8814	885.45	3.85
1055.2061	3258.7792	886	6.5
1055.306	3259.6765	883.7	5.2
1055.4059	3260.5731	883.4	6.65
1055.5057	3261.4692	882.75	4.35
1055.6055	3262.3647	881.55	2.6
1055.7052	3263.2595	882.9	5.45
1055.8049	3264.1538	878.8	2.75
1055.9045	3265.0474	882.8	3.25
1056.0041	3265.9404	882	4.85
1056.1036	3266.8329	882.2	4.3
1056.2031	3267.7247	892	3.45
1056.3025	3268.616	881.2	4.9
1056.4019	3269.5066	882.25	4.7
1056.5013	3270.3966	882.8	2.1
1056.6005	3271.286	878.4	2
