Software Version:	3.9.2.0
Unit SN:	10000200
Spectrometer SN:	6960
Date:	3/8/2024 12:32:56 PM
Data Line Index:	25
Spectral Points:	2048
Integration time (ms):	125
Averages:	20
Delay (ms):	30000
Sequence Number:	1
Processing:	dark subtract
Laser Power (mW):	305
Laser Current (mA):	822
Laser Diode Temp (C):	25
Laser Case Temp (C):	26
System Temp (C):	26
Spectrometer Temp (C):	23.8
CCD Temp (C):	0.002
Secondary Temp (C):	20.004
Heatsink Temp (C):	20.509
CCDPCB Temp (C):	35.907
SecondaryPCB Temp (C):	30.049

Wavelength	RamanShift	Raw Counts	Dark Subtracted
787.061	30.1047	448.95	40.85
787.2016	32.3739	451	47.3
787.3422	34.6426	451.35	45.15
787.4828	36.9109	460.4	50.85
787.6235	39.1787	470.95	57.45
787.7642	41.4461	475.65	57.95
787.9049	43.7131	483.85	63.8
788.0456	45.9796	494.65	69.2
788.1863	48.2456	502.45	73.15
788.3271	50.5112	510.4	78.5
788.4679	52.7764	518.05	80.75
788.6087	55.0411	531.65	90.75
788.7496	57.3054	539.55	94.4
788.8904	59.5692	545.85	98.35
789.0313	61.8326	555	106.45
789.1722	64.0955	569.85	116.9
789.3132	66.3579	583.45	125.3
789.4541	68.6199	602.6	141.15
789.5951	70.8815	638.2	170.9
789.7361	73.1426	716.35	247
789.8771	75.4032	925.3	451.05
790.0181	77.6634	1415.25	936.4
790.1592	79.9231	2578.3	2091.8
790.3003	82.1824	5062.6	4562.7
790.4414	84.4412	9513.65	8989.7
790.5825	86.6995	15496	14934.1
790.7237	88.9574	21257.4	20668.8
790.8648	91.2148	25113.2	24505.6
791.006	93.4717	26738	26117.7
791.1472	95.7282	26902.05	26275.6
791.2885	97.9842	26542.95	25908.95
791.4297	100.2398	25739.4	25103.55
791.571	102.4949	24871.35	24232.95
791.7123	104.7495	23930.6	23288.55
791.8536	107.0036	22994.35	22352.65
791.9949	109.2573	22137.7	21495.3
792.1363	111.5105	21428.8	20789.15
792.2777	113.7632	20751.2	20105.55
792.4191	116.0154	20190.1	19531.1
792.5605	118.2672	19814.15	19160.35
792.7019	120.5185	19429.3	18778.5
792.8434	122.7693	19110.6	18455.9
792.9849	125.0197	18882.05	18225.45
793.1264	127.2696	18601.65	17939.75
793.2679	129.519	18413.35	17746.15
793.4094	131.7679	18116.8	17446.8
793.551	134.0163	17817.6	17146.6
793.6926	136.2642	17453.1	16776.25
793.8342	138.5117	17090.5	16403.85
793.9758	140.7587	16689	16012.3
794.1175	143.0052	16344.1	15660.85
794.2591	145.2512	15996.6	15313.65
794.4008	147.4967	15670.9	14989.6
794.5425	149.7417	15397.95	14710.1
794.6842	151.9863	15249.05	14558.55
794.826	154.2304	15098.45	14398.4
794.9677	156.4739	14940.9	14241.2
795.1095	158.717	14834.3	14135.6
795.2513	160.9596	14684.25	13979.45
795.3931	163.2017	14401.3	13693.15
795.535	165.4433	14111.55	13403.25
795.6768	167.6844	13813.95	13102.3
795.8187	169.925	13529.55	12814.15
795.9606	172.1651	13153.15	12440.8
796.1025	174.4047	12882	12165.2
796.2445	176.6439	12685.2	11964.5
796.3864	178.8825	12475.75	11754.05
796.5284	181.1206	12361.15	11636.7
796.6704	183.3582	12228.8	11494.6
796.8124	185.5954	12125.25	11392.35
796.9544	187.832	12046.2	11310.4
797.0965	190.0681	12028.2	11287.5
797.2386	192.3037	12013.95	11272.25
797.3806	194.5388	12044.3	11297.85
797.5228	196.7734	12048.8	11304.15
797.6649	199.0075	12128.85	11379.15
797.807	201.2411	12256.9	11502.9
797.9492	203.4742	12312.25	11561.35
798.0914	205.7068	12444.1	11685.4
798.2336	207.9389	12577.25	11818.05
798.3758	210.1704	12710.95	11958
798.518	212.4015	12810.2	12069.9
798.6603	214.632	12982.2	12246.8
798.8025	216.862	13064.8	12333.5
798.9448	219.0915	13166.75	12426.5
799.0871	221.3205	13253.15	12511.75
799.2294	223.549	13301.55	12563.35
799.3718	225.777	13360.1	12623.05
799.5141	228.0044	13442.85	12695.8
799.6565	230.2314	13562.7	12819.6
799.7989	232.4578	13597.75	12851.5
799.9413	234.6837	13684.9	12927.9
800.0837	236.909	13741.35	12984.2
800.2262	239.1339	13732.35	12951.25
800.3687	241.3582	13664.8	12897.2
800.5111	243.582	13615.8	12820.95
800.6536	245.8053	13584.65	12801.55
800.7961	248.0281	13554.75	12777.3
800.9387	250.2503	13527.3	12745.1
801.0812	252.472	13634.45	12848.55
801.2238	254.6932	13775.15	12989.45
801.3664	256.9139	13883.65	13097.7
801.509	259.134	14117.35	13326.5
801.6516	261.3536	14395	13606.65
801.7942	263.5727	14718.65	13925.25
801.9369	265.7912	14976.6	14189.95
802.0795	268.0092	15303.1	14514.6
802.2222	270.2267	15526.8	14738.75
802.3649	272.4436	15666.8	14878
802.5076	274.6601	15716.75	14915.45
802.6504	276.8759	15647.35	14848.05
802.7931	279.0913	15544.15	14747.65
802.9359	281.3061	15402.45	14605.65
803.0787	283.5204	15352.4	14553.8
803.2215	285.7341	15323.7	14521.25
803.3643	287.9473	15338.4	14523.35
803.5071	290.16	15354.45	14547.1
803.6499	292.3721	15400.1	14594.25
803.7928	294.5837	15569.45	14763
803.9357	296.7947	15753.75	14944.85
804.0786	299.0052	15909.15	15106.9
804.2215	301.2152	15916.8	15106.5
804.3644	303.4246	15806.8	15006
804.5074	305.6334	15498.25	14693.85
804.6503	307.8418	15114.9	14309.75
804.7933	310.0495	14713.8	13905.65
804.9363	312.2568	14304.5	13495.15
805.0793	314.4635	13882.85	13070.7
805.2223	316.6696	13572.3	12757.45
805.3653	318.8752	13352.2	12527.15
805.5084	321.0802	13236.45	12420.9
805.6514	323.2847	13254.65	12438.2
805.7945	325.4887	13267.85	12449.8
805.9376	327.692	13287.25	12464.45
806.0807	329.8949	13242.65	12423.75
806.2238	332.0972	13075.65	12253.35
806.367	334.2989	12886.95	12061.95
806.5101	336.5001	12674	11846.95
806.6533	338.7007	12434.6	11607.6
806.7965	340.9008	12288.5	11456.55
806.9397	343.1003	12117.35	11287.55
807.0829	345.2992	11994.2	11162.4
807.2261	347.4976	11890.2	11056.55
807.3693	349.6955	11808.9	10973.2
807.5126	351.8927	11792.6	10954.9
807.6559	354.0895	11702.8	10856.5
807.7991	356.2856	11673.85	10835.2
807.9424	358.4812	11619.5	10781.15
808.0857	360.6763	11625.55	10781.9
808.2291	362.8707	11594.5	10752.8
808.3724	365.0646	11647.25	10804.35
808.5158	367.258	11655.05	10810.6
808.6591	369.4508	11741.4	10893.7
808.8025	371.643	11900.7	11055.15
808.9459	373.8346	11963.1	11111.1
809.0893	376.0257	12066.75	11211.3
809.2327	378.2162	12109.7	11256.4
809.3762	380.4062	12129.8	11279.7
809.5196	382.5956	12007.1	11159.3
809.6631	384.7844	11917.5	11073.4
809.8066	386.9726	11779.55	10935.8
809.9501	389.1603	11686.25	10844.35
810.0936	391.3474	11649.25	10772.3
810.2371	393.5339	11610.6	10762.55
810.3806	395.7199	11558.85	10714.85
810.5241	397.9052	11636.05	10792.3
810.6677	400.09	11739.5	10894.35
810.8113	402.2743	11896.65	11050.3
810.9548	404.4579	12050.5	11206.6
811.0984	406.641	12254.95	11411.05
811.2421	408.8235	12405.4	11561.75
811.3857	411.0054	12528.1	11676.55
811.5293	413.1868	12654.75	11800.2
811.673	415.3675	12694.15	11835.8
811.8166	417.5477	12676.2	11815.75
811.9603	419.7273	12606.95	11743.65
812.104	421.9064	12551.15	11686.85
812.2477	424.0848	12478.9	11619.5
812.3914	426.2627	12381.5	11525.05
812.5351	428.4399	12164.5	11305.55
812.6788	430.6166	11837.9	10970.25
812.8226	432.7928	11530.85	10661.7
812.9663	434.9683	11240.8	10379.8
813.1101	437.1432	11035.55	10173.3
813.2539	439.3176	10841.35	9982.75
813.3977	441.4914	10730.4	9873.3
813.5415	443.6645	10707.15	9850.45
813.6853	445.8371	10659.5	9794.45
813.8291	448.0091	10643.1	9782.2
813.973	450.1806	10643.9	9782.9
814.1168	452.3514	10598.3	9734.95
814.2607	454.5216	10668.05	9791
814.4046	456.6913	10655.1	9790.55
814.5485	458.8603	10696.75	9833.7
814.6924	461.0288	10722.8	9863.45
814.8363	463.1967	10711.6	9850.95
814.9802	465.3639	10754.3	9890.25
815.1241	467.5306	10726.65	9861.5
815.2681	469.6967	10696.35	9835.4
815.412	471.8622	10727.75	9870.3
815.556	474.0271	10748.3	9885.6
815.7	476.1914	10771.15	9901.25
815.844	478.3551	10796	9930.7
815.988	480.5182	10831.55	9966.45
816.132	482.6807	10933.25	10073.55
816.276	484.8426	11146.55	10289.3
816.4201	487.0039	11441.1	10579.95
816.5641	489.1647	11796.15	10931.2
816.7082	491.3248	12093.05	11224.7
816.8522	493.4843	12197	11335.05
816.9963	495.6432	12157.25	11295.4
817.1404	497.8015	12029.8	11159.35
817.2845	499.9592	11916.15	11037.9
817.4286	502.1163	11697.9	10821.05
817.5727	504.2728	11380.9	10507.8
817.7168	506.4287	11133.05	10268.35
817.861	508.5839	10843.55	9977.1
818.0051	510.7386	10658.6	9790.15
818.1493	512.8927	10614.35	9739.05
818.2935	515.0461	10583.7	9709.1
818.4377	517.199	10674.4	9795.95
818.5818	519.3512	10853.35	9972.5
818.726	521.5029	11149.55	10268.35
818.8703	523.6539	11416.4	10540.35
819.0145	525.8043	11519.4	10637.8
819.1587	527.9541	11459.3	10578.3
819.303	530.1033	11257.4	10378.65
819.4472	532.2519	11093.65	10217.25
819.5915	534.3999	11027.95	10147.6
819.7357	536.5472	11055.95	10177.35
819.88	538.694	11192.95	10316.5
820.0243	540.8401	11402.95	10525.8
820.1686	542.9856	11576.95	10693.45
820.3129	545.1305	11607.7	10713.7
820.4572	547.2748	11552.55	10661.15
820.6016	549.4185	11421.5	10530.1
820.7459	551.5615	11318.9	10429.2
820.8902	553.704	11346.8	10457.05
821.0346	555.8458	11428.4	10544.7
821.1789	557.987	11612.65	10727.55
821.3233	560.1276	11850.6	10961.8
821.4677	562.2675	12291	11398.65
821.6121	564.4069	12837.6	11953.05
821.7565	566.5456	13311.45	12423.9
821.9009	568.6837	13521.65	12635.5
822.0453	570.8212	13135.1	12250.35
822.1897	572.958	12443.4	11554.05
822.3342	575.0942	11785.8	10900.45
822.4786	577.2299	11292.05	10405.85
822.6231	579.3648	11063.45	10190.45
822.7675	581.4992	10989.8	10121.95
822.912	583.6329	11075	10210.3
823.0565	585.766	11231.4	10360.4
823.201	587.8985	11369.15	10490.5
823.3454	590.0304	11416.75	10507.2
823.4899	592.1616	11395.45	10505.55
823.6345	594.2922	11311.45	10415.25
823.779	596.4222	11096.75	10199.75
823.9235	598.5515	10901.55	10005.55
824.068	600.6802	10754	9856.9
824.2126	602.8083	10594.9	9702.3
824.3571	604.9358	10552.15	9658.55
824.5017	607.0626	10612.65	9716.7
824.6462	609.1888	10744.3	9846.1
824.7908	611.3144	10905.3	10006.4
824.9354	613.4393	11038	10139.4
825.08	615.5636	11198.2	10295.55
825.2246	617.6873	11236.65	10339.65
825.3692	619.8103	11158.5	10259.3
825.5138	621.9327	10951.65	10052.5
825.6584	624.0544	10728.3	9833.55
825.803	626.1756	10545.05	9650.15
825.9477	628.2961	10391.9	9495.6
826.0923	630.4159	10300.7	9403.85
826.237	632.5351	10264.95	9363.3
826.3816	634.6537	10283.05	9381.35
826.5263	636.7716	10297.4	9393.25
826.6709	638.8889	10293.6	9389.85
826.8156	641.0056	10309.35	9404.7
826.9603	643.1216	10302.45	9401.1
827.105	645.237	10259.6	9355.3
827.2497	647.3518	10156.85	9266.2
827.3944	649.4659	10079.15	9184.9
827.5391	651.5793	10015.5	9120.65
827.6838	653.6922	9994.75	9099.75
827.8285	655.8043	9972.35	9074.15
827.9733	657.9159	9981.65	9083.6
828.118	660.0268	9970.45	9071.3
828.2627	662.137	9977.9	9077.5
828.4075	664.2466	10006.2	9098.45
828.5522	666.3556	9991.8	9088.05
828.697	668.4639	9930.9	9026.1
828.8418	670.5716	9893.7	8998.35
828.9865	672.6786	9857.15	8956.4
829.1313	674.785	9776.75	8869.2
829.2761	676.8907	9734.35	8830.9
829.4209	678.9958	9731.85	8834.6
829.5657	681.1002	9707.7	8806.65
829.7105	683.204	9709.15	8798.65
829.8553	685.3072	9715.3	8805.75
830.0001	687.4097	9672.2	8766.25
830.1449	689.5115	9679.1	8772.2
830.2898	691.6127	9671.1	8768
830.4346	693.7132	9673.35	8774.45
830.5794	695.8131	9726.15	8800
830.7243	697.9123	9749.9	8840.4
830.8691	700.0109	9777	8867.4
831.014	702.1089	9799.85	8891.25
831.1588	704.2061	9887.2	8979.35
831.3037	706.3028	9953.85	9043.15
831.4486	708.3987	9973.15	9061.45
831.5935	710.4941	10007.35	9096.7
831.7383	712.5887	10046.75	9136.75
831.8832	714.6827	10071.3	9160.85
832.0281	716.7761	10164.85	9256.7
832.173	718.8688	10320	9411
832.3179	720.9608	10438.35	9519.75
832.4628	723.0522	10587.4	9667.3
832.6077	725.1429	10709	9794.5
832.7527	727.233	10770.4	9857.3
832.8976	729.3224	10900.2	9986.15
833.0425	731.4112	10874.55	9961.1
833.1874	733.4993	10736.8	9821.65
833.3324	735.5867	10511	9599.05
833.4773	737.6735	10261.75	9345.65
833.6222	739.7596	10067.2	9153.3
833.7672	741.845	9926.45	9012.1
833.9122	743.9298	9833.25	8920.4
834.0571	746.014	9793.15	8881.5
834.2021	748.0974	9823.75	8905.35
834.347	750.1802	9782.25	8862
834.492	752.2624	9816.85	8901.05
834.637	754.3439	9888.65	8966.7
834.782	756.4247	9999.85	9073.3
834.9269	758.5048	10136.05	9218.7
835.0719	760.5843	10435.25	9518.1
835.2169	762.6631	10837.3	9917.25
835.3619	764.7413	11365.6	10446.8
835.5069	766.8188	12080.45	11159.8
835.6519	768.8956	12673.2	11754.5
835.7969	770.9718	13075.15	12153.75
835.9419	773.0473	13019.85	12102
836.0869	775.1221	12831.75	11911.5
836.232	777.1962	12537.2	11617.55
836.377	779.2697	12497.95	11578.55
836.522	781.3426	12583.25	11654.45
836.667	783.4147	12689.9	11772.5
836.8121	785.4862	12683.7	11765.6
836.9571	787.557	12472.95	11551.25
837.1021	789.6271	12019.2	11100.9
837.2472	791.6966	11401.7	10481
837.3922	793.7654	10764.2	9842.4
837.5373	795.8335	10364.5	9441.85
837.6823	797.901	10065.9	9147.1
837.8274	799.9678	9916.25	8992.75
837.9724	802.0339	9799.2	8875.6
838.1175	804.0993	9763.45	8831.35
838.2626	806.1641	9686.05	8765.15
838.4076	808.2282	9599.45	8678.35
838.5527	810.2916	9536.35	8614.2
838.6978	812.3544	9440	8519.35
838.8428	814.4164	9418	8498.35
838.9879	816.4778	9475.4	8553.15
839.133	818.5385	9499.8	8574.7
839.2781	820.5986	9657.5	8732.8
839.4232	822.658	9901.6	8974.95
839.5682	824.7166	10254.85	9332
839.7133	826.7747	10824.5	9900.35
839.8584	828.832	11367.7	10443.45
840.0035	830.8886	11790.7	10864.25
840.1486	832.9446	11958.35	11030.6
840.2937	834.9999	11834.15	10908.65
840.4388	837.0545	11483.85	10556.75
840.5839	839.1085	11127.05	10202.05
840.729	841.1618	10770.05	9839.3
840.8741	843.2143	10522.4	9596.1
841.0192	845.2662	10238.7	9313.85
841.1643	847.3175	10137.6	9210.95
841.3095	849.368	10009.15	9084.45
841.4546	851.4179	9924.95	9000.1
841.5997	853.467	9831.3	8910.5
841.7448	855.5155	9794.75	8868.5
841.8899	857.5633	9711.05	8784.45
842.0351	859.6105	9627.5	8700.85
842.1802	861.6569	9570.05	8642.65
842.3253	863.7027	9477.95	8548.1
842.4704	865.7478	9431.55	8505.5
842.6156	867.7922	9402.65	8473.4
842.7607	869.8359	9361.4	8432.85
842.9058	871.8789	9387.4	8459.35
843.0509	873.9212	9459.8	8499.85
843.1961	875.9629	9516.7	8589.45
843.3412	878.0039	9626.35	8701.8
843.4863	880.0441	9690.4	8762.5
843.6315	882.0837	9746.95	8819.4
843.7766	884.1226	9801.65	8870.75
843.9218	886.1609	9876.5	8952.75
844.0669	888.1984	10009.15	9084.15
844.212	890.2352	10142.05	9215.85
844.3572	892.2714	10192.6	9257.4
844.5023	894.3069	10170.3	9241.8
844.6475	896.3416	9974.25	9048.3
844.7926	898.3757	9823.45	8892
844.9377	900.4091	9734.55	8803.55
845.0829	902.4418	9712.2	8778.25
845.228	904.4739	9721.1	8789.85
845.3732	906.5052	9769.35	8834.4
845.5183	908.5358	9764.85	8834.85
845.6635	910.5658	9663.5	8728.45
845.8086	912.595	9418.1	8488.15
845.9538	914.6236	9218.7	8287
846.0989	916.6515	9083.35	8154
846.2441	918.6786	8983.45	8050
846.3892	920.7051	8998.2	8066.8
846.5344	922.7309	9035.05	8105.8
846.6795	924.756	9030.7	8101.55
846.8246	926.7804	9094.05	8161.55
846.9698	928.8041	9075.25	8143.55
847.1149	930.8272	9135.6	8205.15
847.2601	932.8495	9133.55	8199.55
847.4052	934.8711	9128.7	8193.65
847.5504	936.892	9095.25	8160.45
847.6955	938.9123	9126.85	8197.2
847.8407	940.9318	9160	8230.05
847.9858	942.9506	9176.6	8243.35
848.131	944.9688	9148.15	8214.95
848.2761	946.9862	9041.55	8112.05
848.4213	949.003	8879.1	7946.65
848.5664	951.019	8765.7	7833.45
848.7115	953.0344	8701.25	7769.25
848.8567	955.0491	8692.05	7759.75
849.0018	957.063	8731.65	7802.05
849.147	959.0763	8784.55	7854.05
849.2921	961.0888	8807.15	7876.95
849.4373	963.1007	8865	7931.85
849.5824	965.1119	8866.6	7941
849.7275	967.1223	8845.8	7925.25
849.8727	969.1321	8822.55	7900.05
850.0178	971.1412	8813.9	7888.6
850.1629	973.1495	8798	7867.6
850.3081	975.1572	8854.8	7877.4
850.4532	977.1641	8850.55	7917.95
850.5983	979.1704	8825	7894.35
850.7435	981.1759	8783.6	7850.45
850.8886	983.1808	8784	7851.1
851.0337	985.1849	8810.1	7867.9
851.1788	987.1884	8849.4	7917
851.324	989.1911	8907.25	7974
851.4691	991.1932	8974	8045.25
851.6142	993.1945	8977.3	8046.75
851.7593	995.1951	8934.95	8001.8
851.9045	997.1951	8945	8009.55
852.0496	999.1943	8893.4	7962.85
852.1947	1001.1928	8914.3	7981.6
852.3398	1003.1906	8959.55	8029.9
852.4849	1005.1877	9074.9	8147.05
852.63	1007.1841	9180.05	8246.55
852.7751	1009.1798	9238.65	8308
852.9202	1011.1748	9147.05	8216.5
853.0653	1013.1691	9046.55	8115.75
853.2104	1015.1627	8859.6	7928.8
853.3555	1017.1556	8650.05	7724.95
853.5006	1019.1477	8528	7599.65
853.6457	1021.1392	8415.9	7489.8
853.7908	1023.1299	8382.25	7457.65
853.9359	1025.12	8394.45	7476.05
854.081	1027.1093	8436.15	7525.75
854.2261	1029.0979	8528.45	7620.55
854.3712	1031.0859	8667.1	7754.5
854.5163	1033.0731	8694.75	7774.4
854.6613	1035.0596	8672.85	7750.35
854.8064	1037.0454	8560.2	7634.65
854.9515	1039.0304	8464.2	7540.75
855.0965	1041.0148	8376.3	7447.55
855.2416	1042.9985	8284.15	7353.6
855.3867	1044.9814	8247.15	7319.2
855.5317	1046.9636	8184.65	7256.95
855.6768	1048.9452	8163.3	7234.75
855.8219	1050.926	8202.15	7274.45
855.9669	1052.9061	8251.65	7321.65
856.112	1054.8855	8273.75	7342.65
856.257	1056.8642	8303.5	7374.55
856.4021	1058.8421	8378.15	7441.5
856.5471	1060.8194	8372.95	7440.15
856.6921	1062.7959	8410.85	7480.85
856.8372	1064.7717	8491.1	7559.2
856.9822	1066.7469	8571.9	7639.8
857.1272	1068.7213	8658.95	7724.6
857.2723	1070.695	8777.8	7848.8
857.4173	1072.6679	8794	7865.6
857.5623	1074.6402	8839.55	7907.8
857.7073	1076.6117	8784.15	7847.7
857.8523	1078.5826	8692.9	7760.15
857.9973	1080.5527	8521.6	7590.6
858.1423	1082.5221	8417.8	7487.35
858.2873	1084.4908	8357.2	7428.75
858.4323	1086.4587	8347.05	7413.55
858.5773	1088.426	8385	7453.4
858.7223	1090.3925	8395.85	7463.95
858.8673	1092.3584	8422.9	7495.9
859.0123	1094.3235	8457.75	7530.5
859.1573	1096.2879	8549.3	7619.65
859.3022	1098.2515	8700.5	7771.7
859.4472	1100.2145	8893.55	7963.6
859.5922	1102.1767	9075.2	8141.25
859.7371	1104.1382	9279.55	8349.4
859.8821	1106.099	9550.65	8618.65
860.027	1108.0591	9763.1	8835.05
860.172	1110.0185	9901.7	8971.7
860.3169	1111.9771	9986.4	9057.7
860.4619	1113.9351	9934.85	9005.7
860.6068	1115.8923	9840.05	8910.85
860.7517	1117.8488	9749.65	8817.65
860.8967	1119.8045	9555.8	8631.2
861.0416	1121.7596	9419	8490
861.1865	1123.7139	9301.95	8376.5
861.3314	1125.6675	9231.9	8304
861.4763	1127.6204	9239.5	8311.6
861.6212	1129.5726	9211.95	8282.8
861.7661	1131.524	9142.85	8214.5
861.911	1133.4748	8991.95	8064.2
862.0559	1135.4248	8786.2	7855.65
862.2008	1137.3741	8601.15	7673
862.3457	1139.3226	8475.95	7545.9
862.4905	1141.2705	8431.05	7503
862.6354	1143.2176	8341.35	7406.9
862.7803	1145.164	8327.35	7399
862.9251	1147.1097	8220.9	7289.5
863.07	1149.0546	8145.6	7217.35
863.2148	1150.9989	8002.6	7072.15
863.3597	1152.9424	7928.05	7000.1
863.5045	1154.8852	7860.1	6930.35
863.6493	1156.8272	7833.85	6907
863.7942	1158.7686	7873.2	6936.7
863.939	1160.7092	7896.45	6965.05
864.0838	1162.6491	7932.35	7000.5
864.2286	1164.5883	8022.05	7095.85
864.3734	1166.5267	8139.1	7211.25
864.5182	1168.4644	8313.35	7383.5
864.663	1170.4014	8532.2	7598.1
864.8078	1172.3377	8747.55	7819.2
864.9526	1174.2732	9060.4	8131.95
865.0974	1176.2081	9514.35	8587.15
865.2421	1178.1421	10041.5	9107.5
865.3869	1180.0755	10592.5	9663.7
865.5317	1182.0082	10999.25	10072.95
865.6764	1183.9401	11165.5	10241.85
865.8212	1185.8713	11019.3	10098.2
865.9659	1187.8017	10677.4	9758.6
866.1106	1189.7315	10260.2	9346.85
866.2554	1191.6605	9829.35	8915.55
866.4001	1193.5888	9544.7	8627.2
866.5448	1195.5163	9369.4	8448.2
866.6895	1197.4432	9292.75	8366.8
866.8342	1199.3693	9248.4	8327.35
866.9789	1201.2947	9186.05	8258.65
867.1236	1203.2193	9151.6	8226.1
867.2683	1205.1432	9140.25	8215.05
867.413	1207.0664	9106.9	8179.85
867.5576	1208.9889	9092.75	8164.85
867.7023	1210.9106	9034.05	8110.15
867.847	1212.8316	9022.25	8098.65
867.9916	1214.7519	9082.05	8147.85
868.1363	1216.6715	9135.25	8206
868.2809	1218.5903	9190.6	8266.5
868.4255	1220.5084	9286.9	8363
868.5701	1222.4257	9411.55	8489.7
868.7148	1224.3424	9469.3	8549.95
868.8594	1226.2583	9598.25	8671.05
869.004	1228.1735	9776.25	8851
869.1486	1230.0879	9940.95	9016.55
869.2932	1232.0016	10132.75	9207.1
869.4377	1233.9146	10300.3	9372.15
869.5823	1235.8269	10357.05	9436.65
869.7269	1237.7384	10353.35	9426.4
869.8715	1239.6492	10226.9	9301.8
870.016	1241.5592	10235.5	9310.25
870.1606	1243.4686	10311.65	9386.95
870.3051	1245.3772	10542.35	9616.5
870.4496	1247.285	10796.5	9869.2
870.5941	1249.1922	11026.05	10104.15
870.7387	1251.0986	11240.2	10316.55
870.8832	1253.0042	11368.75	10444.25
871.0277	1254.9092	11487.85	10564.05
871.1722	1256.8134	11585.55	10665.15
871.3167	1258.7169	11727.75	10804.3
871.4611	1260.6196	11852.2	10928.1
871.6056	1262.5216	12043.9	11119.45
871.7501	1264.4229	12241.95	11319.6
871.8945	1266.3234	12464.85	11541.5
872.039	1268.2232	12604.25	11678.45
872.1834	1270.1223	12687.5	11760.6
872.3278	1272.0207	12743.85	11820.7
872.4723	1273.9183	12730.05	11798.95
872.6167	1275.8151	12671.95	11750
872.7611	1277.7113	12683.95	11759.6
872.9055	1279.6067	12794.75	11875.25
873.0499	1281.5014	13110.55	12185.1
873.1943	1283.3953	13558.55	12633.35
873.3386	1285.2885	14214	13288.9
873.483	1287.181	14811.25	13885.7
873.6274	1289.0727	15358.1	14437.75
873.7717	1290.9637	15759.95	14836.25
873.9161	1292.854	16032.2	15108
874.0604	1294.7435	15976.7	15053.8
874.2047	1296.6323	15835.05	14910.1
874.349	1298.5204	15566.9	14640.15
874.4933	1300.4077	15297.35	14370.7
874.6376	1302.2943	14932.1	14008.7
874.7819	1304.1802	14555	13636.1
874.9262	1306.0653	14037.45	13111.85
875.0705	1307.9497	13495.85	12573.4
875.2147	1309.8333	13026.9	12103.3
875.359	1311.7162	12651.5	11729.4
875.5032	1313.5984	12430.65	11505.85
875.6475	1315.4798	12256.7	11333.95
875.7917	1317.3605	12149.3	11211.05
875.9359	1319.2405	11994	11071.15
876.0801	1321.1197	11712.2	10790.1
876.2243	1322.9982	11360.5	10431
876.3685	1324.876	11029.05	10103.8
876.5127	1326.753	10704.05	9784.6
876.6569	1328.6293	10440.85	9516.15
876.801	1330.5048	10262.1	9335.95
876.9452	1332.3796	10056.7	9133.8
877.0893	1334.2537	9967.3	9017.55
877.2335	1336.127	9872	8949.6
877.3776	1337.9996	9763.85	8842.45
877.5217	1339.8714	9791.75	8869.6
877.6658	1341.7426	9820.75	8852.8
877.8099	1343.6129	9816.25	8890.75
877.954	1345.4826	9808.8	8884.65
878.0981	1347.3515	9827.05	8901.6
878.2422	1349.2196	9806.75	8880.5
878.3862	1351.087	9816.8	8889.75
878.5303	1352.9537	9886.75	8960.7
878.6743	1354.8197	9996.9	9070.75
878.8184	1356.6849	10143.8	9219.3
878.9624	1358.5493	10282.95	9361.45
879.1064	1360.4131	10491.7	9569.35
879.2504	1362.276	10663.25	9742.1
879.3944	1364.1383	10699.35	9779.7
879.5384	1365.9998	10554.5	9623.1
879.6823	1367.8606	10247.35	9324.9
879.8263	1369.7206	9882.55	8958.9
879.9702	1371.5799	9561	8633.75
880.1142	1373.4384	9270.05	8347.7
880.2581	1375.2962	9046.05	8120.6
880.402	1377.1533	8711.65	7788.95
880.5459	1379.0096	8363.5	7443.15
880.6898	1380.8652	8039.8	7120.95
880.8337	1382.7201	7734.75	6813.7
880.9776	1384.5742	7527.95	6605.75
881.1215	1386.4275	7337.65	6416.2
881.2653	1388.2802	7203.5	6280
881.4092	1390.132	7093.8	6171.8
881.553	1391.9832	7024.8	6101.45
881.6968	1393.8336	6932.45	6006.4
881.8406	1395.6832	6884.75	5959.45
881.9844	1397.5322	6838.9	5917.2
882.1282	1399.3803	6848	5922.7
882.272	1401.2278	6794.85	5872.65
882.4158	1403.0745	6770	5848.15
882.5595	1404.9204	6762.45	5844.75
882.7033	1406.7656	6759.4	5838.6
882.847	1408.6101	6783.95	5862.55
882.9908	1410.4538	6804.7	5885.35
883.1345	1412.2968	6858.1	5937.5
883.2782	1414.139	6894.75	5972.05
883.4219	1415.9805	6976.55	6056.55
883.5656	1417.8213	7017.6	6089.95
883.7092	1419.6613	7113.2	6195.2
883.8529	1421.5006	7242.3	6321.9
883.9965	1423.3391	7411.35	6491.4
884.1402	1425.1769	7694.8	6771.35
884.2838	1427.0139	8092.85	7171.35
884.4274	1428.8502	8589.25	7666.3
884.571	1430.6858	9110.8	8192.7
884.7146	1432.5206	9471.5	8552.15
884.8582	1434.3547	9679.35	8755.75
885.0018	1436.188	9688.75	8770.15
885.1453	1438.0206	9598.65	8677.3
885.2889	1439.8524	9452.6	8532.1
885.4324	1441.6835	9350.2	8428.75
885.5759	1443.5139	9264.55	8339.5
885.7194	1445.3435	9210.25	8293.25
885.8629	1447.1724	9166	8247.6
886.0064	1449.0005	9136.9	8222.55
886.1499	1450.8279	9082.65	8159.7
886.2933	1452.6545	9074.75	8157
886.4368	1454.4804	9119.05	8199.85
886.5802	1456.3056	9118.55	8195
886.7237	1458.13	9056.2	8136.6
886.8671	1459.9536	8889.9	7969.8
887.0105	1461.7766	8667.65	7750.75
887.1539	1463.5987	8376.7	7457
887.2972	1465.4202	8073.1	7153.9
887.4406	1467.2409	7773.05	6854.6
887.584	1469.0608	7503.3	6585.95
887.7273	1470.88	7243.35	6326.45
887.8706	1472.6984	7044.1	6123.05
888.0139	1474.5161	6842.55	5924.95
888.1572	1476.3331	6692.35	5777.25
888.3005	1478.1493	6591.5	5672.1
888.4438	1479.9648	6514.75	5598.5
888.5871	1481.7795	6463.2	5543.3
888.7303	1483.5935	6385.75	5469.3
888.8736	1485.4067	6351.5	5433.8
889.0168	1487.2192	6317.8	5400.7
889.16	1489.031	6271.7	5352.75
889.3032	1490.842	6260.9	5345.15
889.4464	1492.6522	6212.85	5295.9
889.5896	1494.4618	6177.1	5260.85
889.7327	1496.2705	6147.7	5230.5
889.8759	1498.0785	6119.1	5202.25
890.019	1499.8858	6095	5180.15
890.1622	1501.6924	6041.5	5125.25
890.3053	1503.4981	5986.1	5072.65
890.4484	1505.3032	5942.9	5027
890.5914	1507.1075	5913.4	4996.45
890.7345	1508.911	5861.75	4947.45
890.8776	1510.7138	5830.8	4914.1
891.0206	1512.5159	5770.8	4855.75
891.1637	1514.3172	5729	4811.95
891.3067	1516.1178	5693.25	4776.65
891.4497	1517.9176	5683.85	4764.85
891.5927	1519.7166	5641.9	4725
891.7357	1521.515	5604.3	4684.55
891.8786	1523.3126	5586	4671.85
892.0216	1525.1094	5564.45	4649.3
892.1645	1526.9055	5527.9	4613.65
892.3074	1528.7008	5511.4	4596.9
892.4503	1530.4954	5477.95	4563.4
892.5932	1532.2893	5482.5	4570.7
892.7361	1534.0824	5448.55	4535.25
892.879	1535.8747	5448.95	4540.05
893.0218	1537.6663	5454.05	4541.55
893.1647	1539.4572	5450.6	4536.5
893.3075	1541.2473	5469.2	4558.8
893.4503	1543.0367	5473.9	4564.05
893.5931	1544.8253	5492	4576.55
893.7359	1546.6132	5506.05	4593.85
893.8787	1548.4003	5547.3	4625.7
894.0214	1550.1867	5599.05	4680.1
894.1642	1551.9723	5684.7	4770.85
894.3069	1553.7572	5751.8	4841.9
894.4496	1555.5414	5884.15	4974.6
894.5923	1557.3247	6035.95	5127
894.735	1559.1074	6222.5	5315.7
894.8777	1560.8893	6419.8	5512.95
895.0204	1562.6705	6575.05	5670.15
895.163	1564.4509	6722.15	5818.3
895.3056	1566.2305	6788.85	5886.3
895.4482	1568.0094	6828.4	5924.15
895.5908	1569.7876	6852.65	5945.1
895.7334	1571.565	6818.15	5911.85
895.876	1573.3417	6806.35	5900.35
896.0186	1575.1176	6809	5903.85
896.1611	1576.8928	6806.9	5904.05
896.3036	1578.6672	6822.95	5923.45
896.4461	1580.4409	6844.8	5947.25
896.5886	1582.2138	6928.6	6025.4
896.7311	1583.986	7013	6110.5
896.8736	1585.7575	7133.75	6229.05
897.0161	1587.5282	7255.1	6352.9
897.1585	1589.2981	7384.85	6483.9
897.3009	1591.0673	7480.75	6583.95
897.4433	1592.8358	7618.2	6720.55
897.5857	1594.6035	7759.65	6855.1
897.7281	1596.3704	7882.6	6975.1
897.8705	1598.1366	7976.9	7074.8
898.0128	1599.9021	8073.45	7172.65
898.1551	1601.6668	8166.4	7262.9
898.2975	1603.4308	8284.55	7382.1
898.4398	1605.194	8486.45	7580.05
898.5821	1606.9564	8683.5	7787.85
898.7243	1608.7182	8968	8072.65
898.8666	1610.4791	9268.1	8376.85
899.0088	1612.2394	9603.7	8712.85
899.1511	1613.9988	9954.9	9059.05
899.2933	1615.7576	10236.8	9340.05
899.4355	1617.5156	10443.15	9537.55
899.5776	1619.2728	10512.75	9609.45
899.7198	1621.0293	10364.7	9463.65
899.862	1622.785	10091	9187.05
900.0041	1624.54	9726.5	8828.65
900.1462	1626.2942	9290.7	8393.3
900.2883	1628.0477	8838.8	7940.95
900.4304	1629.8005	8416.7	7516.15
900.5725	1631.5525	8043.1	7147.6
900.7145	1633.3037	7736.6	6840.15
900.8566	1635.0542	7502.15	6607.5
900.9986	1636.804	7306	6410.7
901.1406	1638.553	7236.55	6241.5
901.2826	1640.3013	7048.95	6151.8
901.4245	1642.0488	7020.55	6123.55
901.5665	1643.7955	7032.35	6136.65
901.7085	1645.5416	7076.85	6180.8
901.8504	1647.2868	7168.25	6271.65
901.9923	1649.0313	7252.9	6355.75
902.1342	1650.7751	7375.8	6475.75
902.2761	1652.5181	7550.45	6655.5
902.4179	1654.2604	7681.7	6786.35
902.5598	1656.0019	7903.8	7009.4
902.7016	1657.7427	8139.85	7243.95
902.8434	1659.4828	8403.4	7507.75
902.9852	1661.222	8533.65	7638.25
903.127	1662.9606	8536.7	7640.45
903.2687	1664.6984	8317	7419.1
903.4105	1666.4354	7911.65	7013.05
903.5522	1668.1717	7360.05	6461.75
903.6939	1669.9072	6837.65	5939.85
903.8356	1671.642	6381.9	5479.15
903.9773	1673.3761	5994.9	5096.45
904.119	1675.1094	5697.55	4801.7
904.2606	1676.8419	5462.15	4567.05
904.4022	1678.5737	5253.05	4355.85
904.5439	1680.3048	5107.15	4209.9
904.6855	1682.0351	4959	4063.1
904.827	1683.7646	4856.1	3956.55
904.9686	1685.4934	4766.6	3870.9
905.1101	1687.2215	4694.5	3800.6
905.2517	1688.9488	4619.85	3724
905.3932	1690.6754	4562.5	3669.75
905.5347	1692.4012	4507.2	3611.75
905.6761	1694.1263	4458.1	3561.1
905.8176	1695.8506	4431.8	3536.7
905.9591	1697.5742	4369.6	3474.95
906.1005	1699.297	4347.6	3455.4
906.2419	1701.0191	4302.15	3410.75
906.3833	1702.7404	4268.75	3376.1
906.5246	1704.461	4235.7	3341.7
906.666	1706.1808	4201	3306.4
906.8073	1707.8999	4173	3278.1
906.9487	1709.6182	4149.9	3258.2
907.09	1711.3358	4122.65	3231.55
907.2313	1713.0527	4091.1	3204
907.3725	1714.7688	4079.95	3184.85
907.5138	1716.4841	4055.05	3161.55
907.655	1718.1987	4037.55	3139.55
907.7962	1719.9126	4018.45	3128.2
907.9374	1721.6257	4011.85	3121.6
908.0786	1723.338	3998	3107.4
908.2198	1725.0496	3967.2	3075.95
908.3609	1726.7605	3959.45	3067.35
908.502	1728.4706	3962.2	3071.85
908.6431	1730.18	3939.85	3047
908.7842	1731.8886	3940.6	3051
908.9253	1733.5964	3939.4	3028.4
909.0664	1735.3036	3898.4	3005
909.2074	1737.0099	3884.55	2994.45
909.3484	1738.7156	3851.25	2962.05
909.4894	1740.4204	3833	2939.2
909.6304	1742.1246	3816.45	2922.95
909.7714	1743.8279	3798.95	2908.1
909.9123	1745.5306	3779.7	2887.75
910.0532	1747.2325	3760.3	2870.75
910.1941	1748.9336	3744.85	2854.25
910.335	1750.634	3732.05	2840.2
910.4759	1752.3336	3724.45	2835.4
910.6168	1754.0325	3697.75	2809.35
910.7576	1755.7307	3681.95	2795
910.8984	1757.4281	3683.85	2793.95
911.0392	1759.1247	3674.1	2773.95
911.18	1760.8206	3668.75	2772.35
911.3208	1762.5158	3680.55	2783.4
911.4615	1764.2102	3660.9	2767.7
911.6022	1765.9039	3639.4	2749.6
911.7429	1767.5968	3627.45	2738.7
911.8836	1769.289	3616.3	2726.4
912.0243	1770.9804	3612.45	2722
912.1649	1772.6711	3625.55	2732.5
912.3056	1774.361	3596.5	2702.45
912.4462	1776.0502	3591	2698.1
912.5868	1777.7386	3597.4	2703.05
912.7274	1779.4263	3573.2	2680.9
912.8679	1781.1132	3591.7	2705.15
913.0084	1782.7994	3561.9	2671.7
913.149	1784.4849	3548.65	2660.95
913.2895	1786.1696	3557.55	2649.75
913.4299	1787.8535	3539.75	2651.65
913.5704	1789.5367	3527.4	2643.3
913.7108	1791.2192	3531.55	2644.7
913.8513	1792.9009	3535.2	2620.35
913.9917	1794.5818	3519.75	2629.05
914.132	1796.2621	3501.1	2612.65
914.2724	1797.9415	3490.65	2600.55
914.4128	1799.6202	3495.55	2604.7
914.5531	1801.2982	3487.75	2597.7
914.6934	1802.9755	3474.8	2584.95
914.8337	1804.6519	3469.45	2578.25
914.9739	1806.3277	3443.75	2554.55
915.1142	1808.0027	3450.85	2565.05
915.2544	1809.6769	3424.25	2538.7
915.3946	1811.3504	3427.4	2540.35
915.5348	1813.0231	3426.25	2539.65
915.675	1814.6951	3434.6	2547.25
915.8151	1816.3664	3426.9	2538.05
915.9553	1818.0369	3410.7	2519.8
916.0954	1819.7067	3397.4	2507.6
916.2355	1821.3757	3395.2	2505.1
916.3755	1823.044	3397.45	2507.35
916.5156	1824.7115	3390.55	2501.5
916.6556	1826.3783	3378.2	2487.9
916.7956	1828.0443	3373.85	2486.25
916.9356	1829.7096	3362.3	2472.35
917.0756	1831.3741	3357.95	2465.2
917.2155	1833.0379	3368.95	2481.45
917.3555	1834.701	3361.7	2473.35
917.4954	1836.3633	3343.3	2456.15
917.6353	1838.0248	3340.85	2452.8
917.7751	1839.6856	3340.5	2454.05
917.915	1841.3457	3336.1	2448.75
918.0548	1843.005	3321.6	2432.4
918.1946	1844.6636	3336.15	2449.15
918.3344	1846.3214	3316.8	2426.85
918.4742	1847.9785	3301.7	2414.2
918.6139	1849.6349	3305.4	2414.8
918.7537	1851.2904	3309.75	2409.7
918.8934	1852.9453	3302.05	2410.9
919.0331	1854.5994	3292.4	2400.95
919.1727	1856.2528	3283.05	2388.35
919.3124	1857.9054	3284.45	2392.7
919.452	1859.5572	3274.1	2385.85
919.5916	1861.2083	3274.1	2386.15
919.7312	1862.8587	3274.6	2384.9
919.8708	1864.5084	3258.85	2368
920.0103	1866.1572	3264.3	2374.95
920.1498	1867.8054	3253.7	2361.25
920.2893	1869.4528	3243.85	2351.15
920.4288	1871.0994	3242.3	2350.75
920.5683	1872.7453	3222.95	2331.4
920.7077	1874.3905	3235.8	2339.45
920.8471	1876.0349	3221.6	2330.25
920.9865	1877.6786	3210.25	2321.7
921.1259	1879.3215	3215.4	2326.25
921.2653	1880.9637	3193.25	2301.75
921.4046	1882.6051	3196.1	2309.25
921.5439	1884.2458	3195.1	2303.4
921.6832	1885.8858	3179.95	2291.5
921.8225	1887.525	3184.95	2295.55
921.9617	1889.1634	3163.85	2273.85
922.101	1890.8011	3165.45	2276.15
922.2402	1892.4381	3148.85	2260.85
922.3794	1894.0743	3148.45	2260.6
922.5185	1895.7098	3155.25	2267
922.6577	1897.3446	3142.7	2253.35
922.7968	1898.9786	3150	2257.75
922.9359	1900.6118	3128.85	2243
923.075	1902.2443	3130.15	2240
923.214	1903.8761	3105.15	2217.35
923.3531	1905.5071	3090.7	2199.95
923.4921	1907.1374	3091.3	2202.4
923.6311	1908.7669	3094.1	2205.7
923.77	1910.3957	3086.3	2196.05
923.909	1912.0237	3069.65	2181.05
924.0479	1913.651	3067.9	2179.25
924.1868	1915.2776	3062.5	2177
924.3257	1916.9034	3052.6	2166.8
924.4646	1918.5285	3052.15	2166.9
924.6034	1920.1528	3037.6	2149.65
924.7422	1921.7764	3032.45	2145
924.881	1923.3992	3034.25	2145.75
925.0198	1925.0213	3016.6	2128.1
925.1586	1926.6427	3004.2	2117.4
925.2973	1928.2633	3056.65	2083.7
925.436	1929.8832	3004.15	2115.3
925.5747	1931.5023	2995.3	2109.05
925.7134	1933.1207	2987.5	2098.95
925.852	1934.7383	2985.6	2096.6
925.9906	1936.3552	2954.5	2067.3
926.1292	1937.9714	2956.6	2068.45
926.2678	1939.5868	2951.2	2062.1
926.4064	1941.2015	2934.85	2045.3
926.5449	1942.8154	2934.05	2043.8
926.6834	1944.4286	2927.3	2039
926.8219	1946.041	2930.2	2021
926.9604	1947.6528	2916.7	2024.85
927.0988	1949.2637	2898.15	2008.95
927.2372	1950.8739	2886.8	1999.4
927.3756	1952.4834	2898.1	2009.85
927.514	1954.0921	2890.3	2003.6
927.6523	1955.7001	2896.1	2005.05
927.7907	1957.3074	2868.05	1983.5
927.929	1958.9139	2867.8	1982.45
928.0673	1960.5197	2863.6	1978.3
928.2055	1962.1247	2833.65	1945.85
928.3438	1963.729	2845.85	1962.15
928.482	1965.3325	2835.4	1943
928.6202	1966.9353	2828.75	1945.9
928.7584	1968.5374	2831.4	1944.3
928.8965	1970.1387	2821.7	1935.5
929.0346	1971.7393	2809.7	1923.9
929.1727	1973.3392	2799.8	1915.45
929.3108	1974.9383	2784.8	1902.75
929.4489	1976.5366	2782.6	1899.3
929.5869	1978.1342	2785.35	1900.55
929.7249	1979.7311	2783.3	1896.9
929.8629	1981.3273	2772.4	1886.4
930.0009	1982.9227	2762.6	1877
930.1388	1984.5173	2748.35	1866.55
930.2767	1986.1112	2758.7	1874.75
930.4146	1987.7044	2739.05	1854.4
930.5525	1989.2968	2735.4	1852
930.6904	1990.8885	2728.25	1840.05
930.8282	1992.4795	2731.45	1845.4
930.966	1994.0697	2713.4	1829.6
931.1038	1995.6592	2730.4	1846.85
931.2415	1997.2479	2706.2	1823.95
931.3793	1998.8359	2712.15	1829.15
931.517	2000.4232	2708.4	1825.7
931.6547	2002.0097	2689.7	1812
931.7923	2003.5955	2690.75	1811.55
931.93	2005.1805	2689.4	1807.15
932.0676	2006.7648	2679.9	1797.75
932.2052	2008.3484	2663.5	1782.65
932.3427	2009.9312	2675.65	1795.7
932.4803	2011.5133	2661.7	1783.6
932.6178	2013.0946	2661.95	1782.1
932.7553	2014.6752	2656.15	1775.25
932.8928	2016.2551	2654.4	1772.9
933.0302	2017.8342	2645.65	1763.8
933.1676	2019.4126	2644	1765.35
933.305	2020.9902	2629.1	1750.55
933.4424	2022.5672	2637.8	1756.7
933.5798	2024.1433	2634.3	1749.05
933.7171	2025.7188	2620.1	1742.6
933.8544	2027.2935	2611.3	1730.15
933.9917	2028.8674	2599.25	1719.65
934.129	2030.4406	2600.25	1722.65
934.2662	2032.0131	2598.15	1721.7
934.4034	2033.5849	2588.4	1702.35
934.5406	2035.1559	2582.3	1703.45
934.6778	2036.7261	2587.9	1707.9
934.8149	2038.2957	2589.25	1705.95
934.952	2039.8645	2583.05	1700.5
935.0891	2041.4325	2587.7	1699.15
935.2262	2042.9998	2578.3	1698.4
935.3632	2044.5664	2573.9	1689.95
935.5002	2046.1323	2558.15	1679.7
935.6372	2047.6974	2550.15	1670.4
935.7742	2049.2617	2550.6	1673.45
935.9111	2050.8254	2564.4	1679.05
936.048	2052.3883	2546.85	1663.8
936.1849	2053.9504	2541.95	1658.75
936.3218	2055.5118	2537.5	1652.85
936.4586	2057.0725	2533.1	1648.5
936.5955	2058.6325	2527.05	1646.15
936.7323	2060.1917	2511.15	1629.15
936.869	2061.7502	2508.9	1626.6
937.0058	2063.3079	2507.65	1629.35
937.1425	2064.8649	2503.7	1622.1
937.2792	2066.4212	2500.4	1619.05
937.4159	2067.9767	2497.9	1617.35
937.5525	2069.5315	2492.15	1610.25
937.6891	2071.0856	2493	1611.9
937.8257	2072.6389	2475.3	1594.1
937.9623	2074.1915	2474	1595.15
938.0989	2075.7433	2464.45	1585.4
938.2354	2077.2945	2457.3	1577.9
938.3719	2078.8448	2460	1577.65
938.5084	2080.3945	2448.25	1567.2
938.6448	2081.9434	2452.9	1569.6
938.7812	2083.4916	2451.1	1565.8
938.9176	2085.039	2451.95	1566.95
939.054	2086.5857	2457.35	1569.85
939.1903	2088.1317	2450.9	1565.55
939.3267	2089.677	2430.2	1541.4
939.463	2091.2215	2426.45	1539.2
939.5992	2092.7652	2424.55	1534.85
939.7355	2094.3083	2424.65	1536.15
939.8717	2095.8506	2418.35	1536.95
940.0079	2097.3921	2416.25	1532.25
940.1441	2098.933	2400	1516.45
940.2802	2100.4731	2402.1	1519.3
940.4163	2102.0124	2424.8	1521.5
940.5524	2103.5511	2397.7	1511.9
940.6885	2105.089	2401.9	1517.9
940.8245	2106.6261	2403.75	1520.25
940.9606	2108.1626	2386.85	1502.1
941.0965	2109.6983	2411.1	1497.3
941.2325	2111.2332	2382.6	1497.8
941.3684	2112.7675	2383.85	1497.05
941.5044	2114.301	2380.65	1494.3
941.6403	2115.8337	2367.05	1482.15
941.7761	2117.3657	2369.25	1484.85
941.912	2118.897	2375.65	1490.6
942.0478	2120.4276	2365.15	1473.25
942.1835	2121.9575	2360.9	1476
942.3193	2123.4866	2351.85	1464.55
942.455	2125.0149	2355.55	1470.2
942.5907	2126.5426	2336.75	1457.55
942.7264	2128.0695	2333.15	1446.55
942.8621	2129.5956	2332.9	1454.05
942.9977	2131.1211	2324	1438.5
943.1333	2132.6458	2328.9	1444.35
943.2689	2134.1698	2330.6	1445.05
943.4044	2135.693	2319.4	1430.55
943.54	2137.2155	2316.6	1426.75
943.6755	2138.7373	2312.5	1428.3
943.8109	2140.2584	2299.3	1419.35
943.9464	2141.7787	2302.65	1417.15
944.0818	2143.2983	2290.55	1411.55
944.2172	2144.8171	2291.75	1411.65
944.3526	2146.3353	2279.25	1396.35
944.4879	2147.8527	2278.25	1396.4
944.6232	2149.3693	2278.3	1393.8
944.7585	2150.8853	2284.8	1396.85
944.8938	2152.4005	2273.05	1387.8
945.029	2153.9149	2268.5	1381.35
945.1642	2155.4287	2263.7	1379.1
945.2994	2156.9417	2257.55	1370.5
945.4346	2158.454	2254.15	1366.85
945.5697	2159.9655	2256.3	1374.4
945.7048	2161.4764	2260.25	1377.95
945.8399	2162.9865	2237.7	1355.85
945.9749	2164.4958	2235.55	1352.45
946.1099	2166.0045	2232.45	1346.15
946.2449	2167.5124	2238.85	1353.9
946.3799	2169.0195	2243.9	1359.3
946.5148	2170.526	2240.85	1354.65
946.6498	2172.0317	2221.9	1335.25
946.7846	2173.5367	2225.8	1340.55
946.9195	2175.0409	2213.4	1331.1
947.0543	2176.5445	2226.1	1341.2
947.1891	2178.0473	2215.5	1328.5
947.3239	2179.5494	2212.2	1320.1
947.4587	2181.0507	2206.35	1321.15
947.5934	2182.5513	2198.3	1314.85
947.7281	2184.0512	2206	1321.15
947.8628	2185.5504	2187	1301.75
947.9974	2187.0488	2194.85	1313.3
948.132	2188.5465	2187.95	1304.75
948.2666	2190.0435	2181.4	1297
948.4012	2191.5397	2180.9	1297
948.5357	2193.0353	2176.65	1291.05
948.6702	2194.5301	2175.35	1288.25
948.8047	2196.0241	2174.9	1286.5
948.9392	2197.5175	2171.6	1282.1
949.0736	2199.0101	2165.45	1276.2
949.208	2200.502	2169.9	1285.95
949.3424	2201.9931	2152.25	1268.2
949.4767	2203.4835	2133.5	1251
949.611	2204.9733	2156.6	1258.7
949.7453	2206.4622	2140.05	1258.4
949.8796	2207.9505	2126.65	1242.95
950.0138	2209.438	2123.35	1242.65
950.148	2210.9248	2125.85	1244.25
950.2822	2212.4109	2133.5	1249.95
950.4164	2213.8962	2131.5	1241.9
950.5505	2215.3809	2118.35	1231.6
950.6846	2216.8648	2122.4	1233.8
950.8186	2218.3479	2126.3	1231.6
950.9527	2219.8304	2110.5	1218.7
951.0867	2221.3121	2104.6	1215.35
951.2207	2222.7931	2096.85	1209.5
951.3546	2224.2733	2091.6	1203.8
951.4886	2225.7529	2094.1	1208.05
951.6225	2227.2317	2083.9	1194.5
951.7563	2228.7098	2080.25	1197.7
951.8902	2230.1872	2073.7	1190.25
952.024	2231.6638	2070.95	1190.2
952.1578	2233.1397	2069.8	1181.95
952.2916	2234.6149	2063.55	1181.6
952.4253	2236.0894	2060.95	1176.35
952.559	2237.5632	2077	1184
952.6927	2239.0362	2053.15	1168.5
952.8263	2240.5085	2046.15	1159.1
952.9599	2241.9801	2054.9	1168.45
953.0935	2243.4509	2061.4	1174.45
953.2271	2244.921	2042.85	1154.4
953.3606	2246.3904	2036.5	1145.2
953.4941	2247.8591	2035.45	1149.15
953.6276	2249.3271	2025.65	1139.4
953.7611	2250.7943	2027.55	1139.35
953.8945	2252.2608	2019.25	1134.95
954.0279	2253.7266	2024.2	1138
954.1612	2255.1917	2018.15	1133.8
954.2946	2256.656	2009.1	1121.9
954.4279	2258.1197	2004.55	1120.9
954.5612	2259.5826	2002.8	1117.25
954.6944	2261.0447	2002.55	1116.65
954.8276	2262.5062	2001.25	1112.75
954.9608	2263.9669	2000.4	1111.1
955.094	2265.4269	1996.5	1112.1
955.2271	2266.8862	1979.75	1093.05
955.3602	2268.3448	1980.4	1095.6
955.4933	2269.8026	1984.15	1101.1
955.6264	2271.2598	1976.55	1093.35
955.7594	2272.7162	1979.45	1096.45
955.8924	2274.1719	1987.5	1100.75
956.0253	2275.6268	1985.6	1100.15
956.1583	2277.0811	1969.4	1082.7
956.2912	2278.5346	1971.7	1086.2
956.4241	2279.9874	1968.6	1083.95
956.5569	2281.4395	1967.45	1084.75
956.6897	2282.8908	1972.8	1084.3
956.8225	2284.3414	1963.25	1076
956.9553	2285.7914	1952.55	1068
957.088	2287.2406	1958.1	1071.95
957.2207	2288.689	1955.25	1067.7
957.3534	2290.1368	1947.5	1058.8
957.486	2291.5838	1950.2	1057.35
957.6186	2293.0302	1951.5	1061.6
957.7512	2294.4758	1943.25	1057.8
957.8838	2295.9206	1942.8	1054.25
958.0163	2297.3648	1938.05	1055.5
958.1488	2298.8082	1933.1	1046.8
958.2813	2300.251	1927.05	1040.6
958.4137	2301.693	1936	1045.65
958.5461	2303.1343	1932.5	1043.25
958.6785	2304.5748	1927.55	1038.75
958.8108	2306.0147	1917.6	1035.15
958.9432	2307.4538	1926.5	1041.4
959.0754	2308.8922	1924.05	1042.75
959.2077	2310.3299	1908.8	1024.5
959.3399	2311.7669	1909.05	1025.45
959.4721	2313.2031	1912.95	1026.55
959.6043	2314.6387	1894.85	1010.7
959.7365	2316.0735	1891.6	1005.4
959.8686	2317.5076	1901.75	1015.95
960.0006	2318.941	1891.3	1003.3
960.1327	2320.3737	1898.2	1008.9
960.2647	2321.8056	1893.75	1003.45
960.3967	2323.2369	1878	989.8
960.5287	2324.6674	1886.4	998.9
960.6606	2326.0972	1885.6	997.25
960.7925	2327.5263	1880.2	995.5
960.9244	2328.9547	1873.65	984.3
961.0562	2330.3823	1877.25	988.6
961.1881	2331.8092	1881.2	990.05
961.3198	2333.2355	1866.2	977.65
961.4516	2334.661	1869.35	982.5
961.5833	2336.0858	1871.9	982.95
961.715	2337.5098	1862	973.65
961.8467	2338.9332	1859.65	972.25
961.9783	2340.3558	1863.75	975.5
962.1099	2341.7778	1854.2	968.85
962.2415	2343.199	1849.8	961.15
962.373	2344.6195	1848.85	965.1
962.5045	2346.0393	1843.95	958.85
962.636	2347.4583	1848.4	963
962.7675	2348.8767	1842.4	954
962.8989	2350.2943	1843.7	955.05
963.0303	2351.7113	1853.15	964.25
963.1617	2353.1275	1841.4	950.85
963.293	2354.543	1839.7	941.45
963.4243	2355.9578	1838.95	948.45
963.5556	2357.3718	1829.85	944.35
963.6868	2358.7852	1829.8	943.4
963.818	2360.1978	1817.8	932.05
963.9492	2361.6098	1816.2	929.95
964.0803	2363.021	1827.65	937.5
964.2114	2364.4315	1824.85	938.8
964.3425	2365.8413	1817.35	930.35
964.4736	2367.2504	1814.6	928.15
964.6046	2368.6587	1812.75	927
964.7356	2370.0664	1793.9	908.25
964.8666	2371.4733	1801.6	913.75
964.9975	2372.8795	1808.4	920.35
965.1284	2374.285	1802.45	916.05
965.2593	2375.6899	1796.7	909.5
965.3901	2377.0939	1795.1	908.8
965.5209	2378.4973	1790.4	907.4
965.6517	2379.9	1785.95	896.9
965.7825	2381.3019	1789	903.4
965.9132	2382.7032	1781.4	897.9
966.0439	2384.1037	1776.7	894.1
966.1745	2385.5035	1769.55	887.8
966.3051	2386.9027	1768.95	886.6
966.4357	2388.3011	1776.95	890.05
966.5663	2389.6987	1768.4	883.15
966.6968	2391.0957	1761.85	877.7
966.8273	2392.492	1757.45	873.95
966.9578	2393.8876	1750.35	864.7
967.0882	2395.2824	1746.45	860.25
967.2186	2396.6765	1740.2	853.9
967.349	2398.07	1752.05	864.5
967.4793	2399.4627	1750.2	857.7
967.6097	2400.8547	1752.7	865.7
967.7399	2402.246	1751.95	860.75
967.8702	2403.6366	1744.4	856.35
968.0004	2405.0265	1728.55	844.6
968.1306	2406.4156	1729.95	840.15
968.2607	2407.8041	1731.4	844
968.3909	2409.1918	1730.1	842.05
968.521	2410.5789	1713.4	827.35
968.651	2411.9652	1717.75	827.9
968.781	2413.3508	1716.85	829.5
968.911	2414.7358	1719.3	831.95
969.041	2416.12	1708.65	823.55
969.1709	2417.5035	1716.75	831.2
969.3008	2418.8863	1706.95	820.15
969.4307	2420.2684	1712.15	826.15
969.5606	2421.6497	1705.1	817.75
969.6904	2423.0304	1709.05	823.7
969.8201	2424.4104	1698.95	812.4
969.9499	2425.7896	1705.35	814.9
970.0796	2427.1682	1696	810.9
970.2093	2428.546	1694.5	808.7
970.3389	2429.9232	1695.65	807.65
970.4685	2431.2996	1689.45	804.6
970.5981	2432.6753	1696.9	809.8
970.7277	2434.0503	1687.7	799.8
970.8572	2435.4246	1690.05	805.4
970.9867	2436.7982	1687.8	798.6
971.1161	2438.1711	1681.9	794.3
971.2456	2439.5433	1677.05	790.45
971.375	2440.9148	1669.75	780
971.5043	2442.2856	1669.45	784.35
971.6336	2443.6557	1667.05	778.55
971.7629	2445.025	1666.55	779.6
971.8922	2446.3937	1661.45	773.5
972.0214	2447.7617	1660.85	774.85
972.1506	2449.1289	1657.35	772.25
972.2798	2450.4955	1661	770.65
972.4089	2451.8613	1645.8	760.2
972.538	2453.2265	1646.1	761.6
972.6671	2454.5909	1649.35	762.65
972.7961	2455.9546	1646.55	761.05
972.9251	2457.3177	1637.5	749.95
973.0541	2458.68	1646	758.4
973.1831	2460.0416	1652	766.5
973.312	2461.4025	1643.35	755.75
973.4408	2462.7627	1645.55	749.6
973.5697	2464.1222	1637.25	755.4
973.6985	2465.4811	1633.35	748.35
973.8273	2466.8392	1637.05	752.6
973.956	2468.1966	1635.1	746.2
974.0847	2469.5533	1636.1	750.5
974.2134	2470.9093	1634.95	750.2
974.3421	2472.2645	1634.45	747.6
974.4707	2473.6191	1634.35	747.9
974.5993	2474.973	1628.3	742.3
974.7278	2476.3262	1629.1	742.45
974.8563	2477.6787	1629.75	747.55
974.9848	2479.0305	1617.95	731.3
975.1132	2480.3816	1611.95	725.7
975.2417	2481.7319	1622.85	738.5
975.37	2483.0816	1616.85	729.45
975.4984	2484.4306	1614.35	728.7
975.6267	2485.7789	1616.25	731.1
975.755	2487.1264	1604.8	720.4
975.8833	2488.4733	1601.15	718.05
976.0115	2489.8195	1619.95	718.25
976.1397	2491.165	1608.25	720.85
976.2678	2492.5097	1590.35	704.85
976.3959	2493.8538	1601.05	716.9
976.524	2495.1972	1584.25	696.1
976.6521	2496.5398	1585.3	697.9
976.7801	2497.8818	1595.2	707.8
976.9081	2499.2231	1587.15	698.7
977.036	2500.5637	1589.15	703.15
977.164	2501.9035	1581.95	692.1
977.2918	2503.2427	1584.15	695
977.4197	2504.5812	1583.2	697.1
977.5475	2505.919	1585.85	696.45
977.6753	2507.256	1581.55	696.05
977.8031	2508.5924	1578.85	693.45
977.9308	2509.9281	1581.65	691.75
978.0585	2511.2631	1571.25	687.8
978.1861	2512.5974	1562.65	676.6
978.3137	2513.9309	1563.8	677.75
978.4413	2515.2638	1599.8	687.6
978.5689	2516.596	1570.8	684.5
978.6964	2517.9275	1561.15	673.6
978.8239	2519.2583	1562.7	678.35
978.9513	2520.5884	1565.15	678.45
979.0788	2521.9178	1555.55	670
979.2062	2523.2465	1554.85	669.5
979.3335	2524.5745	1553.1	669.2
979.4608	2525.9018	1548.6	663.1
979.5881	2527.2284	1545.85	660.95
979.7154	2528.5543	1555.35	670.5
979.8426	2529.8796	1550.65	664.65
979.9698	2531.2041	1543.9	658.45
980.0969	2532.5279	1542.1	656.65
980.224	2533.851	1544	658.1
980.3511	2535.1735	1535.8	648.65
980.4781	2536.4952	1544.9	658.9
980.6052	2537.8163	1537.65	650.5
980.7321	2539.1366	1542.7	658.5
980.8591	2540.4562	1535.4	648.1
980.986	2541.7752	1540	654.2
981.1129	2543.0935	1535.15	647.85
981.2397	2544.411	1538.6	652.8
981.3665	2545.7279	1533.3	645.3
981.4933	2547.0441	1538.95	653
981.62	2548.3596	1539.65	649.3
981.7467	2549.6744	1539.15	653.3
981.8734	2550.9885	1538.9	642.1
982.0001	2552.3019	1528.55	643.55
982.1267	2553.6146	1531.3	643.95
982.2532	2554.9266	1522	637.55
982.3798	2556.2379	1524.05	638.85
982.5063	2557.5485	1510.9	628.25
982.6327	2558.8585	1529.35	634.15
982.7592	2560.1677	1523.2	632.5
982.8856	2561.4762	1523.75	639.35
983.0119	2562.7841	1519.95	631.8
983.1383	2564.0913	1524	638.1
983.2646	2565.3977	1518.75	634
983.3908	2566.7035	1521.15	635.65
983.517	2568.0086	1522.8	634
983.6432	2569.313	1516.1	628.85
983.7694	2570.6167	1518.85	628.5
983.8955	2571.9197	1515.4	630.65
984.0216	2573.222	1521.75	631.35
984.1476	2574.5236	1518.65	632.55
984.2737	2575.8246	1511.8	622.8
984.3996	2577.1248	1519.85	632.55
984.5256	2578.4244	1506.1	620.85
984.6515	2579.7232	1512.85	627.85
984.7774	2581.0214	1530.9	616.9
984.9032	2582.3189	1514.1	627.7
985.029	2583.6157	1516.35	626.9
985.1548	2584.9118	1508.4	622.6
985.2806	2586.2072	1502.45	617.95
985.4063	2587.5019	1504.85	619.9
985.5319	2588.7959	1505.75	620.95
985.6576	2590.0893	1511.15	623.25
985.7832	2591.3819	1510.45	626.65
985.9087	2592.6739	1496.25	611.4
986.0343	2593.9652	1507.15	623.05
986.1597	2595.2557	1507.8	621.5
986.2852	2596.5456	1507.35	620.3
986.4106	2597.8348	1505.25	622
986.536	2599.1234	1506.05	624.15
986.6614	2600.4112	1501	616.95
986.7867	2601.6983	1507.4	619.85
986.912	2602.9848	1507.65	623.9
987.0372	2604.2705	1507.25	615.05
987.1624	2605.5556	1503.25	617.85
987.2876	2606.84	1498.45	612.25
987.4128	2608.1237	1499.7	615.2
987.5379	2609.4067	1497.3	614.25
987.6629	2610.689	1497.15	602.6
987.788	2611.9707	1490.15	601.8
987.913	2613.2516	1486.55	596.55
988.0379	2614.5319	1482.85	598.95
988.1629	2615.8115	1481.8	598.2
988.2878	2617.0903	1478.1	594.35
988.4126	2618.3685	1471.85	587.45
988.5375	2619.6461	1479.5	596.35
988.6622	2620.9229	1471.3	585.55
988.787	2622.199	1473.65	588.05
988.9117	2623.4745	1470.8	587.9
989.0364	2624.7493	1468.7	586.5
989.161	2626.0234	1463.75	581.75
989.2857	2627.2968	1468.45	584.65
989.4102	2628.5695	1470.2	584.15
989.5348	2629.8415	1459.65	575.3
989.6593	2631.1128	1459.7	574.95
989.7837	2632.3835	1461.75	578.3
989.9082	2633.6535	1460.2	577.65
990.0326	2634.9228	1454.25	571.8
990.1569	2636.1914	1456.35	571.55
990.2812	2637.4593	1456.25	571.55
990.4055	2638.7265	1460.3	575.15
990.5298	2639.9931	1452.65	568.8
990.654	2641.259	1456.9	571.3
990.7782	2642.5242	1451.9	568.85
990.9023	2643.7887	1441.9	556.5
991.0264	2645.0525	1440.15	556.7
991.1505	2646.3156	1444.2	558.65
991.2745	2647.5781	1438.2	554.5
991.3985	2648.8398	1448.65	564.95
991.5225	2650.1009	1472.6	553.65
991.6464	2651.3613	1442.65	558.95
991.7703	2652.6211	1437.1	554.45
991.8942	2653.8801	1433.9	552.85
992.018	2655.1385	1440.05	554.5
992.1418	2656.3961	1434	550.7
992.2655	2657.6531	1429.95	548.65
992.3892	2658.9094	1437.05	554.6
992.5129	2660.1651	1428.35	547.75
992.6366	2661.42	1432.45	550.75
992.7602	2662.6743	1441.05	556.15
992.8837	2663.9279	1438.3	556.1
993.0073	2665.1808	1435.3	553.35
993.1307	2666.433	1442.85	557.65
993.2542	2667.6846	1440.4	557.4
993.3776	2668.9354	1451.15	563.35
993.501	2670.1856	1442.2	559.55
993.6244	2671.4351	1443.15	559.55
993.7477	2672.6839	1450.6	566.35
993.8709	2673.9321	1449.2	566.25
993.9942	2675.1795	1450.4	566.6
994.1174	2676.4263	1453.15	571.2
994.2405	2677.6724	1454.75	573.55
994.3637	2678.9179	1451.9	568.05
994.4868	2680.1626	1456.1	573.1
994.6098	2681.4067	1451.25	567.85
994.7328	2682.6501	1451.55	567.25
994.8558	2683.8928	1456.8	575.4
994.9788	2685.1348	1443.5	562.3
995.1017	2686.3761	1435.65	553.65
995.2245	2687.6168	1439.7	558.15
995.3474	2688.8568	1433.55	547.65
995.4702	2690.0961	1424.65	541.9
995.5929	2691.3348	1426.95	543.15
995.7156	2692.5727	1426.3	543.65
995.8383	2693.81	1422.2	540.15
995.961	2695.0466	1422.55	539.9
996.0836	2696.2826	1421.45	536.75
996.2062	2697.5178	1423	535.35
996.3287	2698.7524	1425.15	542.1
996.4512	2699.9863	1431.1	547.15
996.5737	2701.2195	1427.7	546.55
996.6961	2702.452	1434.3	549.9
996.8185	2703.6839	1444.75	562
996.9408	2704.9151	1443.55	562.1
997.0631	2706.1456	1441.95	558.35
997.1854	2707.3755	1446.5	562.35
997.3077	2708.6046	1459.15	573.5
997.4299	2709.8331	1465.15	580.55
997.552	2711.0609	1462.2	580.65
997.6742	2712.2881	1470.45	587
997.7963	2713.5145	1485.8	600.1
997.9183	2714.7403	1478.45	596.6
998.0403	2715.9654	1493.05	610.75
998.1623	2717.1899	1515.9	619
998.2842	2718.4136	1515.6	631.8
998.4062	2719.6367	1519.35	637.9
998.528	2720.8591	1532.15	642
998.6498	2722.0809	1537.1	654.35
998.7716	2723.3019	1550	662.75
998.8934	2724.5223	1559.9	673.4
999.0151	2725.7421	1570.25	686.75
999.1368	2726.9611	1566.5	680.6
999.2584	2728.1795	1564.65	678.45
999.38	2729.3972	1555.6	673.85
999.5016	2730.6142	1553.1	667.65
999.6231	2731.8306	1527.8	644.4
999.7446	2733.0462	1524.45	640.05
999.8661	2734.2612	1513.75	627.6
999.9875	2735.4756	1495.2	612.8
1000.1089	2736.6892	1476.45	592.9
1000.2302	2737.9022	1460.3	579.8
1000.3515	2739.1145	1450.8	568.6
1000.4728	2740.3262	1449.85	558.05
1000.594	2741.5372	1434	551.85
1000.7152	2742.7475	1422.25	541.85
1000.8363	2743.9571	1420.9	538.6
1000.9575	2745.1661	1407.2	521.15
1001.0785	2746.3744	1397.7	515.85
1001.1996	2747.582	1388.6	506.25
1001.3206	2748.7889	1382.8	501.5
1001.4415	2749.9952	1375.55	493.45
1001.5625	2751.2008	1374.35	493.3
1001.6833	2752.4057	1371.5	488.15
1001.8042	2753.61	1360.5	476.9
1001.925	2754.8136	1368.05	484.35
1002.0458	2756.0165	1363.75	481.3
1002.1665	2757.2188	1362.3	481.15
1002.2872	2758.4204	1362.55	480.5
1002.4078	2759.6213	1356.85	472.1
1002.5285	2760.8215	1367.2	481.9
1002.649	2762.0211	1360.9	478.35
1002.7696	2763.22	1365.7	482.6
1002.8901	2764.4182	1361.4	478.15
1003.0106	2765.6158	1350.75	466.55
1003.131	2766.8127	1352.85	468.8
1003.2514	2768.009	1347.9	464.65
1003.3717	2769.2045	1348.95	465.5
1003.492	2770.3994	1345.65	461.45
1003.6123	2771.5936	1346.2	462.45
1003.7325	2772.7872	1333.4	454.05
1003.8527	2773.9801	1334.5	450.1
1003.9729	2775.1723	1345.1	447.05
1004.093	2776.3639	1332.45	454.35
1004.2131	2777.5548	1336.15	452.1
1004.3331	2778.745	1331.6	448.6
1004.4531	2779.9346	1326.85	446.4
1004.5731	2781.1235	1331.45	450.4
1004.693	2782.3117	1334.3	454.3
1004.8129	2783.4992	1332.25	450.7
1004.9328	2784.6861	1337.3	456.2
1005.0526	2785.8723	1339.55	455.45
1005.1723	2787.0579	1343.3	462.55
1005.2921	2788.2428	1343.5	461.25
1005.4118	2789.427	1343.35	463.8
1005.5314	2790.6106	1352.95	471.6
1005.651	2791.7935	1360.35	478.2
1005.7706	2792.9757	1353.3	473
1005.8902	2794.1573	1375.65	490.65
1006.0097	2795.3382	1370.25	489
1006.1291	2796.5184	1378.85	499.8
1006.2485	2797.698	1393.7	511.85
1006.3679	2798.8769	1396.55	515.85
1006.4873	2800.0551	1408.4	525.95
1006.6066	2801.2327	1418.25	534
1006.7258	2802.4096	1430.45	549.05
1006.8451	2803.5859	1441.5	560.4
1006.9642	2804.7615	1452.7	573.95
1007.0834	2805.9364	1468.9	587.9
1007.2025	2807.1106	1493.75	611.35
1007.3216	2808.2842	1508.8	627.1
1007.4406	2809.4572	1540.4	660.05
1007.5596	2810.6294	1554.15	671.55
1007.6785	2811.801	1595.8	714.7
1007.7975	2812.972	1611.6	728.9
1007.9163	2814.1423	1656.55	773.05
1008.0352	2815.3119	1691.65	810.55
1008.154	2816.4808	1737.65	859.05
1008.2727	2817.6491	1785.3	902.75
1008.3914	2818.8167	1835.1	954.9
1008.5101	2819.9837	1897.1	1011.85
1008.6288	2821.15	1942.1	1062.2
1008.7474	2822.3157	1993.95	1115.15
1008.8659	2823.4807	2053	1172.85
1008.9844	2824.645	2098.1	1216.95
1009.1029	2825.8086	2158.95	1278.35
1009.2214	2826.9716	2207.45	1326.95
1009.3398	2828.134	2265	1383.35
1009.4581	2829.2957	2311.15	1430.75
1009.5764	2830.4567	2346.4	1467.75
1009.6947	2831.617	2373.95	1490
1009.813	2832.7767	2366.3	1487.55
1009.9312	2833.9358	2385.55	1504.6
1010.0493	2835.0941	2376.3	1495.2
1010.1675	2836.2519	2357.1	1477.7
1010.2855	2837.4089	2327.45	1444
1010.4036	2838.5653	2311.95	1431.65
1010.5216	2839.7211	2308.75	1431.65
1010.6396	2840.8761	2304.35	1422.2
1010.7575	2842.0306	2308.8	1428.2
1010.8754	2843.1843	2329.45	1449.45
1010.9932	2844.3374	2343.8	1463.55
1011.111	2845.4899	2390.05	1509.2
1011.2288	2846.6417	2426.4	1547.1
1011.3465	2847.7928	2482.2	1602.75
1011.4642	2848.9433	2532.55	1654.35
1011.5818	2850.0931	2587.05	1706.65
1011.6995	2851.2422	2646	1765.25
1011.817	2852.3907	2695.6	1815.25
1011.9345	2853.5385	2743.8	1862.05
1012.052	2854.6857	2806.35	1899.8
1012.1695	2855.8323	2825.35	1947.45
1012.2869	2856.9781	2870.4	1990.25
1012.4042	2858.1233	2922.75	2040.6
1012.5216	2859.2679	2960.7	2081.3
1012.6389	2860.4118	3011.5	2130.35
1012.7561	2861.555	3060.2	2176.55
1012.8733	2862.6976	3089.1	2208.1
1012.9905	2863.8395	3129.45	2248.85
1013.1076	2864.9808	3168.55	2288.3
1013.2247	2866.1214	3180.35	2302.1
1013.3417	2867.2614	3199.95	2319.4
1013.4587	2868.4007	3219.9	2337.9
1013.5757	2869.5393	3235.55	2352.75
1013.6926	2870.6773	3256.85	2374.55
1013.8095	2871.8146	3259.85	2376.55
1013.9263	2872.9513	3261.65	2379
1014.0431	2874.0874	3238.6	2358.05
1014.1599	2875.2227	3233.6	2351.35
1014.2766	2876.3574	3231.35	2352.1
1014.3933	2877.4915	3197.35	2316.1
1014.51	2878.6249	3164.45	2284.9
1014.6266	2879.7577	3153.9	2272.25
1014.7431	2880.8898	3142.25	2253.65
1014.8596	2882.0212	3111.2	2234.55
1014.9761	2883.152	3108.05	2226.25
1015.0925	2884.2821	3095.9	2217.45
1015.2089	2885.4116	3091.95	2213.6
1015.3253	2886.5405	3096.85	2218.2
1015.4416	2887.6686	3106.45	2223.2
1015.5579	2888.7962	3095.55	2218.3
1015.6741	2889.923	3115.35	2237.35
1015.7903	2891.0493	3128.25	2247.35
1015.9065	2892.1748	3126	2245.6
1016.0226	2893.2997	3138.45	2257.35
1016.1387	2894.424	3151.05	2272.9
1016.2547	2895.5476	3174.4	2293.6
1016.3707	2896.6706	3180.3	2301.6
1016.4866	2897.7929	3201.75	2320.4
1016.6025	2898.9145	3221.85	2343.45
1016.7184	2900.0355	3255.15	2374.15
1016.8342	2901.1559	3277.2	2397.15
1016.95	2902.2756	3306.3	2423.5
1017.0658	2903.3946	3334.3	2455.55
1017.1815	2904.513	3350.25	2467.65
1017.2971	2905.6308	3378.75	2501.55
1017.4127	2906.7479	3389.4	2508.2
1017.5283	2907.8643	3425.15	2545.95
1017.6439	2908.9801	3436	2557.3
1017.7594	2910.0953	3434	2554.75
1017.8748	2911.2098	3449.35	2567.45
1017.9902	2912.3236	3436.15	2548.8
1018.1056	2913.4368	3430.85	2551.5
1018.2209	2914.5494	3409.9	2531.5
1018.3362	2915.6613	3373.6	2487.35
1018.4515	2916.7725	3364.6	2480.95
1018.5667	2917.8831	3328.85	2448.35
1018.6819	2918.9931	3288.2	2406.45
1018.797	2920.1024	3269.35	2390.1
1018.9121	2921.211	3249.4	2371.1
1019.0271	2922.319	3242.7	2363.75
1019.1421	2923.4264	3220.85	2343.35
1019.2571	2924.5331	3226.05	2346.2
1019.372	2925.6391	3204.75	2327.35
1019.4869	2926.7445	3212.2	2335.4
1019.6017	2927.8493	3204.95	2325.2
1019.7165	2928.9534	3223.3	2344.4
1019.8313	2930.0569	3236	2352.8
1019.946	2931.1597	3233	2351.95
1020.0606	2932.2619	3238.9	2360
1020.1753	2933.3634	3247.2	2367.7
1020.2899	2934.4643	3244.15	2358.9
1020.4044	2935.5645	3252	2367.15
1020.5189	2936.6641	3219.45	2336.6
1020.6334	2937.763	3203.4	2327.7
1020.7478	2938.8613	3171.5	2293.1
1020.8622	2939.959	3133.7	2250
1020.9765	2941.056	3079.9	2203.85
1021.0908	2942.1523	3013.6	2131.5
1021.2051	2943.248	2934.8	2055.55
1021.3193	2944.3431	2866.35	1987.75
1021.4334	2945.4375	2772.25	1893.75
1021.5476	2946.5313	2691.1	1813.4
1021.6617	2947.6244	2600	1719.7
1021.7757	2948.7169	2506.35	1625.5
1021.8897	2949.8087	2417.55	1539.3
1022.0037	2950.8999	2338.8	1457.95
1022.1176	2951.9904	2281.05	1402
1022.2315	2953.0803	2204.45	1324.6
1022.3453	2954.1696	2157.6	1280.85
1022.4591	2955.2582	2108.5	1230.55
1022.5728	2956.3462	2065.45	1185.2
1022.6865	2957.4335	2029.2	1150.9
1022.8002	2958.5202	2000.8	1118.65
1022.9138	2959.6062	1977.2	1096.1
1023.0274	2960.6916	1952.7	1075.5
1023.141	2961.7764	1933.25	1053.6
1023.2545	2962.8605	1918.8	1040.95
1023.3679	2963.9439	1900.25	1022.25
1023.4813	2965.0267	1891	1011.7
1023.5947	2966.1089	1901.3	1001.3
1023.708	2967.1905	1884.95	1005.7
1023.8213	2968.2714	1885.3	1006.6
1023.9346	2969.3516	1875	997.75
1024.0478	2970.4312	1892.05	1007.75
1024.1609	2971.5102	1884.2	1005.85
1024.274	2972.5885	1885.95	1007.35
1024.3871	2973.6662	1903.6	1018.65
1024.5002	2974.7432	1895.7	1018.8
1024.6132	2975.8196	1892.35	1013.55
1024.7261	2976.8954	1875.4	998.15
1024.839	2977.9705	1868.5	990.2
1024.9519	2979.045	1869	991.1
1025.0647	2980.1188	1858.05	979.3
1025.1775	2981.192	1838.55	959.65
1025.2902	2982.2645	1821.05	939.45
1025.4029	2983.3364	1808.55	929.8
1025.5156	2984.4077	1779.2	901.2
1025.6282	2985.4783	1754.4	870.1
1025.7407	2986.5483	1732.35	854.95
1025.8532	2987.6177	1699.35	821.3
1025.9657	2988.6864	1661.75	784
1026.0782	2989.7545	1650.05	770.6
1026.1906	2990.8219	1613.4	736.75
1026.3029	2991.8887	1587.7	706.05
1026.4152	2992.9548	1554.45	674.1
1026.5275	2994.0204	1523.25	644.8
1026.6397	2995.0852	1494.1	616.5
1026.7519	2996.1495	1470.05	587.3
1026.864	2997.2131	1445.05	567.2
1026.9761	2998.276	1427.4	549.45
1027.0882	2999.3383	1410.3	532.1
1027.2002	3000.4	1387.4	506.7
1027.3122	3001.4611	1371.85	496.75
1027.4241	3002.5215	1358.45	481.65
1027.536	3003.5812	1346.25	466.5
1027.6478	3004.6404	1328.05	446.6
1027.7596	3005.6989	1319.85	437.4
1027.8714	3006.7567	1306.35	429.2
1027.9831	3007.8139	1328.9	417.05
1028.0947	3008.8705	1288.25	409.9
1028.2064	3009.9264	1281.8	398.7
1028.3179	3010.9818	1268.25	391.35
1028.4295	3012.0364	1265.65	387.7
1028.541	3013.0905	1256.15	379.2
1028.6524	3014.1439	1256.4	378.4
1028.7638	3015.1966	1250.6	373.1
1028.8752	3016.2487	1249.15	371.7
1028.9865	3017.3002	1240.55	357.95
1029.0978	3018.3511	1239.25	363.9
1029.209	3019.4013	1234.15	356.65
1029.3202	3020.4509	1231.8	353.8
1029.4314	3021.4998	1228.45	349.95
1029.5425	3022.5481	1224.2	344.6
1029.6535	3023.5958	1222.2	343.95
1029.7645	3024.6428	1224.15	346.1
1029.8755	3025.6892	1224.1	347.55
1029.9864	3026.735	1218.85	341.05
1030.0973	3027.7802	1221.55	341.55
1030.2082	3028.8247	1220.05	343.35
1030.319	3029.8685	1221.9	342.3
1030.4297	3030.9118	1220.3	342.65
1030.5404	3031.9544	1228.85	352.1
1030.6511	3032.9963	1220.05	342.65
1030.7617	3034.0376	1223.25	344.95
1030.8723	3035.0783	1227.55	347.25
1030.9829	3036.1184	1230.3	351.2
1031.0934	3037.1578	1228.75	351.45
1031.2038	3038.1966	1231.1	351.1
1031.3142	3039.2348	1231.25	352.9
1031.4246	3040.2723	1239	352.5
1031.5349	3041.3092	1232	356.05
1031.6452	3042.3455	1233.05	354.65
1031.7554	3043.3811	1234.7	355.65
1031.8656	3044.4161	1228.6	351.85
1031.9758	3045.4505	1230.15	355.5
1032.0859	3046.4842	1228.35	350.2
1032.1959	3047.5173	1222.55	344.95
1032.3059	3048.5498	1226.1	347.75
1032.4159	3049.5816	1220.55	342.3
1032.5258	3050.6128	1217.45	338.15
1032.6357	3051.6434	1216.95	338.35
1032.7455	3052.6734	1220.2	341.95
1032.8553	3053.7027	1209.4	332.5
1032.9651	3054.7314	1211.5	333.8
1033.0748	3055.7594	1205.25	330.7
1033.1845	3056.7868	1207.55	328.1
1033.2941	3057.8136	1203.7	328.35
1033.4037	3058.8398	1200.3	322.6
1033.5132	3059.8653	1199.15	320.7
1033.6227	3060.8902	1196.7	320.6
1033.7321	3061.9145	1194.4	317.3
1033.8415	3062.9381	1197.85	320.45
1033.9509	3063.9612	1212.95	318.9
1034.0602	3064.9835	1191.8	314.45
1034.1694	3066.0053	1187.55	304.9
1034.2787	3067.0264	1183.85	307.6
1034.3878	3068.0469	1177.45	298.8
1034.497	3069.0668	1178.25	297.25
1034.6061	3070.086	1170.45	293.9
1034.7151	3071.1046	1173.3	296.45
1034.8241	3072.1226	1164.4	284.65
1034.9331	3073.1399	1159.7	285.35
1035.042	3074.1567	1158.05	280
1035.1508	3075.1727	1146.7	265.5
1035.2597	3076.1882	1151.5	274.3
1035.3684	3077.203	1137.9	257.1
1035.4772	3078.2173	1130.1	250.6
1035.5859	3079.2308	1124.35	244.9
1035.6945	3080.2438	1125.95	244.5
1035.8031	3081.2561	1114.1	237.9
1035.9117	3082.2678	1110.95	232.2
1036.0202	3083.2789	1106.6	227.65
1036.1286	3084.2893	1102.1	223.35
1036.2371	3085.2991	1100.95	223.6
1036.3454	3086.3083	1096.6	213.5
1036.4538	3087.3169	1087.25	208.45
1036.562	3088.3248	1087	207.6
1036.6703	3089.3321	1079.25	200
1036.7785	3090.3388	1075.6	196.65
1036.8866	3091.3449	1073.9	196.5
1036.9948	3092.3503	1070.85	190.8
1037.1028	3093.3551	1061.4	186.95
1037.2108	3094.3593	1062	186.55
1037.3188	3095.3629	1058.2	183.05
1037.4267	3096.3658	1056.75	178
1037.5346	3097.3681	1051.65	174.5
1037.6425	3098.3698	1059.4	182.15
1037.7503	3099.3708	1058.25	173.85
1037.858	3100.3713	1049.7	173.3
1037.9657	3101.3711	1045.75	166.35
1038.0734	3102.3702	1159.95	169.25
1038.181	3103.3688	1039.65	160.85
1038.2886	3104.3667	1037.25	163.2
1038.3961	3105.364	1035	158.2
1038.5036	3106.3607	1034.95	153.65
1038.611	3107.3568	1033.75	156.95
1038.7184	3108.3522	1030.5	154.85
1038.8257	3109.347	1031.2	153.85
1038.933	3110.3412	1032.4	150.2
1039.0403	3111.3348	1027.95	150.2
1039.1475	3112.3277	1025.05	147.9
1039.2547	3113.32	1017.3	140.15
1039.3618	3114.3117	1018.25	140.85
1039.4689	3115.3028	1018.55	142.05
1039.5759	3116.2932	1020.1	142.1
1039.6829	3117.2831	1018.5	135.85
1039.7898	3118.2723	1016.85	141.45
1039.8967	3119.2608	1010.95	133.4
1040.0035	3120.2488	1014.4	136.5
1040.1103	3121.2361	1009.9	132.65
1040.2171	3122.2229	1008.1	128.75
1040.3238	3123.209	1011.1	133.2
1040.4305	3124.1944	1006.9	130.55
1040.5371	3125.1793	1009.6	128.9
1040.6437	3126.1635	1002.5	126.2
1040.7502	3127.1471	1003.05	125.1
1040.8567	3128.1301	998.65	121.7
1040.9631	3129.1125	998.75	122.7
1041.0695	3130.0942	996.85	120.5
1041.1759	3131.0753	1006.15	118.95
1041.2822	3132.0558	997.95	116.9
1041.3884	3133.0357	993.35	114.3
1041.4946	3134.015	992.5	115.9
1041.6008	3134.9936	993.4	115.5
1041.7069	3135.9716	1009.05	110.6
1041.813	3136.949	989.35	112.6
1041.919	3137.9258	1007.05	111.55
1042.025	3138.902	997.35	112.95
1042.1309	3139.8775	986.75	108.35
1042.2368	3140.8524	988.25	110.85
1042.3427	3141.8267	985.2	106.8
1042.4485	3142.8004	987.15	109.25
1042.5542	3143.7735	991.5	107.85
1042.6599	3144.7459	981.9	101.8
1042.7656	3145.7178	982.55	106.85
1042.8712	3146.689	980.95	104.2
1042.9768	3147.6596	983.4	104.05
1043.0823	3148.6295	977.95	100.5
1043.1878	3149.5989	977.95	102.05
1043.2932	3150.5676	979.2	104.35
1043.3986	3151.5357	978.5	104.2
1043.5039	3152.5032	979	102.15
1043.6092	3153.4701	976.3	98.05
1043.7145	3154.4364	977.55	98
1043.8197	3155.402	974.85	97.5
1043.9248	3156.367	975.45	97.65
1044.03	3157.3315	1011.1	96.2
1044.135	3158.2952	973.9	95.35
1044.24	3159.2584	972.5	93.8
1044.345	3160.221	972.1	94.3
1044.4499	3161.1829	971.15	94.1
1044.5548	3162.1442	971	93.65
1044.6596	3163.105	970.15	92.85
1044.7644	3164.065	969.55	92.65
1044.8692	3165.0245	968.85	88.4
1044.9739	3165.9834	967.35	92.4
1045.0785	3166.9416	964.6	87.05
1045.1831	3167.8993	962.4	85.2
1045.2877	3168.8563	967.6	88.05
1045.3922	3169.8127	965.8	89.6
1045.4966	3170.7684	966.2	89.15
1045.6011	3171.7236	967.15	88.6
1045.7054	3172.6782	961.65	84.15
1045.8098	3173.6321	962.2	84.5
1045.914	3174.5854	967.2	84.75
1046.0183	3175.5381	960.6	84.55
1046.1224	3176.4902	962.4	83.75
1046.2266	3177.4417	960.3	85
1046.3307	3178.3926	957.75	81.55
1046.4347	3179.3428	959.75	84.9
1046.5387	3180.2924	958.2	84.3
1046.6427	3181.2415	959.4	83.6
1046.7466	3182.1899	965.25	88.2
1046.8504	3183.1377	956.55	80.15
1046.9542	3184.0848	958	79.2
1047.058	3185.0314	955.05	77.25
1047.1617	3185.9773	959.45	81.5
1047.2654	3186.9227	953.45	77.45
1047.369	3187.8674	958.05	80.2
1047.4726	3188.8115	959.65	81.35
1047.5761	3189.755	954.95	79.05
1047.6796	3190.6979	952.65	76
1047.783	3191.6402	952.05	76.8
1047.8864	3192.5818	950.05	74.55
1047.9898	3193.5229	959.5	74.35
1048.0931	3194.4633	950.05	74.3
1048.1963	3195.4031	951.75	73.25
1048.2995	3196.3423	948.6	72.05
1048.4027	3197.2809	951.9	74.1
1048.5058	3198.2189	947.05	69.9
1048.6089	3199.1563	967.45	73.9
1048.7119	3200.0931	946.5	71.85
1048.8148	3201.0292	944.5	67.7
1048.9178	3201.9648	945.55	69.5
1049.0206	3202.8997	949.5	69
1049.1235	3203.834	947.8	71.2
1049.2262	3204.7677	945.8	69.25
1049.329	3205.7008	947.2	69.35
1049.4317	3206.6333	944.95	69
1049.5343	3207.5652	946.6	68.15
1049.6369	3208.4964	944.85	66.95
1049.7394	3209.4271	942.15	64.6
1049.8419	3210.3571	940.75	63.45
1049.9444	3211.2865	945.1	67.1
1050.0468	3212.2154	944.05	66.2
1050.1491	3213.1436	945	66.65
1050.2514	3214.0712	947.45	64.8
1050.3537	3214.9982	944.2	69.1
1050.4559	3215.9246	945.5	68.1
1050.5581	3216.8503	940.3	64
1050.6602	3217.7755	940.5	63.2
1050.7623	3218.7001	937.75	61.75
1050.8643	3219.624	943.15	67.25
1050.9663	3220.5473	939.7	63.8
1051.0682	3221.4701	940.25	61.5
1051.1701	3222.3922	942.15	62.9
1051.2719	3223.3137	937.95	60.3
1051.3737	3224.2346	935.6	57.2
1051.4754	3225.1549	935.15	59.1
1051.5771	3226.0746	936.85	61.5
1051.6788	3226.9937	937.45	62.75
1051.7804	3227.9121	935.55	60.25
1051.8819	3228.83	938.2	63.6
1051.9834	3229.7473	933.3	56.95
1052.0849	3230.6639	934.95	59.15
1052.1863	3231.5799	932.6	55.9
1052.2876	3232.4954	936.35	60.5
1052.3889	3233.4102	933.3	56.15
1052.4902	3234.3244	932.8	57.85
1052.5914	3235.238	931.5	56.75
1052.6926	3236.151	954.5	53.15
1052.7937	3237.0634	933.8	58.9
1052.8948	3237.9752	930.95	55.1
1052.9958	3238.8864	934.85	56.5
1053.0968	3239.797	930.2	53.75
1053.1977	3240.7069	932.35	56.7
1053.2986	3241.6163	931.8	52.6
1053.3994	3242.5251	928.35	52.45
1053.5002	3243.4332	927.2	50.2
1053.6009	3244.3408	931.7	53.4
1053.7016	3245.2477	930.15	55.15
1053.8022	3246.154	930.05	52.75
1053.9028	3247.0598	927.9	50.2
1054.0034	3247.9649	924.05	46.45
1054.1039	3248.8694	930.1	52.8
1054.2043	3249.7733	928.75	53.3
1054.3047	3250.6766	926.8	51.9
1054.4051	3251.5793	927.45	49.7
1054.5054	3252.4814	927.95	51.75
1054.6056	3253.3829	923.05	46.05
1054.7058	3254.2838	926.7	48.95
1054.806	3255.1841	921.75	47.3
1054.9061	3256.0838	923.4	46.7
1055.0061	3256.9829	923	48
1055.1062	3257.8814	925.95	48.45
1055.2061	3258.7792	922.8	43.2
1055.306	3259.6765	923	46.45
1055.4059	3260.5731	918.4	42.55
1055.5057	3261.4692	920.85	46.95
1055.6055	3262.3647	920.85	43
1055.7052	3263.2595	918	40.4
1055.8049	3264.1538	917.9	39.75
1055.9045	3265.0474	919.5	43.35
1056.0041	3265.9404	916.25	40
1056.1036	3266.8329	917.95	41.7
1056.2031	3267.7247	926.35	40.3
1056.3025	3268.616	913.2	39.15
1056.4019	3269.5066	915.8	37.7
1056.5013	3270.3966	914.9	37.15
1056.6005	3271.286	908.65	34.55
