Software Version:	3.9.2.0
Unit SN:	10000200
Spectrometer SN:	6960
Date:	3/8/2024 1:02:04 PM
Data Line Index:	25
Spectral Points:	2048
Integration time (ms):	125
Averages:	20
Delay (ms):	30000
Sequence Number:	1
Processing:	dark subtract
Laser Power (mW):	300
Laser Current (mA):	822
Laser Diode Temp (C):	25
Laser Case Temp (C):	26.1
System Temp (C):	26.1
Spectrometer Temp (C):	23.9
CCD Temp (C):	0.002
Secondary Temp (C):	20.01
Heatsink Temp (C):	20.918
CCDPCB Temp (C):	35.973
SecondaryPCB Temp (C):	29.204

Wavelength	RamanShift	Raw Counts	Dark Subtracted
787.061	30.1047	456.1	46.65
787.2016	32.3739	452.95	46.45
787.3422	34.6426	460.25	53.95
787.4828	36.9109	463.85	54.75
787.6235	39.1787	475.7	62.65
787.7642	41.4461	484.85	67.15
787.9049	43.7131	492.2	70.8
788.0456	45.9796	500.85	76.95
788.1863	48.2456	508.9	81.15
788.3271	50.5112	520.5	87
788.4679	52.7764	527.65	93.7
788.6087	55.0411	535.25	95.05
788.7496	57.3054	551.05	105.65
788.8904	59.5692	559	110.75
789.0313	61.8326	568.35	118.35
789.1722	64.0955	583.35	130
789.3132	66.3579	596.75	138.4
789.4541	68.6199	610.45	147.15
789.5951	70.8815	653.3	185.2
789.7361	73.1426	733.2	261.85
789.8771	75.4032	940.95	467.4
790.0181	77.6634	1457.3	975.5
790.1592	79.9231	2640.95	2151.7
790.3003	82.1824	5209.6	4701.15
790.4414	84.4412	9856.7	9315.4
790.5825	86.6995	16148.6	15562.6
790.7237	88.9574	22285.25	21662.35
790.8648	91.2148	26418.7	25773.75
791.006	93.4717	28300.55	27638.4
791.1472	95.7282	28551.75	27879.8
791.2885	97.9842	28321.7	27648.7
791.4297	100.2398	27627.05	26949.65
791.571	102.4949	26849.75	26166.05
791.7123	104.7495	25982	25300.85
791.8536	107.0036	25116.6	24432.25
791.9949	109.2573	24256.95	23574.2
792.1363	111.5105	23500.1	22813.65
792.2777	113.7632	22816.05	22123.9
792.4191	116.0154	22258.4	21556.5
792.5605	118.2672	21837.75	21144
792.7019	120.5185	21377.9	20681.6
792.8434	122.7693	21068.05	20372.1
792.9849	125.0197	20779.75	20077
793.1264	127.2696	20509.85	19808.15
793.2679	129.519	20316.15	19608
793.4094	131.7679	20061.2	19351
793.551	134.0163	19805	19089.85
793.6926	136.2642	19514.7	18794.3
793.8342	138.5117	19209.3	18484.45
793.9758	140.7587	18873.8	18149.55
794.1175	143.0052	18599.4	17873.95
794.2591	145.2512	18281.6	17551.15
794.4008	147.4967	18016.25	17292.05
794.5425	149.7417	17794.15	17068.65
794.6842	151.9863	17659.25	16925.85
794.826	154.2304	17530.3	16794.1
794.9677	156.4739	17377.7	16634.25
795.1095	158.717	17302.25	16561.15
795.2513	160.9596	17125.9	16376.95
795.3931	163.2017	16865.55	16112.35
795.535	165.4433	16537.35	15786.65
795.6768	167.6844	16218.55	15468.05
795.8187	169.925	15943.55	15190.45
795.9606	172.1651	15571.35	14817.7
796.1025	174.4047	15304.95	14543.8
796.2445	176.6439	15050.2	14287.15
796.3864	178.8825	14827.3	14062.15
796.5284	181.1206	14663.1	13893.55
796.6704	183.3582	14530.95	13754.15
796.8124	185.5954	14427.7	13655.35
796.9544	187.832	14365.55	13587.6
797.0965	190.0681	14348.1	13567.5
797.2386	192.3037	14329.7	13542.1
797.3806	194.5388	14339.45	13552.8
797.5228	196.7734	14382.4	13588.25
797.6649	199.0075	14435.3	13646.1
797.807	201.2411	14552.9	13764
797.9492	203.4742	14659.05	13857.65
798.0914	205.7068	14816.15	14016.2
798.2336	207.9389	14939.35	14140.45
798.3758	210.1704	15076.9	14284.95
798.518	212.4015	15181.4	14397.45
798.6603	214.632	15339.5	14559.4
798.8025	216.862	15509.15	14732.3
798.9448	219.0915	15622.95	14842.45
799.0871	221.3205	15764.75	14980.9
799.2294	223.549	15933.3	15155.65
799.3718	225.777	16086.7	15310.35
799.5141	228.0044	16295.15	15509.05
799.6565	230.2314	16557.1	15772.55
799.7989	232.4578	16811.85	16021.2
799.9413	234.6837	17034.45	16239.4
800.0837	236.909	17178.6	16380.5
800.2262	239.1339	17205.35	16382.1
800.3687	241.3582	17022.65	16210.4
800.5111	243.582	16875.35	16033.45
800.6536	245.8053	16705.85	15879.45
800.7961	248.0281	16517.15	15694.4
800.9387	250.2503	16395.75	15570.85
801.0812	252.472	16404.45	15578.1
801.2238	254.6932	16473.95	15650.85
801.3664	256.9139	16481.35	15653
801.509	259.134	16626.25	15797.55
801.6516	261.3536	16793.6	15962.85
801.7942	263.5727	17040.5	16203.25
801.9369	265.7912	17174.05	16347.5
802.0795	268.0092	17343.95	16513.05
802.2222	270.2267	17466.35	16634.6
802.3649	272.4436	17530.15	16692.85
802.5076	274.6601	17539	16698.2
802.6504	276.8759	17421.6	16585
802.7931	279.0913	17351.05	16512.35
802.9359	281.3061	17220.75	16379
803.0787	283.5204	17192.2	16348.8
803.2215	285.7341	17230.3	16380.5
803.3643	287.9473	17285.35	16425
803.5071	290.16	17432.4	16587.85
803.6499	292.3721	17597.1	16751.4
803.7928	294.5837	17905.8	17057.75
803.9357	296.7947	18191.8	17346.25
804.0786	299.0052	18356.45	17508.35
804.2215	301.2152	18290.85	17443
804.3644	303.4246	18054.1	17210.8
804.5074	305.6334	17611.4	16768.75
804.6503	307.8418	17185.4	16338.3
804.7933	310.0495	16739.4	15889.6
804.9363	312.2568	16363.25	15512.2
805.0793	314.4635	16027.3	15171.75
805.2223	316.6696	15845.25	14989.85
805.3653	318.8752	15690.55	14824.6
805.5084	321.0802	15672.95	14815.2
805.6514	323.2847	15718.95	14857.95
805.7945	325.4887	15748.95	14890.4
805.9376	327.692	15735.4	14875.65
806.0807	329.8949	15646.85	14783.85
806.2238	332.0972	15419.35	14554.55
806.367	334.2989	15196.75	14329.7
806.5101	336.5001	14939.7	14074.65
806.6533	338.7007	14763.35	13896.8
806.7965	340.9008	14634.8	13765.15
806.9397	343.1003	14488.4	13620.05
807.0829	345.2992	14422.7	13548.65
807.2261	347.4976	14328.85	13453.25
807.3693	349.6955	14282.6	13407.1
807.5126	351.8927	14323.75	13444.1
807.6559	354.0895	14305.95	13423.3
807.7991	356.2856	14264.05	13381.85
807.9424	358.4812	14223.9	13347
808.0857	360.6763	14253.5	13368.55
808.2291	362.8707	14226.85	13340.3
808.3724	365.0646	14323.1	13437.75
808.5158	367.258	14336.45	13451.15
808.6591	369.4508	14388.55	13500.3
808.8025	371.643	14473.1	13582.9
808.9459	373.8346	14529.4	13645.15
809.0893	376.0257	14576.6	13686.5
809.2327	378.2162	14574.4	13689.45
809.3762	380.4062	14517.3	13630.35
809.5196	382.5956	14404.3	13519.3
809.6631	384.7844	14292.05	13410.05
809.8066	386.9726	14161.7	13282.9
809.9501	389.1603	14097.75	13213.5
810.0936	391.3474	14084.55	13181.6
810.2371	393.5339	14020.2	13134.75
810.3806	395.7199	13967.4	13086.25
810.5241	397.9052	14008.75	13124.25
810.6677	400.09	14087.8	13204.05
810.8113	402.2743	14169.35	13287.75
810.9548	404.4579	14343.2	13459.45
811.0984	406.641	14536.9	13652.8
811.2421	408.8235	14730.1	13845.3
811.3857	411.0054	14943.6	14053.6
811.5293	413.1868	15227.85	14332.85
811.673	415.3675	15414.4	14514.05
811.8166	417.5477	15493.2	14598.8
811.9603	419.7273	15465.25	14568.2
812.104	421.9064	15389.75	14483.05
812.2477	424.0848	15293.6	14395
812.3914	426.2627	15131.45	14234.9
812.5351	428.4399	14875.85	13974.8
812.6788	430.6166	14566.85	13667.65
812.8226	432.7928	14208.05	13308.45
812.9663	434.9683	13907	13008.35
813.1101	437.1432	13661.25	12766.8
813.2539	439.3176	13488.25	12599.1
813.3977	441.4914	13391.85	12502.45
813.5415	443.6645	13388.2	12498.7
813.6853	445.8371	13305.25	12405.5
813.8291	448.0091	13248.6	12348.45
813.973	450.1806	13264.75	12367.55
814.1168	452.3514	13198.45	12305.3
814.2607	454.5216	13236.5	12333.55
814.4046	456.6913	13194.1	12296.9
814.5485	458.8603	13250.25	12351.15
814.6924	461.0288	13317.85	12427.8
814.8363	463.1967	13320	12433.75
814.9802	465.3639	13353.2	12458.05
815.1241	467.5306	13395.95	12502.3
815.2681	469.6967	13467.8	12575.55
815.412	471.8622	13543.15	12653.15
815.556	474.0271	13668.15	12772.85
815.7	476.1914	13680.45	12777.25
815.844	478.3551	13690.05	12787.55
815.988	480.5182	13713.65	12818.55
816.132	482.6807	13757.65	12869
816.276	484.8426	13934.55	13054.8
816.4201	487.0039	14208.75	13317.85
816.5641	489.1647	14632.05	13732.5
816.7082	491.3248	14991.55	14087.6
816.8522	493.4843	15151.15	14257.9
816.9963	495.6432	15118.15	14224.7
817.1404	497.8015	15028.4	14120.15
817.2845	499.9592	14960.35	14045.8
817.4286	502.1163	14787.6	13881.4
817.5727	504.2728	14522.2	13622.45
817.7168	506.4287	14231.75	13341.25
817.861	508.5839	13880.15	12988.15
818.0051	510.7386	13611.55	12712.35
818.1493	512.8927	13469.5	12558.2
818.2935	515.0461	13452.85	12545.1
818.4377	517.199	13488.9	12580.75
818.5818	519.3512	13609	12700.65
818.726	521.5029	13787.15	12877.5
818.8703	523.6539	13986.6	13081.25
819.0145	525.8043	14082.6	13170.75
819.1587	527.9541	14059.95	13152.05
819.303	530.1033	13930.75	13028.6
819.4472	532.2519	13859.25	12955.15
819.5915	534.3999	13839.15	12929.15
819.7357	536.5472	13992.4	13086
819.88	538.694	14268.55	13366.55
820.0243	540.8401	14668.25	13761.95
820.1686	542.9856	15016.1	14100.55
820.3129	545.1305	15105.55	14176.15
820.4572	547.2748	14979.45	14052.5
820.6016	549.4185	14753.2	13823
820.7459	551.5615	14524.35	13602.25
820.8902	553.704	14504.25	13580.85
821.0346	555.8458	14507.75	13582.3
821.1789	557.987	14631.3	13713.45
821.3233	560.1276	14791.05	13869.5
821.4677	562.2675	15072.95	14156.75
821.6121	564.4069	15372.85	14454.25
821.7565	566.5456	15694.35	14778.3
821.9009	568.6837	15765.05	14843.65
822.0453	570.8212	15398.25	14484.75
822.1897	572.958	14850	13933.1
822.3342	575.0942	14330.8	13411.75
822.4786	577.2299	13991.65	13079.2
822.6231	579.3648	13849.85	12949.3
822.7675	581.4992	13822.15	12934.25
822.912	583.6329	13947.25	13061.35
823.0565	585.766	14152.7	13261.45
823.201	587.8985	14298.7	13397
823.3454	590.0304	14325.1	13391.6
823.4899	592.1616	14285.9	13364.9
823.6345	594.2922	14140.3	13216.05
823.779	596.4222	13993.9	13068.4
823.9235	598.5515	13833	12907.6
824.068	600.6802	13641.25	12716.5
824.2126	602.8083	13432.5	12513.8
824.3571	604.9358	13406.55	12485.1
824.5017	607.0626	13427.45	12502.75
824.6462	609.1888	13500.75	12570.9
824.7908	611.3144	13571.1	12641.25
824.9354	613.4393	13615.25	12685.5
825.08	615.5636	13660.25	12728.9
825.2246	617.6873	13614.8	12687.45
825.3692	619.8103	13558.4	12632.05
825.5138	621.9327	13405	12478.6
825.6584	624.0544	13243.7	12322.25
825.803	626.1756	13121.65	12198.95
825.9477	628.2961	13029.3	12101.4
826.0923	630.4159	12931.1	11999.05
826.237	632.5351	12943.8	12010.7
826.3816	634.6537	12884.45	11953.85
826.5263	636.7716	12877.65	11942.6
826.6709	638.8889	12892.75	11955.45
826.8156	641.0056	12964.5	12027.4
826.9603	643.1216	12907.6	11968.4
827.105	645.237	12921.35	11986.35
827.2497	647.3518	12849.1	11923.35
827.3944	649.4659	12821.15	11900.95
827.5391	651.5793	12783.65	11863
827.6838	653.6922	12752.25	11825.65
827.8285	655.8043	12758.45	11834.2
827.9733	657.9159	12740.45	11816.1
828.118	660.0268	12689.8	11763.4
828.2627	662.137	12683.4	11753.5
828.4075	664.2466	12671.4	11734.4
828.5522	666.3556	12703.45	11767.8
828.697	668.4639	12670.6	11738.45
828.8418	670.5716	12636.85	11709.95
828.9865	672.6786	12652.55	11721.95
829.1313	674.785	12655.85	11716.9
829.2761	676.8907	12636.35	11702.8
829.4209	678.9958	12695.4	11771.45
829.5657	681.1002	12657.35	11728.15
829.7105	683.204	12665.3	11722.6
829.8553	685.3072	12663.1	11722.65
830.0001	687.4097	12625.7	11688.3
830.1449	689.5115	12597.3	11660.25
830.2898	691.6127	12592	11660.35
830.4346	693.7132	12523	11597.15
830.5794	695.8131	12570.85	11622.9
830.7243	697.9123	12566.7	11625.55
830.8691	700.0109	12573.2	11629.15
831.014	702.1089	12567.75	11630.75
831.1588	704.2061	12620.85	11683.1
831.3037	706.3028	12662.7	11725.85
831.4486	708.3987	12728.6	11788.05
831.5935	710.4941	12728.35	11792.65
831.7383	712.5887	12834.6	11895.5
831.8832	714.6827	13020.75	12079.45
832.0281	716.7761	13194.35	12264.9
832.173	718.8688	13445.2	12510
832.3179	720.9608	13619.3	12675.3
832.4628	723.0522	13725.05	12775.4
832.6077	725.1429	13706.6	12762.65
832.7527	727.233	13649.9	12711.6
832.8976	729.3224	13608.45	12662.5
833.0425	731.4112	13436.85	12493.55
833.1874	733.4993	13297.3	12357
833.3324	735.5867	13094.2	12152.4
833.4773	737.6735	12936.4	11993.1
833.6222	739.7596	12770	11826.55
833.7672	741.845	12678.85	11738.95
833.9122	743.9298	12638.6	11698.9
834.0571	746.014	12607.2	11664.75
834.2021	748.0974	12619.85	11671.85
834.347	750.1802	12632.25	11682.9
834.492	752.2624	12628.55	11684.1
834.637	754.3439	12647.15	11696.95
834.782	756.4247	12772.65	11814.95
834.9269	758.5048	12942.1	11998.2
835.0719	760.5843	13217.55	12267.75
835.2169	762.6631	13598.75	12651.15
835.3619	764.7413	14132.35	13188.05
835.5069	766.8188	14778.9	13832.6
835.6519	768.8956	15317.55	14369.55
835.7969	770.9718	15646.95	14701.1
835.9419	773.0473	15514.75	14569.1
836.0869	775.1221	15268.4	14324.2
836.232	777.1962	14955.2	14010.4
836.377	779.2697	14811.2	13862.5
836.522	781.3426	14870.9	13911.7
836.667	783.4147	15003.9	14053.7
836.8121	785.4862	15166.5	14218.85
836.9571	787.557	15042.65	14090.15
837.1021	789.6271	14646.7	13693.2
837.2472	791.6966	14066.25	13118.85
837.3922	793.7654	13477.4	12524.7
837.5373	795.8335	13106.9	12155.4
837.6823	797.901	12852.05	11900.25
837.8274	799.9678	12739.25	11787.4
837.9724	802.0339	12668.55	11717.4
838.1175	804.0993	12688.7	11729.1
838.2626	806.1641	12611.9	11657.75
838.4076	808.2282	12552.35	11600.75
838.5527	810.2916	12495.25	11542.8
838.6978	812.3544	12406	11458.8
838.8428	814.4164	12318.95	11367.95
838.9879	816.4778	12381.15	11426.25
839.133	818.5385	12401.05	11449.35
839.2781	820.5986	12511.15	11555.5
839.4232	822.658	12731	11775
839.5682	824.7166	12958.05	12006.35
839.7133	826.7747	13374.65	12421.4
839.8584	828.832	13781.2	12827
840.0035	830.8886	14111.05	13155
840.1486	832.9446	14240.15	13284.75
840.2937	834.9999	14175	13223.45
840.4388	837.0545	13962.65	13009
840.5839	839.1085	13749.95	12794.35
840.729	841.1618	13563.1	12604.45
840.8741	843.2143	13404.3	12448.4
841.0192	845.2662	13228.3	12270.9
841.1643	847.3175	13108.2	12152.9
841.3095	849.368	12984	12030.8
841.4546	851.4179	12913.9	11960.25
841.5997	853.467	12794.05	11842.65
841.7448	855.5155	12710.7	11758.1
841.8899	857.5633	12624.95	11672.9
842.0351	859.6105	12537.55	11581.45
842.1802	861.6569	12471.55	11515.3
842.3253	863.7027	12415.95	11455.4
842.4704	865.7478	12390.85	11432.9
842.6156	867.7922	12359.75	11404.7
842.7607	869.8359	12349.95	11393.8
842.9058	871.8789	12442.45	11481.2
843.0509	873.9212	12568.65	11580.8
843.1961	875.9629	12656.75	11699.2
843.3412	878.0039	12806.5	11848.8
843.4863	880.0441	12890.8	11930.95
843.6315	882.0837	12939.65	11984.95
843.7766	884.1226	12934.5	11975.85
843.9218	886.1609	12897.25	11942.35
844.0669	888.1984	12965.45	12006.5
844.212	890.2352	13024.75	12068.75
844.3572	892.2714	13044.1	12085.1
844.5023	894.3069	13006	12046.8
844.6475	896.3416	12856.35	11898.1
844.7926	898.3757	12749.85	11791.75
844.9377	900.4091	12690	11732.85
845.0829	902.4418	12708.3	11742
845.228	904.4739	12738.15	11776.7
845.3732	906.5052	12748.65	11785.6
845.5183	908.5358	12696.5	11736.65
845.6635	910.5658	12572	11609.2
845.8086	912.595	12337.8	11376.3
845.9538	914.6236	12178.25	11219.6
846.0989	916.6515	12081.2	11123.4
846.2441	918.6786	12022	11064.65
846.3892	920.7051	12004.6	11041.45
846.5344	922.7309	12124.2	11162.8
846.6795	924.756	12159.65	11195.75
846.8246	926.7804	12247.55	11286.15
846.9698	928.8041	12194.35	11237.05
847.1149	930.8272	12279	11320.55
847.2601	932.8495	12214.1	11255.5
847.4052	934.8711	12212.65	11252.15
847.5504	936.892	12123.75	11164.95
847.6955	938.9123	12059.3	11099.9
847.8407	940.9318	12051.95	11091.7
847.9858	942.9506	12017.7	11057.2
848.131	944.9688	11925.75	10963
848.2761	946.9862	11865	10905.75
848.4213	949.003	11723.7	10765.1
848.5664	951.019	11664.3	10704.4
848.7115	953.0344	11617.15	10655.8
848.8567	955.0491	11660.65	10701.2
849.0018	957.063	11715.85	10756.3
849.147	959.0763	11791.6	10834.5
849.2921	961.0888	11842.05	10882.45
849.4373	963.1007	11895.7	10935.6
849.5824	965.1119	11942.5	10996.05
849.7275	967.1223	11932.95	10990.2
849.8727	969.1321	11918.75	10977.1
850.0178	971.1412	11936.4	10986.3
850.1629	973.1495	11935.95	10982
850.3081	975.1572	11999.4	10990.8
850.4532	977.1641	12020.4	11061.45
850.5983	979.1704	11952.4	10991.3
850.7435	981.1759	11951.9	10986.3
850.8886	983.1808	11989.35	11024.8
851.0337	985.1849	12037.75	11068.45
851.1788	987.1884	12103	11141.35
851.324	989.1911	12237.8	11278.3
851.4691	991.1932	12315.2	11357.2
851.6142	993.1945	12345.1	11387.25
851.7593	995.1951	12308.15	11347.5
851.9045	997.1951	12313.65	11349.65
852.0496	999.1943	12247.4	11285.3
852.1947	1001.1928	12241.2	11278.2
852.3398	1003.1906	12253.05	11296.25
852.4849	1005.1877	12347.8	11388.25
852.63	1007.1841	12393.7	11436.8
852.7751	1009.1798	12380.2	11422.7
852.9202	1011.1748	12249.45	11293.35
853.0653	1013.1691	12092.95	11131.9
853.2104	1015.1627	11873.95	10917.5
853.3555	1017.1556	11686.65	10734.4
853.5006	1019.1477	11577.15	10620.55
853.6457	1021.1392	11462.9	10511.85
853.7908	1023.1299	11443.1	10499.05
853.9359	1025.12	11430.3	10489.2
854.081	1027.1093	11500.35	10571.45
854.2261	1029.0979	11594.2	10672.2
854.3712	1031.0859	11665.25	10736.75
854.5163	1033.0731	11709.1	10762.85
854.6613	1035.0596	11664.1	10716.3
854.8064	1037.0454	11540.7	10590.2
854.9515	1039.0304	11420.5	10469.75
855.0965	1041.0148	11295.4	10340.15
855.2416	1042.9985	11222.15	10265.65
855.3867	1044.9814	11192.25	10236.5
855.5317	1046.9636	11152.1	10197.55
855.6768	1048.9452	11117.25	10165
855.8219	1050.926	11144.8	10192.2
855.9669	1052.9061	11153.55	10199.75
856.112	1054.8855	11179.4	10226.1
856.257	1056.8642	11209.05	10249.8
856.4021	1058.8421	11269.65	10306.6
856.5471	1060.8194	11273.85	10313.9
856.6921	1062.7959	11355.7	10399
856.8372	1064.7717	11403.25	10447.05
856.9822	1066.7469	11452.95	10495.75
857.1272	1068.7213	11526.15	10567.15
857.2723	1070.695	11555.6	10602.85
857.4173	1072.6679	11535.45	10577.75
857.5623	1074.6402	11539.1	10581.65
857.7073	1076.6117	11492.15	10528.55
857.8523	1078.5826	11431.25	10474.15
857.9973	1080.5527	11351.8	10393.6
858.1423	1082.5221	11330.8	10375.25
858.2873	1084.4908	11375.3	10420.25
858.4323	1086.4587	11459.2	10504.9
858.5773	1088.426	11544.95	10592.1
858.7223	1090.3925	11542.65	10582.45
858.8673	1092.3584	11542.85	10591.95
859.0123	1094.3235	11503.25	10551.95
859.1573	1096.2879	11538.45	10584.35
859.3022	1098.2515	11628.6	10672.4
859.4472	1100.2145	11746.9	10792.6
859.5922	1102.1767	11887.75	10930.75
859.7371	1104.1382	12094.35	11137.4
859.8821	1106.099	12292.85	11337.05
860.027	1108.0591	12540.65	11584.6
860.172	1110.0185	12676.2	11717.9
860.3169	1111.9771	12752.75	11798.3
860.4619	1113.9351	12622.15	11667.8
860.6068	1115.8923	12436.4	11483.5
860.7517	1117.8488	12235.7	11280.95
860.8967	1119.8045	12009.4	11056.8
861.0416	1121.7596	11883	10928.9
861.1865	1123.7139	11774.8	10824.85
861.3314	1125.6675	11736.25	10785.45
861.4763	1127.6204	11791.05	10839.3
861.6212	1129.5726	11759.7	10805.15
861.7661	1131.524	11676.95	10727.4
861.911	1133.4748	11620.85	10670.2
862.0559	1135.4248	11484.8	10526.5
862.2008	1137.3741	11366.75	10415.55
862.3457	1139.3226	11263.2	10310.75
862.4905	1141.2705	11256.2	10300.7
862.6354	1143.2176	11159.7	10198.6
862.7803	1145.164	11125	10172.9
862.9251	1147.1097	11099.15	10144.05
863.07	1149.0546	11045.3	10092.3
863.2148	1150.9989	10937.25	9983.65
863.3597	1152.9424	10819.5	9863.55
863.5045	1154.8852	10721.85	9766.75
863.6493	1156.8272	10636.7	9685.05
863.7942	1158.7686	10645.05	9682.6
863.939	1160.7092	10632	9676.7
864.0838	1162.6491	10651.25	9694.95
864.2286	1164.5883	10764.7	9810.5
864.3734	1166.5267	10868.3	9912.75
864.5182	1168.4644	11033.05	10080.5
864.663	1170.4014	11207.65	10256.5
864.8078	1172.3377	11457.95	10508.35
864.9526	1174.2732	11757	10809
865.0974	1176.2081	12114.45	11166
865.2421	1178.1421	12515.3	11560.2
865.3869	1180.0755	12913.6	11960.6
865.5317	1182.0082	13198.7	12246.85
865.6764	1183.9401	13309.7	12359.5
865.8212	1185.8713	13178.55	12235.9
865.9659	1187.8017	12884.85	11945.1
866.1106	1189.7315	12571	11641.7
866.2554	1191.6605	12226.55	11294.9
866.4001	1193.5888	11945.95	11008.35
866.5448	1195.5163	11820.7	10878.75
866.6895	1197.4432	11736.35	10786.15
866.8342	1199.3693	11717.35	10768.65
866.9789	1201.2947	11659.85	10703.3
867.1236	1203.2193	11613.25	10666.7
867.2683	1205.1432	11633.75	10680.4
867.413	1207.0664	11629	10679.25
867.5576	1208.9889	11624.9	10674.95
867.7023	1210.9106	11615.9	10664.9
867.847	1212.8316	11626.2	10677.15
867.9916	1214.7519	11648.9	10690.7
868.1363	1216.6715	11689.9	10741.15
868.2809	1218.5903	11749.5	10800.75
868.4255	1220.5084	11763.4	10810.95
868.5701	1222.4257	11850.15	10901.4
868.7148	1224.3424	11858.85	10913.8
868.8594	1226.2583	11982.6	11027.8
869.004	1228.1735	12081.8	11135.9
869.1486	1230.0879	12198.95	11250.45
869.2932	1232.0016	12347.15	11397.6
869.4377	1233.9146	12401.3	11452.5
869.5823	1235.8269	12420.55	11474.55
869.7269	1237.7384	12324.25	11378.3
869.8715	1239.6492	12173.6	11228.55
870.016	1241.5592	12102.7	11154.4
870.1606	1243.4686	12108.95	11160.5
870.3051	1245.3772	12215.25	11268.35
870.4496	1247.285	12334.8	11388.8
870.5941	1249.1922	12434.4	11487.7
870.7387	1251.0986	12551.35	11604.4
870.8832	1253.0042	12574.05	11627.15
871.0277	1254.9092	12645.25	11699.15
871.1722	1256.8134	12732.3	11788.6
871.3167	1258.7169	12862.5	11912.95
871.4611	1260.6196	13003.5	12056.85
871.6056	1262.5216	13266.55	12318.45
871.7501	1264.4229	13469.4	12527.45
871.8945	1266.3234	13616.3	12670.45
872.039	1268.2232	13745.15	12796.85
872.1834	1270.1223	13823.3	12874.55
872.3278	1272.0207	13812.85	12866.15
872.4723	1273.9183	13816.6	12862.05
872.6167	1275.8151	13741.25	12793.2
872.7611	1277.7113	13686.7	12738.85
872.9055	1279.6067	13695.85	12751.1
873.0499	1281.5014	13828.65	12879.9
873.1943	1283.3953	14053.45	13105.45
873.3386	1285.2885	14391.85	13444
873.483	1287.181	14757.15	13812.6
873.6274	1289.0727	15067.15	14124.85
873.7717	1290.9637	15277.3	14331.35
873.9161	1292.854	15472.95	14525.35
874.0604	1294.7435	15482.05	14534.65
874.2047	1296.6323	15478.9	14532
874.349	1298.5204	15459.25	14512.75
874.4933	1300.4077	15381.35	14433.35
874.6376	1302.2943	15330	14383.55
874.7819	1304.1802	15119.65	14175.45
874.9262	1306.0653	14791.2	13845.7
875.0705	1307.9497	14421.9	13474.6
875.2147	1309.8333	14067.9	13124.6
875.359	1311.7162	13871.8	12927.5
875.5032	1313.5984	13747.3	12800.35
875.6475	1315.4798	13635.1	12675.55
875.7917	1317.3605	13642.45	12681.35
875.9359	1319.2405	13538.4	12590.35
876.0801	1321.1197	13353.4	12407.35
876.2243	1322.9982	13130.1	12181.75
876.3685	1324.876	12922.85	11978.45
876.5127	1326.753	12704.65	11759.3
876.6569	1328.6293	12564.25	11616.25
876.801	1330.5048	12495.15	11548.35
876.9452	1332.3796	12369	11423.1
877.0893	1334.2537	12273.15	11302.3
877.2335	1336.127	12202.55	11257.95
877.3776	1337.9996	12157.4	11215.5
877.5217	1339.8714	12175.2	11230.75
877.6658	1341.7426	12212.1	11221.1
877.8099	1343.6129	12191.95	11245.15
877.954	1345.4826	12164.25	11221.35
878.0981	1347.3515	12195.45	11246.6
878.2422	1349.2196	12139.65	11196.6
878.3862	1351.087	12161.5	11214.4
878.5303	1352.9537	12214.95	11270.95
878.6743	1354.8197	12346.35	11398.3
878.8184	1356.6849	12488.85	11542.5
878.9624	1358.5493	12626.3	11683.75
879.1064	1360.4131	12756.35	11813.15
879.2504	1362.276	12820.75	11880.2
879.3944	1364.1383	12796.25	11849.9
879.5384	1365.9998	12602.8	11651.55
879.6823	1367.8606	12252.45	11306.1
879.8263	1369.7206	11882.7	10936.75
879.9702	1371.5799	11587.05	10636.85
880.1142	1373.4384	11356.85	10410.9
880.2581	1375.2962	11140.65	10191.55
880.402	1377.1533	10824.45	9882.75
880.5459	1379.0096	10485.6	9547.05
880.6898	1380.8652	10178.75	9240.25
880.8337	1382.7201	9873.5	8936.6
880.9776	1384.5742	9645.35	8699.65
881.1215	1386.4275	9446.65	8501.7
881.2653	1388.2802	9308.4	8367.2
881.4092	1390.132	9185.85	8241.25
881.553	1391.9832	9138.6	8192.1
881.6968	1393.8336	9048.7	8104.15
881.8406	1395.6832	9022.7	8077.7
881.9844	1397.5322	8973	8028.7
882.1282	1399.3803	8945.6	7998.1
882.272	1401.2278	8920.8	7980.55
882.4158	1403.0745	8882.75	7940.7
882.5595	1404.9204	8866.95	7927.1
882.7033	1406.7656	8889.85	7947.3
882.847	1408.6101	8899.7	7957.2
882.9908	1410.4538	8941.15	7997.8
883.1345	1412.2968	8991.3	8049.55
883.2782	1414.139	9008.35	8068.95
883.4219	1415.9805	9101.4	8159.45
883.5656	1417.8213	9178.2	8228.8
883.7092	1419.6613	9263.5	8325.35
883.8529	1421.5006	9434.45	8489.85
883.9965	1423.3391	9637.35	8696.35
884.1402	1425.1769	9940.3	8996.2
884.2838	1427.0139	10355.65	9416.55
884.4274	1428.8502	10899.7	9956.75
884.571	1430.6858	11457.65	10517.8
884.7146	1432.5206	11828.85	10889.9
884.8582	1434.3547	12074.85	11132.3
885.0018	1436.188	12100.7	11161.05
885.1453	1438.0206	12012.85	11070.15
885.2889	1439.8524	11816.9	10877.15
885.4324	1441.6835	11724.35	10782.8
885.5759	1443.5139	11620.55	10676.55
885.7194	1445.3435	11534.95	10596.85
885.8629	1447.1724	11504.7	10566.3
886.0064	1449.0005	11468.35	10530.6
886.1499	1450.8279	11348.15	10411
886.2933	1452.6545	11368.7	10433.35
886.4368	1454.4804	11358.7	10420.65
886.5802	1456.3056	11343.8	10400.2
886.7237	1458.13	11288.05	10353.75
886.8671	1459.9536	11095.6	10161.2
887.0105	1461.7766	10811.1	9874.05
887.1539	1463.5987	10487.15	9547.95
887.2972	1465.4202	10120.15	9181.35
887.4406	1467.2409	9776.55	8838.1
887.584	1469.0608	9530.45	8591.65
887.7273	1470.88	9252.55	8312.4
887.8706	1472.6984	9009.7	8074.2
888.0139	1474.5161	8816.05	7876.3
888.1572	1476.3331	8666.95	7727.7
888.3005	1478.1493	8561.95	7622.95
888.4438	1479.9648	8450.7	7512.4
888.5871	1481.7795	8358.5	7418.95
888.7303	1483.5935	8315	7375.9
888.8736	1485.4067	8265.45	7328.3
889.0168	1487.2192	8201.25	7260.2
889.16	1489.031	8174.8	7234.45
889.3032	1490.842	8102.2	7165.8
889.4464	1492.6522	8083.9	7146.05
889.5896	1494.4618	8034.25	7094.55
889.7327	1496.2705	8010.45	7072.65
889.8759	1498.0785	7950.05	7012.9
890.019	1499.8858	7919.6	6984.25
890.1622	1501.6924	7882.6	6945.95
890.3053	1503.4981	7856.55	6919.25
890.4484	1505.3032	7808.95	6871.25
890.5914	1507.1075	7777.5	6841.2
890.7345	1508.911	7731.25	6796.15
890.8776	1510.7138	7715.9	6780.15
891.0206	1512.5159	7659.35	6722.05
891.1637	1514.3172	7618.45	6682.55
891.3067	1516.1178	7534.85	6599.8
891.4497	1517.9176	7503.9	6566.75
891.5927	1519.7166	7503.5	6570.3
891.7357	1521.515	7451.85	6514
891.8786	1523.3126	7420.4	6487.5
892.0216	1525.1094	7395.8	6460.2
892.1645	1526.9055	7381.75	6447.3
892.3074	1528.7008	7353.4	6421.55
892.4503	1530.4954	7301	6368.5
892.5932	1532.2893	7291.05	6360.55
892.7361	1534.0824	7252.95	6320.5
892.879	1535.8747	7272.8	6343.85
893.0218	1537.6663	7237.2	6307.6
893.1647	1539.4572	7224.7	6292
893.3075	1541.2473	7225.25	6293.15
893.4503	1543.0367	7250.75	6320.05
893.5931	1544.8253	7257	6322.65
893.7359	1546.6132	7277.9	6342.35
893.8787	1548.4003	7271.95	6334.2
894.0214	1550.1867	7320.15	6383.05
894.1642	1551.9723	7356.4	6425.6
894.3069	1553.7572	7443.05	6515.85
894.4496	1555.5414	7524.6	6597.55
894.5923	1557.3247	7648.9	6723.65
894.735	1559.1074	7783.55	6861.15
894.8777	1560.8893	7901.8	6977.4
895.0204	1562.6705	8024.6	7100.75
895.163	1564.4509	8121.05	7198.85
895.3056	1566.2305	8184.25	7265.2
895.4482	1568.0094	8254.35	7334.65
895.5908	1569.7876	8249.3	7330.35
895.7334	1571.565	8235.75	7311.3
895.876	1573.3417	8221.3	7296.2
896.0186	1575.1176	8184.1	7262.85
896.1611	1576.8928	8190	7271
896.3036	1578.6672	8135.85	7222.15
896.4461	1580.4409	8116.5	7204.2
896.5886	1582.2138	8093.35	7173.1
896.7311	1583.986	8083.2	7168.25
896.8736	1585.7575	8122.5	7203.05
897.0161	1587.5282	8143.9	7231.6
897.1585	1589.2981	8188.9	7278.1
897.3009	1591.0673	8253.1	7340.2
897.4433	1592.8358	8322.45	7406.7
897.5857	1594.6035	8417.9	7500.9
897.7281	1596.3704	8477.35	7558.45
897.8705	1598.1366	8545.1	7626.65
898.0128	1599.9021	8612.2	7697.8
898.1551	1601.6668	8706.35	7790.6
898.2975	1603.4308	8834.6	7912.35
898.4398	1605.194	8993.2	8067.5
898.5821	1606.9564	9164.1	8253.85
898.7243	1608.7182	9358.2	8451
898.8666	1610.4791	9627.65	8728.25
899.0088	1612.2394	9878.7	8977.6
899.1511	1613.9988	10140.25	9236.1
899.2933	1615.7576	10405.3	9497.35
899.4355	1617.5156	10603.75	9681.75
899.5776	1619.2728	10710.8	9796.2
899.7198	1621.0293	10684.95	9770.25
899.862	1622.785	10559.75	9644.5
900.0041	1624.54	10316.3	9406.95
900.1462	1626.2942	10048.2	9141
900.2883	1628.0477	9679.05	8769.15
900.4304	1629.8005	9341.6	8428.2
900.5725	1631.5525	9093	8185.1
900.7145	1633.3037	8864.1	7955.8
900.8566	1635.0542	8658.85	7752.4
900.9986	1636.804	8517.7	7611.45
901.1406	1638.553	8498.2	7500.65
901.2826	1640.3013	8414.9	7506.35
901.4245	1642.0488	8367.5	7457.95
901.5665	1643.7955	8405.45	7499.85
901.7085	1645.5416	8467.5	7564.1
901.8504	1647.2868	8567.4	7661.05
901.9923	1649.0313	8661	7751.35
902.1342	1650.7751	8797.25	7886.4
902.2761	1652.5181	8961.75	8053.85
902.4179	1654.2604	9140.75	8236.1
902.5598	1656.0019	9363.75	8456.8
902.7016	1657.7427	9633.95	8725.6
902.8434	1659.4828	9892.05	8980.65
902.9852	1661.222	10066.25	9156.5
903.127	1662.9606	10029.4	9120.45
903.2687	1664.6984	9792.25	8880.95
903.4105	1666.4354	9340.4	8427.25
903.5522	1668.1717	8795.75	7881.5
903.6939	1669.9072	8266.25	7352.8
903.8356	1671.642	7788.85	6873.4
903.9773	1673.3761	7415.2	6503.8
904.119	1675.1094	7096.6	6188.7
904.2606	1676.8419	6853.1	5945.3
904.4022	1678.5737	6648.9	5737.25
904.5439	1680.3048	6496.25	5583.4
904.6855	1682.0351	6348.15	5439.45
904.827	1683.7646	6263.3	5349.35
904.9686	1685.4934	6191.55	5283.6
905.1101	1687.2215	6106.8	5198.8
905.2517	1688.9488	6024.75	5118.75
905.3932	1690.6754	5976.25	5069
905.5347	1692.4012	5942.4	5032.6
905.6761	1694.1263	5892.05	4981.8
905.8176	1695.8506	5843.85	4934.25
905.9591	1697.5742	5817.9	4909.6
906.1005	1699.297	5757.3	4854.85
906.2419	1701.0191	5715.5	4815
906.3833	1702.7404	5683	4780.6
906.5246	1704.461	5643.85	4737.65
906.666	1706.1808	5622.25	4716.25
906.8073	1707.8999	5582.1	4679.7
906.9487	1709.6182	5560.25	4660.7
907.09	1711.3358	5526.25	4627.3
907.2313	1713.0527	5495.65	4598.75
907.3725	1714.7688	5487.45	4580.9
907.5138	1716.4841	5460.4	4556.05
907.655	1718.1987	5447.9	4538.35
907.7962	1719.9126	5412.3	4514.95
907.9374	1721.6257	5391.1	4491.55
908.0786	1723.338	5378.4	4479.6
908.2198	1725.0496	5346.55	4445.75
908.3609	1726.7605	5349.75	4448.15
908.502	1728.4706	5307.1	4407.5
908.6431	1730.18	5285.45	4385.4
908.7842	1731.8886	5274.55	4375.7
908.9253	1733.5964	5269.05	4350.9
909.0664	1735.3036	5251.4	4348.6
909.2074	1737.0099	5224.65	4325
909.3484	1738.7156	5193.3	4298.8
909.4894	1740.4204	5161.2	4258
909.6304	1742.1246	5145.75	4243.5
909.7714	1743.8279	5138.55	4239.05
909.9123	1745.5306	5118.85	4219.8
910.0532	1747.2325	5077.3	4178.8
910.1941	1748.9336	5055.8	4155.8
910.335	1750.634	5036.6	4134.85
910.4759	1752.3336	5036.55	4137.75
910.6168	1754.0325	5017.55	4122.8
910.7576	1755.7307	4995.5	4099.2
910.8984	1757.4281	5005.3	4103.9
911.0392	1759.1247	5001.15	4091.65
911.18	1760.8206	4990.75	4084.85
911.3208	1762.5158	4977.6	4069.8
911.4615	1764.2102	4956.2	4056.25
911.6022	1765.9039	4939.85	4039.3
911.7429	1767.5968	4906	4010.55
911.8836	1769.289	4907	4009.3
912.0243	1770.9804	4899.6	3998.05
912.1649	1772.6711	4893.8	3988.85
912.3056	1774.361	4885.2	3981.7
912.4462	1776.0502	4861.75	3960.4
912.5868	1777.7386	4850.05	3945.1
912.7274	1779.4263	4840.5	3942.45
912.8679	1781.1132	4851.5	3958.2
913.0084	1782.7994	4804.95	3910.4
913.149	1784.4849	4785.7	3890.35
913.2895	1786.1696	4789.9	3876.45
913.4299	1787.8535	4785.75	3893.2
913.5704	1789.5367	4779.85	3886.95
913.7108	1791.2192	4780.4	3885.8
913.8513	1792.9009	4768	3842.75
913.9917	1794.5818	4748.15	3847.15
914.132	1796.2621	4748.4	3849.35
914.2724	1797.9415	4742.35	3844.3
914.4128	1799.6202	4717.35	3818.1
914.5531	1801.2982	4707.6	3807.55
914.6934	1802.9755	4685.8	3784.9
914.8337	1804.6519	4699.3	3799.75
914.9739	1806.3277	4670.9	3776.2
915.1142	1808.0027	4640.05	3746.8
915.2544	1809.6769	4642.65	3750.55
915.3946	1811.3504	4629.55	3737.85
915.5348	1813.0231	4631.55	3738.75
915.675	1814.6951	4623.15	3729
915.8151	1816.3664	4619.95	3719.8
915.9553	1818.0369	4610.8	3712.8
916.0954	1819.7067	4603.1	3705.8
916.2355	1821.3757	4593	3693.9
916.3755	1823.044	4574.35	3675.2
916.5156	1824.7115	4566.65	3666.9
916.6556	1826.3783	4539.2	3641.2
916.7956	1828.0443	4555.3	3658.45
916.9356	1829.7096	4525.8	3625.4
917.0756	1831.3741	4536.4	3638.8
917.2155	1833.0379	4518.65	3624.25
917.3555	1834.701	4514.15	3620.1
917.4954	1836.3633	4504.75	3612.7
917.6353	1838.0248	4493.5	3599.4
917.7751	1839.6856	4486.4	3589.9
917.915	1841.3457	4495.85	3599.3
918.0548	1843.005	4493.95	3594.2
918.1946	1844.6636	4474.95	3577.85
918.3344	1846.3214	4461.6	3563.05
918.4742	1847.9785	4452.25	3556.7
918.6139	1849.6349	4450.15	3552.6
918.7537	1851.2904	4460	3554.2
918.8934	1852.9453	4433.95	3536
919.0331	1854.5994	4431	3529.8
919.1727	1856.2528	4428.5	3525.55
919.3124	1857.9054	4413.3	3512.8
919.452	1859.5572	4397.6	3501.5
919.5916	1861.2083	4397.45	3497.65
919.7312	1862.8587	4395	3496.9
919.8708	1864.5084	4378	3477.55
920.0103	1866.1572	4371.9	3473.7
920.1498	1867.8054	4349.55	3449.85
920.2893	1869.4528	4335.75	3436.1
920.4288	1871.0994	4334.2	3433.3
920.5683	1872.7453	4328.2	3426.5
920.7077	1874.3905	4331	3426.15
920.8471	1876.0349	4313.05	3413.9
920.9865	1877.6786	4309.8	3410.15
921.1259	1879.3215	4316.05	3418.1
921.2653	1880.9637	4294.95	3397.3
921.4046	1882.6051	4277.05	3381.25
921.5439	1884.2458	4268.35	3372.35
921.6832	1885.8858	4265.3	3368.7
921.8225	1887.525	4249.45	3353.85
921.9617	1889.1634	4240.3	3341.5
922.101	1890.8011	4231	3332.4
922.2402	1892.4381	4219.95	3320.1
922.3794	1894.0743	4220.45	3323.25
922.5185	1895.7098	4199.65	3302.45
922.6577	1897.3446	4191.5	3293
922.7968	1898.9786	4183.9	3283.5
922.9359	1900.6118	4180.1	3283.4
923.075	1902.2443	4162.5	3267.95
923.214	1903.8761	4156.95	3262.25
923.3531	1905.5071	4132.15	3233.9
923.4921	1907.1374	4133.95	3235.9
923.6311	1908.7669	4126.1	3231.15
923.77	1910.3957	4128	3231.55
923.909	1912.0237	4097.9	3202
924.0479	1913.651	4086.65	3189.2
924.1868	1915.2776	4086.1	3190.4
924.3257	1916.9034	4070.7	3176.2
924.4646	1918.5285	4051.25	3157.1
924.6034	1920.1528	4037.6	3140.65
924.7422	1921.7764	4045.15	3150.55
924.881	1923.3992	4027.15	3132.8
925.0198	1925.0213	4015.9	3119.15
925.1586	1926.6427	3989.55	3094.1
925.2973	1928.2633	4052.35	3079.7
925.436	1929.8832	3984.45	3086.3
925.5747	1931.5023	3968.1	3071.3
925.7134	1933.1207	3951.65	3055.45
925.852	1934.7383	3956	3063.05
925.9906	1936.3552	3937.85	3045.5
926.1292	1937.9714	3926.9	3029
926.2678	1939.5868	3927.9	3030.7
926.4064	1941.2015	3912.3	3015.25
926.5449	1942.8154	3911.05	3014.95
926.6834	1944.4286	3876.3	2978.85
926.8219	1946.041	3871.15	2956.8
926.9604	1947.6528	3849.1	2949.3
927.0988	1949.2637	3856.8	2962.55
927.2372	1950.8739	3827.45	2931.45
927.3756	1952.4834	3830.05	2936.45
927.514	1954.0921	3823.65	2926.6
927.6523	1955.7001	3819.35	2922.85
927.7907	1957.3074	3798	2909.9
927.929	1958.9139	3774.55	2887.2
928.0673	1960.5197	3778.8	2889.15
928.2055	1962.1247	3758.7	2864.65
928.3438	1963.729	3747.35	2858.4
928.482	1965.3325	3745.55	2851.1
928.6202	1966.9353	3736.25	2846.15
928.7584	1968.5374	3728.5	2837.6
928.8965	1970.1387	3712.95	2821.15
929.0346	1971.7393	3701.25	2808.95
929.1727	1973.3392	3685.6	2796.8
929.3108	1974.9383	3671.75	2783.9
929.4489	1976.5366	3651.1	2762.65
929.5869	1978.1342	3662.65	2774.7
929.7249	1979.7311	3661.8	2774.95
929.8629	1981.3273	3645.9	2755.95
930.0009	1982.9227	3636.2	2748.7
930.1388	1984.5173	3616.2	2729.4
930.2767	1986.1112	3603	2715.25
930.4146	1987.7044	3614.65	2729.25
930.5525	1989.2968	3598.8	2708.85
930.6904	1990.8885	3586	2694.5
930.8282	1992.4795	3579.3	2691.2
930.966	1994.0697	3568.5	2684.7
931.1038	1995.6592	3559.55	2672.25
931.2415	1997.2479	3548.6	2660.65
931.3793	1998.8359	3551.2	2664.85
931.517	2000.4232	3534.25	2652.6
931.6547	2002.0097	3519.3	2638.15
931.7923	2003.5955	3518.85	2638.85
931.93	2005.1805	3512.5	2627.6
932.0676	2006.7648	3516.25	2633.8
932.2052	2008.3484	3499.85	2614.55
932.3427	2009.9312	3503.95	2619.8
932.4803	2011.5133	3494.65	2614.95
932.6178	2013.0946	3485.3	2604.4
932.7553	2014.6752	3471	2589.15
932.8928	2016.2551	3469.05	2585.85
933.0302	2017.8342	3450.1	2564.6
933.1676	2019.4126	3459.05	2578.2
933.305	2020.9902	3431.8	2549.7
933.4424	2022.5672	3419.25	2536.8
933.5798	2024.1433	3439.6	2556.2
933.7171	2025.7188	3411.6	2532.3
933.8544	2027.2935	3413.3	2531.05
933.9917	2028.8674	3395.1	2513.8
934.129	2030.4406	3395	2516.8
934.2662	2032.0131	3366.85	2490.2
934.4034	2033.5849	3362.45	2479.15
934.5406	2035.1559	3351.45	2471.45
934.6778	2036.7261	3365.75	2482.95
934.8149	2038.2957	3357.4	2470.75
934.952	2039.8645	3347.15	2460.95
935.0891	2041.4325	3362.45	2475.25
935.2262	2042.9998	3334.3	2451.7
935.3632	2044.5664	3325.45	2441.7
935.5002	2046.1323	3325	2443.75
935.6372	2047.6974	3309.25	2427.35
935.7742	2049.2617	3304.7	2427.15
935.9111	2050.8254	3316.9	2411.75
936.048	2052.3883	3311.1	2427.1
936.1849	2053.9504	3303.55	2418.5
936.3218	2055.5118	3273.45	2388.55
936.4586	2057.0725	3270	2382.9
936.5955	2058.6325	3269.45	2386.3
936.7323	2060.1917	3269.05	2387.7
936.869	2061.7502	3254.1	2371.7
937.0058	2063.3079	3248.8	2367.8
937.1425	2064.8649	3245.35	2360.9
937.2792	2066.4212	3234.05	2350.85
937.4159	2067.9767	3230.65	2349.5
937.5525	2069.5315	3219.9	2337.45
937.6891	2071.0856	3198.55	2316.35
937.8257	2072.6389	3191.15	2308.55
937.9623	2074.1915	3178.25	2298.5
938.0989	2075.7433	3163	2280.75
938.2354	2077.2945	3167.1	2283.6
938.3719	2078.8448	3173.5	2290.8
938.5084	2080.3945	3164.05	2276.95
938.6448	2081.9434	3163.15	2277.8
938.7812	2083.4916	3157.5	2269.85
938.9176	2085.039	3148.75	2255.15
939.054	2086.5857	3133.95	2238.9
939.1903	2088.1317	3125.25	2232.8
939.3267	2089.677	3121.55	2227.45
939.463	2091.2215	3129.35	2237.3
939.5992	2092.7652	3115.4	2220.25
939.7355	2094.3083	3116.5	2224.25
939.8717	2095.8506	3111.95	2223.25
940.0079	2097.3921	3098	2210.55
940.1441	2098.933	3097.8	2209.15
940.2802	2100.4731	3087.65	2200.35
940.4163	2102.0124	3096.15	2200
940.5524	2103.5511	3096.1	2205.45
940.6885	2105.089	3086.5	2197.25
940.8245	2106.6261	3065.3	2174.55
940.9606	2108.1626	3072.65	2185.25
941.0965	2109.6983	3077.4	2161.2
941.2325	2111.2332	3051.6	2163.4
941.3684	2112.7675	3045.15	2153.45
941.5044	2114.301	3033.9	2140.75
941.6403	2115.8337	3033.3	2142.3
941.7761	2117.3657	3036.8	2146.3
941.912	2118.897	3025.55	2135.55
942.0478	2120.4276	3018.7	2122.75
942.1835	2121.9575	3018.85	2129.05
942.3193	2123.4866	3018.6	2126.25
942.455	2125.0149	3004.5	2113.95
942.5907	2126.5426	2993.95	2108.45
942.7264	2128.0695	2978.3	2090.9
942.8621	2129.5956	2973.35	2091.95
942.9977	2131.1211	2966.55	2080.45
943.1333	2132.6458	2961	2074.65
943.2689	2134.1698	2967.85	2076.45
943.4044	2135.693	2957.1	2062.35
943.54	2137.2155	2958.55	2063.25
943.6755	2138.7373	2938	2049.4
943.8109	2140.2584	2946.75	2062.2
943.9464	2141.7787	2928.8	2042.65
944.0818	2143.2983	2919.95	2040
944.2172	2144.8171	2898.55	2018.25
944.3526	2146.3353	2913.5	2028.95
944.4879	2147.8527	2896.3	2010.3
944.6232	2149.3693	2902.55	2014.85
944.7585	2150.8853	2911.2	2018.7
944.8938	2152.4005	2889.05	1998.1
945.029	2153.9149	2880.55	1989.05
945.1642	2155.4287	2882.1	1991.5
945.2994	2156.9417	2870.85	1982.9
945.4346	2158.454	2859.4	1971.35
945.5697	2159.9655	2860.55	1975.25
945.7048	2161.4764	2852.8	1966.55
945.8399	2162.9865	2843.75	1957.85
945.9749	2164.4958	2846.75	1962.85
946.1099	2166.0045	2825.75	1936.5
946.2449	2167.5124	2844.2	1957.65
946.3799	2169.0195	2828.8	1939.4
946.5148	2170.526	2827.7	1936.3
946.6498	2172.0317	2828	1939.6
946.7846	2173.5367	2821	1932.7
946.9195	2175.0409	2820.5	1933.75
947.0543	2176.5445	2811.1	1921.95
947.1891	2178.0473	2804.8	1913.1
947.3239	2179.5494	2807.5	1914
947.4587	2181.0507	2784.85	1897.3
947.5934	2182.5513	2779.7	1890.15
947.7281	2184.0512	2771.6	1882.95
947.8628	2185.5504	2775.3	1886.8
947.9974	2187.0488	2752.4	1868.4
948.132	2188.5465	2756.1	1870.3
948.2666	2190.0435	2747.6	1859.45
948.4012	2191.5397	2742.05	1850.5
948.5357	2193.0353	2736.55	1846.8
948.6702	2194.5301	2730.65	1837.25
948.8047	2196.0241	2739.7	1846.35
948.9392	2197.5175	2721.05	1825.05
949.0736	2199.0101	2739.8	1844.1
949.208	2200.502	2705.35	1816.8
949.3424	2201.9931	2699.25	1813.1
949.4767	2203.4835	2696.2	1810.6
949.611	2204.9733	2693.85	1801.5
949.7453	2206.4622	2679.95	1794.55
949.8796	2207.9505	2683	1798.55
950.0138	2209.438	2670.65	1787.75
950.148	2210.9248	2654.3	1769.1
950.2822	2212.4109	2648.65	1761.5
950.4164	2213.8962	2667.25	1774.15
950.5505	2215.3809	2648.45	1754.45
950.6846	2216.8648	2655.3	1757.65
950.8186	2218.3479	2659.5	1759.7
950.9527	2219.8304	2642.15	1742.55
951.0867	2221.3121	2623.85	1726.7
951.2207	2222.7931	2628.3	1734.6
951.3546	2224.2733	2620.2	1731.25
951.4886	2225.7529	2618.4	1725.4
951.6225	2227.2317	2611.6	1721.9
951.7563	2228.7098	2605.1	1720.05
951.8902	2230.1872	2600.8	1714.3
952.024	2231.6638	2575.85	1693.5
952.1578	2233.1397	2575.6	1687.75
952.2916	2234.6149	2563.9	1678.1
952.4253	2236.0894	2570.7	1685.5
952.559	2237.5632	2573.1	1677
952.6927	2239.0362	2559	1671.1
952.8263	2240.5085	2559	1671.7
952.9599	2241.9801	2550	1658.75
953.0935	2243.4509	2543.1	1654.1
953.2271	2244.921	2537.9	1645.6
953.3606	2246.3904	2539.25	1642.9
953.4941	2247.8591	2524.7	1633.35
953.6276	2249.3271	2528.2	1639.7
953.7611	2250.7943	2512.25	1620.5
953.8945	2252.2608	2513.35	1622.8
954.0279	2253.7266	2507.6	1615.9
954.1612	2255.1917	2506.2	1618.25
954.2946	2256.656	2493.75	1604.7
954.4279	2258.1197	2483.85	1598.85
954.5612	2259.5826	2477.9	1589.05
954.6944	2261.0447	2487.5	1596.5
954.8276	2262.5062	2484.7	1592.95
954.9608	2263.9669	2481.05	1587.85
955.094	2265.4269	2467.75	1576.7
955.2271	2266.8862	2466.75	1578.8
955.3602	2268.3448	2459.1	1572.1
955.4933	2269.8026	2452	1565.65
955.6264	2271.2598	2445.1	1557.25
955.7594	2272.7162	2449.75	1562.1
955.8924	2274.1719	2451.7	1560.95
956.0253	2275.6268	2448.65	1557.1
956.1583	2277.0811	2447.3	1555.55
956.2912	2278.5346	2439.45	1551.95
956.4241	2279.9874	2437.8	1548.2
956.5569	2281.4395	2426.7	1541.5
956.6897	2282.8908	2424.15	1529.6
956.8225	2284.3414	2431.95	1542.2
956.9553	2285.7914	2417.95	1531.25
957.088	2287.2406	2416.15	1524.6
957.2207	2288.689	2400.55	1508.75
957.3534	2290.1368	2400.4	1505.05
957.486	2291.5838	2407.9	1512.6
957.6186	2293.0302	2396.35	1500.7
957.7512	2294.4758	2381.85	1486.5
957.8838	2295.9206	2381.8	1491.45
958.0163	2297.3648	2382.1	1491.25
958.1488	2298.8082	2369.45	1479.5
958.2813	2300.251	2379.4	1488.5
958.4137	2301.693	2379.6	1484.7
958.5461	2303.1343	2361.05	1470.1
958.6785	2304.5748	2355.05	1464.3
958.8108	2306.0147	2355.2	1469.65
958.9432	2307.4538	2344.25	1455.3
959.0754	2308.8922	2339.5	1456.3
959.2077	2310.3299	2339.1	1454.35
959.3399	2311.7669	2327.9	1439.7
959.4721	2313.2031	2332.85	1442.3
959.6043	2314.6387	2322.15	1432.8
959.7365	2316.0735	2326.65	1435.3
959.8686	2317.5076	2326.35	1435.7
960.0006	2318.941	2327.35	1436.1
960.1327	2320.3737	2312.7	1417.8
960.2647	2321.8056	2309.1	1413.35
960.3967	2323.2369	2294.35	1401.15
960.5287	2324.6674	2302.25	1411.25
960.6606	2326.0972	2290.2	1398.2
960.7925	2327.5263	2298.25	1405.25
960.9244	2328.9547	2289.7	1397.2
961.0562	2330.3823	2291.3	1397.75
961.1881	2331.8092	2297.5	1400.95
961.3198	2333.2355	2285.25	1389.25
961.4516	2334.661	2267.05	1373.8
961.5833	2336.0858	2266.35	1373.4
961.715	2337.5098	2274.5	1380.7
961.8467	2338.9332	2264.3	1372.65
961.9783	2340.3558	2259.45	1366.95
962.1099	2341.7778	2266	1376.1
962.2415	2343.199	2249.7	1358.55
962.373	2344.6195	2241.25	1351.55
962.5045	2346.0393	2243.7	1357.4
962.636	2347.4583	2235.6	1342.25
962.7675	2348.8767	2246.5	1354.05
962.8989	2350.2943	2246.4	1351.15
963.0303	2351.7113	2244.25	1350.8
963.1617	2353.1275	2229.95	1334.5
963.293	2354.543	2233.5	1332.3
963.4243	2355.9578	2231.05	1338.25
963.5556	2357.3718	2215	1326.75
963.6868	2358.7852	2213.75	1322.3
963.818	2360.1978	2211.6	1322.7
963.9492	2361.6098	2200.4	1311.3
964.0803	2363.021	2210.3	1315
964.2114	2364.4315	2199.8	1309.45
964.3425	2365.8413	2193	1301.4
964.4736	2367.2504	2189.5	1300.45
964.6046	2368.6587	2175.8	1289.75
964.7356	2370.0664	2175.6	1285.95
964.8666	2371.4733	2169.9	1280.9
964.9975	2372.8795	2172.6	1284.5
965.1284	2374.285	2169.65	1279.75
965.2593	2375.6899	2148.35	1260.3
965.3901	2377.0939	2158.7	1269
965.5209	2378.4973	2154.5	1264.8
965.6517	2379.9	2141.9	1253.25
965.7825	2381.3019	2147.7	1259.2
965.9132	2382.7032	2132.85	1246.65
966.0439	2384.1037	2135.25	1250.45
966.1745	2385.5035	2133.35	1248.75
966.3051	2386.9027	2129.6	1245.55
966.4357	2388.3011	2117.1	1225.55
966.5663	2389.6987	2112.65	1225.8
966.6968	2391.0957	2105.55	1218.9
966.8273	2392.492	2105.9	1220.2
966.9578	2393.8876	2102.8	1214.75
967.0882	2395.2824	2094.6	1207.5
967.2186	2396.6765	2085.65	1200.5
967.349	2398.07	2095.55	1205.5
967.4793	2399.4627	2090.85	1200.3
967.6097	2400.8547	2093.55	1200.8
967.7399	2402.246	2101.9	1204.95
967.8702	2403.6366	2083.75	1193.2
968.0004	2405.0265	2073.05	1186.5
968.1306	2406.4156	2071.7	1182
968.2607	2407.8041	2065.4	1173.6
968.3909	2409.1918	2062.2	1172.15
968.521	2410.5789	2049.65	1158.1
968.651	2411.9652	2059.1	1165.7
968.781	2413.3508	2036.9	1146.7
968.911	2414.7358	2042.65	1154.8
969.041	2416.12	2039.7	1152.7
969.1709	2417.5035	2033.6	1146.5
969.3008	2418.8863	2031.35	1143.9
969.4307	2420.2684	2028.15	1139.95
969.5606	2421.6497	2021.1	1132.95
969.6904	2423.0304	2013.6	1125.6
969.8201	2424.4104	2026.15	1135.9
969.9499	2425.7896	2010.05	1119.4
970.0796	2427.1682	2008.85	1122.85
970.2093	2428.546	2017.3	1127.65
970.3389	2429.9232	2012.05	1119.85
970.4685	2431.2996	2007.85	1119.25
970.5981	2432.6753	1997.9	1108.25
970.7277	2434.0503	2001.2	1111.25
970.8572	2435.4246	1993.55	1104.95
970.9867	2436.7982	1996.65	1105.45
971.1161	2438.1711	1984.75	1097.15
971.2456	2439.5433	1976.15	1085.1
971.375	2440.9148	1980.7	1087.35
971.5043	2442.2856	1964.8	1077.2
971.6336	2443.6557	1966	1075
971.7629	2445.025	1957.85	1067.85
971.8922	2446.3937	1963.85	1075.2
972.0214	2447.7617	1954.6	1063.85
972.1506	2449.1289	1960.25	1072.85
972.2798	2450.4955	1958.75	1065.1
972.4089	2451.8613	1950.75	1063
972.538	2453.2265	1942	1054.05
972.6671	2454.5909	1943.75	1055.05
972.7961	2455.9546	1937.85	1049.85
972.9251	2457.3177	1938.2	1047.35
973.0541	2458.68	1942.55	1052.15
973.1831	2460.0416	1941.4	1051.05
973.312	2461.4025	1934.5	1045
973.4408	2462.7627	1934.25	1035.3
973.5697	2464.1222	1927.4	1040.95
973.6985	2465.4811	1912.75	1025.8
973.8273	2466.8392	1925.05	1038.55
973.956	2468.1966	1927.95	1037.55
974.0847	2469.5533	1922.55	1031.45
974.2134	2470.9093	1912.15	1023.65
974.3421	2472.2645	1913.75	1022.3
974.4707	2473.6191	1915.95	1026.2
974.5993	2474.973	1912.35	1023.1
974.7278	2476.3262	1909.7	1020.3
974.8563	2477.6787	1896.4	1007.75
974.9848	2479.0305	1890.7	1002.7
975.1132	2480.3816	1895.05	1005.15
975.2417	2481.7319	1896.7	1007.9
975.37	2483.0816	1883.65	993.8
975.4984	2484.4306	1886.35	997
975.6267	2485.7789	1877.85	990.55
975.755	2487.1264	1881.45	993.85
975.8833	2488.4733	1869.9	983.2
976.0115	2489.8195	1872.1	975.95
976.1397	2491.165	1880.25	989.65
976.2678	2492.5097	1872.9	984.65
976.3959	2493.8538	1856.65	968.35
976.524	2495.1972	1854.05	964.2
976.6521	2496.5398	1855.9	965.1
976.7801	2497.8818	1853.35	961.55
976.9081	2499.2231	1844.15	953.25
977.036	2500.5637	1842.6	952.75
977.164	2501.9035	1843.7	952.3
977.2918	2503.2427	1839.25	945.55
977.4197	2504.5812	1830.35	941
977.5475	2505.919	1836.75	946.85
977.6753	2507.256	1831.4	942
977.8031	2508.5924	1823.4	934.1
977.9308	2509.9281	1831.35	936.15
978.0585	2511.2631	1816.35	924.75
978.1861	2512.5974	1816.45	928.75
978.3137	2513.9309	1814.95	924.3
978.4413	2515.2638	1843.25	923.8
978.5689	2516.596	1816.25	927.15
978.6964	2517.9275	1805.05	914.95
978.8239	2519.2583	1801.8	909.95
978.9513	2520.5884	1806.9	917.2
979.0788	2521.9178	1797.35	908.65
979.2062	2523.2465	1792.7	904.9
979.3335	2524.5745	1793.6	904.1
979.4608	2525.9018	1794.45	905.9
979.5881	2527.2284	1782.5	895.55
979.7154	2528.5543	1783.8	895.1
979.8426	2529.8796	1778.5	890.35
979.9698	2531.2041	1787.5	897.9
980.0969	2532.5279	1778.7	891.3
980.224	2533.851	1775.7	887.75
980.3511	2535.1735	1776.45	889.75
980.4781	2536.4952	1771.1	883.3
980.6052	2537.8163	1775.4	885.5
980.7321	2539.1366	1769.5	879.3
980.8591	2540.4562	1775.6	886.35
980.986	2541.7752	1766.35	877
981.1129	2543.0935	1769	879.3
981.2397	2544.411	1777.4	885.85
981.3665	2545.7279	1762.95	874.8
981.4933	2547.0441	1767.2	877
981.62	2548.3596	1769.4	876.75
981.7467	2549.6744	1757.65	868.75
981.8734	2550.9885	1762.6	871.4
982.0001	2552.3019	1765.3	874.8
982.1267	2553.6146	1755.6	865.6
982.2532	2554.9266	1753.5	863.35
982.3798	2556.2379	1746.8	855.05
982.5063	2557.5485	1743.2	856.1
982.6327	2558.8585	1752.95	857
982.7592	2560.1677	1738.9	845.1
982.8856	2561.4762	1738.55	847.5
983.0119	2562.7841	1742.75	851.45
983.1383	2564.0913	1741.85	854.8
983.2646	2565.3977	1738.95	851.25
983.3908	2566.7035	1735.05	846.95
983.517	2568.0086	1737.25	846.1
983.6432	2569.313	1736.2	844.95
983.7694	2570.6167	1728.1	836.3
983.8955	2571.9197	1715.2	824.05
984.0216	2573.222	1730.55	839.6
984.1476	2574.5236	1728.25	837.65
984.2737	2575.8246	1720.65	825.85
984.3996	2577.1248	1731.9	840.65
984.5256	2578.4244	1712.75	823.45
984.6515	2579.7232	1712.8	822.45
984.7774	2581.0214	1746.55	832.3
984.9032	2582.3189	1706.9	816.5
985.029	2583.6157	1726.35	832.85
985.1548	2584.9118	1720.75	829.45
985.2806	2586.2072	1714.75	824.25
985.4063	2587.5019	1702.3	812.45
985.5319	2588.7959	1725.25	835.2
985.6576	2590.0893	1710.9	820.2
985.7832	2591.3819	1715.95	826.35
985.9087	2592.6739	1707.4	817.4
986.0343	2593.9652	1709.75	819.75
986.1597	2595.2557	1702.25	810.35
986.2852	2596.5456	1707.85	818.45
986.4106	2597.8348	1717.1	827.65
986.536	2599.1234	1703.4	814.95
986.6614	2600.4112	1705.75	818.05
986.7867	2601.6983	1704.45	812.55
986.912	2602.9848	1704.75	817.35
987.0372	2604.2705	1709.7	813.4
987.1624	2605.5556	1698.45	808.3
987.2876	2606.84	1698.4	811.9
987.4128	2608.1237	1693.45	804.7
987.5379	2609.4067	1696.6	808.4
987.6629	2610.689	1701.8	805.95
987.788	2611.9707	1694.2	802.2
987.913	2613.2516	1689.3	794.6
988.0379	2614.5319	1682.55	793.4
988.1629	2615.8115	1673.55	784.6
988.2878	2617.0903	1674.5	785.7
988.4126	2618.3685	1672.1	781.4
988.5375	2619.6461	1670.65	782.9
988.6622	2620.9229	1665.95	780
988.787	2622.199	1665.7	777.25
988.9117	2623.4745	1659.8	770.95
989.0364	2624.7493	1659.15	770.2
989.161	2626.0234	1658.25	772.4
989.2857	2627.2968	1654.7	766.65
989.4102	2628.5695	1654.65	765.85
989.5348	2629.8415	1659.9	771.75
989.6593	2631.1128	1654	764.8
989.7837	2632.3835	1651.65	764.8
989.9082	2633.6535	1646.55	759.9
990.0326	2634.9228	1650.3	764.4
990.1569	2636.1914	1641.2	754.15
990.2812	2637.4593	1640.2	749.7
990.4055	2638.7265	1639.65	750.5
990.5298	2639.9931	1632.9	744.2
990.654	2641.259	1634.55	745
990.7782	2642.5242	1637.35	751.45
990.9023	2643.7887	1623.95	735.3
991.0264	2645.0525	1632.25	743.85
991.1505	2646.3156	1629.95	741.7
991.2745	2647.5781	1627.1	742.4
991.3985	2648.8398	1621.8	736.85
991.5225	2650.1009	1656.45	730.6
991.6464	2651.3613	1619.85	732.1
991.7703	2652.6211	1621.05	732.05
991.8942	2653.8801	1612.3	725.25
992.018	2655.1385	1619.05	728.05
992.1418	2656.3961	1614.9	727.6
992.2655	2657.6531	1615.25	727.2
992.3892	2658.9094	1602.55	716.8
992.5129	2660.1651	1615.5	730.55
992.6366	2661.42	1614.75	729.95
992.7602	2662.6743	1615.65	727.2
992.8837	2663.9279	1616.45	728.2
993.0073	2665.1808	1614.6	725.5
993.1307	2666.433	1614.85	727.4
993.2542	2667.6846	1618.35	730.9
993.3776	2668.9354	1618.15	727.7
993.501	2670.1856	1614.8	726.55
993.6244	2671.4351	1613.75	726.5
993.7477	2672.6839	1615.5	724.1
993.8709	2673.9321	1623.3	739.35
993.9942	2675.1795	1624.5	738.35
994.1174	2676.4263	1627.65	740.6
994.2405	2677.6724	1620.35	734.2
994.3637	2678.9179	1623.85	734.35
994.4868	2680.1626	1623	739.3
994.6098	2681.4067	1625.95	739.95
994.7328	2682.6501	1620.35	734.2
994.8558	2683.8928	1619.3	732.55
994.9788	2685.1348	1610.45	722.05
995.1017	2686.3761	1614.1	726.3
995.2245	2687.6168	1604.45	718.4
995.3474	2688.8568	1591.05	703.05
995.4702	2690.0961	1594.9	707.9
995.5929	2691.3348	1588.8	701.8
995.7156	2692.5727	1587.35	700.8
995.8383	2693.81	1590	704.15
995.961	2695.0466	1587.65	702.35
996.0836	2696.2826	1582.2	694.65
996.2062	2697.5178	1605.65	698.05
996.3287	2698.7524	1588.4	701.35
996.4512	2699.9863	1582.6	694.2
996.5737	2701.2195	1581.3	696.25
996.6961	2702.452	1595.7	709.35
996.8185	2703.6839	1590.45	703.45
996.9408	2704.9151	1592.2	708.35
997.0631	2706.1456	1602.65	717.15
997.1854	2707.3755	1606.15	719.1
997.3077	2708.6046	1605.5	714.1
997.4299	2709.8331	1607.75	721.1
997.552	2711.0609	1618.5	730.05
997.6742	2712.2881	1624.5	737.65
997.7963	2713.5145	1635.5	746.65
997.9183	2714.7403	1626.95	740.65
998.0403	2715.9654	1644.45	760.35
998.1623	2717.1899	1678.15	778.9
998.2842	2718.4136	1669.95	784.1
998.4062	2719.6367	1681.95	795.95
998.528	2720.8591	1696.8	804
998.6498	2722.0809	1695.9	807.3
998.7716	2723.3019	1708.35	819.35
998.8934	2724.5223	1713	824.95
999.0151	2725.7421	1718.1	832.5
999.1368	2726.9611	1732.15	843.6
999.2584	2728.1795	1725.6	836.65
999.38	2729.3972	1715.1	830.15
999.5016	2730.6142	1716.3	818.4
999.6231	2731.8306	1688.15	799.1
999.7446	2733.0462	1674	786
999.8661	2734.2612	1660.8	770.15
999.9875	2735.4756	1637.6	749.9
1000.1089	2736.6892	1628.4	741.75
1000.2302	2737.9022	1598.45	713.3
1000.3515	2739.1145	1597.3	712.95
1000.4728	2740.3262	1597	702.45
1000.594	2741.5372	1587.15	701.75
1000.7152	2742.7475	1567	681.55
1000.8363	2743.9571	1556.3	669.45
1000.9575	2745.1661	1549.55	658.6
1001.0785	2746.3744	1540.45	653.25
1001.1996	2747.582	1529.65	643.85
1001.3206	2748.7889	1520.4	633.55
1001.4415	2749.9952	1511.4	626.55
1001.5625	2751.2008	1512.85	626.95
1001.6833	2752.4057	1505.75	619.9
1001.8042	2753.61	1500.7	614.6
1001.925	2754.8136	1494.95	609
1002.0458	2756.0165	1489.95	604.85
1002.1665	2757.2188	1498.1	612.95
1002.2872	2758.4204	1489.15	605.8
1002.4078	2759.6213	1489.15	600.05
1002.5285	2760.8215	1493.8	606.3
1002.649	2762.0211	1485.95	597.9
1002.7696	2763.22	1493.2	604.9
1002.8901	2764.4182	1477.65	590.7
1003.0106	2765.6158	1480	594.4
1003.131	2766.8127	1479.75	595
1003.2514	2768.009	1477.8	594
1003.3717	2769.2045	1469.65	586.35
1003.492	2770.3994	1471.25	584.45
1003.6123	2771.5936	1463.35	577.85
1003.7325	2772.7872	1459	576.25
1003.8527	2773.9801	1448.55	562.05
1003.9729	2775.1723	1468.7	567.2
1004.093	2776.3639	1452.15	566.65
1004.2131	2777.5548	1455.7	568.6
1004.3331	2778.745	1454.9	567.3
1004.4531	2779.9346	1456.2	572.7
1004.5731	2781.1235	1459.35	573.4
1004.693	2782.3117	1465.45	585.35
1004.8129	2783.4992	1456.05	569.65
1004.9328	2784.6861	1453.85	571.05
1005.0526	2785.8723	1461.75	575.8
1005.1723	2787.0579	1468.3	584.45
1005.2921	2788.2428	1469.6	583.65
1005.4118	2789.427	1479.9	595.65
1005.5314	2790.6106	1487.2	604
1005.651	2791.7935	1494	609.3
1005.7706	2792.9757	1495.7	611.55
1005.8902	2794.1573	1510.45	625.4
1006.0097	2795.3382	1513.6	627.8
1006.1291	2796.5184	1523.95	643.35
1006.2485	2797.698	1533.45	647.15
1006.3679	2798.8769	1553.55	671.4
1006.4873	2800.0551	1555.7	671
1006.6066	2801.2327	1570.9	686.3
1006.7258	2802.4096	1589.7	706.7
1006.8451	2803.5859	1602.6	717.85
1006.9642	2804.7615	1622.55	737.15
1007.0834	2805.9364	1642.5	757.4
1007.2025	2807.1106	1665.15	782.25
1007.3216	2808.2842	1688.8	804.5
1007.4406	2809.4572	1722.05	839.15
1007.5596	2810.6294	1747.3	863.6
1007.6785	2811.801	1776.85	894.9
1007.7975	2812.972	1817.05	933.45
1007.9163	2814.1423	1858.45	975.15
1008.0352	2815.3119	1900	1016.15
1008.154	2816.4808	1953.35	1070.25
1008.2727	2817.6491	1989.45	1106.75
1008.3914	2818.8167	2034.4	1151.75
1008.5101	2819.9837	2096.85	1208.05
1008.6288	2821.15	2148.4	1266.55
1008.7474	2822.3157	2187.5	1306.75
1008.8659	2823.4807	2243.7	1360.85
1008.9844	2824.645	2297.95	1414.35
1009.1029	2825.8086	2347.5	1464.5
1009.2214	2826.9716	2400.8	1517.75
1009.3398	2828.134	2446.35	1563.25
1009.4581	2829.2957	2487.15	1603.95
1009.5764	2830.4567	2523	1640.85
1009.6947	2831.617	2546.95	1662.85
1009.813	2832.7767	2563.35	1681.85
1009.9312	2833.9358	2559.35	1674.8
1010.0493	2835.0941	2559.45	1676.45
1010.1675	2836.2519	2552.2	1669.75
1010.2855	2837.4089	2519.8	1636.1
1010.4036	2838.5653	2513.3	1630.9
1010.5216	2839.7211	2503.4	1620.35
1010.6396	2840.8761	2504.95	1621.05
1010.7575	2842.0306	2516.7	1634.15
1010.8754	2843.1843	2544.5	1661.35
1010.9932	2844.3374	2577.3	1696.35
1011.111	2845.4899	2630.05	1746.05
1011.2288	2846.6417	2681.35	1799.85
1011.3465	2847.7928	2735.65	1856.25
1011.4642	2848.9433	2810.25	1926.6
1011.5818	2850.0931	2867.6	1986.65
1011.6995	2851.2422	2928.95	2042.55
1011.817	2852.3907	3004.25	2120.4
1011.9345	2853.5385	3052.65	2168.05
1012.052	2854.6857	3104.1	2211.65
1012.1695	2855.8323	3146.75	2265.6
1012.2869	2856.9781	3196.8	2315.05
1012.4042	2858.1233	3254	2371.45
1012.5216	2859.2679	3286.5	2404.05
1012.6389	2860.4118	3350.95	2468.95
1012.7561	2861.555	3381.75	2494.15
1012.8733	2862.6976	3435.4	2551
1012.9905	2863.8395	3461.2	2579.7
1013.1076	2864.9808	3491.1	2607.85
1013.2247	2866.1214	3509.45	2627.4
1013.3417	2867.2614	3533.3	2652.75
1013.4587	2868.4007	3539.45	2653.45
1013.5757	2869.5393	3555.85	2673.85
1013.6926	2870.6773	3569	2683.6
1013.8095	2871.8146	3568.2	2681.45
1013.9263	2872.9513	3580.3	2694.75
1014.0431	2874.0874	3582.15	2698.6
1014.1599	2875.2227	3563.35	2680.5
1014.2766	2876.3574	3537.25	2656.4
1014.3933	2877.4915	3518.15	2636.05
1014.51	2878.6249	3505.55	2624.6
1014.6266	2879.7577	3477.3	2595.6
1014.7431	2880.8898	3456.3	2563.65
1014.8596	2882.0212	3457.25	2576.1
1014.9761	2883.152	3430.65	2546.7
1015.0925	2884.2821	3399.15	2518.05
1015.2089	2885.4116	3404.3	2523.1
1015.3253	2886.5405	3414.25	2533
1015.4416	2887.6686	3425.5	2541.65
1015.5579	2888.7962	3414.45	2534.4
1015.6741	2889.923	3429.65	2548.75
1015.7903	2891.0493	3442.7	2562.5
1015.9065	2892.1748	3444.6	2561.3
1016.0226	2893.2997	3452.2	2571.65
1016.1387	2894.424	3451.75	2571
1016.2547	2895.5476	3483.9	2601.95
1016.3707	2896.6706	3507.7	2627.5
1016.4866	2897.7929	3526.95	2643.55
1016.6025	2898.9145	3545.8	2667.65
1016.7184	2900.0355	3579	2697.15
1016.8342	2901.1559	3615.2	2734.25
1016.95	2902.2756	3638.65	2753.15
1017.0658	2903.3946	3666.45	2784.95
1017.1815	2904.513	3699.3	2813.55
1017.2971	2905.6308	3716.4	2838.1
1017.4127	2906.7479	3745.75	2862.6
1017.5283	2907.8643	3780.45	2898.35
1017.6439	2908.9801	3779.1	2895.85
1017.7594	2910.0953	3792.75	2909.85
1017.8748	2911.2098	3802.4	2918.25
1017.9902	2912.3236	3793.7	2904.4
1018.1056	2913.4368	3792.85	2907.8
1018.2209	2914.5494	3761.45	2881.75
1018.3362	2915.6613	3715.6	2827.3
1018.4515	2916.7725	3703.75	2822.45
1018.5667	2917.8831	3663.75	2782.4
1018.6819	2918.9931	3645.2	2762.7
1018.797	2920.1024	3618.35	2737.5
1018.9121	2921.211	3595.25	2713.5
1019.0271	2922.319	3569.9	2692
1019.1421	2923.4264	3555.05	2675.2
1019.2571	2924.5331	3549.6	2669.05
1019.372	2925.6391	3528.45	2646
1019.4869	2926.7445	3535.1	2656.6
1019.6017	2927.8493	3538.7	2656.45
1019.7165	2928.9534	3538.5	2656.9
1019.8313	2930.0569	3538.85	2657.65
1019.946	2931.1597	3532.3	2651.25
1020.0606	2932.2619	3545.1	2665
1020.1753	2933.3634	3535.7	2657.05
1020.2899	2934.4643	3532.45	2643.6
1020.4044	2935.5645	3531.75	2644.5
1020.5189	2936.6641	3499.3	2613.65
1020.6334	2937.763	3465.75	2584.45
1020.7478	2938.8613	3419.75	2539.7
1020.8622	2939.959	3384.4	2500.45
1020.9765	2941.056	3309.25	2432.35
1021.0908	2942.1523	3235	2352.85
1021.2051	2943.248	3173.35	2292.8
1021.3193	2944.3431	3070.65	2190.25
1021.4334	2945.4375	2984.3	2102.75
1021.5476	2946.5313	2876.65	1996.75
1021.6617	2947.6244	2782.4	1903.2
1021.7757	2948.7169	2682.55	1800.65
1021.8897	2949.8087	2592.25	1712.95
1022.0037	2950.8999	2507	1624.85
1022.1176	2951.9904	2417.05	1539.15
1022.2315	2953.0803	2361.4	1479.75
1022.3453	2954.1696	2294.25	1415.35
1022.4591	2955.2582	2254.4	1374.65
1022.5728	2956.3462	2202.15	1321.15
1022.6865	2957.4335	2167.05	1286.4
1022.8002	2958.5202	2130.15	1249.2
1022.9138	2959.6062	2104	1225.75
1023.0274	2960.6916	2073.75	1193.45
1023.141	2961.7764	2058.25	1177.7
1023.2545	2962.8605	2058.8	1177.3
1023.3679	2963.9439	2032.2	1151.3
1023.4813	2965.0267	2016.35	1134.75
1023.5947	2966.1089	2030.5	1125.7
1023.708	2967.1905	2010.95	1132.25
1023.8213	2968.2714	2002.65	1123.35
1023.9346	2969.3516	2002.1	1124.45
1024.0478	2970.4312	2012.95	1127.8
1024.1609	2971.5102	1996.45	1118.25
1024.274	2972.5885	2002.45	1122.9
1024.3871	2973.6662	2002.45	1116.4
1024.5002	2974.7432	2006.55	1129
1024.6132	2975.8196	2005.35	1125.7
1024.7261	2976.8954	1996.4	1117.6
1024.839	2977.9705	1980.8	1101.7
1024.9519	2979.045	1975.05	1095.45
1025.0647	2980.1188	1957.35	1078.8
1025.1775	2981.192	1945.4	1067.55
1025.2902	2982.2645	1932.95	1054.1
1025.4029	2983.3364	1903.35	1024.2
1025.5156	2984.4077	1869.45	990.5
1025.6282	2985.4783	1854.15	968.75
1025.7407	2986.5483	1822.75	945.95
1025.8532	2987.6177	1784.55	904.9
1025.9657	2988.6864	1751.15	870.1
1026.0782	2989.7545	1712.55	830.75
1026.1906	2990.8219	1697.8	820
1026.3029	2991.8887	1657.9	776.05
1026.4152	2992.9548	1627.2	746.65
1026.5275	2994.0204	1587.35	710.3
1026.6397	2995.0852	1569.6	691.25
1026.7519	2996.1495	1540.85	660.3
1026.864	2997.2131	1521.95	643.35
1026.9761	2998.276	1500.35	621.6
1027.0882	2999.3383	1474.85	594.05
1027.2002	3000.4	1457.9	577.15
1027.3122	3001.4611	1439.8	560.3
1027.4241	3002.5215	1424.6	543.9
1027.536	3003.5812	1408.15	530.5
1027.6478	3004.6404	1396	516.85
1027.7596	3005.6989	1378.2	497.7
1027.8714	3006.7567	1371.8	491.8
1027.9831	3007.8139	1384.35	474.9
1028.0947	3008.8705	1346.85	467.75
1028.2064	3009.9264	1343.55	463.4
1028.3179	3010.9818	1339.4	459.95
1028.4295	3012.0364	1332.1	453.5
1028.541	3013.0905	1325.25	446
1028.6524	3014.1439	1319.4	441.25
1028.7638	3015.1966	1324	444.05
1028.8752	3016.2487	1308.65	428.7
1028.9865	3017.3002	1319.65	433.3
1029.0978	3018.3511	1308.4	429.3
1029.209	3019.4013	1306.4	429.35
1029.3202	3020.4509	1305.45	427.65
1029.4314	3021.4998	1302.65	423
1029.5425	3022.5481	1302	422.6
1029.6535	3023.5958	1302.1	422.8
1029.7645	3024.6428	1294.9	415.25
1029.8755	3025.6892	1294.6	416.2
1029.9864	3026.735	1298.45	420.4
1030.0973	3027.7802	1298.45	419.4
1030.2082	3028.8247	1300.9	421.25
1030.319	3029.8685	1304	425.1
1030.4297	3030.9118	1305.25	426.1
1030.5404	3031.9544	1298.4	419.35
1030.6511	3032.9963	1307.6	430.1
1030.7617	3034.0376	1309.35	429.2
1030.8723	3035.0783	1319.75	439.3
1030.9829	3036.1184	1319	440.75
1031.0934	3037.1578	1316.85	439.1
1031.2038	3038.1966	1319	438.45
1031.3142	3039.2348	1315.2	437.4
1031.4246	3040.2723	1329.8	442.35
1031.5349	3041.3092	1317.5	441.4
1031.6452	3042.3455	1321.65	443.75
1031.7554	3043.3811	1307.2	427.7
1031.8656	3044.4161	1314	435.65
1031.9758	3045.4505	1314.1	435.95
1032.0859	3046.4842	1315.2	436.35
1032.1959	3047.5173	1299.95	422.35
1032.3059	3048.5498	1300.65	422.25
1032.4159	3049.5816	1296.8	418.05
1032.5258	3050.6128	1291.6	412.2
1032.6357	3051.6434	1292.15	412.8
1032.7455	3052.6734	1282.25	401.6
1032.8553	3053.7027	1285.2	408.1
1032.9651	3054.7314	1271.7	392
1033.0748	3055.7594	1272.55	393.4
1033.1845	3056.7868	1264.95	384.75
1033.2941	3057.8136	1263.95	385.15
1033.4037	3058.8398	1267.75	390.55
1033.5132	3059.8653	1263.15	384.95
1033.6227	3060.8902	1258.05	380.4
1033.7321	3061.9145	1260.3	383.6
1033.8415	3062.9381	1248.95	371.5
1033.9509	3063.9612	1260.5	369.7
1034.0602	3064.9835	1245.8	368.95
1034.1694	3066.0053	1239.1	357.45
1034.2787	3067.0264	1231.15	357
1034.3878	3068.0469	1233.05	352.45
1034.497	3069.0668	1228.45	350.3
1034.6061	3070.086	1216.15	339.25
1034.7151	3071.1046	1212.9	334.95
1034.8241	3072.1226	1206.35	329.45
1034.9331	3073.1399	1198.5	321.55
1035.042	3074.1567	1193	316.1
1035.1508	3075.1727	1189.8	309.65
1035.2597	3076.1882	1177.75	298.5
1035.3684	3077.203	1168.55	290.35
1035.4772	3078.2173	1164.8	284.75
1035.5859	3079.2308	1159.55	278.3
1035.6945	3080.2438	1159.05	279.15
1035.8031	3081.2561	1147.65	269.95
1035.9117	3082.2678	1140.9	265.25
1036.0202	3083.2789	1134.35	255.65
1036.1286	3084.2893	1124.7	246.95
1036.2371	3085.2991	1127.1	249.6
1036.3454	3086.3083	1119.4	236.6
1036.4538	3087.3169	1119.25	240.75
1036.562	3088.3248	1111.45	230.2
1036.6703	3089.3321	1103.3	222.9
1036.7785	3090.3388	1099.05	221.4
1036.8866	3091.3449	1094.65	216
1036.9948	3092.3503	1097.8	218.15
1037.1028	3093.3551	1089.75	214.9
1037.2108	3094.3593	1087.9	211.7
1037.3188	3095.3629	1082.75	208.95
1037.4267	3096.3658	1085.5	206.45
1037.5346	3097.3681	1074.35	198.4
1037.6425	3098.3698	1077.35	198.1
1037.7503	3099.3708	1081.3	198.2
1037.858	3100.3713	1068.35	193.05
1037.9657	3101.3711	1069.85	191.85
1038.0734	3102.3702	1197.5	187.7
1038.181	3103.3688	1061	181.15
1038.2886	3104.3667	1060.1	184.05
1038.3961	3105.364	1058.9	181.55
1038.5036	3106.3607	1055.55	177.95
1038.611	3107.3568	1058.15	179.25
1038.7184	3108.3522	1055.1	180.35
1038.8257	3109.347	1052.6	175.25
1038.933	3110.3412	1053.55	174.1
1039.0403	3111.3348	1044.95	167
1039.1475	3112.3277	1045.3	168.3
1039.2547	3113.32	1044.95	166.8
1039.3618	3114.3117	1045.9	168.2
1039.4689	3115.3028	1036.1	158.75
1039.5759	3116.2932	1038.6	159.15
1039.6829	3117.2831	1045.1	164.75
1039.7898	3118.2723	1036.5	158.9
1039.8967	3119.2608	1035.5	157.5
1040.0035	3120.2488	1032.25	156.35
1040.1103	3121.2361	1026.2	149.35
1040.2171	3122.2229	1027.4	150.2
1040.3238	3123.209	1029.7	152.35
1040.4305	3124.1944	1022.3	144.65
1040.5371	3125.1793	1026	148.2
1040.6437	3126.1635	1021.15	143.8
1040.7502	3127.1471	1021.25	145.5
1040.8567	3128.1301	1020.15	144.05
1040.9631	3129.1125	1018.95	143.55
1041.0695	3130.0942	1013.2	137.35
1041.1759	3131.0753	1025.2	138.5
1041.2822	3132.0558	1021.8	140.9
1041.3884	3133.0357	1014.3	135.6
1041.4946	3134.015	1014.75	134.7
1041.6008	3134.9936	1015.15	137.35
1041.7069	3135.9716	1033.45	132.4
1041.813	3136.949	1008.15	132.55
1041.919	3137.9258	1026.6	131.75
1042.025	3138.902	1017	136.8
1042.1309	3139.8775	1003.8	125.7
1042.2368	3140.8524	1003.85	127
1042.3427	3141.8267	1004.35	126.5
1042.4485	3142.8004	1005.75	128.1
1042.5542	3143.7735	1007.9	123.75
1042.6599	3144.7459	1002.7	121.9
1042.7656	3145.7178	999.9	123.45
1042.8712	3146.689	998.9	124.15
1042.9768	3147.6596	998.9	121.35
1043.0823	3148.6295	994.85	117
1043.1878	3149.5989	997.35	121.05
1043.2932	3150.5676	994.55	118.1
1043.3986	3151.5357	992.4	116.55
1043.5039	3152.5032	993.85	118.8
1043.6092	3153.4701	991.25	113.55
1043.7145	3154.4364	993.6	114.75
1043.8197	3155.402	989.95	114.7
1043.9248	3156.367	994.2	115.45
1044.03	3157.3315	1019.5	112.25
1044.135	3158.2952	990.35	112.55
1044.24	3159.2584	986.7	111
1044.345	3160.221	982.95	105.55
1044.4499	3161.1829	988	111.15
1044.5548	3162.1442	986.7	110.3
1044.6596	3163.105	985.2	108.85
1044.7644	3164.065	981.15	105.65
1044.8692	3165.0245	985.1	105.7
1044.9739	3165.9834	980.7	104.4
1045.0785	3166.9416	980.95	104.25
1045.1831	3167.8993	982.15	105.75
1045.2877	3168.8563	981.65	105.25
1045.3922	3169.8127	978.6	103.05
1045.4966	3170.7684	978.2	101.1
1045.6011	3171.7236	980.75	103.85
1045.7054	3172.6782	975.8	98.85
1045.8098	3173.6321	980.5	104.1
1045.914	3174.5854	979.15	96.9
1046.0183	3175.5381	978.4	103.05
1046.1224	3176.4902	975.45	97.7
1046.2266	3177.4417	971.05	96.65
1046.3307	3178.3926	971.2	95.05
1046.4347	3179.3428	972.15	97.45
1046.5387	3180.2924	969.35	94.65
1046.6427	3181.2415	969.7	92.75
1046.7466	3182.1899	972.55	95.25
1046.8504	3183.1377	970.05	94.6
1046.9542	3184.0848	971.45	91.6
1047.058	3185.0314	965.75	87.2
1047.1617	3185.9773	967.8	90.3
1047.2654	3186.9227	971.2	94.5
1047.369	3187.8674	966.7	90.85
1047.4726	3188.8115	973	91.3
1047.5761	3189.755	964.45	88.75
1047.6796	3190.6979	969.35	92.6
1047.783	3191.6402	965.45	91.9
1047.8864	3192.5818	963.5	87.85
1047.9898	3193.5229	970.85	86.4
1048.0931	3194.4633	966	90.2
1048.1963	3195.4031	966.2	88.65
1048.2995	3196.3423	961.9	85.35
1048.4027	3197.2809	958.1	82.2
1048.5058	3198.2189	961.2	84.85
1048.6089	3199.1563	969.65	86
1048.7119	3200.0931	961.55	88
1048.8148	3201.0292	960.05	84.7
1048.9178	3201.9648	958.3	83.35
1049.0206	3202.8997	962.85	83.4
1049.1235	3203.834	962.05	87.8
1049.2262	3204.7677	959.95	85.25
1049.329	3205.7008	957.45	78.75
1049.4317	3206.6333	955.1	81.4
1049.5343	3207.5652	959.2	81.05
1049.6369	3208.4964	958.85	83.1
1049.7394	3209.4271	954.1	77.85
1049.8419	3210.3571	953.8	79.2
1049.9444	3211.2865	954.3	76.55
1050.0468	3212.2154	953.9	77.8
1050.1491	3213.1436	958	78.25
1050.2514	3214.0712	960.1	78.4
1050.3537	3214.9982	956.05	81.5
1050.4559	3215.9246	951.85	75.85
1050.5581	3216.8503	949.7	75.9
1050.6602	3217.7755	951.15	72.65
1050.7623	3218.7001	948.1	72.3
1050.8643	3219.624	951.55	74.75
1050.9663	3220.5473	950.8	74.85
1051.0682	3221.4701	952.3	73
1051.1701	3222.3922	950.25	74.4
1051.2719	3223.3137	949.55	73.15
1051.3737	3224.2346	948.1	73.2
1051.4754	3225.1549	952.4	76.65
1051.5771	3226.0746	947.05	70.55
1051.6788	3226.9937	947.95	71
1051.7804	3227.9121	944.05	67.7
1051.8819	3228.83	946.05	72
1051.9834	3229.7473	948.85	74.1
1052.0849	3230.6639	948.2	72.75
1052.1863	3231.5799	945.15	70.7
1052.2876	3232.4954	945.75	67.75
1052.3889	3233.4102	943.85	68.95
1052.4902	3234.3244	945.9	69.75
1052.5914	3235.238	944.85	68.95
1052.6926	3236.151	967.6	69.3
1052.7937	3237.0634	940.55	66.2
1052.8948	3237.9752	944.95	69.6
1052.9958	3238.8864	945.4	69.2
1053.0968	3239.797	942.3	66.55
1053.1977	3240.7069	942.35	66.85
1053.2986	3241.6163	939.25	61.1
1053.3994	3242.5251	939.6	64.65
1053.5002	3243.4332	939.35	64.25
1053.6009	3244.3408	938.5	63.95
1053.7016	3245.2477	939.55	63.55
1053.8022	3246.154	936.9	60.6
1053.9028	3247.0598	941.05	65.65
1054.0034	3247.9649	937.25	61.35
1054.1039	3248.8694	936.65	62.1
1054.2043	3249.7733	934.55	59.85
1054.3047	3250.6766	935.25	61.5
1054.4051	3251.5793	934.7	60.25
1054.5054	3252.4814	932	56.25
1054.6056	3253.3829	933.65	58.6
1054.7058	3254.2838	933.25	56.75
1054.806	3255.1841	934.45	57.9
1054.9061	3256.0838	931.6	57.1
1055.0061	3256.9829	931.35	55.85
1055.1062	3257.8814	935.05	58.25
1055.2061	3258.7792	934.9	58.9
1055.306	3259.6765	930.1	53.6
1055.4059	3260.5731	929.4	55.5
1055.5057	3261.4692	930.6	54.5
1055.6055	3262.3647	926.7	51.05
1055.7052	3263.2595	928.65	54.8
1055.8049	3264.1538	922.95	47.6
1055.9045	3265.0474	928.6	54.3
1056.0041	3265.9404	924.5	50.15
1056.1036	3266.8329	924	51.05
1056.2031	3267.7247	935.2	51.55
1056.3025	3268.616	918.4	44.75
1056.4019	3269.5066	919.9	45.05
1056.5013	3270.3966	919.75	43.5
1056.6005	3271.286	916.35	42.25
