Software Version:	3.9.2.0
Unit SN:	10000200
Spectrometer SN:	6960
Date:	3/8/2024 11:07:48 AM
Data Line Index:	25
Spectral Points:	2048
Integration time (ms):	125
Averages:	20
Delay (ms):	30000
Sequence Number:	1
Processing:	dark subtract
Laser Power (mW):	300
Laser Current (mA):	818
Laser Diode Temp (C):	25.1
Laser Case Temp (C):	24.3
System Temp (C):	24.2
Spectrometer Temp (C):	22.2
CCD Temp (C):	0.001
Secondary Temp (C):	20.019
Heatsink Temp (C):	18.88
CCDPCB Temp (C):	31.838
SecondaryPCB Temp (C):	26.136

Wavelength	RamanShift	Raw Counts	Dark Subtracted
787.061	30.1047	438.7	26.4
787.2016	32.3739	439.25	29.5
787.3422	34.6426	443.1	32.5
787.4828	36.9109	447.35	34.75
787.6235	39.1787	452.5	36.75
787.7642	41.4461	460.4	40.05
787.9049	43.7131	461.7	37.6
788.0456	45.9796	472.1	45.7
788.1863	48.2456	478.7	47.45
788.3271	50.5112	483.8	49.6
788.4679	52.7764	491.7	55.75
788.6087	55.0411	495.9	54.95
788.7496	57.3054	507.65	60.45
788.8904	59.5692	514.6	66.8
789.0313	61.8326	516.9	67.8
789.1722	64.0955	525.75	72.85
789.3132	66.3579	536.25	78.8
789.4541	68.6199	549.25	87.55
789.5951	70.8815	576.3	110.2
789.7361	73.1426	626.6	157.8
789.8771	75.4032	739.9	267.85
790.0181	77.6634	1041.15	564.85
790.1592	79.9231	1718.3	1241.5
790.3003	82.1824	3123.4	2644.55
790.4414	84.4412	5524.1	5038.1
790.5825	86.6995	8708.9	8219.45
790.7237	88.9574	11734.7	11243
790.8648	91.2148	13872.35	13376.8
791.006	93.4717	14932	14433.25
791.1472	95.7282	15243.4	14742.2
791.2885	97.9842	15289.5	14786
791.4297	100.2398	15151.5	14647.3
791.571	102.4949	15000.15	14493.4
791.7123	104.7495	14852.35	14338.65
791.8536	107.0036	14668.85	14156.45
791.9949	109.2573	14497.35	13984.1
792.1363	111.5105	14290.6	13775.55
792.2777	113.7632	14009.55	13493.75
792.4191	116.0154	13693.9	13164.7
792.5605	118.2672	13382.4	12861.6
792.7019	120.5185	13009.25	12487
792.8434	122.7693	12663.75	12135.95
792.9849	125.0197	12337.45	11806.25
793.1264	127.2696	12086.65	11551.35
793.2679	129.519	11917.85	11379.6
793.4094	131.7679	11772.75	11233.55
793.551	134.0163	11727.5	11186.4
793.6926	136.2642	11647.95	11103.4
793.8342	138.5117	11651.4	11103.05
793.9758	140.7587	11569.15	11018.8
794.1175	143.0052	11489.7	10937.15
794.2591	145.2512	11311.7	10757.75
794.4008	147.4967	11117.45	10560.55
794.5425	149.7417	10923.95	10365.1
794.6842	151.9863	10820.25	10256.5
794.826	154.2304	10732.2	10165.5
794.9677	156.4739	10675.65	10104.55
795.1095	158.717	10724.35	10152.1
795.2513	160.9596	10802.5	10225.6
795.3931	163.2017	10903.55	10325.15
795.535	165.4433	11022.8	10443
795.6768	167.6844	11065.35	10482.25
795.8187	169.925	10978.4	10392.6
795.9606	172.1651	10780.2	10189.05
796.1025	174.4047	10632.3	10037.8
796.2445	176.6439	10466.4	9870.55
796.3864	178.8825	10320.1	9720.85
796.5284	181.1206	10229.7	9624.8
796.6704	183.3582	10204.95	9598.7
796.8124	185.5954	10197.1	9590.1
796.9544	187.832	10155.2	9543.95
797.0965	190.0681	10179.75	9565
797.2386	192.3037	10207.65	9590.1
797.3806	194.5388	10208.55	9589.85
797.5228	196.7734	10254.4	9634.25
797.6649	199.0075	10306.15	9686.45
797.807	201.2411	10409.75	9787.05
797.9492	203.4742	10466.05	9840.35
798.0914	205.7068	10590.3	9959.7
798.2336	207.9389	10665.45	10034.95
798.3758	210.1704	10741.25	10120.05
798.518	212.4015	10750.6	10137
798.6603	214.632	10772.8	10164.55
798.8025	216.862	10798.65	10192.55
798.9448	219.0915	10791.25	10181.35
799.0871	221.3205	10845.4	10234.25
799.2294	223.549	10887.7	10279.65
799.3718	225.777	10956.9	10346.75
799.5141	228.0044	10925.8	10306.65
799.6565	230.2314	10928	10306.4
799.7989	232.4578	10900.25	10275.8
799.9413	234.6837	10830.9	10196.35
800.0837	236.909	10795.7	10161.15
800.2262	239.1339	10743.5	10085.75
800.3687	241.3582	10695.2	10052.25
800.5111	243.582	10695.45	10020.15
800.6536	245.8053	10730.65	10068.55
800.7961	248.0281	10723.35	10068.45
800.9387	250.2503	10770.95	10111.05
801.0812	252.472	10791.85	10131.95
801.2238	254.6932	10796.3	10135.45
801.3664	256.9139	10779	10116.85
801.509	259.134	10825.1	10159
801.6516	261.3536	10894.1	10230.65
801.7942	263.5727	11041.75	10375.75
801.9369	265.7912	11158.3	10490.15
802.0795	268.0092	11409.25	10743.05
802.2222	270.2267	11640	10973.2
802.3649	272.4436	11819.5	11150.1
802.5076	274.6601	11960.75	11280.2
802.6504	276.8759	12016.95	11339
802.7931	279.0913	12128.4	11450.9
802.9359	281.3061	12164.4	11486
803.0787	283.5204	12257.4	11578.1
803.2215	285.7341	12402.9	11718.2
803.3643	287.9473	12498.65	11813.25
803.5071	290.16	12491.1	11805.15
803.6499	292.3721	12339.55	11659.35
803.7928	294.5837	12138.9	11457.15
803.9357	296.7947	11956.55	11273.05
804.0786	299.0052	11875	11192.4
804.2215	301.2152	11797.15	11110.75
804.3644	303.4246	11751.75	11065.7
804.5074	305.6334	11728.35	11043.7
804.6503	307.8418	11714.4	11026.9
804.7933	310.0495	11661.95	10972.4
804.9363	312.2568	11523.9	10833.65
805.0793	314.4635	11340.6	10647.9
805.2223	316.6696	11167.75	10473.1
805.3653	318.8752	10956.85	10251.8
805.5084	321.0802	10803.7	10107.3
805.6514	323.2847	10778.85	10080.7
805.7945	325.4887	10758.1	10058.9
805.9376	327.692	10800.95	10102.6
806.0807	329.8949	10984.55	10285
806.2238	332.0972	11144.75	10441.3
806.367	334.2989	11325.5	10619.45
806.5101	336.5001	11371.95	10663.9
806.6533	338.7007	11258.5	10550.3
806.7965	340.9008	11077.1	10369.1
806.9397	343.1003	10824.4	10111.35
807.0829	345.2992	10600.6	9887.8
807.2261	347.4976	10422.6	9707.5
807.3693	349.6955	10275.15	9555.4
807.5126	351.8927	10190.3	9471.7
807.6559	354.0895	10108.45	9378.2
807.7991	356.2856	10061.95	9341.2
807.9424	358.4812	10020.15	9296
808.0857	360.6763	9981.3	9257.7
808.2291	362.8707	9943.95	9218.4
808.3724	365.0646	9961.85	9232.7
808.5158	367.258	9968.05	9236.75
808.6591	369.4508	9981.25	9246.95
808.8025	371.643	10124.4	9392.4
808.9459	373.8346	10210.65	9474.35
809.0893	376.0257	10351.55	9613.8
809.2327	378.2162	10451.75	9710.6
809.3762	380.4062	10537.1	9798.4
809.5196	382.5956	10469.6	9732.1
809.6631	384.7844	10330	9596.85
809.8066	386.9726	10102.4	9370.45
809.9501	389.1603	9965.7	9238.8
810.0936	391.3474	9892.9	9121.35
810.2371	393.5339	9840.7	9110
810.3806	395.7199	9849.25	9119.3
810.5241	397.9052	9934.7	9202.65
810.6677	400.09	10087.65	9354
810.8113	402.2743	10278.05	9546.3
810.9548	404.4579	10383.05	9648.8
811.0984	406.641	10550	9810.65
811.2421	408.8235	10696.7	9956.4
811.3857	411.0054	10846	10104.15
811.5293	413.1868	10951.75	10207.1
811.673	415.3675	10978.3	10230.75
811.8166	417.5477	10934	10183.9
811.9603	419.7273	10846.05	10094.95
812.104	421.9064	10697.55	9938.95
812.2477	424.0848	10511.05	9758.25
812.3914	426.2627	10235.85	9483.7
812.5351	428.4399	9996.7	9244.3
812.6788	430.6166	9752.75	8993.55
812.8226	432.7928	9579.5	8820
812.9663	434.9683	9430.25	8668.75
813.1101	437.1432	9314.85	8552.8
813.2539	439.3176	9206	8444.8
813.3977	441.4914	9139.2	8378.2
813.5415	443.6645	9124.3	8362.1
813.6853	445.8371	9085.05	8322.95
813.8291	448.0091	9052.25	8291.05
813.973	450.1806	9046.95	8280.95
814.1168	452.3514	9032.5	8264.55
814.2607	454.5216	9048.7	8273.6
814.4046	456.6913	9015.5	8246.2
814.5485	458.8603	9032.3	8265.4
814.6924	461.0288	9023.45	8257.2
814.8363	463.1967	9044.75	8276.85
814.9802	465.3639	9027.95	8259.85
815.1241	467.5306	8982.75	8213.55
815.2681	469.6967	8939.6	8170.35
815.412	471.8622	8885.25	8116.6
815.556	474.0271	8882.5	8113
815.7	476.1914	8872.85	8099.1
815.844	478.3551	8837.95	8066.4
815.988	480.5182	8835.2	8063.05
816.132	482.6807	8837.75	8066.3
816.276	484.8426	8899.4	8125.05
816.4201	487.0039	9065.6	8290.3
816.5641	489.1647	9253.7	8477.25
816.7082	491.3248	9441.45	8666.15
816.8522	493.4843	9527.8	8752.65
816.9963	495.6432	9487.2	8711.25
817.1404	497.8015	9370.3	8589.4
817.2845	499.9592	9219.3	8440.35
817.4286	502.1163	8963.25	8181.85
817.5727	504.2728	8753.75	7973.85
817.7168	506.4287	8655.7	7875.45
817.861	508.5839	8578.65	7799.85
818.0051	510.7386	8560.15	7780.25
818.1493	512.8927	8544.1	7754.85
818.2935	515.0461	8573.85	7791.1
818.4377	517.199	8606.75	7822.55
818.5818	519.3512	8752.05	7967.85
818.726	521.5029	9023.95	8233.4
818.8703	523.6539	9290.25	8503.95
819.0145	525.8043	9369.15	8581.5
819.1587	527.9541	9153.25	8364.8
819.303	530.1033	8846.5	8058.85
819.4472	532.2519	8620.85	7831.1
819.5915	534.3999	8528.7	7736.55
819.7357	536.5472	8455.4	7664.4
819.88	538.694	8442.35	7651.3
820.0243	540.8401	8488.5	7697.55
820.1686	542.9856	8557.35	7765.85
820.3129	545.1305	8624.7	7829.15
820.4572	547.2748	8678.8	7887.2
820.6016	549.4185	8669.2	7874.85
820.7459	551.5615	8690.05	7896.25
820.8902	553.704	8745	7953.35
821.0346	555.8458	8766.5	7972.25
821.1789	557.987	8867.6	8075.45
821.3233	560.1276	8976.15	8180.6
821.4677	562.2675	9253.5	8461.05
821.6121	564.4069	9573.4	8779.05
821.7565	566.5456	9807.75	9013.25
821.9009	568.6837	9696.8	8901.35
822.0453	570.8212	9331.1	8534.85
822.1897	572.958	8885.75	8087.35
822.3342	575.0942	8597.4	7800.85
822.4786	577.2299	8426.05	7627
822.6231	579.3648	8324.55	7525.9
822.7675	581.4992	8274.7	7476.05
822.912	583.6329	8299.45	7500.15
823.0565	585.766	8382.55	7583.35
823.201	587.8985	8546.9	7746.8
823.3454	590.0304	8747.65	7932.85
823.4899	592.1616	8928.65	8123.95
823.6345	594.2922	8978.85	8175.9
823.779	596.4222	8849.6	8046.85
823.9235	598.5515	8633.85	7829.65
824.068	600.6802	8385.9	7580.7
824.2126	602.8083	8150	7344.45
824.3571	604.9358	8041.45	7236.55
824.5017	607.0626	8030.35	7225.9
824.6462	609.1888	8018.45	7212.7
824.7908	611.3144	8098.4	7292
824.9354	613.4393	8232.9	7426.5
825.08	615.5636	8434.9	7629.25
825.2246	617.6873	8660.45	7855.05
825.3692	619.8103	8813.3	8003.8
825.5138	621.9327	8830.35	8018.5
825.6584	624.0544	8733.75	7924.35
825.803	626.1756	8438.7	7628.15
825.9477	628.2961	8180.75	7370.3
826.0923	630.4159	8030.35	7220
826.237	632.5351	8004.3	7192.1
826.3816	634.6537	7964.7	7152.9
826.5263	636.7716	7942.4	7129.6
826.6709	638.8889	7934.1	7122.7
826.8156	641.0056	7956.15	7142.75
826.9603	643.1216	7994.3	7179.65
827.105	645.237	8035.35	7218.9
827.2497	647.3518	7958.6	7143.35
827.3944	649.4659	7851.1	7036.7
827.5391	651.5793	7716.35	6901.9
827.6838	653.6922	7664.8	6851.15
827.8285	655.8043	7589.65	6774.45
827.9733	657.9159	7539.75	6724.9
828.118	660.0268	7503.35	6684.95
828.2627	662.137	7471.85	6653.55
828.4075	664.2466	7483.45	6664.8
828.5522	666.3556	7479.5	6663
828.697	668.4639	7430.25	6608.55
828.8418	670.5716	7426	6606.9
828.9865	672.6786	7380.35	6560.75
829.1313	674.785	7331.4	6508.85
829.2761	676.8907	7302.95	6481.25
829.4209	678.9958	7296	6475.6
829.5657	681.1002	7280.15	6457.75
829.7105	683.204	7286	6461.85
829.8553	685.3072	7275.05	6451.25
830.0001	687.4097	7257.8	6435.25
830.1449	689.5115	7246.75	6422.45
830.2898	691.6127	7251.55	6429.15
830.4346	693.7132	7200.3	6377.95
830.5794	695.8131	7214.75	6376.6
830.7243	697.9123	7218.1	6392.85
830.8691	700.0109	7218.5	6393.65
831.014	702.1089	7261.2	6437.05
831.1588	704.2061	7289.65	6466.3
831.3037	706.3028	7378.15	6551.55
831.4486	708.3987	7514.25	6689.9
831.5935	710.4941	7567.15	6741.05
831.7383	712.5887	7582.9	6755.55
831.8832	714.6827	7561.3	6730.55
832.0281	716.7761	7488.85	6661.55
832.173	718.8688	7459.05	6630.6
832.3179	720.9608	7416.3	6585.4
832.4628	723.0522	7465.45	6634.3
832.6077	725.1429	7531.15	6701.65
832.7527	727.233	7628.75	6800.25
832.8976	729.3224	7873.3	7042.95
833.0425	731.4112	8131.1	7300.25
833.1874	733.4993	8234.65	7401.75
833.3324	735.5867	8093.05	7260.8
833.4773	737.6735	7759.95	6928.65
833.6222	739.7596	7445.25	6611.45
833.7672	741.845	7264.8	6433.2
833.9122	743.9298	7191.8	6357.85
834.0571	746.014	7161.75	6331.4
834.2021	748.0974	7145.55	6311.55
834.347	750.1802	7151.9	6317.7
834.492	752.2624	7130.25	6297.9
834.637	754.3439	7124.8	6290.4
834.782	756.4247	7133.8	6290.85
834.9269	758.5048	7152.9	6319.35
835.0719	760.5843	7223.1	6389.15
835.2169	762.6631	7336.6	6501.9
835.3619	764.7413	7537.65	6704.85
835.5069	766.8188	7893.35	7058.35
835.6519	768.8956	8238.55	7401.75
835.7969	770.9718	8536.55	7701.85
835.9419	773.0473	8476	7642.9
836.0869	775.1221	8300.35	7465.25
836.232	777.1962	8231.6	7397.5
836.377	779.2697	8435.75	7598.6
836.522	781.3426	8888.15	8034.9
836.667	783.4147	9238.6	8400.05
836.8121	785.4862	9280.45	8444.1
836.9571	787.557	8932.65	8097
837.1021	789.6271	8414.35	7576.5
837.2472	791.6966	7843.1	7003.7
837.3922	793.7654	7397.9	6559.4
837.5373	795.8335	7103.15	6264.5
837.6823	797.901	6938.35	6101.75
837.8274	799.9678	6877.95	6038.15
837.9724	802.0339	6863.4	6027.4
838.1175	804.0993	6917.3	6069.4
838.2626	806.1641	6896.3	6055.2
838.4076	808.2282	6832.15	5993
838.5527	810.2916	6744.95	5901.8
838.6978	812.3544	6665.6	5828.1
838.8428	814.4164	6632.95	5793.4
838.9879	816.4778	6662.1	5821.75
839.133	818.5385	6667.6	5829.3
839.2781	820.5986	6830.7	5990.85
839.4232	822.658	7033.45	6191.55
839.5682	824.7166	7303.45	6464.95
839.7133	826.7747	7643.05	6802.75
839.8584	828.832	7952.85	7112.65
840.0035	830.8886	8177.95	7334.6
840.1486	832.9446	8349.2	7508.25
840.2937	834.9999	8241.8	7401.6
840.4388	837.0545	8017.95	7170.55
840.5839	839.1085	7629.95	6786.25
840.729	841.1618	7294.3	6447.55
840.8741	843.2143	7016.05	6174.05
841.0192	845.2662	6869.55	6027.6
841.1643	847.3175	6783.95	5941.6
841.3095	849.368	6707.15	5864.05
841.4546	851.4179	6681.75	5838.55
841.5997	853.467	6657.7	5814.05
841.7448	855.5155	6723.4	5878.2
841.8899	857.5633	6730.75	5886.9
842.0351	859.6105	6708.8	5864.8
842.1802	861.6569	6654.35	5809.2
842.3253	863.7027	6575.9	5730.6
842.4704	865.7478	6523	5676.1
842.6156	867.7922	6485.9	5641.05
842.7607	869.8359	6429.4	5585.5
842.9058	871.8789	6385.75	5541.2
843.0509	873.9212	6393.65	5514.7
843.1961	875.9629	6375.7	5530.35
843.3412	878.0039	6433.9	5585.05
843.4863	880.0441	6483.8	5638.85
843.6315	882.0837	6556.9	5708.15
843.7766	884.1226	6628.7	5780.2
843.9218	886.1609	6799.45	5952.9
844.0669	888.1984	6994.3	6148.05
844.212	890.2352	7203.95	6356.9
844.3572	892.2714	7298.25	6447.8
844.5023	894.3069	7203.2	6354.5
844.6475	896.3416	6985.1	6135.2
844.7926	898.3757	6754.05	5904.55
844.9377	900.4091	6630.7	5781.35
845.0829	902.4418	6619.35	5766.9
845.228	904.4739	6711.45	5861.8
845.3732	906.5052	6806.75	5957.55
845.5183	908.5358	6836.4	5989.25
845.6635	910.5658	6768.1	5918.1
845.8086	912.595	6639.55	5789.6
845.9538	914.6236	6464.15	5614.4
846.0989	916.6515	6335.65	5486.75
846.2441	918.6786	6233.15	5379.55
846.3892	920.7051	6185.7	5333.35
846.5344	922.7309	6172.95	5322.4
846.6795	924.756	6183.3	5332.95
846.8246	926.7804	6213.25	5360.75
846.9698	928.8041	6236.75	5382.6
847.1149	930.8272	6322.65	5470.6
847.2601	932.8495	6348.3	5495.1
847.4052	934.8711	6388.25	5535.25
847.5504	936.892	6402.3	5550.55
847.6955	938.9123	6469.1	5615.6
847.8407	940.9318	6589.3	5735.7
847.9858	942.9506	6667.65	5814.45
848.131	944.9688	6634.8	5780.5
848.2761	946.9862	6561.7	5709.7
848.4213	949.003	6420.15	5566.2
848.5664	951.019	6300.75	5445.9
848.7115	953.0344	6198	5343.15
848.8567	955.0491	6149.5	5293.2
849.0018	957.063	6099.85	5246.45
849.147	959.0763	6086.7	5234.15
849.2921	961.0888	6069.1	5214.1
849.4373	963.1007	6060.5	5206.8
849.5824	965.1119	6036.8	5183.5
849.7275	967.1223	5977.4	5123.45
849.8727	969.1321	5943.05	5089.7
850.0178	971.1412	5945.8	5091.75
850.1629	973.1495	5917.15	5062.85
850.3081	975.1572	5922.2	5027.95
850.4532	977.1641	5920.95	5067.75
850.5983	979.1704	5906.85	5051.6
850.7435	981.1759	5926.15	5066
850.8886	983.1808	5881.85	5026.4
851.0337	985.1849	5842.15	4977.85
851.1788	987.1884	5798.2	4940.55
851.324	989.1911	5819.2	4959.75
851.4691	991.1932	5846.1	4989.9
851.6142	993.1945	5866.1	5010.9
851.7593	995.1951	5865.25	5008.2
851.9045	997.1951	5865.9	5004.8
852.0496	999.1943	5826.3	4970.1
852.1947	1001.1928	5808.5	4952.05
852.3398	1003.1906	5850	4992.55
852.4849	1005.1877	5951.15	5092.35
852.63	1007.1841	6058	5198.85
852.7751	1009.1798	6152.65	5297.7
852.9202	1011.1748	6095.8	5237.55
853.0653	1013.1691	6011.15	5153.05
853.2104	1015.1627	5866.3	5008.4
853.3555	1017.1556	5731.8	4873.15
853.5006	1019.1477	5651.75	4792.1
853.6457	1021.1392	5561.35	4702.8
853.7908	1023.1299	5510.7	4651.6
853.9359	1025.12	5501.45	4642.45
854.081	1027.1093	5534.2	4674.3
854.2261	1029.0979	5603.3	4747.6
854.3712	1031.0859	5677.3	4821.2
854.5163	1033.0731	5737.65	4878.4
854.6613	1035.0596	5780.75	4921.55
854.8064	1037.0454	5737.1	4875.75
854.9515	1039.0304	5676.1	4816.75
855.0965	1041.0148	5595.95	4735.1
855.2416	1042.9985	5495.85	4635.65
855.3867	1044.9814	5420.9	4562.3
855.5317	1046.9636	5390.4	4529.8
855.6768	1048.9452	5421.05	4561.5
855.8219	1050.926	5488.95	4630.45
855.9669	1052.9061	5573.7	4716.45
856.112	1054.8855	5597.95	4738.8
856.257	1056.8642	5621.75	4761.8
856.4021	1058.8421	5603.95	4739.1
856.5471	1060.8194	5574.55	4713.45
856.6921	1062.7959	5550.65	4690.75
856.8372	1064.7717	5542.8	4679.85
856.9822	1066.7469	5540.4	4679.7
857.1272	1068.7213	5550.2	4687.25
857.2723	1070.695	5592.3	4731.85
857.4173	1072.6679	5671.55	4809.3
857.5623	1074.6402	5805.1	4943.85
857.7073	1076.6117	5856.55	4989.2
857.8523	1078.5826	5821.9	4960.2
857.9973	1080.5527	5650.3	4786.75
858.1423	1082.5221	5494.45	4631.8
858.2873	1084.4908	5361.9	4500.35
858.4323	1086.4587	5270.55	4408.5
858.5773	1088.426	5245.05	4383.2
858.7223	1090.3925	5225.75	4357.35
858.8673	1092.3584	5232.8	4368.25
859.0123	1094.3235	5255.2	4395
859.1573	1096.2879	5325.4	4463
859.3022	1098.2515	5410.3	4548.1
859.4472	1100.2145	5516.85	4655.75
859.5922	1102.1767	5653.75	4788.55
859.7371	1104.1382	5799.4	4935.8
859.8821	1106.099	6027.85	5162.6
860.027	1108.0591	6241.7	5378.5
860.172	1110.0185	6433.75	5569.3
860.3169	1111.9771	6577.9	5715.95
860.4619	1113.9351	6755.2	5890.65
860.6068	1115.8923	7045.1	6181.2
860.7517	1117.8488	7267.1	6401.7
860.8967	1119.8045	7192.35	6330
861.0416	1121.7596	6811.3	5948.2
861.1865	1123.7139	6301.3	5440.25
861.3314	1125.6675	5991.6	5129.2
861.4763	1127.6204	5919.25	5055.1
861.6212	1129.5726	6003.8	5137.35
861.7661	1131.524	6045.1	5182.45
861.911	1133.4748	5924.3	5059.25
862.0559	1135.4248	5663.65	4797.6
862.2008	1137.3741	5425.65	4560.75
862.3457	1139.3226	5291.75	4427.9
862.4905	1141.2705	5245.7	4380.8
862.6354	1143.2176	5255.7	4386.35
862.7803	1145.164	5343.95	4476.75
862.9251	1147.1097	5359.15	4495.9
863.07	1149.0546	5310.95	4445.55
863.2148	1150.9989	5195.25	4331.6
863.3597	1152.9424	5104.8	4238.75
863.5045	1154.8852	5020.65	4154.6
863.6493	1156.8272	4990.25	4126.25
863.7942	1158.7686	4982.55	4113.4
863.939	1160.7092	4972.2	4105.25
864.0838	1162.6491	4985.2	4120
864.2286	1164.5883	5013.65	4150
864.3734	1166.5267	5073.45	4206.85
864.5182	1168.4644	5164.05	4298.35
864.663	1170.4014	5296.25	4428.4
864.8078	1172.3377	5460.25	4595.95
864.9526	1174.2732	5626.4	4761.4
865.0974	1176.2081	5971.05	5106.35
865.2421	1178.1421	6444.4	5574.75
865.3869	1180.0755	7012.35	6147.9
865.5317	1182.0082	7412.35	6547
865.6764	1183.9401	7500.75	6632.85
865.8212	1185.8713	7170.8	6304.75
865.9659	1187.8017	6624.55	5757.25
866.1106	1189.7315	6098.5	5231.05
866.2554	1191.6605	5720.4	4825.35
866.4001	1193.5888	5461.15	4594.55
866.5448	1195.5163	5322.45	4456.1
866.6895	1197.4432	5207.55	4338.3
866.8342	1199.3693	5117.6	4251.55
866.9789	1201.2947	5057.05	4183.85
867.1236	1203.2193	5018.2	4149.7
867.2683	1205.1432	4977.75	4109.2
867.413	1207.0664	4955.1	4088.95
867.5576	1208.9889	4947	4076.55
867.7023	1210.9106	4953.95	4085.85
867.847	1212.8316	4960.1	4094.9
867.9916	1214.7519	5013.85	4137.2
868.1363	1216.6715	5045.8	4179.25
868.2809	1218.5903	5077.65	4209.05
868.4255	1220.5084	5139.7	4272.2
868.5701	1222.4257	5205.75	4338.15
868.7148	1224.3424	5232.5	4366.15
868.8594	1226.2583	5289.6	4416.55
869.004	1228.1735	5405.15	4535.35
869.1486	1230.0879	5533.2	4662.8
869.2932	1232.0016	5708.1	4842.7
869.4377	1233.9146	5840.95	4971.3
869.5823	1235.8269	5922.55	5054.85
869.7269	1237.7384	5944.9	5077.1
869.8715	1239.6492	5908.8	5040.95
870.016	1241.5592	5956.15	5087.1
870.1606	1243.4686	6103.65	5236.2
870.3051	1245.3772	6382.2	5512.9
870.4496	1247.285	6736.8	5868.3
870.5941	1249.1922	7086.45	6218.65
870.7387	1251.0986	7387.45	6520.25
870.8832	1253.0042	7650.4	6779.8
871.0277	1254.9092	8007.15	7138.45
871.1722	1256.8134	8407	7538.85
871.3167	1258.7169	8893.15	8024.25
871.4611	1260.6196	9265.65	8400.15
871.6056	1262.5216	9514.85	8645.4
871.7501	1264.4229	9585.15	8715
871.8945	1266.3234	9477.5	8609.2
872.039	1268.2232	9200.95	8330.55
872.1834	1270.1223	8920	8049.05
872.3278	1272.0207	8735.3	7865.2
872.4723	1273.9183	8614.2	7739.85
872.6167	1275.8151	8594.65	7726.8
872.7611	1277.7113	8687.95	7818.2
872.9055	1279.6067	9004.4	8135.5
873.0499	1281.5014	9589.3	8717.5
873.1943	1283.3953	10391.55	9520.75
873.3386	1285.2885	11327.4	10459.1
873.483	1287.181	12148.85	11278.8
873.6274	1289.0727	12530.2	11661.9
873.7717	1290.9637	12376.95	11506.95
873.9161	1292.854	11846.75	10976.35
874.0604	1294.7435	11195.1	10324.85
874.2047	1296.6323	10531.1	9660.6
874.349	1298.5204	9988.1	9113.35
874.4933	1300.4077	9578.1	8708.1
874.6376	1302.2943	9261.85	8391.2
874.7819	1304.1802	9074.85	8205.8
874.9262	1306.0653	8881.35	8010.55
875.0705	1307.9497	8732.85	7863.05
875.2147	1309.8333	8615.1	7746.05
875.359	1311.7162	8517.35	7647.55
875.5032	1313.5984	8423	7549.45
875.6475	1315.4798	8349.2	7461.95
875.7917	1317.3605	8378.95	7493.3
875.9359	1319.2405	8460.8	7589.9
876.0801	1321.1197	8505	7632.3
876.2243	1322.9982	8430.8	7556.4
876.3685	1324.876	8250.2	7379.65
876.5127	1326.753	7876.25	7005.3
876.6569	1328.6293	7456.3	6583.75
876.801	1330.5048	7019.35	6147.95
876.9452	1332.3796	6607.55	5739.15
877.0893	1334.2537	6307.5	5412.15
877.2335	1336.127	6052.25	5181.15
877.3776	1337.9996	5894.6	5022.4
877.5217	1339.8714	5774.2	4901.55
877.6658	1341.7426	5709.6	4792.7
877.8099	1343.6129	5594	4722.85
877.954	1345.4826	5504.45	4632.75
878.0981	1347.3515	5442.5	4568.4
878.2422	1349.2196	5356.55	4484.15
878.3862	1351.087	5324.9	4454.1
878.5303	1352.9537	5309.6	4437.6
878.6743	1354.8197	5301.25	4428.75
878.8184	1356.6849	5338.2	4465.95
878.9624	1358.5493	5378.05	4505.25
879.1064	1360.4131	5488.3	4618.35
879.2504	1362.276	5618.5	4747.75
879.3944	1364.1383	5782.3	4910.85
879.5384	1365.9998	5879.8	5003.2
879.6823	1367.8606	5847.25	4974.75
879.8263	1369.7206	5823.15	4952.5
879.9702	1371.5799	5841.1	4967.35
880.1142	1373.4384	5820.9	4948.95
880.2581	1375.2962	5723.75	4850.75
880.402	1377.1533	5520.25	4649.5
880.5459	1379.0096	5315.85	4445.05
880.6898	1380.8652	5134.75	4264
880.8337	1382.7201	5035.7	4164.9
880.9776	1384.5742	4906.2	4035.5
881.1215	1386.4275	4798.65	3925.35
881.2653	1388.2802	4717.2	3846.7
881.4092	1390.132	4635.7	3763.75
881.553	1391.9832	4612.55	3739.8
881.6968	1393.8336	4566.5	3694.25
881.8406	1395.6832	4573.2	3697.85
881.9844	1397.5322	4513.25	3641.9
882.1282	1399.3803	4481.85	3603.1
882.272	1401.2278	4452.55	3580
882.4158	1403.0745	4407.25	3535.8
882.5595	1404.9204	4357.15	3486.05
882.7033	1406.7656	4325.9	3454.2
882.847	1408.6101	4315.35	3442.85
882.9908	1410.4538	4284.3	3409.85
883.1345	1412.2968	4276.5	3404.85
883.2782	1414.139	4275.1	3403.85
883.4219	1415.9805	4302.85	3433.35
883.5656	1417.8213	4362.75	3485.25
883.7092	1419.6613	4420.4	3548.95
883.8529	1421.5006	4531.1	3657.25
883.9965	1423.3391	4702.25	3830.15
884.1402	1425.1769	4907.85	4032.35
884.2838	1427.0139	5247.1	4373.1
884.4274	1428.8502	5614.7	4742.6
884.571	1430.6858	5942.3	5069.75
884.7146	1432.5206	6098.1	5225.3
884.8582	1434.3547	6069.95	5195.25
885.0018	1436.188	5991.85	5120.8
885.1453	1438.0206	5919.95	5046.6
885.2889	1439.8524	5878	5004.85
885.4324	1441.6835	5852.9	4978.1
885.5759	1443.5139	5870.25	4993.55
885.7194	1445.3435	5893.4	5018.2
885.8629	1447.1724	5915.9	5045.4
886.0064	1449.0005	5906.35	5033.55
886.1499	1450.8279	5853.8	4979.45
886.2933	1452.6545	5832.55	4958.9
886.4368	1454.4804	5821.8	4950.4
886.5802	1456.3056	5782.2	4902.45
886.7237	1458.13	5711.5	4840.1
886.8671	1459.9536	5613.5	4740.45
887.0105	1461.7766	5442.7	4570.2
887.1539	1463.5987	5288.3	4412.55
887.2972	1465.4202	5122.8	4248.2
887.4406	1467.2409	4951.85	4077.4
887.584	1469.0608	4812	3938.5
887.7273	1470.88	4656	3782.7
887.8706	1472.6984	4542.65	3671.45
888.0139	1474.5161	4430.2	3554.55
888.1572	1476.3331	4338.75	3466.15
888.3005	1478.1493	4298.75	3423.9
888.4438	1479.9648	4260.55	3387.6
888.5871	1481.7795	4257.2	3384.95
888.7303	1483.5935	4259.65	3384.9
888.8736	1485.4067	4281.7	3408.55
889.0168	1487.2192	4284.65	3410.95
889.16	1489.031	4295.35	3419.4
889.3032	1490.842	4288.6	3415.5
889.4464	1492.6522	4275.85	3403.35
889.5896	1494.4618	4270	3394.3
889.7327	1496.2705	4259.4	3387.3
889.8759	1498.0785	4241.1	3366.55
890.019	1499.8858	4217.2	3343.85
890.1622	1501.6924	4199.3	3327.6
890.3053	1503.4981	4179.3	3306.65
890.4484	1505.3032	4155.8	3280.3
890.5914	1507.1075	4125	3250.25
890.7345	1508.911	4103.95	3228.5
890.8776	1510.7138	4062.6	3188.5
891.0206	1512.5159	4042.15	3167.2
891.1637	1514.3172	4008.75	3137.1
891.3067	1516.1178	3980.55	3106.85
891.4497	1517.9176	3952.75	3076.15
891.5927	1519.7166	3928.3	3054.3
891.7357	1521.515	3905.1	3025.15
891.8786	1523.3126	3877.8	3004
892.0216	1525.1094	3862.1	2984.9
892.1645	1526.9055	3836.65	2964.45
892.3074	1528.7008	3814.8	2940.85
892.4503	1530.4954	3803	2923.5
892.5932	1532.2893	3803.35	2930.85
892.7361	1534.0824	3780	2900.65
892.879	1535.8747	3776.8	2903.75
893.0218	1537.6663	3765.25	2890.05
893.1647	1539.4572	3764.2	2888.7
893.3075	1541.2473	3765.6	2891.75
893.4503	1543.0367	3757.65	2884.5
893.5931	1544.8253	3776.7	2897.9
893.7359	1546.6132	3774.85	2900.05
893.8787	1548.4003	3802.95	2917.35
894.0214	1550.1867	3829.2	2947.9
894.1642	1551.9723	3875.1	2995.85
894.3069	1553.7572	3905.65	3030.5
894.4496	1555.5414	3974.55	3100.5
894.5923	1557.3247	4090.4	3213.7
894.735	1559.1074	4235.55	3362.8
894.8777	1560.8893	4418.5	3545
895.0204	1562.6705	4591.35	3716.75
895.163	1564.4509	4741.85	3866.9
895.3056	1566.2305	4810.35	3938.05
895.4482	1568.0094	4834.9	3961.1
895.5908	1569.7876	4841.75	3966.75
895.7334	1571.565	4812.25	3936.95
895.876	1573.3417	4835.2	3962.2
896.0186	1575.1176	4844.35	3970.25
896.1611	1576.8928	4912.65	4037.1
896.3036	1578.6672	5011.05	4134.5
896.4461	1580.4409	5156.9	4283.7
896.5886	1582.2138	5305.75	4429.7
896.7311	1583.986	5496.55	4622.25
896.8736	1585.7575	5682.9	4809.55
897.0161	1587.5282	5887.45	5014.1
897.1585	1589.2981	6023.8	5149.3
897.3009	1591.0673	6129.3	5254.8
897.4433	1592.8358	6153.65	5277.25
897.5857	1594.6035	6138.15	5260.25
897.7281	1596.3704	6074.6	5200.05
897.8705	1598.1366	5989.2	5113.35
898.0128	1599.9021	5860.3	4985
898.1551	1601.6668	5712.5	4836.45
898.2975	1603.4308	5620.55	4744
898.4398	1605.194	5567.45	4690.6
898.5821	1606.9564	5631.85	4758.2
898.7243	1608.7182	5840.5	4964.85
898.8666	1610.4791	6208.15	5334
899.0088	1612.2394	6680.85	5806.7
899.1511	1613.9988	7208.15	6332.75
899.2933	1615.7576	7707.3	6832.8
899.4355	1617.5156	7989.1	7109.3
899.5776	1619.2728	7969.6	7095.2
899.7198	1621.0293	7648.4	6773.3
899.862	1622.785	7146.6	6270.1
900.0041	1624.54	6548.25	5670.55
900.1462	1626.2942	5972.95	5097.4
900.2883	1628.0477	5428.7	4550.65
900.4304	1629.8005	5019.95	4141.55
900.5725	1631.5525	4666.65	3792.35
900.7145	1633.3037	4413.8	3538.35
900.8566	1635.0542	4186.5	3312.55
900.9986	1636.804	4006.75	3130.35
901.1406	1638.553	3939.9	3003.7
901.2826	1640.3013	3797.9	2924.2
901.4245	1642.0488	3684.7	2809.45
901.5665	1643.7955	3629.15	2755.3
901.7085	1645.5416	3572.75	2697.9
901.8504	1647.2868	3508.95	2633.7
901.9923	1649.0313	3480.05	2605.1
902.1342	1650.7751	3451.15	2571.95
902.2761	1652.5181	3435.65	2561.3
902.4179	1654.2604	3425.05	2549.3
902.5598	1656.0019	3428.85	2553.75
902.7016	1657.7427	3479.4	2604.95
902.8434	1659.4828	3548.8	2674.5
902.9852	1661.222	3661.4	2785.9
903.127	1662.9606	3826.65	2952.8
903.2687	1664.6984	4015.55	3139.85
903.4105	1666.4354	4127.65	3253.8
903.5522	1668.1717	4123.75	3247.35
903.6939	1669.9072	3965.6	3090.75
903.8356	1671.642	3767.1	2889.9
903.9773	1673.3761	3555.1	2680.15
904.119	1675.1094	3377.6	2502.25
904.2606	1676.8419	3265.4	2391.45
904.4022	1678.5737	3169.7	2294.4
904.5439	1680.3048	3112.45	2237.2
904.6855	1682.0351	3059	2184.05
904.827	1683.7646	3024.5	2146.1
904.9686	1685.4934	3005.05	2129.85
905.1101	1687.2215	2978.95	2101.9
905.2517	1688.9488	2949.65	2075.9
905.3932	1690.6754	2936.6	2060.55
905.5347	1692.4012	2918.8	2042.3
905.6761	1694.1263	2907.1	2032.65
905.8176	1695.8506	2889	2014.65
905.9591	1697.5742	2881.35	2006
906.1005	1699.297	2874.25	1999.4
906.2419	1701.0191	2852.1	1976.3
906.3833	1702.7404	2832.6	1958.25
906.5246	1704.461	2822.85	1946.65
906.666	1706.1808	2825	1948.4
906.8073	1707.8999	2797.35	1921.9
906.9487	1709.6182	2797.2	1922.7
907.09	1711.3358	2784.6	1909.45
907.2313	1713.0527	2765.2	1889.9
907.3725	1714.7688	2759.45	1877.45
907.5138	1716.4841	2764.95	1887.4
907.655	1718.1987	2760.8	1878.8
907.7962	1719.9126	2746.45	1873
907.9374	1721.6257	2731.95	1853.55
908.0786	1723.338	2721.3	1844.6
908.2198	1725.0496	2717.6	1838.75
908.3609	1726.7605	2710	1834.6
908.502	1728.4706	2696.45	1820.8
908.6431	1730.18	2686.45	1808.85
908.7842	1731.8886	2682.15	1805.55
908.9253	1733.5964	2692.85	1799.85
909.0664	1735.3036	2664.2	1787.05
909.2074	1737.0099	2663.95	1789.6
909.3484	1738.7156	2661.2	1784.35
909.4894	1740.4204	2656.25	1779.05
909.6304	1742.1246	2668	1790.85
909.7714	1743.8279	2646.95	1772.75
909.9123	1745.5306	2631.05	1754.05
910.0532	1747.2325	2633.35	1757.65
910.1941	1748.9336	2616.45	1742.15
910.335	1750.634	2613.65	1737.15
910.4759	1752.3336	2616.65	1742.75
910.6168	1754.0325	2608.8	1734.15
910.7576	1755.7307	2607.85	1731
910.8984	1757.4281	2595.35	1719.65
911.0392	1759.1247	2600.75	1715.75
911.18	1760.8206	2601.65	1721.7
911.3208	1762.5158	2592.35	1714.15
911.4615	1764.2102	2580.85	1705.15
911.6022	1765.9039	2573.8	1699.2
911.7429	1767.5968	2570.5	1694.8
911.8836	1769.289	2575.7	1700.85
912.0243	1770.9804	2562	1685.5
912.1649	1772.6711	2558.7	1684.35
912.3056	1774.361	2542.85	1667.7
912.4462	1776.0502	2544.05	1667.85
912.5868	1777.7386	2541.8	1661.9
912.7274	1779.4263	2530.7	1653.55
912.8679	1781.1132	2544.75	1669.8
913.0084	1782.7994	2528.9	1652.55
913.149	1784.4849	2531.8	1658.55
913.2895	1786.1696	2538.95	1644.4
913.4299	1787.8535	2523.85	1649
913.5704	1789.5367	2510.85	1632.55
913.7108	1791.2192	2504.2	1626.45
913.8513	1792.9009	2503.15	1609.4
913.9917	1794.5818	2502.25	1626.2
914.132	1796.2621	2490.3	1616.9
914.2724	1797.9415	2487.7	1611.55
914.4128	1799.6202	2477.9	1603.1
914.5531	1801.2982	2472.75	1596.3
914.6934	1802.9755	2460.2	1582.5
914.8337	1804.6519	2480.4	1603.95
914.9739	1806.3277	2452.5	1577.3
915.1142	1808.0027	2447.65	1572.15
915.2544	1809.6769	2452.5	1578.1
915.3946	1811.3504	2450.3	1572.5
915.5348	1813.0231	2443.55	1567.1
915.675	1814.6951	2441.75	1566.55
915.8151	1816.3664	2434.65	1556.5
915.9553	1818.0369	2427.4	1553.05
916.0954	1819.7067	2418.95	1543.05
916.2355	1821.3757	2419.9	1544.4
916.3755	1823.044	2419.85	1544
916.5156	1824.7115	2406.2	1533
916.6556	1826.3783	2397.3	1521.9
916.7956	1828.0443	2399	1524.7
916.9356	1829.7096	2388.35	1509.8
917.0756	1831.3741	2399.8	1520.5
917.2155	1833.0379	2388.3	1511.95
917.3555	1834.701	2380.2	1502.25
917.4954	1836.3633	2380.5	1504.55
917.6353	1838.0248	2390.7	1513.4
917.7751	1839.6856	2371.7	1497.3
917.915	1841.3457	2371.05	1496.55
918.0548	1843.005	2360.95	1485.35
918.1946	1844.6636	2362.4	1488
918.3344	1846.3214	2354.05	1479
918.4742	1847.9785	2372.2	1496.9
918.6139	1849.6349	2364.5	1486.95
918.7537	1851.2904	2352.55	1467.35
918.8934	1852.9453	2340.7	1465.1
919.0331	1854.5994	2340.7	1462.3
919.1727	1856.2528	2348.9	1468.75
919.3124	1857.9054	2342.45	1465.95
919.452	1859.5572	2335.8	1460.3
919.5916	1861.2083	2341.45	1464.6
919.7312	1862.8587	2334.2	1458.05
919.8708	1864.5084	2328.3	1451.7
920.0103	1866.1572	2325.5	1450.9
920.1498	1867.8054	2309.65	1433.4
920.2893	1869.4528	2321.15	1446.7
920.4288	1871.0994	2296.05	1418.45
920.5683	1872.7453	2303.55	1426.65
920.7077	1874.3905	2310.1	1427.1
920.8471	1876.0349	2295.75	1419.4
920.9865	1877.6786	2310.75	1434.05
921.1259	1879.3215	2298	1422.05
921.2653	1880.9637	2286.85	1409.65
921.4046	1882.6051	2287.4	1410.35
921.5439	1884.2458	2287.15	1406.95
921.6832	1885.8858	2273.05	1395.95
921.8225	1887.525	2276	1400.85
921.9617	1889.1634	2264.9	1390.1
922.101	1890.8011	2263.25	1385.85
922.2402	1892.4381	2258.35	1382.05
922.3794	1894.0743	2251.95	1375.8
922.5185	1895.7098	2246.25	1371.3
922.6577	1897.3446	2238.15	1360.7
922.7968	1898.9786	2248.3	1370.4
922.9359	1900.6118	2237.75	1361.85
923.075	1902.2443	2230	1349.9
923.214	1903.8761	2225	1348.65
923.3531	1905.5071	2223.2	1347.45
923.4921	1907.1374	2220.1	1340.9
923.6311	1908.7669	2213.45	1338.65
923.77	1910.3957	2211.15	1333.85
923.909	1912.0237	2200.55	1324.7
924.0479	1913.651	2202.75	1324.7
924.1868	1915.2776	2186.75	1313.45
924.3257	1916.9034	2185.1	1310.95
924.4646	1918.5285	2182.85	1308.15
924.6034	1920.1528	2172.7	1297.1
924.7422	1921.7764	2175.8	1298.55
924.881	1923.3992	2166.85	1292.3
925.0198	1925.0213	2162.4	1286.25
925.1586	1926.6427	2148.35	1274.85
925.2973	1928.2633	2230.3	1270.55
925.436	1929.8832	2156.05	1280.1
925.5747	1931.5023	2145.2	1269.1
925.7134	1933.1207	2142.05	1265.65
925.852	1934.7383	2138.9	1263.1
925.9906	1936.3552	2132.9	1256.1
926.1292	1937.9714	2129.05	1253.25
926.2678	1939.5868	2120.95	1243.3
926.4064	1941.2015	2124.45	1248.2
926.5449	1942.8154	2112.6	1236.15
926.6834	1944.4286	2112.75	1235.95
926.8219	1946.041	2131.25	1219.8
926.9604	1947.6528	2099.4	1218.25
927.0988	1949.2637	2096.8	1222.2
927.2372	1950.8739	2091.3	1214.5
927.3756	1952.4834	2092.05	1214.7
927.514	1954.0921	2086.7	1208.2
927.6523	1955.7001	2085.35	1206.3
927.7907	1957.3074	2085.05	1210.75
927.929	1958.9139	2062.9	1187.6
928.0673	1960.5197	2074.85	1196.5
928.2055	1962.1247	2055.35	1179.45
928.3438	1963.729	2045.7	1170.5
928.482	1965.3325	2068.75	1170.25
928.6202	1966.9353	2043.5	1168.7
928.7584	1968.5374	2035.7	1157.6
928.8965	1970.1387	2032.7	1155.85
929.0346	1971.7393	2034.9	1157.85
929.1727	1973.3392	2040.85	1164.7
929.3108	1974.9383	2026.05	1150.45
929.4489	1976.5366	2017.85	1140.65
929.5869	1978.1342	2018.1	1141.05
929.7249	1979.7311	2005.6	1128.7
929.8629	1981.3273	2002.25	1123.5
930.0009	1982.9227	2002.95	1124.1
930.1388	1984.5173	1995.9	1121.15
930.2767	1986.1112	1996.9	1120.55
930.4146	1987.7044	1992.5	1118.15
930.5525	1989.2968	1989.5	1111.4
930.6904	1990.8885	1985.8	1106.1
930.8282	1992.4795	1979.25	1101.7
930.966	1994.0697	1979.8	1103.05
931.1038	1995.6592	1975.4	1097.5
931.2415	1997.2479	1966.7	1091.1
931.3793	1998.8359	1967.8	1092.45
931.517	2000.4232	1966.3	1091.5
931.6547	2002.0097	1961.35	1087.6
931.7923	2003.5955	1953.6	1076.65
931.93	2005.1805	1950.8	1072.65
932.0676	2006.7648	1947.85	1071.05
932.2052	2008.3484	1956	1078.3
932.3427	2009.9312	1950.45	1071.95
932.4803	2011.5133	1952.7	1078
932.6178	2013.0946	1940.5	1063.85
932.7553	2014.6752	1930.35	1055.15
932.8928	2016.2551	1935.15	1059.1
933.0302	2017.8342	1927.85	1051.45
933.1676	2019.4126	1926.6	1051.6
933.305	2020.9902	1916.45	1042.05
933.4424	2022.5672	1926.45	1049.95
933.5798	2024.1433	1924.45	1040.5
933.7171	2025.7188	1915.7	1040.45
933.8544	2027.2935	1903.75	1025.8
933.9917	2028.8674	1907.55	1031.5
934.129	2030.4406	1901.8	1027.15
934.2662	2032.0131	1892.45	1015.25
934.4034	2033.5849	1898.9	1012.65
934.5406	2035.1559	1889.1	1013.55
934.6778	2036.7261	1888.25	1012.45
934.8149	2038.2957	1888.05	1012.35
934.952	2039.8645	1887.5	1011.65
935.0891	2041.4325	1886.7	1008.15
935.2262	2042.9998	1890.25	1014.15
935.3632	2044.5664	1871.9	994.65
935.5002	2046.1323	1876.3	1001.75
935.6372	2047.6974	1862.05	986.75
935.7742	2049.2617	1867.85	992.4
935.9111	2050.8254	1892.05	981.7
936.048	2052.3883	1873.05	995.8
936.1849	2053.9504	1863.5	985.35
936.3218	2055.5118	1849.25	971.95
936.4586	2057.0725	1860.1	978.3
936.5955	2058.6325	1861.65	985.25
936.7323	2060.1917	1849.45	972.7
936.869	2061.7502	1850.35	970.8
937.0058	2063.3079	1845.95	970.85
937.1425	2064.8649	1835.35	956.1
937.2792	2066.4212	1848.5	971.15
937.4159	2067.9767	1847.15	971.25
937.5525	2069.5315	1836.3	961.2
937.6891	2071.0856	1829.45	953.1
937.8257	2072.6389	1827.55	949.85
937.9623	2074.1915	1818.8	944.95
938.0989	2075.7433	1827.85	950.1
938.2354	2077.2945	1814.85	941.55
938.3719	2078.8448	1811	934.75
938.5084	2080.3945	1810.4	934.3
938.6448	2081.9434	1816.4	939.4
938.7812	2083.4916	1809.65	932.7
938.9176	2085.039	1801.25	923.85
939.054	2086.5857	1798.95	922.45
939.1903	2088.1317	1790.45	913.55
939.3267	2089.677	1793.7	916.5
939.463	2091.2215	1798.85	924.5
939.5992	2092.7652	1790.45	911.8
939.7355	2094.3083	1785.1	908.15
939.8717	2095.8506	1789.7	913.3
940.0079	2097.3921	1780.1	907
940.1441	2098.933	1773.75	896.8
940.2802	2100.4731	1782.9	908.6
940.4163	2102.0124	1781.05	898.3
940.5524	2103.5511	1779.2	902.45
940.6885	2105.089	1779.3	903.8
940.8245	2106.6261	1767	889.5
940.9606	2108.1626	1767.15	888.75
941.0965	2109.6983	1798.55	894.3
941.2325	2111.2332	1771.8	895.65
941.3684	2112.7675	1765.15	887.85
941.5044	2114.301	1764.05	885.15
941.6403	2115.8337	1755.45	879
941.7761	2117.3657	1747.75	871
941.912	2118.897	1749.95	874.15
942.0478	2120.4276	1759	878.25
942.1835	2121.9575	1752.35	877.05
942.3193	2123.4866	1763.3	874.05
942.455	2125.0149	1743.7	865.6
942.5907	2126.5426	1740.9	864.25
942.7264	2128.0695	1736.5	855.65
942.8621	2129.5956	1738.25	863.25
942.9977	2131.1211	1735.6	854.5
943.1333	2132.6458	1734.2	858.65
943.2689	2134.1698	1731.6	857.45
943.4044	2135.693	1725.65	845.25
943.54	2137.2155	1724.1	845.75
943.6755	2138.7373	1725.95	847.6
943.8109	2140.2584	1714.05	837.45
943.9464	2141.7787	1727.5	844.4
944.0818	2143.2983	1709.95	835.9
944.2172	2144.8171	1704.55	828.75
944.3526	2146.3353	1707.9	830.4
944.4879	2147.8527	1699.45	824.75
944.6232	2149.3693	1704.7	829.95
944.7585	2150.8853	1695.45	819.5
944.8938	2152.4005	1690.85	813.3
945.029	2153.9149	1701.8	824.7
945.1642	2155.4287	1686.1	810.05
945.2994	2156.9417	1689.9	812.9
945.4346	2158.454	1694.75	815.25
945.5697	2159.9655	1690.3	815.25
945.7048	2161.4764	1689	813.6
945.8399	2162.9865	1672.35	796.55
945.9749	2164.4958	1683.35	807.05
946.1099	2166.0045	1674.2	794.8
946.2449	2167.5124	1671.55	794.5
946.3799	2169.0195	1667.6	791.95
946.5148	2170.526	1674.35	799.4
946.6498	2172.0317	1669.35	792.9
946.7846	2173.5367	1664.5	786.7
946.9195	2175.0409	1664.4	787.1
947.0543	2176.5445	1665.7	789.75
947.1891	2178.0473	1666.95	791.65
947.3239	2179.5494	1657.2	777.55
947.4587	2181.0507	1652	775.2
947.5934	2182.5513	1650.85	774.9
947.7281	2184.0512	1658.3	783
947.8628	2185.5504	1655.8	779.75
947.9974	2187.0488	1645.95	769.7
948.132	2188.5465	1647.45	771.3
948.2666	2190.0435	1642.2	765.7
948.4012	2191.5397	1640.1	763.9
948.5357	2193.0353	1633.25	758.25
948.6702	2194.5301	1638.75	762.5
948.8047	2196.0241	1640.9	763.95
948.9392	2197.5175	1629.3	753.95
949.0736	2199.0101	1637.7	758
949.208	2200.502	1620.7	743.75
949.3424	2201.9931	1630.2	755.9
949.4767	2203.4835	1623.25	744
949.611	2204.9733	1628.35	734.1
949.7453	2206.4622	1619.3	744.5
949.8796	2207.9505	1620	739.65
950.0138	2209.438	1603.75	728.8
950.148	2210.9248	1602.2	724.45
950.2822	2212.4109	1602.4	727.35
950.4164	2213.8962	1607.35	729.15
950.5505	2215.3809	1599.85	722.65
950.6846	2216.8648	1599.9	725.3
950.8186	2218.3479	1601	720.9
950.9527	2219.8304	1596.65	718.55
951.0867	2221.3121	1593.65	715.05
951.2207	2222.7931	1591.85	717.7
951.3546	2224.2733	1579.05	701.75
951.4886	2225.7529	1580.3	702.6
951.6225	2227.2317	1575.95	696.45
951.7563	2228.7098	1578.65	702.65
951.8902	2230.1872	1575.6	700
952.024	2231.6638	1574.7	697.7
952.1578	2233.1397	1573.1	689.05
952.2916	2234.6149	1573.8	697.6
952.4253	2236.0894	1569.8	693.05
952.559	2237.5632	1568.5	684.7
952.6927	2239.0362	1566.1	689.45
952.8263	2240.5085	1563	687
952.9599	2241.9801	1549.45	673.05
953.0935	2243.4509	1551.2	675.25
953.2271	2244.921	1559.5	682.65
953.3606	2246.3904	1546.8	668.5
953.4941	2247.8591	1538.3	663.65
953.6276	2249.3271	1539.75	663.7
953.7611	2250.7943	1538.8	661.8
953.8945	2252.2608	1535.75	660
954.0279	2253.7266	1534.85	658.15
954.1612	2255.1917	1530.75	655.1
954.2946	2256.656	1538.35	660.05
954.4279	2258.1197	1524.75	650
954.5612	2259.5826	1536.65	657.3
954.6944	2261.0447	1520.9	643.95
954.8276	2262.5062	1534.45	655.65
954.9608	2263.9669	1529.65	652.1
955.094	2265.4269	1519.1	644.8
955.2271	2266.8862	1518.55	642.15
955.3602	2268.3448	1514.45	637.55
955.4933	2269.8026	1510.2	632.2
955.6264	2271.2598	1515.4	641.4
955.7594	2272.7162	1504.9	631.5
955.8924	2274.1719	1510.15	633.4
956.0253	2275.6268	1504.95	629.25
956.1583	2277.0811	1512.55	635.25
956.2912	2278.5346	1507.6	631.75
956.4241	2279.9874	1499.25	622.85
956.5569	2281.4395	1506.5	632.6
956.6897	2282.8908	1503.25	622.9
956.8225	2284.3414	1511.1	635
956.9553	2285.7914	1491.55	616.65
957.088	2287.2406	1500.55	622.75
957.2207	2288.689	1492.9	615.9
957.3534	2290.1368	1496.45	619.5
957.486	2291.5838	1500.25	620.8
957.6186	2293.0302	1495.15	617.6
957.7512	2294.4758	1489.7	613.95
957.8838	2295.9206	1488.4	612
958.0163	2297.3648	1484.75	608.3
958.1488	2298.8082	1484.75	607.95
958.2813	2300.251	1481.55	605.1
958.4137	2301.693	1484.95	605.65
958.5461	2303.1343	1481.25	605.3
958.6785	2304.5748	1477.4	601.15
958.8108	2306.0147	1476.25	598.55
958.9432	2307.4538	1478.45	598.65
959.0754	2308.8922	1471.65	598.15
959.2077	2310.3299	1476.7	599.9
959.3399	2311.7669	1468.25	593.4
959.4721	2313.2031	1474.7	597.6
959.6043	2314.6387	1469.5	593.65
959.7365	2316.0735	1462.2	585.5
959.8686	2317.5076	1463	587
960.0006	2318.941	1456.2	580.1
960.1327	2320.3737	1455.45	577.9
960.2647	2321.8056	1461.45	584.55
960.3967	2323.2369	1458.1	581.35
960.5287	2324.6674	1458.05	580.85
960.6606	2326.0972	1452.1	574.6
960.7925	2327.5263	1457	578.95
960.9244	2328.9547	1459.1	582.6
961.0562	2330.3823	1448.8	574.85
961.1881	2331.8092	1449.25	570.3
961.3198	2333.2355	1439.65	563
961.4516	2334.661	1440.2	562.45
961.5833	2336.0858	1436	557.8
961.715	2337.5098	1436.25	559
961.8467	2338.9332	1434.55	558.2
961.9783	2340.3558	1436.05	556.3
962.1099	2341.7778	1428.7	552.7
962.2415	2343.199	1437.25	559.3
962.373	2344.6195	1435.7	558.15
962.5045	2346.0393	1430.65	553.8
962.636	2347.4583	1428.85	550.45
962.7675	2348.8767	1425.65	548.45
962.8989	2350.2943	1423.7	547
963.0303	2351.7113	1429.25	551.3
963.1617	2353.1275	1428	550.35
963.293	2354.543	1432.9	548.15
963.4243	2355.9578	1424.2	547.6
963.5556	2357.3718	1415.25	539.45
963.6868	2358.7852	1422.35	542.2
963.818	2360.1978	1419.9	542.25
963.9492	2361.6098	1416.1	539.55
964.0803	2363.021	1427.6	546.45
964.2114	2364.4315	1410.9	534.25
964.3425	2365.8413	1408.5	530.9
964.4736	2367.2504	1411.6	536.35
964.6046	2368.6587	1400.95	523.7
964.7356	2370.0664	1407.75	532.35
964.8666	2371.4733	1407.9	530.5
964.9975	2372.8795	1397.6	522.8
965.1284	2374.285	1404.85	528.55
965.2593	2375.6899	1397.15	521.5
965.3901	2377.0939	1398.25	522.25
965.5209	2378.4973	1397.8	522.8
965.6517	2379.9	1401.15	523.5
965.7825	2381.3019	1394.05	517.55
965.9132	2382.7032	1388.45	514.05
966.0439	2384.1037	1391.7	517.65
966.1745	2385.5035	1390.9	513.95
966.3051	2386.9027	1385.4	508.65
966.4357	2388.3011	1394.4	514.85
966.5663	2389.6987	1388.55	511.4
966.6968	2391.0957	1382.3	506.3
966.8273	2392.492	1388.8	512.5
966.9578	2393.8876	1373.25	495.35
967.0882	2395.2824	1375.85	498.75
967.2186	2396.6765	1377.9	503.5
967.349	2398.07	1367.2	492.95
967.4793	2399.4627	1372.55	496.7
967.6097	2400.8547	1369.55	491.8
967.7399	2402.246	1376	491.55
967.8702	2403.6366	1366.95	490.1
968.0004	2405.0265	1367.35	491.9
968.1306	2406.4156	1366.2	485.35
968.2607	2407.8041	1359.65	477.9
968.3909	2409.1918	1365	485.45
968.521	2410.5789	1352.05	475.2
968.651	2411.9652	1358.1	476.6
968.781	2413.3508	1348.95	471.2
968.911	2414.7358	1355.95	479.4
969.041	2416.12	1354.4	478.65
969.1709	2417.5035	1348.7	473.05
969.3008	2418.8863	1347.5	471.1
969.4307	2420.2684	1351.35	474.55
969.5606	2421.6497	1344.95	467
969.6904	2423.0304	1344.5	468.95
969.8201	2424.4104	1347.8	471.15
969.9499	2425.7896	1344.5	467.6
970.0796	2427.1682	1338.85	461.5
970.2093	2428.546	1336.1	457.95
970.3389	2429.9232	1340.4	462.65
970.4685	2431.2996	1334.75	458.05
970.5981	2432.6753	1335.55	459.55
970.7277	2434.0503	1328.65	451.95
970.8572	2435.4246	1330.05	455.1
970.9867	2436.7982	1330.35	451.65
971.1161	2438.1711	1327.4	450.5
971.2456	2439.5433	1333.2	455.25
971.375	2440.9148	1322.55	443.65
971.5043	2442.2856	1327.3	450.3
971.6336	2443.6557	1321.9	443.7
971.7629	2445.025	1316	440.25
971.8922	2446.3937	1318.45	443.05
972.0214	2447.7617	1321.45	444.25
972.1506	2449.1289	1321.5	445.5
972.2798	2450.4955	1321.2	442.55
972.4089	2451.8613	1313.5	437
972.538	2453.2265	1312.25	437.25
972.6671	2454.5909	1320.9	443.05
972.7961	2455.9546	1313.6	436.9
972.9251	2457.3177	1308.35	431.95
973.0541	2458.68	1318.95	441.6
973.1831	2460.0416	1314.55	436.5
973.312	2461.4025	1313.65	437
973.4408	2462.7627	1319.5	430.95
973.5697	2464.1222	1306	431.05
973.6985	2465.4811	1310.05	431.05
973.8273	2466.8392	1299.3	423.45
973.956	2468.1966	1304.05	424.2
974.0847	2469.5533	1308	426.85
974.2134	2470.9093	1295.75	418.2
974.3421	2472.2645	1309	430.9
974.4707	2473.6191	1297	421.15
974.5993	2474.973	1299.6	423.45
974.7278	2476.3262	1300	423.75
974.8563	2477.6787	1297.9	420.95
974.9848	2479.0305	1295.3	419.65
975.1132	2480.3816	1302.15	425.35
975.2417	2481.7319	1298.15	420.4
975.37	2483.0816	1294.75	415.8
975.4984	2484.4306	1297.7	418.55
975.6267	2485.7789	1287.9	411.45
975.755	2487.1264	1289.85	412.75
975.8833	2488.4733	1290.85	415.85
976.0115	2489.8195	1290.6	406.5
976.1397	2491.165	1292.5	412.7
976.2678	2492.5097	1286.95	408.35
976.3959	2493.8538	1279.25	401
976.524	2495.1972	1289.05	410.65
976.6521	2496.5398	1282.1	402.55
976.7801	2497.8818	1284	406.45
976.9081	2499.2231	1279.1	400
977.036	2500.5637	1286.45	408.3
977.164	2501.9035	1282.35	406.35
977.2918	2503.2427	1283.7	402.2
977.4197	2504.5812	1275.2	400.8
977.5475	2505.919	1278.4	399.4
977.6753	2507.256	1274.25	397.35
977.8031	2508.5924	1273.95	397.75
977.9308	2509.9281	1277.9	394.7
978.0585	2511.2631	1276.75	400.85
978.1861	2512.5974	1272.8	395.7
978.3137	2513.9309	1268.15	391.75
978.4413	2515.2638	1294	391.8
978.5689	2516.596	1263.55	386.65
978.6964	2517.9275	1258.05	380.15
978.8239	2519.2583	1261.75	384.3
978.9513	2520.5884	1259.25	381.1
979.0788	2521.9178	1256.9	381.55
979.2062	2523.2465	1266	389.45
979.3335	2524.5745	1259.95	384.85
979.4608	2525.9018	1257	379.05
979.5881	2527.2284	1256.35	379.3
979.7154	2528.5543	1248.45	374.25
979.8426	2529.8796	1252.55	377.85
979.9698	2531.2041	1259.3	381.1
980.0969	2532.5279	1250.65	376.55
980.224	2533.851	1249.45	371
980.3511	2535.1735	1251.25	375.1
980.4781	2536.4952	1247.95	373.15
980.6052	2537.8163	1255.25	377.05
980.7321	2539.1366	1247.75	371.6
980.8591	2540.4562	1246.05	367.25
980.986	2541.7752	1247.5	370.4
981.1129	2543.0935	1246.7	370.2
981.2397	2544.411	1241.55	364.05
981.3665	2545.7279	1244.7	369.2
981.4933	2547.0441	1238.3	363.4
981.62	2548.3596	1242.7	364.35
981.7467	2549.6744	1244.25	368.2
981.8734	2550.9885	1246.25	361.75
982.0001	2552.3019	1240.55	367.4
982.1267	2553.6146	1237.05	358.3
982.2532	2554.9266	1236.2	359.15
982.3798	2556.2379	1238.45	359.45
982.5063	2557.5485	1236.55	359.65
982.6327	2558.8585	1240.85	356.9
982.7592	2560.1677	1233	353.1
982.8856	2561.4762	1232.05	355.4
983.0119	2562.7841	1230.95	351.9
983.1383	2564.0913	1230.55	355.9
983.2646	2565.3977	1226.15	350.85
983.3908	2566.7035	1230.4	355.1
983.517	2568.0086	1227.4	348.8
983.6432	2569.313	1225.5	349.5
983.7694	2570.6167	1232.35	353.55
983.8955	2571.9197	1225.45	351.25
984.0216	2573.222	1231.6	351.75
984.1476	2574.5236	1230.4	352.8
984.2737	2575.8246	1226.1	347.45
984.3996	2577.1248	1227.5	346.65
984.5256	2578.4244	1225.75	350.5
984.6515	2579.7232	1229	350.75
984.7774	2581.0214	1248.55	341.1
984.9032	2582.3189	1226.75	351
985.029	2583.6157	1231.85	351.2
985.1548	2584.9118	1224.2	347.4
985.2806	2586.2072	1224.55	348.9
985.4063	2587.5019	1223.65	348.1
985.5319	2588.7959	1228.2	351.25
985.6576	2590.0893	1227.65	351.8
985.7832	2591.3819	1225.8	349.2
985.9087	2592.6739	1224.95	348.9
986.0343	2593.9652	1225.6	347.1
986.1597	2595.2557	1221.1	343.85
986.2852	2596.5456	1227.8	347.85
986.4106	2597.8348	1218.75	342.65
986.536	2599.1234	1222.95	348.55
986.6614	2600.4112	1227.1	350.2
986.7867	2601.6983	1230.6	349.25
986.912	2602.9848	1226.9	350.95
987.0372	2604.2705	1226.9	343.25
987.1624	2605.5556	1221.35	345
987.2876	2606.84	1228.05	350.15
987.4128	2608.1237	1223.5	346.35
987.5379	2609.4067	1220.95	346.25
987.6629	2610.689	1225.1	339.6
987.788	2611.9707	1223.35	343.75
987.913	2613.2516	1219.5	339.4
988.0379	2614.5319	1212.4	335.8
988.1629	2615.8115	1208.8	331.1
988.2878	2617.0903	1209.7	334.2
988.4126	2618.3685	1210.2	333.4
988.5375	2619.6461	1206.85	328.6
988.6622	2620.9229	1204.95	329.35
988.787	2622.199	1213.25	335.65
988.9117	2623.4745	1198.6	321.4
989.0364	2624.7493	1200	324.05
989.161	2626.0234	1202.35	326.65
989.2857	2627.2968	1197.5	320
989.4102	2628.5695	1199	320.2
989.5348	2629.8415	1193.5	317.35
989.6593	2631.1128	1198.95	322
989.7837	2632.3835	1195.1	317.8
989.9082	2633.6535	1196.1	320.2
990.0326	2634.9228	1192.2	316.9
990.1569	2636.1914	1196.4	320.1
990.2812	2637.4593	1191	313.45
990.4055	2638.7265	1194.6	316.9
990.5298	2639.9931	1190.7	313.95
990.654	2641.259	1196.85	318.4
990.7782	2642.5242	1195.2	315.75
990.9023	2643.7887	1194.45	317.3
991.0264	2645.0525	1184.8	308.75
991.1505	2646.3156	1185.15	306.1
991.2745	2647.5781	1189.3	316.15
991.3985	2648.8398	1183.95	308.1
991.5225	2650.1009	1218.65	306.4
991.6464	2651.3613	1180.05	304.95
991.7703	2652.6211	1174.7	297.05
991.8942	2653.8801	1179.25	304.1
992.018	2655.1385	1177.45	298.25
992.1418	2656.3961	1175.35	298.95
992.2655	2657.6531	1176.35	300
992.3892	2658.9094	1179.1	302.7
992.5129	2660.1651	1172.95	299.55
992.6366	2661.42	1178.15	302.2
992.7602	2662.6743	1177.7	299.3
992.8837	2663.9279	1173.55	296.45
993.0073	2665.1808	1176.15	297.9
993.1307	2666.433	1169.9	291.55
993.2542	2667.6846	1180	303.85
993.3776	2668.9354	1180.45	300.75
993.501	2670.1856	1185.9	309.05
993.6244	2671.4351	1180.4	302.9
993.7477	2672.6839	1182.45	305.75
993.8709	2673.9321	1181.85	305.35
993.9942	2675.1795	1186.1	308.75
994.1174	2676.4263	1185	308.8
994.2405	2677.6724	1184.55	309.2
994.3637	2678.9179	1182	306.05
994.4868	2680.1626	1184.6	309.15
994.6098	2681.4067	1179.1	301.8
994.7328	2682.6501	1184	309.95
994.8558	2683.8928	1179.85	303.15
994.9788	2685.1348	1171.75	297.25
995.1017	2686.3761	1172.15	295.55
995.2245	2687.6168	1172.4	294.15
995.3474	2688.8568	1163.05	287.5
995.4702	2690.0961	1162.1	284.75
995.5929	2691.3348	1166	289.75
995.7156	2692.5727	1163.95	287.25
995.8383	2693.81	1164.35	288.65
995.961	2695.0466	1156.95	282.8
996.0836	2696.2826	1157.65	280.6
996.2062	2697.5178	1172.85	276.05
996.3287	2698.7524	1158.75	283.3
996.4512	2699.9863	1164.1	283.3
996.5737	2701.2195	1163.25	289.35
996.6961	2702.452	1161.55	283.5
996.8185	2703.6839	1162.05	284.3
996.9408	2704.9151	1168	292.1
997.0631	2706.1456	1168.8	292
997.1854	2707.3755	1162.35	285.95
997.3077	2708.6046	1174.85	296.8
997.4299	2709.8331	1168.7	290.75
997.552	2711.0609	1172.1	294.95
997.6742	2712.2881	1168.75	290.95
997.7963	2713.5145	1177.1	300.85
997.9183	2714.7403	1177	300.65
998.0403	2715.9654	1179.35	300.3
998.1623	2717.1899	1196.95	305.2
998.2842	2718.4136	1192.3	315.15
998.4062	2719.6367	1192.45	316.75
998.528	2720.8591	1206.4	322.3
998.6498	2722.0809	1200.2	326.05
998.7716	2723.3019	1210.25	330.45
998.8934	2724.5223	1207.3	329.25
999.0151	2725.7421	1206.4	328.2
999.1368	2726.9611	1207.35	330
999.2584	2728.1795	1205.35	323.9
999.38	2729.3972	1187.25	311.4
999.5016	2730.6142	1190.45	305.25
999.6231	2731.8306	1176.25	297.95
999.7446	2733.0462	1171.75	292.05
999.8661	2734.2612	1173.15	290.8
999.9875	2735.4756	1169.1	293.8
1000.1089	2736.6892	1163.9	286.7
1000.2302	2737.9022	1156.4	280.85
1000.3515	2739.1145	1155.75	278.95
1000.4728	2740.3262	1157.6	271.4
1000.594	2741.5372	1147.35	271.85
1000.7152	2742.7475	1147.65	269.3
1000.8363	2743.9571	1142.65	263.7
1000.9575	2745.1661	1140.9	260.5
1001.0785	2746.3744	1137.3	260.95
1001.1996	2747.582	1131.1	254.95
1001.3206	2748.7889	1132.8	253.1
1001.4415	2749.9952	1121.25	245.65
1001.5625	2751.2008	1122.15	244.9
1001.6833	2752.4057	1131.2	250.3
1001.8042	2753.61	1118.4	239.1
1001.925	2754.8136	1122.35	244.45
1002.0458	2756.0165	1117.1	242.1
1002.1665	2757.2188	1117.8	241.95
1002.2872	2758.4204	1116.5	239.15
1002.4078	2759.6213	1120.25	242.95
1002.5285	2760.8215	1124.4	243.55
1002.649	2762.0211	1119.85	241.35
1002.7696	2763.22	1122.1	241.4
1002.8901	2764.4182	1119.55	242.45
1003.0106	2765.6158	1118.65	241.45
1003.131	2766.8127	1114.05	238.2
1003.2514	2768.009	1113.85	238.25
1003.3717	2769.2045	1113.15	237.55
1003.492	2770.3994	1110.6	232.45
1003.6123	2771.5936	1107.45	230.2
1003.7325	2772.7872	1101.35	227.3
1003.8527	2773.9801	1102.4	227.15
1003.9729	2775.1723	1121.55	228.45
1004.093	2776.3639	1100.9	224.25
1004.2131	2777.5548	1100.75	221.05
1004.3331	2778.745	1104.6	226.4
1004.4531	2779.9346	1103.95	227.4
1004.5731	2781.1235	1105.75	228.5
1004.693	2782.3117	1101.95	225.85
1004.8129	2783.4992	1100.75	223.15
1004.9328	2784.6861	1099.05	223
1005.0526	2785.8723	1101.8	222.55
1005.1723	2787.0579	1102.75	224.9
1005.2921	2788.2428	1102.2	225.35
1005.4118	2789.427	1102.25	227.8
1005.5314	2790.6106	1101.75	225
1005.651	2791.7935	1098.9	221.35
1005.7706	2792.9757	1097.5	221.2
1005.8902	2794.1573	1097.6	217.1
1006.0097	2795.3382	1104.1	228.35
1006.1291	2796.5184	1104.2	229.5
1006.2485	2797.698	1103.05	224.75
1006.3679	2798.8769	1104.25	226.15
1006.4873	2800.0551	1109.85	233.35
1006.6066	2801.2327	1108.8	231.6
1006.7258	2802.4096	1109.05	233.85
1006.8451	2803.5859	1113.65	235.55
1006.9642	2804.7615	1109	232
1007.0834	2805.9364	1117.95	242.85
1007.2025	2807.1106	1117.15	242.05
1007.3216	2808.2842	1122.6	243.9
1007.4406	2809.4572	1127.2	250.5
1007.5596	2810.6294	1131.15	253.4
1007.6785	2811.801	1135.3	260.5
1007.7975	2812.972	1141.6	265.1
1007.9163	2814.1423	1156	278.85
1008.0352	2815.3119	1161.15	282.75
1008.154	2816.4808	1169.4	295.6
1008.2727	2817.6491	1189.65	313.9
1008.3914	2818.8167	1199.05	323.6
1008.5101	2819.9837	1231.45	352.95
1008.6288	2821.15	1249.8	374.6
1008.7474	2822.3157	1278.8	404.3
1008.8659	2823.4807	1309.7	432.1
1008.9844	2824.645	1334.95	457.8
1009.1029	2825.8086	1380.8	504.9
1009.2214	2826.9716	1421.05	544.45
1009.3398	2828.134	1456.55	580.75
1009.4581	2829.2957	1490.05	613.2
1009.5764	2830.4567	1508.05	631.3
1009.6947	2831.617	1528.75	651.4
1009.813	2832.7767	1549.55	673
1009.9312	2833.9358	1542.6	665.75
1010.0493	2835.0941	1535.9	657.15
1010.1675	2836.2519	1524.1	649.55
1010.2855	2837.4089	1502.8	624.9
1010.4036	2838.5653	1489.3	613.3
1010.5216	2839.7211	1470.8	596.4
1010.6396	2840.8761	1467.75	590.9
1010.7575	2842.0306	1458.25	584.95
1010.8754	2843.1843	1464	588.8
1010.9932	2844.3374	1463.45	585.7
1011.111	2845.4899	1479.35	601.35
1011.2288	2846.6417	1491.7	616.75
1011.3465	2847.7928	1498.45	619.95
1011.4642	2848.9433	1495.9	620.1
1011.5818	2850.0931	1497.8	620.1
1011.6995	2851.2422	1513.75	637.55
1011.817	2852.3907	1502.2	625.15
1011.9345	2853.5385	1511.55	632.4
1012.052	2854.6857	1543.85	642.35
1012.1695	2855.8323	1530.4	654.45
1012.2869	2856.9781	1533.45	656.45
1012.4042	2858.1233	1559.8	683.7
1012.5216	2859.2679	1568.05	692.95
1012.6389	2860.4118	1583.9	707.35
1012.7561	2861.555	1611.2	730.25
1012.8733	2862.6976	1610.5	733.35
1012.9905	2863.8395	1625.35	749.1
1013.1076	2864.9808	1634.45	757.25
1013.2247	2866.1214	1639.8	766
1013.3417	2867.2614	1656.1	779.9
1013.4587	2868.4007	1665.15	787.2
1013.5757	2869.5393	1672.95	795.35
1013.6926	2870.6773	1695.8	816.2
1013.8095	2871.8146	1699.25	822.9
1013.9263	2872.9513	1712.95	834.3
1014.0431	2874.0874	1718	841.4
1014.1599	2875.2227	1733.45	855.75
1014.2766	2876.3574	1740.3	863.25
1014.3933	2877.4915	1745.4	870.15
1014.51	2878.6249	1750.55	874.75
1014.6266	2879.7577	1763.6	886
1014.7431	2880.8898	1782.05	895.1
1014.8596	2882.0212	1791.15	915.5
1014.9761	2883.152	1808.15	933.05
1015.0925	2884.2821	1815.05	940.2
1015.2089	2885.4116	1822.55	948.15
1015.3253	2886.5405	1829.1	952.7
1015.4416	2887.6686	1839.55	960.95
1015.5579	2888.7962	1840.7	966.1
1015.6741	2889.923	1849.5	972.15
1015.7903	2891.0493	1841.2	965
1015.9065	2892.1748	1831.5	956.25
1016.0226	2893.2997	1839.1	963.65
1016.1387	2894.424	1837.1	962.25
1016.2547	2895.5476	1829.3	952.45
1016.3707	2896.6706	1834.95	960.6
1016.4866	2897.7929	1835.6	959.25
1016.6025	2898.9145	1839.5	961.75
1016.7184	2900.0355	1837.65	960.35
1016.8342	2901.1559	1823.8	946.55
1016.95	2902.2756	1824.35	942.95
1017.0658	2903.3946	1815.9	941.9
1017.1815	2904.513	1814	934.9
1017.2971	2905.6308	1806.8	930.65
1017.4127	2906.7479	1804.85	928.95
1017.5283	2907.8643	1801.15	922.5
1017.6439	2908.9801	1795.45	919.3
1017.7594	2910.0953	1796.2	920.35
1017.8748	2911.2098	1802.75	922.15
1017.9902	2912.3236	1801.6	916.6
1018.1056	2913.4368	1785.4	906.55
1018.2209	2914.5494	1792.55	915.3
1018.3362	2915.6613	1782.1	899.6
1018.4515	2916.7725	1765.35	886.4
1018.5667	2917.8831	1749.35	871.3
1018.6819	2918.9931	1738.05	858.05
1018.797	2920.1024	1727.6	849.3
1018.9121	2921.211	1709	832.55
1019.0271	2922.319	1710.05	832.05
1019.1421	2923.4264	1697.4	820.25
1019.2571	2924.5331	1698.7	822.45
1019.372	2925.6391	1693.65	818.2
1019.4869	2926.7445	1678.55	803.35
1019.6017	2927.8493	1689.8	812
1019.7165	2928.9534	1699.05	824.3
1019.8313	2930.0569	1697.6	819.35
1019.946	2931.1597	1705.05	829.1
1020.0606	2932.2619	1712.15	835.75
1020.1753	2933.3634	1716.9	840.6
1020.2899	2934.4643	1731.5	848.7
1020.4044	2935.5645	1737.8	854.25
1020.5189	2936.6641	1734.7	853.05
1020.6334	2937.763	1737.65	863.45
1020.7478	2938.8613	1741.55	863
1020.8622	2939.959	1742.9	861.3
1020.9765	2941.056	1717.8	842.95
1021.0908	2942.1523	1690.2	814.5
1021.2051	2943.248	1658.7	782.3
1021.3193	2944.3431	1618.6	742
1021.4334	2945.4375	1586.35	709.3
1021.5476	2946.5313	1551.3	675.8
1021.6617	2947.6244	1517.45	640.95
1021.7757	2948.7169	1477.65	600.4
1021.8897	2949.8087	1448.05	569.95
1022.0037	2950.8999	1421	544.65
1022.1176	2951.9904	1391.85	515.05
1022.2315	2953.0803	1370.2	494.95
1022.3453	2954.1696	1350.35	473.35
1022.4591	2955.2582	1335.6	459.4
1022.5728	2956.3462	1324.7	448.35
1022.6865	2957.4335	1320.95	444.75
1022.8002	2958.5202	1310.1	431.35
1022.9138	2959.6062	1314.55	438.25
1023.0274	2960.6916	1312.1	434.9
1023.141	2961.7764	1317.05	440.4
1023.2545	2962.8605	1311.95	434.75
1023.3679	2963.9439	1309.05	434.9
1023.4813	2965.0267	1311.75	432.25
1023.5947	2966.1089	1327.65	429.2
1023.708	2967.1905	1302.2	426.35
1023.8213	2968.2714	1292.95	416.75
1023.9346	2969.3516	1291.7	415.05
1024.0478	2970.4312	1294.2	410.2
1024.1609	2971.5102	1296.4	420
1024.274	2972.5885	1286.3	409.65
1024.3871	2973.6662	1299.8	416.4
1024.5002	2974.7432	1290.75	415.55
1024.6132	2975.8196	1288.15	412.3
1024.7261	2976.8954	1294.8	419.1
1024.839	2977.9705	1288.6	412.9
1024.9519	2979.045	1291.55	415
1025.0647	2980.1188	1287.7	411
1025.1775	2981.192	1278.2	403.85
1025.2902	2982.2645	1281.9	403.5
1025.4029	2983.3364	1264.8	390.5
1025.5156	2984.4077	1257.6	381.65
1025.6282	2985.4783	1250.55	367.15
1025.7407	2986.5483	1234.6	358.65
1025.8532	2987.6177	1221	344.25
1025.9657	2988.6864	1210.7	333.75
1026.0782	2989.7545	1206.2	329.7
1026.1906	2990.8219	1196	317.45
1026.3029	2991.8887	1189.6	311.25
1026.4152	2992.9548	1181.3	305.05
1026.5275	2994.0204	1161.6	285.45
1026.6397	2995.0852	1149.3	275.05
1026.7519	2996.1495	1138.55	262.05
1026.864	2997.2131	1121.5	245.6
1026.9761	2998.276	1107.05	230.45
1027.0882	2999.3383	1098.2	220.35
1027.2002	3000.4	1089.45	213.65
1027.3122	3001.4611	1080.95	203.65
1027.4241	3002.5215	1073.35	196.75
1027.536	3003.5812	1068.05	190.85
1027.6478	3004.6404	1059.45	182.3
1027.7596	3005.6989	1057.8	179.65
1027.8714	3006.7567	1051.15	173.1
1027.9831	3007.8139	1072.75	166.25
1028.0947	3008.8705	1046.75	169.8
1028.2064	3009.9264	1043.2	164.25
1028.3179	3010.9818	1033.15	157.4
1028.4295	3012.0364	1030.25	151.7
1028.541	3013.0905	1031.3	154.2
1028.6524	3014.1439	1025.95	149.1
1028.7638	3015.1966	1024.6	148.7
1028.8752	3016.2487	1019.05	141.8
1028.9865	3017.3002	1024.3	143.55
1029.0978	3018.3511	1016.1	142.35
1029.209	3019.4013	1018.7	142.7
1029.3202	3020.4509	1015.75	139.6
1029.4314	3021.4998	1019.75	144.4
1029.5425	3022.5481	1013.6	137.15
1029.6535	3023.5958	1012.75	135.75
1029.7645	3024.6428	1013.4	134.85
1029.8755	3025.6892	1014.7	136.8
1029.9864	3026.735	1013.4	136.85
1030.0973	3027.7802	1013.4	136.65
1030.2082	3028.8247	1011.55	136.25
1030.319	3029.8685	1010.6	134.3
1030.4297	3030.9118	1013.05	136.45
1030.5404	3031.9544	1010.8	134.55
1030.6511	3032.9963	1012.7	134.85
1030.7617	3034.0376	1010.75	134.1
1030.8723	3035.0783	1012.1	133.75
1030.9829	3036.1184	1010.85	131.9
1031.0934	3037.1578	1013.65	140
1031.2038	3038.1966	1011.1	134.45
1031.3142	3039.2348	1014.45	140.45
1031.4246	3040.2723	1020.15	136.45
1031.5349	3041.3092	1011.75	138.6
1031.6452	3042.3455	1009.9	132.9
1031.7554	3043.3811	1016.7	139.4
1031.8656	3044.4161	1014.4	137.35
1031.9758	3045.4505	1015.85	140.7
1032.0859	3046.4842	1013.55	135
1032.1959	3047.5173	1011.05	137.65
1032.3059	3048.5498	1015.3	139.25
1032.4159	3049.5816	1013.1	133.55
1032.5258	3050.6128	1015.75	137.9
1032.6357	3051.6434	1016.25	138.25
1032.7455	3052.6734	1015.5	139.4
1032.8553	3053.7027	1013.55	136.25
1032.9651	3054.7314	1010.35	135.3
1033.0748	3055.7594	1009.85	135
1033.1845	3056.7868	1015.65	138.65
1033.2941	3057.8136	1011.9	134.5
1033.4037	3058.8398	1018.85	145.35
1033.5132	3059.8653	1018.25	142.55
1033.6227	3060.8902	1019.2	141.75
1033.7321	3061.9145	1021.3	145.1
1033.8415	3062.9381	1017.3	141.5
1033.9509	3063.9612	1037	146.4
1034.0602	3064.9835	1024.7	147.55
1034.1694	3066.0053	1021.7	143.35
1034.2787	3067.0264	1021.05	144.5
1034.3878	3068.0469	1020.5	141.85
1034.497	3069.0668	1025.85	150.2
1034.6061	3070.086	1016.4	140.65
1034.7151	3071.1046	1022.55	146.6
1034.8241	3072.1226	1018.35	142.85
1034.9331	3073.1399	1014.75	139.3
1035.042	3074.1567	1012.45	137.3
1035.1508	3075.1727	1011.45	133.3
1035.2597	3076.1882	1009.2	134.4
1035.3684	3077.203	1005	130.2
1035.4772	3078.2173	1004.95	125.3
1035.5859	3079.2308	1002.8	123.5
1035.6945	3080.2438	999.25	120.65
1035.8031	3081.2561	993.55	114.05
1035.9117	3082.2678	988.85	113.1
1036.0202	3083.2789	987.4	110.75
1036.1286	3084.2893	989	114.2
1036.2371	3085.2991	985.25	110.4
1036.3454	3086.3083	987.7	108.3
1036.4538	3087.3169	983.25	107.2
1036.562	3088.3248	981.45	103.55
1036.6703	3089.3321	982.9	103.45
1036.7785	3090.3388	976.2	101.1
1036.8866	3091.3449	973.5	97.2
1036.9948	3092.3503	978.5	99.6
1037.1028	3093.3551	971.65	95.95
1037.2108	3094.3593	974.8	100.45
1037.3188	3095.3629	971.15	96.55
1037.4267	3096.3658	969.7	92.85
1037.5346	3097.3681	971.05	92.45
1037.6425	3098.3698	969.95	90.85
1037.7503	3099.3708	969.05	93.2
1037.858	3100.3713	963.15	87.1
1037.9657	3101.3711	966.05	88.4
1038.0734	3102.3702	1100.15	88
1038.181	3103.3688	967.7	89.85
1038.2886	3104.3667	960.8	87.8
1038.3961	3105.364	962.6	87.05
1038.5036	3106.3607	960.7	82.15
1038.611	3107.3568	959.75	82.75
1038.7184	3108.3522	958.25	83.25
1038.8257	3109.347	957.35	80.75
1038.933	3110.3412	961.65	81.85
1039.0403	3111.3348	954.55	78.5
1039.1475	3112.3277	953.5	78.35
1039.2547	3113.32	953.5	75.95
1039.3618	3114.3117	952.55	76.05
1039.4689	3115.3028	950.25	74.75
1039.5759	3116.2932	950.9	70.85
1039.6829	3117.2831	957.55	75.25
1039.7898	3118.2723	947.95	70.65
1039.8967	3119.2608	948.3	71.85
1040.0035	3120.2488	948.6	71.55
1040.1103	3121.2361	949.7	75.1
1040.2171	3122.2229	945.5	70.4
1040.3238	3123.209	948.65	70
1040.4305	3124.1944	942.35	66.1
1040.5371	3125.1793	944.95	65.85
1040.6437	3126.1635	941.85	64.7
1040.7502	3127.1471	939.75	63.55
1040.8567	3128.1301	941.55	66.4
1040.9631	3129.1125	940.05	63.8
1041.0695	3130.0942	937.85	62.6
1041.1759	3131.0753	945.9	61.65
1041.2822	3132.0558	943.15	64.8
1041.3884	3133.0357	939.15	61.55
1041.4946	3134.015	937.05	58.2
1041.6008	3134.9936	939.25	60.65
1041.7069	3135.9716	956.15	59.3
1041.813	3136.949	937.8	61.55
1041.919	3137.9258	952.45	54.9
1042.025	3138.902	939.9	57.3
1042.1309	3139.8775	933.3	56.8
1042.2368	3140.8524	934.25	59.35
1042.3427	3141.8267	936.05	58
1042.4485	3142.8004	934.45	56.45
1042.5542	3143.7735	939.45	57.05
1042.6599	3144.7459	937.4	60.55
1042.7656	3145.7178	932.25	55.3
1042.8712	3146.689	930.3	55.85
1042.9768	3147.6596	931.7	53.4
1043.0823	3148.6295	930.75	51.45
1043.1878	3149.5989	930.15	54.95
1043.2932	3150.5676	927.35	53.8
1043.3986	3151.5357	930.9	54.9
1043.5039	3152.5032	927.85	52.6
1043.6092	3153.4701	929.15	53.05
1043.7145	3154.4364	930.85	51.85
1043.8197	3155.402	926.2	49.25
1043.9248	3156.367	930.45	52.45
1044.03	3157.3315	964.3	51.5
1044.135	3158.2952	926	49.6
1044.24	3159.2584	925.55	48.85
1044.345	3160.221	928.6	50.55
1044.4499	3161.1829	923.35	49.65
1044.5548	3162.1442	923.1	46.3
1044.6596	3163.105	922.8	47.3
1044.7644	3164.065	925.8	50.1
1044.8692	3165.0245	930.1	51.2
1044.9739	3165.9834	925.25	48.8
1045.0785	3166.9416	921	47.4
1045.1831	3167.8993	927.4	50.05
1045.2877	3168.8563	924.95	48.95
1045.3922	3169.8127	925.75	50.75
1045.4966	3170.7684	921.2	46.8
1045.6011	3171.7236	923.2	44.5
1045.7054	3172.6782	922.7	46.85
1045.8098	3173.6321	921.7	43.6
1045.914	3174.5854	923.6	42.95
1046.0183	3175.5381	920.65	45.95
1046.1224	3176.4902	920.85	46.15
1046.2266	3177.4417	921.6	47.45
1046.3307	3178.3926	918.5	43.15
1046.4347	3179.3428	920.45	46.15
1046.5387	3180.2924	919.2	42.3
1046.6427	3181.2415	922.05	45.25
1046.7466	3182.1899	921	43
1046.8504	3183.1377	916.05	38.7
1046.9542	3184.0848	920.5	42.65
1047.058	3185.0314	918.35	41.45
1047.1617	3185.9773	920.65	45.05
1047.2654	3186.9227	918.05	40.9
1047.369	3187.8674	916.8	40
1047.4726	3188.8115	923.6	43.3
1047.5761	3189.755	919.05	43.45
1047.6796	3190.6979	915.65	38.35
1047.783	3191.6402	915.4	39.35
1047.8864	3192.5818	916.25	40.25
1047.9898	3193.5229	940.8	39.85
1048.0931	3194.4633	915.3	37.3
1048.1963	3195.4031	913.9	35.5
1048.2995	3196.3423	913.15	37.2
1048.4027	3197.2809	914.7	37.75
1048.5058	3198.2189	913.8	37
1048.6089	3199.1563	920.6	39.8
1048.7119	3200.0931	913.1	37.45
1048.8148	3201.0292	912.2	36.3
1048.9178	3201.9648	911.9	35.35
1049.0206	3202.8997	918	37.45
1049.1235	3203.834	913.4	36.95
1049.2262	3204.7677	913.45	35.55
1049.329	3205.7008	913.75	33.95
1049.4317	3206.6333	911.75	38.5
1049.5343	3207.5652	913.7	35.35
1049.6369	3208.4964	913.4	36.1
1049.7394	3209.4271	911.9	36.8
1049.8419	3210.3571	911.35	37.6
1049.9444	3211.2865	913.6	34.75
1050.0468	3212.2154	913.8	35.8
1050.1491	3213.1436	915.7	34.8
1050.2514	3214.0712	917.05	34.1
1050.3537	3214.9982	909.75	34.35
1050.4559	3215.9246	909.5	32
1050.5581	3216.8503	908.55	34.1
1050.6602	3217.7755	909.35	33.05
1050.7623	3218.7001	909.3	35
1050.8643	3219.624	910.75	36
1050.9663	3220.5473	911.85	33
1051.0682	3221.4701	909.9	33.35
1051.1701	3222.3922	912	34.15
1051.2719	3223.3137	908.95	33.4
1051.3737	3224.2346	908.65	30.4
1051.4754	3225.1549	907.35	30.65
1051.5771	3226.0746	907.35	30.45
1051.6788	3226.9937	909.6	32.7
1051.7804	3227.9121	905.7	31.25
1051.8819	3228.83	906.3	30.45
1051.9834	3229.7473	906.75	31.3
1052.0849	3230.6639	907.75	31.8
1052.1863	3231.5799	909.1	32.85
1052.2876	3232.4954	905.4	29.55
1052.3889	3233.4102	907.05	32.55
1052.4902	3234.3244	905.15	26.55
1052.5914	3235.238	905	30
1052.6926	3236.151	916.85	27.6
1052.7937	3237.0634	904.6	31.95
1052.8948	3237.9752	904.85	28.6
1052.9958	3238.8864	902.8	25.9
1053.0968	3239.797	904.25	28.45
1053.1977	3240.7069	903.35	26.35
1053.2986	3241.6163	904.95	27.3
1053.3994	3242.5251	903.4	27.3
1053.5002	3243.4332	901.1	26
1053.6009	3244.3408	903.75	25.1
1053.7016	3245.2477	903.95	27.15
1053.8022	3246.154	902.35	24
1053.9028	3247.0598	904.65	27.4
1054.0034	3247.9649	903.65	27.05
1054.1039	3248.8694	903.3	28.25
1054.2043	3249.7733	904.45	28.5
1054.3047	3250.6766	903.2	27.45
1054.4051	3251.5793	903.25	27.4
1054.5054	3252.4814	902.35	26.4
1054.6056	3253.3829	901.75	25.1
1054.7058	3254.2838	901.2	26.8
1054.806	3255.1841	900.05	25.85
1054.9061	3256.0838	901.45	24.1
1055.0061	3256.9829	899.05	23.65
1055.1062	3257.8814	902.6	25.55
1055.2061	3258.7792	902.8	25.8
1055.306	3259.6765	901.85	23.3
1055.4059	3260.5731	900.75	24.75
1055.5057	3261.4692	901.5	23.85
1055.6055	3262.3647	897.1	20.35
1055.7052	3263.2595	900.65	25.7
1055.8049	3264.1538	897.5	21.35
1055.9045	3265.0474	897.65	19.95
1056.0041	3265.9404	898.05	22.2
1056.1036	3266.8329	894.85	18.9
1056.2031	3267.7247	907.85	21.35
1056.3025	3268.616	897.3	22.3
1056.4019	3269.5066	895.2	16.8
1056.5013	3270.3966	896.9	16.55
1056.6005	3271.286	893.8	17
