Software Version:	3.9.2.0
Unit SN:	10000200
Spectrometer SN:	6960
Date:	3/8/2024 1:48:35 PM
Data Line Index:	25
Spectral Points:	2048
Integration time (ms):	125
Averages:	20
Delay (ms):	30000
Sequence Number:	1
Processing:	dark subtract
Laser Power (mW):	305
Laser Current (mA):	823
Laser Diode Temp (C):	25
Laser Case Temp (C):	26.4
System Temp (C):	26.4
Spectrometer Temp (C):	24.2
CCD Temp (C):	0.004
Secondary Temp (C):	20.006
Heatsink Temp (C):	21.453
CCDPCB Temp (C):	36.296
SecondaryPCB Temp (C):	31.972

Wavelength	RamanShift	Raw Counts	Dark Subtracted
787.061	30.1047	468.55	63.15
787.2016	32.3739	471.05	64.55
787.3422	34.6426	476.85	69.4
787.4828	36.9109	483.45	75.6
787.6235	39.1787	494.8	79.3
787.7642	41.4461	502.05	83.05
787.9049	43.7131	513.55	91.3
788.0456	45.9796	522.25	99.45
788.1863	48.2456	531.1	104.3
788.3271	50.5112	543.3	110.2
788.4679	52.7764	549.7	116.95
788.6087	55.0411	561.95	122.35
788.7496	57.3054	576.85	131.25
788.8904	59.5692	586.85	141.35
789.0313	61.8326	595.7	146.75
789.1722	64.0955	610.95	159.55
789.3132	66.3579	627.8	171.55
789.4541	68.6199	653.65	191.65
789.5951	70.8815	690.55	224.05
789.7361	73.1426	773.9	303.2
789.8771	75.4032	993.55	520.1
790.0181	77.6634	1532.3	1052.7
790.1592	79.9231	2814.8	2328.3
790.3003	82.1824	5592.55	5090.55
790.4414	84.4412	10652.8	10118.8
790.5825	86.6995	17642.75	17065.95
790.7237	88.9574	24503.3	23896.8
790.8648	91.2148	29290.25	28659
791.006	93.4717	31567.8	30925
791.1472	95.7282	32090.45	31440.65
791.2885	97.9842	32089.5	31435.2
791.4297	100.2398	31574.2	30915.9
791.571	102.4949	31014.7	30353
791.7123	104.7495	30305.65	29639.3
791.8536	107.0036	29509.05	28845.25
791.9949	109.2573	28786.45	28125.55
792.1363	111.5105	28098.55	27434.25
792.2777	113.7632	27422.2	26756.75
792.4191	116.0154	26864.95	26186.65
792.5605	118.2672	26465.6	25790.55
792.7019	120.5185	26025	25351.65
792.8434	122.7693	25739.25	25061.6
792.9849	125.0197	25456.8	24774
793.1264	127.2696	25200.25	24513.8
793.2679	129.519	25076.75	24383.7
793.4094	131.7679	24905.05	24209
793.551	134.0163	24740.15	24042
793.6926	136.2642	24536.45	23837.85
793.8342	138.5117	24370.85	23671.15
793.9758	140.7587	24158.6	23452.2
794.1175	143.0052	23999.7	23293.75
794.2591	145.2512	23763.45	23058.5
794.4008	147.4967	23543.55	22837.65
794.5425	149.7417	23376.45	22669.4
794.6842	151.9863	23278.8	22567.4
794.826	154.2304	23255.3	22537.95
794.9677	156.4739	23079.7	22358.45
795.1095	158.717	23042.8	22320.05
795.2513	160.9596	22915.6	22187.05
795.3931	163.2017	22695.75	21967.65
795.535	165.4433	22433.65	21699
795.6768	167.6844	22122.05	21386.35
795.8187	169.925	21814.6	21075.8
795.9606	172.1651	21503.85	20767.2
796.1025	174.4047	21202.7	20461.15
796.2445	176.6439	20989.95	20244.25
796.3864	178.8825	20792.55	20045.6
796.5284	181.1206	20638.45	19885.2
796.6704	183.3582	20483.15	19726.3
796.8124	185.5954	20450.85	19694.95
796.9544	187.832	20330.65	19570.45
797.0965	190.0681	20340.75	19578.75
797.2386	192.3037	20362.4	19596.5
797.3806	194.5388	20373.55	19601.3
797.5228	196.7734	20450.75	19681.05
797.6649	199.0075	20548.95	19776.8
797.807	201.2411	20752.2	19973.55
797.9492	203.4742	20843.1	20067.65
798.0914	205.7068	21022.15	20241.5
798.2336	207.9389	21117.3	20333.9
798.3758	210.1704	21306.15	20529.45
798.518	212.4015	21414.05	20648.95
798.6603	214.632	21604.2	20843.95
798.8025	216.862	21827.35	21067.6
798.9448	219.0915	22013.7	21253
799.0871	221.3205	22241.25	21475.9
799.2294	223.549	22514.4	21754.5
799.3718	225.777	22817.8	22055.6
799.5141	228.0044	23195	22428.25
799.6565	230.2314	23638.65	22868.9
799.7989	232.4578	24036.8	23271.65
799.9413	234.6837	24419.65	23642.15
800.0837	236.909	24684.85	23904.85
800.2262	239.1339	24677	23866.95
800.3687	241.3582	24459.4	23668
800.5111	243.582	24153.05	23329.65
800.6536	245.8053	23883.6	23074.95
800.7961	248.0281	23618.25	22818.5
800.9387	250.2503	23379.6	22572.9
801.0812	252.472	23260.2	22454.65
801.2238	254.6932	23251.9	22446.05
801.3664	256.9139	23205.4	22402.05
801.509	259.134	23278.55	22464.5
801.6516	261.3536	23268.65	22457.25
801.7942	263.5727	23369.05	22557.9
801.9369	265.7912	23357.45	22544.15
802.0795	268.0092	23450.3	22640.35
802.2222	270.2267	23419.7	22609.35
802.3649	272.4436	23434.9	22623.75
802.5076	274.6601	23411.75	22584.65
802.6504	276.8759	23358.8	22539.1
802.7931	279.0913	23316.95	22500.5
802.9359	281.3061	23266.55	22444.5
803.0787	283.5204	23348.15	22521.45
803.2215	285.7341	23475	22645.6
803.3643	287.9473	23644.85	22803.15
803.5071	290.16	23841.1	23008.95
803.6499	292.3721	24172.3	23347.1
803.7928	294.5837	24588.3	23759.25
803.9357	296.7947	24937.65	24108.55
804.0786	299.0052	25128.1	24298.8
804.2215	301.2152	25028.8	24200.45
804.3644	303.4246	24722.4	23897.9
804.5074	305.6334	24212.9	23386.6
804.6503	307.8418	23727	22897.85
804.7933	310.0495	23328.2	22493.95
804.9363	312.2568	23037.7	22205.05
805.0793	314.4635	22830.7	21995.05
805.2223	316.6696	22686	21848.1
805.3653	318.8752	22660.25	21815.05
805.5084	321.0802	22768.2	21927.2
805.6514	323.2847	22870.95	22029.55
805.7945	325.4887	22910.95	22071.1
805.9376	327.692	22869.95	22028.3
806.0807	329.8949	22814.25	21967.1
806.2238	332.0972	22570	21726.7
806.367	334.2989	22295.35	21445.1
806.5101	336.5001	22018.9	21169.8
806.6533	338.7007	21869.45	21021.85
806.7965	340.9008	21806.95	20954.1
806.9397	343.1003	21713.75	20865.65
807.0829	345.2992	21654.8	20800.15
807.2261	347.4976	21654.45	20799.8
807.3693	349.6955	21656	20801.1
807.5126	351.8927	21747.2	20888.05
807.6559	354.0895	21745.35	20878.9
807.7991	356.2856	21848.25	20983.85
807.9424	358.4812	21786.3	20928.7
808.0857	360.6763	21856.45	20989.95
808.2291	362.8707	21863	21002.8
808.3724	365.0646	21930.55	21065.1
808.5158	367.258	21935.25	21071.1
808.6591	369.4508	21961.95	21088.2
808.8025	371.643	22087	21212.45
808.9459	373.8346	22092.1	21215.95
809.0893	376.0257	22118.95	21242
809.2327	378.2162	22047.35	21174.2
809.3762	380.4062	21990.35	21117.55
809.5196	382.5956	21830.25	20961.3
809.6631	384.7844	21759.25	20892.9
809.8066	386.9726	21636.65	20776.2
809.9501	389.1603	21625	20761.2
810.0936	391.3474	21625.95	20730.1
810.2371	393.5339	21587.15	20719.1
810.3806	395.7199	21540.9	20676.15
810.5241	397.9052	21565.45	20700.25
810.6677	400.09	21632.2	20766.95
810.8113	402.2743	21696.05	20831.95
810.9548	404.4579	21775.3	20905.9
811.0984	406.641	21997.85	21126.85
811.2421	408.8235	22236.45	21368.85
811.3857	411.0054	22523.3	21650.8
811.5293	413.1868	22974.3	22096
811.673	415.3675	23289	22406.2
811.8166	417.5477	23475.65	22597.6
811.9603	419.7273	23492.85	22613.1
812.104	421.9064	23442.5	22554.2
812.2477	424.0848	23344.8	22464.75
812.3914	426.2627	23112.5	22233
812.5351	428.4399	22840.6	21961.35
812.6788	430.6166	22508.6	21620.5
812.8226	432.7928	22139.9	21250.3
812.9663	434.9683	21877.55	20995.5
813.1101	437.1432	21657.55	20773.4
813.2539	439.3176	21508.95	20630
813.3977	441.4914	21374.35	20503.95
813.5415	443.6645	21402.85	20518.95
813.6853	445.8371	21312.6	20428.65
813.8291	448.0091	21275.15	20390.4
813.973	450.1806	21193.2	20311.9
814.1168	452.3514	21141.7	20258.85
814.2607	454.5216	21160.3	20270.7
814.4046	456.6913	21108.6	20224.65
814.5485	458.8603	21193.45	20310.85
814.6924	461.0288	21287.05	20405.4
814.8363	463.1967	21274.05	20401.15
814.9802	465.3639	21426.6	20547.8
815.1241	467.5306	21516.45	20634
815.2681	469.6967	21665.25	20784.1
815.412	471.8622	21810.85	20934.75
815.556	474.0271	22002.1	21119.55
815.7	476.1914	22059.2	21172.4
815.844	478.3551	22077.7	21194.5
815.988	480.5182	22089.7	21206.6
816.132	482.6807	22102.6	21229.1
816.276	484.8426	22224.85	21357.25
816.4201	487.0039	22522.8	21649.65
816.5641	489.1647	22968.45	22083.2
816.7082	491.3248	23413.9	22528.05
816.8522	493.4843	23575.65	22696.8
816.9963	495.6432	23576.4	22694
817.1404	497.8015	23506.4	22614.05
817.2845	499.9592	23538.95	22641.15
817.4286	502.1163	23485.9	22592.4
817.5727	504.2728	23242.7	22355.65
817.7168	506.4287	22968.5	22089.75
817.861	508.5839	22573.75	21695.5
818.0051	510.7386	22266.9	21384.6
818.1493	512.8927	22110.2	21219.25
818.2935	515.0461	22059.25	21168.45
818.4377	517.199	22017.55	21119.9
818.5818	519.3512	22066.65	21167.85
818.726	521.5029	22147.5	21248
818.8703	523.6539	22236.05	21341.05
819.0145	525.8043	22340.45	21443.05
819.1587	527.9541	22364.55	21465
819.303	530.1033	22334.15	21439.45
819.4472	532.2519	22372.45	21476
819.5915	534.3999	22507.65	21607.8
819.7357	536.5472	22736.05	21841.65
819.88	538.694	23207.5	22316.9
820.0243	540.8401	23797.6	22899.2
820.1686	542.9856	24278.7	23374.6
820.3129	545.1305	24459.95	23546.05
820.4572	547.2748	24350.65	23435.75
820.6016	549.4185	24012.9	23095.5
820.7459	551.5615	23659	22743.15
820.8902	553.704	23579.65	22669.85
821.0346	555.8458	23499.7	22595.15
821.1789	557.987	23623.15	22719.35
821.3233	560.1276	23618.55	22715.75
821.4677	562.2675	23677.15	22770.55
821.6121	564.4069	23764.25	22858.5
821.7565	566.5456	23786.65	22882.3
821.9009	568.6837	23745.4	22843.25
822.0453	570.8212	23475.95	22572.95
822.1897	572.958	23083.2	22179.3
822.3342	575.0942	22812.7	21907.9
822.4786	577.2299	22592.55	21695.55
822.6231	579.3648	22563.7	21679.15
822.7675	581.4992	22599.3	21718.9
822.912	583.6329	22824.1	21946.65
823.0565	585.766	23034.65	22148.9
823.201	587.8985	23151.4	22262.45
823.3454	590.0304	23173.15	22251.6
823.4899	592.1616	23120.5	22212.7
823.6345	594.2922	23007.8	22094.55
823.779	596.4222	22885.7	21970.95
823.9235	598.5515	22748.1	21832.1
824.068	600.6802	22607.8	21697.25
824.2126	602.8083	22377.75	21470.55
824.3571	604.9358	22372.4	21462.05
824.5017	607.0626	22317.9	21407.65
824.6462	609.1888	22304.6	21382.8
824.7908	611.3144	22285.55	21368.2
824.9354	613.4393	22204.2	21287.15
825.08	615.5636	22120.25	21200.25
825.2246	617.6873	22050.9	21132.05
825.3692	619.8103	22027.7	21106.2
825.5138	621.9327	21946.3	21027.65
825.6584	624.0544	21925.9	21017.95
825.803	626.1756	21898.9	20988.35
825.9477	628.2961	21861.6	20947.4
826.0923	630.4159	21794.75	20876.5
826.237	632.5351	21802.1	20884.55
826.3816	634.6537	21737.3	20815.05
826.5263	636.7716	21788	20867.7
826.6709	638.8889	21810.1	20883
826.8156	641.0056	21897.15	20972.65
826.9603	643.1216	21860.4	20937.35
827.105	645.237	21931.15	21009.55
827.2497	647.3518	21898.2	20987.2
827.3944	649.4659	21920.2	21012
827.5391	651.5793	21902.25	20989.45
827.6838	653.6922	21909.4	20997.55
827.8285	655.8043	21949.4	21033
827.9733	657.9159	21941.35	21027.85
828.118	660.0268	21839.7	20922.2
828.2627	662.137	21834.8	20913.65
828.4075	664.2466	21849.9	20925.2
828.5522	666.3556	21856.8	20931.75
828.697	668.4639	21811.9	20893
828.8418	670.5716	21887.35	20972.3
828.9865	672.6786	21956.1	21036.8
829.1313	674.785	22023.3	21099.35
829.2761	676.8907	22091.65	21169.95
829.4209	678.9958	22143.2	21224.05
829.5657	681.1002	22114.1	21191.15
829.7105	683.204	22113.5	21178.8
829.8553	685.3072	22095.75	21166.65
830.0001	687.4097	22029.2	21108.15
830.1449	689.5115	22046.75	21119.8
830.2898	691.6127	22003.95	21082.5
830.4346	693.7132	21975.45	21057.8
830.5794	695.8131	21959.55	21029.05
830.7243	697.9123	21961.1	21030.95
830.8691	700.0109	21943.3	21012.6
831.014	702.1089	21966.65	21039.85
831.1588	704.2061	21976.3	21047.7
831.3037	706.3028	22053.95	21125.15
831.4486	708.3987	22106.8	21175.85
831.5935	710.4941	22161.45	21236.65
831.7383	712.5887	22337.35	21412.9
831.8832	714.6827	22606.6	21672.7
832.0281	716.7761	22982.8	22061.15
832.173	718.8688	23343.1	22416.35
832.3179	720.9608	23551.85	22616.85
832.4628	723.0522	23622.4	22685.7
832.6077	725.1429	23460.4	22529.4
832.7527	727.233	23195.35	22264.35
832.8976	729.3224	23011	22080.65
833.0425	731.4112	22774.3	21843.25
833.1874	733.4993	22584.55	21655.4
833.3324	735.5867	22455.25	21523.75
833.4773	737.6735	22342.05	21415.1
833.6222	739.7596	22255.3	21322.8
833.7672	741.845	22230.95	21302.1
833.9122	743.9298	22211.7	21279.55
834.0571	746.014	22228.05	21296.5
834.2021	748.0974	22244.5	21306.5
834.347	750.1802	22214.15	21276.1
834.492	752.2624	22183.3	21247.7
834.637	754.3439	22264.6	21327.65
834.782	756.4247	22338.75	21393.55
834.9269	758.5048	22463.35	21526.85
835.0719	760.5843	22712.75	21775.65
835.2169	762.6631	22996.45	22057.15
835.3619	764.7413	23484.65	22547.55
835.5069	766.8188	24069.15	23128.45
835.6519	768.8956	24507.2	23567.85
835.7969	770.9718	24833.1	23895.85
835.9419	773.0473	24694.9	23758.3
836.0869	775.1221	24367.4	23428.55
836.232	777.1962	23998.8	23061.95
836.377	779.2697	23835	22894.85
836.522	781.3426	23911.4	22958.95
836.667	783.4147	24128.25	23187.45
836.8121	785.4862	24410.35	23477.35
836.9571	787.557	24463.3	23520.95
837.1021	789.6271	24097.05	23156.5
837.2472	791.6966	23565.9	22624.25
837.3922	793.7654	23034.85	22098.1
837.5373	795.8335	22788.05	21848.5
837.6823	797.901	22595.2	21657.75
837.8274	799.9678	22541.25	21599.7
837.9724	802.0339	22522.75	21584.45
838.1175	804.0993	22579.5	21626.1
838.2626	806.1641	22599.45	21657.15
838.4076	808.2282	22501.25	21560.85
838.5527	810.2916	22444.7	21508.75
838.6978	812.3544	22366.1	21425.9
838.8428	814.4164	22289.65	21351.85
838.9879	816.4778	22366.1	21426.2
839.133	818.5385	22346.45	21405.15
839.2781	820.5986	22414.75	21472.9
839.4232	822.658	22593.15	21648.8
839.5682	824.7166	22671.6	21732.45
839.7133	826.7747	22959.05	22016.55
839.8584	828.832	23148.6	22205.65
840.0035	830.8886	23291.4	22343.35
840.1486	832.9446	23487.5	22542.8
840.2937	834.9999	23486.9	22543.9
840.4388	837.0545	23467.8	22523.5
840.5839	839.1085	23441.95	22499.05
840.729	841.1618	23411.7	22465.35
840.8741	843.2143	23367.35	22423.75
841.0192	845.2662	23245.5	22301.7
841.1643	847.3175	23251.1	22309.3
841.3095	849.368	23162.3	22217.45
841.4546	851.4179	23044.35	22100.45
841.5997	853.467	22901.65	21958.55
841.7448	855.5155	22849.2	21904.2
841.8899	857.5633	22744.7	21799.1
842.0351	859.6105	22591.2	21648
842.1802	861.6569	22579.1	21637
842.3253	863.7027	22577.7	21632.35
842.4704	865.7478	22537	21592.4
842.6156	867.7922	22561.9	21616.55
842.7607	869.8359	22620.9	21674
842.9058	871.8789	22717.55	21770.1
843.0509	873.9212	22908.05	21925.05
843.1961	875.9629	23022.6	22073.55
843.3412	878.0039	23227.2	22279.7
843.4863	880.0441	23348.8	22407.85
843.6315	882.0837	23360.1	22416.3
843.7766	884.1226	23297.25	22352.85
843.9218	886.1609	23216.7	22272.05
844.0669	888.1984	23182.45	22240.25
844.212	890.2352	23248.8	22302.05
844.3572	892.2714	23196.15	22247.5
844.5023	894.3069	23257.9	22312.15
844.6475	896.3416	23138.95	22192.1
844.7926	898.3757	23102.85	22153.1
844.9377	900.4091	23068.3	22120.4
845.0829	902.4418	23108.75	22158.25
845.228	904.4739	23118.1	22170.25
845.3732	906.5052	23157.6	22206.8
845.5183	908.5358	23030.8	22082.05
845.6635	910.5658	22933.25	21980.7
845.8086	912.595	22756.45	21806.05
845.9538	914.6236	22601.9	21647.95
846.0989	916.6515	22540.7	21596.3
846.2441	918.6786	22530.5	21580.85
846.3892	920.7051	22612.1	21660.5
846.5344	922.7309	22741.3	21789.6
846.6795	924.756	22820.8	21873.6
846.8246	926.7804	22933.9	21985.1
846.9698	928.8041	22823.2	21870.55
847.1149	930.8272	22892.6	21942.65
847.2601	932.8495	22810.65	21859.3
847.4052	934.8711	22748.2	21798.15
847.5504	936.892	22612.8	21661.1
847.6955	938.9123	22457.45	21509.3
847.8407	940.9318	22391.3	21441.6
847.9858	942.9506	22292.85	21342.15
848.131	944.9688	22188.25	21238.6
848.2761	946.9862	22146.1	21195.35
848.4213	949.003	22036.9	21086.9
848.5664	951.019	22075.8	21128.9
848.7115	953.0344	22051.85	21104.15
848.8567	955.0491	22120.05	21171.15
849.0018	957.063	22187.9	21236.9
849.147	959.0763	22337.6	21387.85
849.2921	961.0888	22384.85	21433.1
849.4373	963.1007	22455.25	21513.3
849.5824	965.1119	22517.25	21578.35
849.7275	967.1223	22539.8	21603.8
849.8727	969.1321	22547.95	21613.6
850.0178	971.1412	22584.7	21643.1
850.1629	973.1495	22614.9	21673
850.3081	975.1572	22679.05	21679.7
850.4532	977.1641	22707.1	21755.05
850.5983	979.1704	22676.95	21729
850.7435	981.1759	22673.45	21719.35
850.8886	983.1808	22747.6	21797.05
851.0337	985.1849	22830.6	21870.85
851.1788	987.1884	22984.65	22031.75
851.324	989.1911	23128.7	22178.45
851.4691	991.1932	23248.6	22301.75
851.6142	993.1945	23272.9	22325.7
851.7593	995.1951	23202.25	22253.35
851.9045	997.1951	23173.2	22219.6
852.0496	999.1943	23115.35	22165.35
852.1947	1001.1928	23045.95	22098.35
852.3398	1003.1906	22997.9	22047.5
852.4849	1005.1877	23089.15	22140.7
852.63	1007.1841	23039.05	22090
852.7751	1009.1798	22978.95	22031.8
852.9202	1011.1748	22799.1	21850.25
853.0653	1013.1691	22598	21649.75
853.2104	1015.1627	22394.75	21446.5
853.3555	1017.1556	22109.65	21165.2
853.5006	1019.1477	22080.4	21131.95
853.6457	1021.1392	21953.55	21015.45
853.7908	1023.1299	21895.1	20959.3
853.9359	1025.12	21934	21000.25
854.081	1027.1093	21940.9	21019.35
854.2261	1029.0979	22024.5	21105.05
854.3712	1031.0859	22083	21157.2
854.5163	1033.0731	22093.4	21156
854.6613	1035.0596	21983.7	21044.85
854.8064	1037.0454	21786.1	20844.6
854.9515	1039.0304	21734.3	20787.05
855.0965	1041.0148	21580.55	20635.95
855.2416	1042.9985	21486.9	20537.8
855.3867	1044.9814	21471	20526.95
855.5317	1046.9636	21389.15	20443.9
855.6768	1048.9452	21378.05	20432.45
855.8219	1050.926	21415.55	20471.05
855.9669	1052.9061	21356.5	20411.6
856.112	1054.8855	21391.1	20445.9
856.257	1056.8642	21449.5	20503.35
856.4021	1058.8421	21507.5	20554
856.5471	1060.8194	21497.65	20548.5
856.6921	1062.7959	21569.4	20619.6
856.8372	1064.7717	21568.9	20620.55
856.9822	1066.7469	21623.65	20674.5
857.1272	1068.7213	21579.8	20630.6
857.2723	1070.695	21648	20699.2
857.4173	1072.6679	21528.05	20581.6
857.5623	1074.6402	21521.4	20575.1
857.7073	1076.6117	21486.05	20536.85
857.8523	1078.5826	21497.5	20548.4
857.9973	1080.5527	21442.35	20493.1
858.1423	1082.5221	21538.9	20589.5
858.2873	1084.4908	21687.2	20743.75
858.4323	1086.4587	21846.8	20897.75
858.5773	1088.426	21999.55	21051.9
858.7223	1090.3925	21998.3	21045.6
858.8673	1092.3584	21952.75	21004.05
859.0123	1094.3235	21787.55	20842.4
859.1573	1096.2879	21733.7	20786.05
859.3022	1098.2515	21761.15	20816.85
859.4472	1100.2145	21809.4	20864.7
859.5922	1102.1767	21915.7	20966.35
859.7371	1104.1382	22045.8	21099.5
859.8821	1106.099	22278.2	21332.1
860.027	1108.0591	22482.9	21538.4
860.172	1110.0185	22591.45	21642.2
860.3169	1111.9771	22624	21678.4
860.4619	1113.9351	22425.45	21478.5
860.6068	1115.8923	22109.05	21162.8
860.7517	1117.8488	21819.45	20870.35
860.8967	1119.8045	21560.35	20613.55
861.0416	1121.7596	21432.65	20488.8
861.1865	1123.7139	21331.25	20388.1
861.3314	1125.6675	21391.5	20447.75
861.4763	1127.6204	21459.35	20512.3
861.6212	1129.5726	21399.05	20451.45
861.7661	1131.524	21399.05	20453.8
861.911	1133.4748	21409.8	20461.3
862.0559	1135.4248	21305.25	20361.55
862.2008	1137.3741	21270.25	20324.7
862.3457	1139.3226	21226.5	20280.7
862.4905	1141.2705	21243.2	20297.75
862.6354	1143.2176	21138.1	20184.4
862.7803	1145.164	21147.65	20202.65
862.9251	1147.1097	21119.3	20172.35
863.07	1149.0546	21145.1	20198.65
863.2148	1150.9989	21014.95	20068.3
863.3597	1152.9424	20887.4	19941.35
863.5045	1154.8852	20745.55	19801.95
863.6493	1156.8272	20630.6	19684.5
863.7942	1158.7686	20629.25	19678.65
863.939	1160.7092	20572.05	19627.55
864.0838	1162.6491	20572.65	19625.95
864.2286	1164.5883	20621.05	19676.5
864.3734	1166.5267	20704.95	19758.4
864.5182	1168.4644	20864.15	19920.45
864.663	1170.4014	21034.1	20088.15
864.8078	1172.3377	21308.5	20370.6
864.9526	1174.2732	21514.25	20569.25
865.0974	1176.2081	21816.85	20874.55
865.2421	1178.1421	22094.55	21149.7
865.3869	1180.0755	22335.45	21395.1
865.5317	1182.0082	22367.2	21425.85
865.6764	1183.9401	22410.05	21468.95
865.8212	1185.8713	22250.85	21313.85
865.9659	1187.8017	21999.4	21068.8
866.1106	1189.7315	21734.9	20810.55
866.2554	1191.6605	21417.3	20495.35
866.4001	1193.5888	21167.7	20237.65
866.5448	1195.5163	21052.65	20116.1
866.6895	1197.4432	20959.55	20017.4
866.8342	1199.3693	20919.65	19978.7
866.9789	1201.2947	20847.7	19898.75
867.1236	1203.2193	20800.2	19857.35
867.2683	1205.1432	20861.6	19919.95
867.413	1207.0664	20882.1	19942.35
867.5576	1208.9889	20869.55	19925.4
867.7023	1210.9106	20847.85	19905.35
867.847	1212.8316	20824.85	19884.55
867.9916	1214.7519	20925.85	19977
868.1363	1216.6715	20905.25	19967.55
868.2809	1218.5903	20924.9	19981.7
868.4255	1220.5084	20926.6	19985.1
868.5701	1222.4257	20936.95	19995.4
868.7148	1224.3424	20835.95	19896.05
868.8594	1226.2583	20897.6	19954.85
869.004	1228.1735	20968.85	20034.3
869.1486	1230.0879	21046.7	20108.95
869.2932	1232.0016	21140.75	20200.3
869.4377	1233.9146	21181.45	20233.6
869.5823	1235.8269	21084.45	20141.3
869.7269	1237.7384	20989.5	20049
869.8715	1239.6492	20751.45	19810.05
870.016	1241.5592	20668.25	19726
870.1606	1243.4686	20552.1	19613.05
870.3051	1245.3772	20557.7	19616.55
870.4496	1247.285	20569.75	19629.7
870.5941	1249.1922	20520.4	19580.8
870.7387	1251.0986	20531	19595.3
870.8832	1253.0042	20520.8	19580.15
871.0277	1254.9092	20533.75	19597.55
871.1722	1256.8134	20605.9	19669.3
871.3167	1258.7169	20776.45	19838.95
871.4611	1260.6196	20873.3	19933.75
871.6056	1262.5216	21109.65	20170.5
871.7501	1264.4229	21248.65	20312.65
871.8945	1266.3234	21397.5	20459.1
872.039	1268.2232	21463.5	20521.25
872.1834	1270.1223	21484.8	20545.1
872.3278	1272.0207	21471.5	20531.85
872.4723	1273.9183	21440.55	20497.1
872.6167	1275.8151	21294.95	20360.9
872.7611	1277.7113	21244.15	20304.9
872.9055	1279.6067	21109.8	20174.05
873.0499	1281.5014	21022.6	20080.55
873.1943	1283.3953	21057.85	20117.3
873.3386	1285.2885	21083.55	20145.65
873.483	1287.181	21162.55	20224.55
873.6274	1289.0727	21306.1	20370.1
873.7717	1290.9637	21371.25	20433.3
873.9161	1292.854	21517.9	20583.7
874.0604	1294.7435	21602.4	20664.2
874.2047	1296.6323	21795.6	20856.45
874.349	1298.5204	21938.4	20995.95
874.4933	1300.4077	22081.35	21138.2
874.6376	1302.2943	22226.25	21292.2
874.7819	1304.1802	22266.8	21329.75
874.9262	1306.0653	22089.75	21152.65
875.0705	1307.9497	21843.8	20905.95
875.2147	1309.8333	21661.05	20725.15
875.359	1311.7162	21560.8	20622.7
875.5032	1313.5984	21543.6	20603.5
875.6475	1315.4798	21530.3	20582.75
875.7917	1317.3605	21585.4	20644.45
875.9359	1319.2405	21662.7	20724.7
876.0801	1321.1197	21580.5	20639.7
876.2243	1322.9982	21412.5	20470.4
876.3685	1324.876	21331.3	20395.35
876.5127	1326.753	21231	20294.9
876.6569	1328.6293	21196.85	20257.05
876.801	1330.5048	21219.35	20277.85
876.9452	1332.3796	21106.25	20170.65
877.0893	1334.2537	21085.95	20125.15
877.2335	1336.127	20970.9	20034.4
877.3776	1337.9996	20959.85	20021.55
877.5217	1339.8714	20880.35	19937.85
877.6658	1341.7426	20852.5	19872.35
877.8099	1343.6129	20837.8	19895.05
877.954	1345.4826	20769.2	19831.45
878.0981	1347.3515	20772.85	19833.1
878.2422	1349.2196	20710.25	19772.1
878.3862	1351.087	20747.65	19808.7
878.5303	1352.9537	20765.7	19826.9
878.6743	1354.8197	20877.3	19938.95
878.8184	1356.6849	21040.3	20100.65
878.9624	1358.5493	21117.1	20177.4
879.1064	1360.4131	21122.6	20185.15
879.2504	1362.276	21124.25	20185.25
879.3944	1364.1383	20963.8	20027.15
879.5384	1365.9998	20715.5	19771.9
879.6823	1367.8606	20373.45	19437.85
879.8263	1369.7206	20085.6	19148.75
879.9702	1371.5799	19809.15	18867.8
880.1142	1373.4384	19603.05	18666.9
880.2581	1375.2962	19451.05	18510.95
880.402	1377.1533	19158.25	18223
880.5459	1379.0096	18822.65	17887.05
880.6898	1380.8652	18550.5	17616.65
880.8337	1382.7201	18246.2	17312.65
880.9776	1384.5742	17988.15	17049.6
881.1215	1386.4275	17822.6	16886.05
881.2653	1388.2802	17653.45	16715.75
881.4092	1390.132	17495.75	16559.45
881.553	1391.9832	17440.85	16504.1
881.6968	1393.8336	17338.1	16401.9
881.8406	1395.6832	17270.6	16330.3
881.9844	1397.5322	17222.75	16285.45
882.1282	1399.3803	17177.95	16237
882.272	1401.2278	17100.6	16165
882.4158	1403.0745	17081.1	16147.9
882.5595	1404.9204	17010.3	16072.5
882.7033	1406.7656	17028.65	16090.15
882.847	1408.6101	17018.25	16085.55
882.9908	1410.4538	16996.55	16061.6
883.1345	1412.2968	17052.9	16117.75
883.2782	1414.139	17024.3	16087.1
883.4219	1415.9805	17092.8	16156.95
883.5656	1417.8213	17164.55	16226.15
883.7092	1419.6613	17232.5	16299.75
883.8529	1421.5006	17407.4	16472
883.9965	1423.3391	17633.85	16697
884.1402	1425.1769	17917.85	16983.05
884.2838	1427.0139	18356.1	17419.65
884.4274	1428.8502	18932.45	17998
884.571	1430.6858	19408.85	18473.1
884.7146	1432.5206	19799.25	18864.7
884.8582	1434.3547	20034.9	19100.85
885.0018	1436.188	20075.4	19141.5
885.1453	1438.0206	19970.7	19035.15
885.2889	1439.8524	19793.5	18858.4
885.4324	1441.6835	19661.85	18726.5
885.5759	1443.5139	19573.95	18636.35
885.7194	1445.3435	19448.3	18516.6
885.8629	1447.1724	19421.05	18489
886.0064	1449.0005	19331.1	18398.9
886.1499	1450.8279	19186.4	18255.8
886.2933	1452.6545	19196.7	18262.85
886.4368	1454.4804	19203.8	18272.6
886.5802	1456.3056	19167.55	18231.15
886.7237	1458.13	19093.05	18162.7
886.8671	1459.9536	18897.6	17967.05
887.0105	1461.7766	18542.05	17613.8
887.1539	1463.5987	18130.7	17198.5
887.2972	1465.4202	17716.9	16782.8
887.4406	1467.2409	17327.4	16394.6
887.584	1469.0608	17074.35	16142.85
887.7273	1470.88	16828.55	15897.15
887.8706	1472.6984	16608.3	15677.15
888.0139	1474.5161	16332.1	15397.55
888.1572	1476.3331	16158.2	15226.85
888.3005	1478.1493	16050.75	15119.2
888.4438	1479.9648	15941.5	15007.4
888.5871	1481.7795	15839.3	14903.65
888.7303	1483.5935	15752.75	14818.7
888.8736	1485.4067	15696.5	14765.35
889.0168	1487.2192	15635.7	14701.5
889.16	1489.031	15576.1	14643.1
889.3032	1490.842	15483.4	14552.35
889.4464	1492.6522	15471.3	14542.05
889.5896	1494.4618	15442.6	14510.3
889.7327	1496.2705	15404.75	14474.85
889.8759	1498.0785	15361.4	14431.7
890.019	1499.8858	15281.85	14349.3
890.1622	1501.6924	15255.9	14328.7
890.3053	1503.4981	15225.1	14293.95
890.4484	1505.3032	15172.1	14237.7
890.5914	1507.1075	15106.75	14174.65
890.7345	1508.911	15075.7	14145.05
890.8776	1510.7138	15042.25	14112.65
891.0206	1512.5159	14939.35	14007.9
891.1637	1514.3172	14896.5	13970.1
891.3067	1516.1178	14847.3	13916.7
891.4497	1517.9176	14782.65	13848.65
891.5927	1519.7166	14727.95	13800
891.7357	1521.515	14688.05	13754.1
891.8786	1523.3126	14645	13715.8
892.0216	1525.1094	14600.35	13666.7
892.1645	1526.9055	14564.2	13634.3
892.3074	1528.7008	14517.95	13592.5
892.4503	1530.4954	14404.4	13477.1
892.5932	1532.2893	14419.1	13497.35
892.7361	1534.0824	14336.9	13405.25
892.879	1535.8747	14327.35	13400.9
893.0218	1537.6663	14268.1	13344.8
893.1647	1539.4572	14233.1	13309.45
893.3075	1541.2473	14180.2	13254.9
893.4503	1543.0367	14179.45	13254.8
893.5931	1544.8253	14131.85	13203.3
893.7359	1546.6132	14140.55	13211.65
893.8787	1548.4003	14138.15	13201.65
894.0214	1550.1867	14120.25	13187.35
894.1642	1551.9723	14131.25	13203.75
894.3069	1553.7572	14153.9	13228.65
894.4496	1555.5414	14184.3	13260.3
894.5923	1557.3247	14217.65	13299.35
894.735	1559.1074	14270.8	13352.8
894.8777	1560.8893	14331.65	13412.9
895.0204	1562.6705	14404.2	13485.85
895.163	1564.4509	14438.9	13521.25
895.3056	1566.2305	14478.95	13566.7
895.4482	1568.0094	14550.85	13637.9
895.5908	1569.7876	14562.35	13646.3
895.7334	1571.565	14571.4	13653.15
895.876	1573.3417	14554.7	13636.45
896.0186	1575.1176	14508.65	13590.9
896.1611	1576.8928	14473.5	13559.8
896.3036	1578.6672	14372.45	13463.5
896.4461	1580.4409	14269.45	13360.65
896.5886	1582.2138	14179.6	13264.95
896.7311	1583.986	14049.5	13135.5
896.8736	1585.7575	13983.15	13069.8
897.0161	1587.5282	13921.2	13013
897.1585	1589.2981	13872.4	12963
897.3009	1591.0673	13793.6	12887.1
897.4433	1592.8358	13817.45	12907.05
897.5857	1594.6035	13825.15	12909.5
897.7281	1596.3704	13821.9	12908.75
897.8705	1598.1366	13845.7	12933.9
898.0128	1599.9021	13908.35	12998.5
898.1551	1601.6668	13915.6	13003
898.2975	1603.4308	13979.2	13068.3
898.4398	1605.194	14095.25	13178.05
898.5821	1606.9564	14137.5	13231.7
898.7243	1608.7182	14287.45	13383.75
898.8666	1610.4791	14443.4	13543.75
899.0088	1612.2394	14607.45	13709.7
899.1511	1613.9988	14773.1	13871.4
899.2933	1615.7576	14972.75	14067.6
899.4355	1617.5156	15188.3	14272.1
899.5776	1619.2728	15337.85	14423.9
899.7198	1621.0293	15430.5	14517.9
899.862	1622.785	15409.5	14501.45
900.0041	1624.54	15286	14379
900.1462	1626.2942	15089.8	14183.4
900.2883	1628.0477	14814.25	13905.05
900.4304	1629.8005	14574.4	13663.85
900.5725	1631.5525	14340.95	13437
900.7145	1633.3037	14158.6	13256
900.8566	1635.0542	13997.1	13093.45
900.9986	1636.804	13874.7	12969.25
901.1406	1638.553	13843.8	12867.65
901.2826	1640.3013	13735.95	12829.1
901.4245	1642.0488	13705.95	12802.2
901.5665	1643.7955	13729.35	12829.4
901.7085	1645.5416	13765.55	12865.7
901.8504	1647.2868	13843.95	12939.05
901.9923	1649.0313	13926	13019.6
902.1342	1650.7751	14054.9	13145.2
902.2761	1652.5181	14183.1	13281.55
902.4179	1654.2604	14352.4	13450.55
902.5598	1656.0019	14580.35	13681.4
902.7016	1657.7427	14892.9	13989.05
902.8434	1659.4828	15170.25	14263.5
902.9852	1661.222	15325.5	14415.4
903.127	1662.9606	15316	14409.35
903.2687	1664.6984	15083.15	14175.45
903.4105	1666.4354	14695.9	13785.5
903.5522	1668.1717	14149.7	13239.05
903.6939	1669.9072	13631.6	12724.2
903.8356	1671.642	13196.5	12285.6
903.9773	1673.3761	12787.75	11879.95
904.119	1675.1094	12513.9	11606.3
904.2606	1676.8419	12276.1	11369.65
904.4022	1678.5737	12086.9	11178.7
904.5439	1680.3048	11941.15	11033.2
904.6855	1682.0351	11810.05	10901.45
904.827	1683.7646	11681	10771.35
904.9686	1685.4934	11592.2	10687.45
905.1101	1687.2215	11519.5	10612.45
905.2517	1688.9488	11409.75	10505.7
905.3932	1690.6754	11351.6	10449.45
905.5347	1692.4012	11309.85	10405.5
905.6761	1694.1263	11262.55	10355.8
905.8176	1695.8506	11207.1	10301.35
905.9591	1697.5742	11156.7	10256.6
906.1005	1699.297	11110.7	10210.7
906.2419	1701.0191	11044.8	10147.95
906.3833	1702.7404	10984.15	10085.45
906.5246	1704.461	10908.45	10005.3
906.666	1706.1808	10908.85	10007
906.8073	1707.8999	10847.5	9947.6
906.9487	1709.6182	10811.1	9914.9
907.09	1711.3358	10768.75	9875.25
907.2313	1713.0527	10722.8	9826
907.3725	1714.7688	10679.65	9775.65
907.5138	1716.4841	10600.4	9700.3
907.655	1718.1987	10599.4	9695.55
907.7962	1719.9126	10563.85	9666.4
907.9374	1721.6257	10516.75	9620.15
908.0786	1723.338	10487.55	9591.15
908.2198	1725.0496	10411.5	9512.4
908.3609	1726.7605	10406	9506.6
908.502	1728.4706	10388.15	9491.65
908.6431	1730.18	10314.75	9416.95
908.7842	1731.8886	10306.45	9412.95
908.9253	1733.5964	10300.7	9382.8
909.0664	1735.3036	10239.3	9337.95
909.2074	1737.0099	10214.7	9318.6
909.3484	1738.7156	10198.05	9303.55
909.4894	1740.4204	10136.65	9238.1
909.6304	1742.1246	10101.2	9199.8
909.7714	1743.8279	10085.15	9188.95
909.9123	1745.5306	10042.55	9148.8
910.0532	1747.2325	9996.15	9102
910.1941	1748.9336	9981.85	9085.35
910.335	1750.634	9925.3	9024.25
910.4759	1752.3336	9903.45	9006.95
910.6168	1754.0325	9896.5	9002.75
910.7576	1755.7307	9861.3	8968.1
910.8984	1757.4281	9885.3	8989.65
911.0392	1759.1247	9831.6	8923.2
911.18	1760.8206	9806.7	8903.5
911.3208	1762.5158	9815.85	8914.55
911.4615	1764.2102	9742.5	8843.55
911.6022	1765.9039	9715.8	8820.45
911.7429	1767.5968	9708.75	8816.2
911.8836	1769.289	9633.25	8740.2
912.0243	1770.9804	9622.75	8725.1
912.1649	1772.6711	9633.25	8734.2
912.3056	1774.361	9578.35	8676.7
912.4462	1776.0502	9573.4	8677.05
912.5868	1777.7386	9574.3	8672
912.7274	1779.4263	9527.95	8634.75
912.8679	1781.1132	9499.25	8605.65
913.0084	1782.7994	9475.5	8582.05
913.149	1784.4849	9437.7	8543.95
913.2895	1786.1696	9424.25	8525
913.4299	1787.8535	9408.4	8516.05
913.5704	1789.5367	9363.75	8473.75
913.7108	1791.2192	9367.3	8474.15
913.8513	1792.9009	9349.8	8429.25
913.9917	1794.5818	9336.5	8437.05
914.132	1796.2621	9279.4	8382.5
914.2724	1797.9415	9275.65	8380.25
914.4128	1799.6202	9248.6	8351.4
914.5531	1801.2982	9210.6	8314.6
914.6934	1802.9755	9201.6	8304.55
914.8337	1804.6519	9184.55	8287.75
914.9739	1806.3277	9130.75	8233.6
915.1142	1808.0027	9100.55	8209.55
915.2544	1809.6769	9119.7	8226.7
915.3946	1811.3504	9062.4	8170.95
915.5348	1813.0231	9055.2	8161.25
915.675	1814.6951	9043.65	8148.8
915.8151	1816.3664	9026.95	8131.05
915.9553	1818.0369	9009.45	8113.2
916.0954	1819.7067	8963.55	8068.75
916.2355	1821.3757	8968.2	8070.3
916.3755	1823.044	8960.45	8063.35
916.5156	1824.7115	8902.75	8005.65
916.6556	1826.3783	8897.15	8000.15
916.7956	1828.0443	8872.1	7978.85
916.9356	1829.7096	8842.4	7945.8
917.0756	1831.3741	8851.55	7954.65
917.2155	1833.0379	8828.9	7936.45
917.3555	1834.701	8777	7883.45
917.4954	1836.3633	8749.35	7857.6
917.6353	1838.0248	8721.45	7830.75
917.7751	1839.6856	8719.35	7824.65
917.915	1841.3457	8702.25	7805.95
918.0548	1843.005	8682.65	7789.95
918.1946	1844.6636	8686.7	7791.45
918.3344	1846.3214	8647	7752.55
918.4742	1847.9785	8646.2	7754.85
918.6139	1849.6349	8621.1	7725.45
918.7537	1851.2904	8625.55	7722.75
918.8934	1852.9453	8585.9	7688.5
919.0331	1854.5994	8560.9	7662.65
919.1727	1856.2528	8553.5	7655.05
919.3124	1857.9054	8520.95	7623.7
919.452	1859.5572	8542.5	7649.3
919.5916	1861.2083	8503.8	7610.05
919.7312	1862.8587	8461.1	7565.9
919.8708	1864.5084	8484.4	7586.6
920.0103	1866.1572	8435.7	7539.85
920.1498	1867.8054	8420.6	7523.85
920.2893	1869.4528	8398.5	7501.55
920.4288	1871.0994	8363.1	7468.9
920.5683	1872.7453	8363.45	7466.9
920.7077	1874.3905	8355.6	7443.6
920.8471	1876.0349	8317.55	7419.15
920.9865	1877.6786	8317.7	7421.05
921.1259	1879.3215	8302	7407.05
921.2653	1880.9637	8269.55	7375.1
921.4046	1882.6051	8267.15	7372.1
921.5439	1884.2458	8215.15	7321.5
921.6832	1885.8858	8193.2	7300.75
921.8225	1887.525	8190.25	7296.4
921.9617	1889.1634	8147.95	7253.6
922.101	1890.8011	8135.5	7238.75
922.2402	1892.4381	8119.65	7225.2
922.3794	1894.0743	8108.8	7215.3
922.5185	1895.7098	8088.1	7192.35
922.6577	1897.3446	8076.05	7182.6
922.7968	1898.9786	8056.3	7157
922.9359	1900.6118	8047.85	7154.3
923.075	1902.2443	7990.5	7095.5
923.214	1903.8761	7973.9	7082.9
923.3531	1905.5071	7915.75	7019.65
923.4921	1907.1374	7921.45	7027.65
923.6311	1908.7669	7923.65	7030.55
923.77	1910.3957	7894.7	6999.4
923.909	1912.0237	7840.95	6948.2
924.0479	1913.651	7832.55	6937.05
924.1868	1915.2776	7812.9	6916.85
924.3257	1916.9034	7778.5	6885.35
924.4646	1918.5285	7739.8	6849.6
924.6034	1920.1528	7698.05	6806.3
924.7422	1921.7764	7696.2	6801.7
924.881	1923.3992	7663.6	6769.8
925.0198	1925.0213	7645.15	6751.6
925.1586	1926.6427	7608.9	6715.75
925.2973	1928.2633	7654.75	6670.9
925.436	1929.8832	7576.45	6682.15
925.5747	1931.5023	7533.4	6641.55
925.7134	1933.1207	7517.8	6625.3
925.852	1934.7383	7526.4	6634.15
925.9906	1936.3552	7498.25	6605.65
926.1292	1937.9714	7464.5	6571.75
926.2678	1939.5868	7434.45	6542.45
926.4064	1941.2015	7393.55	6496.55
926.5449	1942.8154	7355.35	6460.9
926.6834	1944.4286	7337.4	6442.8
926.8219	1946.041	7328.1	6409.65
926.9604	1947.6528	7274.15	6375.95
927.0988	1949.2637	7265.85	6373.35
927.2372	1950.8739	7248.9	6356.8
927.3756	1952.4834	7222.5	6330.5
927.514	1954.0921	7202.65	6310.45
927.6523	1955.7001	7201.7	6306.5
927.7907	1957.3074	7159.95	6272.35
927.929	1958.9139	7133.25	6245.6
928.0673	1960.5197	7114.25	6225.05
928.2055	1962.1247	7085.5	6194.45
928.3438	1963.729	7070.8	6182.45
928.482	1965.3325	7038.8	6143.25
928.6202	1966.9353	7016	6125.85
928.7584	1968.5374	6998.15	6107.7
928.8965	1970.1387	6974.95	6086.35
929.0346	1971.7393	6962.65	6071.3
929.1727	1973.3392	6925.8	6038
929.3108	1974.9383	6902.45	6017.6
929.4489	1976.5366	6857.2	5970.2
929.5869	1978.1342	6843.45	5956.2
929.7249	1979.7311	6849.9	5961.25
929.8629	1981.3273	6817.75	5930.45
930.0009	1982.9227	6823.85	5935.5
930.1388	1984.5173	6768.15	5883
930.2767	1986.1112	6781.65	5895.55
930.4146	1987.7044	6749.65	5861.65
930.5525	1989.2968	6726.25	5840.1
930.6904	1990.8885	6714.05	5826.25
930.8282	1992.4795	6696.4	5812.3
930.966	1994.0697	6660.65	5776.15
931.1038	1995.6592	6638.7	5753.95
931.2415	1997.2479	6612.55	5726.2
931.3793	1998.8359	6606.2	5721.55
931.517	2000.4232	6583.8	5702.15
931.6547	2002.0097	6554.85	5674.7
931.7923	2003.5955	6532.05	5647.35
931.93	2005.1805	6539.5	5656.95
932.0676	2006.7648	6512.55	5629.7
932.2052	2008.3484	6497.05	5613.25
932.3427	2009.9312	6507.65	5623.25
932.4803	2011.5133	6453.75	5572.85
932.6178	2013.0946	6434.25	5554.7
932.7553	2014.6752	6417.3	5534.4
932.8928	2016.2551	6402.55	5518.75
933.0302	2017.8342	6375.95	5492.8
933.1676	2019.4126	6370.9	5489.35
933.305	2020.9902	6344.1	5463.6
933.4424	2022.5672	6342.55	5461.3
933.5798	2024.1433	6323.1	5438.4
933.7171	2025.7188	6281.15	5401.65
933.8544	2027.2935	6283.5	5404.1
933.9917	2028.8674	6255.25	5377.2
934.129	2030.4406	6232.55	5354.3
934.2662	2032.0131	6234.5	5356.3
934.4034	2033.5849	6205.1	5321.9
934.5406	2035.1559	6189.7	5310.75
934.6778	2036.7261	6182.5	5299.35
934.8149	2038.2957	6173.05	5288.2
934.952	2039.8645	6155.45	5268.5
935.0891	2041.4325	6158.75	5269.2
935.2262	2042.9998	6127.5	5246.7
935.3632	2044.5664	6126.15	5243.95
935.5002	2046.1323	6088.1	5206.1
935.6372	2047.6974	6060.95	5181.05
935.7742	2049.2617	6050.05	5169.65
935.9111	2050.8254	6070.9	5168.7
936.048	2052.3883	6052.75	5167.7
936.1849	2053.9504	6041.9	5155.85
936.3218	2055.5118	6036.2	5151.65
936.4586	2057.0725	5987.45	5099.35
936.5955	2058.6325	5977.8	5096.45
936.7323	2060.1917	5950.75	5070.15
936.869	2061.7502	5945.2	5059.5
937.0058	2063.3079	5931.05	5050.4
937.1425	2064.8649	5906.8	5022.65
937.2792	2066.4212	5873.25	4990.25
937.4159	2067.9767	5875.2	4992.25
937.5525	2069.5315	5857.3	4974.9
937.6891	2071.0856	5835.3	4950.9
937.8257	2072.6389	5825.8	4943.45
937.9623	2074.1915	5797.2	4918.05
938.0989	2075.7433	5777.25	4895.05
938.2354	2077.2945	5745	4863.35
938.3719	2078.8448	5737.9	4854.65
938.5084	2080.3945	5708.45	4825.45
938.6448	2081.9434	5708.5	4825.25
938.7812	2083.4916	5706.2	4818.05
938.9176	2085.039	5671.65	4780.3
939.054	2086.5857	5666	4775.15
939.1903	2088.1317	5680.2	4787.9
939.3267	2089.677	5651.5	4759.6
939.463	2091.2215	5625.7	4735.05
939.5992	2092.7652	5610.55	4719.2
939.7355	2094.3083	5601.15	4711.45
939.8717	2095.8506	5597.9	4711.5
940.0079	2097.3921	5583.5	4699.8
940.1441	2098.933	5550.75	4663.8
940.2802	2100.4731	5562.9	4675.9
940.4163	2102.0124	5551.65	4656.05
940.5524	2103.5511	5521.75	4634
940.6885	2105.089	5524.1	4637.6
940.8245	2106.6261	5509.25	4622.1
940.9606	2108.1626	5482.2	4596.3
941.0965	2109.6983	5495.1	4578.35
941.2325	2111.2332	5467.35	4581.3
941.3684	2112.7675	5446.7	4556.4
941.5044	2114.301	5437.3	4548.05
941.6403	2115.8337	5436.65	4548.55
941.7761	2117.3657	5422.85	4536.55
941.912	2118.897	5394.3	4504.25
942.0478	2120.4276	5389.4	4495.55
942.1835	2121.9575	5367.2	4479.5
942.3193	2123.4866	5364.8	4462.05
942.455	2125.0149	5338.6	4446.45
942.5907	2126.5426	5321.65	4435.95
942.7264	2128.0695	5309.9	4422.5
942.8621	2129.5956	5294.55	4415.1
942.9977	2131.1211	5306	4416.45
943.1333	2132.6458	5266.05	4377.65
943.2689	2134.1698	5271.7	4381.1
943.4044	2135.693	5274.85	4381.5
943.54	2137.2155	5236.05	4345.5
943.6755	2138.7373	5224.35	4337.3
943.8109	2140.2584	5228.95	4346.25
943.9464	2141.7787	5195.15	4307.3
944.0818	2143.2983	5172.6	4291.9
944.2172	2144.8171	5164.7	4284
944.3526	2146.3353	5149.35	4264.7
944.4879	2147.8527	5131.25	4249
944.6232	2149.3693	5126.25	4236.75
944.7585	2150.8853	5107.1	4218.1
944.8938	2152.4005	5087.1	4197
945.029	2153.9149	5082.15	4192.75
945.1642	2155.4287	5071.35	4183.4
945.2994	2156.9417	5071.85	4184.25
945.4346	2158.454	5044.9	4156.7
945.5697	2159.9655	5044.55	4162.1
945.7048	2161.4764	5033.15	4148.65
945.8399	2162.9865	5019.85	4134.6
945.9749	2164.4958	5001.25	4116.35
946.1099	2166.0045	4982.75	4094.9
946.2449	2167.5124	4980.65	4094.9
946.3799	2169.0195	4979.5	4092.3
946.5148	2170.526	4960.6	4072.2
946.6498	2172.0317	4956.75	4068.95
946.7846	2173.5367	4932	4044.7
946.9195	2175.0409	4929.5	4043.6
947.0543	2176.5445	4917.25	4028.35
947.1891	2178.0473	4905.15	4014.4
947.3239	2179.5494	4882.45	3991.7
947.4587	2181.0507	4865.7	3978.4
947.5934	2182.5513	4848.4	3961.25
947.7281	2184.0512	4852.05	3962.05
947.8628	2185.5504	4823.15	3933.75
947.9974	2187.0488	4798.3	3913.9
948.132	2188.5465	4802.7	3920
948.2666	2190.0435	4791.7	3904.7
948.4012	2191.5397	4761.95	3872.8
948.5357	2193.0353	4761.8	3871.35
948.6702	2194.5301	4755.65	3863.05
948.8047	2196.0241	4732.1	3838
948.9392	2197.5175	4719.05	3823.75
949.0736	2199.0101	4708.25	3812.7
949.208	2200.502	4686.45	3796.7
949.3424	2201.9931	4656.25	3770.2
949.4767	2203.4835	4661	3774.3
949.611	2204.9733	4650.55	3759.55
949.7453	2206.4622	4632.45	3750.35
949.8796	2207.9505	4630.95	3743.7
950.0138	2209.438	4599	3718.1
950.148	2210.9248	4597.45	3710
950.2822	2212.4109	4585.85	3697.3
950.4164	2213.8962	4564.6	3675.2
950.5505	2215.3809	4557.5	3663.35
950.6846	2216.8648	4541.55	3646.45
950.8186	2218.3479	4560.05	3660.65
950.9527	2219.8304	4523.9	3624.55
951.0867	2221.3121	4533.3	3638.65
951.2207	2222.7931	4509.35	3616.65
951.3546	2224.2733	4476.2	3585.55
951.4886	2225.7529	4479.4	3590.8
951.6225	2227.2317	4459.45	3565.75
951.7563	2228.7098	4448.7	3563.35
951.8902	2230.1872	4431.55	3545.35
952.024	2231.6638	4430.8	3547.25
952.1578	2233.1397	4399.35	3510.75
952.2916	2234.6149	4408.7	3524.8
952.4253	2236.0894	4377.15	3491.2
952.559	2237.5632	4373.4	3475.6
952.6927	2239.0362	4350.55	3462.55
952.8263	2240.5085	4350.45	3463.5
952.9599	2241.9801	4330.85	3441.7
953.0935	2243.4509	4323.1	3433.35
953.2271	2244.921	4311.9	3421.4
953.3606	2246.3904	4301.9	3407.65
953.4941	2247.8591	4282.1	3391.35
953.6276	2249.3271	4276.35	3387.3
953.7611	2250.7943	4248.6	3358.6
953.8945	2252.2608	4245.25	3352.85
954.0279	2253.7266	4241.5	3352.2
954.1612	2255.1917	4227.55	3338.95
954.2946	2256.656	4203.25	3314.2
954.4279	2258.1197	4194.8	3309.8
954.5612	2259.5826	4187.55	3296.85
954.6944	2261.0447	4187.15	3298.8
954.8276	2262.5062	4183.05	3293.05
954.9608	2263.9669	4154.15	3262
955.094	2265.4269	4170.8	3280.75
955.2271	2266.8862	4158.95	3272.5
955.3602	2268.3448	4149.5	3261.05
955.4933	2269.8026	4138.35	3250.5
955.6264	2271.2598	4132.05	3246.7
955.7594	2272.7162	4096.55	3210.45
955.8924	2274.1719	4112.85	3221.95
956.0253	2275.6268	4090.9	3202.6
956.1583	2277.0811	4089.7	3200.15
956.2912	2278.5346	4068.8	3179.9
956.4241	2279.9874	4046.45	3160.4
956.5569	2281.4395	4057.05	3172.3
956.6897	2282.8908	4036.2	3144.95
956.8225	2284.3414	4038.8	3148.55
956.9553	2285.7914	4010.55	3121.85
957.088	2287.2406	4012.65	3122.75
957.2207	2288.689	4011.8	3119.55
957.3534	2290.1368	4009.35	3115.25
957.486	2291.5838	4002.2	3105.65
957.6186	2293.0302	3976	3081.95
957.7512	2294.4758	3968.55	3078.4
957.8838	2295.9206	3949.95	3058.1
958.0163	2297.3648	3951.05	3061.65
958.1488	2298.8082	3945.9	3056.35
958.2813	2300.251	3935.45	3044.5
958.4137	2301.693	3931.1	3038.55
958.5461	2303.1343	3922.35	3030
958.6785	2304.5748	3907.05	3019.4
958.8108	2306.0147	3883.65	2996.35
958.9432	2307.4538	3886.45	2999
959.0754	2308.8922	3858.85	2975.6
959.2077	2310.3299	3865.2	2979.55
959.3399	2311.7669	3842.8	2956.4
959.4721	2313.2031	3841.05	2952.2
959.6043	2314.6387	3822.3	2932.55
959.7365	2316.0735	3819.95	2929.5
959.8686	2317.5076	3827.75	2938.45
960.0006	2318.941	3795	2905.7
960.1327	2320.3737	3808.15	2915
960.2647	2321.8056	3792.8	2900.15
960.3967	2323.2369	3769.25	2878.45
960.5287	2324.6674	3764.95	2873.8
960.6606	2326.0972	3745.95	2855.8
960.7925	2327.5263	3742.35	2854.55
960.9244	2328.9547	3730.55	2839.6
961.0562	2330.3823	3728.8	2835.65
961.1881	2331.8092	3724.3	2829.25
961.3198	2333.2355	3699.2	2807.6
961.4516	2334.661	3697.65	2804.4
961.5833	2336.0858	3707.85	2813
961.715	2337.5098	3692.1	2800.15
961.8467	2338.9332	3679.1	2788.7
961.9783	2340.3558	3681.1	2789.3
962.1099	2341.7778	3648.35	2759.3
962.2415	2343.199	3647.65	2758.1
962.373	2344.6195	3643.4	2754.4
962.5045	2346.0393	3637.1	2749.65
962.636	2347.4583	3628.5	2737.75
962.7675	2348.8767	3613.8	2723.65
962.8989	2350.2943	3623.3	2729.7
963.0303	2351.7113	3619.45	2726.15
963.1617	2353.1275	3622.95	2730.75
963.293	2354.543	3596.25	2696.4
963.4243	2355.9578	3589.85	2699.2
963.5556	2357.3718	3587.25	2699.1
963.6868	2358.7852	3564.55	2677.15
963.818	2360.1978	3550.15	2661.55
963.9492	2361.6098	3540.5	2653.45
964.0803	2363.021	3536.25	2644.35
964.2114	2364.4315	3534.25	2645.9
964.3425	2365.8413	3528.6	2638.8
964.4736	2367.2504	3492.9	2606.95
964.6046	2368.6587	3488.95	2601.3
964.7356	2370.0664	3483.7	2598.15
964.8666	2371.4733	3478.5	2591.05
964.9975	2372.8795	3462.25	2576.4
965.1284	2374.285	3468.5	2582.8
965.2593	2375.6899	3444.3	2557.75
965.3901	2377.0939	3443.1	2556.6
965.5209	2378.4973	3434.25	2546.45
965.6517	2379.9	3409.85	2523.25
965.7825	2381.3019	3411.4	2524.35
965.9132	2382.7032	3395.2	2509.65
966.0439	2384.1037	3377.25	2495.7
966.1745	2385.5035	3381.6	2497.65
966.3051	2386.9027	3365.2	2482.85
966.4357	2388.3011	3372	2486.55
966.5663	2389.6987	3355.8	2471.05
966.6968	2391.0957	3348.75	2465.95
966.8273	2392.492	3334.35	2448.35
966.9578	2393.8876	3323.6	2440.05
967.0882	2395.2824	3316.45	2430.25
967.2186	2396.6765	3296.3	2411.7
967.349	2398.07	3287.45	2401.45
967.4793	2399.4627	3289.8	2401.7
967.6097	2400.8547	3271.4	2386.5
967.7399	2402.246	3265.15	2373.8
967.8702	2403.6366	3248.1	2363.4
968.0004	2405.0265	3245.45	2359.6
968.1306	2406.4156	3248.7	2360.1
968.2607	2407.8041	3230.7	2341.9
968.3909	2409.1918	3229.8	2342.35
968.521	2410.5789	3211.85	2327
968.651	2411.9652	3212.95	2323.15
968.781	2413.3508	3198.1	2313.85
968.911	2414.7358	3179.8	2293.25
969.041	2416.12	3179.7	2294.7
969.1709	2417.5035	3168.9	2283.25
969.3008	2418.8863	3166	2278.3
969.4307	2420.2684	3153.75	2269.65
969.5606	2421.6497	3146.4	2262.75
969.6904	2423.0304	3126.95	2242.75
969.8201	2424.4104	3136.3	2248.2
969.9499	2425.7896	3126.75	2240.4
970.0796	2427.1682	3107.6	2222.4
970.2093	2428.546	3113.7	2228.55
970.3389	2429.9232	3105.85	2218.05
970.4685	2431.2996	3105.25	2219.2
970.5981	2432.6753	3090.35	2203.75
970.7277	2434.0503	3082.3	2197.3
970.8572	2435.4246	3072.8	2187
970.9867	2436.7982	3059.65	2171.9
971.1161	2438.1711	3052.75	2168.05
971.2456	2439.5433	3060.75	2173.25
971.375	2440.9148	3052.6	2162.45
971.5043	2442.2856	3029.1	2142.05
971.6336	2443.6557	3025.85	2138.25
971.7629	2445.025	3018.1	2132.5
971.8922	2446.3937	3003.3	2115.75
972.0214	2447.7617	3001.05	2113.55
972.1506	2449.1289	3001.7	2113.75
972.2798	2450.4955	2997.75	2109.1
972.4089	2451.8613	2986.6	2102.3
972.538	2453.2265	2975.9	2087.75
972.6671	2454.5909	2972.3	2084.25
972.7961	2455.9546	2959.05	2072.5
972.9251	2457.3177	2952.1	2068.8
973.0541	2458.68	2963.7	2076.45
973.1831	2460.0416	2961.3	2073.35
973.312	2461.4025	2953.3	2064.05
973.4408	2462.7627	2951.65	2053.1
973.5697	2464.1222	2932.25	2049
973.6985	2465.4811	2918.95	2033.65
973.8273	2466.8392	2910.45	2024.1
973.956	2468.1966	2924.8	2037.35
974.0847	2469.5533	2916.95	2028.6
974.2134	2470.9093	2916.4	2030.3
974.3421	2472.2645	2907.1	2018.95
974.4707	2473.6191	2888.65	2002.65
974.5993	2474.973	2886.6	2000.05
974.7278	2476.3262	2883.05	1995.35
974.8563	2477.6787	2871.05	1986.35
974.9848	2479.0305	2863.15	1976.05
975.1132	2480.3816	2838.15	1950.2
975.2417	2481.7319	2849.9	1961.5
975.37	2483.0816	2835.85	1948.5
975.4984	2484.4306	2834.65	1949.05
975.6267	2485.7789	2821.1	1937.7
975.755	2487.1264	2805.55	1919.05
975.8833	2488.4733	2817.2	1933.25
976.0115	2489.8195	2807.6	1913.65
976.1397	2491.165	2805.25	1913.95
976.2678	2492.5097	2783.85	1898.2
976.3959	2493.8538	2774.65	1890.25
976.524	2495.1972	2771.95	1885.55
976.6521	2496.5398	2762	1874
976.7801	2497.8818	2766.4	1876.55
976.9081	2499.2231	2757.3	1869.4
977.036	2500.5637	2756.65	1867.4
977.164	2501.9035	2742.6	1851.9
977.2918	2503.2427	2734.2	1841.4
977.4197	2504.5812	2725.35	1839.8
977.5475	2505.919	2724.8	1834.8
977.6753	2507.256	2717.2	1831.35
977.8031	2508.5924	2714.95	1829.4
977.9308	2509.9281	2698.95	1807.1
978.0585	2511.2631	2694.9	1808.4
978.1861	2512.5974	2694.25	1809.3
978.3137	2513.9309	2683.85	1798.55
978.4413	2515.2638	2694.4	1780.1
978.5689	2516.596	2675.55	1787.4
978.6964	2517.9275	2656.05	1767.65
978.8239	2519.2583	2652.6	1766.75
978.9513	2520.5884	2646.35	1758.55
979.0788	2521.9178	2636.3	1748.8
979.2062	2523.2465	2641.15	1754.65
979.3335	2524.5745	2631.45	1745.5
979.4608	2525.9018	2632.3	1743.2
979.5881	2527.2284	2617.75	1731.4
979.7154	2528.5543	2607.4	1722.1
979.8426	2529.8796	2606.55	1717.85
979.9698	2531.2041	2611.1	1726.55
980.0969	2532.5279	2607.3	1723.45
980.224	2533.851	2603.35	1717.85
980.3511	2535.1735	2594.65	1709.75
980.4781	2536.4952	2593.1	1705.65
980.6052	2537.8163	2577.3	1689.75
980.7321	2539.1366	2577.6	1690.9
980.8591	2540.4562	2576.95	1687.25
980.986	2541.7752	2567.2	1682.3
981.1129	2543.0935	2573.65	1686.4
981.2397	2544.411	2567.8	1679.05
981.3665	2545.7279	2563.4	1675.8
981.4933	2547.0441	2563.5	1672.5
981.62	2548.3596	2559.75	1669.6
981.7467	2549.6744	2548	1657.95
981.8734	2550.9885	2550.9	1653.8
982.0001	2552.3019	2539.25	1652.95
982.1267	2553.6146	2533	1646.35
982.2532	2554.9266	2523.55	1637.1
982.3798	2556.2379	2518.55	1628.8
982.5063	2557.5485	2525.65	1640.95
982.6327	2558.8585	2525.55	1633.35
982.7592	2560.1677	2518.05	1625.1
982.8856	2561.4762	2500.7	1611.25
983.0119	2562.7841	2509.05	1618.4
983.1383	2564.0913	2495.8	1609.3
983.2646	2565.3977	2488.4	1601.5
983.3908	2566.7035	2483.8	1596.8
983.517	2568.0086	2480.85	1593
983.6432	2569.313	2492.3	1603.2
983.7694	2570.6167	2482.3	1590.5
983.8955	2571.9197	2480.9	1593.7
984.0216	2573.222	2476.25	1585.9
984.1476	2574.5236	2466.9	1578.2
984.2737	2575.8246	2457.55	1568.25
984.3996	2577.1248	2467.35	1576.9
984.5256	2578.4244	2453.45	1567.9
984.6515	2579.7232	2449.25	1561.55
984.7774	2581.0214	2480.6	1566.5
984.9032	2582.3189	2457.95	1571.8
985.029	2583.6157	2444.4	1552.35
985.1548	2584.9118	2453.85	1567.45
985.2806	2586.2072	2442.5	1553.5
985.4063	2587.5019	2439.65	1552.25
985.5319	2588.7959	2432.65	1541.8
985.6576	2590.0893	2435.1	1546.75
985.7832	2591.3819	2439.55	1553.4
985.9087	2592.6739	2433.65	1547.5
986.0343	2593.9652	2418.4	1528.05
986.1597	2595.2557	2423.95	1535.1
986.2852	2596.5456	2426.75	1536.25
986.4106	2597.8348	2414.6	1529.15
986.536	2599.1234	2398.45	1511.75
986.6614	2600.4112	2399.25	1514.1
986.7867	2601.6983	2396.95	1506.5
986.912	2602.9848	2385.95	1499.65
987.0372	2604.2705	2387.5	1492.7
987.1624	2605.5556	2390.95	1504.8
987.2876	2606.84	2376.4	1491.8
987.4128	2608.1237	2373.05	1483.8
987.5379	2609.4067	2371.25	1482.85
987.6629	2610.689	2355.3	1459.45
987.788	2611.9707	2355.35	1466.1
987.913	2613.2516	2354.3	1462.45
988.0379	2614.5319	2355.55	1470.55
988.1629	2615.8115	2345.1	1457.5
988.2878	2617.0903	2340.9	1453.7
988.4126	2618.3685	2327.95	1442.75
988.5375	2619.6461	2327.4	1441.2
988.6622	2620.9229	2328	1443.05
988.787	2622.199	2320.6	1432.8
988.9117	2623.4745	2318.15	1429
989.0364	2624.7493	2303.55	1416.8
989.161	2626.0234	2309.75	1423.7
989.2857	2627.2968	2308.6	1424.1
989.4102	2628.5695	2298.75	1410.4
989.5348	2629.8415	2280.95	1395.75
989.6593	2631.1128	2291.05	1401.85
989.7837	2632.3835	2286.05	1400.95
989.9082	2633.6535	2272.35	1384.65
990.0326	2634.9228	2288.5	1402.75
990.1569	2636.1914	2268.75	1379.4
990.2812	2637.4593	2263.85	1376.1
990.4055	2638.7265	2263.6	1375.2
990.5298	2639.9931	2261.2	1375.35
990.654	2641.259	2258.55	1371.65
990.7782	2642.5242	2256	1365.85
990.9023	2643.7887	2249.3	1360.05
991.0264	2645.0525	2244.55	1357.65
991.1505	2646.3156	2234.75	1347.9
991.2745	2647.5781	2223.05	1335.55
991.3985	2648.8398	2228.6	1340.8
991.5225	2650.1009	2209.8	1315.45
991.6464	2651.3613	2210.7	1323.95
991.7703	2652.6211	2213.8	1328.9
991.8942	2653.8801	2210.3	1324
992.018	2655.1385	2216.85	1326.85
992.1418	2656.3961	2201.85	1315.1
992.2655	2657.6531	2194	1305.85
992.3892	2658.9094	2193.45	1305.1
992.5129	2660.1651	2180.85	1294.1
992.6366	2661.42	2186.3	1298.8
992.7602	2662.6743	2193.3	1305.85
992.8837	2663.9279	2188.9	1303.05
993.0073	2665.1808	2191.4	1301.55
993.1307	2666.433	2196.6	1309.45
993.2542	2667.6846	2183.1	1295.95
993.3776	2668.9354	2186.2	1297.2
993.501	2670.1856	2183.2	1297.7
993.6244	2671.4351	2182.55	1297.55
993.7477	2672.6839	2185.35	1298.6
993.8709	2673.9321	2180.1	1294.9
993.9942	2675.1795	2185.8	1301.4
994.1174	2676.4263	2186.35	1299.8
994.2405	2677.6724	2177.45	1292.9
994.3637	2678.9179	2177.05	1289
994.4868	2680.1626	2171.25	1284.85
994.6098	2681.4067	2157.9	1271.75
994.7328	2682.6501	2172.05	1285.3
994.8558	2683.8928	2160.75	1275.25
994.9788	2685.1348	2163.75	1276.5
995.1017	2686.3761	2159.4	1272.75
995.2245	2687.6168	2142	1254.7
995.3474	2688.8568	2138.1	1255.1
995.4702	2690.0961	2134.85	1249.1
995.5929	2691.3348	2126.75	1242.3
995.7156	2692.5727	2124.85	1237.4
995.8383	2693.81	2109.15	1223.15
995.961	2695.0466	2103.6	1217.7
996.0836	2696.2826	2112.8	1224.55
996.2062	2697.5178	2130.65	1225.2
996.3287	2698.7524	2105.7	1216.75
996.4512	2699.9863	2096.9	1209.7
996.5737	2701.2195	2101.95	1218.35
996.6961	2702.452	2103.1	1216.7
996.8185	2703.6839	2100	1211.1
996.9408	2704.9151	2109.75	1223.8
997.0631	2706.1456	2111.35	1224.1
997.1854	2707.3755	2102.5	1214.95
997.3077	2708.6046	2115.45	1226.5
997.4299	2709.8331	2118.3	1230.9
997.552	2711.0609	2119.85	1235.3
997.6742	2712.2881	2119.6	1232
997.7963	2713.5145	2132	1244
997.9183	2714.7403	2139.55	1256.3
998.0403	2715.9654	2151.45	1264.25
998.1623	2717.1899	2169.75	1268.75
998.2842	2718.4136	2158.8	1272.65
998.4062	2719.6367	2165.4	1280.25
998.528	2720.8591	2174.25	1282.8
998.6498	2722.0809	2182.5	1297.25
998.7716	2723.3019	2189.5	1299.85
998.8934	2724.5223	2202.8	1314.85
999.0151	2725.7421	2199.85	1313
999.1368	2726.9611	2192.2	1302.95
999.2584	2728.1795	2189.95	1301.65
999.38	2729.3972	2186.85	1302.15
999.5016	2730.6142	2177.85	1278.35
999.6231	2731.8306	2146.3	1258.3
999.7446	2733.0462	2133.9	1248.15
999.8661	2734.2612	2123.5	1232.7
999.9875	2735.4756	2095.6	1207.65
1000.1089	2736.6892	2080.3	1195.3
1000.2302	2737.9022	2051.15	1167
1000.3515	2739.1145	2032	1146.75
1000.4728	2740.3262	2038.95	1146.9
1000.594	2741.5372	2013.3	1128.25
1000.7152	2742.7475	1994.45	1110.55
1000.8363	2743.9571	1988.65	1103.25
1000.9575	2745.1661	1986.1	1096.55
1001.0785	2746.3744	1974.35	1086.4
1001.1996	2747.582	1964.35	1079.3
1001.3206	2748.7889	1950.2	1063.8
1001.4415	2749.9952	1940.3	1056.45
1001.5625	2751.2008	1938.1	1052.65
1001.6833	2752.4057	1926.75	1039.7
1001.8042	2753.61	1924.15	1037.3
1001.925	2754.8136	1919.7	1033.25
1002.0458	2756.0165	1909.6	1023.5
1002.1665	2757.2188	1909.6	1026.25
1002.2872	2758.4204	1902.9	1018.5
1002.4078	2759.6213	1909.05	1022.95
1002.5285	2760.8215	1908.1	1020
1002.649	2762.0211	1895.5	1008.95
1002.7696	2763.22	1903.85	1016.15
1002.8901	2764.4182	1889.25	1003.95
1003.0106	2765.6158	1891.35	1006.2
1003.131	2766.8127	1878.45	993.25
1003.2514	2768.009	1870.6	984.85
1003.3717	2769.2045	1869.6	983.6
1003.492	2770.3994	1868.75	983
1003.6123	2771.5936	1870.6	986.15
1003.7325	2772.7872	1860.05	977.15
1003.8527	2773.9801	1864.3	978.1
1003.9729	2775.1723	1870.75	970.3
1004.093	2776.3639	1854.15	969.6
1004.2131	2777.5548	1841.55	954.6
1004.3331	2778.745	1839.25	952.25
1004.4531	2779.9346	1841.35	955.7
1004.5731	2781.1235	1849.55	962.1
1004.693	2782.3117	1849.2	967.55
1004.8129	2783.4992	1850.8	964.5
1004.9328	2784.6861	1855.55	971
1005.0526	2785.8723	1860.6	976.35
1005.1723	2787.0579	1856.25	973.05
1005.2921	2788.2428	1861.45	978
1005.4118	2789.427	1868.8	985.9
1005.5314	2790.6106	1870.45	983.5
1005.651	2791.7935	1876.6	991.65
1005.7706	2792.9757	1879.5	996.45
1005.8902	2794.1573	1897.5	1011.9
1006.0097	2795.3382	1902.35	1017.35
1006.1291	2796.5184	1912.85	1030.95
1006.2485	2797.698	1927.15	1040.3
1006.3679	2798.8769	1948.35	1065.2
1006.4873	2800.0551	1958.8	1072.85
1006.6066	2801.2327	1977.65	1090.1
1006.7258	2802.4096	1979.25	1096.15
1006.8451	2803.5859	1999.25	1114.85
1006.9642	2804.7615	2024.9	1140.85
1007.0834	2805.9364	2037.4	1155.2
1007.2025	2807.1106	2058.85	1173.05
1007.3216	2808.2842	2090.45	1206.85
1007.4406	2809.4572	2120	1237.75
1007.5596	2810.6294	2154.05	1269
1007.6785	2811.801	2187.55	1306.9
1007.7975	2812.972	2220.2	1338.2
1007.9163	2814.1423	2254.5	1372.05
1008.0352	2815.3119	2304.25	1418.95
1008.154	2816.4808	2349.5	1467.85
1008.2727	2817.6491	2407.95	1526.2
1008.3914	2818.8167	2442.3	1559.05
1008.5101	2819.9837	2493.75	1605.55
1008.6288	2821.15	2522.55	1637.95
1008.7474	2822.3157	2582.3	1701.7
1008.8659	2823.4807	2633.1	1749.6
1008.9844	2824.645	2673.2	1791
1009.1029	2825.8086	2713.35	1830.6
1009.2214	2826.9716	2763.3	1881.6
1009.3398	2828.134	2813.4	1927.5
1009.4581	2829.2957	2838.75	1954
1009.5764	2830.4567	2866.4	1986.9
1009.6947	2831.617	2897.8	2014.45
1009.813	2832.7767	2899.05	2017.5
1009.9312	2833.9358	2908.3	2025.3
1010.0493	2835.0941	2896.9	2012.45
1010.1675	2836.2519	2878.05	1995.2
1010.2855	2837.4089	2869	1983.75
1010.4036	2838.5653	2856.55	1975.95
1010.5216	2839.7211	2856.1	1971.7
1010.6396	2840.8761	2867.55	1983.25
1010.7575	2842.0306	2885.45	2003.05
1010.8754	2843.1843	2922	2039.75
1010.9932	2844.3374	2965.15	2081.5
1011.111	2845.4899	3014.6	2128.65
1011.2288	2846.6417	3077.7	2194.55
1011.3465	2847.7928	3151.5	2271.45
1011.4642	2848.9433	3230.7	2347.45
1011.5818	2850.0931	3303.4	2420.4
1011.6995	2851.2422	3383.15	2498.1
1011.817	2852.3907	3440.95	2557.25
1011.9345	2853.5385	3502.7	2618.85
1012.052	2854.6857	3573.75	2663.95
1012.1695	2855.8323	3614.4	2732.55
1012.2869	2856.9781	3660.9	2775.95
1012.4042	2858.1233	3692.9	2810.95
1012.5216	2859.2679	3730.45	2847.75
1012.6389	2860.4118	3799.6	2915.65
1012.7561	2861.555	3809.25	2921.95
1012.8733	2862.6976	3856.7	2970.7
1012.9905	2863.8395	3875.6	2994.75
1013.1076	2864.9808	3914.3	3030.25
1013.2247	2866.1214	3918.8	3037.25
1013.3417	2867.2614	3927.2	3043.55
1013.4587	2868.4007	3952.25	3068.1
1013.5757	2869.5393	3957.1	3071.35
1013.6926	2870.6773	3977.9	3089.55
1013.8095	2871.8146	3990.95	3103.45
1013.9263	2872.9513	3990.55	3106.05
1014.0431	2874.0874	3973.15	3091.8
1014.1599	2875.2227	3967.75	3084.85
1014.2766	2876.3574	3950.05	3068.05
1014.3933	2877.4915	3917.65	3034.2
1014.51	2878.6249	3892.25	3010.35
1014.6266	2879.7577	3876.7	2993.5
1014.7431	2880.8898	3861.15	2968.6
1014.8596	2882.0212	3826.5	2945.5
1014.9761	2883.152	3817.25	2934.65
1015.0925	2884.2821	3794.7	2912.15
1015.2089	2885.4116	3816.1	2935.1
1015.3253	2886.5405	3787.5	2903.75
1015.4416	2887.6686	3799.25	2914.5
1015.5579	2888.7962	3818.55	2939.5
1015.6741	2889.923	3822.45	2940.1
1015.7903	2891.0493	3838.6	2961.3
1015.9065	2892.1748	3839.65	2958.2
1016.0226	2893.2997	3863	2981.7
1016.1387	2894.424	3855.3	2975.7
1016.2547	2895.5476	3869.4	2987.75
1016.3707	2896.6706	3897.85	3016.25
1016.4866	2897.7929	3921.45	3039.3
1016.6025	2898.9145	3939.7	3057
1016.7184	2900.0355	3980.5	3099.7
1016.8342	2901.1559	4009.5	3127.25
1016.95	2902.2756	4046.1	3164.75
1017.0658	2903.3946	4071.05	3190.35
1017.1815	2904.513	4108.35	3224.85
1017.2971	2905.6308	4118.4	3237.1
1017.4127	2906.7479	4153.1	3269.2
1017.5283	2907.8643	4153.05	3272.7
1017.6439	2908.9801	4175.1	3293.9
1017.7594	2910.0953	4169.2	3286.8
1017.8748	2911.2098	4185	3303
1017.9902	2912.3236	4160.55	3271.75
1018.1056	2913.4368	4162.3	3277.15
1018.2209	2914.5494	4139.2	3258
1018.3362	2915.6613	4099.65	3209.6
1018.4515	2916.7725	4077.7	3191.55
1018.5667	2917.8831	4057.35	3175.05
1018.6819	2918.9931	4025.3	3139.4
1018.797	2920.1024	3997.95	3115.2
1018.9121	2921.211	3979.3	3098
1019.0271	2922.319	3965.75	3085.35
1019.1421	2923.4264	3957.2	3075.9
1019.2571	2924.5331	3926.35	3047.8
1019.372	2925.6391	3908.3	3027.4
1019.4869	2926.7445	3889.55	3010.15
1019.6017	2927.8493	3882.05	3001.2
1019.7165	2928.9534	3887.15	3006.5
1019.8313	2930.0569	3892.55	3007.85
1019.946	2931.1597	3880.35	3000.25
1020.0606	2932.2619	3878.1	2996.05
1020.1753	2933.3634	3871.1	2991.7
1020.2899	2934.4643	3852.8	2964.85
1020.4044	2935.5645	3846.1	2958.45
1020.5189	2936.6641	3806.15	2921.2
1020.6334	2937.763	3752.55	2873.7
1020.7478	2938.8613	3690.25	2806.7
1020.8622	2939.959	3645.4	2757.9
1020.9765	2941.056	3571.4	2690.6
1021.0908	2942.1523	3501.7	2618.6
1021.2051	2943.248	3408.15	2528.6
1021.3193	2944.3431	3318.8	2437.6
1021.4334	2945.4375	3215.7	2336.05
1021.5476	2946.5313	3121.9	2241.35
1021.6617	2947.6244	3014.7	2133.95
1021.7757	2948.7169	2909.85	2028.05
1021.8897	2949.8087	2822.1	1940.5
1022.0037	2950.8999	2717.7	1836.35
1022.1176	2951.9904	2640.4	1758.45
1022.2315	2953.0803	2578.45	1697.4
1022.3453	2954.1696	2509.85	1628.6
1022.4591	2955.2582	2452.6	1574.1
1022.5728	2956.3462	2417.2	1537.75
1022.6865	2957.4335	2387.15	1506.6
1022.8002	2958.5202	2336.65	1453.5
1022.9138	2959.6062	2317.2	1436.55
1023.0274	2960.6916	2286.2	1405.6
1023.141	2961.7764	2279.35	1397.6
1023.2545	2962.8605	2252.85	1371.35
1023.3679	2963.9439	2237.35	1358.55
1023.4813	2965.0267	2227.9	1344.8
1023.5947	2966.1089	2252.05	1352.2
1023.708	2967.1905	2219.8	1339.3
1023.8213	2968.2714	2210.6	1328.45
1023.9346	2969.3516	2207.75	1327.45
1024.0478	2970.4312	2208.75	1321.4
1024.1609	2971.5102	2205.3	1324.4
1024.274	2972.5885	2200.4	1319.55
1024.3871	2973.6662	2198.75	1312.2
1024.5002	2974.7432	2188.3	1310.25
1024.6132	2975.8196	2202.9	1319.15
1024.7261	2976.8954	2174.55	1295.85
1024.839	2977.9705	2171	1290.85
1024.9519	2979.045	2163.8	1282
1025.0647	2980.1188	2144.25	1265.25
1025.1775	2981.192	2118.45	1239.3
1025.2902	2982.2645	2093.5	1212.25
1025.4029	2983.3364	2062.4	1181.6
1025.5156	2984.4077	2045.8	1166.1
1025.6282	2985.4783	2016.4	1131
1025.7407	2986.5483	1980.95	1100.65
1025.8532	2987.6177	1950.55	1071.2
1025.9657	2988.6864	1916.05	1035.8
1026.0782	2989.7545	1888.25	1007.9
1026.1906	2990.8219	1843.3	965
1026.3029	2991.8887	1819.35	939.5
1026.4152	2992.9548	1782.85	901.7
1026.5275	2994.0204	1748.5	870.1
1026.6397	2995.0852	1723.1	845.55
1026.7519	2996.1495	1707.3	826.35
1026.864	2997.2131	1682.95	801.3
1026.9761	2998.276	1653.3	772.8
1027.0882	2999.3383	1627.6	745
1027.2002	3000.4	1607.2	726.4
1027.3122	3001.4611	1591.35	711.2
1027.4241	3002.5215	1585.5	704.9
1027.536	3003.5812	1558.95	678.8
1027.6478	3004.6404	1551.65	671.75
1027.7596	3005.6989	1537.65	654.95
1027.8714	3006.7567	1528.95	649.05
1027.9831	3007.8139	1549.6	637.6
1028.0947	3008.8705	1513.45	634.4
1028.2064	3009.9264	1505.9	620.15
1028.3179	3010.9818	1504.25	625.7
1028.4295	3012.0364	1497.4	618.8
1028.541	3013.0905	1483.3	602.75
1028.6524	3014.1439	1484.4	604.35
1028.7638	3015.1966	1479.75	600.1
1028.8752	3016.2487	1472.9	593.3
1028.9865	3017.3002	1475.25	592.2
1029.0978	3018.3511	1474.7	597.3
1029.209	3019.4013	1467.4	588.15
1029.3202	3020.4509	1470.45	589.7
1029.4314	3021.4998	1474.9	595.2
1029.5425	3022.5481	1465.45	584.75
1029.6535	3023.5958	1469.9	590.8
1029.7645	3024.6428	1467.7	588.15
1029.8755	3025.6892	1475.55	599.9
1029.9864	3026.735	1463.9	583.75
1030.0973	3027.7802	1470.55	592.1
1030.2082	3028.8247	1470.75	592
1030.319	3029.8685	1472	592.1
1030.4297	3030.9118	1475.35	595.45
1030.5404	3031.9544	1480.75	601.6
1030.6511	3032.9963	1482.65	601.4
1030.7617	3034.0376	1482.75	605.2
1030.8723	3035.0783	1493.3	610.8
1030.9829	3036.1184	1497.05	616.65
1031.0934	3037.1578	1492.6	615.2
1031.2038	3038.1966	1492.1	612.1
1031.3142	3039.2348	1486.3	607.9
1031.4246	3040.2723	1493	605.45
1031.5349	3041.3092	1488.05	609.55
1031.6452	3042.3455	1487.6	608.15
1031.7554	3043.3811	1488.1	608.95
1031.8656	3044.4161	1480.85	600.55
1031.9758	3045.4505	1473.6	593.85
1032.0859	3046.4842	1463.5	583.45
1032.1959	3047.5173	1463.05	583.85
1032.3059	3048.5498	1456.55	577.7
1032.4159	3049.5816	1453.15	573.15
1032.5258	3050.6128	1446.65	565.85
1032.6357	3051.6434	1442.75	562.8
1032.7455	3052.6734	1427.65	546.3
1032.8553	3053.7027	1429.05	548.5
1032.9651	3054.7314	1425.55	544.55
1033.0748	3055.7594	1417.7	540.45
1033.1845	3056.7868	1412.35	531.2
1033.2941	3057.8136	1409.6	529.8
1033.4037	3058.8398	1403.55	525.2
1033.5132	3059.8653	1392.3	511.35
1033.6227	3060.8902	1390.8	511.05
1033.7321	3061.9145	1386.25	508.35
1033.8415	3062.9381	1388	510.75
1033.9509	3063.9612	1394	499.75
1034.0602	3064.9835	1373.1	494.5
1034.1694	3066.0053	1372.8	492.45
1034.2787	3067.0264	1359.95	480.45
1034.3878	3068.0469	1349.15	468.35
1034.497	3069.0668	1346.85	466.25
1034.6061	3070.086	1336.15	457.7
1034.7151	3071.1046	1331.1	452.6
1034.8241	3072.1226	1320.05	440.2
1034.9331	3073.1399	1308.75	429.85
1035.042	3074.1567	1303.45	425.45
1035.1508	3075.1727	1299.65	418.4
1035.2597	3076.1882	1286	406.2
1035.3684	3077.203	1279.65	399.55
1035.4772	3078.2173	1261.85	381.7
1035.5859	3079.2308	1258.6	376.7
1035.6945	3080.2438	1250.6	370
1035.8031	3081.2561	1245.25	364.95
1035.9117	3082.2678	1239.8	362.75
1036.0202	3083.2789	1231.3	350
1036.1286	3084.2893	1229.45	352.2
1036.2371	3085.2991	1217.85	339.9
1036.3454	3086.3083	1221.2	334.7
1036.4538	3087.3169	1212.65	332.45
1036.562	3088.3248	1207.65	325.65
1036.6703	3089.3321	1196.6	314.25
1036.7785	3090.3388	1193.8	314
1036.8866	3091.3449	1189.85	310.8
1036.9948	3092.3503	1184.1	304.25
1037.1028	3093.3551	1178.55	301.8
1037.2108	3094.3593	1174.95	298.05
1037.3188	3095.3629	1170.15	292.15
1037.4267	3096.3658	1169.35	290.15
1037.5346	3097.3681	1172.15	295.15
1037.6425	3098.3698	1167.6	287.45
1037.7503	3099.3708	1160.25	280.8
1037.858	3100.3713	1155.45	277.85
1037.9657	3101.3711	1147.8	267.95
1038.0734	3102.3702	1291.85	275.45
1038.181	3103.3688	1150	268.8
1038.2886	3104.3667	1142.25	263.25
1038.3961	3105.364	1146.75	270.8
1038.5036	3106.3607	1137.2	256.6
1038.611	3107.3568	1139.45	260.35
1038.7184	3108.3522	1136.35	258.85
1038.8257	3109.347	1137.3	257.25
1038.933	3110.3412	1135.95	253.65
1039.0403	3111.3348	1126	247.8
1039.1475	3112.3277	1128.6	250.85
1039.2547	3113.32	1125.6	248.1
1039.3618	3114.3117	1125.55	245
1039.4689	3115.3028	1120.5	242.65
1039.5759	3116.2932	1116.5	235.7
1039.6829	3117.2831	1119.05	234.35
1039.7898	3118.2723	1114.55	236.15
1039.8967	3119.2608	1110.5	231.35
1040.0035	3120.2488	1113.35	233.5
1040.1103	3121.2361	1110.7	232.6
1040.2171	3122.2229	1107.35	229.3
1040.3238	3123.209	1107.1	226.4
1040.4305	3124.1944	1101.35	222.3
1040.5371	3125.1793	1105.5	224.4
1040.6437	3126.1635	1102.1	223.6
1040.7502	3127.1471	1097.8	220.8
1040.8567	3128.1301	1092.95	216.6
1040.9631	3129.1125	1099.75	221.4
1041.0695	3130.0942	1094.8	216.55
1041.1759	3131.0753	1104.8	218.95
1041.2822	3132.0558	1097.55	215.4
1041.3884	3133.0357	1088.3	210.4
1041.4946	3134.015	1092.15	212.55
1041.6008	3134.9936	1088.7	209.75
1041.7069	3135.9716	1110.2	211.85
1041.813	3136.949	1082.65	204.05
1041.919	3137.9258	1099.35	202.95
1042.025	3138.902	1088.05	204.95
1042.1309	3139.8775	1080.5	202.5
1042.2368	3140.8524	1078.25	200.7
1042.3427	3141.8267	1077.65	197.55
1042.4485	3142.8004	1075.8	198
1042.5542	3143.7735	1081.3	194.75
1042.6599	3144.7459	1076.2	197.2
1042.7656	3145.7178	1072.25	192.8
1042.8712	3146.689	1075.9	198.6
1042.9768	3147.6596	1074.7	194.55
1043.0823	3148.6295	1069.4	192
1043.1878	3149.5989	1067.25	190.3
1043.2932	3150.5676	1062.85	185.25
1043.3986	3151.5357	1061.9	186
1043.5039	3152.5032	1058.45	178.7
1043.6092	3153.4701	1061.25	183.75
1043.7145	3154.4364	1064.3	182.1
1043.8197	3155.402	1058.25	183.15
1043.9248	3156.367	1058.8	179.65
1044.03	3157.3315	1078.6	175.5
1044.135	3158.2952	1056.45	178.25
1044.24	3159.2584	1054.2	176.2
1044.345	3160.221	1052.5	174.25
1044.4499	3161.1829	1053	173.75
1044.5548	3162.1442	1051.45	175.3
1044.6596	3163.105	1045.1	166.95
1044.7644	3164.065	1046.25	166.7
1044.8692	3165.0245	1050.8	171.1
1044.9739	3165.9834	1043.4	168.3
1045.0785	3166.9416	1041.45	165.3
1045.1831	3167.8993	1046.05	166.2
1045.2877	3168.8563	1043.4	164.8
1045.3922	3169.8127	1041	165.4
1045.4966	3170.7684	1038.2	160.25
1045.6011	3171.7236	1043.4	164.8
1045.7054	3172.6782	1036.4	158.35
1045.8098	3173.6321	1034.25	157.05
1045.914	3174.5854	1040	160.05
1046.0183	3175.5381	1034.75	156.1
1046.1224	3176.4902	1034.7	157.5
1046.2266	3177.4417	1030.85	151.55
1046.3307	3178.3926	1035.5	158.85
1046.4347	3179.3428	1031.05	155
1046.5387	3180.2924	1029	151.3
1046.6427	3181.2415	1032.6	153.05
1046.7466	3182.1899	1029.35	150.6
1046.8504	3183.1377	1027.4	149.9
1046.9542	3184.0848	1029.6	151.15
1047.058	3185.0314	1027.3	150.65
1047.1617	3185.9773	1022.2	144.8
1047.2654	3186.9227	1026.5	150.05
1047.369	3187.8674	1026.25	150.8
1047.4726	3188.8115	1024.8	142.3
1047.5761	3189.755	1020.95	144.1
1047.6796	3190.6979	1016.3	139.7
1047.783	3191.6402	1018.1	143.75
1047.8864	3192.5818	1016.7	138.85
1047.9898	3193.5229	1023.8	141.25
1048.0931	3194.4633	1015.4	140.9
1048.1963	3195.4031	1017.1	137.9
1048.2995	3196.3423	1011.85	136.8
1048.4027	3197.2809	1018.3	140.45
1048.5058	3198.2189	1014.85	136.25
1048.6089	3199.1563	1016.65	132.65
1048.7119	3200.0931	1012	134.85
1048.8148	3201.0292	1009.05	133.55
1048.9178	3201.9648	1015.55	139.5
1049.0206	3202.8997	1010.85	131.25
1049.1235	3203.834	1008.8	131.85
1049.2262	3204.7677	1006.05	128.25
1049.329	3205.7008	1010.3	131.5
1049.4317	3206.6333	1007.05	132.1
1049.5343	3207.5652	1010.65	130.55
1049.6369	3208.4964	1005.75	129.2
1049.7394	3209.4271	1001.15	124.45
1049.8419	3210.3571	1002.55	125.85
1049.9444	3211.2865	1003.8	125.1
1050.0468	3212.2154	1005.3	126.85
1050.1491	3213.1436	1007	128.45
1050.2514	3214.0712	1006.7	123.1
1050.3537	3214.9982	999.9	123.5
1050.4559	3215.9246	997.65	118.25
1050.5581	3216.8503	999.95	124.75
1050.6602	3217.7755	996.55	120.15
1050.7623	3218.7001	999.1	124.5
1050.8643	3219.624	999.5	122.95
1050.9663	3220.5473	999.2	121.6
1051.0682	3221.4701	996.75	118.1
1051.1701	3222.3922	998.85	118.5
1051.2719	3223.3137	990.75	111.65
1051.3737	3224.2346	991.5	115.1
1051.4754	3225.1549	988.65	111.9
1051.5771	3226.0746	993.9	117.55
1051.6788	3226.9937	992.55	116.15
1051.7804	3227.9121	993.4	118.6
1051.8819	3228.83	994.75	118.25
1051.9834	3229.7473	992.15	115.1
1052.0849	3230.6639	994.85	117.25
1052.1863	3231.5799	989.5	112.95
1052.2876	3232.4954	987.2	110.8
1052.3889	3233.4102	985.35	108.9
1052.4902	3234.3244	984.95	108.45
1052.5914	3235.238	987.45	109.8
1052.6926	3236.151	1009.35	108.45
1052.7937	3237.0634	988.05	112.1
1052.8948	3237.9752	980.1	102.75
1052.9958	3238.8864	982.35	105.8
1053.0968	3239.797	984	107.85
1053.1977	3240.7069	983.5	104.45
1053.2986	3241.6163	982.45	103.85
1053.3994	3242.5251	977.3	102
1053.5002	3243.4332	979	103
1053.6009	3244.3408	979.95	103
1053.7016	3245.2477	977.3	102.4
1053.8022	3246.154	982.2	104.45
1053.9028	3247.0598	976.55	99.95
1054.0034	3247.9649	976.3	98.85
1054.1039	3248.8694	977.75	101.4
1054.2043	3249.7733	974.55	96.85
1054.3047	3250.6766	976.7	100.1
1054.4051	3251.5793	975.25	98.35
1054.5054	3252.4814	972.5	96.35
1054.6056	3253.3829	973.85	97.3
1054.7058	3254.2838	967.2	91.75
1054.806	3255.1841	970.8	94.65
1054.9061	3256.0838	967.8	90.45
1055.0061	3256.9829	963.95	88.05
1055.1062	3257.8814	967.35	87.45
1055.2061	3258.7792	971.4	93.9
1055.306	3259.6765	965.4	87.3
1055.4059	3260.5731	965.2	88.8
1055.5057	3261.4692	961.9	85
1055.6055	3262.3647	963.75	87.1
1055.7052	3263.2595	959.85	83.55
1055.8049	3264.1538	956.75	80.45
1055.9045	3265.0474	957.7	79.4
1056.0041	3265.9404	954.1	76.55
1056.1036	3266.8329	956.15	80.8
1056.2031	3267.7247	961.9	76.7
1056.3025	3268.616	948.65	75.1
1056.4019	3269.5066	949.65	72.9
1056.5013	3270.3966	948.45	72.15
1056.6005	3271.286	944.85	67.85
