Software Version:	3.9.2.0
Unit SN:	10000200
Spectrometer SN:	6960
Date:	3/8/2024 11:04:39 AM
Data Line Index:	25
Spectral Points:	2048
Integration time (ms):	125
Averages:	20
Delay (ms):	30000
Sequence Number:	1
Processing:	dark subtract
Laser Power (mW):	285
Laser Current (mA):	803
Laser Diode Temp (C):	25.1
Laser Case Temp (C):	23.9
System Temp (C):	24
Spectrometer Temp (C):	22.2
CCD Temp (C):	0.008
Secondary Temp (C):	20.004
Heatsink Temp (C):	18.64
CCDPCB Temp (C):	31.761
SecondaryPCB Temp (C):	26.069

Wavelength	RamanShift	Raw Counts	Dark Subtracted
787.061	30.1047	433.45	17.75
787.2016	32.3739	433.1	20.85
787.3422	34.6426	437.25	23.85
787.4828	36.9109	438.8	23.8
787.6235	39.1787	447.25	26.55
787.7642	41.4461	451.55	29.45
787.9049	43.7131	456.2	28.5
788.0456	45.9796	461.05	33.5
788.1863	48.2456	467.65	34.65
788.3271	50.5112	474.85	36.95
788.4679	52.7764	478.25	38.6
788.6087	55.0411	486.65	43.25
788.7496	57.3054	492.1	43.85
788.8904	59.5692	495.6	45.4
789.0313	61.8326	501.95	49.65
789.1722	64.0955	514.05	59.55
789.3132	66.3579	524	62.75
789.4541	68.6199	534	70.55
789.5951	70.8815	555.6	87.1
789.7361	73.1426	601.25	129.35
789.8771	75.4032	703.25	227.5
790.0181	77.6634	955.25	476.3
790.1592	79.9231	1548.6	1069.45
790.3003	82.1824	2742.5	2259.5
790.4414	84.4412	4790.4	4300.45
790.5825	86.6995	7481.1	6989.4
790.7237	88.9574	9993.65	9495.45
790.8648	91.2148	11716.35	11218.3
791.006	93.4717	12560.95	12059.1
791.1472	95.7282	12758.55	12256.2
791.2885	97.9842	12727.7	12220.45
791.4297	100.2398	12552.55	12043.6
791.571	102.4949	12324.1	11812.15
791.7123	104.7495	12176.6	11662.25
791.8536	107.0036	11969.6	11451.65
791.9949	109.2573	11796.8	11282.3
792.1363	111.5105	11569.15	11051.6
792.2777	113.7632	11242.15	10723.3
792.4191	116.0154	10922.85	10393.2
792.5605	118.2672	10587.15	10063.2
792.7019	120.5185	10166.3	9642.7
792.8434	122.7693	9760.55	9231.85
792.9849	125.0197	9387.65	8853.7
793.1264	127.2696	9076.25	8537.7
793.2679	129.519	8852.35	8310.75
793.4094	131.7679	8683	8140.5
793.551	134.0163	8572.25	8028.55
793.6926	136.2642	8521.3	7974.75
793.8342	138.5117	8499.1	7948.9
793.9758	140.7587	8434.35	7883.3
794.1175	143.0052	8343.2	7789.45
794.2591	145.2512	8176.2	7621
794.4008	147.4967	7953.05	7397.05
794.5425	149.7417	7735	7173.25
794.6842	151.9863	7558.25	6995.2
794.826	154.2304	7450	6882.3
794.9677	156.4739	7412.2	6840.2
795.1095	158.717	7445.35	6874.35
795.2513	160.9596	7527.3	6951.3
795.3931	163.2017	7665.3	7084.2
795.535	165.4433	7768.25	7186.4
795.6768	167.6844	7819.9	7236.6
795.8187	169.925	7750.75	7164.1
795.9606	172.1651	7573.25	6981.6
796.1025	174.4047	7376.3	6782.1
796.2445	176.6439	7178.25	6579.9
796.3864	178.8825	7051.05	6451.7
796.5284	181.1206	6962.5	6361.3
796.6704	183.3582	6881.1	6275.7
796.8124	185.5954	6840.3	6231.5
796.9544	187.832	6810.9	6197.2
797.0965	190.0681	6849.55	6234.15
797.2386	192.3037	6867.35	6249
797.3806	194.5388	6861.35	6241.55
797.5228	196.7734	6879.05	6256.1
797.6649	199.0075	6921.9	6300.35
797.807	201.2411	6993.1	6369.55
797.9492	203.4742	7067.25	6440.85
798.0914	205.7068	7182.55	6552.75
798.2336	207.9389	7277.55	6645.7
798.3758	210.1704	7341.8	6718.6
798.518	212.4015	7355.65	6741.9
798.6603	214.632	7368.6	6759.05
798.8025	216.862	7367.3	6758.3
798.9448	219.0915	7393.15	6783.6
799.0871	221.3205	7474.85	6863.7
799.2294	223.549	7514.1	6904.85
799.3718	225.777	7526.75	6914.05
799.5141	228.0044	7527.1	6907.05
799.6565	230.2314	7502.15	6881.8
799.7989	232.4578	7467.45	6843.25
799.9413	234.6837	7422.6	6790.8
800.0837	236.909	7338.5	6703.5
800.2262	239.1339	7310.75	6651.95
800.3687	241.3582	7253.55	6609.2
800.5111	243.582	7256.85	6583.55
800.6536	245.8053	7276.75	6612.5
800.7961	248.0281	7280.9	6624.3
800.9387	250.2503	7290.75	6632.05
801.0812	252.472	7323.7	6664.25
801.2238	254.6932	7363.7	6701.5
801.3664	256.9139	7356.2	6692.85
801.509	259.134	7380.95	6712.45
801.6516	261.3536	7450.15	6785.2
801.7942	263.5727	7577.95	6910.9
801.9369	265.7912	7715.95	7051.85
802.0795	268.0092	7940.05	7273.85
802.2222	270.2267	8196.95	7528.5
802.3649	272.4436	8425.9	7755.1
802.5076	274.6601	8581.05	7900.35
802.6504	276.8759	8657.9	7980.8
802.7931	279.0913	8754.9	8078.5
802.9359	281.3061	8829.5	8150.15
803.0787	283.5204	8945.65	8265.65
803.2215	285.7341	9040.4	8355.6
803.3643	287.9473	9157.2	8468.55
803.5071	290.16	9162.25	8474.25
803.6499	292.3721	9020.25	8339.75
803.7928	294.5837	8784.55	8102.55
803.9357	296.7947	8588.75	7906.1
804.0786	299.0052	8522.1	7836.3
804.2215	301.2152	8410.45	7722.95
804.3644	303.4246	8376.85	7690.3
804.5074	305.6334	8357.95	7671.7
804.6503	307.8418	8351.05	7659.5
804.7933	310.0495	8273.65	7582.4
804.9363	312.2568	8163.2	7473.4
805.0793	314.4635	7974.9	7280.3
805.2223	316.6696	7766.55	7071.9
805.3653	318.8752	7584.95	6880.65
805.5084	321.0802	7450.8	6755.6
805.6514	323.2847	7379.15	6678.9
805.7945	325.4887	7368.4	6667.45
805.9376	327.692	7413.35	6712.2
806.0807	329.8949	7563.6	6861.15
806.2238	332.0972	7769.8	7065.65
806.367	334.2989	7970.65	7261.15
806.5101	336.5001	8062.6	7353.8
806.6533	338.7007	7965.55	7258.75
806.7965	340.9008	7783.25	7073.2
806.9397	343.1003	7515.1	6801.65
807.0829	345.2992	7268.6	6556.2
807.2261	347.4976	7053.9	6336.75
807.3693	349.6955	6877.7	6160.6
807.5126	351.8927	6803.75	6085.8
807.6559	354.0895	6729.35	5998.7
807.7991	356.2856	6671.45	5949.1
807.9424	358.4812	6620.55	5897.3
808.0857	360.6763	6601.45	5877.15
808.2291	362.8707	6567	5840.05
808.3724	365.0646	6543.05	5813
808.5158	367.258	6547.75	5816.35
808.6591	369.4508	6613.9	5877.15
808.8025	371.643	6710.4	5976.9
808.9459	373.8346	6831.35	6096.65
809.0893	376.0257	6982.4	6242.5
809.2327	378.2162	7127.85	6390.5
809.3762	380.4062	7241.15	6503.65
809.5196	382.5956	7192.55	6456.55
809.6631	384.7844	7072.9	6340.2
809.8066	386.9726	6842.1	6108.9
809.9501	389.1603	6681.5	5950.55
810.0936	391.3474	6611.55	5838.3
810.2371	393.5339	6542.5	5808.5
810.3806	395.7199	6557.05	5824.65
810.5241	397.9052	6633.9	5900
810.6677	400.09	6783.1	6048.35
810.8113	402.2743	7008.55	6272.4
810.9548	404.4579	7177.75	6441.55
811.0984	406.641	7316.25	6577.35
811.2421	408.8235	7459.3	6715.8
811.3857	411.0054	7653.8	6911.2
811.5293	413.1868	7731.55	6984.55
811.673	415.3675	7773.75	7023.9
811.8166	417.5477	7749.2	7000.35
811.9603	419.7273	7669.75	6915.3
812.104	421.9064	7578.3	6818.5
812.2477	424.0848	7378.6	6623.45
812.3914	426.2627	7113.1	6357.8
812.5351	428.4399	6850.6	6094.65
812.6788	430.6166	6608.7	5847.65
812.8226	432.7928	6398.6	5636.55
812.9663	434.9683	6250.65	5487.9
813.1101	437.1432	6155.9	5389.95
813.2539	439.3176	6071.15	5307.75
813.3977	441.4914	5986.35	5224.25
813.5415	443.6645	5964.8	5200.9
813.6853	445.8371	5945.9	5181.25
813.8291	448.0091	5942.9	5178.85
813.973	450.1806	5946.2	5179.55
814.1168	452.3514	5919.1	5150.85
814.2607	454.5216	5930.6	5152.8
814.4046	456.6913	5937.4	5167.1
814.5485	458.8603	5971.05	5201.75
814.6924	461.0288	5982.95	5215.6
814.8363	463.1967	5970.35	5199.25
814.9802	465.3639	5972.4	5200.55
815.1241	467.5306	5952.45	5181.75
815.2681	469.6967	5889.15	5118.45
815.412	471.8622	5861.7	5089.6
815.556	474.0271	5878.5	5106.3
815.7	476.1914	5852.15	5077.7
815.844	478.3551	5837.2	5064.4
815.988	480.5182	5824.2	5048.75
816.132	482.6807	5833.75	5058.45
816.276	484.8426	5879.75	5102.7
816.4201	487.0039	6022	5246.15
816.5641	489.1647	6249.05	5469.35
816.7082	491.3248	6503.95	5725.55
816.8522	493.4843	6571.35	5794
816.9963	495.6432	6540.1	5760.5
817.1404	497.8015	6423.3	5637.9
817.2845	499.9592	6268.15	5488
817.4286	502.1163	6023.2	5241.75
817.5727	504.2728	5836.4	5053.3
817.7168	506.4287	5704.1	4921.5
817.861	508.5839	5621.85	4838.9
818.0051	510.7386	5594.8	4811.35
818.1493	512.8927	5590.25	4797.65
818.2935	515.0461	5584.75	4797.75
818.4377	517.199	5649.05	4862.85
818.5818	519.3512	5793.9	5005.55
818.726	521.5029	6071.35	5276.1
818.8703	523.6539	6400.65	5607.45
819.0145	525.8043	6511.85	5721.65
819.1587	527.9541	6359.6	5566.05
819.303	530.1033	6036.95	5245.75
819.4472	532.2519	5778.65	4985.55
819.5915	534.3999	5622.9	4827.4
819.7357	536.5472	5573.65	4780.5
819.88	538.694	5551.25	4758.05
820.0243	540.8401	5600.65	4804.15
820.1686	542.9856	5669.05	4874.1
820.3129	545.1305	5735.35	4938.1
820.4572	547.2748	5813.2	5017.1
820.6016	549.4185	5851.15	5053.7
820.7459	551.5615	5850.25	5051.9
820.8902	553.704	5892.9	5095.85
821.0346	555.8458	5988.45	5193.05
821.1789	557.987	6058.05	5263.7
821.3233	560.1276	6172.35	5377.3
821.4677	562.2675	6448.9	5652.45
821.6121	564.4069	6824.6	6029.1
821.7565	566.5456	7092.6	6294.55
821.9009	568.6837	7061.15	6261.9
822.0453	570.8212	6675.3	5876.1
822.1897	572.958	6227.85	5425.5
822.3342	575.0942	5881.8	5082
822.4786	577.2299	5691.25	4891.45
822.6231	579.3648	5595	4790.75
822.7675	581.4992	5534	4732.25
822.912	583.6329	5568.05	4765.25
823.0565	585.766	5675.7	4871.35
823.201	587.8985	5826.65	5021.6
823.3454	590.0304	6048.95	5230.3
823.4899	592.1616	6262.35	5455.25
823.6345	594.2922	6373.9	5566.75
823.779	596.4222	6293.5	5485.55
823.9235	598.5515	6060.4	5251.05
824.068	600.6802	5784	4976.75
824.2126	602.8083	5536.7	4726.55
824.3571	604.9358	5418.15	4607.5
824.5017	607.0626	5386.3	4576.15
824.6462	609.1888	5411	4598.85
824.7908	611.3144	5456.6	4645.9
824.9354	613.4393	5601.65	4788.4
825.08	615.5636	5844.15	5031.8
825.2246	617.6873	6086.95	5275.6
825.3692	619.8103	6251.05	5436.55
825.5138	621.9327	6315.1	5497.9
825.6584	624.0544	6245	5432.2
825.803	626.1756	5997.25	5186.8
825.9477	628.2961	5676.85	4860.1
826.0923	630.4159	5512.8	4698.15
826.237	632.5351	5443.25	4626.95
826.3816	634.6537	5434.5	4618
826.5263	636.7716	5421.25	4603.5
826.6709	638.8889	5383.1	4564.9
826.8156	641.0056	5418	4601.95
826.9603	643.1216	5473.2	4655
827.105	645.237	5552.7	4731.25
827.2497	647.3518	5485.3	4665.7
827.3944	649.4659	5356.2	4537.25
827.5391	651.5793	5219.85	4400.95
827.6838	653.6922	5167.35	4349.05
827.8285	655.8043	5093.7	4272.05
827.9733	657.9159	5028.6	4206.5
828.118	660.0268	4983.5	4158.05
828.2627	662.137	4968.6	4146.8
828.4075	664.2466	5004.05	4180.75
828.5522	666.3556	5005.2	4182.75
828.697	668.4639	4953.9	4128.1
828.8418	670.5716	4926.2	4100.65
828.9865	672.6786	4897.55	4070.2
829.1313	674.785	4872.25	4046.05
829.2761	676.8907	4845.2	4017.55
829.4209	678.9958	4837.75	4012.95
829.5657	681.1002	4845.75	4018.4
829.7105	683.204	4855.1	4024.45
829.8553	685.3072	4854.6	4025
830.0001	687.4097	4835.45	4007.1
830.1449	689.5115	4838.05	4008.95
830.2898	691.6127	4826.75	3999.9
830.4346	693.7132	4815.8	3989.9
830.5794	695.8131	4808.05	3964.85
830.7243	697.9123	4808.75	3977.55
830.8691	700.0109	4812.45	3981.9
831.014	702.1089	4859.55	4031.75
831.1588	704.2061	4914.7	4085
831.3037	706.3028	5020.7	4189.3
831.4486	708.3987	5134.85	4301.45
831.5935	710.4941	5217.25	4385.9
831.7383	712.5887	5252.9	4419.05
831.8832	714.6827	5229.25	4391.55
832.0281	716.7761	5183	4348.55
832.173	718.8688	5144.7	4308.45
832.3179	720.9608	5124.4	4287.85
832.4628	723.0522	5149.45	4311.85
832.6077	725.1429	5227.85	4392.85
832.7527	727.233	5324.95	4491.6
832.8976	729.3224	5561.15	4726.75
833.0425	731.4112	5850.25	5013.95
833.1874	733.4993	6014.05	5176.7
833.3324	735.5867	5909.25	5070.55
833.4773	737.6735	5573.6	4736.1
833.6222	739.7596	5244.95	4405.9
833.7672	741.845	5026.15	4187.9
833.9122	743.9298	4932.15	4093.05
834.0571	746.014	4872.2	4033.25
834.2021	748.0974	4901.7	4061.7
834.347	750.1802	4887.5	4048.55
834.492	752.2624	4893.8	4056.55
834.637	754.3439	4875.75	4034.45
834.782	756.4247	4891.6	4040.55
834.9269	758.5048	4931.15	4089.6
835.0719	760.5843	5019.1	4179.5
835.2169	762.6631	5130.35	4288.8
835.3619	764.7413	5344.45	4502.3
835.5069	766.8188	5692.75	4851.05
835.6519	768.8956	6094.3	5250.5
835.7969	770.9718	6432.3	5591
835.9419	773.0473	6449.55	5609.3
836.0869	775.1221	6292.95	5451.25
836.232	777.1962	6144.7	5302.5
836.377	779.2697	6312.65	5467.8
836.522	781.3426	6793.65	5933.7
836.667	783.4147	7223.25	6378.5
836.8121	785.4862	7373	6531.05
836.9571	787.557	7064.25	6219.5
837.1021	789.6271	6532.55	5687.85
837.2472	791.6966	5897.45	5054.25
837.3922	793.7654	5383.9	4538.2
837.5373	795.8335	5077.8	4233.45
837.6823	797.901	4887.65	4042.65
837.8274	799.9678	4808.4	3961.55
837.9724	802.0339	4805.1	3960.3
838.1175	804.0993	4831.8	3978.1
838.2626	806.1641	4833.6	3987.5
838.4076	808.2282	4789	3946.2
838.5527	810.2916	4714.5	3865.35
838.6978	812.3544	4628.3	3781.7
838.8428	814.4164	4574.55	3728.05
838.9879	816.4778	4586.35	3738.7
839.133	818.5385	4620.15	3772.6
839.2781	820.5986	4750.8	3902.45
839.4232	822.658	4969.6	4120.7
839.5682	824.7166	5250.45	4403.5
839.7133	826.7747	5609.9	4762.5
839.8584	828.832	5952.25	5105.25
840.0035	830.8886	6257.25	5406.15
840.1486	832.9446	6429.75	5578.25
840.2937	834.9999	6439.55	5591.25
840.4388	837.0545	6186.5	5332.9
840.5839	839.1085	5811.2	4960.1
840.729	841.1618	5399.55	4546.3
840.8741	843.2143	5114.25	4265.8
841.0192	845.2662	4929.2	4078.65
841.1643	847.3175	4827.3	3977.2
841.3095	849.368	4766.45	3916.15
841.4546	851.4179	4738.2	3886.75
841.5997	853.467	4724.05	3869.95
841.7448	855.5155	4767.65	3915.4
841.8899	857.5633	4779.55	3927.2
842.0351	859.6105	4786.9	3936.25
842.1802	861.6569	4752.45	3900.1
842.3253	863.7027	4691.35	3839.45
842.4704	865.7478	4599.55	3746.05
842.6156	867.7922	4551.15	3698.75
842.7607	869.8359	4504.5	3648.9
842.9058	871.8789	4461.25	3607.05
843.0509	873.9212	4483.45	3598.55
843.1961	875.9629	4463.75	3610.25
843.3412	878.0039	4507.6	3654.8
843.4863	880.0441	4571.25	3718
843.6315	882.0837	4659.25	3805.35
843.7766	884.1226	4736.5	3881.3
843.9218	886.1609	4873.15	4020.25
844.0669	888.1984	5091.05	4236.75
844.212	890.2352	5331.1	4475.8
844.3572	892.2714	5440.2	4583.3
844.5023	894.3069	5392.5	4537.75
844.6475	896.3416	5160.05	4304.6
844.7926	898.3757	4929.85	4073.8
844.9377	900.4091	4763.85	3908.25
845.0829	902.4418	4765.2	3906.45
845.228	904.4739	4841.1	3982.15
845.3732	906.5052	4970.2	4112.7
845.5183	908.5358	5033.25	4177.2
845.6635	910.5658	4966.35	4107.5
845.8086	912.595	4830.35	3973.05
845.9538	914.6236	4656.05	3800.2
846.0989	916.6515	4493.15	3637.1
846.2441	918.6786	4398.2	3539.8
846.3892	920.7051	4357.9	3497.5
846.5344	922.7309	4333	3474.6
846.6795	924.756	4326.25	3467.2
846.8246	926.7804	4371.5	3510.1
846.9698	928.8041	4412.75	3551.15
847.1149	930.8272	4501.55	3642.25
847.2601	932.8495	4550.85	3688.35
847.4052	934.8711	4593	3732.25
847.5504	936.892	4585.15	3726.25
847.6955	938.9123	4680	3819.1
847.8407	940.9318	4804.85	3943.35
847.9858	942.9506	4898.2	4037
848.131	944.9688	4931.4	4071.3
848.2761	946.9862	4831	3970.5
848.4213	949.003	4698.75	3839.95
848.5664	951.019	4576.1	3715.15
848.7115	953.0344	4496.3	3636.9
848.8567	955.0491	4420.15	3558.85
849.0018	957.063	4354.55	3494.5
849.147	959.0763	4349.2	3490.7
849.2921	961.0888	4324	3461.05
849.4373	963.1007	4345	3483.9
849.5824	965.1119	4305.65	3442.8
849.7275	967.1223	4257.6	3394.95
849.8727	969.1321	4223.1	3361.7
850.0178	971.1412	4193.95	3333.55
850.1629	973.1495	4189.45	3327.45
850.3081	975.1572	4220.45	3320.2
850.4532	977.1641	4205.55	3345.2
850.5983	979.1704	4213.05	3349.6
850.7435	981.1759	4211.3	3344.8
850.8886	983.1808	4187.4	3322.45
851.0337	985.1849	4139.95	3265.25
851.1788	987.1884	4101.05	3232.65
851.324	989.1911	4120.55	3254.55
851.4691	991.1932	4152.35	3288.4
851.6142	993.1945	4187.25	3324.75
851.7593	995.1951	4209.85	3348.3
851.9045	997.1951	4196.5	3325.5
852.0496	999.1943	4157.2	3294.05
852.1947	1001.1928	4160.15	3294.65
852.3398	1003.1906	4186.25	3319.4
852.4849	1005.1877	4286.15	3420.1
852.63	1007.1841	4417.25	3549.85
852.7751	1009.1798	4536.25	3671.55
852.9202	1011.1748	4525.95	3660.2
853.0653	1013.1691	4435.05	3569.1
853.2104	1015.1627	4277.7	3412.75
853.3555	1017.1556	4126.5	3259.9
853.5006	1019.1477	4029.55	3161.55
853.6457	1021.1392	3963.65	3099.6
853.7908	1023.1299	3917.5	3050.55
853.9359	1025.12	3903.45	3033.6
854.081	1027.1093	3934.2	3067.95
854.2261	1029.0979	4002.9	3139.1
854.3712	1031.0859	4105.9	3241.35
854.5163	1033.0731	4203.75	3336.65
854.6613	1035.0596	4200.25	3335.4
854.8064	1037.0454	4200.9	3331.6
854.9515	1039.0304	4156.6	3288.3
855.0965	1041.0148	4062.65	3194.8
855.2416	1042.9985	3975.25	3108.55
855.3867	1044.9814	3902.8	3036.55
855.5317	1046.9636	3857.85	2989.6
855.6768	1048.9452	3869.6	3005.05
855.8219	1050.926	3939.7	3074.15
855.9669	1052.9061	4019.9	3153.7
856.112	1054.8855	4097.1	3228.95
856.257	1056.8642	4110.05	3242.15
856.4021	1058.8421	4116.95	3244.4
856.5471	1060.8194	4084.35	3215.9
856.6921	1062.7959	4078.25	3210.6
856.8372	1064.7717	4061.2	3191.8
856.9822	1066.7469	4036.85	3166.4
857.1272	1068.7213	4054.65	3184.45
857.2723	1070.695	4098.55	3230.55
857.4173	1072.6679	4181.3	3312.45
857.5623	1074.6402	4315.95	3445.7
857.7073	1076.6117	4424.8	3549.2
857.8523	1078.5826	4404.95	3534.35
857.9973	1080.5527	4234.75	3363.1
858.1423	1082.5221	4064.6	3196.25
858.2873	1084.4908	3936.35	3068.7
858.4323	1086.4587	3822.65	2951.95
858.5773	1088.426	3763.7	2893.7
858.7223	1090.3925	3735.7	2861.2
858.8673	1092.3584	3746.25	2877.65
859.0123	1094.3235	3796	2927.6
859.1573	1096.2879	3861.35	2990.3
859.3022	1098.2515	3966.3	3097.3
859.4472	1100.2145	4070.7	3201.05
859.5922	1102.1767	4198.15	3327.4
859.7371	1104.1382	4355.05	3484.2
859.8821	1106.099	4600.95	3727.2
860.027	1108.0591	4835.8	3963.35
860.172	1110.0185	5042.7	4169.45
860.3169	1111.9771	5199.85	4329.85
860.4619	1113.9351	5376.25	4505.7
860.6068	1115.8923	5696.95	4826
860.7517	1117.8488	5974.05	5101.6
860.8967	1119.8045	5944.05	5072.3
861.0416	1121.7596	5592.35	4721
861.1865	1123.7139	5054.05	4183.2
861.3314	1125.6675	4658.9	3788.1
861.4763	1127.6204	4552.85	3680.85
861.6212	1129.5726	4616.95	3744.3
861.7661	1131.524	4711.8	3840.05
861.911	1133.4748	4610.65	3738.95
862.0559	1135.4248	4352.4	3478.9
862.2008	1137.3741	4095.05	3224.5
862.3457	1139.3226	3923.95	3050.65
862.4905	1141.2705	3864.15	2991.9
862.6354	1143.2176	3901.05	3021.75
862.7803	1145.164	3954.4	3081.45
862.9251	1147.1097	4013.95	3141.85
863.07	1149.0546	3971.4	3096.45
863.2148	1150.9989	3843.3	2970.25
863.3597	1152.9424	3730.05	2855.95
863.5045	1154.8852	3642	2767.1
863.6493	1156.8272	3600.5	2730
863.7942	1158.7686	3603.85	2724.45
863.939	1160.7092	3580.7	2707.25
864.0838	1162.6491	3597.7	2722.85
864.2286	1164.5883	3636.85	2763.9
864.3734	1166.5267	3696.95	2822.8
864.5182	1168.4644	3774.6	2903
864.663	1170.4014	3917.25	3038.4
864.8078	1172.3377	4064.35	3191.85
864.9526	1174.2732	4260.55	3387.7
865.0974	1176.2081	4562.55	3691.25
865.2421	1178.1421	5047.85	4171.35
865.3869	1180.0755	5646.7	4774.95
865.5317	1182.0082	6167.2	5292.95
865.6764	1183.9401	6367.35	5493.25
865.8212	1185.8713	6067.75	5193.85
865.9659	1187.8017	5511.55	4636.15
866.1106	1189.7315	4904.05	4031.75
866.2554	1191.6605	4499.7	3599.45
866.4001	1193.5888	4200.95	3329.85
866.5448	1195.5163	4027.75	3154.6
866.6895	1197.4432	3908.35	3030.65
866.8342	1199.3693	3822.7	2948.65
866.9789	1201.2947	3764.3	2882.55
867.1236	1203.2193	3688.5	2814.65
867.2683	1205.1432	3665.55	2791.95
867.413	1207.0664	3647.5	2771.65
867.5576	1208.9889	3641.8	2761.85
867.7023	1210.9106	3657.15	2783.65
867.847	1212.8316	3657.95	2784.4
867.9916	1214.7519	3709.45	2824.5
868.1363	1216.6715	3736.5	2863.1
868.2809	1218.5903	3810.75	2936.05
868.4255	1220.5084	3853.8	2979.5
868.5701	1222.4257	3918.5	3043.1
868.7148	1224.3424	3954.75	3081.45
868.8594	1226.2583	4021.3	3143
869.004	1228.1735	4141.85	3265.2
869.1486	1230.0879	4286.75	3411.4
869.2932	1232.0016	4455	3578.85
869.4377	1233.9146	4614.05	3734.9
869.5823	1235.8269	4717.05	3841.35
869.7269	1237.7384	4758.25	3881.55
869.8715	1239.6492	4727.15	3853.1
870.016	1241.5592	4748.3	3871.55
870.1606	1243.4686	4868.7	3992.8
870.3051	1245.3772	5159.7	4285.1
870.4496	1247.285	5530.35	4653.05
870.5941	1249.1922	5909.7	5034.9
870.7387	1251.0986	6218.35	5342.75
870.8832	1253.0042	6509.4	5630.4
871.0277	1254.9092	6879.95	6002.8
871.1722	1256.8134	7289	6413.65
871.3167	1258.7169	7785.45	6907
871.4611	1260.6196	8238.1	7362.2
871.6056	1262.5216	8557.05	7679.05
871.7501	1264.4229	8681	7806.15
871.8945	1266.3234	8601.5	7723.3
872.039	1268.2232	8381.4	7505.55
872.1834	1270.1223	8065.65	7187.6
872.3278	1272.0207	7797.95	6920.35
872.4723	1273.9183	7681.1	6798.8
872.6167	1275.8151	7626.9	6749.75
872.7611	1277.7113	7701.8	6823.6
872.9055	1279.6067	7967.3	7090.85
873.0499	1281.5014	8497.7	7619.5
873.1943	1283.3953	9323.6	8444.25
873.3386	1285.2885	10314.75	9436.4
873.483	1287.181	11255.65	10378.75
873.6274	1289.0727	11830.05	10952.85
873.7717	1290.9637	11756.2	10877.35
873.9161	1292.854	11258.9	10380.25
874.0604	1294.7435	10534.2	9653.8
874.2047	1296.6323	9851.4	8974
874.349	1298.5204	9210.65	8330.2
874.4933	1300.4077	8730.3	7853.65
874.6376	1302.2943	8399.45	7522.15
874.7819	1304.1802	8188.15	7312.35
874.9262	1306.0653	7966.15	7086.95
875.0705	1307.9497	7791.35	6913.55
875.2147	1309.8333	7677.5	6799.15
875.359	1311.7162	7569.3	6692.35
875.5032	1313.5984	7466.15	6585.35
875.6475	1315.4798	7391.1	6502.2
875.7917	1317.3605	7403.95	6511.2
875.9359	1319.2405	7472	6594.15
876.0801	1321.1197	7565.3	6685.15
876.2243	1322.9982	7544.55	6661.95
876.3685	1324.876	7379.15	6499.35
876.5127	1326.753	7048.15	6169.55
876.6569	1328.6293	6622.05	5740
876.801	1330.5048	6144.9	5264.9
876.9452	1332.3796	5676.1	4798.5
877.0893	1334.2537	5299.85	4396.85
877.2335	1336.127	5019.05	4140.8
877.3776	1337.9996	4846.9	3968.95
877.5217	1339.8714	4716.65	3836.6
877.6658	1341.7426	4643.65	3724.3
877.8099	1343.6129	4521.35	3645.15
877.954	1345.4826	4434.15	3557.5
878.0981	1347.3515	4370.8	3488.35
878.2422	1349.2196	4288.9	3407.2
878.3862	1351.087	4218.4	3338.05
878.5303	1352.9537	4185.35	3306.25
878.6743	1354.8197	4189	3311.85
878.8184	1356.6849	4231.35	3352.05
878.9624	1358.5493	4272	3393.3
879.1064	1360.4131	4348.7	3471.4
879.2504	1362.276	4518.6	3640.55
879.3944	1364.1383	4703.75	3826
879.5384	1365.9998	4835.05	3950.15
879.6823	1367.8606	4845.15	3966.95
879.8263	1369.7206	4800.9	3922.4
879.9702	1371.5799	4797.75	3917
880.1142	1373.4384	4810.45	3931.45
880.2581	1375.2962	4731.8	3852.05
880.402	1377.1533	4534	3656.9
880.5459	1379.0096	4292.4	3412.5
880.6898	1380.8652	4128.65	3248.05
880.8337	1382.7201	3994.65	3117.4
880.9776	1384.5742	3860.45	2981.45
881.1215	1386.4275	3745.75	2865.4
881.2653	1388.2802	3639.15	2763.5
881.4092	1390.132	3574.9	2695.75
881.553	1391.9832	3530.75	2650.2
881.6968	1393.8336	3511.3	2631.15
881.8406	1395.6832	3485.9	2603.55
881.9844	1397.5322	3445.85	2569.5
882.1282	1399.3803	3428.3	2541.8
882.272	1401.2278	3381.55	2500.75
882.4158	1403.0745	3329.35	2449.7
882.5595	1404.9204	3284.1	2404.8
882.7033	1406.7656	3277.6	2397.95
882.847	1408.6101	3251.7	2372.15
882.9908	1410.4538	3242.1	2361.1
883.1345	1412.2968	3234.65	2356.05
883.2782	1414.139	3232.45	2353.35
883.4219	1415.9805	3274.2	2394.45
883.5656	1417.8213	3310.1	2423.9
883.7092	1419.6613	3377.4	2499.05
883.8529	1421.5006	3499.35	2618.35
883.9965	1423.3391	3649.7	2768.45
884.1402	1425.1769	3870.1	2988.75
884.2838	1427.0139	4199.25	3318.4
884.4274	1428.8502	4627.3	3744.7
884.571	1430.6858	5024.5	4144.85
884.7146	1432.5206	5213.75	4335.6
884.8582	1434.3547	5225.9	4346.4
885.0018	1436.188	5153.15	4273.25
885.1453	1438.0206	5082.2	4202.5
885.2889	1439.8524	5032.55	4151.2
885.4324	1441.6835	5003.65	4123.15
885.5759	1443.5139	4992.1	4108.2
885.7194	1445.3435	5000.9	4121.4
885.8629	1447.1724	5031.25	4150.55
886.0064	1449.0005	5035.8	4156.65
886.1499	1450.8279	4999.65	4118.3
886.2933	1452.6545	4994.75	4114.1
886.4368	1454.4804	4970.2	4089.55
886.5802	1456.3056	4922.75	4035.7
886.7237	1458.13	4859.25	3979.6
886.8671	1459.9536	4751.5	3871.25
887.0105	1461.7766	4603	3721.2
887.1539	1463.5987	4441.7	3559.5
887.2972	1465.4202	4251.9	3371.7
887.4406	1467.2409	4070.8	3190.15
887.584	1469.0608	3920.65	3041.1
887.7273	1470.88	3757.6	2876.8
887.8706	1472.6984	3614.5	2733.9
888.0139	1474.5161	3478.4	2592.6
888.1572	1476.3331	3403.9	2525.2
888.3005	1478.1493	3332.75	2449.25
888.4438	1479.9648	3322.3	2443.2
888.5871	1481.7795	3297.25	2413.85
888.7303	1483.5935	3302.9	2422.85
888.8736	1485.4067	3303.35	2421.5
889.0168	1487.2192	3318.45	2435.75
889.16	1489.031	3325.75	2442.9
889.3032	1490.842	3332.65	2452.25
889.4464	1492.6522	3336.6	2455.35
889.5896	1494.4618	3328.15	2446.7
889.7327	1496.2705	3315.9	2433.65
889.8759	1498.0785	3312.65	2431.15
890.019	1499.8858	3286.3	2404.3
890.1622	1501.6924	3254.55	2374.35
890.3053	1503.4981	3230.85	2349.15
890.4484	1505.3032	3218.9	2338.1
890.5914	1507.1075	3181.4	2298.6
890.7345	1508.911	3156.25	2275.5
890.8776	1510.7138	3140.9	2258.7
891.0206	1512.5159	3124.25	2243.25
891.1637	1514.3172	3082.8	2201.5
891.3067	1516.1178	3040.95	2162.2
891.4497	1517.9176	3033.8	2150.7
891.5927	1519.7166	3005.4	2127.65
891.7357	1521.515	2993.3	2103.9
891.8786	1523.3126	2948.05	2066.25
892.0216	1525.1094	2947.7	2065.15
892.1645	1526.9055	2926.05	2044.7
892.3074	1528.7008	2897.75	2016.4
892.4503	1530.4954	2892.8	2005.65
892.5932	1532.2893	2879.2	1999.25
892.7361	1534.0824	2853.4	1967.65
892.879	1535.8747	2867.65	1987.35
893.0218	1537.6663	2883.5	2001.75
893.1647	1539.4572	2863.95	1980.4
893.3075	1541.2473	2870.65	1987.75
893.4503	1543.0367	2874.35	1994.2
893.5931	1544.8253	2883.6	1998.25
893.7359	1546.6132	2881.45	1996.35
893.8787	1548.4003	2900.85	2008.15
894.0214	1550.1867	2942.6	2052.35
894.1642	1551.9723	2976.95	2092.05
894.3069	1553.7572	3023	2138.75
894.4496	1555.5414	3103.05	2221.05
894.5923	1557.3247	3220.75	2336.3
894.735	1559.1074	3379.85	2498.25
894.8777	1560.8893	3546.15	2665
895.0204	1562.6705	3735.85	2851.95
895.163	1564.4509	3916.05	3034.6
895.3056	1566.2305	4006.85	3127.35
895.4482	1568.0094	4045.3	3164.15
895.5908	1569.7876	4048.85	3168.65
895.7334	1571.565	4032.7	3151
895.876	1573.3417	4044.25	3161.8
896.0186	1575.1176	4057.25	3176.25
896.1611	1576.8928	4120.1	3236.95
896.3036	1578.6672	4221	3337.65
896.4461	1580.4409	4372.2	3491.3
896.5886	1582.2138	4556.9	3673.85
896.7311	1583.986	4752.85	3869.9
896.8736	1585.7575	4961.15	4078.45
897.0161	1587.5282	5182.55	4301.65
897.1585	1589.2981	5348.75	4468.3
897.3009	1591.0673	5450.4	4569.15
897.4433	1592.8358	5505.9	4624.55
897.5857	1594.6035	5509.95	4625.2
897.7281	1596.3704	5447.05	4564.85
897.8705	1598.1366	5362.4	4479.55
898.0128	1599.9021	5249.2	4367.4
898.1551	1601.6668	5113.55	4228.5
898.2975	1603.4308	4989.95	4107.85
898.4398	1605.194	4917.25	4028.75
898.5821	1606.9564	4964.45	4083.55
898.7243	1608.7182	5149.45	4262.9
898.8666	1610.4791	5496.05	4613.2
899.0088	1612.2394	6006.65	5124.85
899.1511	1613.9988	6587.1	5704.5
899.2933	1615.7576	7140.65	6259
899.4355	1617.5156	7485.85	6597.95
899.5776	1619.2728	7544.5	6662.95
899.7198	1621.0293	7302.1	6420.5
899.862	1622.785	6794.65	5907.3
900.0041	1624.54	6157.9	5273.55
900.1462	1626.2942	5522.05	4639.5
900.2883	1628.0477	4927.65	4040.2
900.4304	1629.8005	4455.1	3570.45
900.5725	1631.5525	4067.9	3187.25
900.7145	1633.3037	3754.2	2870.95
900.8566	1635.0542	3540.05	2656
900.9986	1636.804	3348.35	2464.5
901.1406	1638.553	3254.85	2311.2
901.2826	1640.3013	3091.55	2210.95
901.4245	1642.0488	2988.8	2105.55
901.5665	1643.7955	2908.55	2028
901.7085	1645.5416	2856.65	1974.2
901.8504	1647.2868	2794.8	1914.2
901.9923	1649.0313	2762.4	1879.7
902.1342	1650.7751	2737.4	1853.1
902.2761	1652.5181	2706.3	1824.4
902.4179	1654.2604	2690.7	1806.5
902.5598	1656.0019	2702	1820.4
902.7016	1657.7427	2738.1	1854.9
902.8434	1659.4828	2807	1923.3
902.9852	1661.222	2930.95	2047.15
903.127	1662.9606	3113.7	2229.7
903.2687	1664.6984	3323.3	2442.35
903.4105	1666.4354	3478.15	2592.2
903.5522	1668.1717	3512.65	2631.05
903.6939	1669.9072	3380.95	2498.4
903.8356	1671.642	3161.45	2276.9
903.9773	1673.3761	2919.9	2039.5
904.119	1675.1094	2725.6	1844.05
904.2606	1676.8419	2580.1	1695.4
904.4022	1678.5737	2489.4	1605.7
904.5439	1680.3048	2416.5	1534.65
904.6855	1682.0351	2357.1	1475.8
904.827	1683.7646	2343.6	1457.25
904.9686	1685.4934	2301.6	1419.9
905.1101	1687.2215	2280.15	1397.9
905.2517	1688.9488	2251.95	1370.4
905.3932	1690.6754	2239.45	1358.25
905.5347	1692.4012	2231.9	1349.85
905.6761	1694.1263	2222.6	1341.65
905.8176	1695.8506	2212.15	1327.85
905.9591	1697.5742	2201.2	1319.5
906.1005	1699.297	2191.45	1309.25
906.2419	1701.0191	2174.15	1290.7
906.3833	1702.7404	2165.8	1283.65
906.5246	1704.461	2149.55	1265.4
906.666	1706.1808	2131.45	1248.75
906.8073	1707.8999	2135.6	1251.3
906.9487	1709.6182	2127.15	1245.4
907.09	1711.3358	2122.6	1239.9
907.2313	1713.0527	2113.1	1231.25
907.3725	1714.7688	2105.4	1217.25
907.5138	1716.4841	2100.05	1215.85
907.655	1718.1987	2089.9	1201.35
907.7962	1719.9126	2083.95	1202.35
907.9374	1721.6257	2078.55	1192.95
908.0786	1723.338	2065.8	1181.05
908.2198	1725.0496	2062.6	1179.25
908.3609	1726.7605	2067.15	1182.85
908.502	1728.4706	2051	1165.9
908.6431	1730.18	2057.3	1173.5
908.7842	1731.8886	2044	1162.05
908.9253	1733.5964	2060.15	1158.05
909.0664	1735.3036	2040	1154.4
909.2074	1737.0099	2030.25	1147.35
909.3484	1738.7156	2025.65	1144.4
909.4894	1740.4204	2028.15	1141.1
909.6304	1742.1246	2015.35	1129.55
909.7714	1743.8279	2012.8	1130.65
909.9123	1745.5306	2011.45	1127.9
910.0532	1747.2325	2004.3	1120.7
910.1941	1748.9336	1997	1115.1
910.335	1750.634	1996.2	1109.45
910.4759	1752.3336	1995.3	1112.75
910.6168	1754.0325	1986.5	1106.1
910.7576	1755.7307	1976.9	1094.85
910.8984	1757.4281	1991.55	1109.3
911.0392	1759.1247	1988.7	1097.25
911.18	1760.8206	1971.7	1084.2
911.3208	1762.5158	1978.75	1092.3
911.4615	1764.2102	1960.05	1078.5
911.6022	1765.9039	1965.9	1082.1
911.7429	1767.5968	1961.8	1079.55
911.8836	1769.289	1946.95	1064.7
912.0243	1770.9804	1959.2	1076.7
912.1649	1772.6711	1959.6	1076.35
912.3056	1774.361	1946.9	1063.9
912.4462	1776.0502	1942	1058.9
912.5868	1777.7386	1947.4	1060.7
912.7274	1779.4263	1940.2	1056.25
912.8679	1781.1132	1942.15	1059.2
913.0084	1782.7994	1938.9	1055.35
913.149	1784.4849	1944.75	1061.2
913.2895	1786.1696	1927.65	1038.05
913.4299	1787.8535	1926.4	1044
913.5704	1789.5367	1915.5	1032.75
913.7108	1791.2192	1915.4	1031.6
913.8513	1792.9009	1929.1	1030.4
913.9917	1794.5818	1910.65	1025.95
914.132	1796.2621	1907.15	1026.85
914.2724	1797.9415	1901.9	1019.35
914.4128	1799.6202	1890.55	1005.4
914.5531	1801.2982	1898	1014.85
914.6934	1802.9755	1893.05	1008.9
914.8337	1804.6519	1885.25	1003.2
914.9739	1806.3277	1874.8	991.6
915.1142	1808.0027	1882.05	1000.4
915.2544	1809.6769	1881.3	1000
915.3946	1811.3504	1867.1	982.2
915.5348	1813.0231	1866.15	981.05
915.675	1814.6951	1874.4	993.35
915.8151	1816.3664	1871.2	985.95
915.9553	1818.0369	1869.45	986.05
916.0954	1819.7067	1864.15	980.2
916.2355	1821.3757	1854.1	968.3
916.3755	1823.044	1854.85	971.7
916.5156	1824.7115	1858.7	975
916.6556	1826.3783	1842	960.5
916.7956	1828.0443	1847.1	964.3
916.9356	1829.7096	1844.85	961.2
917.0756	1831.3741	1850.6	965.95
917.2155	1833.0379	1844.45	961.2
917.3555	1834.701	1845.55	960.25
917.4954	1836.3633	1835.8	950.6
917.6353	1838.0248	1842.5	956.95
917.7751	1839.6856	1842.95	960.35
917.915	1841.3457	1841.25	959.5
918.0548	1843.005	1832.9	950.3
918.1946	1844.6636	1832.9	950
918.3344	1846.3214	1827.55	944.85
918.4742	1847.9785	1821.9	940.65
918.6139	1849.6349	1828.5	944.55
918.7537	1851.2904	1831.15	940.6
918.8934	1852.9453	1824	943.05
919.0331	1854.5994	1826.9	940.55
919.1727	1856.2528	1820.6	931.65
919.3124	1857.9054	1810.35	926
919.452	1859.5572	1804.5	921.85
919.5916	1861.2083	1807.15	923.1
919.7312	1862.8587	1814.25	931.4
919.8708	1864.5084	1807.6	922.65
920.0103	1866.1572	1795.35	911.6
920.1498	1867.8054	1794	910.6
920.2893	1869.4528	1801.35	917.2
920.4288	1871.0994	1794.8	912.4
920.5683	1872.7453	1793.85	909.7
920.7077	1874.3905	1789.55	901.1
920.8471	1876.0349	1780.05	897.15
920.9865	1877.6786	1784.45	900.4
921.1259	1879.3215	1783.8	899.95
921.2653	1880.9637	1782.15	898.8
921.4046	1882.6051	1779.95	896.8
921.5439	1884.2458	1778.8	893.9
921.6832	1885.8858	1772.3	886.45
921.8225	1887.525	1775.45	891.25
921.9617	1889.1634	1757.6	873.6
922.101	1890.8011	1755.85	871.9
922.2402	1892.4381	1759.25	876.25
922.3794	1894.0743	1763.35	878.95
922.5185	1895.7098	1758.55	877.65
922.6577	1897.3446	1760.05	877.1
922.7968	1898.9786	1749.05	863.2
922.9359	1900.6118	1745.3	864.6
923.075	1902.2443	1741.9	855.75
923.214	1903.8761	1735.7	851.8
923.3531	1905.5071	1728.3	843.3
923.4921	1907.1374	1717.75	833.65
923.6311	1908.7669	1726.95	841.4
923.77	1910.3957	1726.8	841.35
923.909	1912.0237	1720.95	836.85
924.0479	1913.651	1712.55	828.1
924.1868	1915.2776	1709.1	827.55
924.3257	1916.9034	1715.2	833.05
924.4646	1918.5285	1707.8	826.75
924.6034	1920.1528	1708	825.05
924.7422	1921.7764	1699.75	818.05
924.881	1923.3992	1697.5	815.8
925.0198	1925.0213	1695.95	813.35
925.1586	1926.6427	1696.3	813.4
925.2973	1928.2633	1766.7	795.95
925.436	1929.8832	1688.4	803.75
925.5747	1931.5023	1689.65	808.45
925.7134	1933.1207	1681.45	797.6
925.852	1934.7383	1695.35	809.7
925.9906	1936.3552	1681.45	799.5
926.1292	1937.9714	1668.85	783.4
926.2678	1939.5868	1669.05	784.75
926.4064	1941.2015	1671.8	786
926.5449	1942.8154	1663.45	779.9
926.6834	1944.4286	1663.3	779.4
926.8219	1946.041	1683.45	774.35
926.9604	1947.6528	1662.85	775.75
927.0988	1949.2637	1662.75	779.1
927.2372	1950.8739	1658.5	773.5
927.3756	1952.4834	1647.3	762.7
927.514	1954.0921	1651.5	765.4
927.6523	1955.7001	1648.95	762
927.7907	1957.3074	1630.6	748.6
927.929	1958.9139	1632.2	749.95
928.0673	1960.5197	1640.4	755.05
928.2055	1962.1247	1624.95	742
928.3438	1963.729	1624.5	742
928.482	1965.3325	1653.75	744.9
928.6202	1966.9353	1631.5	747
928.7584	1968.5374	1625.85	742.35
928.8965	1970.1387	1614.95	730.3
929.0346	1971.7393	1618.1	735.95
929.1727	1973.3392	1617.1	732.35
929.3108	1974.9383	1622.5	738.85
929.4489	1976.5366	1598.8	715.8
929.5869	1978.1342	1597.05	713.55
929.7249	1979.7311	1608	723.2
929.8629	1981.3273	1601.1	715.85
930.0009	1982.9227	1604.2	718.95
930.1388	1984.5173	1598.15	714.4
930.2767	1986.1112	1590.9	706.5
930.4146	1987.7044	1586.85	704.95
930.5525	1989.2968	1584.65	699.85
930.6904	1990.8885	1588.1	702.85
930.8282	1992.4795	1584.45	698.5
930.966	1994.0697	1591.4	707.15
931.1038	1995.6592	1582	697.8
931.2415	1997.2479	1574.95	691.8
931.3793	1998.8359	1580.9	696.4
931.517	2000.4232	1582.6	700.1
931.6547	2002.0097	1578.15	693.95
931.7923	2003.5955	1574.75	690.35
931.93	2005.1805	1568.95	683.6
932.0676	2006.7648	1567.7	683.25
932.2052	2008.3484	1572.1	687.25
932.3427	2009.9312	1567.7	684.25
932.4803	2011.5133	1569.7	688.25
932.6178	2013.0946	1561	676.55
932.7553	2014.6752	1558.25	675.3
932.8928	2016.2551	1565.2	680.2
933.0302	2017.8342	1555.25	672.2
933.1676	2019.4126	1556.35	673.7
933.305	2020.9902	1551.4	668
933.4424	2022.5672	1545.65	660.65
933.5798	2024.1433	1551.75	664
933.7171	2025.7188	1546.8	664.7
933.8544	2027.2935	1544.4	659.7
933.9917	2028.8674	1545.05	661.6
934.129	2030.4406	1535.35	652.25
934.2662	2032.0131	1529.9	647.3
934.4034	2033.5849	1543.75	649.15
934.5406	2035.1559	1532.45	649.9
934.6778	2036.7261	1532.8	650.2
934.8149	2038.2957	1521.85	639
934.952	2039.8645	1533.2	649.2
935.0891	2041.4325	1528.55	642.5
935.2262	2042.9998	1520.2	636.55
935.3632	2044.5664	1515.05	630.5
935.5002	2046.1323	1524.75	643.25
935.6372	2047.6974	1521.15	638.3
935.7742	2049.2617	1515.4	634.55
935.9111	2050.8254	1550.05	632.1
936.048	2052.3883	1514.85	630.35
936.1849	2053.9504	1517.2	633.1
936.3218	2055.5118	1507.55	623.25
936.4586	2057.0725	1510	622.8
936.5955	2058.6325	1506.1	621.4
936.7323	2060.1917	1503.05	621.6
936.869	2061.7502	1510.3	624.9
937.0058	2063.3079	1496.1	612.6
937.1425	2064.8649	1498.6	609.45
937.2792	2066.4212	1500.35	616.65
937.4159	2067.9767	1498.9	614.9
937.5525	2069.5315	1494.45	611
937.6891	2071.0856	1484.9	601.25
937.8257	2072.6389	1493.75	609.7
937.9623	2074.1915	1489.9	607.5
938.0989	2075.7433	1494.2	609.3
938.2354	2077.2945	1484.05	600.55
938.3719	2078.8448	1475.35	592.75
938.5084	2080.3945	1475.7	593.2
938.6448	2081.9434	1485.8	602.6
938.7812	2083.4916	1475.3	590.1
938.9176	2085.039	1479.35	594.25
939.054	2086.5857	1473.9	588.65
939.1903	2088.1317	1477.05	593.9
939.3267	2089.677	1469.05	585.35
939.463	2091.2215	1466.1	583.55
939.5992	2092.7652	1469.95	585.35
939.7355	2094.3083	1464.6	580.75
939.8717	2095.8506	1464.6	581.3
940.0079	2097.3921	1465.1	583
940.1441	2098.933	1456.3	574.7
940.2802	2100.4731	1451.65	568.65
940.4163	2102.0124	1475.75	574.9
940.5524	2103.5511	1465.25	583.95
940.6885	2105.089	1453.05	568.95
940.8245	2106.6261	1455.2	570.85
940.9606	2108.1626	1455.95	570.55
941.0965	2109.6983	1487.6	576.85
941.2325	2111.2332	1453.3	571
941.3684	2112.7675	1443.5	558.55
941.5044	2114.301	1450.9	566.05
941.6403	2115.8337	1451.7	568.6
941.7761	2117.3657	1446.85	564.25
941.912	2118.897	1451.8	566.65
942.0478	2120.4276	1450.6	560.5
942.1835	2121.9575	1447.95	563.4
942.3193	2123.4866	1460.3	565.15
942.455	2125.0149	1439.45	552.95
942.5907	2126.5426	1435.7	552.6
942.7264	2128.0695	1436.05	549.3
942.8621	2129.5956	1435.9	555.05
942.9977	2131.1211	1433.2	544.9
943.1333	2132.6458	1429.35	547.1
943.2689	2134.1698	1430.6	547.15
943.4044	2135.693	1436.35	552.1
943.54	2137.2155	1430.65	545.6
943.6755	2138.7373	1433.6	550.1
943.8109	2140.2584	1430.75	547.75
943.9464	2141.7787	1427.75	539.15
944.0818	2143.2983	1421.55	537.95
944.2172	2144.8171	1420.95	539.5
944.3526	2146.3353	1425.1	540.1
944.4879	2147.8527	1415.5	534.95
944.6232	2149.3693	1405.9	523.1
944.7585	2150.8853	1418.35	534.45
944.8938	2152.4005	1413.55	530.5
945.029	2153.9149	1409.55	525.9
945.1642	2155.4287	1416.25	531.8
945.2994	2156.9417	1410.8	528.4
945.4346	2158.454	1402.8	516.8
945.5697	2159.9655	1407.4	525.15
945.7048	2161.4764	1404.5	520.55
945.8399	2162.9865	1403.95	519.9
945.9749	2164.4958	1403.9	519.7
946.1099	2166.0045	1398.3	512.65
946.2449	2167.5124	1397.25	513.65
946.3799	2169.0195	1401.15	518.35
946.5148	2170.526	1400.8	518.65
946.6498	2172.0317	1395.75	511.75
946.7846	2173.5367	1391.3	507.8
946.9195	2175.0409	1392.4	510.3
947.0543	2176.5445	1400.3	517
947.1891	2178.0473	1383.8	500.05
947.3239	2179.5494	1397.7	511.85
947.4587	2181.0507	1384.4	500.35
947.5934	2182.5513	1387.85	505.2
947.7281	2184.0512	1379.2	496.9
947.8628	2185.5504	1380	496.8
947.9974	2187.0488	1378.2	494.8
948.132	2188.5465	1385.45	503.8
948.2666	2190.0435	1376.25	491.4
948.4012	2191.5397	1383.45	502.8
948.5357	2193.0353	1378.45	497.3
948.6702	2194.5301	1378.75	495.05
948.8047	2196.0241	1374.6	491.15
948.9392	2197.5175	1371.4	488.3
949.0736	2199.0101	1379.55	493.6
949.208	2200.502	1373.1	493
949.3424	2201.9931	1370.9	487.9
949.4767	2203.4835	1368	483.8
949.611	2204.9733	1382.65	481.05
949.7453	2206.4622	1367.6	484.45
949.8796	2207.9505	1368.1	482.9
950.0138	2209.438	1361.6	481.75
950.148	2210.9248	1364.85	479.25
950.2822	2212.4109	1361.2	478.7
950.4164	2213.8962	1356.65	471.95
950.5505	2215.3809	1360.4	475.95
950.6846	2216.8648	1355.2	471.4
950.8186	2218.3479	1356.4	468.4
950.9527	2219.8304	1352.9	466.35
951.0867	2221.3121	1351.95	468.3
951.2207	2222.7931	1346.55	465.6
951.3546	2224.2733	1346.1	462.35
951.4886	2225.7529	1342.15	458
951.6225	2227.2317	1340.35	453.95
951.7563	2228.7098	1342.6	457.8
951.8902	2230.1872	1333.95	451
952.024	2231.6638	1338	453.25
952.1578	2233.1397	1339.55	449.65
952.2916	2234.6149	1339.1	456.6
952.4253	2236.0894	1332.95	449.95
952.559	2237.5632	1337.45	445.05
952.6927	2239.0362	1333.25	449.5
952.8263	2240.5085	1329.5	448.05
952.9599	2241.9801	1324.35	439.85
953.0935	2243.4509	1324.9	442.95
953.2271	2244.921	1322.8	438.25
953.3606	2246.3904	1322.2	437
953.4941	2247.8591	1322.25	440.15
953.6276	2249.3271	1317	433.95
953.7611	2250.7943	1317.9	433.3
953.8945	2252.2608	1318.35	434.7
954.0279	2253.7266	1313.85	431.8
954.1612	2255.1917	1313.1	432.15
954.2946	2256.656	1304.6	419.2
954.4279	2258.1197	1306.9	424.6
954.5612	2259.5826	1313.85	428.85
954.6944	2261.0447	1309.7	423.75
954.8276	2262.5062	1306.05	421.45
954.9608	2263.9669	1313.8	428.3
955.094	2265.4269	1303.1	420.35
955.2271	2266.8862	1307.5	422.4
955.3602	2268.3448	1301.4	417.2
955.4933	2269.8026	1303.35	420.5
955.6264	2271.2598	1298.3	414.65
955.7594	2272.7162	1294.2	414.25
955.8924	2274.1719	1295.4	411.7
956.0253	2275.6268	1293.15	411.6
956.1583	2277.0811	1298.05	414.1
956.2912	2278.5346	1294.15	411.85
956.4241	2279.9874	1290.45	406.4
956.5569	2281.4395	1296.5	412.95
956.6897	2282.8908	1301.25	412
956.8225	2284.3414	1298.95	413.1
956.9553	2285.7914	1291.8	407.6
957.088	2287.2406	1297.55	412.7
957.2207	2288.689	1296	414.7
957.3534	2290.1368	1296.55	412
957.486	2291.5838	1290.7	408.85
957.6186	2293.0302	1287.3	404.35
957.7512	2294.4758	1287.15	402.3
957.8838	2295.9206	1289.2	404.6
958.0163	2297.3648	1283.4	398.9
958.1488	2298.8082	1290.95	406.25
958.2813	2300.251	1291.3	410.05
958.4137	2301.693	1291.6	405.05
958.5461	2303.1343	1290.7	407.75
958.6785	2304.5748	1281.3	397.05
958.8108	2306.0147	1281.55	397.3
958.9432	2307.4538	1282.85	396.95
959.0754	2308.8922	1277	395.25
959.2077	2310.3299	1277.25	395.05
959.3399	2311.7669	1276.9	393.75
959.4721	2313.2031	1275.85	393.85
959.6043	2314.6387	1273.85	391.2
959.7365	2316.0735	1271	385.95
959.8686	2317.5076	1276.7	394.8
960.0006	2318.941	1270.85	388.15
960.1327	2320.3737	1271.75	387.25
960.2647	2321.8056	1268.55	382.15
960.3967	2323.2369	1268.05	382.95
960.5287	2324.6674	1270.9	386
960.6606	2326.0972	1264.65	380.25
960.7925	2327.5263	1266.95	382.9
960.9244	2328.9547	1270.9	388.5
961.0562	2330.3823	1268.6	385.2
961.1881	2331.8092	1267.75	382.25
961.3198	2333.2355	1255.3	372.9
961.4516	2334.661	1263.45	380.35
961.5833	2336.0858	1263.45	377.2
961.715	2337.5098	1254.6	371.45
961.8467	2338.9332	1257.65	376.15
961.9783	2340.3558	1254.15	369.4
962.1099	2341.7778	1253.95	370.25
962.2415	2343.199	1256	371.2
962.373	2344.6195	1256.35	370.9
962.5045	2346.0393	1251.5	370.35
962.636	2347.4583	1246.9	363.75
962.7675	2348.8767	1252.85	368
962.8989	2350.2943	1254.7	368.65
963.0303	2351.7113	1249.5	362.3
963.1617	2353.1275	1250.45	365.65
963.293	2354.543	1253.9	360.85
963.4243	2355.9578	1245.15	363.05
963.5556	2357.3718	1248.05	363.15
963.6868	2358.7852	1247.95	362.8
963.818	2360.1978	1248.95	365.25
963.9492	2361.6098	1241.8	359.35
964.0803	2363.021	1246.85	359.6
964.2114	2364.4315	1241.25	356.05
964.3425	2365.8413	1245.75	359.85
964.4736	2367.2504	1239.85	357.6
964.6046	2368.6587	1234.55	350.4
964.7356	2370.0664	1240.3	357.45
964.8666	2371.4733	1241.45	358.55
964.9975	2372.8795	1232.8	351.2
965.1284	2374.285	1236.7	352.4
965.2593	2375.6899	1235.5	353.3
965.3901	2377.0939	1240.65	356.6
965.5209	2378.4973	1230.75	346.7
965.6517	2379.9	1231.3	345
965.7825	2381.3019	1242.1	357.5
965.9132	2382.7032	1233.05	351.6
966.0439	2384.1037	1234.25	353.45
966.1745	2385.5035	1230.8	347.4
966.3051	2386.9027	1231.25	349.05
966.4357	2388.3011	1236.95	350.5
966.5663	2389.6987	1229.6	346.85
966.6968	2391.0957	1221.4	337.45
966.8273	2392.492	1222.95	339.2
966.9578	2393.8876	1216.6	332.25
967.0882	2395.2824	1215.35	329.95
967.2186	2396.6765	1215.25	333.85
967.349	2398.07	1215.85	333.85
967.4793	2399.4627	1222.25	338.7
967.6097	2400.8547	1218.8	335.2
967.7399	2402.246	1217.85	329.15
967.8702	2403.6366	1213.25	329.75
968.0004	2405.0265	1213.9	330.3
968.1306	2406.4156	1211.35	323.8
968.2607	2407.8041	1210.95	323.3
968.3909	2409.1918	1206.8	320.35
968.521	2410.5789	1212.35	331
968.651	2411.9652	1209.9	323.2
968.781	2413.3508	1210.2	326.25
968.911	2414.7358	1210.5	326.4
969.041	2416.12	1203.75	321.9
969.1709	2417.5035	1203.25	319.35
969.3008	2418.8863	1208.4	322.1
969.4307	2420.2684	1207.95	324.15
969.5606	2421.6497	1200.95	317.45
969.6904	2423.0304	1201.35	318.3
969.8201	2424.4104	1203.55	319.6
969.9499	2425.7896	1199.8	313.35
970.0796	2427.1682	1193.4	306.6
970.2093	2428.546	1201.25	316.8
970.3389	2429.9232	1205.1	319.85
970.4685	2431.2996	1194.8	313.5
970.5981	2432.6753	1194.75	310.15
970.7277	2434.0503	1198.35	313.7
970.8572	2435.4246	1197.1	313.8
970.9867	2436.7982	1194	307.35
971.1161	2438.1711	1193.45	311.5
971.2456	2439.5433	1195.6	310.4
971.375	2440.9148	1197.25	310.35
971.5043	2442.2856	1188.6	305.05
971.6336	2443.6557	1188.8	303.55
971.7629	2445.025	1184.45	301.65
971.8922	2446.3937	1188.45	305.25
972.0214	2447.7617	1186.9	302.25
972.1506	2449.1289	1187.85	304.2
972.2798	2450.4955	1193.7	306.6
972.4089	2451.8613	1186.75	305.5
972.538	2453.2265	1186.35	301.85
972.6671	2454.5909	1182.8	298.35
972.7961	2455.9546	1179.4	295.9
972.9251	2457.3177	1181.2	299.4
973.0541	2458.68	1180.85	295.55
973.1831	2460.0416	1183.7	301.6
973.312	2461.4025	1183.05	297.65
973.4408	2462.7627	1194.6	300.45
973.5697	2464.1222	1177.2	293.65
973.6985	2465.4811	1186.4	302.35
973.8273	2466.8392	1179.65	295.85
973.956	2468.1966	1180.45	295
974.0847	2469.5533	1179.85	292.7
974.2134	2470.9093	1176.6	289.6
974.3421	2472.2645	1179.35	293.7
974.4707	2473.6191	1178.6	295.1
974.5993	2474.973	1175.75	291.85
974.7278	2476.3262	1176.55	291.9
974.8563	2477.6787	1169.65	287.05
974.9848	2479.0305	1178.4	296.05
975.1132	2480.3816	1180.4	296.25
975.2417	2481.7319	1173.5	290.35
975.37	2483.0816	1174.5	290.95
975.4984	2484.4306	1174.1	289.1
975.6267	2485.7789	1174	290.8
975.755	2487.1264	1177.2	290.55
975.8833	2488.4733	1174.8	291.85
976.0115	2489.8195	1186.65	296.6
976.1397	2491.165	1174.65	288
976.2678	2492.5097	1168.7	283.2
976.3959	2493.8538	1167.9	282.3
976.524	2495.1972	1174.2	290.95
976.6521	2496.5398	1168.25	283.1
976.7801	2497.8818	1169.6	285.6
976.9081	2499.2231	1167.2	282.45
977.036	2500.5637	1168.5	282.3
977.164	2501.9035	1168.05	284.35
977.2918	2503.2427	1170.4	282.65
977.4197	2504.5812	1163.5	281.55
977.5475	2505.919	1169.75	282.7
977.6753	2507.256	1163.65	280.8
977.8031	2508.5924	1167.4	283.5
977.9308	2509.9281	1171.05	281.35
978.0585	2511.2631	1167.3	284.15
978.1861	2512.5974	1157.35	276.4
978.3137	2513.9309	1158.6	276.1
978.4413	2515.2638	1185.7	276.6
978.5689	2516.596	1156.55	274.6
978.6964	2517.9275	1160	275.8
978.8239	2519.2583	1157.75	271.65
978.9513	2520.5884	1157.2	270.65
979.0788	2521.9178	1162	278.45
979.2062	2523.2465	1155.9	272.2
979.3335	2524.5745	1152.05	267.55
979.4608	2525.9018	1159.65	275.75
979.5881	2527.2284	1154.5	271.3
979.7154	2528.5543	1153.3	271.1
979.8426	2529.8796	1155	270.1
979.9698	2531.2041	1152.95	270.75
980.0969	2532.5279	1148.7	266.35
980.224	2533.851	1153.75	268.9
980.3511	2535.1735	1148.5	263.35
980.4781	2536.4952	1146.4	263.3
980.6052	2537.8163	1150.55	266.95
980.7321	2539.1366	1148.2	265.85
980.8591	2540.4562	1152.4	268.65
980.986	2541.7752	1151.15	267.8
981.1129	2543.0935	1149.75	266.7
981.2397	2544.411	1146.85	261.95
981.3665	2545.7279	1148.2	264.35
981.4933	2547.0441	1147.2	263.7
981.62	2548.3596	1146.9	260.1
981.7467	2549.6744	1141.15	258.35
981.8734	2550.9885	1149.25	257.65
982.0001	2552.3019	1144.95	261.1
982.1267	2553.6146	1143.35	259.35
982.2532	2554.9266	1137.4	252.4
982.3798	2556.2379	1143	258.6
982.5063	2557.5485	1141.95	259.75
982.6327	2558.8585	1146.4	252.9
982.7592	2560.1677	1140.55	253
982.8856	2561.4762	1144.2	258.4
983.0119	2562.7841	1143.45	257.4
983.1383	2564.0913	1138.95	256
983.2646	2565.3977	1134.1	250.2
983.3908	2566.7035	1141.3	258.6
983.517	2568.0086	1144.15	261.5
983.6432	2569.313	1135.85	251.4
983.7694	2570.6167	1144.55	257
983.8955	2571.9197	1135.25	252.05
984.0216	2573.222	1143.1	254.75
984.1476	2574.5236	1136.55	252.6
984.2737	2575.8246	1143.05	254.1
984.3996	2577.1248	1138.95	255.25
984.5256	2578.4244	1133.5	252.2
984.6515	2579.7232	1132.85	250.7
984.7774	2581.0214	1162.45	254.8
984.9032	2582.3189	1133.95	250.85
985.029	2583.6157	1133.55	246.45
985.1548	2584.9118	1134.75	250.5
985.2806	2586.2072	1136.3	253
985.4063	2587.5019	1135.25	253.05
985.5319	2588.7959	1130.5	244.95
985.6576	2590.0893	1137.8	252.9
985.7832	2591.3819	1137.25	253.8
985.9087	2592.6739	1141.55	257.9
986.0343	2593.9652	1137.95	254.75
986.1597	2595.2557	1136.2	252.55
986.2852	2596.5456	1144.15	259.05
986.4106	2597.8348	1142.95	260.1
986.536	2599.1234	1138.65	255.9
986.6614	2600.4112	1141.55	257.65
986.7867	2601.6983	1150.9	263.25
986.912	2602.9848	1144.75	259.95
987.0372	2604.2705	1150.25	259.2
987.1624	2605.5556	1144.45	259.2
987.2876	2606.84	1148.15	265.9
987.4128	2608.1237	1139.75	256.2
987.5379	2609.4067	1140.65	254.65
987.6629	2610.689	1143.65	251.45
987.788	2611.9707	1142.9	255.25
987.913	2613.2516	1140.05	251.4
988.0379	2614.5319	1133.75	249
988.1629	2615.8115	1134.1	249.8
988.2878	2617.0903	1134.7	248.95
988.4126	2618.3685	1138.75	255.5
988.5375	2619.6461	1134.15	249.05
988.6622	2620.9229	1129.2	247.15
988.787	2622.199	1129.2	242.95
988.9117	2623.4745	1128.75	244.6
989.0364	2624.7493	1126.05	241.75
989.161	2626.0234	1124.45	240.65
989.2857	2627.2968	1126.55	244.55
989.4102	2628.5695	1127.6	242.8
989.5348	2629.8415	1129.4	246.65
989.6593	2631.1128	1124.15	238.7
989.7837	2632.3835	1121.4	238.35
989.9082	2633.6535	1122.45	239.4
990.0326	2634.9228	1122.65	240.75
990.1569	2636.1914	1123.7	239.35
990.2812	2637.4593	1127.05	239.5
990.4055	2638.7265	1122.95	238.8
990.5298	2639.9931	1121.7	238.45
990.654	2641.259	1121.1	237.45
990.7782	2642.5242	1121.8	237.15
990.9023	2643.7887	1119.35	233.05
991.0264	2645.0525	1121.95	238.45
991.1505	2646.3156	1117.45	231.35
991.2745	2647.5781	1112.95	229.05
991.3985	2648.8398	1113.95	231.9
991.5225	2650.1009	1148.1	227.85
991.6464	2651.3613	1119.25	236.95
991.7703	2652.6211	1115.6	230.8
991.8942	2653.8801	1109.1	227.55
992.018	2655.1385	1116.95	228.2
992.1418	2656.3961	1107.55	223.4
992.2655	2657.6531	1109.35	226.45
992.3892	2658.9094	1102.65	216.75
992.5129	2660.1651	1108.4	224.6
992.6366	2661.42	1107.55	224.6
992.7602	2662.6743	1111	226.3
992.8837	2663.9279	1109.15	224.75
993.0073	2665.1808	1111.55	226.2
993.1307	2666.433	1115.5	231.15
993.2542	2667.6846	1112.8	230.85
993.3776	2668.9354	1116.65	229.65
993.501	2670.1856	1117.9	234.75
993.6244	2671.4351	1112.65	226.8
993.7477	2672.6839	1123.65	239.65
993.8709	2673.9321	1122.3	239.05
993.9942	2675.1795	1122.85	239.4
994.1174	2676.4263	1124.2	239.8
994.2405	2677.6724	1123.3	239.85
994.3637	2678.9179	1125.7	243.25
994.4868	2680.1626	1123.6	241.1
994.6098	2681.4067	1123.2	239.55
994.7328	2682.6501	1123.5	239.75
994.8558	2683.8928	1119.6	234.4
994.9788	2685.1348	1117.05	233.5
995.1017	2686.3761	1111.5	228.55
995.2245	2687.6168	1109.4	225.35
995.3474	2688.8568	1108.95	225.75
995.4702	2690.0961	1101.1	217.45
995.5929	2691.3348	1102.7	218.85
995.7156	2692.5727	1102.2	219.2
995.8383	2693.81	1103.1	218.7
995.961	2695.0466	1097	215.6
996.0836	2696.2826	1099.25	214.75
996.2062	2697.5178	1105.45	218
996.3287	2698.7524	1103.2	220.6
996.4512	2699.9863	1104.25	218.3
996.5737	2701.2195	1102.6	220.05
996.6961	2702.452	1110.7	224.65
996.8185	2703.6839	1105.55	220.6
996.9408	2704.9151	1109.1	225.75
997.0631	2706.1456	1111.35	228.05
997.1854	2707.3755	1116.6	233.15
997.3077	2708.6046	1121.45	236.15
997.4299	2709.8331	1119.65	234.8
997.552	2711.0609	1116.35	233.95
997.6742	2712.2881	1119	235.6
997.7963	2713.5145	1126.15	240.45
997.9183	2714.7403	1125.25	242.8
998.0403	2715.9654	1131.1	245.9
998.1623	2717.1899	1149.15	251.9
998.2842	2718.4136	1136.15	254.45
998.4062	2719.6367	1150.6	268.15
998.528	2720.8591	1154.85	264.05
998.6498	2722.0809	1152.15	266.65
998.7716	2723.3019	1165.8	278.75
998.8934	2724.5223	1165.8	281.2
999.0151	2725.7421	1163.25	277.6
999.1368	2726.9611	1159.55	274.3
999.2584	2728.1795	1157.95	267.95
999.38	2729.3972	1149.2	265.3
999.5016	2730.6142	1143.05	251.15
999.6231	2731.8306	1134.85	249.7
999.7446	2733.0462	1125.45	239.8
999.8661	2734.2612	1126.4	239.75
999.9875	2735.4756	1120.75	236.55
1000.1089	2736.6892	1120.35	234.65
1000.2302	2737.9022	1110.35	228
1000.3515	2739.1145	1111.35	227.3
1000.4728	2740.3262	1115.75	221.95
1000.594	2741.5372	1103.35	220.75
1000.7152	2742.7475	1103.3	219.7
1000.8363	2743.9571	1101.3	216.6
1000.9575	2745.1661	1098	208.65
1001.0785	2746.3744	1090.75	207.25
1001.1996	2747.582	1080.95	199.65
1001.3206	2748.7889	1084.35	199.6
1001.4415	2749.9952	1081.1	198.1
1001.5625	2751.2008	1078	194
1001.6833	2752.4057	1080.35	195.35
1001.8042	2753.61	1080.7	196.65
1001.925	2754.8136	1077.3	191.35
1002.0458	2756.0165	1079.2	193.75
1002.1665	2757.2188	1074.05	191.9
1002.2872	2758.4204	1074.45	193.15
1002.4078	2759.6213	1075.5	189.5
1002.5285	2760.8215	1079.5	194.3
1002.649	2762.0211	1071.5	185.75
1002.7696	2763.22	1078.55	191.4
1002.8901	2764.4182	1073.7	189.65
1003.0106	2765.6158	1069.15	185.05
1003.131	2766.8127	1071.4	188.4
1003.2514	2768.009	1068.25	185.2
1003.3717	2769.2045	1064.75	179.85
1003.492	2770.3994	1069.8	184.35
1003.6123	2771.5936	1067.1	183.25
1003.7325	2772.7872	1064.6	182.6
1003.8527	2773.9801	1066.3	179.4
1003.9729	2775.1723	1080.1	181.5
1004.093	2776.3639	1062.5	181.55
1004.2131	2777.5548	1059.05	171.75
1004.3331	2778.745	1064.3	178.25
1004.4531	2779.9346	1064.2	180.2
1004.5731	2781.1235	1063.5	180.2
1004.693	2782.3117	1056.4	174.4
1004.8129	2783.4992	1063.45	179.85
1004.9328	2784.6861	1058	174.9
1005.0526	2785.8723	1062.75	177.25
1005.1723	2787.0579	1060.4	175.3
1005.2921	2788.2428	1062.7	179.4
1005.4118	2789.427	1059.9	175.15
1005.5314	2790.6106	1062.7	179.95
1005.651	2791.7935	1061.3	176.7
1005.7706	2792.9757	1065.45	182.05
1005.8902	2794.1573	1067.75	183.35
1006.0097	2795.3382	1068.6	187.5
1006.1291	2796.5184	1064.45	184.6
1006.2485	2797.698	1070.2	185.85
1006.3679	2798.8769	1069.75	184.15
1006.4873	2800.0551	1073.9	189.05
1006.6066	2801.2327	1077.1	190.95
1006.7258	2802.4096	1076.8	195.25
1006.8451	2803.5859	1078.1	191.3
1006.9642	2804.7615	1078.2	193.45
1007.0834	2805.9364	1082.5	200.55
1007.2025	2807.1106	1084.9	202.8
1007.3216	2808.2842	1088.85	204.25
1007.4406	2809.4572	1096.35	212.55
1007.5596	2810.6294	1100.25	214.7
1007.6785	2811.801	1104.85	223.75
1007.7975	2812.972	1113.25	229.35
1007.9163	2814.1423	1118.6	233.5
1008.0352	2815.3119	1130.05	247
1008.154	2816.4808	1140.8	258.5
1008.2727	2817.6491	1158.65	273.75
1008.3914	2818.8167	1174.2	290.05
1008.5101	2819.9837	1198.1	309.8
1008.6288	2821.15	1217.8	332.55
1008.7474	2822.3157	1249.2	367.6
1008.8659	2823.4807	1280.5	396.15
1008.9844	2824.645	1320.05	436.1
1009.1029	2825.8086	1360.05	478.8
1009.2214	2826.9716	1405.55	522.25
1009.3398	2828.134	1447	562.15
1009.4581	2829.2957	1487.95	602.9
1009.5764	2830.4567	1510.25	628.15
1009.6947	2831.617	1539.35	653.8
1009.813	2832.7767	1551.55	670.1
1009.9312	2833.9358	1550.95	667.35
1010.0493	2835.0941	1556.5	672.3
1010.1675	2836.2519	1535.75	652.5
1010.2855	2837.4089	1522.15	638.1
1010.4036	2838.5653	1497.9	615.65
1010.5216	2839.7211	1489.15	605.4
1010.6396	2840.8761	1474.5	590.6
1010.7575	2842.0306	1469.95	587.35
1010.8754	2843.1843	1468.55	586.05
1010.9932	2844.3374	1475.9	591.7
1011.111	2845.4899	1489.75	605.85
1011.2288	2846.6417	1491.75	609.2
1011.3465	2847.7928	1503.25	620.7
1011.4642	2848.9433	1503.75	620.95
1011.5818	2850.0931	1515.25	632.4
1011.6995	2851.2422	1520.85	634.35
1011.817	2852.3907	1512.7	630.8
1011.9345	2853.5385	1514.05	628.2
1012.052	2854.6857	1550.4	638.15
1012.1695	2855.8323	1525.35	643.8
1012.2869	2856.9781	1545.15	662.65
1012.4042	2858.1233	1553.75	671.85
1012.5216	2859.2679	1567.8	683.25
1012.6389	2860.4118	1598.8	715.75
1012.7561	2861.555	1620.7	731.85
1012.8733	2862.6976	1630.95	745.8
1012.9905	2863.8395	1640.8	758.2
1013.1076	2864.9808	1657.8	773.3
1013.2247	2866.1214	1666.45	784.2
1013.3417	2867.2614	1674.95	792.35
1013.4587	2868.4007	1689.4	805.65
1013.5757	2869.5393	1699.95	815.05
1013.6926	2870.6773	1719.8	835.35
1013.8095	2871.8146	1730.05	841.45
1013.9263	2872.9513	1748.25	861.8
1014.0431	2874.0874	1745.2	861.7
1014.1599	2875.2227	1764.2	881.95
1014.2766	2876.3574	1768.55	886.4
1014.3933	2877.4915	1769.65	886.7
1014.51	2878.6249	1788.7	906.15
1014.6266	2879.7577	1800.5	915.45
1014.7431	2880.8898	1821.25	928.25
1014.8596	2882.0212	1818.45	937.45
1014.9761	2883.152	1843.9	958.75
1015.0925	2884.2821	1856.05	974.3
1015.2089	2885.4116	1868.45	984.75
1015.3253	2886.5405	1877.1	993
1015.4416	2887.6686	1889.55	1001.6
1015.5579	2888.7962	1889	1007.95
1015.6741	2889.923	1881.45	1000.2
1015.7903	2891.0493	1882.3	1001.4
1015.9065	2892.1748	1887.05	1002.6
1016.0226	2893.2997	1884.15	998.95
1016.1387	2894.424	1873.7	990.45
1016.2547	2895.5476	1891.6	1008.15
1016.3707	2896.6706	1885.35	1001.2
1016.4866	2897.7929	1882.5	997.35
1016.6025	2898.9145	1885.25	1002.4
1016.7184	2900.0355	1886.1	1000.35
1016.8342	2901.1559	1871.8	987.8
1016.95	2902.2756	1877.25	987.85
1017.0658	2903.3946	1864.8	982.4
1017.1815	2904.513	1858.6	973
1017.2971	2905.6308	1846.35	963.3
1017.4127	2906.7479	1838.85	955.25
1017.5283	2907.8643	1840.85	956.2
1017.6439	2908.9801	1848.7	964.75
1017.7594	2910.0953	1849.7	965.35
1017.8748	2911.2098	1846.85	958.8
1017.9902	2912.3236	1851.55	960.1
1018.1056	2913.4368	1837.3	950.95
1018.2209	2914.5494	1830.25	946.15
1018.3362	2915.6613	1839.4	950.7
1018.4515	2916.7725	1813.65	927.05
1018.5667	2917.8831	1801.6	917.55
1018.6819	2918.9931	1783.75	899.1
1018.797	2920.1024	1775.65	889.55
1018.9121	2921.211	1755.05	872.4
1019.0271	2922.319	1738.05	854.6
1019.1421	2923.4264	1737.95	853.85
1019.2571	2924.5331	1723.75	842.7
1019.372	2925.6391	1727	845.25
1019.4869	2926.7445	1723.35	842.6
1019.6017	2927.8493	1728.75	843.35
1019.7165	2928.9534	1735.95	852.05
1019.8313	2930.0569	1744.3	857.7
1019.946	2931.1597	1750	866.8
1020.0606	2932.2619	1743.05	859.7
1020.1753	2933.3634	1756.65	872.2
1020.2899	2934.4643	1770.45	879.8
1020.4044	2935.5645	1765.85	878.1
1020.5189	2936.6641	1779.25	891.5
1020.6334	2937.763	1778.3	895.75
1020.7478	2938.8613	1783.9	899.1
1020.8622	2939.959	1783.8	894.9
1020.9765	2941.056	1768	884.75
1021.0908	2942.1523	1739.7	854.05
1021.2051	2943.248	1709	825.4
1021.3193	2944.3431	1667	782.55
1021.4334	2945.4375	1630.05	746.9
1021.5476	2946.5313	1590.15	709.3
1021.6617	2947.6244	1554	670.4
1021.7757	2948.7169	1516.75	630.95
1021.8897	2949.8087	1479.6	597.3
1022.0037	2950.8999	1448.25	564
1022.1176	2951.9904	1413.35	531.9
1022.2315	2953.0803	1388.9	503.25
1022.3453	2954.1696	1369.75	487.8
1022.4591	2955.2582	1348.1	465.7
1022.5728	2956.3462	1339	457.05
1022.6865	2957.4335	1329.8	446.45
1022.8002	2958.5202	1325.65	439.2
1022.9138	2959.6062	1314.1	429.25
1023.0274	2960.6916	1322.3	439.8
1023.141	2961.7764	1322.3	436.75
1023.2545	2962.8605	1326.1	442.6
1023.3679	2963.9439	1319.65	437.05
1023.4813	2965.0267	1324.1	440.85
1023.5947	2966.1089	1341.1	434.85
1023.708	2967.1905	1314.3	429.6
1023.8213	2968.2714	1309.1	425.75
1023.9346	2969.3516	1305.15	420.25
1024.0478	2970.4312	1305.95	416.3
1024.1609	2971.5102	1291.5	407.25
1024.274	2972.5885	1298.4	414.75
1024.3871	2973.6662	1302.9	414.5
1024.5002	2974.7432	1299.75	416.65
1024.6132	2975.8196	1304.45	421.05
1024.7261	2976.8954	1302.55	421.15
1024.839	2977.9705	1301	415
1024.9519	2979.045	1300.25	417.95
1025.0647	2980.1188	1300.7	417.8
1025.1775	2981.192	1295.05	411.5
1025.2902	2982.2645	1296	411.35
1025.4029	2983.3364	1281.85	399.05
1025.5156	2984.4077	1271.35	389.1
1025.6282	2985.4783	1263.3	374.45
1025.7407	2986.5483	1244.75	363.85
1025.8532	2987.6177	1231.55	347.75
1025.9657	2988.6864	1226.2	343.7
1026.0782	2989.7545	1209.45	324.7
1026.1906	2990.8219	1205.3	322.75
1026.3029	2991.8887	1192.7	305.4
1026.4152	2992.9548	1185.3	301.9
1026.5275	2994.0204	1165.9	282.85
1026.6397	2995.0852	1155.45	273.5
1026.7519	2996.1495	1141.75	260.55
1026.864	2997.2131	1127.05	243.65
1026.9761	2998.276	1114.05	232.25
1027.0882	2999.3383	1103.85	218.6
1027.2002	3000.4	1091.85	209
1027.3122	3001.4611	1076.65	192.4
1027.4241	3002.5215	1071	186.2
1027.536	3003.5812	1062.05	179.8
1027.6478	3004.6404	1057.8	172.5
1027.7596	3005.6989	1057.25	172
1027.8714	3006.7567	1044.05	160.05
1027.9831	3007.8139	1071.15	154.2
1028.0947	3008.8705	1035.95	152.95
1028.2064	3009.9264	1039.15	152.45
1028.3179	3010.9818	1030.3	148.9
1028.4295	3012.0364	1031.55	146.95
1028.541	3013.0905	1022.75	140
1028.6524	3014.1439	1016.85	132.4
1028.7638	3015.1966	1016.45	133.1
1028.8752	3016.2487	1018.35	137.55
1028.9865	3017.3002	1016.95	127.2
1029.0978	3018.3511	1009.25	127.2
1029.209	3019.4013	1013.9	132.55
1029.3202	3020.4509	1011.25	129.95
1029.4314	3021.4998	1008.6	125.25
1029.5425	3022.5481	1003.1	117.85
1029.6535	3023.5958	1009.45	126.9
1029.7645	3024.6428	1006.6	123.35
1029.8755	3025.6892	1003.2	118.5
1029.9864	3026.735	1005.5	121.5
1030.0973	3027.7802	1001.4	118.05
1030.2082	3028.8247	1004.6	120.65
1030.319	3029.8685	1004.55	121.65
1030.4297	3030.9118	1006	121.8
1030.5404	3031.9544	999.8	118.75
1030.6511	3032.9963	1000.1	114.85
1030.7617	3034.0376	1003.1	119.2
1030.8723	3035.0783	1006.3	121.9
1030.9829	3036.1184	1004.95	118.8
1031.0934	3037.1578	1001.95	118.1
1031.2038	3038.1966	1006	119.95
1031.3142	3039.2348	1004.65	123
1031.4246	3040.2723	1011.85	120.55
1031.5349	3041.3092	1007.4	126.1
1031.6452	3042.3455	1007.45	124.1
1031.7554	3043.3811	1007.85	124.95
1031.8656	3044.4161	1006.25	121.9
1031.9758	3045.4505	1010.2	130.35
1032.0859	3046.4842	1010.25	125.9
1032.1959	3047.5173	1005.9	123.8
1032.3059	3048.5498	1005.75	120.75
1032.4159	3049.5816	1007.4	124.9
1032.5258	3050.6128	1008	123.4
1032.6357	3051.6434	1009.15	124.75
1032.7455	3052.6734	1009.65	123.95
1032.8553	3053.7027	1007.05	123.7
1032.9651	3054.7314	1007.75	125.45
1033.0748	3055.7594	1007.7	124.25
1033.1845	3056.7868	1007	122.45
1033.2941	3057.8136	1014.05	130.65
1033.4037	3058.8398	1010.25	128.85
1033.5132	3059.8653	1013.2	129.3
1033.6227	3060.8902	1012.7	131.75
1033.7321	3061.9145	1017.85	134.1
1033.8415	3062.9381	1018.55	135.2
1033.9509	3063.9612	1032.95	133.4
1034.0602	3064.9835	1018.3	135.65
1034.1694	3066.0053	1021.25	134.9
1034.2787	3067.0264	1020.05	138.45
1034.3878	3068.0469	1020.25	133.35
1034.497	3069.0668	1020.85	133.65
1034.6061	3070.086	1019.4	137.3
1034.7151	3071.1046	1016.15	133.45
1034.8241	3072.1226	1017.6	134.25
1034.9331	3073.1399	1014.75	131.3
1035.042	3074.1567	1009.65	128.05
1035.1508	3075.1727	1009.8	123.7
1035.2597	3076.1882	1003.7	121.15
1035.3684	3077.203	1004.85	121.7
1035.4772	3078.2173	1001.55	117.95
1035.5859	3079.2308	999.95	114.05
1035.6945	3080.2438	994.5	109.55
1035.8031	3081.2561	988.8	103.7
1035.9117	3082.2678	988.05	105.55
1036.0202	3083.2789	984.45	101.45
1036.1286	3084.2893	983.25	99.9
1036.2371	3085.2991	979.1	95.45
1036.3454	3086.3083	982.75	94.95
1036.4538	3087.3169	979	94.2
1036.562	3088.3248	974.05	88.2
1036.6703	3089.3321	975.7	91
1036.7785	3090.3388	971.5	89.8
1036.8866	3091.3449	971.7	88.1
1036.9948	3092.3503	969.1	84.2
1037.1028	3093.3551	968.8	86.25
1037.2108	3094.3593	966.65	84.9
1037.3188	3095.3629	970.65	88.55
1037.4267	3096.3658	968.6	84.05
1037.5346	3097.3681	965.55	82.55
1037.6425	3098.3698	964.7	79.65
1037.7503	3099.3708	964.9	82.3
1037.858	3100.3713	961.8	77.05
1037.9657	3101.3711	963.25	79.7
1038.0734	3102.3702	1094.9	77.5
1038.181	3103.3688	960.25	75.3
1038.2886	3104.3667	956.75	75.15
1038.3961	3105.364	954.4	70.05
1038.5036	3106.3607	959.2	73.95
1038.611	3107.3568	957.1	72.95
1038.7184	3108.3522	948.9	65.3
1038.8257	3109.347	952.8	67.05
1038.933	3110.3412	958.75	70.6
1039.0403	3111.3348	952.05	67.8
1039.1475	3112.3277	948.45	67.55
1039.2547	3113.32	947	65.3
1039.3618	3114.3117	946.25	61.05
1039.4689	3115.3028	945.9	63.3
1039.5759	3116.2932	948.15	62.85
1039.6829	3117.2831	948.1	60
1039.7898	3118.2723	944.9	61.8
1039.8967	3119.2608	943.1	60.7
1040.0035	3120.2488	939.2	56
1040.1103	3121.2361	939.5	52.6
1040.2171	3122.2229	939.4	57.2
1040.3238	3123.209	942.9	58.35
1040.4305	3124.1944	940.6	57.65
1040.5371	3125.1793	939.4	55.1
1040.6437	3126.1635	937.65	54.2
1040.7502	3127.1471	936.25	53.65
1040.8567	3128.1301	934.8	51.45
1040.9631	3129.1125	931.7	49.05
1041.0695	3130.0942	931.35	48
1041.1759	3131.0753	943.05	50.35
1041.2822	3132.0558	937.55	50.1
1041.3884	3133.0357	936.35	52.95
1041.4946	3134.015	932.6	48.05
1041.6008	3134.9936	931.4	44.95
1041.7069	3135.9716	956	50.05
1041.813	3136.949	930.8	47.2
1041.919	3137.9258	949.45	48.25
1042.025	3138.902	934.7	45.2
1042.1309	3139.8775	931.1	48.45
1042.2368	3140.8524	928.45	46.9
1042.3427	3141.8267	929.6	46.35
1042.4485	3142.8004	929.85	46.35
1042.5542	3143.7735	935.6	45.6
1042.6599	3144.7459	929.25	45.55
1042.7656	3145.7178	929.6	44.6
1042.8712	3146.689	925.4	42.35
1042.9768	3147.6596	927.85	41.45
1043.0823	3148.6295	925.35	42.55
1043.1878	3149.5989	926.55	43.5
1043.2932	3150.5676	923.95	40.75
1043.3986	3151.5357	924.55	42.55
1043.5039	3152.5032	924.25	41.75
1043.6092	3153.4701	925.6	42.7
1043.7145	3154.4364	926.75	40.2
1043.8197	3155.402	922	41.15
1043.9248	3156.367	924.45	40.4
1044.03	3157.3315	958.55	38.45
1044.135	3158.2952	925.45	41.75
1044.24	3159.2584	924.8	41.6
1044.345	3160.221	922.55	40
1044.4499	3161.1829	922.2	37.3
1044.5548	3162.1442	921.1	37.55
1044.6596	3163.105	919.05	35.65
1044.7644	3164.065	921.6	39.85
1044.8692	3165.0245	920.85	35.35
1044.9739	3165.9834	921.2	39.4
1045.0785	3166.9416	920.5	35.3
1045.1831	3167.8993	918.55	33.55
1045.2877	3168.8563	921.05	35.1
1045.3922	3169.8127	920.25	38.25
1045.4966	3170.7684	921.2	38
1045.6011	3171.7236	920.9	38.45
1045.7054	3172.6782	919.65	35.25
1045.8098	3173.6321	920.3	36.15
1045.914	3174.5854	921.95	33.85
1046.0183	3175.5381	919.9	37.75
1046.1224	3176.4902	916.1	32.6
1046.2266	3177.4417	916.35	33
1046.3307	3178.3926	918.75	35.15
1046.4347	3179.3428	916.45	36.1
1046.5387	3180.2924	918.25	35.75
1046.6427	3181.2415	916.3	33.4
1046.7466	3182.1899	918.7	32.55
1046.8504	3183.1377	917.15	33.15
1046.9542	3184.0848	919.1	31.15
1047.058	3185.0314	915	31.3
1047.1617	3185.9773	917.05	33.25
1047.2654	3186.9227	915.1	29.75
1047.369	3187.8674	913.6	30.3
1047.4726	3188.8115	918.1	29.85
1047.5761	3189.755	915.35	32.75
1047.6796	3190.6979	915.45	32.6
1047.783	3191.6402	913.85	30.8
1047.8864	3192.5818	912.15	29.9
1047.9898	3193.5229	938	29.8
1048.0931	3194.4633	912.2	28.3
1048.1963	3195.4031	911.7	26.4
1048.2995	3196.3423	910.5	25.65
1048.4027	3197.2809	913.25	29.15
1048.5058	3198.2189	909.4	26.8
1048.6089	3199.1563	916.85	26.9
1048.7119	3200.0931	913.5	29.5
1048.8148	3201.0292	909.65	28
1048.9178	3201.9648	911.55	28.8
1049.0206	3202.8997	913.9	27.25
1049.1235	3203.834	910.35	26.75
1049.2262	3204.7677	910.35	28.15
1049.329	3205.7008	912	26.4
1049.4317	3206.6333	909.5	27.9
1049.5343	3207.5652	910.65	24.55
1049.6369	3208.4964	908.65	23.5
1049.7394	3209.4271	908.45	26.75
1049.8419	3210.3571	906.5	22.05
1049.9444	3211.2865	909.1	24.8
1050.0468	3212.2154	910	26.85
1050.1491	3213.1436	912	26.8
1050.2514	3214.0712	912.5	23.1
1050.3537	3214.9982	906.85	24.1
1050.4559	3215.9246	907.8	24.3
1050.5581	3216.8503	909.3	28.65
1050.6602	3217.7755	908.1	23.95
1050.7623	3218.7001	908.1	25.65
1050.8643	3219.624	908.65	25.05
1050.9663	3220.5473	907.9	22.9
1051.0682	3221.4701	910.75	27.4
1051.1701	3222.3922	907.45	23.2
1051.2719	3223.3137	907.35	26.7
1051.3737	3224.2346	906.2	23.45
1051.4754	3225.1549	905.7	23.75
1051.5771	3226.0746	905.65	22.95
1051.6788	3226.9937	908.05	24.9
1051.7804	3227.9121	907.3	23.6
1051.8819	3228.83	904.85	22.7
1051.9834	3229.7473	904.45	20.65
1052.0849	3230.6639	906.85	25.75
1052.1863	3231.5799	907.2	25.65
1052.2876	3232.4954	909.25	24.4
1052.3889	3233.4102	905.7	23.05
1052.4902	3234.3244	904.5	20.1
1052.5914	3235.238	904.25	24.3
1052.6926	3236.151	916.2	16.95
1052.7937	3237.0634	903.95	22.15
1052.8948	3237.9752	905.55	23.85
1052.9958	3238.8864	904.2	20
1053.0968	3239.797	905.35	22.9
1053.1977	3240.7069	904.75	19.05
1053.2986	3241.6163	908.3	24.7
1053.3994	3242.5251	904.1	21.35
1053.5002	3243.4332	902.45	20.1
1053.6009	3244.3408	903.25	19.55
1053.7016	3245.2477	899.35	17.35
1053.8022	3246.154	905.2	21.55
1053.9028	3247.0598	903.45	18.7
1054.0034	3247.9649	902.7	20.5
1054.1039	3248.8694	901.5	18
1054.2043	3249.7733	900.45	18.05
1054.3047	3250.6766	903.05	19.05
1054.4051	3251.5793	902.4	17.3
1054.5054	3252.4814	899.65	15.55
1054.6056	3253.3829	899.5	17.8
1054.7058	3254.2838	899.1	15.7
1054.806	3255.1841	901.35	16.35
1054.9061	3256.0838	900.15	17.3
1055.0061	3256.9829	898.55	15.75
1055.1062	3257.8814	904.3	18.6
1055.2061	3258.7792	901.25	15.45
1055.306	3259.6765	902.2	19
1055.4059	3260.5731	901.1	16.95
1055.5057	3261.4692	898.7	16
1055.6055	3262.3647	897.75	14.75
1055.7052	3263.2595	897.9	13.25
1055.8049	3264.1538	897.7	14.75
1055.9045	3265.0474	897.4	13.9
1056.0041	3265.9404	897.35	14.65
1056.1036	3266.8329	897.8	15.7
1056.2031	3267.7247	907.85	14.15
1056.3025	3268.616	896.85	12.65
1056.4019	3269.5066	897.8	12
1056.5013	3270.3966	897.9	10.75
1056.6005	3271.286	894.8	12
