Software Version:	3.9.2.0
Unit SN:	10000200
Spectrometer SN:	6960
Date:	3/8/2024 12:17:11 PM
Data Line Index:	25
Spectral Points:	2048
Integration time (ms):	125
Averages:	20
Delay (ms):	30000
Sequence Number:	1
Processing:	dark subtract
Laser Power (mW):	305
Laser Current (mA):	823
Laser Diode Temp (C):	25.1
Laser Case Temp (C):	25.7
System Temp (C):	25.7
Spectrometer Temp (C):	23.6
CCD Temp (C):	0.005
Secondary Temp (C):	20.007
Heatsink Temp (C):	20.464
CCDPCB Temp (C):	35.162
SecondaryPCB Temp (C):	28.581

Wavelength	RamanShift	Raw Counts	Dark Subtracted
787.061	30.1047	430.75	22.4
787.2016	32.3739	430.1	23.1
787.3422	34.6426	433.05	25.25
787.4828	36.9109	437.1	27.6
787.6235	39.1787	443	29.45
787.7642	41.4461	448.9	31.4
787.9049	43.7131	456.25	34.9
788.0456	45.9796	461.35	38.4
788.1863	48.2456	470.3	43.15
788.3271	50.5112	476	42.05
788.4679	52.7764	479.5	45.85
788.6087	55.0411	490.75	49.75
788.7496	57.3054	496.65	49.3
788.8904	59.5692	501.2	55.65
789.0313	61.8326	508.5	58.5
789.1722	64.0955	514	62.2
789.3132	66.3579	527.6	67.4
789.4541	68.6199	537.95	73.7
789.5951	70.8815	562.3	96.3
789.7361	73.1426	611.6	142.3
789.8771	75.4032	733	259
790.0181	77.6634	1037.45	560.15
790.1592	79.9231	1739.75	1254.85
790.3003	82.1824	3215	2721.85
790.4414	84.4412	5777.8	5262.9
790.5825	86.6995	9195.75	8660.9
790.7237	88.9574	12435.25	11876.75
790.8648	91.2148	14568.6	13999.1
791.006	93.4717	15469.95	14892.1
791.1472	95.7282	15482.75	14897.75
791.2885	97.9842	15208.25	14622.6
791.4297	100.2398	14728	14139.8
791.571	102.4949	14206.1	13614.4
791.7123	104.7495	13589.8	12991.6
791.8536	107.0036	13030.05	12434.1
791.9949	109.2573	12513.55	11918.85
792.1363	111.5105	12061.85	11465
792.2777	113.7632	11651.45	11047.85
792.4191	116.0154	11307.35	10696.1
792.5605	118.2672	11059.15	10453.5
792.7019	120.5185	10795.3	10189.45
792.8434	122.7693	10634.65	10022.75
792.9849	125.0197	10458.95	9844.05
793.1264	127.2696	10288.8	9670.55
793.2679	129.519	10157.95	9534.65
793.4094	131.7679	9987.6	9365.95
793.551	134.0163	9801.65	9178.4
793.6926	136.2642	9601.35	8972.1
793.8342	138.5117	9356	8718.25
793.9758	140.7587	9120.05	8487.5
794.1175	143.0052	8898.25	8261.3
794.2591	145.2512	8663.05	8028.4
794.4008	147.4967	8459.35	7821.8
794.5425	149.7417	8297.4	7654.6
794.6842	151.9863	8181.9	7534.7
794.826	154.2304	8105.95	7460.15
794.9677	156.4739	8003.95	7347.55
795.1095	158.717	7937	7283.1
795.2513	160.9596	7843.9	7186.65
795.3931	163.2017	7701.25	7037.3
795.535	165.4433	7562.4	6898.8
795.6768	167.6844	7349	6684.9
795.8187	169.925	7177.15	6507.7
795.9606	172.1651	6966.2	6294.25
796.1025	174.4047	6811.3	6137.75
796.2445	176.6439	6667.8	5992.95
796.3864	178.8825	6524.45	5848.15
796.5284	181.1206	6457.85	5774.2
796.6704	183.3582	6387.95	5698.35
796.8124	185.5954	6335.8	5646.35
796.9544	187.832	6297.3	5603.4
797.0965	190.0681	6288.5	5594.2
797.2386	192.3037	6279.6	5575.9
797.3806	194.5388	6253.95	5551
797.5228	196.7734	6280.8	5568.9
797.6649	199.0075	6319.75	5617.55
797.807	201.2411	6377.05	5669.35
797.9492	203.4742	6446.55	5740.95
798.0914	205.7068	6519.5	5803.6
798.2336	207.9389	6571.85	5857.45
798.3758	210.1704	6660.25	5954.45
798.518	212.4015	6702	6007.45
798.6603	214.632	6789.1	6096.4
798.8025	216.862	6841.5	6149.95
798.9448	219.0915	6886.6	6193.1
799.0871	221.3205	6960.75	6268.15
799.2294	223.549	7000.1	6308.45
799.3718	225.777	7024.25	6332.6
799.5141	228.0044	7033.2	6333.75
799.6565	230.2314	7076.05	6374.35
799.7989	232.4578	7093.85	6392.15
799.9413	234.6837	7123.85	6411.45
800.0837	236.909	7131.85	6415.35
800.2262	239.1339	7134.95	6396.3
800.3687	241.3582	7121.1	6395.95
800.5111	243.582	7085.45	6330.15
800.6536	245.8053	7062.1	6322.45
800.7961	248.0281	7069.75	6332.2
800.9387	250.2503	7081.85	6341
801.0812	252.472	7140.15	6400.9
801.2238	254.6932	7203.65	6463.3
801.3664	256.9139	7282.05	6538.65
801.509	259.134	7440.35	6693.1
801.6516	261.3536	7586.45	6841.7
801.7942	263.5727	7795.35	7051.1
801.9369	265.7912	7978.65	7233
802.0795	268.0092	8184.95	7440.9
802.2222	270.2267	8353.9	7606.15
802.3649	272.4436	8447.15	7698.3
802.5076	274.6601	8493.5	7733.35
802.6504	276.8759	8461.8	7710.65
802.7931	279.0913	8395.55	7638.1
802.9359	281.3061	8332.5	7577.65
803.0787	283.5204	8305.95	7546.65
803.2215	285.7341	8281.4	7519.55
803.3643	287.9473	8260.9	7498.5
803.5071	290.16	8260.9	7499.45
803.6499	292.3721	8299.7	7541.45
803.7928	294.5837	8362	7601.85
803.9357	296.7947	8464.55	7702.9
804.0786	299.0052	8559.55	7797.4
804.2215	301.2152	8565.3	7799.25
804.3644	303.4246	8495.4	7731.35
804.5074	305.6334	8313.5	7549.95
804.6503	307.8418	8094.5	7325.15
804.7933	310.0495	7863.3	7093.6
804.9363	312.2568	7608.9	6837.05
805.0793	314.4635	7365.5	6596.4
805.2223	316.6696	7169.75	6396.2
805.3653	318.8752	7018.15	6236.3
805.5084	321.0802	6940.45	6165.25
805.6514	323.2847	6944.6	6167.65
805.7945	325.4887	6961.95	6183.6
805.9376	327.692	6958.7	6183.9
806.0807	329.8949	6938.05	6159.05
806.2238	332.0972	6870.4	6090.5
806.367	334.2989	6763.2	5977.45
806.5101	336.5001	6625.45	5841.15
806.6533	338.7007	6518.5	5732.75
806.7965	340.9008	6396.8	5610.5
806.9397	343.1003	6291.3	5505.85
807.0829	345.2992	6205.7	5414.45
807.2261	347.4976	6122.2	5333.5
807.3693	349.6955	6069.85	5276.75
807.5126	351.8927	6057.9	5261.2
807.6559	354.0895	6020.85	5217.4
807.7991	356.2856	5969.05	5170.15
807.9424	358.4812	5935.3	5139.6
808.0857	360.6763	5926.35	5124.6
808.2291	362.8707	5914.2	5111.6
808.3724	365.0646	5955.9	5150.05
808.5158	367.258	5981.9	5176.45
808.6591	369.4508	6016.65	5211.65
808.8025	371.643	6096.7	5286.1
808.9459	373.8346	6168.05	5355.3
809.0893	376.0257	6243.3	5432.65
809.2327	378.2162	6275.2	5465.85
809.3762	380.4062	6282.45	5469.05
809.5196	382.5956	6212.35	5407.5
809.6631	384.7844	6142.25	5339.6
809.8066	386.9726	6063.35	5260
809.9501	389.1603	6019.45	5217.95
810.0936	391.3474	6004.45	5164.95
810.2371	393.5339	5976.45	5167.9
810.3806	395.7199	5956.9	5152.4
810.5241	397.9052	5986.3	5182.7
810.6677	400.09	6058.1	5255.2
810.8113	402.2743	6180.3	5376.05
810.9548	404.4579	6280.45	5473.4
811.0984	406.641	6400.6	5593.15
811.2421	408.8235	6490.7	5684.9
811.3857	411.0054	6591.3	5778.7
811.5293	413.1868	6680.8	5862.95
811.673	415.3675	6686.7	5865.3
811.8166	417.5477	6653.4	5834.15
811.9603	419.7273	6597.15	5774.2
812.104	421.9064	6525.2	5697.2
812.2477	424.0848	6485.55	5663.45
812.3914	426.2627	6396.7	5571.2
812.5351	428.4399	6258.25	5433.3
812.6788	430.6166	6085.8	5254.8
812.8226	432.7928	5901.25	5070.95
812.9663	434.9683	5733.15	4906.7
813.1101	437.1432	5607.85	4779.75
813.2539	439.3176	5520.75	4696.05
813.3977	441.4914	5444.95	4621.75
813.5415	443.6645	5418.9	4590.8
813.6853	445.8371	5389.95	4561.25
813.8291	448.0091	5412.3	4583.35
813.973	450.1806	5378.95	4550.65
814.1168	452.3514	5381.55	4550.1
814.2607	454.5216	5413.9	4577.75
814.4046	456.6913	5414.05	4582
814.5485	458.8603	5431.2	4602.45
814.6924	461.0288	5455.05	4628.35
814.8363	463.1967	5452.05	4626.55
814.9802	465.3639	5453.6	4624.75
815.1241	467.5306	5448.6	4617.1
815.2681	469.6967	5441.25	4610.2
815.412	471.8622	5414.95	4587.1
815.556	474.0271	5434.45	4605.1
815.7	476.1914	5452	4617.05
815.844	478.3551	5450.45	4619.75
815.988	480.5182	5494.1	4664.3
816.132	482.6807	5545	4718.15
816.276	484.8426	5653.1	4828.85
816.4201	487.0039	5859.4	5031.4
816.5641	489.1647	6096.6	5263.55
816.7082	491.3248	6250	5416.5
816.8522	493.4843	6306.75	5471.7
816.9963	495.6432	6281.6	5450.6
817.1404	497.8015	6198.95	5358
817.2845	499.9592	6104.05	5261.35
817.4286	502.1163	5970.55	5128.25
817.5727	504.2728	5798.8	4956.95
817.7168	506.4287	5616.05	4783.1
817.861	508.5839	5480.6	4646.9
818.0051	510.7386	5374.3	4537
818.1493	512.8927	5332.3	4491.65
818.2935	515.0461	5349.85	4507.25
818.4377	517.199	5414.9	4574.2
818.5818	519.3512	5544.15	4699.3
818.726	521.5029	5725	4875.4
818.8703	523.6539	5903.5	5058.3
819.0145	525.8043	5981.75	5135.35
819.1587	527.9541	5934.4	5086.7
819.303	530.1033	5795.15	4947.4
819.4472	532.2519	5659.65	4813.25
819.5915	534.3999	5577	4728.35
819.7357	536.5472	5603.35	4755.4
819.88	538.694	5669.3	4823.9
820.0243	540.8401	5791.55	4943.9
820.1686	542.9856	5861.2	5009.8
820.3129	545.1305	5890.15	5031.35
820.4572	547.2748	5858.1	5002.25
820.6016	549.4185	5793.55	4936.5
820.7459	551.5615	5735.75	4879.7
820.8902	553.704	5759.45	4902.75
821.0346	555.8458	5827.35	4975.35
821.1789	557.987	5950.55	5100.3
821.3233	560.1276	6108.4	5253.1
821.4677	562.2675	6383.45	5533
821.6121	564.4069	6746.25	5893.15
821.7565	566.5456	7073.9	6220.5
821.9009	568.6837	7184.8	6330.7
822.0453	570.8212	6947.75	6097.75
822.1897	572.958	6511	5652.85
822.3342	575.0942	6090.7	5238.25
822.4786	577.2299	5796.45	4946.5
822.6231	579.3648	5648	4802.9
822.7675	581.4992	5585.15	4743.95
822.912	583.6329	5629.85	4792
823.0565	585.766	5739.05	4895.05
823.201	587.8985	5822.1	4973.3
823.3454	590.0304	5903.2	5023.9
823.4899	592.1616	5896.6	5037.25
823.6345	594.2922	5813.35	4952.4
823.779	596.4222	5695.15	4833.65
823.9235	598.5515	5557.3	4693.65
824.068	600.6802	5481.2	4621.35
824.2126	602.8083	5386.5	4525.35
824.3571	604.9358	5372.9	4512.35
824.5017	607.0626	5402.2	4539.75
824.6462	609.1888	5504.6	4639.7
824.7908	611.3144	5605.15	4738.1
824.9354	613.4393	5728	4864.6
825.08	615.5636	5803.3	4939.9
825.2246	617.6873	5847.65	4980.7
825.3692	619.8103	5823	4958.15
825.5138	621.9327	5683.2	4817.6
825.6584	624.0544	5539.95	4679.9
825.803	626.1756	5383.9	4521.7
825.9477	628.2961	5305.95	4439.05
826.0923	630.4159	5245.65	4381.85
826.237	632.5351	5250	4383.4
826.3816	634.6537	5245.75	4379.6
826.5263	636.7716	5241.4	4371.65
826.6709	638.8889	5253.1	4382.3
826.8156	641.0056	5281.45	4407.4
826.9603	643.1216	5263.15	4393.55
827.105	645.237	5233.8	4363.5
827.2497	647.3518	5171.9	4306
827.3944	649.4659	5111.8	4246.15
827.5391	651.5793	5078.15	4215.8
827.6838	653.6922	5051.7	4184.5
827.8285	655.8043	5055.15	4186.25
827.9733	657.9159	5055.8	4185
828.118	660.0268	5039.5	4169.3
828.2627	662.137	5058.8	4187
828.4075	664.2466	5053	4177.45
828.5522	666.3556	5054.1	4182.1
828.697	668.4639	5017.4	4144.9
828.8418	670.5716	4990.4	4121.15
828.9865	672.6786	4968.45	4093.35
829.1313	674.785	4903.55	4028.05
829.2761	676.8907	4899.75	4027.05
829.4209	678.9958	4906.15	4038.9
829.5657	681.1002	4875.35	4003.4
829.7105	683.204	4876.1	3999.25
829.8553	685.3072	4878.4	3998.75
830.0001	687.4097	4867.05	3989.65
830.1449	689.5115	4857.75	3979.6
830.2898	691.6127	4863.6	3987.4
830.4346	693.7132	4860.75	3986.65
830.5794	695.8131	4897.5	3999.2
830.7243	697.9123	4907	4028.55
830.8691	700.0109	4954.3	4075.4
831.014	702.1089	4978.4	4102.35
831.1588	704.2061	5015.6	4137.3
831.3037	706.3028	5057.75	4174.7
831.4486	708.3987	5085.5	4205.7
831.5935	710.4941	5109.3	4227.9
831.7383	712.5887	5120.6	4241.35
831.8832	714.6827	5134.1	4254.15
832.0281	716.7761	5165.2	4288.15
832.173	718.8688	5241.1	4360.2
832.3179	720.9608	5315.15	4429.4
832.4628	723.0522	5419.55	4533.4
832.6077	725.1429	5472.05	4586.7
832.7527	727.233	5549.8	4668.85
832.8976	729.3224	5635.95	4753.85
833.0425	731.4112	5637.75	4754.15
833.1874	733.4993	5569.3	4682.95
833.3324	735.5867	5426.85	4542.15
833.4773	737.6735	5275.65	4391.45
833.6222	739.7596	5146.15	4261.3
833.7672	741.845	5073.6	4189.6
833.9122	743.9298	5023.2	4139.35
834.0571	746.014	4999	4115.8
834.2021	748.0974	4992.1	4106.55
834.347	750.1802	4990.4	4104
834.492	752.2624	4989.8	4102.7
834.637	754.3439	5028.45	4140.1
834.782	756.4247	5104.25	4209.25
834.9269	758.5048	5189.4	4302.8
835.0719	760.5843	5383.1	4492.75
835.2169	762.6631	5604.4	4715.05
835.3619	764.7413	5930.25	5044.95
835.5069	766.8188	6356.4	5467.1
835.6519	768.8956	6746.55	5855.6
835.7969	770.9718	6978.35	6089.9
835.9419	773.0473	6969.75	6080.95
836.0869	775.1221	6845.7	5957
836.232	777.1962	6686.8	5797.3
836.377	779.2697	6698.1	5805.45
836.522	781.3426	6763.95	5856.8
836.667	783.4147	6818.9	5929.85
836.8121	785.4862	6814.55	5926.75
836.9571	787.557	6664.15	5774.45
837.1021	789.6271	6367.3	5475.95
837.2472	791.6966	5978	5089.9
837.3922	793.7654	5615	4724.7
837.5373	795.8335	5356.85	4466.95
837.6823	797.901	5156.8	4268
837.8274	799.9678	5065.6	4171.4
837.9724	802.0339	5018.95	4128.3
838.1175	804.0993	4983.75	4081.7
838.2626	806.1641	4951.4	4056.9
838.4076	808.2282	4910.2	4020.2
838.5527	810.2916	4869.4	3977.1
838.6978	812.3544	4816.35	3926.6
838.8428	814.4164	4770.05	3878.95
838.9879	816.4778	4791.55	3897.2
839.133	818.5385	4838.6	3945.5
839.2781	820.5986	4920.9	4025.3
839.4232	822.658	5088.3	4193.7
839.5682	824.7166	5318.3	4427.35
839.7133	826.7747	5649.6	4758.3
839.8584	828.832	6022.85	5127.8
840.0035	830.8886	6291.75	5395.25
840.1486	832.9446	6408.65	5511.1
840.2937	834.9999	6314	5417.45
840.4388	837.0545	6106.2	5208.35
840.5839	839.1085	5831.95	4933.95
840.729	841.1618	5608.2	4706.75
840.8741	843.2143	5434.8	4540.25
841.0192	845.2662	5313.65	4417.9
841.1643	847.3175	5216.25	4324.4
841.3095	849.368	5147.7	4252.35
841.4546	851.4179	5090.15	4194.8
841.5997	853.467	5069.2	4173.95
841.7448	855.5155	5041.75	4147.6
841.8899	857.5633	4994.95	4098.55
842.0351	859.6105	4952.55	4057.2
842.1802	861.6569	4905.15	4009.1
842.3253	863.7027	4845.1	3947.4
842.4704	865.7478	4829.65	3930.9
842.6156	867.7922	4787.95	3888.45
842.7607	869.8359	4773.85	3875.5
842.9058	871.8789	4778.8	3881.9
843.0509	873.9212	4825.25	3895.25
843.1961	875.9629	4842.45	3943.7
843.3412	878.0039	4906.2	4007.25
843.4863	880.0441	4948.6	4051.45
843.6315	882.0837	4984.75	4087.55
843.7766	884.1226	5027.45	4128.35
843.9218	886.1609	5092.85	4195.4
844.0669	888.1984	5177.05	4278.3
844.212	890.2352	5289.75	4394.3
844.3572	892.2714	5308.95	4405.3
844.5023	894.3069	5277	4378.7
844.6475	896.3416	5159.15	4259.3
844.7926	898.3757	5058.7	4157.65
844.9377	900.4091	4980.35	4081.1
845.0829	902.4418	4994.55	4089.25
845.228	904.4739	5021.9	4119.9
845.3732	906.5052	5049.7	4145.2
845.5183	908.5358	5041.5	4141.55
845.6635	910.5658	4971.3	4068
845.8086	912.595	4823.9	3923.15
845.9538	914.6236	4706.25	3805.45
846.0989	916.6515	4609.05	3708.35
846.2441	918.6786	4559.75	3656.2
846.3892	920.7051	4532.75	3630.2
846.5344	922.7309	4550.4	3646.4
846.6795	924.756	4565.15	3663.95
846.8246	926.7804	4603.65	3698.45
846.9698	928.8041	4637.35	3733.75
847.1149	930.8272	4658.15	3757.05
847.2601	932.8495	4650.75	3747.6
847.4052	934.8711	4662.65	3758.4
847.5504	936.892	4655.5	3755.25
847.6955	938.9123	4670.95	3766.25
847.8407	940.9318	4714.2	3810.65
847.9858	942.9506	4734.2	3831.85
848.131	944.9688	4714.1	3812.75
848.2761	946.9862	4637.15	3733.95
848.4213	949.003	4549.9	3646.45
848.5664	951.019	4480.9	3578.6
848.7115	953.0344	4436.1	3532.2
848.8567	955.0491	4407.25	3501.1
849.0018	957.063	4424.1	3520.45
849.147	959.0763	4470.35	3569.65
849.2921	961.0888	4492.5	3590.2
849.4373	963.1007	4525.15	3620.15
849.5824	965.1119	4539.85	3644.1
849.7275	967.1223	4517.7	3623.15
849.8727	969.1321	4500.5	3607.15
850.0178	971.1412	4482.6	3587.2
850.1629	973.1495	4473.05	3571.65
850.3081	975.1572	4506.8	3569.6
850.4532	977.1641	4493.55	3589.4
850.5983	979.1704	4479.2	3575.95
850.7435	981.1759	4470.05	3563.6
850.8886	983.1808	4457.95	3553.6
851.0337	985.1849	4472.65	3557.25
851.1788	987.1884	4488.65	3584.3
851.324	989.1911	4541	3637
851.4691	991.1932	4566.85	3663.7
851.6142	993.1945	4579.9	3676.75
851.7593	995.1951	4558.7	3655.6
851.9045	997.1951	4546.05	3638.85
852.0496	999.1943	4543.25	3639.95
852.1947	1001.1928	4551.7	3645.6
852.3398	1003.1906	4593.55	3690.35
852.4849	1005.1877	4673.3	3768.95
852.63	1007.1841	4734.25	3830.9
852.7751	1009.1798	4768.85	3862.4
852.9202	1011.1748	4731.35	3827.25
853.0653	1013.1691	4657.2	3754.1
853.2104	1015.1627	4545.1	3641.35
853.3555	1017.1556	4429.45	3526.5
853.5006	1019.1477	4365.1	3462.65
853.6457	1021.1392	4289.7	3391.95
853.7908	1023.1299	4275.3	3377.5
853.9359	1025.12	4268.35	3371.15
854.081	1027.1093	4312.95	3423.8
854.2261	1029.0979	4393.75	3505.3
854.3712	1031.0859	4457.5	3567.3
854.5163	1033.0731	4490.45	3593.8
854.6613	1035.0596	4481.95	3582.5
854.8064	1037.0454	4421.75	3523.05
854.9515	1039.0304	4362.65	3456.25
855.0965	1041.0148	4311.65	3407.15
855.2416	1042.9985	4247.25	3345.45
855.3867	1044.9814	4225	3321.15
855.5317	1046.9636	4196.6	3291.6
855.6768	1048.9452	4193.1	3291.7
855.8219	1050.926	4223.05	3319.55
855.9669	1052.9061	4253.6	3350.7
856.112	1054.8855	4282.65	3377.25
856.257	1056.8642	4294.9	3392.3
856.4021	1058.8421	4315.15	3408.5
856.5471	1060.8194	4334.85	3428.4
856.6921	1062.7959	4362.7	3460.3
856.8372	1064.7717	4403.1	3495.65
856.9822	1066.7469	4442.85	3539.4
857.1272	1068.7213	4526.8	3618.4
857.2723	1070.695	4576.95	3672.05
857.4173	1072.6679	4626.05	3725.1
857.5623	1074.6402	4639.95	3734.8
857.7073	1076.6117	4621.65	3716.1
857.8523	1078.5826	4552.25	3646.9
857.9973	1080.5527	4451.4	3544.4
858.1423	1082.5221	4357.75	3451.5
858.2873	1084.4908	4315.6	3411.45
858.4323	1086.4587	4295.5	3390.6
858.5773	1088.426	4305	3398.1
858.7223	1090.3925	4319.8	3410.9
858.8673	1092.3584	4344.55	3441.9
859.0123	1094.3235	4391.25	3488.45
859.1573	1096.2879	4449.6	3545
859.3022	1098.2515	4521.65	3616.9
859.4472	1100.2145	4646.9	3740.45
859.5922	1102.1767	4776.65	3870.55
859.7371	1104.1382	4922.65	4020.3
859.8821	1106.099	5081.7	4175.7
860.027	1108.0591	5225.25	4319.8
860.172	1110.0185	5316.2	4411.65
860.3169	1111.9771	5339.9	4436.35
860.4619	1113.9351	5340.7	4436.1
860.6068	1115.8923	5295.75	4390.95
860.7517	1117.8488	5221.6	4317.4
860.8967	1119.8045	5150	4244.8
861.0416	1121.7596	5054.5	4151.95
861.1865	1123.7139	4954.4	4050.95
861.3314	1125.6675	4913.75	4008.35
861.4763	1127.6204	4938.7	4035.65
861.6212	1129.5726	4901.3	3994.7
861.7661	1131.524	4858.45	3954.75
861.911	1133.4748	4749.85	3847.5
862.0559	1135.4248	4618.75	3712.25
862.2008	1137.3741	4515.85	3611.45
862.3457	1139.3226	4420.7	3514.55
862.4905	1141.2705	4405.7	3501.15
862.6354	1143.2176	4379.15	3468.8
862.7803	1145.164	4353.8	3449.5
862.9251	1147.1097	4292	3387.8
863.07	1149.0546	4234.3	3326.1
863.2148	1150.9989	4155.55	3250.7
863.3597	1152.9424	4117.1	3213.7
863.5045	1154.8852	4077	3173.2
863.6493	1156.8272	4061.85	3159.15
863.7942	1158.7686	4077.35	3164.2
863.939	1160.7092	4101.55	3194.1
864.0838	1162.6491	4139.1	3232.35
864.2286	1164.5883	4189.05	3284.85
864.3734	1166.5267	4281	3375.05
864.5182	1168.4644	4356.45	3451.15
864.663	1170.4014	4488.5	3580.45
864.8078	1172.3377	4631.7	3729.5
864.9526	1174.2732	4818.5	3918.35
865.0974	1176.2081	5093.7	4188.4
865.2421	1178.1421	5425.6	4518.65
865.3869	1180.0755	5783.45	4879.8
865.5317	1182.0082	6061.8	5160.15
865.6764	1183.9401	6144.1	5240.7
865.8212	1185.8713	6040.4	5139.8
865.9659	1187.8017	5806.1	4908.15
866.1106	1189.7315	5534.95	4642.4
866.2554	1191.6605	5278.4	4384.7
866.4001	1193.5888	5102.4	4206
866.5448	1195.5163	4997.45	4096.7
866.6895	1197.4432	4938.95	4037.2
866.8342	1199.3693	4906.05	4004.95
866.9789	1201.2947	4867.4	3960.85
867.1236	1203.2193	4843.05	3941.3
867.2683	1205.1432	4837.45	3934.15
867.413	1207.0664	4825.55	3923.75
867.5576	1208.9889	4814.5	3907.05
867.7023	1210.9106	4799.6	3896.65
867.847	1212.8316	4802.25	3901.1
867.9916	1214.7519	4833.7	3921.45
868.1363	1216.6715	4833.6	3933.15
868.2809	1218.5903	4908.15	4007.9
868.4255	1220.5084	4972.15	4069.95
868.5701	1222.4257	5056.35	4154.4
868.7148	1224.3424	5104.7	4203.15
868.8594	1226.2583	5180.35	4274.05
869.004	1228.1735	5284.45	4381.9
869.1486	1230.0879	5390.45	4486.95
869.2932	1232.0016	5532.75	4631.45
869.4377	1233.9146	5642.55	4735.95
869.5823	1235.8269	5676.4	4773.45
869.7269	1237.7384	5691.8	4791.3
869.8715	1239.6492	5633.15	4732.4
870.016	1241.5592	5643.3	4739.3
870.1606	1243.4686	5700.95	4797.05
870.3051	1245.3772	5835.65	4935.2
870.4496	1247.285	6036.05	5130.55
870.5941	1249.1922	6204.9	5299.75
870.7387	1251.0986	6348.1	5447.25
870.8832	1253.0042	6453.6	5552.7
871.0277	1254.9092	6535.5	5633.65
871.1722	1256.8134	6604.25	5703.75
871.3167	1258.7169	6697.1	5794.2
871.4611	1260.6196	6760.8	5860.75
871.6056	1262.5216	6893.1	5989.8
871.7501	1264.4229	6988.65	6087.75
871.8945	1266.3234	7118	6218.15
872.039	1268.2232	7205.25	6300.5
872.1834	1270.1223	7262.1	6360.5
872.3278	1272.0207	7280.45	6378.5
872.4723	1273.9183	7240	6334.05
872.6167	1275.8151	7230.3	6326.5
872.7611	1277.7113	7245.2	6342.95
872.9055	1279.6067	7351.55	6451.25
873.0499	1281.5014	7548.6	6646.5
873.1943	1283.3953	7885.45	6980.7
873.3386	1285.2885	8300.35	7397.65
873.483	1287.181	8707.5	7805.1
873.6274	1289.0727	9085.7	8187.4
873.7717	1290.9637	9346.45	8446
873.9161	1292.854	9503.85	8603.65
874.0604	1294.7435	9468.65	8569
874.2047	1296.6323	9336.1	8436.05
874.349	1298.5204	9174.65	8266.8
874.4933	1300.4077	8956.2	8052.75
874.6376	1302.2943	8709.75	7805.75
874.7819	1304.1802	8446.9	7546.5
874.9262	1306.0653	8119.6	7214.8
875.0705	1307.9497	7781.65	6881.05
875.2147	1309.8333	7473.4	6572.3
875.359	1311.7162	7260.55	6357.95
875.5032	1313.5984	7104.25	6199.9
875.6475	1315.4798	7010.7	6094.45
875.7917	1317.3605	6924.8	6007.8
875.9359	1319.2405	6814.35	5910.4
876.0801	1321.1197	6633.55	5728
876.2243	1322.9982	6413.95	5506.8
876.3685	1324.876	6196.25	5296.25
876.5127	1326.753	5973.3	5072.7
876.6569	1328.6293	5809.9	4904.55
876.801	1330.5048	5662.5	4755.95
876.9452	1332.3796	5537.8	4635.65
877.0893	1334.2537	5471.55	4541.15
877.2335	1336.127	5385.3	4482.1
877.3776	1337.9996	5345.8	4442.8
877.5217	1339.8714	5333.6	4430.45
877.6658	1341.7426	5371.05	4425.4
877.8099	1343.6129	5362.25	4458.1
877.954	1345.4826	5367.15	4464.65
878.0981	1347.3515	5344.5	4435.85
878.2422	1349.2196	5324.05	4418.45
878.3862	1351.087	5355.8	4451.7
878.5303	1352.9537	5382.9	4478.85
878.6743	1354.8197	5430	4524.8
878.8184	1356.6849	5528.25	4624.25
878.9624	1358.5493	5623.8	4722.8
879.1064	1360.4131	5758.95	4858.55
879.2504	1362.276	5885.1	4985.75
879.3944	1364.1383	5929	5027.2
879.5384	1365.9998	5856.4	4947.9
879.6823	1367.8606	5677.35	4773.6
879.8263	1369.7206	5488	4585.35
879.9702	1371.5799	5305.6	4402.35
880.1142	1373.4384	5124.1	4221.45
880.2581	1375.2962	4979.9	4076.8
880.402	1377.1533	4784.35	3881.8
880.5459	1379.0096	4572.85	3672.45
880.6898	1380.8652	4384.95	3483.5
880.8337	1382.7201	4221.1	3321.55
880.9776	1384.5742	4075.05	3175.6
881.1215	1386.4275	3969.85	3067.45
881.2653	1388.2802	3897.5	2995
881.4092	1390.132	3817	2915
881.553	1391.9832	3786.4	2884.4
881.6968	1393.8336	3754.25	2850.4
881.8406	1395.6832	3714	2812.1
881.9844	1397.5322	3697.2	2796.9
882.1282	1399.3803	3696	2788.65
882.272	1401.2278	3661.1	2758.9
882.4158	1403.0745	3655.95	2755.15
882.5595	1404.9204	3644.4	2746.6
882.7033	1406.7656	3644.05	2743.1
882.847	1408.6101	3643.95	2742.85
882.9908	1410.4538	3664.15	2760.2
883.1345	1412.2968	3687.35	2786.4
883.2782	1414.139	3711.9	2810.6
883.4219	1415.9805	3757.85	2857.85
883.5656	1417.8213	3807.9	2899.55
883.7092	1419.6613	3846.7	2947.6
883.8529	1421.5006	3933.9	3032.55
883.9965	1423.3391	4045.75	3144.05
884.1402	1425.1769	4208.45	3307.3
884.2838	1427.0139	4452.5	3551.65
884.4274	1428.8502	4759.2	3857.4
884.571	1430.6858	5056.05	4154.75
884.7146	1432.5206	5286.65	4384.15
884.8582	1434.3547	5408.05	4506.65
885.0018	1436.188	5409.8	4509.95
885.1453	1438.0206	5365.5	4461.65
885.2889	1439.8524	5277.3	4377.95
885.4324	1441.6835	5220.95	4317.65
885.5759	1443.5139	5165.2	4259.9
885.7194	1445.3435	5146.9	4246.3
885.8629	1447.1724	5117.75	4218.55
886.0064	1449.0005	5079.05	4180.3
886.1499	1450.8279	5072.65	4171
886.2933	1452.6545	5068.65	4168.05
886.4368	1454.4804	5077.85	4181.2
886.5802	1456.3056	5083.8	4176.75
886.7237	1458.13	5041.85	4142.95
886.8671	1459.9536	4950.45	4048.4
887.0105	1461.7766	4835.7	3934.7
887.1539	1463.5987	4652.65	3752.1
887.2972	1465.4202	4473.05	3573.3
887.4406	1467.2409	4284.4	3383.35
887.584	1469.0608	4131.5	3231.55
887.7273	1470.88	3994.1	3094.3
887.8706	1472.6984	3869.85	2970.15
888.0139	1474.5161	3750.3	2847.35
888.1572	1476.3331	3667.65	2770.35
888.3005	1478.1493	3601.3	2702.15
888.4438	1479.9648	3553.15	2653.2
888.5871	1481.7795	3523.95	2623.15
888.7303	1483.5935	3497.25	2598.8
888.8736	1485.4067	3475.75	2577
889.0168	1487.2192	3450.15	2549.95
889.16	1489.031	3441	2542.5
889.3032	1490.842	3419.8	2520.2
889.4464	1492.6522	3405.15	2504
889.5896	1494.4618	3387.55	2487.4
889.7327	1496.2705	3375.4	2477.6
889.8759	1498.0785	3349.95	2449.95
890.019	1499.8858	3320.3	2421.8
890.1622	1501.6924	3293	2396.3
890.3053	1503.4981	3272	2375.15
890.4484	1505.3032	3252.75	2351.95
890.5914	1507.1075	3222.45	2324
890.7345	1508.911	3207.05	2307.7
890.8776	1510.7138	3180.95	2279.1
891.0206	1512.5159	3147.65	2251.1
891.1637	1514.3172	3126.85	2227.4
891.3067	1516.1178	3096.3	2200.3
891.4497	1517.9176	3088.95	2189.3
891.5927	1519.7166	3065.9	2167.85
891.7357	1521.515	3052.5	2149.85
891.8786	1523.3126	3050.45	2151.45
892.0216	1525.1094	3026.25	2126.5
892.1645	1526.9055	3020.45	2124.35
892.3074	1528.7008	3004.4	2109.55
892.4503	1530.4954	2992.3	2095.65
892.5932	1532.2893	2995.55	2099.35
892.7361	1534.0824	2989.65	2090.6
892.879	1535.8747	2981.25	2084
893.0218	1537.6663	2989.4	2091.4
893.1647	1539.4572	2989.1	2092.65
893.3075	1541.2473	2987.6	2090.15
893.4503	1543.0367	3011.1	2116.6
893.5931	1544.8253	3019.1	2118.05
893.7359	1546.6132	3024.8	2127.35
893.8787	1548.4003	3050.7	2146.8
894.0214	1550.1867	3090.55	2187.2
894.1642	1551.9723	3147.9	2249.45
894.3069	1553.7572	3221.2	2327.4
894.4496	1555.5414	3270.8	2375
894.5923	1557.3247	3380.15	2486.8
894.735	1559.1074	3482.75	2590.65
894.8777	1560.8893	3612.8	2720.2
895.0204	1562.6705	3718.75	2826.7
895.163	1564.4509	3796.25	2904.25
895.3056	1566.2305	3843.95	2952.9
895.4482	1568.0094	3880.85	2991.15
895.5908	1569.7876	3877.75	2986.1
895.7334	1571.565	3859.45	2966.65
895.876	1573.3417	3858	2965.5
896.0186	1575.1176	3858.1	2965.65
896.1611	1576.8928	3882.9	2992.45
896.3036	1578.6672	3905.4	3018.1
896.4461	1580.4409	3942.2	3055.35
896.5886	1582.2138	3994.55	3103.55
896.7311	1583.986	4064.6	3172.55
896.8736	1585.7575	4131.65	3239.35
897.0161	1587.5282	4219.5	3332.25
897.1585	1589.2981	4306.1	3418.65
897.3009	1591.0673	4381.35	3492.2
897.4433	1592.8358	4467.1	3579.8
897.5857	1594.6035	4545.95	3654.4
897.7281	1596.3704	4613.1	3722.55
897.8705	1598.1366	4678.45	3788.7
898.0128	1599.9021	4730.75	3843.25
898.1551	1601.6668	4789.6	3899.25
898.2975	1603.4308	4868	3976.85
898.4398	1605.194	4983.3	4086.9
898.5821	1606.9564	5090.85	4203.05
898.7243	1608.7182	5273.9	4385.2
898.8666	1610.4791	5470.2	4586.25
899.0088	1612.2394	5667.8	4785.5
899.1511	1613.9988	5897.65	5014.15
899.2933	1615.7576	6087.65	5201.6
899.4355	1617.5156	6228.35	5334.85
899.5776	1619.2728	6235.3	5344.8
899.7198	1621.0293	6160.6	5273.75
899.862	1622.785	5965.1	5073.05
900.0041	1624.54	5692.9	4803.7
900.1462	1626.2942	5414.95	4527.25
900.2883	1628.0477	5117.7	4228.9
900.4304	1629.8005	4865	3975
900.5725	1631.5525	4630.05	3743.55
900.7145	1633.3037	4409.7	3524.3
900.8566	1635.0542	4256.15	3372.1
900.9986	1636.804	4140.55	3256.3
901.1406	1638.553	4093.2	3139.8
901.2826	1640.3013	3988.45	3101.85
901.4245	1642.0488	3935.45	3047.85
901.5665	1643.7955	3947.3	3062.25
901.7085	1645.5416	3957.05	3071.1
901.8504	1647.2868	4019.5	3134.7
901.9923	1649.0313	4067.4	3181.2
902.1342	1650.7751	4145.25	3256.55
902.2761	1652.5181	4224.05	3339.95
902.4179	1654.2604	4330.2	3444.25
902.5598	1656.0019	4432.4	3548.7
902.7016	1657.7427	4577.25	3691.1
902.8434	1659.4828	4725.4	3839.25
902.9852	1661.222	4817.45	3929.85
903.127	1662.9606	4803.15	3915.65
903.2687	1664.6984	4684.9	3797.9
903.4105	1666.4354	4451.15	3563.1
903.5522	1668.1717	4161.45	3272.75
903.6939	1669.9072	3842.4	2955.25
903.8356	1671.642	3580.05	2689.75
903.9773	1673.3761	3369.1	2483.95
904.119	1675.1094	3194.7	2310.75
904.2606	1676.8419	3043.45	2158.05
904.4022	1678.5737	2944.85	2059.4
904.5439	1680.3048	2847	1962.45
904.6855	1682.0351	2776.8	1891.2
904.827	1683.7646	2710.5	1819.7
904.9686	1685.4934	2676.3	1789.7
905.1101	1687.2215	2639.9	1756.15
905.2517	1688.9488	2591.4	1706.9
905.3932	1690.6754	2555.3	1672.8
905.5347	1692.4012	2536.6	1650.1
905.6761	1694.1263	2501.95	1616.1
905.8176	1695.8506	2483.25	1598.15
905.9591	1697.5742	2465.25	1579.7
906.1005	1699.297	2427.2	1543
906.2419	1701.0191	2416.1	1535
906.3833	1702.7404	2398.4	1516.1
906.5246	1704.461	2373.15	1488.8
906.666	1706.1808	2352.25	1466.55
906.8073	1707.8999	2342.35	1459.5
906.9487	1709.6182	2325.4	1444.95
907.09	1711.3358	2318.65	1438.15
907.2313	1713.0527	2310.1	1429.4
907.3725	1714.7688	2300.3	1413.2
907.5138	1716.4841	2281.65	1395.95
907.655	1718.1987	2275.65	1384.8
907.7962	1719.9126	2260	1378.55
907.9374	1721.6257	2255.15	1368.4
908.0786	1723.338	2256.5	1374.45
908.2198	1725.0496	2244.3	1358.8
908.3609	1726.7605	2238.95	1357.2
908.502	1728.4706	2236.2	1353.3
908.6431	1730.18	2223.3	1336.85
908.7842	1731.8886	2215.35	1334
908.9253	1733.5964	2237.25	1333.45
909.0664	1735.3036	2206.7	1322
909.2074	1737.0099	2201.6	1318.4
909.3484	1738.7156	2188.95	1306.25
909.4894	1740.4204	2179.25	1293.8
909.6304	1742.1246	2172.4	1288.05
909.7714	1743.8279	2158.5	1277.25
909.9123	1745.5306	2151.15	1268.75
910.0532	1747.2325	2127.25	1244.5
910.1941	1748.9336	2126.75	1245.7
910.335	1750.634	2119.95	1234.55
910.4759	1752.3336	2123.2	1242.4
910.6168	1754.0325	2107.6	1226.55
910.7576	1755.7307	2098.85	1216.7
910.8984	1757.4281	2101.7	1219.35
911.0392	1759.1247	2108.25	1218.1
911.18	1760.8206	2100.15	1212.3
911.3208	1762.5158	2105.05	1218.15
911.4615	1764.2102	2081.15	1198.65
911.6022	1765.9039	2078.8	1196.2
911.7429	1767.5968	2084.6	1201.35
911.8836	1769.289	2067.6	1184.65
912.0243	1770.9804	2068.35	1184.55
912.1649	1772.6711	2071.65	1187.15
912.3056	1774.361	2062.2	1177.45
912.4462	1776.0502	2057.7	1174.6
912.5868	1777.7386	2065.15	1178.15
912.7274	1779.4263	2052.55	1171.2
912.8679	1781.1132	2052.1	1170.75
913.0084	1782.7994	2040.05	1157.35
913.149	1784.4849	2037.4	1156.2
913.2895	1786.1696	2056.95	1156.2
913.4299	1787.8535	2043	1164.55
913.5704	1789.5367	2035.6	1154.35
913.7108	1791.2192	2027.9	1146.35
913.8513	1792.9009	2041.95	1134.7
913.9917	1794.5818	2013.9	1130.3
914.132	1796.2621	2014.7	1136.05
914.2724	1797.9415	2020.95	1137.85
914.4128	1799.6202	2007.45	1125.8
914.5531	1801.2982	2002.75	1120.35
914.6934	1802.9755	2004.05	1121.25
914.8337	1804.6519	2011.9	1128.35
914.9739	1806.3277	2000.5	1118.25
915.1142	1808.0027	1980.1	1100.05
915.2544	1809.6769	1993.65	1111.5
915.3946	1811.3504	1983.6	1103.4
915.5348	1813.0231	1982.6	1101.2
915.675	1814.6951	1978.75	1096.9
915.8151	1816.3664	1973.75	1088.75
915.9553	1818.0369	1991.05	1108.3
916.0954	1819.7067	1977.95	1095.1
916.2355	1821.3757	1966.7	1081.45
916.3755	1823.044	1975.7	1092.65
916.5156	1824.7115	1968.15	1085.3
916.6556	1826.3783	1963.7	1082.95
916.7956	1828.0443	1960.05	1078.1
916.9356	1829.7096	1963.75	1081.1
917.0756	1831.3741	1953.75	1068.4
917.2155	1833.0379	1948.7	1067.8
917.3555	1834.701	1961.35	1080.05
917.4954	1836.3633	1944.1	1062.25
917.6353	1838.0248	1945	1064.3
917.7751	1839.6856	1940.95	1060.85
917.915	1841.3457	1953.1	1073.8
918.0548	1843.005	1941.3	1057.75
918.1946	1844.6636	1938.95	1057.7
918.3344	1846.3214	1936.85	1053.45
918.4742	1847.9785	1935.55	1057
918.6139	1849.6349	1924.15	1039.9
918.7537	1851.2904	1937.55	1046.65
918.8934	1852.9453	1926.5	1040.85
919.0331	1854.5994	1918.6	1033.45
919.1727	1856.2528	1929.75	1040.75
919.3124	1857.9054	1919.4	1036.25
919.452	1859.5572	1911.25	1030.8
919.5916	1861.2083	1917.8	1032.9
919.7312	1862.8587	1908.9	1026.45
919.8708	1864.5084	1915.55	1029.55
920.0103	1866.1572	1916.35	1034.5
920.1498	1867.8054	1901.8	1019.2
920.2893	1869.4528	1898.55	1013.55
920.4288	1871.0994	1898.55	1017.1
920.5683	1872.7453	1897.4	1015.5
920.7077	1874.3905	1907.4	1018.95
920.8471	1876.0349	1885.9	1003.2
920.9865	1877.6786	1893.15	1010.65
921.1259	1879.3215	1883.9	1001.8
921.2653	1880.9637	1889.85	1005.2
921.4046	1882.6051	1886.85	1004.4
921.5439	1884.2458	1878.25	994.5
921.6832	1885.8858	1880.05	996.55
921.8225	1887.525	1871.6	989.75
921.9617	1889.1634	1871.3	990.2
922.101	1890.8011	1873.95	990.1
922.2402	1892.4381	1856.3	975.55
922.3794	1894.0743	1867.5	986.85
922.5185	1895.7098	1859.55	975.95
922.6577	1897.3446	1855.6	972.05
922.7968	1898.9786	1848.3	961.05
922.9359	1900.6118	1858.95	979.85
923.075	1902.2443	1849.45	965.65
923.214	1903.8761	1843.25	964.3
923.3531	1905.5071	1841.65	958.5
923.4921	1907.1374	1831.55	949.95
923.6311	1908.7669	1832.95	951.55
923.77	1910.3957	1834.15	950.65
923.909	1912.0237	1830.3	947
924.0479	1913.651	1825.25	942.4
924.1868	1915.2776	1820.3	938.7
924.3257	1916.9034	1814.65	931.7
924.4646	1918.5285	1818.15	937.8
924.6034	1920.1528	1814.3	931.85
924.7422	1921.7764	1817.4	937.05
924.881	1923.3992	1807.5	925.95
925.0198	1925.0213	1794.2	909.65
925.1586	1926.6427	1792.1	911.3
925.2973	1928.2633	1868.35	898.8
925.436	1929.8832	1803.5	918.25
925.5747	1931.5023	1794.15	912.45
925.7134	1933.1207	1791.85	908.9
925.852	1934.7383	1793.95	912.15
925.9906	1936.3552	1783.6	903.8
926.1292	1937.9714	1781.8	900.85
926.2678	1939.5868	1778.85	893.9
926.4064	1941.2015	1781.85	902.4
926.5449	1942.8154	1771.25	888.1
926.6834	1944.4286	1766.7	883.25
926.8219	1946.041	1783.9	878.65
926.9604	1947.6528	1761.5	874.2
927.0988	1949.2637	1754.15	871.7
927.2372	1950.8739	1749.75	868.65
927.3756	1952.4834	1756.55	874.75
927.514	1954.0921	1754.65	871.85
927.6523	1955.7001	1747.3	861.8
927.7907	1957.3074	1743.05	862.65
927.929	1958.9139	1744.35	867.3
928.0673	1960.5197	1731	850.6
928.2055	1962.1247	1733.45	852.6
928.3438	1963.729	1733.4	852.75
928.482	1965.3325	1728.35	841.8
928.6202	1966.9353	1717.2	837.95
928.7584	1968.5374	1723.9	842.5
928.8965	1970.1387	1720.55	840.2
929.0346	1971.7393	1716.2	834.9
929.1727	1973.3392	1715.15	835.45
929.3108	1974.9383	1707.3	828.55
929.4489	1976.5366	1703.05	823.75
929.5869	1978.1342	1698.3	820.2
929.7249	1979.7311	1707.5	825.95
929.8629	1981.3273	1699.25	820.7
930.0009	1982.9227	1691.85	811.3
930.1388	1984.5173	1684	805.65
930.2767	1986.1112	1693.95	815.35
930.4146	1987.7044	1688.35	809.2
930.5525	1989.2968	1692.05	811.4
930.6904	1990.8885	1692.6	810.25
930.8282	1992.4795	1682.65	802.95
930.966	1994.0697	1672.1	794.75
931.1038	1995.6592	1676.15	796.9
931.2415	1997.2479	1676.2	797.25
931.3793	1998.8359	1666.15	788.05
931.517	2000.4232	1668.15	791.1
931.6547	2002.0097	1663.85	787.2
931.7923	2003.5955	1660.1	780.8
931.93	2005.1805	1667.25	786.95
932.0676	2006.7648	1659.7	780.55
932.2052	2008.3484	1655.55	776.75
932.3427	2009.9312	1660.6	781.6
932.4803	2011.5133	1653.7	778.9
932.6178	2013.0946	1654.3	776.2
932.7553	2014.6752	1652.15	774.4
932.8928	2016.2551	1656.1	777.15
933.0302	2017.8342	1647.7	770.2
933.1676	2019.4126	1645.9	768.6
933.305	2020.9902	1643.95	768.3
933.4424	2022.5672	1637	759.4
933.5798	2024.1433	1634.8	753.8
933.7171	2025.7188	1634.55	758.8
933.8544	2027.2935	1627.7	750.05
933.9917	2028.8674	1626.3	750.5
934.129	2030.4406	1627.65	752.55
934.2662	2032.0131	1624.4	748.5
934.4034	2033.5849	1621.65	736.5
934.5406	2035.1559	1618.3	741.85
934.6778	2036.7261	1616.05	737.5
934.8149	2038.2957	1621.85	743.8
934.952	2039.8645	1612.8	734.85
935.0891	2041.4325	1614.95	735.35
935.2262	2042.9998	1613.35	735.2
935.3632	2044.5664	1613.8	735.95
935.5002	2046.1323	1602.3	725.05
935.6372	2047.6974	1598.05	721.85
935.7742	2049.2617	1603.55	728.3
935.9111	2050.8254	1610.55	727.45
936.048	2052.3883	1608.2	728.65
936.1849	2053.9504	1610.4	732.4
936.3218	2055.5118	1608.4	728.2
936.4586	2057.0725	1596.5	715.5
936.5955	2058.6325	1595.8	719.9
936.7323	2060.1917	1591.1	713.25
936.869	2061.7502	1591.6	712.55
937.0058	2063.3079	1587.85	710.75
937.1425	2064.8649	1582.6	701.45
937.2792	2066.4212	1577.55	697.9
937.4159	2067.9767	1581.65	703.8
937.5525	2069.5315	1581.45	704.2
937.6891	2071.0856	1577.05	700
937.8257	2072.6389	1577.35	700.7
937.9623	2074.1915	1570	695.1
938.0989	2075.7433	1570.55	690.8
938.2354	2077.2945	1566.4	689.2
938.3719	2078.8448	1571.4	692.15
938.5084	2080.3945	1566.3	688.55
938.6448	2081.9434	1568.65	688.85
938.7812	2083.4916	1553.9	675.25
938.9176	2085.039	1558.35	676.05
939.054	2086.5857	1560.9	678.35
939.1903	2088.1317	1563.5	681.3
939.3267	2089.677	1552.55	668.4
939.463	2091.2215	1551.4	670.85
939.5992	2092.7652	1550.3	667.45
939.7355	2094.3083	1551.8	670.1
939.8717	2095.8506	1550.4	671.1
940.0079	2097.3921	1548.75	669.4
940.1441	2098.933	1549.35	670
940.2802	2100.4731	1547.85	669.5
940.4163	2102.0124	1557.25	661.25
940.5524	2103.5511	1543.9	664.15
940.6885	2105.089	1538.4	658.5
940.8245	2106.6261	1539.7	659.8
940.9606	2108.1626	1539.45	659.15
941.0965	2109.6983	1566.35	660.25
941.2325	2111.2332	1530.3	649.65
941.3684	2112.7675	1529.2	647.05
941.5044	2114.301	1533.25	650.7
941.6403	2115.8337	1533.05	653.8
941.7761	2117.3657	1524.5	644.45
941.912	2118.897	1524.95	643.6
942.0478	2120.4276	1528.65	643.9
942.1835	2121.9575	1523.25	642.45
942.3193	2123.4866	1532.75	649.9
942.455	2125.0149	1525.45	644.3
942.5907	2126.5426	1518.5	638.4
942.7264	2128.0695	1515.05	633.75
942.8621	2129.5956	1509.4	630.95
942.9977	2131.1211	1521	638.8
943.1333	2132.6458	1507.25	629.45
943.2689	2134.1698	1514.1	632.95
943.4044	2135.693	1510.9	627.5
943.54	2137.2155	1507.25	622.2
943.6755	2138.7373	1506.75	625.65
943.8109	2140.2584	1496.45	616.35
943.9464	2141.7787	1502.65	620.35
944.0818	2143.2983	1498.75	621.25
944.2172	2144.8171	1489.25	612.1
944.3526	2146.3353	1494.95	614.95
944.4879	2147.8527	1490.4	613.95
944.6232	2149.3693	1495.65	612.25
944.7585	2150.8853	1488.55	609.05
944.8938	2152.4005	1498.1	616.95
945.029	2153.9149	1490.25	608.8
945.1642	2155.4287	1493.9	613.65
945.2994	2156.9417	1486.25	604.3
945.4346	2158.454	1484.5	603.1
945.5697	2159.9655	1479	600.15
945.7048	2161.4764	1482.1	604.95
945.8399	2162.9865	1482.7	605.1
945.9749	2164.4958	1478.65	597.7
946.1099	2166.0045	1469.75	589.2
946.2449	2167.5124	1474.5	595.75
946.3799	2169.0195	1474.45	595.35
946.5148	2170.526	1476.65	595.95
946.6498	2172.0317	1465.55	586.15
946.7846	2173.5367	1469.05	587.05
946.9195	2175.0409	1463.6	583.8
947.0543	2176.5445	1470.65	591.1
947.1891	2178.0473	1466.7	585.65
947.3239	2179.5494	1469.2	585.9
947.4587	2181.0507	1465.25	585.7
947.5934	2182.5513	1458.85	579.45
947.7281	2184.0512	1462.15	582.8
947.8628	2185.5504	1460.4	580.6
947.9974	2187.0488	1457.25	577.45
948.132	2188.5465	1455.15	576.15
948.2666	2190.0435	1454.6	574.75
948.4012	2191.5397	1448.35	567.25
948.5357	2193.0353	1447.05	563.75
948.6702	2194.5301	1452.55	568.65
948.8047	2196.0241	1451.15	568.2
948.9392	2197.5175	1452.65	572.8
949.0736	2199.0101	1452.15	568.85
949.208	2200.502	1444.25	565.2
949.3424	2201.9931	1441.55	561.05
949.4767	2203.4835	1434.6	552.95
949.611	2204.9733	1431.55	545.95
949.7453	2206.4622	1432.1	554.9
949.8796	2207.9505	1432.65	551.85
950.0138	2209.438	1433.15	558.15
950.148	2210.9248	1428.1	549.35
950.2822	2212.4109	1431.6	551.9
950.4164	2213.8962	1429.35	545.35
950.5505	2215.3809	1431.45	547.15
950.6846	2216.8648	1425.9	544.35
950.8186	2218.3479	1426.35	539.45
950.9527	2219.8304	1430.95	544.15
951.0867	2221.3121	1429.15	543.55
951.2207	2222.7931	1425.95	543.8
951.3546	2224.2733	1419.5	536.25
951.4886	2225.7529	1414	531.75
951.6225	2227.2317	1409.8	527.3
951.7563	2228.7098	1414.4	536.05
951.8902	2230.1872	1405.05	525.55
952.024	2231.6638	1402.25	523.4
952.1578	2233.1397	1412.5	526.6
952.2916	2234.6149	1406.85	529.35
952.4253	2236.0894	1405.5	526.65
952.559	2237.5632	1408.8	518.65
952.6927	2239.0362	1399.3	519.6
952.8263	2240.5085	1394.15	512.9
952.9599	2241.9801	1398.65	517.65
953.0935	2243.4509	1392.3	512.7
953.2271	2244.921	1392.75	511.05
953.3606	2246.3904	1388.8	506.45
953.4941	2247.8591	1390.15	508.5
953.6276	2249.3271	1387.9	505.8
953.7611	2250.7943	1390	509.2
953.8945	2252.2608	1380.35	500.45
954.0279	2253.7266	1384.85	506.5
954.1612	2255.1917	1376.4	496.75
954.2946	2256.656	1374.75	494.75
954.4279	2258.1197	1369.25	489.9
954.5612	2259.5826	1378.6	497.6
954.6944	2261.0447	1375.55	496.7
954.8276	2262.5062	1373.9	490.45
954.9608	2263.9669	1374.35	491
955.094	2265.4269	1369.1	490.15
955.2271	2266.8862	1376.95	496.55
955.3602	2268.3448	1369.5	490.35
955.4933	2269.8026	1363.75	485.55
955.6264	2271.2598	1370.7	490.25
955.7594	2272.7162	1370.15	489.2
955.8924	2274.1719	1364.4	482.65
956.0253	2275.6268	1360.1	479.2
956.1583	2277.0811	1362.7	481.05
956.2912	2278.5346	1362.95	483.4
956.4241	2279.9874	1361.7	482.6
956.5569	2281.4395	1353.2	472.75
956.6897	2282.8908	1361.6	475.15
956.8225	2284.3414	1355.6	473.6
956.9553	2285.7914	1350.7	469.5
957.088	2287.2406	1356.3	474.85
957.2207	2288.689	1354.5	472
957.3534	2290.1368	1356.5	472.4
957.486	2291.5838	1362.1	477.55
957.6186	2293.0302	1357.95	473.1
957.7512	2294.4758	1357.95	475.5
957.8838	2295.9206	1353.9	470.75
958.0163	2297.3648	1345.3	464.5
958.1488	2298.8082	1354.2	473.6
958.2813	2300.251	1344.75	462.95
958.4137	2301.693	1347.65	463.05
958.5461	2303.1343	1349.25	467.6
958.6785	2304.5748	1342.15	461.15
958.8108	2306.0147	1341.6	463.35
958.9432	2307.4538	1345.7	465.25
959.0754	2308.8922	1337.5	459.1
959.2077	2310.3299	1334.05	453.65
959.3399	2311.7669	1334.05	455.8
959.4721	2313.2031	1330.75	450.45
959.6043	2314.6387	1338.3	456.45
959.7365	2316.0735	1332.15	450.4
959.8686	2317.5076	1336.1	452.45
960.0006	2318.941	1333	450.65
960.1327	2320.3737	1332.4	450.35
960.2647	2321.8056	1335.05	451.5
960.3967	2323.2369	1329.45	446.7
960.5287	2324.6674	1330.7	447.5
960.6606	2326.0972	1332.6	449.05
960.7925	2327.5263	1324.05	442.5
960.9244	2328.9547	1324.7	441.4
961.0562	2330.3823	1330.55	447.4
961.1881	2331.8092	1326.1	439.35
961.3198	2333.2355	1323.25	441.3
961.4516	2334.661	1320.9	439.45
961.5833	2336.0858	1325.15	443.45
961.715	2337.5098	1324.15	442.6
961.8467	2338.9332	1318.95	437.65
961.9783	2340.3558	1316.25	431.7
962.1099	2341.7778	1310.25	428.2
962.2415	2343.199	1312.2	429.65
962.373	2344.6195	1313.75	433.45
962.5045	2346.0393	1311.85	430.4
962.636	2347.4583	1313.45	431.95
962.7675	2348.8767	1310.85	429.7
962.8989	2350.2943	1313.85	430.35
963.0303	2351.7113	1306.45	421.85
963.1617	2353.1275	1302.55	416.9
963.293	2354.543	1336.25	429.5
963.4243	2355.9578	1307.45	425.45
963.5556	2357.3718	1301.35	420.65
963.6868	2358.7852	1309.65	425.35
963.818	2360.1978	1300.05	419.7
963.9492	2361.6098	1299.05	418.35
964.0803	2363.021	1303.85	417.3
964.2114	2364.4315	1303.3	423.25
964.3425	2365.8413	1295.5	411.75
964.4736	2367.2504	1293.5	413.8
964.6046	2368.6587	1297.2	416.35
964.7356	2370.0664	1295.5	416.1
964.8666	2371.4733	1290.5	408.75
964.9975	2372.8795	1294.15	413
965.1284	2374.285	1300.1	419.4
965.2593	2375.6899	1288.8	407.95
965.3901	2377.0939	1283.5	401.15
965.5209	2378.4973	1284.55	403.35
965.6517	2379.9	1285.5	402.3
965.7825	2381.3019	1277.85	398.6
965.9132	2382.7032	1278.65	398.7
966.0439	2384.1037	1277.4	399.3
966.1745	2385.5035	1282.45	403.1
966.3051	2386.9027	1284.25	407.45
966.4357	2388.3011	1279.7	396.3
966.5663	2389.6987	1280.25	400.9
966.6968	2391.0957	1271.35	391.9
966.8273	2392.492	1275.45	392.75
966.9578	2393.8876	1270.15	388.4
967.0882	2395.2824	1268.95	386.15
967.2186	2396.6765	1265.25	385.5
967.349	2398.07	1269.7	388.45
967.4793	2399.4627	1263.75	380.85
967.6097	2400.8547	1267.5	387.3
967.7399	2402.246	1267	378.65
967.8702	2403.6366	1264.35	381.85
968.0004	2405.0265	1258.35	375.9
968.1306	2406.4156	1267.75	382.1
968.2607	2407.8041	1259.5	375.25
968.3909	2409.1918	1261.3	377.05
968.521	2410.5789	1259.95	377.25
968.651	2411.9652	1257.5	374.6
968.781	2413.3508	1260.7	378.85
968.911	2414.7358	1254.4	371.45
969.041	2416.12	1249.85	367.8
969.1709	2417.5035	1256.85	374.2
969.3008	2418.8863	1248.7	366.95
969.4307	2420.2684	1251.8	370.1
969.5606	2421.6497	1249.5	366.2
969.6904	2423.0304	1249.85	367.65
969.8201	2424.4104	1250.5	367.25
969.9499	2425.7896	1256.4	367
970.0796	2427.1682	1251.05	369.85
970.2093	2428.546	1249.1	367.25
970.3389	2429.9232	1250.3	365.6
970.4685	2431.2996	1248.05	366.7
970.5981	2432.6753	1246.85	365.7
970.7277	2434.0503	1249.65	368
970.8572	2435.4246	1245.1	362.65
970.9867	2436.7982	1241.8	355.85
971.1161	2438.1711	1243.45	361.55
971.2456	2439.5433	1238.1	356.85
971.375	2440.9148	1240.45	352.25
971.5043	2442.2856	1232.95	352.8
971.6336	2443.6557	1237.25	353.7
971.7629	2445.025	1235.7	353.55
971.8922	2446.3937	1241.5	358.45
972.0214	2447.7617	1235.1	353
972.1506	2449.1289	1237.5	356.5
972.2798	2450.4955	1233.7	346.75
972.4089	2451.8613	1220.65	338.9
972.538	2453.2265	1231.75	350.4
972.6671	2454.5909	1228.5	345.8
972.7961	2455.9546	1231.5	349.85
972.9251	2457.3177	1227.5	347.7
973.0541	2458.68	1225.05	342.65
973.1831	2460.0416	1227.25	346.65
973.312	2461.4025	1229.1	346.1
973.4408	2462.7627	1233.8	341.5
973.5697	2464.1222	1224.5	345.35
973.6985	2465.4811	1227.4	347.4
973.8273	2466.8392	1224.65	342.1
973.956	2468.1966	1227.5	344.05
974.0847	2469.5533	1224.95	344.35
974.2134	2470.9093	1228.5	346.8
974.3421	2472.2645	1226.3	343.45
974.4707	2473.6191	1218.7	339.15
974.5993	2474.973	1222.7	341.15
974.7278	2476.3262	1214.9	330.1
974.8563	2477.6787	1215.6	334.8
974.9848	2479.0305	1218.95	339
975.1132	2480.3816	1220.55	339.75
975.2417	2481.7319	1216.05	335.2
975.37	2483.0816	1213.65	333.8
975.4984	2484.4306	1214.7	334.5
975.6267	2485.7789	1210.8	331.9
975.755	2487.1264	1212.4	330.25
975.8833	2488.4733	1212.6	333.1
976.0115	2489.8195	1231.5	331.8
976.1397	2491.165	1211.95	327.4
976.2678	2492.5097	1212.6	331
976.3959	2493.8538	1209.65	330.75
976.524	2495.1972	1204.9	323.65
976.6521	2496.5398	1209.4	326.05
976.7801	2497.8818	1204.3	319.65
976.9081	2499.2231	1204.6	324.15
977.036	2500.5637	1201.05	318.4
977.164	2501.9035	1198.65	316.2
977.2918	2503.2427	1204.5	320.45
977.4197	2504.5812	1200.7	318.2
977.5475	2505.919	1199	314.95
977.6753	2507.256	1201.95	320
977.8031	2508.5924	1197.35	314.65
977.9308	2509.9281	1204.5	319.2
978.0585	2511.2631	1198.6	318.2
978.1861	2512.5974	1197.55	318.15
978.3137	2513.9309	1197.15	315.15
978.4413	2515.2638	1224.05	313.8
978.5689	2516.596	1193.45	312.65
978.6964	2517.9275	1198.85	316.95
978.8239	2519.2583	1192.3	310.35
978.9513	2520.5884	1188.6	306
979.0788	2521.9178	1194.75	312.7
979.2062	2523.2465	1191.05	311.1
979.3335	2524.5745	1186.8	304.4
979.4608	2525.9018	1191.3	312.45
979.5881	2527.2284	1187.55	308.25
979.7154	2528.5543	1188.9	310.15
979.8426	2529.8796	1185.2	303.25
979.9698	2531.2041	1187.2	306.9
980.0969	2532.5279	1186.7	307.65
980.224	2533.851	1181.2	300.3
980.3511	2535.1735	1191.9	310.25
980.4781	2536.4952	1188.7	307.8
980.6052	2537.8163	1190.35	306.25
980.7321	2539.1366	1182.7	301.3
980.8591	2540.4562	1183.45	300.3
980.986	2541.7752	1184.35	302.6
981.1129	2543.0935	1185.6	305.45
981.2397	2544.411	1183.95	300.6
981.3665	2545.7279	1187.55	307.75
981.4933	2547.0441	1183.1	298.85
981.62	2548.3596	1186.65	303.2
981.7467	2549.6744	1187.8	307.3
981.8734	2550.9885	1196.15	306
982.0001	2552.3019	1178.7	297.45
982.1267	2553.6146	1187	304.55
982.2532	2554.9266	1172.9	290.6
982.3798	2556.2379	1183.3	299.45
982.5063	2557.5485	1176.3	295.85
982.6327	2558.8585	1187.45	298.85
982.7592	2560.1677	1183.35	298.15
982.8856	2561.4762	1177.35	296.4
983.0119	2562.7841	1179.45	295.85
983.1383	2564.0913	1173.2	294.2
983.2646	2565.3977	1175.35	295.35
983.3908	2566.7035	1175.75	296.4
983.517	2568.0086	1175.2	293.2
983.6432	2569.313	1176.35	294.8
983.7694	2570.6167	1177.7	294.5
983.8955	2571.9197	1173.1	292.4
984.0216	2573.222	1186.8	301.2
984.1476	2574.5236	1175.8	293.4
984.2737	2575.8246	1177.55	294.3
984.3996	2577.1248	1175.5	291.35
984.5256	2578.4244	1175.65	294.75
984.6515	2579.7232	1170.45	290.45
984.7774	2581.0214	1204.65	295.1
984.9032	2582.3189	1169.05	290.85
985.029	2583.6157	1175.9	291.8
985.1548	2584.9118	1171.2	289.9
985.2806	2586.2072	1170.75	290
985.4063	2587.5019	1169.5	290
985.5319	2588.7959	1172.9	290.4
985.6576	2590.0893	1177.6	293.8
985.7832	2591.3819	1169.5	289.8
985.9087	2592.6739	1174.9	297.15
986.0343	2593.9652	1179.55	297.1
986.1597	2595.2557	1172.55	292.9
986.2852	2596.5456	1179.65	298.4
986.4106	2597.8348	1174.4	294
986.536	2599.1234	1172.9	294.7
986.6614	2600.4112	1179.7	300.05
986.7867	2601.6983	1179.7	294.65
986.912	2602.9848	1175.25	296.35
987.0372	2604.2705	1178.05	289.5
987.1624	2605.5556	1176.3	298.85
987.2876	2606.84	1177.25	297.55
987.4128	2608.1237	1170.95	288.15
987.5379	2609.4067	1164.1	284.25
987.6629	2610.689	1180.95	293.05
987.788	2611.9707	1173.65	289.5
987.913	2613.2516	1168.3	283.5
988.0379	2614.5319	1160.45	279.55
988.1629	2615.8115	1156.15	275.5
988.2878	2617.0903	1165.55	283.95
988.4126	2618.3685	1157.35	276.5
988.5375	2619.6461	1161.4	283.5
988.6622	2620.9229	1156.95	277.35
988.787	2622.199	1162.75	283.65
988.9117	2623.4745	1159.4	281
989.0364	2624.7493	1156	278.2
989.161	2626.0234	1158.25	279.7
989.2857	2627.2968	1160.35	281.35
989.4102	2628.5695	1154.85	273.45
989.5348	2629.8415	1157.3	277.05
989.6593	2631.1128	1155.25	272.4
989.7837	2632.3835	1154.9	276.1
989.9082	2633.6535	1150	273.1
990.0326	2634.9228	1158.05	279.3
990.1569	2636.1914	1152	272.85
990.2812	2637.4593	1155.75	276.55
990.4055	2638.7265	1151	270.5
990.5298	2639.9931	1152.35	275.05
990.654	2641.259	1151.05	269.05
990.7782	2642.5242	1149.3	269.85
990.9023	2643.7887	1152.2	272.45
991.0264	2645.0525	1151.1	271.85
991.1505	2646.3156	1151.6	272.35
991.2745	2647.5781	1144.4	263.75
991.3985	2648.8398	1146	266.95
991.5225	2650.1009	1179.3	261.7
991.6464	2651.3613	1145.35	265.45
991.7703	2652.6211	1145.1	265.6
991.8942	2653.8801	1140.15	260.95
992.018	2655.1385	1141.65	260.75
992.1418	2656.3961	1140.2	261.95
992.2655	2657.6531	1141.65	262.45
992.3892	2658.9094	1140.4	261.15
992.5129	2660.1651	1142.55	264.9
992.6366	2661.42	1144.8	266.2
992.7602	2662.6743	1148.55	267.4
992.8837	2663.9279	1146.5	267.5
993.0073	2665.1808	1148.5	269
993.1307	2666.433	1150.4	269.3
993.2542	2667.6846	1144.25	265.15
993.3776	2668.9354	1151.6	268.85
993.501	2670.1856	1150.85	270.1
993.6244	2671.4351	1157.1	278.5
993.7477	2672.6839	1157.7	277.95
993.8709	2673.9321	1151.05	274.1
993.9942	2675.1795	1160.95	281.55
994.1174	2676.4263	1157.45	278.85
994.2405	2677.6724	1154.55	275.85
994.3637	2678.9179	1157.6	278.2
994.4868	2680.1626	1161.3	283.4
994.6098	2681.4067	1161.05	282.3
994.7328	2682.6501	1153.4	275.85
994.8558	2683.8928	1150.95	273.05
994.9788	2685.1348	1146.4	268.15
995.1017	2686.3761	1149.8	270.5
995.2245	2687.6168	1149.6	271.2
995.3474	2688.8568	1144.2	264.3
995.4702	2690.0961	1140.5	263.15
995.5929	2691.3348	1143.3	264.85
995.7156	2692.5727	1144.1	265.35
995.8383	2693.81	1142.95	264.3
995.961	2695.0466	1137.8	258.9
996.0836	2696.2826	1141	259.8
996.2062	2697.5178	1160.25	261.25
996.3287	2698.7524	1141.55	262.6
996.4512	2699.9863	1144.8	263.5
996.5737	2701.2195	1140.3	262.3
996.6961	2702.452	1150.7	272.25
996.8185	2703.6839	1156.1	276.25
996.9408	2704.9151	1154.1	276.6
997.0631	2706.1456	1155.25	277.75
997.1854	2707.3755	1158.1	277.85
997.3077	2708.6046	1163.05	281.4
997.4299	2709.8331	1166.45	288.15
997.552	2711.0609	1172.4	292.4
997.6742	2712.2881	1170.05	292.25
997.7963	2713.5145	1173.65	291.3
997.9183	2714.7403	1180.15	302.8
998.0403	2715.9654	1188.95	309.7
998.1623	2717.1899	1208.65	313.75
998.2842	2718.4136	1195.35	319.15
998.4062	2719.6367	1203.5	324.15
998.528	2720.8591	1213.45	326.7
998.6498	2722.0809	1217.25	339.45
998.7716	2723.3019	1227.85	348.15
998.8934	2724.5223	1229.25	352.4
999.0151	2725.7421	1225.55	344.35
999.1368	2726.9611	1234.85	352.65
999.2584	2728.1795	1232.2	348.25
999.38	2729.3972	1224.9	345.7
999.5016	2730.6142	1226.1	339.15
999.6231	2731.8306	1214.45	335.3
999.7446	2733.0462	1198.2	318.4
999.8661	2734.2612	1202.15	317.05
999.9875	2735.4756	1183.65	304.55
1000.1089	2736.6892	1183.1	305.1
1000.2302	2737.9022	1174.05	295.45
1000.3515	2739.1145	1166.25	286.45
1000.4728	2740.3262	1168.95	280.3
1000.594	2741.5372	1150.85	272
1000.7152	2742.7475	1146.05	265
1000.8363	2743.9571	1143.2	263.9
1000.9575	2745.1661	1144.3	261
1001.0785	2746.3744	1135.7	254.6
1001.1996	2747.582	1136.6	258.1
1001.3206	2748.7889	1131.45	250.1
1001.4415	2749.9952	1121	244.15
1001.5625	2751.2008	1119.55	239.2
1001.6833	2752.4057	1120.45	240.15
1001.8042	2753.61	1121.15	241.85
1001.925	2754.8136	1114.15	233.45
1002.0458	2756.0165	1115.8	239.3
1002.1665	2757.2188	1113.4	235.35
1002.2872	2758.4204	1114.1	237.05
1002.4078	2759.6213	1119.35	237.45
1002.5285	2760.8215	1119.1	234.95
1002.649	2762.0211	1110.75	230.8
1002.7696	2763.22	1116.65	234.45
1002.8901	2764.4182	1110	228.75
1003.0106	2765.6158	1109.5	233
1003.131	2766.8127	1110.75	231.35
1003.2514	2768.009	1109.1	232.05
1003.3717	2769.2045	1107.75	227.05
1003.492	2770.3994	1105.55	226.85
1003.6123	2771.5936	1103.7	225.45
1003.7325	2772.7872	1104.55	229.55
1003.8527	2773.9801	1103.8	223.35
1003.9729	2775.1723	1116.05	222.1
1004.093	2776.3639	1097.2	219.85
1004.2131	2777.5548	1095.5	215.55
1004.3331	2778.745	1098.65	218.65
1004.4531	2779.9346	1096.9	220.5
1004.5731	2781.1235	1099.85	220.45
1004.693	2782.3117	1097.25	220.55
1004.8129	2783.4992	1099.9	222.5
1004.9328	2784.6861	1101	222.75
1005.0526	2785.8723	1105.6	226.55
1005.1723	2787.0579	1107.2	229.55
1005.2921	2788.2428	1113.15	233.5
1005.4118	2789.427	1114.1	235
1005.5314	2790.6106	1112.55	236.4
1005.651	2791.7935	1121.65	242.75
1005.7706	2792.9757	1114.05	237.7
1005.8902	2794.1573	1125.45	243.35
1006.0097	2795.3382	1126.6	249.1
1006.1291	2796.5184	1124.2	249.5
1006.2485	2797.698	1141.65	261.95
1006.3679	2798.8769	1135.1	257.55
1006.4873	2800.0551	1150.2	269.4
1006.6066	2801.2327	1152.25	271.1
1006.7258	2802.4096	1156.85	279
1006.8451	2803.5859	1163.85	285.15
1006.9642	2804.7615	1176.2	299.3
1007.0834	2805.9364	1185.2	309.8
1007.2025	2807.1106	1187.05	309.15
1007.3216	2808.2842	1207.35	328.7
1007.4406	2809.4572	1215.15	338.5
1007.5596	2810.6294	1234.7	355.2
1007.6785	2811.801	1246.35	371.85
1007.7975	2812.972	1266.35	390
1007.9163	2814.1423	1288.3	410.1
1008.0352	2815.3119	1303.95	425.15
1008.154	2816.4808	1333.35	457.85
1008.2727	2817.6491	1358.2	479.7
1008.3914	2818.8167	1386.55	509.4
1008.5101	2819.9837	1418.3	536.85
1008.6288	2821.15	1449.65	569.3
1008.7474	2822.3157	1481.65	607.45
1008.8659	2823.4807	1514.7	635.9
1008.9844	2824.645	1544.55	665.45
1009.1029	2825.8086	1578.6	700.7
1009.2214	2826.9716	1617.4	742.3
1009.3398	2828.134	1649.7	773.15
1009.4581	2829.2957	1672.05	796.6
1009.5764	2830.4567	1690.3	815.8
1009.6947	2831.617	1699.45	822.55
1009.813	2832.7767	1710.65	832.7
1009.9312	2833.9358	1702.15	824.6
1010.0493	2835.0941	1701.85	822.95
1010.1675	2836.2519	1690.85	814.1
1010.2855	2837.4089	1684.35	807.05
1010.4036	2838.5653	1672.05	794
1010.5216	2839.7211	1659.15	784.45
1010.6396	2840.8761	1657.1	778.65
1010.7575	2842.0306	1665.55	788.3
1010.8754	2843.1843	1675.6	799.35
1010.9932	2844.3374	1688	810.4
1011.111	2845.4899	1705.05	827
1011.2288	2846.6417	1737.3	861.25
1011.3465	2847.7928	1766	887.25
1011.4642	2848.9433	1793.15	917.55
1011.5818	2850.0931	1821.95	943.6
1011.6995	2851.2422	1850.65	970.85
1011.817	2852.3907	1877.5	999.9
1011.9345	2853.5385	1903.25	1026.3
1012.052	2854.6857	1958.55	1053.7
1012.1695	2855.8323	1958.95	1081.9
1012.2869	2856.9781	1984.75	1106.15
1012.4042	2858.1233	2003.65	1127.05
1012.5216	2859.2679	2038.95	1162.55
1012.6389	2860.4118	2064.85	1187.65
1012.7561	2861.555	2102.25	1220.25
1012.8733	2862.6976	2118.65	1239.7
1012.9905	2863.8395	2133.6	1255.3
1013.1076	2864.9808	2155	1277.45
1013.2247	2866.1214	2164.25	1289.05
1013.3417	2867.2614	2172.9	1293.75
1013.4587	2868.4007	2183.9	1303.55
1013.5757	2869.5393	2192.2	1314.3
1013.6926	2870.6773	2190.25	1309.55
1013.8095	2871.8146	2205.3	1325.4
1013.9263	2872.9513	2202.25	1322.55
1014.0431	2874.0874	2193.1	1316
1014.1599	2875.2227	2202.35	1322.45
1014.2766	2876.3574	2185.3	1308.05
1014.3933	2877.4915	2171.75	1293.9
1014.51	2878.6249	2146.7	1271
1014.6266	2879.7577	2149	1269.3
1014.7431	2880.8898	2147.5	1261.1
1014.8596	2882.0212	2134.5	1260.6
1014.9761	2883.152	2122.75	1245.2
1015.0925	2884.2821	2115.2	1240.5
1015.2089	2885.4116	2119.45	1241.35
1015.3253	2886.5405	2123.75	1246.55
1015.4416	2887.6686	2132.25	1253.3
1015.5579	2888.7962	2131.55	1256.4
1015.6741	2889.923	2128.15	1251.1
1015.7903	2891.0493	2133	1255.7
1015.9065	2892.1748	2142.85	1265.7
1016.0226	2893.2997	2158	1281.85
1016.1387	2894.424	2157.05	1280.85
1016.2547	2895.5476	2157.15	1281.85
1016.3707	2896.6706	2175.7	1297.4
1016.4866	2897.7929	2185.8	1309.95
1016.6025	2898.9145	2189.5	1311.95
1016.7184	2900.0355	2202.35	1323.65
1016.8342	2901.1559	2230.7	1353.6
1016.95	2902.2756	2237.25	1360.65
1017.0658	2903.3946	2257.85	1381.4
1017.1815	2904.513	2266.3	1387.1
1017.2971	2905.6308	2281.7	1404.5
1017.4127	2906.7479	2292.7	1415.5
1017.5283	2907.8643	2302.1	1423.45
1017.6439	2908.9801	2305	1428.55
1017.7594	2910.0953	2307.85	1431.6
1017.8748	2911.2098	2309.25	1430.25
1017.9902	2912.3236	2313.65	1427.2
1018.1056	2913.4368	2316.65	1436.45
1018.2209	2914.5494	2285.7	1408.55
1018.3362	2915.6613	2272.55	1391.25
1018.4515	2916.7725	2245.85	1366
1018.5667	2917.8831	2230.4	1352.7
1018.6819	2918.9931	2231.2	1353.95
1018.797	2920.1024	2212	1333.45
1018.9121	2921.211	2197.3	1322.65
1019.0271	2922.319	2195.4	1316.45
1019.1421	2923.4264	2185.45	1309.8
1019.2571	2924.5331	2181.35	1305.35
1019.372	2925.6391	2177.65	1301.25
1019.4869	2926.7445	2183	1307.9
1019.6017	2927.8493	2171.15	1292.85
1019.7165	2928.9534	2183.1	1306.55
1019.8313	2930.0569	2192.75	1313.2
1019.946	2931.1597	2197.15	1319.55
1020.0606	2932.2619	2194.8	1318.15
1020.1753	2933.3634	2192.85	1315.5
1020.2899	2934.4643	2214.6	1330.6
1020.4044	2935.5645	2194.8	1312.55
1020.5189	2936.6641	2194.25	1312.75
1020.6334	2937.763	2185.45	1310.85
1020.7478	2938.8613	2161.15	1283.8
1020.8622	2939.959	2143.1	1261.45
1020.9765	2941.056	2109.55	1233.95
1021.0908	2942.1523	2072.85	1193.55
1021.2051	2943.248	2027.15	1150.45
1021.3193	2944.3431	1981.8	1104.9
1021.4334	2945.4375	1939.5	1062.8
1021.5476	2946.5313	1892.3	1018.5
1021.6617	2947.6244	1824.1	946.5
1021.7757	2948.7169	1781.3	903.9
1021.8897	2949.8087	1739.4	862.8
1022.0037	2950.8999	1700.8	823.8
1022.1176	2951.9904	1651.5	775.8
1022.2315	2953.0803	1626.7	751.35
1022.3453	2954.1696	1581.7	704.8
1022.4591	2955.2582	1559.55	684.8
1022.5728	2956.3462	1532.9	655.65
1022.6865	2957.4335	1518	642.05
1022.8002	2958.5202	1499.55	620.75
1022.9138	2959.6062	1482.6	607.5
1023.0274	2960.6916	1470.55	593.1
1023.141	2961.7764	1458	580.2
1023.2545	2962.8605	1454.85	576
1023.3679	2963.9439	1450	574.85
1023.4813	2965.0267	1443.5	565.25
1023.5947	2966.1089	1462.35	563
1023.708	2967.1905	1433.25	557.3
1023.8213	2968.2714	1438.85	562.1
1023.9346	2969.3516	1440.3	564.25
1024.0478	2970.4312	1446.45	561.65
1024.1609	2971.5102	1440.1	566.15
1024.274	2972.5885	1442.6	565.75
1024.3871	2973.6662	1444.7	563.55
1024.5002	2974.7432	1445.1	569.7
1024.6132	2975.8196	1442.3	565.6
1024.7261	2976.8954	1435.5	560.85
1024.839	2977.9705	1439.4	562.05
1024.9519	2979.045	1431.3	554.75
1025.0647	2980.1188	1429.45	554.25
1025.1775	2981.192	1412.75	536.05
1025.2902	2982.2645	1403.95	526
1025.4029	2983.3364	1394.3	517.25
1025.5156	2984.4077	1381.2	505.95
1025.6282	2985.4783	1380.9	498.65
1025.7407	2986.5483	1350.95	474.25
1025.8532	2987.6177	1336.85	461.75
1025.9657	2988.6864	1320.8	442.4
1026.0782	2989.7545	1306.1	430.3
1026.1906	2990.8219	1281.45	404.8
1026.3029	2991.8887	1273.6	396.35
1026.4152	2992.9548	1253.35	376.4
1026.5275	2994.0204	1237	360.5
1026.6397	2995.0852	1219.75	344.15
1026.7519	2996.1495	1209.4	332.25
1026.864	2997.2131	1189.3	313.15
1026.9761	2998.276	1181.65	304.8
1027.0882	2999.3383	1167.9	290.55
1027.2002	3000.4	1160.95	284.25
1027.3122	3001.4611	1146.2	272.05
1027.4241	3002.5215	1135.4	259.6
1027.536	3003.5812	1126.7	251.6
1027.6478	3004.6404	1119.2	242.2
1027.7596	3005.6989	1117.45	240.7
1027.8714	3006.7567	1109.15	232.65
1027.9831	3007.8139	1128.05	223.5
1028.0947	3008.8705	1095.05	219.35
1028.2064	3009.9264	1093.95	213.4
1028.3179	3010.9818	1084.15	206.45
1028.4295	3012.0364	1081.75	205.15
1028.541	3013.0905	1079	201.75
1028.6524	3014.1439	1072.8	198.4
1028.7638	3015.1966	1073.85	200.4
1028.8752	3016.2487	1068.75	195
1028.9865	3017.3002	1073.55	192.85
1029.0978	3018.3511	1061.35	187.9
1029.209	3019.4013	1061.55	185.1
1029.3202	3020.4509	1059.2	182.4
1029.4314	3021.4998	1060.45	184.1
1029.5425	3022.5481	1059.35	181.85
1029.6535	3023.5958	1058.85	182.25
1029.7645	3024.6428	1057.6	179.85
1029.8755	3025.6892	1055.65	180.6
1029.9864	3026.735	1054.85	177.55
1030.0973	3027.7802	1052.55	177.6
1030.2082	3028.8247	1052	176.7
1030.319	3029.8685	1055.4	177.2
1030.4297	3030.9118	1059.25	183.9
1030.5404	3031.9544	1058.6	182.8
1030.6511	3032.9963	1054.85	178.15
1030.7617	3034.0376	1060.4	186.25
1030.8723	3035.0783	1064.85	186.15
1030.9829	3036.1184	1062.5	187.65
1031.0934	3037.1578	1061.05	186.55
1031.2038	3038.1966	1065.3	189.3
1031.3142	3039.2348	1065.85	191.4
1031.4246	3040.2723	1070.45	185.25
1031.5349	3041.3092	1063.4	189.6
1031.6452	3042.3455	1066.1	190.95
1031.7554	3043.3811	1067.4	191.3
1031.8656	3044.4161	1060.95	184.2
1031.9758	3045.4505	1058.75	182.9
1032.0859	3046.4842	1060.75	184.15
1032.1959	3047.5173	1060.35	184.45
1032.3059	3048.5498	1061.95	184.25
1032.4159	3049.5816	1059.65	185.85
1032.5258	3050.6128	1062.65	186.35
1032.6357	3051.6434	1059.9	183
1032.7455	3052.6734	1053.3	177.7
1032.8553	3053.7027	1052.45	174.75
1032.9651	3054.7314	1053.45	177.65
1033.0748	3055.7594	1049.55	173.75
1033.1845	3056.7868	1053.8	175.65
1033.2941	3057.8136	1047.8	173
1033.4037	3058.8398	1052.2	176.1
1033.5132	3059.8653	1052.7	178
1033.6227	3060.8902	1048.1	171.95
1033.7321	3061.9145	1052.45	177.55
1033.8415	3062.9381	1045.8	169
1033.9509	3063.9612	1062.4	169.8
1034.0602	3064.9835	1047.2	171.95
1034.1694	3066.0053	1048.95	170.6
1034.2787	3067.0264	1042.15	165.35
1034.3878	3068.0469	1040.7	164.4
1034.497	3069.0668	1039.65	159.65
1034.6061	3070.086	1038.6	164.15
1034.7151	3071.1046	1037.4	162.5
1034.8241	3072.1226	1038.7	162.25
1034.9331	3073.1399	1027.3	152.2
1035.042	3074.1567	1027.3	151.3
1035.1508	3075.1727	1028.7	150.6
1035.2597	3076.1882	1020	144.4
1035.3684	3077.203	1015.95	141.3
1035.4772	3078.2173	1013.3	137.55
1035.5859	3079.2308	1015.15	138.85
1035.6945	3080.2438	1010.3	131.5
1035.8031	3081.2561	1006	130.1
1035.9117	3082.2678	1001.65	125.7
1036.0202	3083.2789	993.95	118.05
1036.1286	3084.2893	995.95	121.95
1036.2371	3085.2991	995.3	118.55
1036.3454	3086.3083	995.1	116.25
1036.4538	3087.3169	991.65	114
1036.562	3088.3248	983.9	107.15
1036.6703	3089.3321	989.5	113.1
1036.7785	3090.3388	981.6	105.35
1036.8866	3091.3449	979.25	104.6
1036.9948	3092.3503	977.3	100.6
1037.1028	3093.3551	973.2	97.6
1037.2108	3094.3593	972.6	98.3
1037.3188	3095.3629	970.95	95.25
1037.4267	3096.3658	972.35	94.75
1037.5346	3097.3681	971.65	94.5
1037.6425	3098.3698	968.75	90.4
1037.7503	3099.3708	973.65	90.7
1037.858	3100.3713	966.65	91.9
1037.9657	3101.3711	961.65	87.6
1038.0734	3102.3702	1101.5	88.75
1038.181	3103.3688	964.05	86.95
1038.2886	3104.3667	957.5	82.25
1038.3961	3105.364	958.75	83.95
1038.5036	3106.3607	956.65	78.6
1038.611	3107.3568	960.2	84.2
1038.7184	3108.3522	957.8	83.55
1038.8257	3109.347	951.5	74.9
1038.933	3110.3412	961.05	81.65
1039.0403	3111.3348	951.3	76.65
1039.1475	3112.3277	950.75	76.25
1039.2547	3113.32	948.55	73.75
1039.3618	3114.3117	950.7	75.5
1039.4689	3115.3028	950.75	76.95
1039.5759	3116.2932	949.95	71.4
1039.6829	3117.2831	956.15	72.9
1039.7898	3118.2723	946.5	71.1
1039.8967	3119.2608	942.95	67.15
1040.0035	3120.2488	944.4	68.8
1040.1103	3121.2361	942.9	66.35
1040.2171	3122.2229	943.3	69.55
1040.3238	3123.209	943.55	68.65
1040.4305	3124.1944	941.55	67.15
1040.5371	3125.1793	941.6	65.25
1040.6437	3126.1635	937.55	62.55
1040.7502	3127.1471	936.15	61.1
1040.8567	3128.1301	939.85	65.9
1040.9631	3129.1125	934.3	59.9
1041.0695	3130.0942	936.9	61.3
1041.1759	3131.0753	945.45	61.6
1041.2822	3132.0558	940.45	61.8
1041.3884	3133.0357	934.05	59.25
1041.4946	3134.015	936.05	60.15
1041.6008	3134.9936	937.6	59.85
1041.7069	3135.9716	953.45	55
1041.813	3136.949	932.15	56
1041.919	3137.9258	951.15	55.6
1042.025	3138.902	939.3	58.25
1042.1309	3139.8775	933.3	58
1042.2368	3140.8524	929.15	54.2
1042.3427	3141.8267	933.9	57.7
1042.4485	3142.8004	933.65	56.7
1042.5542	3143.7735	935.45	54.15
1042.6599	3144.7459	932.6	56.45
1042.7656	3145.7178	927.35	52.25
1042.8712	3146.689	927	54.05
1042.9768	3147.6596	930.55	53.85
1043.0823	3148.6295	927.6	52.55
1043.1878	3149.5989	926.05	50.2
1043.2932	3150.5676	927.1	52.85
1043.3986	3151.5357	925.35	50.85
1043.5039	3152.5032	929.45	53.55
1043.6092	3153.4701	925.65	50.1
1043.7145	3154.4364	930.9	51.95
1043.8197	3155.402	925.05	52.3
1043.9248	3156.367	926.7	50.1
1044.03	3157.3315	961.3	50.6
1044.135	3158.2952	922.9	46.7
1044.24	3159.2584	922.3	47.5
1044.345	3160.221	921.6	46.05
1044.4499	3161.1829	922.1	46.35
1044.5548	3162.1442	923.85	46.9
1044.6596	3163.105	920.85	46.55
1044.7644	3164.065	926.25	48.9
1044.8692	3165.0245	926.7	49.8
1044.9739	3165.9834	918.4	44.45
1045.0785	3166.9416	924.8	50.3
1045.1831	3167.8993	921.7	46.35
1045.2877	3168.8563	920.6	44.75
1045.3922	3169.8127	918.35	41.9
1045.4966	3170.7684	920.8	43.2
1045.6011	3171.7236	921.75	47.2
1045.7054	3172.6782	919.95	44.8
1045.8098	3173.6321	918.15	41.25
1045.914	3174.5854	923.5	43.25
1046.0183	3175.5381	918.9	45.75
1046.1224	3176.4902	918.25	43.5
1046.2266	3177.4417	917.05	40.65
1046.3307	3178.3926	916.15	39.65
1046.4347	3179.3428	913.95	39.8
1046.5387	3180.2924	917.25	43.6
1046.6427	3181.2415	918	42.65
1046.7466	3182.1899	921.05	45.9
1046.8504	3183.1377	917.9	40.25
1046.9542	3184.0848	921.95	43.65
1047.058	3185.0314	914.25	38.7
1047.1617	3185.9773	917.2	40.85
1047.2654	3186.9227	918.2	42.95
1047.369	3187.8674	912.85	36.55
1047.4726	3188.8115	919.85	38.45
1047.5761	3189.755	914.9	41.4
1047.6796	3190.6979	913.75	38.4
1047.783	3191.6402	910.75	37.7
1047.8864	3192.5818	912.5	37.75
1047.9898	3193.5229	925.8	38.75
1048.0931	3194.4633	915.8	40.95
1048.1963	3195.4031	914.8	38.05
1048.2995	3196.3423	914.2	38.35
1048.4027	3197.2809	914.05	38.75
1048.5058	3198.2189	912.55	36.3
1048.6089	3199.1563	928.85	33.95
1048.7119	3200.0931	910.45	36.3
1048.8148	3201.0292	907.8	32.75
1048.9178	3201.9648	910.5	37.1
1049.0206	3202.8997	913.55	35.9
1049.1235	3203.834	909.2	34.7
1049.2262	3204.7677	910.45	34.6
1049.329	3205.7008	912.35	35.15
1049.4317	3206.6333	906.9	31.1
1049.5343	3207.5652	909.4	31.55
1049.6369	3208.4964	911.7	35.85
1049.7394	3209.4271	909.2	36.15
1049.8419	3210.3571	912.45	37.2
1049.9444	3211.2865	908.65	34
1050.0468	3212.2154	908.15	29.7
1050.1491	3213.1436	912.2	33.35
1050.2514	3214.0712	914.05	32.5
1050.3537	3214.9982	909.4	33.65
1050.4559	3215.9246	909.65	32.5
1050.5581	3216.8503	907.5	33.65
1050.6602	3217.7755	908	32.7
1050.7623	3218.7001	908.9	33.95
1050.8643	3219.624	907.1	31.65
1050.9663	3220.5473	906.3	29.1
1051.0682	3221.4701	908.8	32.6
1051.1701	3222.3922	909.55	31.65
1051.2719	3223.3137	907.25	32.1
1051.3737	3224.2346	908.1	33.1
1051.4754	3225.1549	905.45	31
1051.5771	3226.0746	905.6	29.8
1051.6788	3226.9937	908.25	35.1
1051.7804	3227.9121	905.85	30.9
1051.8819	3228.83	904.2	30
1051.9834	3229.7473	904.95	30.55
1052.0849	3230.6639	907.55	32.6
1052.1863	3231.5799	905.75	32
1052.2876	3232.4954	905.7	29.5
1052.3889	3233.4102	903.55	28.7
1052.4902	3234.3244	905.15	30.05
1052.5914	3235.238	904	28.7
1052.6926	3236.151	925.55	26.15
1052.7937	3237.0634	904.05	30.85
1052.8948	3237.9752	904.1	29.4
1052.9958	3238.8864	904.3	26.75
1053.0968	3239.797	901.8	25.75
1053.1977	3240.7069	905	28.05
1053.2986	3241.6163	903.85	28.85
1053.3994	3242.5251	901.15	26.65
1053.5002	3243.4332	902.9	31.55
1053.6009	3244.3408	903	29.45
1053.7016	3245.2477	901	26
1053.8022	3246.154	904	27.6
1053.9028	3247.0598	900.9	24.95
1054.0034	3247.9649	901.3	27.45
1054.1039	3248.8694	901.1	26.15
1054.2043	3249.7733	900.9	25.6
1054.3047	3250.6766	898.45	22.25
1054.4051	3251.5793	900.35	23.65
1054.5054	3252.4814	900	25.15
1054.6056	3253.3829	901.35	27.6
1054.7058	3254.2838	899.6	23.2
1054.806	3255.1841	897.75	22.1
1054.9061	3256.0838	899.05	24.7
1055.0061	3256.9829	898.15	24.85
1055.1062	3257.8814	902.7	26.45
1055.2061	3258.7792	900.15	24.2
1055.306	3259.6765	902.8	26.15
1055.4059	3260.5731	896.75	22.85
1055.5057	3261.4692	897.25	20.85
1055.6055	3262.3647	897.5	21.75
1055.7052	3263.2595	895.8	20.5
1055.8049	3264.1538	898.05	24.8
1055.9045	3265.0474	895.7	20.15
1056.0041	3265.9404	896.4	22.3
1056.1036	3266.8329	893.25	17.35
1056.2031	3267.7247	905.25	21.85
1056.3025	3268.616	893.45	20.6
1056.4019	3269.5066	894.1	17.8
1056.5013	3270.3966	893.2	17.55
1056.6005	3271.286	892.75	19.45
