Software Version:	3.9.2.0
Unit SN:	10000200
Spectrometer SN:	6960
Date:	3/8/2024 1:31:14 PM
Data Line Index:	25
Spectral Points:	2048
Integration time (ms):	125
Averages:	20
Delay (ms):	30000
Sequence Number:	1
Processing:	dark subtract
Laser Power (mW):	305
Laser Current (mA):	823
Laser Diode Temp (C):	25
Laser Case Temp (C):	26.3
System Temp (C):	26.3
Spectrometer Temp (C):	24.1
CCD Temp (C):	0.016
Secondary Temp (C):	20.01
Heatsink Temp (C):	20.72
CCDPCB Temp (C):	36.285
SecondaryPCB Temp (C):	32.072

Wavelength	RamanShift	Raw Counts	Dark Subtracted
787.061	30.1047	453.35	47.1
787.2016	32.3739	451.05	44.2
787.3422	34.6426	456.05	46.85
787.4828	36.9109	462.25	52.3
787.6235	39.1787	471.2	56.55
787.7642	41.4461	478.9	59.6
787.9049	43.7131	488.35	67.35
788.0456	45.9796	497.5	75.25
788.1863	48.2456	503.15	74.5
788.3271	50.5112	513.7	82.4
788.4679	52.7764	520.95	87.25
788.6087	55.0411	532.05	92.9
788.7496	57.3054	540.85	94.4
788.8904	59.5692	550.3	103.45
789.0313	61.8326	559.9	110.55
789.1722	64.0955	572.15	119.2
789.3132	66.3579	590.4	133.45
789.4541	68.6199	600.95	137.25
789.5951	70.8815	639.5	173.55
789.7361	73.1426	716.45	245.95
789.8771	75.4032	904.65	429.6
790.0181	77.6634	1379.35	900.95
790.1592	79.9231	2493.05	2004
790.3003	82.1824	4891.5	4385.4
790.4414	84.4412	9202	8663.9
790.5825	86.6995	15129.85	14553.05
790.7237	88.9574	20944.95	20335
790.8648	91.2148	24932.7	24297.8
791.006	93.4717	26754.3	26108.2
791.1472	95.7282	27097.6	26440.2
791.2885	97.9842	26889.95	26227.15
791.4297	100.2398	26328.6	25665.95
791.571	102.4949	25621.95	24955.15
791.7123	104.7495	24850.05	24179.85
791.8536	107.0036	24001.85	23335.8
791.9949	109.2573	23222.4	22553.6
792.1363	111.5105	22448.15	21772.2
792.2777	113.7632	21723.1	21048.5
792.4191	116.0154	21126.85	20441.4
792.5605	118.2672	20651.05	19970.5
792.7019	120.5185	20169.1	19490
792.8434	122.7693	19780.65	19098.85
792.9849	125.0197	19501.35	18814.1
793.1264	127.2696	19210.6	18518.25
793.2679	129.519	19010.65	18310.25
793.4094	131.7679	18759.35	18060.5
793.551	134.0163	18603	17898.9
793.6926	136.2642	18358.15	17651.7
793.8342	138.5117	18098.4	17395.6
793.9758	140.7587	17805.4	17096.25
794.1175	143.0052	17601.95	16892.45
794.2591	145.2512	17317.75	16608.65
794.4008	147.4967	17077.1	16363.1
794.5425	149.7417	16908.9	16192.6
794.6842	151.9863	16756.25	16034.6
794.826	154.2304	16692.6	15969.2
794.9677	156.4739	16525.05	15789.8
795.1095	158.717	16445.75	15716.45
795.2513	160.9596	16297.7	15563.2
795.3931	163.2017	16041.75	15304.55
795.535	165.4433	15737.65	15000.2
795.6768	167.6844	15407.5	14668
795.8187	169.925	15073.35	14335.35
795.9606	172.1651	14687	13944.35
796.1025	174.4047	14415.5	13668.3
796.2445	176.6439	14157.35	13410.1
796.3864	178.8825	13922.45	13167.35
796.5284	181.1206	13753.25	12994.45
796.6704	183.3582	13591.15	12827.05
796.8124	185.5954	13476.4	12714.1
796.9544	187.832	13401.9	12631
797.0965	190.0681	13341.5	12572.65
797.2386	192.3037	13353.35	12579.4
797.3806	194.5388	13320.3	12542.45
797.5228	196.7734	13380.25	12600.35
797.6649	199.0075	13437.45	12655.95
797.807	201.2411	13577.65	12796.9
797.9492	203.4742	13616.75	12836.3
798.0914	205.7068	13733.8	12944.9
798.2336	207.9389	13831.95	13042.4
798.3758	210.1704	14008.65	13221.9
798.518	212.4015	14126.05	13351.75
798.6603	214.632	14295.35	13529.6
798.8025	216.862	14445.2	13682.1
798.9448	219.0915	14594.65	13827.55
799.0871	221.3205	14799.85	14031.15
799.2294	223.549	14982.85	14217.1
799.3718	225.777	15246.1	14478.3
799.5141	228.0044	15571.9	14799.9
799.6565	230.2314	15993.4	15219.7
799.7989	232.4578	16314.05	15537
799.9413	234.6837	16605.85	15824.25
800.0837	236.909	16831.7	16048.55
800.2262	239.1339	16809.2	15996.45
800.3687	241.3582	16602.85	15804.1
800.5111	243.582	16332.15	15502.65
800.6536	245.8053	16033.65	15221.8
800.7961	248.0281	15737.55	14932.95
800.9387	250.2503	15543.5	14727.25
801.0812	252.472	15419.6	14603.2
801.2238	254.6932	15411.95	14598.6
801.3664	256.9139	15345	14528.45
801.509	259.134	15399.95	14579.5
801.6516	261.3536	15437.95	14619.85
801.7942	263.5727	15553.9	14736.6
801.9369	265.7912	15575.65	14754.2
802.0795	268.0092	15669.75	14849.25
802.2222	270.2267	15693.6	14878
802.3649	272.4436	15662.55	14841.05
802.5076	274.6601	15622.9	14788.95
802.6504	276.8759	15517.65	14693.55
802.7931	279.0913	15457.25	14632.5
802.9359	281.3061	15375.05	14551.4
803.0787	283.5204	15400.6	14562.95
803.2215	285.7341	15479.1	14642.55
803.3643	287.9473	15605.3	14760.55
803.5071	290.16	15780.85	14940.8
803.6499	292.3721	16029.2	15195.1
803.7928	294.5837	16426.1	15590.25
803.9357	296.7947	16745	15912.75
804.0786	299.0052	16955.85	16119.5
804.2215	301.2152	16863	16029.6
804.3644	303.4246	16520.4	15686.6
804.5074	305.6334	16004.95	15176.3
804.6503	307.8418	15484.2	14645.75
804.7933	310.0495	15060.1	14224.2
804.9363	312.2568	14694.4	13854.9
805.0793	314.4635	14440.6	13594.65
805.2223	316.6696	14338.6	13495.35
805.3653	318.8752	14275.75	13421.25
805.5084	321.0802	14275.15	13427.95
805.6514	323.2847	14361.85	13513.5
805.7945	325.4887	14407.05	13557.8
805.9376	327.692	14347.45	13497.1
806.0807	329.8949	14261.2	13408.15
806.2238	332.0972	14020.95	13169.3
806.367	334.2989	13735.85	12880.8
806.5101	336.5001	13463.95	12610
806.6533	338.7007	13272.75	12418.05
806.7965	340.9008	13150.25	12295.85
806.9397	343.1003	12993.7	12136.5
807.0829	345.2992	12939.65	12078.3
807.2261	347.4976	12886.3	12025.7
807.3693	349.6955	12865.9	11996.4
807.5126	351.8927	12924.45	12059.3
807.6559	354.0895	12898.05	12022.05
807.7991	356.2856	12925.4	12058.35
807.9424	358.4812	12875.75	12005.55
808.0857	360.6763	12909.5	12044.65
808.2291	362.8707	12884.9	12015.5
808.3724	365.0646	12949.6	12079.4
808.5158	367.258	12952.25	12079.85
808.6591	369.4508	12982.55	12108.05
808.8025	371.643	13065.1	12185.95
808.9459	373.8346	13074.95	12198.85
809.0893	376.0257	13103.5	12220
809.2327	378.2162	13017.15	12132.5
809.3762	380.4062	12936.25	12055.4
809.5196	382.5956	12809.9	11932.4
809.6631	384.7844	12705.95	11833.55
809.8066	386.9726	12592.2	11724.35
809.9501	389.1603	12536	11668.45
810.0936	391.3474	12493.7	11587.8
810.2371	393.5339	12465.35	11587.45
810.3806	395.7199	12388.45	11516.25
810.5241	397.9052	12430.45	11561
810.6677	400.09	12441	11566.5
810.8113	402.2743	12524.9	11652.4
810.9548	404.4579	12636.25	11757.55
811.0984	406.641	12820.15	11947.9
811.2421	408.8235	13050.4	12172.6
811.3857	411.0054	13327.85	12448.25
811.5293	413.1868	13689.4	12807.45
811.673	415.3675	13977.8	13089.6
811.8166	417.5477	14161.7	13276.4
811.9603	419.7273	14149.3	13260.15
812.104	421.9064	14062.55	13171.35
812.2477	424.0848	13930.4	13042.3
812.3914	426.2627	13739.3	12847
812.5351	428.4399	13446.7	12561.55
812.6788	430.6166	13065.4	12176.6
812.8226	432.7928	12727.7	11835.25
812.9663	434.9683	12402.45	11512.25
813.1101	437.1432	12182.65	11294.7
813.2539	439.3176	12020.65	11138.15
813.3977	441.4914	11916.3	11035.5
813.5415	443.6645	11896.05	11009.2
813.6853	445.8371	11854.6	10964.15
813.8291	448.0091	11802.4	10913.25
813.973	450.1806	11743.15	10854.05
814.1168	452.3514	11715.8	10831.25
814.2607	454.5216	11715.35	10815.8
814.4046	456.6913	11687.85	10795.9
814.5485	458.8603	11696.95	10808.1
814.6924	461.0288	11745.85	10861.15
814.8363	463.1967	11764.9	10884.35
814.9802	465.3639	11857.8	10974.3
815.1241	467.5306	11961.05	11070.55
815.2681	469.6967	12058.9	11173.7
815.412	471.8622	12186.7	11303.1
815.556	474.0271	12296.7	11414.05
815.7	476.1914	12390.35	11496.05
815.844	478.3551	12393.85	11501.4
815.988	480.5182	12374.25	11485.55
816.132	482.6807	12353.75	11472.15
816.276	484.8426	12506.65	11630.75
816.4201	487.0039	12757.45	11879
816.5641	489.1647	13190.45	12302.6
816.7082	491.3248	13555.8	12667.3
816.8522	493.4843	13759.15	12870.2
816.9963	495.6432	13760.35	12876.6
817.1404	497.8015	13654.7	12755.55
817.2845	499.9592	13621.1	12716.2
817.4286	502.1163	13540.1	12636.55
817.5727	504.2728	13257.15	12363.05
817.7168	506.4287	12963.15	12082.2
817.861	508.5839	12567.7	11684.1
818.0051	510.7386	12262.2	11371.1
818.1493	512.8927	12087.65	11189.45
818.2935	515.0461	11999.45	11100.7
818.4377	517.199	11978.95	11078.05
818.5818	519.3512	12009.6	11107.75
818.726	521.5029	12134.7	11229.6
818.8703	523.6539	12245.85	11345.1
819.0145	525.8043	12299.8	11394.5
819.1587	527.9541	12281.9	11376.15
819.303	530.1033	12217.15	11312.55
819.4472	532.2519	12216.45	11310.9
819.5915	534.3999	12329.55	11425.9
819.7357	536.5472	12539.45	11642
819.88	538.694	12943.35	12045.7
820.0243	540.8401	13443.8	12540
820.1686	542.9856	13890.3	12977.15
820.3129	545.1305	14059.35	13137.1
820.4572	547.2748	13908.45	12986.3
820.6016	549.4185	13583.7	12661
820.7459	551.5615	13276.55	12359.3
820.8902	553.704	13165.5	12246.25
821.0346	555.8458	13130.05	12215.25
821.1789	557.987	13189.1	12276.35
821.3233	560.1276	13230.25	12315.9
821.4677	562.2675	13283.3	12366.2
821.6121	564.4069	13458.75	12547.45
821.7565	566.5456	13550.9	12641.5
821.9009	568.6837	13514	12608.55
822.0453	570.8212	13243	12336.65
822.1897	572.958	12807.35	11892.85
822.3342	575.0942	12455	11543.3
822.4786	577.2299	12207.35	11303.5
822.6231	579.3648	12122.45	11233.95
822.7675	581.4992	12178.8	11300
822.912	583.6329	12336.1	11457.45
823.0565	585.766	12564.9	11680.4
823.201	587.8985	12694.5	11800.65
823.3454	590.0304	12723.95	11797.15
823.4899	592.1616	12674.05	11759.95
823.6345	594.2922	12552.7	11636.3
823.779	596.4222	12405.45	11485.4
823.9235	598.5515	12204.65	11283.75
824.068	600.6802	12030.4	11113.25
824.2126	602.8083	11895.5	10981.9
824.3571	604.9358	11836	10920.2
824.5017	607.0626	11818.25	10898.35
824.6462	609.1888	11802.55	10876.1
824.7908	611.3144	11803	10879.05
824.9354	613.4393	11733.35	10811.35
825.08	615.5636	11657.7	10734.35
825.2246	617.6873	11626.3	10699.55
825.3692	619.8103	11559.6	10637.2
825.5138	621.9327	11447.25	10526.3
825.6584	624.0544	11355.65	10436.25
825.803	626.1756	11296.15	10373.8
825.9477	628.2961	11244.2	10319
826.0923	630.4159	11189.05	10262.85
826.237	632.5351	11150.55	10224.25
826.3816	634.6537	11063.75	10138.1
826.5263	636.7716	11082.75	10154.8
826.6709	638.8889	11089.65	10154.6
826.8156	641.0056	11085.8	10152.05
826.9603	643.1216	11089.25	10160.7
827.105	645.237	11075.1	10142.65
827.2497	647.3518	11038.4	10116.3
827.3944	649.4659	11051.3	10137.35
827.5391	651.5793	11046.35	10128.9
827.6838	653.6922	11031.7	10110.3
827.8285	655.8043	11023.35	10104.2
827.9733	657.9159	11002.95	10080.35
828.118	660.0268	10916.3	9995.7
828.2627	662.137	10896.65	9970.75
828.4075	664.2466	10911.9	9978.55
828.5522	666.3556	10884.55	9955.35
828.697	668.4639	10835.5	9909.8
828.8418	670.5716	10870.05	9951.3
828.9865	672.6786	10924.7	9999.35
829.1313	674.785	10963.5	10030.2
829.2761	676.8907	11001.55	10073.4
829.4209	678.9958	11059.6	10141.45
829.5657	681.1002	11077.2	10150.25
829.7105	683.204	11029.95	10095.8
829.8553	685.3072	11002.35	10068.85
830.0001	687.4097	10949.5	10013.15
830.1449	689.5115	10921.9	9989.4
830.2898	691.6127	10877.5	9949.55
830.4346	693.7132	10815.85	9888.5
830.5794	695.8131	10812.2	9875.45
830.7243	697.9123	10762.15	9827.5
830.8691	700.0109	10750.65	9814.9
831.014	702.1089	10744.8	9814.7
831.1588	704.2061	10749	9816.55
831.3037	706.3028	10773.05	9839.1
831.4486	708.3987	10829.15	9891.8
831.5935	710.4941	10901.65	9970.2
831.7383	712.5887	11060.15	10127.1
831.8832	714.6827	11325.15	10388.65
832.0281	716.7761	11591.9	10662.6
832.173	718.8688	11910.85	10981.5
832.3179	720.9608	12096.8	11152.65
832.4628	723.0522	12169.85	11227.45
832.6077	725.1429	12042.95	11103.3
832.7527	727.233	11827.65	10890.45
832.8976	729.3224	11651.7	10713.65
833.0425	731.4112	11427.9	10491.15
833.1874	733.4993	11262.85	10326.7
833.3324	735.5867	11092.85	10159.05
833.4773	737.6735	10964.65	10027.55
833.6222	739.7596	10855.45	9915.75
833.7672	741.845	10775.9	9838.6
833.9122	743.9298	10777	9838.7
834.0571	746.014	10740.4	9805.25
834.2021	748.0974	10763.45	9820.25
834.347	750.1802	10774.15	9828.3
834.492	752.2624	10767.4	9823.65
834.637	754.3439	10814.9	9869.5
834.782	756.4247	10919.05	9967.6
834.9269	758.5048	11059.4	10119.1
835.0719	760.5843	11275.65	10332.45
835.2169	762.6631	11607.4	10662.1
835.3619	764.7413	12110.9	11167.85
835.5069	766.8188	12735.1	11788.6
835.6519	768.8956	13201.95	12258.35
835.7969	770.9718	13516.6	12573.75
835.9419	773.0473	13387.8	12442.5
836.0869	775.1221	13048.3	12101.45
836.232	777.1962	12727.95	11784.55
836.377	779.2697	12531.95	11587.35
836.522	781.3426	12591.45	11634.65
836.667	783.4147	12811.85	11866.8
836.8121	785.4862	13071.1	12127.95
836.9571	787.557	13044	12100.55
837.1021	789.6271	12690.15	11742.6
837.2472	791.6966	12118.7	11175.45
837.3922	793.7654	11582.55	10634.95
837.5373	795.8335	11229.95	10283.7
837.6823	797.901	10986.3	10040.15
837.8274	799.9678	10922.4	9974.4
837.9724	802.0339	10930.6	9983.4
838.1175	804.0993	10956.3	10001.95
838.2626	806.1641	10926.65	9975.3
838.4076	808.2282	10872.2	9927.4
838.5527	810.2916	10776.35	9828.95
838.6978	812.3544	10668.75	9727.7
838.8428	814.4164	10614	9667.85
838.9879	816.4778	10610.2	9660.25
839.133	818.5385	10632.25	9684.6
839.2781	820.5986	10744.5	9792.35
839.4232	822.658	10883.6	9931.2
839.5682	824.7166	11033.8	10084.25
839.7133	826.7747	11365.2	10420.1
839.8584	828.832	11593.95	10643.1
840.0035	830.8886	11789.85	10834.45
840.1486	832.9446	11938.2	10986.3
840.2937	834.9999	11920.65	10971.25
840.4388	837.0545	11868.45	10915.05
840.5839	839.1085	11772.85	10821.9
840.729	841.1618	11687.65	10732.3
840.8741	843.2143	11562.8	10614.15
841.0192	845.2662	11475	10527
841.1643	847.3175	11388.1	10438.45
841.3095	849.368	11297.1	10346.9
841.4546	851.4179	11206.1	10258.45
841.5997	853.467	11034.4	10083.8
841.7448	855.5155	10954.55	10005
841.8899	857.5633	10894.8	9945.15
842.0351	859.6105	10805.65	9854.7
842.1802	861.6569	10758.7	9806.4
842.3253	863.7027	10666.8	9708.65
842.4704	865.7478	10642.45	9688.95
842.6156	867.7922	10629.35	9677.55
842.7607	869.8359	10666.75	9714.3
842.9058	871.8789	10771.1	9817
843.0509	873.9212	10914.75	9933.1
843.1961	875.9629	11038.4	10081.25
843.3412	878.0039	11207.75	10253.5
843.4863	880.0441	11309.65	10357.9
843.6315	882.0837	11327.6	10377.3
843.7766	884.1226	11271.15	10317.6
843.9218	886.1609	11175.75	10221.4
844.0669	888.1984	11137.65	10184.35
844.212	890.2352	11166.55	10213.75
844.3572	892.2714	11153.35	10195.95
844.5023	894.3069	11136	10181.85
844.6475	896.3416	11022.55	10066.15
844.7926	898.3757	10967.4	10012.55
844.9377	900.4091	10948.4	9993.55
845.0829	902.4418	10981.55	10017.55
845.228	904.4739	10967.15	10009.6
845.3732	906.5052	11008.9	10049.2
845.5183	908.5358	10896.7	9939.85
845.6635	910.5658	10742.4	9785
845.8086	912.595	10577.75	9619.85
845.9538	914.6236	10426	9471.9
846.0989	916.6515	10335.1	9380.2
846.2441	918.6786	10320	9362
846.3892	920.7051	10377.1	9421.05
846.5344	922.7309	10480.5	9523
846.6795	924.756	10516	9559.15
846.8246	926.7804	10608.8	9650.95
846.9698	928.8041	10604.55	9652.8
847.1149	930.8272	10631	9673.05
847.2601	932.8495	10600.8	9646.05
847.4052	934.8711	10561.45	9606.6
847.5504	936.892	10438.5	9482.5
847.6955	938.9123	10318.65	9361.3
847.8407	940.9318	10228.15	9271.25
847.9858	942.9506	10138.6	9179.6
848.131	944.9688	10064.2	9109.95
848.2761	946.9862	9982.5	9025.2
848.4213	949.003	9955.1	8998.65
848.5664	951.019	9919.65	8963.15
848.7115	953.0344	9935.7	8978.5
848.8567	955.0491	9945.05	8988.45
849.0018	957.063	10007.55	9051.4
849.147	959.0763	10135.15	9180.85
849.2921	961.0888	10155.75	9199.7
849.4373	963.1007	10232.1	9278.9
849.5824	965.1119	10281.15	9336.9
849.7275	967.1223	10298.4	9357.1
849.8727	969.1321	10305.85	9366.9
850.0178	971.1412	10364.35	9417.65
850.1629	973.1495	10352.25	9399.6
850.3081	975.1572	10448.8	9444.5
850.4532	977.1641	10434.4	9475.55
850.5983	979.1704	10393.5	9438.55
850.7435	981.1759	10399.95	9438.2
850.8886	983.1808	10431.9	9472.45
851.0337	985.1849	10520.8	9555.4
851.1788	987.1884	10675.4	9715.65
851.324	989.1911	10804.35	9849.5
851.4691	991.1932	10907.85	9952.05
851.6142	993.1945	10957.3	10003.95
851.7593	995.1951	10946.95	9993.1
851.9045	997.1951	10914.2	9952.1
852.0496	999.1943	10837.55	9878.15
852.1947	1001.1928	10805.6	9844.9
852.3398	1003.1906	10824.4	9869.3
852.4849	1005.1877	10915.15	9961.15
852.63	1007.1841	10917.9	9966
852.7751	1009.1798	10864.65	9914.15
852.9202	1011.1748	10690.9	9740.05
853.0653	1013.1691	10540.3	9583.5
853.2104	1015.1627	10333.3	9379.1
853.3555	1017.1556	10132.95	9177.6
853.5006	1019.1477	10031.15	9079.95
853.6457	1021.1392	9944	8999.4
853.7908	1023.1299	9935.45	8992.75
853.9359	1025.12	9947.25	9013.3
854.081	1027.1093	10010.6	9087.25
854.2261	1029.0979	10110.45	9189.6
854.3712	1031.0859	10184.1	9254.1
854.5163	1033.0731	10208.75	9271.2
854.6613	1035.0596	10164.5	9219.3
854.8064	1037.0454	10028.75	9078.25
854.9515	1039.0304	9930.05	8976.7
855.0965	1041.0148	9796.1	8841.3
855.2416	1042.9985	9704.4	8750.85
855.3867	1044.9814	9659.05	8708
855.5317	1046.9636	9618.95	8665.45
855.6768	1048.9452	9598.8	8648.1
855.8219	1050.926	9650.55	8701.7
855.9669	1052.9061	9653.75	8700.75
856.112	1054.8855	9642.45	8692.2
856.257	1056.8642	9684.1	8732.55
856.4021	1058.8421	9734.5	8776.75
856.5471	1060.8194	9773.3	8822.15
856.6921	1062.7959	9795.05	8840.45
856.8372	1064.7717	9853.85	8900.6
856.9822	1066.7469	9887.75	8935
857.1272	1068.7213	9915.3	8960.25
857.2723	1070.695	9926.25	8971.9
857.4173	1072.6679	9872.15	8919.65
857.5623	1074.6402	9859.7	8909.5
857.7073	1076.6117	9824.55	8865.4
857.8523	1078.5826	9817.1	8861.85
857.9973	1080.5527	9756.65	8799.65
858.1423	1082.5221	9829.85	8873.3
858.2873	1084.4908	9979.85	9028.75
858.4323	1086.4587	10129.1	9174.05
858.5773	1088.426	10214.1	9257.95
858.7223	1090.3925	10257.5	9297.7
858.8673	1092.3584	10206.4	9253
859.0123	1094.3235	10131.75	9178.25
859.1573	1096.2879	10085.15	9132.65
859.3022	1098.2515	10105.1	9151.6
859.4472	1100.2145	10225.7	9273.45
859.5922	1102.1767	10328.4	9373.35
859.7371	1104.1382	10479.9	9528.2
859.8821	1106.099	10715.7	9760.6
860.027	1108.0591	10950.9	10002.15
860.172	1110.0185	11112.75	10158.7
860.3169	1111.9771	11130.55	10178.75
860.4619	1113.9351	10972.05	10017.65
860.6068	1115.8923	10730.45	9775.95
860.7517	1117.8488	10440.7	9489.3
860.8967	1119.8045	10205.75	9255.65
861.0416	1121.7596	10093.3	9142.05
861.1865	1123.7139	10006.75	9059.8
861.3314	1125.6675	9987.75	9037.4
861.4763	1127.6204	10065.3	9112.6
861.6212	1129.5726	10021.9	9071.6
861.7661	1131.524	10021.5	9072.3
861.911	1133.4748	9964.9	9011
862.0559	1135.4248	9907.7	8955.1
862.2008	1137.3741	9863.1	8911.6
862.3457	1139.3226	9820.25	8867.7
862.4905	1141.2705	9778	8829.6
862.6354	1143.2176	9680.75	8721.5
862.7803	1145.164	9672.25	8717.1
862.9251	1147.1097	9663.3	8707.15
863.07	1149.0546	9650.7	8698.9
863.2148	1150.9989	9555.4	8605.45
863.3597	1152.9424	9435.6	8482.2
863.5045	1154.8852	9277.45	8322
863.6493	1156.8272	9204.1	8254.4
863.7942	1158.7686	9167.6	8208.05
863.939	1160.7092	9145.2	8188.7
864.0838	1162.6491	9146.25	8193.35
864.2286	1164.5883	9227.65	8276.3
864.3734	1166.5267	9341.8	8389.9
864.5182	1168.4644	9487	8533.85
864.663	1170.4014	9667.45	8716.4
864.8078	1172.3377	9899.85	8951.75
864.9526	1174.2732	10132.2	9184.95
865.0974	1176.2081	10438.1	9490.7
865.2421	1178.1421	10730.95	9776.4
865.3869	1180.0755	11040.7	10093.1
865.5317	1182.0082	11207.5	10259.7
865.6764	1183.9401	11269.7	10323.6
865.8212	1185.8713	11113.2	10170.25
865.9659	1187.8017	10874.25	9937.55
866.1106	1189.7315	10579.2	9652.75
866.2554	1191.6605	10320.2	9395.55
866.4001	1193.5888	10100.65	9165.15
866.5448	1195.5163	9973.7	9034.55
866.6895	1197.4432	9877.1	8928.15
866.8342	1199.3693	9854.9	8911.25
866.9789	1201.2947	9835.2	8885.45
867.1236	1203.2193	9842.45	8896.1
867.2683	1205.1432	9856.9	8912.8
867.413	1207.0664	9839.25	8892.7
867.5576	1208.9889	9872.9	8924.6
867.7023	1210.9106	9899.85	8954.35
867.847	1212.8316	9922.15	8974.95
867.9916	1214.7519	10012.15	9057.75
868.1363	1216.6715	10026.4	9079.35
868.2809	1218.5903	10042.25	9091.6
868.4255	1220.5084	10021	9075.3
868.5701	1222.4257	10030.25	9087.9
868.7148	1224.3424	10010	9068
868.8594	1226.2583	10079.7	9133.55
869.004	1228.1735	10177.45	9231.45
869.1486	1230.0879	10294.55	9348.5
869.2932	1232.0016	10411.7	9463.45
869.4377	1233.9146	10474.6	9525.95
869.5823	1235.8269	10436.25	9490.2
869.7269	1237.7384	10335.25	9389.5
869.8715	1239.6492	10156.65	9214.5
870.016	1241.5592	10052.4	9104.4
870.1606	1243.4686	10002.5	9058.15
870.3051	1245.3772	10039.1	9092.35
870.4496	1247.285	10077.35	9132.45
870.5941	1249.1922	10085.95	9143.1
870.7387	1251.0986	10106.15	9159.65
870.8832	1253.0042	10115.25	9169.5
871.0277	1254.9092	10164.5	9217.85
871.1722	1256.8134	10254.15	9312.85
871.3167	1258.7169	10396	9451.2
871.4611	1260.6196	10566.85	9623.95
871.6056	1262.5216	10787.05	9844.3
871.7501	1264.4229	10958.05	10016.3
871.8945	1266.3234	11146.7	10202.9
872.039	1268.2232	11230.25	10284.9
872.1834	1270.1223	11234.15	10288.5
872.3278	1272.0207	11258.45	10316.5
872.4723	1273.9183	11222	10269.85
872.6167	1275.8151	11138.45	10193.45
872.7611	1277.7113	11074.35	10133.55
872.9055	1279.6067	11027.35	10085.25
873.0499	1281.5014	10976.1	10029.45
873.1943	1283.3953	11035.65	10092.6
873.3386	1285.2885	11154.35	10213.4
873.483	1287.181	11300.9	10360.15
873.6274	1289.0727	11463.5	10522.55
873.7717	1290.9637	11572.1	10629.75
873.9161	1292.854	11731.05	10787.9
874.0604	1294.7435	11818.5	10871.8
874.2047	1296.6323	11976.4	11031.55
874.349	1298.5204	12127.45	11183.3
874.4933	1300.4077	12230.75	11284.5
874.6376	1302.2943	12299.35	11355.6
874.7819	1304.1802	12277.6	11336.2
874.9262	1306.0653	12072.55	11129.4
875.0705	1307.9497	11851.7	10910.95
875.2147	1309.8333	11606.5	10665.55
875.359	1311.7162	11452.9	10511.5
875.5032	1313.5984	11423.3	10475.55
875.6475	1315.4798	11453.45	10511.05
875.7917	1317.3605	11479.4	10520.2
875.9359	1319.2405	11511.4	10567.1
876.0801	1321.1197	11429.25	10485.9
876.2243	1322.9982	11250.9	10301.85
876.3685	1324.876	11142.95	10198.5
876.5127	1326.753	10986.35	10046.5
876.6569	1328.6293	10964.55	10019.55
876.801	1330.5048	10916.85	9972.95
876.9452	1332.3796	10849	9905.35
877.0893	1334.2537	10824.45	9852.3
877.2335	1336.127	10749.9	9805.55
877.3776	1337.9996	10744.35	9799.4
877.5217	1339.8714	10709	9765.15
877.6658	1341.7426	10711.05	9720.7
877.8099	1343.6129	10677.95	9731.25
877.954	1345.4826	10649.4	9706.4
878.0981	1347.3515	10634.55	9686.7
878.2422	1349.2196	10604.85	9663.5
878.3862	1351.087	10589.85	9645.35
878.5303	1352.9537	10681.5	9734.3
878.6743	1354.8197	10798.65	9853.85
878.8184	1356.6849	10954.85	10009.45
878.9624	1358.5493	11081.15	10137.55
879.1064	1360.4131	11123.85	10180.55
879.2504	1362.276	11128.35	10186.35
879.3944	1364.1383	11032.15	10092.4
879.5384	1365.9998	10803.35	9856.05
879.6823	1367.8606	10482.8	9539.95
879.8263	1369.7206	10180.65	9235.7
879.9702	1371.5799	9930.35	8983.9
880.1142	1373.4384	9744.15	8801.3
880.2581	1375.2962	9554.45	8609.6
880.402	1377.1533	9280.9	8341.25
880.5459	1379.0096	8976.25	8042.4
880.6898	1380.8652	8689.3	7755.55
880.8337	1382.7201	8421.8	7483.6
880.9776	1384.5742	8199.45	7259.35
881.1215	1386.4275	8049.2	7106.8
881.2653	1388.2802	7927.25	6985.7
881.4092	1390.132	7824.5	6879.9
881.553	1391.9832	7754.15	6810.6
881.6968	1393.8336	7684.45	6742.2
881.8406	1395.6832	7653.3	6709.55
881.9844	1397.5322	7618	6677.4
882.1282	1399.3803	7590	6645.85
882.272	1401.2278	7542.45	6600.9
882.4158	1403.0745	7564.9	6626.15
882.5595	1404.9204	7551.5	6612.65
882.7033	1406.7656	7585.25	6640.85
882.847	1408.6101	7622.1	6679.95
882.9908	1410.4538	7652.55	6713.7
883.1345	1412.2968	7676.3	6734.25
883.2782	1414.139	7716	6776.8
883.4219	1415.9805	7817.65	6877.75
883.5656	1417.8213	7891.1	6945.8
883.7092	1419.6613	8012.8	7075.25
883.8529	1421.5006	8204.05	7264.85
883.9965	1423.3391	8435.05	7499.65
884.1402	1425.1769	8745.45	7803.9
884.2838	1427.0139	9207.25	8265.3
884.4274	1428.8502	9777.8	8835.55
884.571	1430.6858	10333.1	9394.4
884.7146	1432.5206	10743.1	9806.05
884.8582	1434.3547	10984.7	10042.1
885.0018	1436.188	11001	10060.2
885.1453	1438.0206	10915.85	9973.25
885.2889	1439.8524	10743.25	9799.15
885.4324	1441.6835	10641.8	9700.9
885.5759	1443.5139	10541.35	9601.9
885.7194	1445.3435	10471.2	9534
885.8629	1447.1724	10442.1	9506.95
886.0064	1449.0005	10356.2	9421.25
886.1499	1450.8279	10285.1	9346.35
886.2933	1452.6545	10251.5	9312.7
886.4368	1454.4804	10301.8	9366.95
886.5802	1456.3056	10298.05	9356.25
886.7237	1458.13	10200.75	9268.85
886.8671	1459.9536	10002.85	9066.9
887.0105	1461.7766	9664.2	8727.2
887.1539	1463.5987	9296.2	8358.15
887.2972	1465.4202	8900.55	7961.55
887.4406	1467.2409	8575.8	7637.45
887.584	1469.0608	8291.7	7356.4
887.7273	1470.88	8026.6	7092.7
887.8706	1472.6984	7812.95	6875.1
888.0139	1474.5161	7590.9	6654.95
888.1572	1476.3331	7452.85	6516.8
888.3005	1478.1493	7349.85	6412.95
888.4438	1479.9648	7230.95	6294.3
888.5871	1481.7795	7158	6222.25
888.7303	1483.5935	7085.8	6148.95
888.8736	1485.4067	7044.7	6107.6
889.0168	1487.2192	6974.25	6036.75
889.16	1489.031	6930.9	5991.95
889.3032	1490.842	6902	5966.95
889.4464	1492.6522	6869.05	5936.3
889.5896	1494.4618	6839.9	5903.05
889.7327	1496.2705	6811.95	5878.05
889.8759	1498.0785	6779.3	5843.1
890.019	1499.8858	6754.75	5817.6
890.1622	1501.6924	6712.2	5776.95
890.3053	1503.4981	6694.6	5759.2
890.4484	1505.3032	6654.8	5718.6
890.5914	1507.1075	6624.95	5688.35
890.7345	1508.911	6579.3	5644.75
890.8776	1510.7138	6552.35	5613.55
891.0206	1512.5159	6507.3	5572.45
891.1637	1514.3172	6452.15	5520.5
891.3067	1516.1178	6417.95	5486.75
891.4497	1517.9176	6411.6	5475.8
891.5927	1519.7166	6373.1	5437.6
891.7357	1521.515	6345.9	5406.7
891.8786	1523.3126	6326.1	5390.95
892.0216	1525.1094	6305.3	5369.6
892.1645	1526.9055	6257.2	5328.05
892.3074	1528.7008	6259.15	5325.75
892.4503	1530.4954	6211.05	5278.55
892.5932	1532.2893	6210.55	5280.8
892.7361	1534.0824	6192	5258.9
892.879	1535.8747	6197.55	5270.35
893.0218	1537.6663	6154.8	5226.9
893.1647	1539.4572	6155.55	5224.65
893.3075	1541.2473	6166.5	5236.8
893.4503	1543.0367	6166.2	5239.7
893.5931	1544.8253	6141.25	5207.55
893.7359	1546.6132	6176.4	5243.25
893.8787	1548.4003	6175.25	5235.15
894.0214	1550.1867	6203.95	5265.75
894.1642	1551.9723	6220.85	5290.05
894.3069	1553.7572	6287.4	5359.1
894.4496	1555.5414	6358.25	5432.7
894.5923	1557.3247	6431.05	5509.75
894.735	1559.1074	6528.25	5606.1
894.8777	1560.8893	6634.35	5715.5
895.0204	1562.6705	6710.5	5789.95
895.163	1564.4509	6801.4	5880.05
895.3056	1566.2305	6849.4	5930.25
895.4482	1568.0094	6923.95	6005.9
895.5908	1569.7876	6953.3	6031.8
895.7334	1571.565	6961	6037.65
895.876	1573.3417	6966.05	6046.25
896.0186	1575.1176	6938.5	6019.8
896.1611	1576.8928	6917.2	5997.95
896.3036	1578.6672	6838.75	5927.9
896.4461	1580.4409	6774.8	5867.45
896.5886	1582.2138	6699.65	5783
896.7311	1583.986	6636.05	5721.15
896.8736	1585.7575	6596.9	5676
897.0161	1587.5282	6576.55	5665.7
897.1585	1589.2981	6580.95	5671.4
897.3009	1591.0673	6566.2	5654
897.4433	1592.8358	6603.1	5690.25
897.5857	1594.6035	6645.85	5724.5
897.7281	1596.3704	6678.95	5759.8
897.8705	1598.1366	6744.85	5827.15
898.0128	1599.9021	6812.3	5899.15
898.1551	1601.6668	6862.75	5945.4
898.2975	1603.4308	6981.55	6064.3
898.4398	1605.194	7111.5	6192.15
898.5821	1606.9564	7244.8	6336.1
898.7243	1608.7182	7410.15	6505
898.8666	1610.4791	7577.25	6678.65
899.0088	1612.2394	7791.15	6892
899.1511	1613.9988	8012.5	7110.95
899.2933	1615.7576	8233.9	7325.15
899.4355	1617.5156	8447.15	7527.65
899.5776	1619.2728	8625.45	7710.8
899.7198	1621.0293	8688.55	7775.25
899.862	1622.785	8662.35	7750.2
900.0041	1624.54	8519.35	7609.6
900.1462	1626.2942	8334.65	7428.65
900.2883	1628.0477	8071.2	7160.4
900.4304	1629.8005	7845.1	6934.65
900.5725	1631.5525	7607.1	6701.9
900.7145	1633.3037	7395.6	6488.85
900.8566	1635.0542	7270.65	6362.35
900.9986	1636.804	7142.95	6235.45
901.1406	1638.553	7136.6	6168.1
901.2826	1640.3013	7065.15	6156.4
901.4245	1642.0488	7066.45	6160.55
901.5665	1643.7955	7093.4	6190.1
901.7085	1645.5416	7136.65	6231.6
901.8504	1647.2868	7241.1	6334.85
901.9923	1649.0313	7351.15	6441.35
902.1342	1650.7751	7502.7	6591.9
902.2761	1652.5181	7659.55	6755.6
902.4179	1654.2604	7853.35	6948.65
902.5598	1656.0019	8114.8	7210.4
902.7016	1657.7427	8403.95	7498.65
902.8434	1659.4828	8686.8	7775.45
902.9852	1661.222	8849.5	7940.4
903.127	1662.9606	8836.75	7927.3
903.2687	1664.6984	8610.6	7702.75
903.4105	1666.4354	8222.7	7310.3
903.5522	1668.1717	7697.55	6787.1
903.6939	1669.9072	7155	6243.9
903.8356	1671.642	6744.5	5830.55
903.9773	1673.3761	6384.75	5473.65
904.119	1675.1094	6092.3	5182.95
904.2606	1676.8419	5854.75	4945.15
904.4022	1678.5737	5689.35	4781.15
904.5439	1680.3048	5557.5	4647.8
904.6855	1682.0351	5444.8	4535.25
904.827	1683.7646	5375	4464.4
904.9686	1685.4934	5279.85	4372.5
905.1101	1687.2215	5213.95	4304.65
905.2517	1688.9488	5174.95	4270.15
905.3932	1690.6754	5100.15	4192.75
905.5347	1692.4012	5065.75	4155.9
905.6761	1694.1263	5030.05	4122.8
905.8176	1695.8506	5003.35	4097.55
905.9591	1697.5742	4983.6	4079.4
906.1005	1699.297	4942.25	4041.7
906.2419	1701.0191	4918.85	4020.7
906.3833	1702.7404	4883.7	3982.4
906.5246	1704.461	4857.85	3951.95
906.666	1706.1808	4812.05	3905.75
906.8073	1707.8999	4795.25	3890.2
906.9487	1709.6182	4762.4	3865.3
907.09	1711.3358	4746.65	3848.7
907.2313	1713.0527	4730.65	3834.25
907.3725	1714.7688	4704.9	3799.85
907.5138	1716.4841	4690.25	3786.4
907.655	1718.1987	4684.7	3776.25
907.7962	1719.9126	4655.1	3758.2
907.9374	1721.6257	4634.3	3733.7
908.0786	1723.338	4625.6	3727.3
908.2198	1725.0496	4593.95	3692.25
908.3609	1726.7605	4591.9	3691.35
908.502	1728.4706	4572.5	3672
908.6431	1730.18	4560.95	3661.95
908.7842	1731.8886	4543.3	3647.05
908.9253	1733.5964	4553	3633.55
909.0664	1735.3036	4529.7	3629.8
909.2074	1737.0099	4496.35	3597.55
909.3484	1738.7156	4477	3581.15
909.4894	1740.4204	4448.95	3549
909.6304	1742.1246	4439.35	3537.55
909.7714	1743.8279	4433.15	3534.85
909.9123	1745.5306	4413.25	3517.5
910.0532	1747.2325	4385.7	3489
910.1941	1748.9336	4378.25	3479.8
910.335	1750.634	4351.15	3449.1
910.4759	1752.3336	4343.35	3444.3
910.6168	1754.0325	4325	3430.05
910.7576	1755.7307	4313.5	3416
910.8984	1757.4281	4328.15	3430.1
911.0392	1759.1247	4299.5	3389.35
911.18	1760.8206	4289.05	3381.55
911.3208	1762.5158	4292.95	3385.95
911.4615	1764.2102	4284.2	3383.9
911.6022	1765.9039	4266.6	3368.25
911.7429	1767.5968	4240.5	3346.2
911.8836	1769.289	4235.95	3339.35
912.0243	1770.9804	4229.35	3331.6
912.1649	1772.6711	4220.45	3319.9
912.3056	1774.361	4221	3316.25
912.4462	1776.0502	4186.8	3285.1
912.5868	1777.7386	4178.65	3273.15
912.7274	1779.4263	4186.65	3290.3
912.8679	1781.1132	4186.35	3290.45
913.0084	1782.7994	4159.5	3265.35
913.149	1784.4849	4154.45	3258.95
913.2895	1786.1696	4146.65	3231.6
913.4299	1787.8535	4144.2	3252.1
913.5704	1789.5367	4130.05	3238.2
913.7108	1791.2192	4103.55	3209.75
913.8513	1792.9009	4121.45	3200.4
913.9917	1794.5818	4105.2	3204
914.132	1796.2621	4093.3	3197.45
914.2724	1797.9415	4081.65	3183.05
914.4128	1799.6202	4067.25	3167.2
914.5531	1801.2982	4078.45	3180.6
914.6934	1802.9755	4070.8	3172
914.8337	1804.6519	4061.15	3162.3
914.9739	1806.3277	4022.4	3128.8
915.1142	1808.0027	4020.3	3128.75
915.2544	1809.6769	4011.35	3120.95
915.3946	1811.3504	4014.4	3124.55
915.5348	1813.0231	4020.45	3126.3
915.675	1814.6951	4010.3	3116.15
915.8151	1816.3664	4007.05	3108.4
915.9553	1818.0369	4004.45	3104.7
916.0954	1819.7067	3975.9	3081.65
916.2355	1821.3757	3978.5	3079.6
916.3755	1823.044	3971.9	3073.7
916.5156	1824.7115	3964.2	3065.7
916.6556	1826.3783	3941.2	3044.7
916.7956	1828.0443	3933.85	3037.55
916.9356	1829.7096	3918.15	3020.15
917.0756	1831.3741	3918.65	3017.15
917.2155	1833.0379	3903.25	3008.65
917.3555	1834.701	3902	3007.6
917.4954	1836.3633	3888.05	2996.05
917.6353	1838.0248	3886.3	2991.7
917.7751	1839.6856	3873.2	2976.55
917.915	1841.3457	3879.3	2983.3
918.0548	1843.005	3881.4	2986
918.1946	1844.6636	3869.35	2972.45
918.3344	1846.3214	3854.85	2960.9
918.4742	1847.9785	3860.1	2963.45
918.6139	1849.6349	3855.95	2958.3
918.7537	1851.2904	3846	2938
918.8934	1852.9453	3842.4	2943.65
919.0331	1854.5994	3821.45	2922.05
919.1727	1856.2528	3832.05	2929.55
919.3124	1857.9054	3807.45	2910.5
919.452	1859.5572	3807.2	2913.35
919.5916	1861.2083	3805.55	2907
919.7312	1862.8587	3813.45	2916.45
919.8708	1864.5084	3802.1	2903.25
920.0103	1866.1572	3783.45	2882.9
920.1498	1867.8054	3783.5	2885.95
920.2893	1869.4528	3779.9	2880.75
920.4288	1871.0994	3752.45	2853.1
920.5683	1872.7453	3762.55	2863.95
920.7077	1874.3905	3757.55	2842.2
920.8471	1876.0349	3734.85	2835.4
920.9865	1877.6786	3736.55	2836.9
921.1259	1879.3215	3738.85	2841.95
921.2653	1880.9637	3729.65	2834.25
921.4046	1882.6051	3697.9	2803.35
921.5439	1884.2458	3705.95	2808
921.6832	1885.8858	3698.5	2801.8
921.8225	1887.525	3686.1	2789.7
921.9617	1889.1634	3680.35	2783
922.101	1890.8011	3662.45	2764.15
922.2402	1892.4381	3652.2	2754.75
922.3794	1894.0743	3653.7	2757.45
922.5185	1895.7098	3648.55	2754.3
922.6577	1897.3446	3652.95	2758.35
922.7968	1898.9786	3631.75	2732.6
922.9359	1900.6118	3626.4	2732.5
923.075	1902.2443	3619.25	2725.45
923.214	1903.8761	3608.75	2713.85
923.3531	1905.5071	3583.45	2688.05
923.4921	1907.1374	3585.4	2687
923.6311	1908.7669	3583.7	2689.8
923.77	1910.3957	3571.65	2675.8
923.909	1912.0237	3568.9	2674.25
924.0479	1913.651	3553.85	2658.8
924.1868	1915.2776	3549.95	2660.6
924.3257	1916.9034	3535.55	2643.95
924.4646	1918.5285	3523.5	2629.4
924.6034	1920.1528	3503.35	2610.1
924.7422	1921.7764	3512.1	2614.45
924.881	1923.3992	3493.5	2600.55
925.0198	1925.0213	3477.65	2582.45
925.1586	1926.6427	3456.75	2563.9
925.2973	1928.2633	3638.6	2533.2
925.436	1929.8832	3489.75	2591.75
925.5747	1931.5023	3442	2546.1
925.7134	1933.1207	3443	2549.3
925.852	1934.7383	3432.5	2540.2
925.9906	1936.3552	3429.8	2538
926.1292	1937.9714	3425.85	2531.2
926.2678	1939.5868	3398.95	2503.5
926.4064	1941.2015	3399.8	2501.1
926.5449	1942.8154	3390.9	2495.9
926.6834	1944.4286	3376.35	2479.55
926.8219	1946.041	3374.95	2461.45
926.9604	1947.6528	3354.35	2451.75
927.0988	1949.2637	3350.85	2456.4
927.2372	1950.8739	3346.05	2451.55
927.3756	1952.4834	3334.15	2442.05
927.514	1954.0921	3332.25	2439.2
927.6523	1955.7001	3317.25	2421.5
927.7907	1957.3074	3305.55	2416.1
927.929	1958.9139	3288	2397.55
928.0673	1960.5197	3290.25	2398.2
928.2055	1962.1247	3277.6	2386.45
928.3438	1963.729	3268.6	2378
928.482	1965.3325	3266.35	2368.95
928.6202	1966.9353	3238.65	2350.45
928.7584	1968.5374	3237.4	2346.3
928.8965	1970.1387	3237.35	2344.95
929.0346	1971.7393	3231.4	2340.5
929.1727	1973.3392	3219.55	2329.6
929.3108	1974.9383	3205.5	2317.95
929.4489	1976.5366	3189.4	2298.8
929.5869	1978.1342	3184.55	2295.75
929.7249	1979.7311	3187.2	2298.9
929.8629	1981.3273	3182.4	2293.85
930.0009	1982.9227	3178.8	2289.35
930.1388	1984.5173	3170.85	2283.05
930.2767	1986.1112	3158.35	2269.45
930.4146	1987.7044	3150.7	2263.6
930.5525	1989.2968	3147.6	2258.45
930.6904	1990.8885	3135.6	2248.2
930.8282	1992.4795	3138.55	2251
930.966	1994.0697	3115.95	2232.45
931.1038	1995.6592	3106.15	2219.25
931.2415	1997.2479	3104.2	2216.9
931.3793	1998.8359	3106.2	2219.65
931.517	2000.4232	3078.65	2194.7
931.6547	2002.0097	3079.4	2197.45
931.7923	2003.5955	3065.4	2181.3
931.93	2005.1805	3074.4	2190.95
932.0676	2006.7648	3067.3	2182.45
932.2052	2008.3484	3059.85	2178.4
932.3427	2009.9312	3048.1	2165
932.4803	2011.5133	3055.4	2175.4
932.6178	2013.0946	3046.75	2165.85
932.7553	2014.6752	3034.05	2151.2
932.8928	2016.2551	3034.9	2149.05
933.0302	2017.8342	3017.35	2133.95
933.1676	2019.4126	2999.45	2117.55
933.305	2020.9902	2993.15	2112.55
933.4424	2022.5672	2994.3	2110.65
933.5798	2024.1433	3004.35	2117.85
933.7171	2025.7188	2987.65	2109.05
933.8544	2027.2935	2989.8	2109.25
933.9917	2028.8674	2965.3	2086.25
934.129	2030.4406	2956.2	2077.25
934.2662	2032.0131	2947.65	2069.5
934.4034	2033.5849	2954.8	2069.8
934.5406	2035.1559	2949.05	2068.05
934.6778	2036.7261	2947.1	2063.8
934.8149	2038.2957	2951.2	2064.95
934.952	2039.8645	2956.8	2068.2
935.0891	2041.4325	2943.6	2054.55
935.2262	2042.9998	2918.75	2035.3
935.3632	2044.5664	2919.7	2034.6
935.5002	2046.1323	2908.6	2027.95
935.6372	2047.6974	2909.75	2031.15
935.7742	2049.2617	2894.1	2014.15
935.9111	2050.8254	2934.9	2019.7
936.048	2052.3883	2917.85	2032.8
936.1849	2053.9504	2886.85	2003.2
936.3218	2055.5118	2877.55	1992.35
936.4586	2057.0725	2883.55	1995.3
936.5955	2058.6325	2875.55	1992.35
936.7323	2060.1917	2867.45	1983
936.869	2061.7502	2864.35	1981.05
937.0058	2063.3079	2860.25	1979.65
937.1425	2064.8649	2851.65	1969.5
937.2792	2066.4212	2848.15	1963.5
937.4159	2067.9767	2836.7	1953.3
937.5525	2069.5315	2831.05	1947.35
937.6891	2071.0856	2824.6	1942.9
937.8257	2072.6389	2813.2	1930.7
937.9623	2074.1915	2807.9	1927.05
938.0989	2075.7433	2802.65	1919.85
938.2354	2077.2945	2790	1907.7
938.3719	2078.8448	2795.5	1910.55
938.5084	2080.3945	2770.85	1886.3
938.6448	2081.9434	2772.05	1886.2
938.7812	2083.4916	2767.05	1880.15
938.9176	2085.039	2776.65	1884.2
939.054	2086.5857	2756	1862.45
939.1903	2088.1317	2758.05	1864.5
939.3267	2089.677	2755.05	1862.4
939.463	2091.2215	2742.65	1851.15
939.5992	2092.7652	2746.4	1852.75
939.7355	2094.3083	2736.75	1844.05
939.8717	2095.8506	2736.75	1851.4
940.0079	2097.3921	2733.25	1847.6
940.1441	2098.933	2718.75	1830.5
940.2802	2100.4731	2717.6	1828.85
940.4163	2102.0124	2726.35	1830.65
940.5524	2103.5511	2712.75	1824.25
940.6885	2105.089	2711.3	1823.65
940.8245	2106.6261	2708.9	1821.1
940.9606	2108.1626	2701.9	1813.25
941.0965	2109.6983	2714.95	1795.7
941.2325	2111.2332	2684.55	1795.5
941.3684	2112.7675	2686.4	1793.45
941.5044	2114.301	2684	1792.05
941.6403	2115.8337	2675.85	1785.7
941.7761	2117.3657	2655.75	1766.65
941.912	2118.897	2665	1772.25
942.0478	2120.4276	2666.8	1768.75
942.1835	2121.9575	2649.75	1758.7
942.3193	2123.4866	2656.85	1765.75
942.455	2125.0149	2655.15	1764.7
942.5907	2126.5426	2637.5	1751.9
942.7264	2128.0695	2633.25	1747.05
942.8621	2129.5956	2613.9	1731.65
942.9977	2131.1211	2614.1	1725.6
943.1333	2132.6458	2618.7	1730.6
943.2689	2134.1698	2622.2	1733.45
943.4044	2135.693	2625.6	1729.95
943.54	2137.2155	2610.45	1715.5
943.6755	2138.7373	2612.3	1725.55
943.8109	2140.2584	2589	1705.2
943.9464	2141.7787	2587.5	1699.2
944.0818	2143.2983	2585.7	1704.35
944.2172	2144.8171	2574.3	1694.35
944.3526	2146.3353	2568.35	1680.95
944.4879	2147.8527	2565.3	1682
944.6232	2149.3693	2568.8	1681
944.7585	2150.8853	2576.8	1685.15
944.8938	2152.4005	2555.3	1663.1
945.029	2153.9149	2562.45	1669.3
945.1642	2155.4287	2558.05	1669.8
945.2994	2156.9417	2547.8	1658.15
945.4346	2158.454	2539.7	1651.75
945.5697	2159.9655	2525.1	1639.7
945.7048	2161.4764	2530.1	1643.4
945.8399	2162.9865	2521.85	1636.35
945.9749	2164.4958	2517.45	1632.3
946.1099	2166.0045	2515.2	1626.55
946.2449	2167.5124	2505.65	1618.5
946.3799	2169.0195	2506.25	1618.95
946.5148	2170.526	2503.65	1616.25
946.6498	2172.0317	2498.55	1608.8
946.7846	2173.5367	2486.2	1598.3
946.9195	2175.0409	2497.8	1611.2
947.0543	2176.5445	2493.55	1603.75
947.1891	2178.0473	2484.25	1594.85
947.3239	2179.5494	2474.35	1581
947.4587	2181.0507	2472.1	1583.5
947.5934	2182.5513	2468.45	1580.75
947.7281	2184.0512	2466.9	1578.1
947.8628	2185.5504	2459.05	1572.05
947.9974	2187.0488	2452.55	1566.6
948.132	2188.5465	2449.05	1564.05
948.2666	2190.0435	2445.15	1559.5
948.4012	2191.5397	2441.95	1552.95
948.5357	2193.0353	2441.15	1551.3
948.6702	2194.5301	2431.55	1537.9
948.8047	2196.0241	2422.45	1530.6
948.9392	2197.5175	2422.85	1528.15
949.0736	2199.0101	2417.45	1521.05
949.208	2200.502	2397.55	1509.95
949.3424	2201.9931	2392.55	1506.9
949.4767	2203.4835	2390.6	1502.6
949.611	2204.9733	2396.75	1506.05
949.7453	2206.4622	2381.15	1498.1
949.8796	2207.9505	2371.1	1484.95
950.0138	2209.438	2370.2	1489.1
950.148	2210.9248	2367.25	1480.45
950.2822	2212.4109	2372.15	1484.8
950.4164	2213.8962	2370.5	1475.7
950.5505	2215.3809	2377.05	1482.5
950.6846	2216.8648	2358.55	1463.6
950.8186	2218.3479	2356.45	1455.95
950.9527	2219.8304	2351.5	1454.4
951.0867	2221.3121	2356.25	1460.65
951.2207	2222.7931	2356.45	1464.35
951.3546	2224.2733	2337.35	1445.75
951.4886	2225.7529	2318.3	1430.2
951.6225	2227.2317	2318.95	1427.7
951.7563	2228.7098	2311.5	1425.7
951.8902	2230.1872	2307.35	1421.45
952.024	2231.6638	2307.25	1424.8
952.1578	2233.1397	2313	1422.95
952.2916	2234.6149	2294.55	1411.65
952.4253	2236.0894	2297.35	1410.4
952.559	2237.5632	2301.3	1403.05
952.6927	2239.0362	2283.45	1396
952.8263	2240.5085	2277.35	1391.35
952.9599	2241.9801	2271.55	1381.5
953.0935	2243.4509	2278.5	1385.9
953.2271	2244.921	2260.85	1367.25
953.3606	2246.3904	2273.15	1377.7
953.4941	2247.8591	2265.45	1376.85
953.6276	2249.3271	2242.95	1352.7
953.7611	2250.7943	2250.55	1358.1
953.8945	2252.2608	2242.45	1351.9
954.0279	2253.7266	2235.15	1342.45
954.1612	2255.1917	2240.15	1350.2
954.2946	2256.656	2224.75	1335.75
954.4279	2258.1197	2219.85	1333.05
954.5612	2259.5826	2228.35	1339.65
954.6944	2261.0447	2221.7	1332.75
954.8276	2262.5062	2214.45	1323.25
954.9608	2263.9669	2211.85	1318.7
955.094	2265.4269	2217.8	1327.8
955.2271	2266.8862	2202.2	1317.25
955.3602	2268.3448	2195.5	1307.45
955.4933	2269.8026	2202.95	1315.6
955.6264	2271.2598	2194.3	1306.05
955.7594	2272.7162	2184.5	1296.3
955.8924	2274.1719	2195.4	1303.75
956.0253	2275.6268	2184.2	1291.35
956.1583	2277.0811	2187.55	1296.45
956.2912	2278.5346	2186.95	1298.55
956.4241	2279.9874	2174.6	1288.55
956.5569	2281.4395	2177.55	1291.5
956.6897	2282.8908	2169.3	1274.95
956.8225	2284.3414	2167.8	1275.75
956.9553	2285.7914	2160.35	1272.95
957.088	2287.2406	2165.15	1276.55
957.2207	2288.689	2162.35	1268.85
957.3534	2290.1368	2150.1	1254.2
957.486	2291.5838	2160.3	1262.45
957.6186	2293.0302	2152.85	1256.9
957.7512	2294.4758	2149.25	1256.15
957.8838	2295.9206	2148.3	1256.9
958.0163	2297.3648	2141.4	1251.95
958.1488	2298.8082	2128.9	1239.75
958.2813	2300.251	2132.75	1242
958.4137	2301.693	2131.5	1235.95
958.5461	2303.1343	2131.95	1239.45
958.6785	2304.5748	2126.6	1237.55
958.8108	2306.0147	2108.35	1220.1
958.9432	2307.4538	2112.6	1224.45
959.0754	2308.8922	2105.25	1221.6
959.2077	2310.3299	2110.7	1221.3
959.3399	2311.7669	2093.9	1208.05
959.4721	2313.2031	2096.8	1209.5
959.6043	2314.6387	2092.55	1202.6
959.7365	2316.0735	2094.9	1206.25
959.8686	2317.5076	2089.95	1197.7
960.0006	2318.941	2078.05	1187.15
960.1327	2320.3737	2075.9	1185.6
960.2647	2321.8056	2076.3	1180.75
960.3967	2323.2369	2074.7	1184.5
960.5287	2324.6674	2066.9	1175.35
960.6606	2326.0972	2067.7	1175.1
960.7925	2327.5263	2067.3	1178.15
960.9244	2328.9547	2063.25	1172.25
961.0562	2330.3823	2068.3	1175.85
961.1881	2331.8092	2057.1	1160.3
961.3198	2333.2355	2044.7	1151
961.4516	2334.661	2046.85	1153.95
961.5833	2336.0858	2047.55	1154.7
961.715	2337.5098	2035.25	1144.7
961.8467	2338.9332	2039.4	1147.6
961.9783	2340.3558	2033.15	1141.6
962.1099	2341.7778	2027.85	1138.55
962.2415	2343.199	2026.1	1135.3
962.373	2344.6195	2020.65	1132.85
962.5045	2346.0393	2023.6	1135.6
962.636	2347.4583	2028.25	1137.8
962.7675	2348.8767	2023	1132.05
962.8989	2350.2943	2020.3	1126.6
963.0303	2351.7113	2018.1	1123.1
963.1617	2353.1275	2029.5	1135.1
963.293	2354.543	2013.35	1111
963.4243	2355.9578	2007.75	1115.4
963.5556	2357.3718	2000.4	1109.7
963.6868	2358.7852	1991.1	1103.2
963.818	2360.1978	1999.5	1112.2
963.9492	2361.6098	1993.85	1108.2
964.0803	2363.021	1988.9	1093.5
964.2114	2364.4315	1984	1093.55
964.3425	2365.8413	1974.55	1082.85
964.4736	2367.2504	1976.4	1090.95
964.6046	2368.6587	1974.25	1086.05
964.7356	2370.0664	1970.35	1084.95
964.8666	2371.4733	1969.6	1080.15
964.9975	2372.8795	1962.8	1074.55
965.1284	2374.285	1966.45	1077.45
965.2593	2375.6899	1958.2	1071.3
965.3901	2377.0939	1944.3	1056.1
965.5209	2378.4973	1938.05	1051.6
965.6517	2379.9	1941.15	1053.1
965.7825	2381.3019	1929.8	1043.1
965.9132	2382.7032	1943.45	1057.8
966.0439	2384.1037	1929.15	1045.4
966.1745	2385.5035	1931.45	1047.9
966.3051	2386.9027	1924.65	1041.9
966.4357	2388.3011	1914.85	1027
966.5663	2389.6987	1922.75	1036.55
966.6968	2391.0957	1912.7	1029.05
966.8273	2392.492	1911.55	1028.65
966.9578	2393.8876	1900.7	1013.5
967.0882	2395.2824	1896.75	1012.2
967.2186	2396.6765	1904.4	1017.55
967.349	2398.07	1897.95	1010.5
967.4793	2399.4627	1895.65	1007.1
967.6097	2400.8547	1880.7	993.4
967.7399	2402.246	1889.3	996.45
967.8702	2403.6366	1882.6	995.9
968.0004	2405.0265	1878.65	991.5
968.1306	2406.4156	1873.15	983.9
968.2607	2407.8041	1872.05	983.9
968.3909	2409.1918	1866.35	979.05
968.521	2410.5789	1868.95	982.3
968.651	2411.9652	1861.85	972.8
968.781	2413.3508	1861.3	974.55
968.911	2414.7358	1854.9	966.85
969.041	2416.12	1851.55	964.5
969.1709	2417.5035	1850.25	962.15
969.3008	2418.8863	1854.15	968.6
969.4307	2420.2684	1841.2	953.4
969.5606	2421.6497	1838.05	948.65
969.6904	2423.0304	1838.45	953
969.8201	2424.4104	1842.6	956.1
969.9499	2425.7896	1839.55	952.4
970.0796	2427.1682	1835.2	950.35
970.2093	2428.546	1821.5	935.15
970.3389	2429.9232	1828.25	941.75
970.4685	2431.2996	1824.65	936.1
970.5981	2432.6753	1820.45	932.35
970.7277	2434.0503	1814.2	925.1
970.8572	2435.4246	1810.15	922.9
970.9867	2436.7982	1810.5	920
971.1161	2438.1711	1797.75	911.35
971.2456	2439.5433	1805	917.5
971.375	2440.9148	1803.4	911.05
971.5043	2442.2856	1793.5	907.8
971.6336	2443.6557	1800.05	912.1
971.7629	2445.025	1799.3	912.25
971.8922	2446.3937	1793.7	904.75
972.0214	2447.7617	1782.05	895.3
972.1506	2449.1289	1786.5	899.55
972.2798	2450.4955	1782.3	890.4
972.4089	2451.8613	1782.35	897.35
972.538	2453.2265	1781.4	893.55
972.6671	2454.5909	1777.65	890.65
972.7961	2455.9546	1769.5	881.15
972.9251	2457.3177	1770.25	883.2
973.0541	2458.68	1780.75	889.15
973.1831	2460.0416	1757.3	869.45
973.312	2461.4025	1780.4	893.35
973.4408	2462.7627	1779.4	879.9
973.5697	2464.1222	1774.5	887.75
973.6985	2465.4811	1755.55	869.4
973.8273	2466.8392	1759.85	874.35
973.956	2468.1966	1765.7	878.2
974.0847	2469.5533	1761.15	871.85
974.2134	2470.9093	1758.9	871.55
974.3421	2472.2645	1753.1	863.8
974.4707	2473.6191	1755.45	867.75
974.5993	2474.973	1744.3	856.65
974.7278	2476.3262	1748.95	859.65
974.8563	2477.6787	1738	853.7
974.9848	2479.0305	1746.2	860.8
975.1132	2480.3816	1738.05	851.5
975.2417	2481.7319	1728.85	841.25
975.37	2483.0816	1731.8	842
975.4984	2484.4306	1723.3	836.65
975.6267	2485.7789	1725.55	839.4
975.755	2487.1264	1721.95	832.9
975.8833	2488.4733	1717.8	832.85
976.0115	2489.8195	1722.5	820
976.1397	2491.165	1720	832.75
976.2678	2492.5097	1709.95	821.25
976.3959	2493.8538	1703.1	818.55
976.524	2495.1972	1700.65	812.95
976.6521	2496.5398	1703.9	814
976.7801	2497.8818	1703.6	812.65
976.9081	2499.2231	1697.1	809.4
977.036	2500.5637	1700.95	811.3
977.164	2501.9035	1690.95	801.95
977.2918	2503.2427	1690.15	801.3
977.4197	2504.5812	1688.05	802.6
977.5475	2505.919	1688.9	799.45
977.6753	2507.256	1693.55	804.45
977.8031	2508.5924	1678.1	793.25
977.9308	2509.9281	1694	801.65
978.0585	2511.2631	1671.75	783.35
978.1861	2512.5974	1678.15	793.95
978.3137	2513.9309	1678.5	790.05
978.4413	2515.2638	1695.9	782.1
978.5689	2516.596	1673.3	784.7
978.6964	2517.9275	1667.45	781.65
978.8239	2519.2583	1664.45	779.1
978.9513	2520.5884	1668.75	780.8
979.0788	2521.9178	1666.15	779.7
979.2062	2523.2465	1654.1	768.2
979.3335	2524.5745	1655.2	765
979.4608	2525.9018	1655.35	768.1
979.5881	2527.2284	1653.35	766.4
979.7154	2528.5543	1648	760.65
979.8426	2529.8796	1645.25	757.4
979.9698	2531.2041	1650.35	762.1
980.0969	2532.5279	1641.25	756.25
980.224	2533.851	1644.05	757.95
980.3511	2535.1735	1642.6	755.35
980.4781	2536.4952	1646.1	757.7
980.6052	2537.8163	1646.8	755.8
980.7321	2539.1366	1637.6	750.25
980.8591	2540.4562	1637.45	747.65
980.986	2541.7752	1636.35	748
981.1129	2543.0935	1642.9	753.8
981.2397	2544.411	1639.95	751.35
981.3665	2545.7279	1631.85	744.45
981.4933	2547.0441	1636.8	749.65
981.62	2548.3596	1625.95	735.35
981.7467	2549.6744	1630.6	741.8
981.8734	2550.9885	1629.7	737.95
982.0001	2552.3019	1616.6	726.75
982.1267	2553.6146	1617.55	727.75
982.2532	2554.9266	1615.9	727.4
982.3798	2556.2379	1607.75	719.05
982.5063	2557.5485	1603.9	717.2
982.6327	2558.8585	1618.65	723.85
982.7592	2560.1677	1613.5	720.3
982.8856	2561.4762	1618.15	729
983.0119	2562.7841	1609.4	716.05
983.1383	2564.0913	1603.8	715.45
983.2646	2565.3977	1606.9	721.5
983.3908	2566.7035	1601.4	712.95
983.517	2568.0086	1601.85	712.65
983.6432	2569.313	1604.25	716.75
983.7694	2570.6167	1605.4	713.55
983.8955	2571.9197	1602.05	713.5
984.0216	2573.222	1603.45	712.65
984.1476	2574.5236	1598.35	709.2
984.2737	2575.8246	1595.4	705.1
984.3996	2577.1248	1594.65	703.5
984.5256	2578.4244	1595.2	708.35
984.6515	2579.7232	1597.2	710.8
984.7774	2581.0214	1624.65	708.05
984.9032	2582.3189	1588.8	700.55
985.029	2583.6157	1595.15	703.6
985.1548	2584.9118	1597.4	708
985.2806	2586.2072	1585	697
985.4063	2587.5019	1590.95	701.15
985.5319	2588.7959	1585.15	698.75
985.6576	2590.0893	1600.05	711.7
985.7832	2591.3819	1589.1	703.1
985.9087	2592.6739	1590.35	701.85
986.0343	2593.9652	1597.4	707.2
986.1597	2595.2557	1589.4	702.05
986.2852	2596.5456	1598.3	709
986.4106	2597.8348	1586.75	700.05
986.536	2599.1234	1590.95	702.4
986.6614	2600.4112	1595.5	707.55
986.7867	2601.6983	1596.95	705.85
986.912	2602.9848	1591.1	701.95
987.0372	2604.2705	1589.7	694.95
987.1624	2605.5556	1594.75	705.1
987.2876	2606.84	1588.2	700.05
987.4128	2608.1237	1576.2	688.35
987.5379	2609.4067	1581.5	694.45
987.6629	2610.689	1582.55	686.15
987.788	2611.9707	1576.85	688.05
987.913	2613.2516	1582.05	686.7
988.0379	2614.5319	1565.1	678
988.1629	2615.8115	1562.35	674.95
988.2878	2617.0903	1561.75	676.45
988.4126	2618.3685	1561.1	672.7
988.5375	2619.6461	1567.1	680
988.6622	2620.9229	1561.2	673.55
988.787	2622.199	1566.95	679.1
988.9117	2623.4745	1558.1	670.5
989.0364	2624.7493	1554.7	668.6
989.161	2626.0234	1555.5	670.6
989.2857	2627.2968	1557.05	670.4
989.4102	2628.5695	1558.9	670.9
989.5348	2629.8415	1554.05	667.9
989.6593	2631.1128	1555.8	666.6
989.7837	2632.3835	1548.2	660.5
989.9082	2633.6535	1545.05	657.85
990.0326	2634.9228	1546.9	662.7
990.1569	2636.1914	1550	663.05
990.2812	2637.4593	1548.35	661.15
990.4055	2638.7265	1546.15	658.85
990.5298	2639.9931	1541.1	655.85
990.654	2641.259	1543.7	657.5
990.7782	2642.5242	1531.35	644.2
990.9023	2643.7887	1542.75	656.8
991.0264	2645.0525	1536.35	647.5
991.1505	2646.3156	1534.4	645.75
991.2745	2647.5781	1526.1	638.6
991.3985	2648.8398	1525.35	637.85
991.5225	2650.1009	1530.5	636.25
991.6464	2651.3613	1522.55	634.25
991.7703	2652.6211	1518.2	631.3
991.8942	2653.8801	1521.15	635.35
992.018	2655.1385	1518.9	628.7
992.1418	2656.3961	1517.1	630.75
992.2655	2657.6531	1518	634
992.3892	2658.9094	1515.7	628.05
992.5129	2660.1651	1515.9	629.55
992.6366	2661.42	1524.3	638.8
992.7602	2662.6743	1515.15	628.45
992.8837	2663.9279	1519.15	632.7
993.0073	2665.1808	1534	646.3
993.1307	2666.433	1523.1	634.25
993.2542	2667.6846	1522.95	636.2
993.3776	2668.9354	1525.95	637.85
993.501	2670.1856	1530.45	643.3
993.6244	2671.4351	1533.3	647.65
993.7477	2672.6839	1534.4	646.7
993.8709	2673.9321	1536.55	651.3
993.9942	2675.1795	1533.55	646.6
994.1174	2676.4263	1540.4	654.05
994.2405	2677.6724	1534	650.3
994.3637	2678.9179	1539.3	653.75
994.4868	2680.1626	1540.4	654.2
994.6098	2681.4067	1535.8	649.5
994.7328	2682.6501	1541	653.9
994.8558	2683.8928	1530	643.75
994.9788	2685.1348	1525.85	639.05
995.1017	2686.3761	1524.4	638.5
995.2245	2687.6168	1521.3	634.75
995.3474	2688.8568	1522.45	634.6
995.4702	2690.0961	1522	639
995.5929	2691.3348	1520.55	634.35
995.7156	2692.5727	1511.85	627.6
995.8383	2693.81	1500.45	613.8
995.961	2695.0466	1499.95	616.75
996.0836	2696.2826	1507.15	623
996.2062	2697.5178	1506.9	617.8
996.3287	2698.7524	1503	618.5
996.4512	2699.9863	1511.4	623.7
996.5737	2701.2195	1510.65	627.45
996.6961	2702.452	1516.45	630.85
996.8185	2703.6839	1512.55	625.9
996.9408	2704.9151	1515.7	632.4
997.0631	2706.1456	1523.25	637.2
997.1854	2707.3755	1535.55	648.45
997.3077	2708.6046	1537.55	652.4
997.4299	2709.8331	1543.5	657.1
997.552	2711.0609	1549.9	664.25
997.6742	2712.2881	1555.6	671.45
997.7963	2713.5145	1571.75	684.3
997.9183	2714.7403	1578.7	695.6
998.0403	2715.9654	1580.9	694.3
998.1623	2717.1899	1603.1	701.7
998.2842	2718.4136	1597.75	711.3
998.4062	2719.6367	1613.55	728.4
998.528	2720.8591	1629.55	737.3
998.6498	2722.0809	1630.15	745.25
998.7716	2723.3019	1646.55	756.65
998.8934	2724.5223	1653.7	767
999.0151	2725.7421	1652.2	765.9
999.1368	2726.9611	1657.55	770.1
999.2584	2728.1795	1652.85	762.95
999.38	2729.3972	1644.15	756.95
999.5016	2730.6142	1646	746.05
999.6231	2731.8306	1622.6	735.85
999.7446	2733.0462	1619.25	731.8
999.8661	2734.2612	1596.5	708.25
999.9875	2735.4756	1576.9	692.25
1000.1089	2736.6892	1553.35	669
1000.2302	2737.9022	1536.2	653.15
1000.3515	2739.1145	1532.8	646.1
1000.4728	2740.3262	1524.85	631.85
1000.594	2741.5372	1509.1	624.1
1000.7152	2742.7475	1492.6	605.65
1000.8363	2743.9571	1493.4	606.45
1000.9575	2745.1661	1480.5	589.2
1001.0785	2746.3744	1473.3	585.15
1001.1996	2747.582	1460.15	575.5
1001.3206	2748.7889	1460.8	573.35
1001.4415	2749.9952	1446.05	563.25
1001.5625	2751.2008	1439.75	554.35
1001.6833	2752.4057	1441.1	553.2
1001.8042	2753.61	1429.5	544.8
1001.925	2754.8136	1431.3	543.6
1002.0458	2756.0165	1424.15	539.55
1002.1665	2757.2188	1422.7	539.3
1002.2872	2758.4204	1435.45	550.65
1002.4078	2759.6213	1420.25	534.95
1002.5285	2760.8215	1438.95	551.5
1002.649	2762.0211	1422.85	536.85
1002.7696	2763.22	1422.6	534.35
1002.8901	2764.4182	1419.3	534
1003.0106	2765.6158	1417.5	533.05
1003.131	2766.8127	1414.8	530.85
1003.2514	2768.009	1414.85	531.7
1003.3717	2769.2045	1417.4	531.85
1003.492	2770.3994	1411.7	525.5
1003.6123	2771.5936	1404.85	521.55
1003.7325	2772.7872	1397.65	514.15
1003.8527	2773.9801	1406.25	519.75
1003.9729	2775.1723	1416.2	516
1004.093	2776.3639	1397.65	514.35
1004.2131	2777.5548	1403.8	517.6
1004.3331	2778.745	1392.4	506.8
1004.4531	2779.9346	1398.1	514.4
1004.5731	2781.1235	1399.1	514.8
1004.693	2782.3117	1403.7	521.2
1004.8129	2783.4992	1399.5	515.85
1004.9328	2784.6861	1412.1	526.25
1005.0526	2785.8723	1414.95	530.65
1005.1723	2787.0579	1423.1	538.05
1005.2921	2788.2428	1424.25	541.2
1005.4118	2789.427	1425.7	544.05
1005.5314	2790.6106	1439.5	555.95
1005.651	2791.7935	1448.25	565
1005.7706	2792.9757	1457.75	574.45
1005.8902	2794.1573	1474.15	588.2
1006.0097	2795.3382	1486.85	603.35
1006.1291	2796.5184	1489.6	606.3
1006.2485	2797.698	1506.1	620.55
1006.3679	2798.8769	1516.05	631.55
1006.4873	2800.0551	1538.75	656.6
1006.6066	2801.2327	1552.7	666.75
1006.7258	2802.4096	1565.35	680.5
1006.8451	2803.5859	1582.1	698.45
1006.9642	2804.7615	1604.8	719.5
1007.0834	2805.9364	1623.1	740.45
1007.2025	2807.1106	1647.75	765
1007.3216	2808.2842	1681.7	796.15
1007.4406	2809.4572	1707.35	824.8
1007.5596	2810.6294	1746.5	863.8
1007.6785	2811.801	1769.6	887.15
1007.7975	2812.972	1810.45	928.4
1007.9163	2814.1423	1858.4	975.9
1008.0352	2815.3119	1903.25	1017.65
1008.154	2816.4808	1945.5	1062.95
1008.2727	2817.6491	2001.6	1116.05
1008.3914	2818.8167	2042.6	1162.95
1008.5101	2819.9837	2090.2	1202.85
1008.6288	2821.15	2146.35	1263.65
1008.7474	2822.3157	2192.55	1311.2
1008.8659	2823.4807	2240.45	1357.1
1008.9844	2824.645	2293.75	1408.4
1009.1029	2825.8086	2345.35	1463.5
1009.2214	2826.9716	2383.65	1500.75
1009.3398	2828.134	2426.7	1544.3
1009.4581	2829.2957	2469.95	1586.45
1009.5764	2830.4567	2497.45	1618.1
1009.6947	2831.617	2530.85	1649.15
1009.813	2832.7767	2537.5	1654.7
1009.9312	2833.9358	2540.15	1656.7
1010.0493	2835.0941	2535.3	1651.35
1010.1675	2836.2519	2529.45	1648.2
1010.2855	2837.4089	2511.45	1624.95
1010.4036	2838.5653	2485.65	1602.85
1010.5216	2839.7211	2488.55	1607.1
1010.6396	2840.8761	2494.95	1610.75
1010.7575	2842.0306	2515.35	1634.1
1010.8754	2843.1843	2555.25	1673.35
1010.9932	2844.3374	2590.95	1709.4
1011.111	2845.4899	2657.1	1774.2
1011.2288	2846.6417	2719.25	1838.1
1011.3465	2847.7928	2785.25	1903.55
1011.4642	2848.9433	2850.95	1969.35
1011.5818	2850.0931	2928.9	2046.85
1011.6995	2851.2422	2994.6	2109.95
1011.817	2852.3907	3077.95	2195.35
1011.9345	2853.5385	3139.5	2255.55
1012.052	2854.6857	3189.2	2279
1012.1695	2855.8323	3233.8	2351.4
1012.2869	2856.9781	3285.35	2402.7
1012.4042	2858.1233	3318.8	2432.35
1012.5216	2859.2679	3376	2493.85
1012.6389	2860.4118	3400.75	2520
1012.7561	2861.555	3454.35	2568.55
1012.8733	2862.6976	3501.85	2618.2
1012.9905	2863.8395	3526.5	2642.15
1013.1076	2864.9808	3547.7	2665.55
1013.2247	2866.1214	3562.7	2681.55
1013.3417	2867.2614	3587.05	2701.45
1013.4587	2868.4007	3608.45	2726.1
1013.5757	2869.5393	3614.05	2729.8
1013.6926	2870.6773	3632.7	2747.4
1013.8095	2871.8146	3646.55	2759.35
1013.9263	2872.9513	3650.2	2765.95
1014.0431	2874.0874	3632.15	2750.3
1014.1599	2875.2227	3630.9	2747.9
1014.2766	2876.3574	3604.1	2721.9
1014.3933	2877.4915	3595.1	2713.75
1014.51	2878.6249	3551.85	2670.45
1014.6266	2879.7577	3539.85	2655.95
1014.7431	2880.8898	3520.3	2627.3
1014.8596	2882.0212	3499.35	2618.15
1014.9761	2883.152	3488.5	2606.4
1015.0925	2884.2821	3483.35	2601.6
1015.2089	2885.4116	3463.8	2581.05
1015.3253	2886.5405	3473.25	2592.1
1015.4416	2887.6686	3483.55	2600.2
1015.5579	2888.7962	3487.2	2607.75
1015.6741	2889.923	3497.55	2616.65
1015.7903	2891.0493	3507.4	2626.85
1015.9065	2892.1748	3533.4	2650.65
1016.0226	2893.2997	3516.65	2632.1
1016.1387	2894.424	3521.8	2642.45
1016.2547	2895.5476	3555.1	2674.4
1016.3707	2896.6706	3581.45	2700.6
1016.4866	2897.7929	3608.25	2726.1
1016.6025	2898.9145	3634.6	2752.95
1016.7184	2900.0355	3663.5	2782.45
1016.8342	2901.1559	3699.7	2815.85
1016.95	2902.2756	3706.05	2826.2
1017.0658	2903.3946	3746.85	2866.4
1017.1815	2904.513	3758.85	2874.25
1017.2971	2905.6308	3820.45	2941.25
1017.4127	2906.7479	3854.05	2971.75
1017.5283	2907.8643	3849.65	2966.2
1017.6439	2908.9801	3869.45	2988.8
1017.7594	2910.0953	3879.15	2998.2
1017.8748	2911.2098	3871.8	2986.45
1017.9902	2912.3236	3883.5	2992.9
1018.1056	2913.4368	3866.6	2983.15
1018.2209	2914.5494	3853.3	2970.45
1018.3362	2915.6613	3819.45	2931.55
1018.4515	2916.7725	3774.5	2891.3
1018.5667	2917.8831	3762.4	2878.8
1018.6819	2918.9931	3733.45	2851.65
1018.797	2920.1024	3695.45	2814
1018.9121	2921.211	3678	2797.85
1019.0271	2922.319	3671.45	2789.6
1019.1421	2923.4264	3651.2	2770.65
1019.2571	2924.5331	3635.05	2755.5
1019.372	2925.6391	3627.95	2748.35
1019.4869	2926.7445	3614.4	2732.95
1019.6017	2927.8493	3604.25	2720.8
1019.7165	2928.9534	3618.3	2738.2
1019.8313	2930.0569	3615.75	2731.5
1019.946	2931.1597	3599.6	2716.8
1020.0606	2932.2619	3597.7	2716
1020.1753	2933.3634	3596	2715.05
1020.2899	2934.4643	3592.05	2703.4
1020.4044	2935.5645	3572.25	2684.4
1020.5189	2936.6641	3540.45	2654.4
1020.6334	2937.763	3495.65	2613.4
1020.7478	2938.8613	3463.95	2582.85
1020.8622	2939.959	3410.25	2524.2
1020.9765	2941.056	3333.1	2451.2
1021.0908	2942.1523	3253.95	2369.05
1021.2051	2943.248	3177.9	2295.7
1021.3193	2944.3431	3084.5	2205.9
1021.4334	2945.4375	2982.5	2101.25
1021.5476	2946.5313	2882.5	2006.45
1021.6617	2947.6244	2776.95	1894.65
1021.7757	2948.7169	2695.5	1816.7
1021.8897	2949.8087	2590.3	1710.05
1022.0037	2950.8999	2511.75	1630.35
1022.1176	2951.9904	2423.45	1541.7
1022.2315	2953.0803	2367.15	1486.35
1022.3453	2954.1696	2287.35	1409.25
1022.4591	2955.2582	2236.6	1355.65
1022.5728	2956.3462	2199.65	1319.3
1022.6865	2957.4335	2163.1	1282.4
1022.8002	2958.5202	2129.4	1247.25
1022.9138	2959.6062	2087.8	1207.6
1023.0274	2960.6916	2072.4	1193.55
1023.141	2961.7764	2052.05	1170.65
1023.2545	2962.8605	2031	1151.35
1023.3679	2963.9439	2014.4	1134.7
1023.4813	2965.0267	2010.4	1130.25
1023.5947	2966.1089	2029.15	1126.45
1023.708	2967.1905	2004.4	1126.25
1023.8213	2968.2714	1995.4	1114.85
1023.9346	2969.3516	1997.25	1118.05
1024.0478	2970.4312	1996.3	1109.45
1024.1609	2971.5102	1998	1115.6
1024.274	2972.5885	1997.7	1118.25
1024.3871	2973.6662	2001.9	1116.6
1024.5002	2974.7432	1983.25	1104.9
1024.6132	2975.8196	2002.2	1121
1024.7261	2976.8954	1974.95	1096.5
1024.839	2977.9705	1966.45	1087.3
1024.9519	2979.045	1964.35	1083.5
1025.0647	2980.1188	1952.15	1073.2
1025.1775	2981.192	1929.75	1049.3
1025.2902	2982.2645	1906.65	1024.3
1025.4029	2983.3364	1873.1	992.6
1025.5156	2984.4077	1859.35	980.45
1025.6282	2985.4783	1824.6	938.3
1025.7407	2986.5483	1792.45	912.25
1025.8532	2987.6177	1768.25	888.6
1025.9657	2988.6864	1726.7	847.45
1026.0782	2989.7545	1701.75	822.35
1026.1906	2990.8219	1659.2	778.35
1026.3029	2991.8887	1638.15	756.2
1026.4152	2992.9548	1604.1	722.55
1026.5275	2994.0204	1570.2	690.4
1026.6397	2995.0852	1544.15	666.7
1026.7519	2996.1495	1514.4	633.75
1026.864	2997.2131	1497.2	616.2
1026.9761	2998.276	1473.15	591.5
1027.0882	2999.3383	1455.5	574.45
1027.2002	3000.4	1429.95	552.2
1027.3122	3001.4611	1421.5	540.75
1027.4241	3002.5215	1398.5	520.5
1027.536	3003.5812	1383.65	503.4
1027.6478	3004.6404	1375.8	494.75
1027.7596	3005.6989	1363.3	480.95
1027.8714	3006.7567	1353	473.25
1027.9831	3007.8139	1373.7	461.65
1028.0947	3008.8705	1339.45	460
1028.2064	3009.9264	1337.25	454.1
1028.3179	3010.9818	1323.95	444.3
1028.4295	3012.0364	1327.45	447
1028.541	3013.0905	1315.1	433.8
1028.6524	3014.1439	1321.4	442.8
1028.7638	3015.1966	1320.9	441.4
1028.8752	3016.2487	1310.55	430.55
1028.9865	3017.3002	1315.3	427.8
1029.0978	3018.3511	1299.05	420
1029.209	3019.4013	1306.35	426
1029.3202	3020.4509	1304.8	428.3
1029.4314	3021.4998	1307.15	425.95
1029.5425	3022.5481	1301.6	422
1029.6535	3023.5958	1298.7	419.65
1029.7645	3024.6428	1304.75	424.2
1029.8755	3025.6892	1301.5	421.45
1029.9864	3026.735	1304.75	424.3
1030.0973	3027.7802	1303.5	424.8
1030.2082	3028.8247	1305.5	426.2
1030.319	3029.8685	1308.55	429.1
1030.4297	3030.9118	1316.4	436.75
1030.5404	3031.9544	1316.1	436.7
1030.6511	3032.9963	1320.75	442.15
1030.7617	3034.0376	1317.9	439.4
1030.8723	3035.0783	1325.55	443.55
1030.9829	3036.1184	1327.2	446.9
1031.0934	3037.1578	1326.95	451.25
1031.2038	3038.1966	1335.6	453.65
1031.3142	3039.2348	1328.35	451.5
1031.4246	3040.2723	1343.15	455.65
1031.5349	3041.3092	1337.25	460.3
1031.6452	3042.3455	1323.85	443.45
1031.7554	3043.3811	1332.45	452.85
1031.8656	3044.4161	1326.8	449.35
1031.9758	3045.4505	1317.55	439.45
1032.0859	3046.4842	1323.15	443.65
1032.1959	3047.5173	1313.65	434.45
1032.3059	3048.5498	1307.75	427.85
1032.4159	3049.5816	1296.85	418
1032.5258	3050.6128	1297.35	420
1032.6357	3051.6434	1296.95	415.85
1032.7455	3052.6734	1288.5	409.8
1032.8553	3053.7027	1286.85	405.85
1032.9651	3054.7314	1274.55	396.7
1033.0748	3055.7594	1270.65	391.3
1033.1845	3056.7868	1272.2	391.65
1033.2941	3057.8136	1265.25	386.75
1033.4037	3058.8398	1264.4	385.5
1033.5132	3059.8653	1261.45	382.25
1033.6227	3060.8902	1251.45	371.5
1033.7321	3061.9145	1251.85	373.2
1033.8415	3062.9381	1244.6	365.45
1033.9509	3063.9612	1264.4	370.45
1034.0602	3064.9835	1235.9	359.15
1034.1694	3066.0053	1229.8	350.35
1034.2787	3067.0264	1230.15	351.3
1034.3878	3068.0469	1221.45	342.05
1034.497	3069.0668	1211.7	330
1034.6061	3070.086	1201.8	323
1034.7151	3071.1046	1202.8	325.25
1034.8241	3072.1226	1189.1	308.95
1034.9331	3073.1399	1186.75	307.85
1035.042	3074.1567	1176.8	298
1035.1508	3075.1727	1170.1	290.65
1035.2597	3076.1882	1155.35	277.9
1035.3684	3077.203	1153.6	274.4
1035.4772	3078.2173	1144.85	265.5
1035.5859	3079.2308	1147.2	266
1035.6945	3080.2438	1137.7	259.3
1035.8031	3081.2561	1126.45	249.6
1035.9117	3082.2678	1113.75	233.9
1036.0202	3083.2789	1114.05	234.85
1036.1286	3084.2893	1107.6	229.4
1036.2371	3085.2991	1097.35	220.45
1036.3454	3086.3083	1102.85	219.3
1036.4538	3087.3169	1097.6	218.1
1036.562	3088.3248	1090.65	208.05
1036.6703	3089.3321	1085.95	207.65
1036.7785	3090.3388	1076.95	198.5
1036.8866	3091.3449	1069.75	192.05
1036.9948	3092.3503	1073	192.35
1037.1028	3093.3551	1065.25	188.05
1037.2108	3094.3593	1065.1	187.15
1037.3188	3095.3629	1058.55	181.05
1037.4267	3096.3658	1059.05	179.65
1037.5346	3097.3681	1051.9	173.55
1037.6425	3098.3698	1051.35	169.6
1037.7503	3099.3708	1057.9	176.45
1037.858	3100.3713	1046.95	167.6
1037.9657	3101.3711	1040.7	161.55
1038.0734	3102.3702	1176.2	161.55
1038.181	3103.3688	1043.4	164.9
1038.2886	3104.3667	1039.3	163
1038.3961	3105.364	1037.5	161.6
1038.5036	3106.3607	1038.5	159.35
1038.611	3107.3568	1036.7	157.55
1038.7184	3108.3522	1028.75	152.7
1038.8257	3109.347	1026.95	149.4
1038.933	3110.3412	1031.6	149.3
1039.0403	3111.3348	1027.75	150.8
1039.1475	3112.3277	1028.3	152.1
1039.2547	3113.32	1026.25	150.75
1039.3618	3114.3117	1021.6	142.75
1039.4689	3115.3028	1022.05	144.45
1039.5759	3116.2932	1019.3	138.65
1039.6829	3117.2831	1021.7	138.25
1039.7898	3118.2723	1019.05	141.6
1039.8967	3119.2608	1018.7	143.35
1040.0035	3120.2488	1016.5	138.3
1040.1103	3121.2361	1013.8	136.3
1040.2171	3122.2229	1010.9	132.55
1040.3238	3123.209	1010.55	134.4
1040.4305	3124.1944	1006.9	131.2
1040.5371	3125.1793	1010.15	130.35
1040.6437	3126.1635	1010.55	133.45
1040.7502	3127.1471	1005.45	128.35
1040.8567	3128.1301	1003.15	125.2
1040.9631	3129.1125	1006.55	129.85
1041.0695	3130.0942	1002.8	124.85
1041.1759	3131.0753	1009.8	123.3
1041.2822	3132.0558	1004	127.15
1041.3884	3133.0357	1000.2	118.25
1041.4946	3134.015	1002	123.05
1041.6008	3134.9936	1001	120.05
1041.7069	3135.9716	1015.4	118.25
1041.813	3136.949	996.6	120.15
1041.919	3137.9258	1010.1	113.6
1042.025	3138.902	1002.6	120.65
1042.1309	3139.8775	995.95	117.5
1042.2368	3140.8524	988.65	110.8
1042.3427	3141.8267	993.3	113.35
1042.4485	3142.8004	989.2	110.25
1042.5542	3143.7735	994.8	110.15
1042.6599	3144.7459	992.3	112.7
1042.7656	3145.7178	990.15	112.9
1042.8712	3146.689	982.6	106.35
1042.9768	3147.6596	986	105.15
1043.0823	3148.6295	983.85	106.8
1043.1878	3149.5989	980.15	104.35
1043.2932	3150.5676	982.4	105.3
1043.3986	3151.5357	983.05	106.05
1043.5039	3152.5032	976.95	100.3
1043.6092	3153.4701	980.4	106
1043.7145	3154.4364	979.35	98.35
1043.8197	3155.402	979	103.8
1043.9248	3156.367	982.75	103.55
1044.03	3157.3315	1006	94.7
1044.135	3158.2952	975.4	96.8
1044.24	3159.2584	972.05	93.8
1044.345	3160.221	972.75	94.85
1044.4499	3161.1829	970.65	94.35
1044.5548	3162.1442	973.3	97.7
1044.6596	3163.105	972.5	93
1044.7644	3164.065	971.25	94.75
1044.8692	3165.0245	972.45	92.6
1044.9739	3165.9834	968.5	92.45
1045.0785	3166.9416	970	93.95
1045.1831	3167.8993	969.6	92.85
1045.2877	3168.8563	967.2	87.05
1045.3922	3169.8127	960.15	81.9
1045.4966	3170.7684	963.85	88.1
1045.6011	3171.7236	964	85.4
1045.7054	3172.6782	963.65	86.95
1045.8098	3173.6321	964.65	87.65
1045.914	3174.5854	966.55	85.6
1046.0183	3175.5381	962.85	85.25
1046.1224	3176.4902	961.8	85
1046.2266	3177.4417	962	83.95
1046.3307	3178.3926	961.35	83.75
1046.4347	3179.3428	956.95	80.65
1046.5387	3180.2924	963.05	86.95
1046.6427	3181.2415	960.65	84.55
1046.7466	3182.1899	959.6	81.1
1046.8504	3183.1377	961.6	85.05
1046.9542	3184.0848	960.5	81.8
1047.058	3185.0314	957.6	80.55
1047.1617	3185.9773	956.95	80.2
1047.2654	3186.9227	956.4	78.85
1047.369	3187.8674	957.6	80.25
1047.4726	3188.8115	959.2	76.9
1047.5761	3189.755	954.2	77.9
1047.6796	3190.6979	951.9	72.65
1047.783	3191.6402	955.65	80.65
1047.8864	3192.5818	954.35	76.15
1047.9898	3193.5229	972.45	76.75
1048.0931	3194.4633	955.6	79.25
1048.1963	3195.4031	955.55	79.15
1048.2995	3196.3423	948.9	71.7
1048.4027	3197.2809	949.95	72.65
1048.5058	3198.2189	950.6	73.35
1048.6089	3199.1563	955.1	71.55
1048.7119	3200.0931	949	73.85
1048.8148	3201.0292	945.85	70.05
1048.9178	3201.9648	947.65	70.3
1049.0206	3202.8997	951.15	71.4
1049.1235	3203.834	951.8	75.8
1049.2262	3204.7677	947.95	72.75
1049.329	3205.7008	951.25	74.85
1049.4317	3206.6333	945.3	68.95
1049.5343	3207.5652	948.3	69.5
1049.6369	3208.4964	949.75	73.55
1049.7394	3209.4271	943.55	65.5
1049.8419	3210.3571	944.6	67.6
1049.9444	3211.2865	945.55	67.2
1050.0468	3212.2154	944.05	67.4
1050.1491	3213.1436	945.7	66.5
1050.2514	3214.0712	950.1	66.65
1050.3537	3214.9982	942.7	66.4
1050.4559	3215.9246	944.95	68.05
1050.5581	3216.8503	944.15	67.6
1050.6602	3217.7755	942.05	65.95
1050.7623	3218.7001	942.9	67.9
1050.8643	3219.624	940.85	64.85
1050.9663	3220.5473	942.2	66
1051.0682	3221.4701	944.55	64.6
1051.1701	3222.3922	942.5	64.9
1051.2719	3223.3137	939	61.95
1051.3737	3224.2346	939.6	62
1051.4754	3225.1549	939.65	63.4
1051.5771	3226.0746	939.85	62.95
1051.6788	3226.9937	938	60.55
1051.7804	3227.9121	938.15	63
1051.8819	3228.83	937.75	60.65
1051.9834	3229.7473	939.7	63.85
1052.0849	3230.6639	939.05	62.5
1052.1863	3231.5799	936.8	59.05
1052.2876	3232.4954	936.45	58.9
1052.3889	3233.4102	938.85	64.2
1052.4902	3234.3244	938.05	60
1052.5914	3235.238	935.8	59.15
1052.6926	3236.151	959.2	58.95
1052.7937	3237.0634	935.05	63.15
1052.8948	3237.9752	936.6	60.25
1052.9958	3238.8864	935.1	57.6
1053.0968	3239.797	935.95	58.5
1053.1977	3240.7069	933.9	57.45
1053.2986	3241.6163	937.1	60.1
1053.3994	3242.5251	934.55	58.45
1053.5002	3243.4332	930.75	55.35
1053.6009	3244.3408	931.5	55.45
1053.7016	3245.2477	931.5	55.3
1053.8022	3246.154	933.5	57.05
1053.9028	3247.0598	930.4	55.1
1054.0034	3247.9649	933	57.1
1054.1039	3248.8694	927.9	50.5
1054.2043	3249.7733	927.95	53.2
1054.3047	3250.6766	926.55	51
1054.4051	3251.5793	927.55	51.4
1054.5054	3252.4814	929.05	51.5
1054.6056	3253.3829	927.45	51.05
1054.7058	3254.2838	925.75	49.5
1054.806	3255.1841	925	50.5
1054.9061	3256.0838	927.3	50.25
1055.0061	3256.9829	923.4	48.7
1055.1062	3257.8814	928.45	52.8
1055.2061	3258.7792	927.8	49.65
1055.306	3259.6765	925.45	47.9
1055.4059	3260.5731	924.65	49.85
1055.5057	3261.4692	921.5	45.1
1055.6055	3262.3647	922.55	44.75
1055.7052	3263.2595	921.95	46.2
1055.8049	3264.1538	921.05	46.45
1055.9045	3265.0474	918.2	43.25
1056.0041	3265.9404	918.15	44.05
1056.1036	3266.8329	917.7	42.05
1056.2031	3267.7247	928.35	42.7
1056.3025	3268.616	915.95	44.1
1056.4019	3269.5066	913.6	38.45
1056.5013	3270.3966	916.25	37.9
1056.6005	3271.286	910.85	36.9
