Software Version:	3.9.2.0
Unit SN:	10000200
Spectrometer SN:	6960
Date:	3/8/2024 12:36:52 PM
Data Line Index:	25
Spectral Points:	2048
Integration time (ms):	125
Averages:	20
Delay (ms):	30000
Sequence Number:	1
Processing:	dark subtract
Laser Power (mW):	300
Laser Current (mA):	823
Laser Diode Temp (C):	25
Laser Case Temp (C):	26
System Temp (C):	26
Spectrometer Temp (C):	23.8
CCD Temp (C):	0.005
Secondary Temp (C):	20.014
Heatsink Temp (C):	20.645
CCDPCB Temp (C):	36.085
SecondaryPCB Temp (C):	29.293

Wavelength	RamanShift	Raw Counts	Dark Subtracted
787.061	30.1047	448.55	40.7
787.2016	32.3739	446.65	41.4
787.3422	34.6426	455.55	49.75
787.4828	36.9109	459	49.1
787.6235	39.1787	467.85	54.8
787.7642	41.4461	477.2	57.9
787.9049	43.7131	481.7	60.85
788.0456	45.9796	491.4	68.45
788.1863	48.2456	500.85	73.4
788.3271	50.5112	509.65	77.55
788.4679	52.7764	517.75	82.5
788.6087	55.0411	526.65	86.4
788.7496	57.3054	540.6	95.45
788.8904	59.5692	541.55	91.95
789.0313	61.8326	555.4	105.25
789.1722	64.0955	566.4	110.75
789.3132	66.3579	582.35	124.55
789.4541	68.6199	597.2	133.25
789.5951	70.8815	629.75	162.8
789.7361	73.1426	705.95	235.2
789.8771	75.4032	903.85	428.65
790.0181	77.6634	1378.75	898.7
790.1592	79.9231	2492.1	2004.65
790.3003	82.1824	4882.65	4378.25
790.4414	84.4412	9132.15	8596.65
790.5825	86.6995	14883.35	14311.9
790.7237	88.9574	20374.9	19768.6
790.8648	91.2148	24160.95	23530.75
791.006	93.4717	25770.65	25128
791.1472	95.7282	25921.3	25270.05
791.2885	97.9842	25617.2	24958.45
791.4297	100.2398	24892.05	24233.7
791.571	102.4949	24066.9	23407.15
791.7123	104.7495	23205.9	22541.5
791.8536	107.0036	22294.2	21631
791.9949	109.2573	21516.55	20856.35
792.1363	111.5105	20830.7	20163.35
792.2777	113.7632	20174.35	19506.2
792.4191	116.0154	19696.55	19017.1
792.5605	118.2672	19319.25	18644.6
792.7019	120.5185	18941.4	18267.45
792.8434	122.7693	18691.05	18010.35
792.9849	125.0197	18413.9	17732
793.1264	127.2696	18179.6	17492.15
793.2679	129.519	17992.05	17302.75
793.4094	131.7679	17720.85	17029.9
793.551	134.0163	17431.1	16737.1
793.6926	136.2642	17112.15	16415.9
793.8342	138.5117	16780.05	16068.95
793.9758	140.7587	16406.65	15704.5
794.1175	143.0052	16085	15376.45
794.2591	145.2512	15740.15	15031.5
794.4008	147.4967	15430.5	14722.15
794.5425	149.7417	15199.25	14491.6
794.6842	151.9863	15023.95	14311.1
794.826	154.2304	14909.75	14188.85
794.9677	156.4739	14747.15	14022.1
795.1095	158.717	14667.7	13941.75
795.2513	160.9596	14491.15	13765.4
795.3931	163.2017	14272.75	13542.45
795.535	165.4433	13972.8	13238.25
795.6768	167.6844	13676.2	12940.6
795.8187	169.925	13409.6	12673.3
795.9606	172.1651	13102.05	12361.1
796.1025	174.4047	12853.05	12115.15
796.2445	176.6439	12634.65	11891.9
796.3864	178.8825	12420.9	11678.3
796.5284	181.1206	12304.05	11550.1
796.6704	183.3582	12189.9	11433.75
796.8124	185.5954	12110.6	11357.4
796.9544	187.832	12027.65	11261.6
797.0965	190.0681	12016.5	11255.7
797.2386	192.3037	12023.8	11255.8
797.3806	194.5388	11995.9	11226.45
797.5228	196.7734	12027.85	11259.35
797.6649	199.0075	12113.9	11342.55
797.807	201.2411	12229.8	11455.9
797.9492	203.4742	12277.75	11496.05
798.0914	205.7068	12437.95	11657.05
798.2336	207.9389	12510.35	11727.75
798.3758	210.1704	12667.9	11896.45
798.518	212.4015	12758.1	11994.25
798.6603	214.632	12902	12142.75
798.8025	216.862	13014.15	12252.95
798.9448	219.0915	13116.4	12356.7
799.0871	221.3205	13221.4	12458.1
799.2294	223.549	13253.25	12490.4
799.3718	225.777	13304.25	12541.35
799.5141	228.0044	13419.35	12650.2
799.6565	230.2314	13531.95	12762.15
799.7989	232.4578	13585.1	12815.85
799.9413	234.6837	13687.1	12910.15
800.0837	236.909	13743.05	12960.65
800.2262	239.1339	13732	12928.3
800.3687	241.3582	13678.25	12889.25
800.5111	243.582	13625.85	12805.4
800.6536	245.8053	13556.55	12744.9
800.7961	248.0281	13515.15	12710.6
800.9387	250.2503	13536.45	12730.45
801.0812	252.472	13616	12805.35
801.2238	254.6932	13699.55	12893.2
801.3664	256.9139	13802	12996.6
801.509	259.134	14011.5	13194.95
801.6516	261.3536	14244.3	13429.8
801.7942	263.5727	14543.7	13732.35
801.9369	265.7912	14833.05	14019.9
802.0795	268.0092	15079.6	14268.5
802.2222	270.2267	15306.95	14492.8
802.3649	272.4436	15435.85	14622.4
802.5076	274.6601	15468.8	14641.85
802.6504	276.8759	15397.6	14578.7
802.7931	279.0913	15277	14456.55
802.9359	281.3061	15189.55	14370.45
803.0787	283.5204	15101.85	14276.35
803.2215	285.7341	15080	14249.75
803.3643	287.9473	15099.8	14256.5
803.5071	290.16	15112.3	14281.95
803.6499	292.3721	15214.45	14384.3
803.7928	294.5837	15393.7	14564.35
803.9357	296.7947	15554.2	14725.25
804.0786	299.0052	15722.85	14894.45
804.2215	301.2152	15722.4	14890.7
804.3644	303.4246	15539.55	14714.2
804.5074	305.6334	15276.65	14452.1
804.6503	307.8418	14895.15	14065.65
804.7933	310.0495	14554.95	13723.05
804.9363	312.2568	14153.55	13320.2
805.0793	314.4635	13778.8	12941.5
805.2223	316.6696	13476.75	12641.05
805.3653	318.8752	13278.7	12432.65
805.5084	321.0802	13169.1	12328.9
805.6514	323.2847	13171.65	12331.4
805.7945	325.4887	13178.65	12337.25
805.9376	327.692	13187.4	12342.85
806.0807	329.8949	13144.35	12299.95
806.2238	332.0972	13014.15	12169.15
806.367	334.2989	12833.4	11986.7
806.5101	336.5001	12603.2	11752.15
806.6533	338.7007	12413.35	11566.45
806.7965	340.9008	12279.85	11427.2
806.9397	343.1003	12116.8	11266.9
807.0829	345.2992	11993.8	11141
807.2261	347.4976	11902.15	11050.2
807.3693	349.6955	11824.05	10966.45
807.5126	351.8927	11812.35	10952.35
807.6559	354.0895	11754.3	10884.95
807.7991	356.2856	11702.25	10843.15
807.9424	358.4812	11634.75	10773.8
808.0857	360.6763	11634.8	10768.5
808.2291	362.8707	11625.1	10759.7
808.3724	365.0646	11652.2	10787.05
808.5158	367.258	11678.45	10812.65
808.6591	369.4508	11748.25	10878.05
808.8025	371.643	11878.1	11007.75
808.9459	373.8346	11974.85	11101.2
809.0893	376.0257	12059.85	11189.4
809.2327	378.2162	12092.55	11219.85
809.3762	380.4062	12058.65	11187.1
809.5196	382.5956	11972.9	11103.85
809.6631	384.7844	11896.95	11030.5
809.8066	386.9726	11786.3	10923.1
809.9501	389.1603	11688.75	10825.15
810.0936	391.3474	11662.55	10765.7
810.2371	393.5339	11601.8	10738.2
810.3806	395.7199	11562.15	10693.4
810.5241	397.9052	11621.55	10756
810.6677	400.09	11698.85	10831.65
810.8113	402.2743	11856.7	10989.9
810.9548	404.4579	12020.3	11154.35
811.0984	406.641	12191.95	11321.25
811.2421	408.8235	12337.05	11467.25
811.3857	411.0054	12466.15	11595.95
811.5293	413.1868	12611.5	11735.05
811.673	415.3675	12646.25	11768.95
811.8166	417.5477	12642.75	11765.85
811.9603	419.7273	12591.75	11713.55
812.104	421.9064	12518.8	11632
812.2477	424.0848	12475.65	11592.65
812.3914	426.2627	12333.1	11451.85
812.5351	428.4399	12174.15	11287.6
812.6788	430.6166	11840.8	10953.2
812.8226	432.7928	11557.75	10671.3
812.9663	434.9683	11284.35	10402
813.1101	437.1432	11086.55	10202.6
813.2539	439.3176	10907.3	10031.3
813.3977	441.4914	10805.6	9928.7
813.5415	443.6645	10763.9	9884.25
813.6853	445.8371	10723.2	9837.55
813.8291	448.0091	10684.5	9799.3
813.973	450.1806	10682.3	9800.3
814.1168	452.3514	10684.7	9807.95
814.2607	454.5216	10708.25	9816.2
814.4046	456.6913	10690.4	9804.95
814.5485	458.8603	10716.35	9834.55
814.6924	461.0288	10777.2	9903.2
814.8363	463.1967	10754.35	9879.05
814.9802	465.3639	10796.3	9918.65
815.1241	467.5306	10778.15	9894.05
815.2681	469.6967	10743.05	9865.35
815.412	471.8622	10726.65	9846.35
815.556	474.0271	10789.15	9908.15
815.7	476.1914	10853.65	9969.15
815.844	478.3551	10836.2	9947.95
815.988	480.5182	10893	10010.95
816.132	482.6807	10966.4	10091.3
816.276	484.8426	11168.3	10300.9
816.4201	487.0039	11472.4	10595.35
816.5641	489.1647	11785	10901.6
816.7082	491.3248	12097.8	11214.65
816.8522	493.4843	12187.05	11307.7
816.9963	495.6432	12146.75	11264.65
817.1404	497.8015	12012.3	11120.95
817.2845	499.9592	11926.4	11029.95
817.4286	502.1163	11732.55	10836.25
817.5727	504.2728	11444.35	10556.15
817.7168	506.4287	11184.15	10304.8
817.861	508.5839	10878.9	9996.65
818.0051	510.7386	10712.5	9828.5
818.1493	512.8927	10660.2	9761.2
818.2935	515.0461	10671.75	9780.4
818.4377	517.199	10746.75	9852.7
818.5818	519.3512	10897.15	10000.4
818.726	521.5029	11165.2	10268.6
818.8703	523.6539	11406.2	10513.55
819.0145	525.8043	11498	10600.55
819.1587	527.9541	11441.3	10541.75
819.303	530.1033	11279.7	10382.5
819.4472	532.2519	11085.85	10188.55
819.5915	534.3999	11024.8	10128.35
819.7357	536.5472	11065.25	10174.55
819.88	538.694	11216.55	10322.85
820.0243	540.8401	11459.9	10563.25
820.1686	542.9856	11632.35	10727.2
820.3129	545.1305	11656.75	10745.4
820.4572	547.2748	11596.65	10682
820.6016	549.4185	11452.75	10539
820.7459	551.5615	11315	10404.3
820.8902	553.704	11362.15	10449.4
821.0346	555.8458	11436.95	10533.25
821.1789	557.987	11624.15	10718.5
821.3233	560.1276	11823.3	10916.75
821.4677	562.2675	12223.3	11315.2
821.6121	564.4069	12744.5	11836.65
821.7565	566.5456	13146.5	12243.5
821.9009	568.6837	13313	12410.8
822.0453	570.8212	12944.15	12039.4
822.1897	572.958	12311.85	11404.75
822.3342	575.0942	11692.5	10791.5
822.4786	577.2299	11265.55	10370.75
822.6231	579.3648	11056.25	10165.6
822.7675	581.4992	10963.7	10086.05
822.912	583.6329	11058.45	10177.1
823.0565	585.766	11213.9	10329.85
823.201	587.8985	11318.65	10432.35
823.3454	590.0304	11413.85	10491.85
823.4899	592.1616	11391.2	10482.05
823.6345	594.2922	11279.95	10369.8
823.779	596.4222	11097.4	10188
823.9235	598.5515	10907.25	9990.15
824.068	600.6802	10741.7	9828.5
824.2126	602.8083	10598.85	9690.65
824.3571	604.9358	10592.85	9679.2
824.5017	607.0626	10627.7	9716.25
824.6462	609.1888	10730.1	9813.65
824.7908	611.3144	10894.75	9975.3
824.9354	613.4393	11007.9	10088.75
825.08	615.5636	11110.7	10191.35
825.2246	617.6873	11152.7	10238.25
825.3692	619.8103	11092.55	10173
825.5138	621.9327	10894	9978.2
825.6584	624.0544	10698.7	9789.75
825.803	626.1756	10516.65	9607.55
825.9477	628.2961	10341.7	9426.35
826.0923	630.4159	10288.75	9374.2
826.237	632.5351	10296	9379.8
826.3816	634.6537	10257.15	9341.75
826.5263	636.7716	10289.95	9365.55
826.6709	638.8889	10299.9	9372.3
826.8156	641.0056	10308.5	9383.1
826.9603	643.1216	10272.2	9348.6
827.105	645.237	10271.35	9351.65
827.2497	647.3518	10185	9271.1
827.3944	649.4659	10094.75	9183.05
827.5391	651.5793	10033.2	9124.05
827.6838	653.6922	10030.2	9118.7
827.8285	655.8043	10017.25	9103
827.9733	657.9159	10023.85	9107.25
828.118	660.0268	9985.25	9066.3
828.2627	662.137	10000.8	9081.9
828.4075	664.2466	10044.25	9118.95
828.5522	666.3556	10022.95	9099.9
828.697	668.4639	9948.2	9027.15
828.8418	670.5716	9910.75	8999.1
828.9865	672.6786	9870.05	8952.7
829.1313	674.785	9821.9	8898.95
829.2761	676.8907	9804.35	8884.5
829.4209	678.9958	9797.45	8880.45
829.5657	681.1002	9755.4	8832.65
829.7105	683.204	9767.9	8837.05
829.8553	685.3072	9761.5	8833.1
830.0001	687.4097	9736.3	8812.6
830.1449	689.5115	9748.65	8820.95
830.2898	691.6127	9739.6	8815.3
830.4346	693.7132	9722.85	8798.6
830.5794	695.8131	9760.1	8816.7
830.7243	697.9123	9797.5	8867.6
830.8691	700.0109	9786	8854.15
831.014	702.1089	9828.05	8901.1
831.1588	704.2061	9895.5	8970.1
831.3037	706.3028	9933.8	9005.4
831.4486	708.3987	9978.55	9048.15
831.5935	710.4941	10002.9	9080
831.7383	712.5887	10022.7	9098
831.8832	714.6827	10093.75	9166.65
832.0281	716.7761	10197.45	9272.05
832.173	718.8688	10318.55	9390.7
832.3179	720.9608	10470.5	9536.35
832.4628	723.0522	10574.4	9639.35
832.6077	725.1429	10672.3	9739.35
832.7527	727.233	10761.9	9835.4
832.8976	729.3224	10826.8	9896.3
833.0425	731.4112	10777.6	9851.35
833.1874	733.4993	10647.35	9716.05
833.3324	735.5867	10452.4	9522.5
833.4773	737.6735	10241.35	9308.85
833.6222	739.7596	10067.65	9134.5
833.7672	741.845	9932.8	9003.85
833.9122	743.9298	9840	8907.85
834.0571	746.014	9800	8868.25
834.2021	748.0974	9816.3	8880.75
834.347	750.1802	9786.7	8849.45
834.492	752.2624	9817.75	8879.7
834.637	754.3439	9871.6	8931.75
834.782	756.4247	9970.7	9027.15
834.9269	758.5048	10106.35	9171.9
835.0719	760.5843	10396.1	9460.8
835.2169	762.6631	10756.05	9819.65
835.3619	764.7413	11273.5	10335.65
835.5069	766.8188	11941.4	11002.05
835.6519	768.8956	12488.65	11552.85
835.7969	770.9718	12854.35	11919.85
835.9419	773.0473	12816.7	11880.65
836.0869	775.1221	12580.3	11642.65
836.232	777.1962	12360.85	11426.8
836.377	779.2697	12272.8	11335.25
836.522	781.3426	12369.55	11419.95
836.667	783.4147	12436.15	11498.6
836.8121	785.4862	12486.75	11554.85
836.9571	787.557	12270.05	11328.1
837.1021	789.6271	11833.95	10893.35
837.2472	791.6966	11284	10343.95
837.3922	793.7654	10708.1	9768.75
837.5373	795.8335	10311	9375.65
837.6823	797.901	10031.8	9094.5
837.8274	799.9678	9873	8931.45
837.9724	802.0339	9790.5	8850.2
838.1175	804.0993	9767.6	8815.8
838.2626	806.1641	9684.05	8745.9
838.4076	808.2282	9604.65	8668.3
838.5527	810.2916	9550.25	8612.15
838.6978	812.3544	9493.3	8556.5
838.8428	814.4164	9425.45	8485.6
838.9879	816.4778	9462.75	8521.7
839.133	818.5385	9514.5	8572.45
839.2781	820.5986	9644.8	8707.15
839.4232	822.658	9867.5	8923.95
839.5682	824.7166	10189.2	9246.75
839.7133	826.7747	10700.85	9757.95
839.8584	828.832	11228.3	10285.9
840.0035	830.8886	11607.75	10661.05
840.1486	832.9446	11780.9	10837.2
840.2937	834.9999	11636.6	10696.55
840.4388	837.0545	11347.25	10404.2
840.5839	839.1085	10998.15	10054.6
840.729	841.1618	10667.95	9722
840.8741	843.2143	10406.45	9461.7
841.0192	845.2662	10194.45	9253.1
841.1643	847.3175	10070.7	9126.6
841.3095	849.368	9988.65	9045.95
841.4546	851.4179	9897.4	8950.35
841.5997	853.467	9806.1	8860
841.7448	855.5155	9766.7	8825.7
841.8899	857.5633	9689.25	8744.4
842.0351	859.6105	9620	8675.65
842.1802	861.6569	9548.85	8603.05
842.3253	863.7027	9482.4	8536.6
842.4704	865.7478	9448.7	8502.85
842.6156	867.7922	9380.3	8437.6
842.7607	869.8359	9348.9	8408.35
842.9058	871.8789	9362.7	8415.75
843.0509	873.9212	9449.15	8471
843.1961	875.9629	9477.7	8531.9
843.3412	878.0039	9591.9	8647.75
843.4863	880.0441	9679.2	8735.35
843.6315	882.0837	9751.55	8809.25
843.7766	884.1226	9796.75	8851.05
843.9218	886.1609	9858.25	8914.6
844.0669	888.1984	9971.55	9027.15
844.212	890.2352	10081.9	9135.95
844.3572	892.2714	10137.3	9186.75
844.5023	894.3069	10075.65	9133.8
844.6475	896.3416	9902.35	8956.4
844.7926	898.3757	9787.35	8843.5
844.9377	900.4091	9678.6	8726.85
845.0829	902.4418	9670	8719.7
845.228	904.4739	9678.55	8725.15
845.3732	906.5052	9749.75	8798.45
845.5183	908.5358	9737.95	8783.85
845.6635	910.5658	9612.9	8658.7
845.8086	912.595	9435.55	8485.6
845.9538	914.6236	9172.75	8220.9
846.0989	916.6515	9073.2	8126.25
846.2441	918.6786	8989.75	8041.3
846.3892	920.7051	8995	8041.6
846.5344	922.7309	9036.75	8084.85
846.6795	924.756	9059.05	8112.75
846.8246	926.7804	9121.05	8175.1
846.9698	928.8041	9099.7	8151.95
847.1149	930.8272	9147.45	8201.45
847.2601	932.8495	9138.1	8185.6
847.4052	934.8711	9149.15	8197.05
847.5504	936.892	9108.7	8163.35
847.6955	938.9123	9101	8150.25
847.8407	940.9318	9145.55	8198.25
847.9858	942.9506	9126.45	8177.3
848.131	944.9688	9105.4	8160.55
848.2761	946.9862	8987.1	8034.85
848.4213	949.003	8854.85	7905.4
848.5664	951.019	8754.85	7803.8
848.7115	953.0344	8716.15	7771
848.8567	955.0491	8666.65	7721.65
849.0018	957.063	8718.75	7765.05
849.147	959.0763	8778.1	7829.15
849.2921	961.0888	8824.9	7873.85
849.4373	963.1007	8849.55	7905.5
849.5824	965.1119	8878.65	7939.25
849.7275	967.1223	8856	7922.7
849.8727	969.1321	8835.5	7903.8
850.0178	971.1412	8826.5	7888.95
850.1629	973.1495	8795.65	7853.65
850.3081	975.1572	8856.05	7854.65
850.4532	977.1641	8865.45	7916.55
850.5983	979.1704	8844.45	7891.7
850.7435	981.1759	8809.45	7855.05
850.8886	983.1808	8800.2	7849.85
851.0337	985.1849	8804.05	7844.95
851.1788	987.1884	8872.8	7925.4
851.324	989.1911	8921.2	7973.6
851.4691	991.1932	8993.85	8049.45
851.6142	993.1945	8981.1	8035
851.7593	995.1951	8991.7	8044.85
851.9045	997.1951	8941.1	7984.45
852.0496	999.1943	8923.65	7974.6
852.1947	1001.1928	8913.5	7961.9
852.3398	1003.1906	8975.7	8025
852.4849	1005.1877	9088.3	8143.1
852.63	1007.1841	9156.45	8214.9
852.7751	1009.1798	9176.35	8226.25
852.9202	1011.1748	9127.75	8178.15
853.0653	1013.1691	8983.8	8033.35
853.2104	1015.1627	8834.7	7887.15
853.3555	1017.1556	8635.45	7691.8
853.5006	1019.1477	8526.45	7580.4
853.6457	1021.1392	8421.85	7485.05
853.7908	1023.1299	8385.9	7450.7
853.9359	1025.12	8389.25	7461
854.081	1027.1093	8445.55	7526.15
854.2261	1029.0979	8535.1	7618.2
854.3712	1031.0859	8637.05	7713.45
854.5163	1033.0731	8670.5	7738.15
854.6613	1035.0596	8636.3	7697.9
854.8064	1037.0454	8543.2	7601.55
854.9515	1039.0304	8471.8	7525.4
855.0965	1041.0148	8357.7	7415.8
855.2416	1042.9985	8263.8	7317.65
855.3867	1044.9814	8222.5	7278.15
855.5317	1046.9636	8163.65	7218.85
855.6768	1048.9452	8147.1	7203.55
855.8219	1050.926	8211.05	7268.45
855.9669	1052.9061	8231.8	7287.25
856.112	1054.8855	8244.6	7295.05
856.257	1056.8642	8291.2	7345.3
856.4021	1058.8421	8349.65	7400.05
856.5471	1060.8194	8368.35	7423.6
856.6921	1062.7959	8399.9	7454.7
856.8372	1064.7717	8465.7	7522.95
856.9822	1066.7469	8541	7591.6
857.1272	1068.7213	8614.85	7670.2
857.2723	1070.695	8696.4	7751.25
857.4173	1072.6679	8729.85	7784.75
857.5623	1074.6402	8748.5	7805.8
857.7073	1076.6117	8736.25	7783.8
857.8523	1078.5826	8631.9	7684.05
857.9973	1080.5527	8491.3	7546.3
858.1423	1082.5221	8381.65	7434.15
858.2873	1084.4908	8346.25	7399.4
858.4323	1086.4587	8348.05	7403.9
858.5773	1088.426	8361.55	7414.6
858.7223	1090.3925	8381.4	7430.8
858.8673	1092.3584	8424.5	7480.8
859.0123	1094.3235	8457.1	7511.9
859.1573	1096.2879	8533.2	7584.3
859.3022	1098.2515	8649.8	7709.25
859.4472	1100.2145	8807.75	7866.25
859.5922	1102.1767	8971.2	8024.85
859.7371	1104.1382	9226.7	8284.85
859.8821	1106.099	9444.9	8499.25
860.027	1108.0591	9670.25	8727.35
860.172	1110.0185	9797.5	8851.9
860.3169	1111.9771	9857.55	8913.45
860.4619	1113.9351	9778.8	8836.3
860.6068	1115.8923	9672.95	8724.45
860.7517	1117.8488	9588.65	8641.45
860.8967	1119.8045	9433.05	8487.2
861.0416	1121.7596	9290.9	8345.35
861.1865	1123.7139	9171.4	8227.6
861.3314	1125.6675	9124.6	8183.25
861.4763	1127.6204	9139.7	8198.35
861.6212	1129.5726	9101.9	8156.2
861.7661	1131.524	9024.35	8081.55
861.911	1133.4748	8886.65	7942.5
862.0559	1135.4248	8694.4	7750.9
862.2008	1137.3741	8522.95	7581.4
862.3457	1139.3226	8409.9	7465.7
862.4905	1141.2705	8366.65	7425.3
862.6354	1143.2176	8292	7345.25
862.7803	1145.164	8263.55	7314.55
862.9251	1147.1097	8186.4	7243.8
863.07	1149.0546	8097.05	7149.9
863.2148	1150.9989	8006.45	7060.35
863.3597	1152.9424	7903.8	6960.55
863.5045	1154.8852	7841.75	6896.85
863.6493	1156.8272	7831.85	6886.95
863.7942	1158.7686	7850.4	6897.15
863.939	1160.7092	7847	6904.65
864.0838	1162.6491	7891.8	6943.25
864.2286	1164.5883	7975.65	7033
864.3734	1166.5267	8110.75	7166.6
864.5182	1168.4644	8270.3	7323.1
864.663	1170.4014	8444.8	7498.6
864.8078	1172.3377	8681.1	7740.5
864.9526	1174.2732	8966.05	8026.35
865.0974	1176.2081	9357.5	8412.6
865.2421	1178.1421	9844	8900.75
865.3869	1180.0755	10362.4	9421.15
865.5317	1182.0082	10713.9	9773.45
865.6764	1183.9401	10859.95	9922.25
865.8212	1185.8713	10752.25	9818.05
865.9659	1187.8017	10427.95	9497.9
866.1106	1189.7315	10034.5	9111.55
866.2554	1191.6605	9658.4	8738.75
866.4001	1193.5888	9383.6	8457.05
866.5448	1195.5163	9258.95	8325.05
866.6895	1197.4432	9160.15	8221.75
866.8342	1199.3693	9101.6	8161.2
866.9789	1201.2947	9063.45	8118.7
867.1236	1203.2193	9012.55	8072.3
867.2683	1205.1432	9021	8080.3
867.413	1207.0664	8996.4	8055.45
867.5576	1208.9889	8953.7	8011.4
867.7023	1210.9106	8938.95	8000.25
867.847	1212.8316	8947.2	8011.95
867.9916	1214.7519	8995.1	8047.2
868.1363	1216.6715	9016.45	8077.6
868.2809	1218.5903	9075.3	8138.7
868.4255	1220.5084	9169.2	8228.7
868.5701	1222.4257	9279.2	8338.6
868.7148	1224.3424	9320.25	8387
868.8594	1226.2583	9437.75	8497.35
869.004	1228.1735	9560.35	8624.35
869.1486	1230.0879	9729.25	8789.05
869.2932	1232.0016	9905.3	8967.5
869.4377	1233.9146	10043.7	9101.05
869.5823	1235.8269	10104.4	9168
869.7269	1237.7384	10048	9110.05
869.8715	1239.6492	9983.8	9047.2
870.016	1241.5592	9962.75	9023.7
870.1606	1243.4686	10027.65	9088.6
870.3051	1245.3772	10218.6	9277.55
870.4496	1247.285	10486.05	9546.55
870.5941	1249.1922	10678.9	9742.15
870.7387	1251.0986	10847.05	9909.15
870.8832	1253.0042	10962.3	10029.05
871.0277	1254.9092	11032.9	10099.35
871.1722	1256.8134	11159.55	10227.1
871.3167	1258.7169	11289.55	10352.35
871.4611	1260.6196	11433.35	10498.25
871.6056	1262.5216	11615.2	10679.15
871.7501	1264.4229	11815.15	10881.7
871.8945	1266.3234	11980.3	11041.55
872.039	1268.2232	12133.65	11196.95
872.1834	1270.1223	12212.6	11273.3
872.3278	1272.0207	12253.05	11316.2
872.4723	1273.9183	12207.15	11266.15
872.6167	1275.8151	12191.3	11255
872.7611	1277.7113	12183.3	11249.9
872.9055	1279.6067	12273.65	11340.15
873.0499	1281.5014	12525.15	11586.7
873.1943	1283.3953	12964.05	12021.9
873.3386	1285.2885	13509.45	12574.9
873.483	1287.181	14109.1	13172.85
873.6274	1289.0727	14611.8	13678.65
873.7717	1290.9637	14973.7	14037.9
873.9161	1292.854	15193.2	14259.05
874.0604	1294.7435	15139.25	14205
874.2047	1296.6323	15005.6	14069.85
874.349	1298.5204	14790.2	13853.85
874.4933	1300.4077	14526.9	13591.3
874.6376	1302.2943	14226.45	13292.7
874.7819	1304.1802	13885.15	12947.9
874.9262	1306.0653	13440.05	12502.4
875.0705	1307.9497	12944.75	12006.35
875.2147	1309.8333	12500.15	11565.8
875.359	1311.7162	12190.15	11255.6
875.5032	1313.5984	11974.6	11038.1
875.6475	1315.4798	11807.3	10872.5
875.7917	1317.3605	11693.7	10751.3
875.9359	1319.2405	11547.9	10607.2
876.0801	1321.1197	11317.25	10377.6
876.2243	1322.9982	10982.5	10042.35
876.3685	1324.876	10697.9	9764.15
876.5127	1326.753	10383.75	9447.25
876.6569	1328.6293	10181.5	9247.8
876.801	1330.5048	10007.1	9068.6
876.9452	1332.3796	9830.4	8893.2
877.0893	1334.2537	9732.2	8770.2
877.2335	1336.127	9625.45	8689.7
877.3776	1337.9996	9580.65	8646.45
877.5217	1339.8714	9567.7	8632.95
877.6658	1341.7426	9610	8628.5
877.8099	1343.6129	9635.15	8696.05
877.954	1345.4826	9588.15	8649.45
878.0981	1347.3515	9608.6	8671.95
878.2422	1349.2196	9611.75	8673.65
878.3862	1351.087	9615.7	8677.65
878.5303	1352.9537	9659.1	8723.15
878.6743	1354.8197	9749.6	8814.9
878.8184	1356.6849	9895.7	8956.95
878.9624	1358.5493	10062	9127.1
879.1064	1360.4131	10263.2	9326.85
879.2504	1362.276	10383.9	9450
879.3944	1364.1383	10423.25	9488.25
879.5384	1365.9998	10280.55	9341.5
879.6823	1367.8606	9995.25	9059.4
879.8263	1369.7206	9639.25	8702.7
879.9702	1371.5799	9323.15	8382.55
880.1142	1373.4384	9078.55	8141.9
880.2581	1375.2962	8861.15	7923.9
880.402	1377.1533	8553.2	7621.7
880.5459	1379.0096	8180.5	7247.85
880.6898	1380.8652	7891.35	6963.2
880.8337	1382.7201	7628.7	6696.9
880.9776	1384.5742	7413.8	6477.85
881.1215	1386.4275	7245.45	6309.8
881.2653	1388.2802	7096.1	6165.3
881.4092	1390.132	7003.4	6069.05
881.553	1391.9832	6943.45	6003.75
881.6968	1393.8336	6847.85	5911.6
881.8406	1395.6832	6836.1	5900.95
881.9844	1397.5322	6787.95	5852.75
882.1282	1399.3803	6753.05	5815.7
882.272	1401.2278	6705.5	5773.25
882.4158	1403.0745	6701.5	5769.65
882.5595	1404.9204	6666.8	5734.1
882.7033	1406.7656	6714.1	5778.35
882.847	1408.6101	6713.7	5780.7
882.9908	1410.4538	6736.1	5802.25
883.1345	1412.2968	6771.6	5836.4
883.2782	1414.139	6787.7	5854.75
883.4219	1415.9805	6883.8	5950.1
883.5656	1417.8213	6943.15	6004.3
883.7092	1419.6613	7031.7	6100.15
883.8529	1421.5006	7156.95	6225.15
883.9965	1423.3391	7340.25	6409.25
884.1402	1425.1769	7590.6	6656.8
884.2838	1427.0139	7969.25	7035.2
884.4274	1428.8502	8460.9	7528
884.571	1430.6858	8913.9	7978.5
884.7146	1432.5206	9269.7	8340.9
884.8582	1434.3547	9459.75	8529.65
885.0018	1436.188	9488.35	8556.35
885.1453	1438.0206	9420.65	8487.25
885.2889	1439.8524	9247	8313.55
885.4324	1441.6835	9139.9	8205.7
885.5759	1443.5139	9065	8129.95
885.7194	1445.3435	8993.35	8061.65
885.8629	1447.1724	8966	8039.95
886.0064	1449.0005	8946.7	8017.05
886.1499	1450.8279	8911.35	7981.15
886.2933	1452.6545	8892.6	7966.55
886.4368	1454.4804	8893.15	7963.8
886.5802	1456.3056	8929.4	7992.7
886.7237	1458.13	8848.4	7921.3
886.8671	1459.9536	8698.05	7768.7
887.0105	1461.7766	8457.5	7525.85
887.1539	1463.5987	8197.95	7266.35
887.2972	1465.4202	7913.65	6984.55
887.4406	1467.2409	7642.9	6712.1
887.584	1469.0608	7382.7	6454.4
887.7273	1470.88	7122.75	6193.45
887.8706	1472.6984	6901.75	5974.2
888.0139	1474.5161	6749.1	5817.35
888.1572	1476.3331	6621.45	5693.2
888.3005	1478.1493	6517.75	5588.3
888.4438	1479.9648	6457.05	5528.35
888.5871	1481.7795	6368.8	5438.35
888.7303	1483.5935	6317.85	5388.85
888.8736	1485.4067	6281.65	5353.15
889.0168	1487.2192	6252.05	5323.7
889.16	1489.031	6206.95	5277.8
889.3032	1490.842	6183.7	5256.85
889.4464	1492.6522	6149.9	5223
889.5896	1494.4618	6101.85	5171.55
889.7327	1496.2705	6080.7	5152.75
889.8759	1498.0785	6071.7	5144.8
890.019	1499.8858	6013.45	5084.4
890.1622	1501.6924	5962.65	5036.65
890.3053	1503.4981	5927.55	4999.85
890.4484	1505.3032	5893.6	4966.15
890.5914	1507.1075	5833.65	4907.1
890.7345	1508.911	5806.8	4879.6
890.8776	1510.7138	5767.4	4840.5
891.0206	1512.5159	5719.65	4792.75
891.1637	1514.3172	5695.4	4769.45
891.3067	1516.1178	5643.9	4717.5
891.4497	1517.9176	5649.5	4720.7
891.5927	1519.7166	5600.9	4674.6
891.7357	1521.515	5573.6	4643.7
891.8786	1523.3126	5541.15	4615.7
892.0216	1525.1094	5528.3	4601.2
892.1645	1526.9055	5511.95	4586.75
892.3074	1528.7008	5462.85	4537.3
892.4503	1530.4954	5438.05	4514.3
892.5932	1532.2893	5446.45	4522.65
892.7361	1534.0824	5402.45	4480.65
892.879	1535.8747	5415.2	4496.1
893.0218	1537.6663	5425.85	4503.85
893.1647	1539.4572	5417.7	4498.7
893.3075	1541.2473	5425.35	4501.85
893.4503	1543.0367	5449.15	4528.1
893.5931	1544.8253	5449.2	4526.2
893.7359	1546.6132	5472.85	4548
893.8787	1548.4003	5503.75	4575.15
894.0214	1550.1867	5548.1	4618.1
894.1642	1551.9723	5615.05	4691.7
894.3069	1553.7572	5706.45	4787.35
894.4496	1555.5414	5809.25	4891.25
894.5923	1557.3247	5957.05	5039.25
894.735	1559.1074	6135.05	5220.35
894.8777	1560.8893	6288.55	5372.95
895.0204	1562.6705	6437.45	5523.3
895.163	1564.4509	6583.35	5671.15
895.3056	1566.2305	6659	5747
895.4482	1568.0094	6688.15	5777.4
895.5908	1569.7876	6698.5	5783.4
895.7334	1571.565	6660.9	5745.55
895.876	1573.3417	6649.35	5731.45
896.0186	1575.1176	6648.05	5735.7
896.1611	1576.8928	6659.55	5751.75
896.3036	1578.6672	6661.5	5755.9
896.4461	1580.4409	6712.8	5809.15
896.5886	1582.2138	6749.8	5839.5
896.7311	1583.986	6820.5	5911
896.8736	1585.7575	6920.35	6007.75
897.0161	1587.5282	7011.5	6102.65
897.1585	1589.2981	7110.7	6205.3
897.3009	1591.0673	7225	6320.25
897.4433	1592.8358	7356.35	6451.65
897.5857	1594.6035	7470.35	6558.9
897.7281	1596.3704	7561.2	6647.9
897.8705	1598.1366	7677.25	6767.75
898.0128	1599.9021	7764.6	6859.75
898.1551	1601.6668	7875.5	6965.5
898.2975	1603.4308	7976.05	7063.5
898.4398	1605.194	8157.7	7244.85
898.5821	1606.9564	8329.5	7424.8
898.7243	1608.7182	8582.95	7684.4
898.8666	1610.4791	8869.15	7972.2
899.0088	1612.2394	9150.75	8256.55
899.1511	1613.9988	9486.95	8587.4
899.2933	1615.7576	9746.25	8843.35
899.4355	1617.5156	9977.65	9066.75
899.5776	1619.2728	10012.95	9102.85
899.7198	1621.0293	9893.55	8987.95
899.862	1622.785	9667.05	8757.95
900.0041	1624.54	9301.8	8397.45
900.1462	1626.2942	8919.85	8019.3
900.2883	1628.0477	8507.35	7601.95
900.4304	1629.8005	8127.85	7222.4
900.5725	1631.5525	7794.6	6894.4
900.7145	1633.3037	7522.1	6622.95
900.8566	1635.0542	7287.3	6388.9
900.9986	1636.804	7098	6195.95
901.1406	1638.553	7053.35	6061.75
901.2826	1640.3013	6921.5	6021.3
901.4245	1642.0488	6839.45	5937.8
901.5665	1643.7955	6851.95	5957.1
901.7085	1645.5416	6899.35	5999
901.8504	1647.2868	6975.35	6074.45
901.9923	1649.0313	7058.65	6157.25
902.1342	1650.7751	7204.95	6301.3
902.2761	1652.5181	7349.55	6449.05
902.4179	1654.2604	7518.1	6615.3
902.5598	1656.0019	7688.1	6786.15
902.7016	1657.7427	7917.2	7016.7
902.8434	1659.4828	8172.2	7271.25
902.9852	1661.222	8294.4	7391.05
903.127	1662.9606	8276.95	7373.85
903.2687	1664.6984	8077.1	7173.75
903.4105	1666.4354	7677.95	6773.6
903.5522	1668.1717	7191.7	6286.05
903.6939	1669.9072	6701.3	5794.65
903.8356	1671.642	6255.7	5348.85
903.9773	1673.3761	5884.65	4980.55
904.119	1675.1094	5590.4	4688.3
904.2606	1676.8419	5373.5	4471.95
904.4022	1678.5737	5182	4281.4
904.5439	1680.3048	5050.2	4147.25
904.6855	1682.0351	4918.9	4014.7
904.827	1683.7646	4830.4	3923.2
904.9686	1685.4934	4731.65	3829.65
905.1101	1687.2215	4658.65	3758.45
905.2517	1688.9488	4578.6	3678.3
905.3932	1690.6754	4532.9	3634.1
905.5347	1692.4012	4497.95	3598
905.6761	1694.1263	4451.15	3548.55
905.8176	1695.8506	4403.4	3500.75
905.9591	1697.5742	4365.15	3468.7
906.1005	1699.297	4324.6	3428.15
906.2419	1701.0191	4283.55	3389.5
906.3833	1702.7404	4258.55	3363.55
906.5246	1704.461	4212.45	3311.05
906.666	1706.1808	4178.85	3277.65
906.8073	1707.8999	4159.4	3261.7
906.9487	1709.6182	4130.1	3238.5
907.09	1711.3358	4121.3	3224.9
907.2313	1713.0527	4091.55	3199.45
907.3725	1714.7688	4058.25	3156.85
907.5138	1716.4841	4044.05	3145.65
907.655	1718.1987	4047.65	3146.3
907.7962	1719.9126	4018.95	3124.4
907.9374	1721.6257	4000.85	3106
908.0786	1723.338	3988.45	3094.4
908.2198	1725.0496	3975.85	3079.45
908.3609	1726.7605	3959.5	3062.45
908.502	1728.4706	3959.8	3065.25
908.6431	1730.18	3927.55	3033.3
908.7842	1731.8886	3928.3	3035.9
908.9253	1733.5964	3914.9	3000.35
909.0664	1735.3036	3892.2	2994.25
909.2074	1737.0099	3881.55	2985.7
909.3484	1738.7156	3852.55	2959.2
909.4894	1740.4204	3827.8	2929.7
909.6304	1742.1246	3814.25	2918
909.7714	1743.8279	3786.25	2890.5
909.9123	1745.5306	3780.8	2888.55
910.0532	1747.2325	3760.45	2866.85
910.1941	1748.9336	3753.1	2855.7
910.335	1750.634	3735.55	2836.45
910.4759	1752.3336	3711.7	2818.55
910.6168	1754.0325	3716.5	2826.25
910.7576	1755.7307	3698.55	2806.9
910.8984	1757.4281	3698.05	2804.3
911.0392	1759.1247	3702.8	2797.95
911.18	1760.8206	3680.3	2777.3
911.3208	1762.5158	3681.1	2780.6
911.4615	1764.2102	3648.9	2753.8
911.6022	1765.9039	3637.55	2743
911.7429	1767.5968	3644.25	2752.45
911.8836	1769.289	3636.4	2743.8
912.0243	1770.9804	3622.25	2728.05
912.1649	1772.6711	3612.95	2714.3
912.3056	1774.361	3601.6	2705.95
912.4462	1776.0502	3609.75	2712.9
912.5868	1777.7386	3585.15	2684.7
912.7274	1779.4263	3577.95	2685.55
912.8679	1781.1132	3585.3	2692.55
913.0084	1782.7994	3577.5	2685.2
913.149	1784.4849	3566.45	2677.15
913.2895	1786.1696	3553.6	2643.85
913.4299	1787.8535	3546.85	2657.7
913.5704	1789.5367	3539	2648.75
913.7108	1791.2192	3529.15	2640
913.8513	1792.9009	3542.55	2624.1
913.9917	1794.5818	3517.8	2623.3
914.132	1796.2621	3501.1	2606.15
914.2724	1797.9415	3492.4	2597.25
914.4128	1799.6202	3483.65	2589.45
914.5531	1801.2982	3478.5	2582.25
914.6934	1802.9755	3468.55	2572.6
914.8337	1804.6519	3474.7	2581.9
914.9739	1806.3277	3456.6	2565.1
915.1142	1808.0027	3445.1	2555.65
915.2544	1809.6769	3445.65	2555.25
915.3946	1811.3504	3442.15	2551.05
915.5348	1813.0231	3428.75	2538.9
915.675	1814.6951	3422.7	2531.5
915.8151	1816.3664	3415.65	2520.95
915.9553	1818.0369	3424.45	2533.1
916.0954	1819.7067	3409.15	2518.85
916.2355	1821.3757	3408.2	2513.9
916.3755	1823.044	3393.65	2502.2
916.5156	1824.7115	3406.55	2512.9
916.6556	1826.3783	3379.35	2486.95
916.7956	1828.0443	3386.1	2494.7
916.9356	1829.7096	3368.25	2472.35
917.0756	1831.3741	3374.5	2478.75
917.2155	1833.0379	3371.25	2479
917.3555	1834.701	3349.85	2456.4
917.4954	1836.3633	3344.5	2455.05
917.6353	1838.0248	3340.25	2448.8
917.7751	1839.6856	3338.4	2447
917.915	1841.3457	3339.85	2447.3
918.0548	1843.005	3326.55	2433.4
918.1946	1844.6636	3338	2445.5
918.3344	1846.3214	3331.6	2439.7
918.4742	1847.9785	3323	2431.05
918.6139	1849.6349	3306.2	2409.65
918.7537	1851.2904	3319.65	2416.3
918.8934	1852.9453	3300.1	2404.7
919.0331	1854.5994	3293.2	2397.2
919.1727	1856.2528	3292.05	2395.95
919.3124	1857.9054	3284.2	2390.55
919.452	1859.5572	3287.45	2396.95
919.5916	1861.2083	3258.95	2367.3
919.7312	1862.8587	3265.55	2372.3
919.8708	1864.5084	3277.2	2382.5
920.0103	1866.1572	3261.95	2366.9
920.1498	1867.8054	3261.65	2365.1
920.2893	1869.4528	3249.95	2355.25
920.4288	1871.0994	3237.85	2343.75
920.5683	1872.7453	3244.15	2350.65
920.7077	1874.3905	3234.4	2333.8
920.8471	1876.0349	3228.75	2334.4
920.9865	1877.6786	3222.3	2327.35
921.1259	1879.3215	3209.7	2317.95
921.2653	1880.9637	3207.1	2316.5
921.4046	1882.6051	3204.95	2313.7
921.5439	1884.2458	3207.2	2312.8
921.6832	1885.8858	3188.4	2297
921.8225	1887.525	3191.85	2296.55
921.9617	1889.1634	3192.35	2297.35
922.101	1890.8011	3163.95	2270.5
922.2402	1892.4381	3156.15	2261.95
922.3794	1894.0743	3161.45	2268.15
922.5185	1895.7098	3149.45	2258.5
922.6577	1897.3446	3139.35	2243.65
922.7968	1898.9786	3130.85	2235.3
922.9359	1900.6118	3128.1	2238.55
923.075	1902.2443	3115.85	2224.5
923.214	1903.8761	3112.7	2223.1
923.3531	1905.5071	3105.3	2209.9
923.4921	1907.1374	3104.65	2211.3
923.6311	1908.7669	3082.45	2191.4
923.77	1910.3957	3079.85	2189.85
923.909	1912.0237	3082.2	2188.25
924.0479	1913.651	3083.15	2190.5
924.1868	1915.2776	3055.8	2165.7
924.3257	1916.9034	3059.7	2170.05
924.4646	1918.5285	3062	2170.45
924.6034	1920.1528	3040.25	2147.2
924.7422	1921.7764	3039.25	2147.45
924.881	1923.3992	3027.75	2135
925.0198	1925.0213	3014.5	2123.95
925.1586	1926.6427	2996	2105.95
925.2973	1928.2633	3072.1	2097.25
925.436	1929.8832	3013.5	2119.9
925.5747	1931.5023	2982.75	2091.25
925.7134	1933.1207	2990.05	2101.5
925.852	1934.7383	2982.25	2090.8
925.9906	1936.3552	2976	2086.9
926.1292	1937.9714	2962.85	2070.95
926.2678	1939.5868	2949.5	2057
926.4064	1941.2015	2950	2057.65
926.5449	1942.8154	2941.45	2048.75
926.6834	1944.4286	2924.9	2031.95
926.8219	1946.041	2929.2	2015.9
926.9604	1947.6528	2922.45	2024.65
927.0988	1949.2637	2905	2013.25
927.2372	1950.8739	2908.05	2016.65
927.3756	1952.4834	2900.9	2008.8
927.514	1954.0921	2894	2002.9
927.6523	1955.7001	2881.6	1989.7
927.7907	1957.3074	2869.05	1979.8
927.929	1958.9139	2866.55	1977.45
928.0673	1960.5197	2868.65	1978.75
928.2055	1962.1247	2856.8	1967.65
928.3438	1963.729	2847.8	1961.1
928.482	1965.3325	2844.65	1950.1
928.6202	1966.9353	2828.75	1941.6
928.7584	1968.5374	2817.2	1928.4
928.8965	1970.1387	2815.3	1926.4
929.0346	1971.7393	2815.65	1925.35
929.1727	1973.3392	2795.6	1907.7
929.3108	1974.9383	2794.05	1905.95
929.4489	1976.5366	2789.3	1903.15
929.5869	1978.1342	2776.95	1891.45
929.7249	1979.7311	2779.85	1892.35
929.8629	1981.3273	2773.15	1885.9
930.0009	1982.9227	2774.1	1888
930.1388	1984.5173	2749.2	1864.55
930.2767	1986.1112	2746.1	1862.35
930.4146	1987.7044	2742.05	1857.2
930.5525	1989.2968	2740.85	1852.2
930.6904	1990.8885	2733.15	1844.4
930.8282	1992.4795	2729	1843.95
930.966	1994.0697	2723.55	1840.5
931.1038	1995.6592	2726.8	1843.3
931.2415	1997.2479	2700.9	1815.6
931.3793	1998.8359	2712.15	1827.65
931.517	2000.4232	2707.55	1825.35
931.6547	2002.0097	2703.5	1823.7
931.7923	2003.5955	2682.9	1801.05
931.93	2005.1805	2681.45	1798.1
932.0676	2006.7648	2671.6	1787.3
932.2052	2008.3484	2670.15	1787.15
932.3427	2009.9312	2675.2	1791.05
932.4803	2011.5133	2665.25	1784.25
932.6178	2013.0946	2659.05	1780.15
932.7553	2014.6752	2647	1765.25
932.8928	2016.2551	2656.1	1771
933.0302	2017.8342	2647.5	1764.45
933.1676	2019.4126	2644.25	1762.9
933.305	2020.9902	2636.75	1758.4
933.4424	2022.5672	2630.2	1749.6
933.5798	2024.1433	2621.6	1738.2
933.7171	2025.7188	2616	1739.35
933.8544	2027.2935	2616.8	1734.7
933.9917	2028.8674	2615.3	1734.9
934.129	2030.4406	2602.85	1724.7
934.2662	2032.0131	2589.7	1709.1
934.4034	2033.5849	2587.15	1701.2
934.5406	2035.1559	2588.4	1709.6
934.6778	2036.7261	2574.05	1693.15
934.8149	2038.2957	2583.55	1699.8
934.952	2039.8645	2584.35	1699.05
935.0891	2041.4325	2591.55	1703.4
935.2262	2042.9998	2568.05	1687.75
935.3632	2044.5664	2562.45	1678.55
935.5002	2046.1323	2557.85	1678.45
935.6372	2047.6974	2561	1680
935.7742	2049.2617	2540.45	1660.7
935.9111	2050.8254	2552.65	1665.75
936.048	2052.3883	2543.9	1659.7
936.1849	2053.9504	2552.55	1667.65
936.3218	2055.5118	2540.4	1653.25
936.4586	2057.0725	2521.55	1633.65
936.5955	2058.6325	2518.55	1638.05
936.7323	2060.1917	2520.2	1642.1
936.869	2061.7502	2515.15	1630.95
937.0058	2063.3079	2511.05	1633.2
937.1425	2064.8649	2496.6	1612.4
937.2792	2066.4212	2488.35	1605.6
937.4159	2067.9767	2496.8	1615.3
937.5525	2069.5315	2482.55	1598.3
937.6891	2071.0856	2476.4	1595.2
937.8257	2072.6389	2484.9	1601.75
937.9623	2074.1915	2467.05	1587.55
938.0989	2075.7433	2462.6	1580.35
938.2354	2077.2945	2459.35	1576.3
938.3719	2078.8448	2456.65	1573.05
938.5084	2080.3945	2451.45	1566.6
938.6448	2081.9434	2456	1572.6
938.7812	2083.4916	2453.1	1566.65
938.9176	2085.039	2453.5	1563.4
939.054	2086.5857	2437.65	1546.35
939.1903	2088.1317	2439.95	1549.05
939.3267	2089.677	2437.45	1545.3
939.463	2091.2215	2431.8	1542.45
939.5992	2092.7652	2419.1	1527.35
939.7355	2094.3083	2419.2	1530.1
939.8717	2095.8506	2421.2	1533.05
940.0079	2097.3921	2422.1	1534.8
940.1441	2098.933	2412.45	1524.95
940.2802	2100.4731	2408.05	1522.7
940.4163	2102.0124	2417.9	1512.65
940.5524	2103.5511	2413.85	1527
940.6885	2105.089	2396.9	1509.55
940.8245	2106.6261	2402.85	1516.1
940.9606	2108.1626	2397	1510.55
941.0965	2109.6983	2415.25	1502.55
941.2325	2111.2332	2393.65	1506.05
941.3684	2112.7675	2385.95	1499.3
941.5044	2114.301	2367.75	1480.65
941.6403	2115.8337	2371.15	1482.9
941.7761	2117.3657	2364.95	1479.45
941.912	2118.897	2371.7	1483.4
942.0478	2120.4276	2360.4	1466.75
942.1835	2121.9575	2356.8	1467.3
942.3193	2123.4866	2353.65	1463.5
942.455	2125.0149	2348.95	1462.05
942.5907	2126.5426	2331.15	1447.15
942.7264	2128.0695	2331.35	1445.5
942.8621	2129.5956	2325.35	1445.5
942.9977	2131.1211	2339.55	1449.85
943.1333	2132.6458	2330.25	1444.5
943.2689	2134.1698	2331.45	1443.25
943.4044	2135.693	2316.4	1425.2
943.54	2137.2155	2325.85	1435.65
943.6755	2138.7373	2310.9	1422.8
943.8109	2140.2584	2298.55	1414.95
943.9464	2141.7787	2308.4	1420.7
944.0818	2143.2983	2288.25	1410.35
944.2172	2144.8171	2286.75	1408.15
944.3526	2146.3353	2280.05	1394.7
944.4879	2147.8527	2274.8	1391.9
944.6232	2149.3693	2289.25	1403.35
944.7585	2150.8853	2281.35	1393.45
944.8938	2152.4005	2271	1382.5
945.029	2153.9149	2278.55	1390.4
945.1642	2155.4287	2273.25	1383.5
945.2994	2156.9417	2262.2	1374.6
945.4346	2158.454	2251.45	1364.55
945.5697	2159.9655	2250.55	1367.4
945.7048	2161.4764	2247.35	1363.15
945.8399	2162.9865	2240.9	1354.85
945.9749	2164.4958	2245.6	1360.95
946.1099	2166.0045	2239.05	1352.3
946.2449	2167.5124	2239.65	1353.4
946.3799	2169.0195	2229.2	1338.95
946.5148	2170.526	2224.5	1335.9
946.6498	2172.0317	2228.4	1340.1
946.7846	2173.5367	2229.15	1342.4
946.9195	2175.0409	2217.45	1332.5
947.0543	2176.5445	2224.75	1337.95
947.1891	2178.0473	2220.3	1330.7
947.3239	2179.5494	2212.05	1320.4
947.4587	2181.0507	2213.45	1326.6
947.5934	2182.5513	2204.45	1317.45
947.7281	2184.0512	2202.65	1315.25
947.8628	2185.5504	2200.95	1315.05
947.9974	2187.0488	2186.1	1303.1
948.132	2188.5465	2179.1	1295.65
948.2666	2190.0435	2188.6	1306.05
948.4012	2191.5397	2183.6	1296.9
948.5357	2193.0353	2182.7	1294.55
948.6702	2194.5301	2186.2	1294.35
948.8047	2196.0241	2171.45	1280.4
948.9392	2197.5175	2169.95	1276.45
949.0736	2199.0101	2178.05	1282.95
949.208	2200.502	2146.5	1258.3
949.3424	2201.9931	2163.7	1278.75
949.4767	2203.4835	2155	1271.7
949.611	2204.9733	2157.4	1259.25
949.7453	2206.4622	2141.55	1257.2
949.8796	2207.9505	2130.95	1244.15
950.0138	2209.438	2124.9	1243.3
950.148	2210.9248	2116.2	1230
950.2822	2212.4109	2112.15	1226.15
950.4164	2213.8962	2125.35	1235.25
950.5505	2215.3809	2114.65	1221.15
950.6846	2216.8648	2122.35	1230.4
950.8186	2218.3479	2124.2	1226.2
950.9527	2219.8304	2110.6	1213.85
951.0867	2221.3121	2102.85	1206.95
951.2207	2222.7931	2098.3	1207.85
951.3546	2224.2733	2081.45	1192.5
951.4886	2225.7529	2081.2	1193.8
951.6225	2227.2317	2076.75	1185.75
951.7563	2228.7098	2078.1	1193.45
951.8902	2230.1872	2070.2	1186.8
952.024	2231.6638	2081.15	1196.85
952.1578	2233.1397	2075.45	1187.2
952.2916	2234.6149	2070.85	1186.5
952.4253	2236.0894	2060.4	1172.35
952.559	2237.5632	2072.15	1174.75
952.6927	2239.0362	2058.75	1172.15
952.8263	2240.5085	2052.25	1165.65
952.9599	2241.9801	2045.7	1157.45
953.0935	2243.4509	2039.75	1152.05
953.2271	2244.921	2036.65	1147.25
953.3606	2246.3904	2042.6	1148.7
953.4941	2247.8591	2023.3	1135.1
953.6276	2249.3271	2037.3	1147.7
953.7611	2250.7943	2013.7	1124.7
953.8945	2252.2608	2024.5	1131.1
954.0279	2253.7266	2021.15	1132.55
954.1612	2255.1917	2017.1	1127.9
954.2946	2256.656	2002.25	1115.75
954.4279	2258.1197	2004.65	1119.6
954.5612	2259.5826	2005.15	1116.55
954.6944	2261.0447	1998.55	1109.95
954.8276	2262.5062	1990.85	1099.55
954.9608	2263.9669	1987.25	1096.15
955.094	2265.4269	1986.85	1097.35
955.2271	2266.8862	1979.95	1091.9
955.3602	2268.3448	1985.2	1099.1
955.4933	2269.8026	1983.1	1097.35
955.6264	2271.2598	1975.55	1089.6
955.7594	2272.7162	1972.55	1084.55
955.8924	2274.1719	1967	1080.45
956.0253	2275.6268	1970.35	1081.6
956.1583	2277.0811	1958.65	1067.3
956.2912	2278.5346	1956.3	1068.75
956.4241	2279.9874	1958.6	1074.1
956.5569	2281.4395	1962.95	1078.65
956.6897	2282.8908	1965.4	1072.9
956.8225	2284.3414	1955.8	1065.85
956.9553	2285.7914	1957.8	1070.05
957.088	2287.2406	1960.65	1069.35
957.2207	2288.689	1959.5	1065.8
957.3534	2290.1368	1951.25	1056.85
957.486	2291.5838	1949.1	1051.2
957.6186	2293.0302	1950.8	1056.8
957.7512	2294.4758	1948	1055.8
957.8838	2295.9206	1943.9	1052
958.0163	2297.3648	1932.65	1045.3
958.1488	2298.8082	1940.6	1052.65
958.2813	2300.251	1930.55	1042.55
958.4137	2301.693	1930.4	1036.85
958.5461	2303.1343	1938.5	1046.1
958.6785	2304.5748	1919.65	1031.7
958.8108	2306.0147	1911.2	1023.9
958.9432	2307.4538	1910.9	1022.8
959.0754	2308.8922	1904.5	1021.15
959.2077	2310.3299	1906.4	1021.8
959.3399	2311.7669	1896.1	1010.45
959.4721	2313.2031	1911.85	1023.2
959.6043	2314.6387	1898.35	1007.9
959.7365	2316.0735	1894.75	1007.2
959.8686	2317.5076	1893.1	1003.1
960.0006	2318.941	1891.7	1002.05
960.1327	2320.3737	1886.85	994.5
960.2647	2321.8056	1891.45	997.7
960.3967	2323.2369	1888.2	994.35
960.5287	2324.6674	1877.85	987.3
960.6606	2326.0972	1877.3	987.85
960.7925	2327.5263	1871.45	982.75
960.9244	2328.9547	1871.55	981.75
961.0562	2330.3823	1871.95	979.7
961.1881	2331.8092	1882	988.1
961.3198	2333.2355	1866.1	975.35
961.4516	2334.661	1861.5	970.2
961.5833	2336.0858	1862	969.05
961.715	2337.5098	1854.4	964.55
961.8467	2338.9332	1844	952.6
961.9783	2340.3558	1848.15	957.7
962.1099	2341.7778	1848.95	961.05
962.2415	2343.199	1845.9	957.3
962.373	2344.6195	1838.9	951.55
962.5045	2346.0393	1849.5	963.05
962.636	2347.4583	1846.15	954.35
962.7675	2348.8767	1845.45	954.9
962.8989	2350.2943	1845.75	954.85
963.0303	2351.7113	1841.1	947.7
963.1617	2353.1275	1843.55	949.95
963.293	2354.543	1838.05	935.4
963.4243	2355.9578	1827.55	935.45
963.5556	2357.3718	1822.75	934.25
963.6868	2358.7852	1829.7	940.7
963.818	2360.1978	1813.75	925.5
963.9492	2361.6098	1815.35	927.55
964.0803	2363.021	1820.05	926.35
964.2114	2364.4315	1819.65	929.25
964.3425	2365.8413	1808.9	916.6
964.4736	2367.2504	1801.6	912.9
964.6046	2368.6587	1794.35	904.25
964.7356	2370.0664	1798.05	910.2
964.8666	2371.4733	1790.15	900.4
964.9975	2372.8795	1795.3	908.7
965.1284	2374.285	1791.3	900.65
965.2593	2375.6899	1782.5	894.25
965.3901	2377.0939	1789.5	901.15
965.5209	2378.4973	1782.55	894.05
965.6517	2379.9	1785.55	897.2
965.7825	2381.3019	1776.2	888.95
965.9132	2382.7032	1775.25	886.25
966.0439	2384.1037	1773.95	887.5
966.1745	2385.5035	1771.15	883.45
966.3051	2386.9027	1765.2	881.05
966.4357	2388.3011	1767.45	878
966.5663	2389.6987	1765.5	880.95
966.6968	2391.0957	1755.95	869.5
966.8273	2392.492	1757.1	871.5
966.9578	2393.8876	1752.1	863.4
967.0882	2395.2824	1748.05	861.9
967.2186	2396.6765	1748.65	860.45
967.349	2398.07	1744.85	855.4
967.4793	2399.4627	1742.25	851.35
967.6097	2400.8547	1731.75	841.55
967.7399	2402.246	1739.85	844.7
967.8702	2403.6366	1726.6	838.85
968.0004	2405.0265	1720.35	833.15
968.1306	2406.4156	1728.95	837.6
968.2607	2407.8041	1728.35	837.2
968.3909	2409.1918	1726.1	835.4
968.521	2410.5789	1717.75	830.85
968.651	2411.9652	1716.55	824.5
968.781	2413.3508	1719.45	829.45
968.911	2414.7358	1713.6	822.35
969.041	2416.12	1712.65	824
969.1709	2417.5035	1706.1	818.2
969.3008	2418.8863	1703.35	811.75
969.4307	2420.2684	1708.45	817.05
969.5606	2421.6497	1705.35	817.45
969.6904	2423.0304	1700.95	810.65
969.8201	2424.4104	1704.25	815.15
969.9499	2425.7896	1699.85	805.4
970.0796	2427.1682	1693.6	806.8
970.2093	2428.546	1694.75	804.3
970.3389	2429.9232	1689.35	796.25
970.4685	2431.2996	1689.95	800.95
970.5981	2432.6753	1683.8	794.4
970.7277	2434.0503	1688.35	799
970.8572	2435.4246	1674.6	785.35
970.9867	2436.7982	1679.55	787.95
971.1161	2438.1711	1673.45	783.1
971.2456	2439.5433	1674.5	782.85
971.375	2440.9148	1668.7	773.1
971.5043	2442.2856	1669.6	779.9
971.6336	2443.6557	1661.65	772.8
971.7629	2445.025	1655.3	765.7
971.8922	2446.3937	1660.05	771.6
972.0214	2447.7617	1667.1	778.05
972.1506	2449.1289	1653.65	762.7
972.2798	2450.4955	1655.15	762.6
972.4089	2451.8613	1648.25	760.8
972.538	2453.2265	1639.45	752.6
972.6671	2454.5909	1645.4	755.3
972.7961	2455.9546	1641.25	752.95
972.9251	2457.3177	1639.15	751.85
973.0541	2458.68	1646.45	756.75
973.1831	2460.0416	1637.05	748.05
973.312	2461.4025	1633.05	744.4
973.4408	2462.7627	1655.9	756.8
973.5697	2464.1222	1630.95	746.3
973.6985	2465.4811	1629.75	743.5
973.8273	2466.8392	1630.4	742.55
973.956	2468.1966	1631.15	742.95
974.0847	2469.5533	1631.35	742.2
974.2134	2470.9093	1626.85	737.2
974.3421	2472.2645	1625.7	737.3
974.4707	2473.6191	1623	734.4
974.5993	2474.973	1612.05	724.75
974.7278	2476.3262	1616.25	726.75
974.8563	2477.6787	1617.45	729.3
974.9848	2479.0305	1616.6	727.55
975.1132	2480.3816	1616.9	727.15
975.2417	2481.7319	1611	723.15
975.37	2483.0816	1607.65	717.25
975.4984	2484.4306	1613.85	725.6
975.6267	2485.7789	1601.1	713.1
975.755	2487.1264	1608.6	719.85
975.8833	2488.4733	1601.15	714.35
976.0115	2489.8195	1598.4	702.9
976.1397	2491.165	1593.7	703.05
976.2678	2492.5097	1594.9	706.8
976.3959	2493.8538	1587.65	699.9
976.524	2495.1972	1583.75	695.05
976.6521	2496.5398	1584.7	695
976.7801	2497.8818	1587.05	695.35
976.9081	2499.2231	1589.5	699.25
977.036	2500.5637	1581.7	693.8
977.164	2501.9035	1586.6	695.3
977.2918	2503.2427	1579.4	688.05
977.4197	2504.5812	1575.05	685.7
977.5475	2505.919	1581.7	691.3
977.6753	2507.256	1575.15	685.6
977.8031	2508.5924	1569.55	680.45
977.9308	2509.9281	1574.6	679.45
978.0585	2511.2631	1561.3	673.85
978.1861	2512.5974	1570.7	682.85
978.3137	2513.9309	1556.85	667.4
978.4413	2515.2638	1594.35	678.55
978.5689	2516.596	1559.2	672.2
978.6964	2517.9275	1558.3	670.25
978.8239	2519.2583	1558.25	671.45
978.9513	2520.5884	1551.95	664.95
979.0788	2521.9178	1553.85	667.75
979.2062	2523.2465	1551.2	665.4
979.3335	2524.5745	1536.2	648.4
979.4608	2525.9018	1535.5	646.35
979.5881	2527.2284	1539.65	650.35
979.7154	2528.5543	1530.15	641.75
979.8426	2529.8796	1537.3	650.6
979.9698	2531.2041	1530.95	642.55
980.0969	2532.5279	1541.9	654.95
980.224	2533.851	1543.05	652.55
980.3511	2535.1735	1530.95	642.4
980.4781	2536.4952	1535.5	646.75
980.6052	2537.8163	1533.45	642.3
980.7321	2539.1366	1531.8	642.75
980.8591	2540.4562	1529.75	638.1
980.986	2541.7752	1542	651.5
981.1129	2543.0935	1531.55	641.25
981.2397	2544.411	1526.7	635.1
981.3665	2545.7279	1525.65	638.1
981.4933	2547.0441	1530.25	642.85
981.62	2548.3596	1526.2	633.5
981.7467	2549.6744	1528.4	643.65
981.8734	2550.9885	1528.15	633.15
982.0001	2552.3019	1519.45	631.2
982.1267	2553.6146	1513.4	626.05
982.2532	2554.9266	1517.85	629.35
982.3798	2556.2379	1525.7	635.05
982.5063	2557.5485	1510.55	623.45
982.6327	2558.8585	1521.15	623.95
982.7592	2560.1677	1522.25	628.25
982.8856	2561.4762	1513.3	624
983.0119	2562.7841	1512.75	620.3
983.1383	2564.0913	1504	619.05
983.2646	2565.3977	1508.85	620.15
983.3908	2566.7035	1500.75	613.05
983.517	2568.0086	1512.3	623.65
983.6432	2569.313	1506.95	615.95
983.7694	2570.6167	1512.05	619.6
983.8955	2571.9197	1493.9	607.5
984.0216	2573.222	1501.1	612.1
984.1476	2574.5236	1499.7	609.45
984.2737	2575.8246	1502.9	609.95
984.3996	2577.1248	1500.85	608.5
984.5256	2578.4244	1497.7	611.55
984.6515	2579.7232	1498.85	613.7
984.7774	2581.0214	1528.25	612.25
984.9032	2582.3189	1496.95	609.05
985.029	2583.6157	1506.35	615.95
985.1548	2584.9118	1501.1	611.7
985.2806	2586.2072	1496.3	610.15
985.4063	2587.5019	1501.2	613.8
985.5319	2588.7959	1492.15	604
985.6576	2590.0893	1497.75	608.3
985.7832	2591.3819	1492.9	604.4
985.9087	2592.6739	1496	607.2
986.0343	2593.9652	1488.25	598.15
986.1597	2595.2557	1494.7	604.65
986.2852	2596.5456	1493.15	604.15
986.4106	2597.8348	1491.9	604.05
986.536	2599.1234	1497.85	613.15
986.6614	2600.4112	1504.4	617.25
986.7867	2601.6983	1503.6	613.8
986.912	2602.9848	1491.65	603.7
987.0372	2604.2705	1499.85	606.9
987.1624	2605.5556	1492.8	607.3
987.2876	2606.84	1481.7	595.15
987.4128	2608.1237	1491.7	601.65
987.5379	2609.4067	1486.65	601.85
987.6629	2610.689	1485.6	590.35
987.788	2611.9707	1490.2	600.6
987.913	2613.2516	1482.55	592.9
988.0379	2614.5319	1471.8	584.5
988.1629	2615.8115	1473.05	587.2
988.2878	2617.0903	1465.25	577.8
988.4126	2618.3685	1472.65	584.9
988.5375	2619.6461	1461.75	576
988.6622	2620.9229	1460.55	572
988.787	2622.199	1463.9	577.25
988.9117	2623.4745	1459.6	572.7
989.0364	2624.7493	1459.75	574.2
989.161	2626.0234	1455.8	570.45
989.2857	2627.2968	1456.3	570.85
989.4102	2628.5695	1452.5	565.15
989.5348	2629.8415	1454.6	569.7
989.6593	2631.1128	1456.85	569.25
989.7837	2632.3835	1457.5	572
989.9082	2633.6535	1455.4	570.05
990.0326	2634.9228	1451	566.95
990.1569	2636.1914	1450.2	565
990.2812	2637.4593	1449.45	561.9
990.4055	2638.7265	1450.55	563.3
990.5298	2639.9931	1445.5	559.6
990.654	2641.259	1435.75	549.55
990.7782	2642.5242	1436.45	550.2
990.9023	2643.7887	1435.55	549.1
991.0264	2645.0525	1440.45	555.4
991.1505	2646.3156	1429.75	541.6
991.2745	2647.5781	1432.25	549.1
991.3985	2648.8398	1424.4	539.95
991.5225	2650.1009	1461.75	539.95
991.6464	2651.3613	1433.4	546.7
991.7703	2652.6211	1428.05	541.8
991.8942	2653.8801	1430.7	546.15
992.018	2655.1385	1426.7	538.4
992.1418	2656.3961	1422.8	536.1
992.2655	2657.6531	1426.6	539.95
992.3892	2658.9094	1429.05	544.1
992.5129	2660.1651	1423.2	537.05
992.6366	2661.42	1426.75	542.6
992.7602	2662.6743	1429.75	544.15
992.8837	2663.9279	1428.7	544
993.0073	2665.1808	1427.3	540.3
993.1307	2666.433	1432.2	546.2
993.2542	2667.6846	1433	547.65
993.3776	2668.9354	1445.55	557.75
993.501	2670.1856	1431.65	545
993.6244	2671.4351	1439.35	556.5
993.7477	2672.6839	1443	555.7
993.8709	2673.9321	1434.8	550.15
993.9942	2675.1795	1444	557.7
994.1174	2676.4263	1444.6	559.1
994.2405	2677.6724	1444.7	560.2
994.3637	2678.9179	1445.2	560.25
994.4868	2680.1626	1434.75	550.3
994.6098	2681.4067	1445.5	561.2
994.7328	2682.6501	1438.3	553.25
994.8558	2683.8928	1436.3	550.45
994.9788	2685.1348	1429.2	545.7
995.1017	2686.3761	1421.3	535.85
995.2245	2687.6168	1421.6	536.75
995.3474	2688.8568	1417.85	532.15
995.4702	2690.0961	1417.6	532.65
995.5929	2691.3348	1418.6	534.3
995.7156	2692.5727	1413.15	527.65
995.8383	2693.81	1412.25	527.5
995.961	2695.0466	1407.15	523.75
996.0836	2696.2826	1412.8	526.45
996.2062	2697.5178	1433.3	529.05
996.3287	2698.7524	1412.25	525.6
996.4512	2699.9863	1418.75	530.5
996.5737	2701.2195	1410.5	525.95
996.6961	2702.452	1424.8	537.15
996.8185	2703.6839	1426.25	540.1
996.9408	2704.9151	1424.1	539.95
997.0631	2706.1456	1431.55	546.2
997.1854	2707.3755	1432	545
997.3077	2708.6046	1440.55	553.8
997.4299	2709.8331	1445.25	559.9
997.552	2711.0609	1451.8	567.2
997.6742	2712.2881	1454.5	569.45
997.7963	2713.5145	1462.45	576.15
997.9183	2714.7403	1464.55	581.35
998.0403	2715.9654	1474.2	588.25
998.1623	2717.1899	1495.9	598.9
998.2842	2718.4136	1491.7	606.1
998.4062	2719.6367	1508.95	625.35
998.528	2720.8591	1519.3	628.35
998.6498	2722.0809	1518.45	633.85
998.7716	2723.3019	1536.9	649.1
998.8934	2724.5223	1538.65	653.9
999.0151	2725.7421	1550.9	666.2
999.1368	2726.9611	1547.25	660.35
999.2584	2728.1795	1546.55	657.9
999.38	2729.3972	1524.6	640.15
999.5016	2730.6142	1543.85	647.95
999.6231	2731.8306	1516.75	632.5
999.7446	2733.0462	1505.25	617.9
999.8661	2734.2612	1496.4	606.4
999.9875	2735.4756	1476.15	589.55
1000.1089	2736.6892	1468.2	583.75
1000.2302	2737.9022	1449.2	565.85
1000.3515	2739.1145	1442	557
1000.4728	2740.3262	1436.6	545.85
1000.594	2741.5372	1419.15	533.95
1000.7152	2742.7475	1409.3	523.9
1000.8363	2743.9571	1401.65	514.8
1000.9575	2745.1661	1400.45	511.95
1001.0785	2746.3744	1383.6	500
1001.1996	2747.582	1377.7	492.95
1001.3206	2748.7889	1371.4	486.8
1001.4415	2749.9952	1364.35	480.95
1001.5625	2751.2008	1365	478.75
1001.6833	2752.4057	1362.75	475.4
1001.8042	2753.61	1360	474.35
1001.925	2754.8136	1345.65	463.05
1002.0458	2756.0165	1348.1	465.95
1002.1665	2757.2188	1344.95	462.95
1002.2872	2758.4204	1348.7	465.2
1002.4078	2759.6213	1350.25	467.7
1002.5285	2760.8215	1352.25	464.35
1002.649	2762.0211	1352.55	468.2
1002.7696	2763.22	1351.15	464.3
1002.8901	2764.4182	1347.9	463.55
1003.0106	2765.6158	1338	454.85
1003.131	2766.8127	1335.2	451.8
1003.2514	2768.009	1336.6	455.3
1003.3717	2769.2045	1329.2	445.3
1003.492	2770.3994	1331.55	445.8
1003.6123	2771.5936	1326	441.55
1003.7325	2772.7872	1317.9	435.75
1003.8527	2773.9801	1319.65	435.65
1003.9729	2775.1723	1341.85	440.55
1004.093	2776.3639	1320.3	438.7
1004.2131	2777.5548	1319.45	434.75
1004.3331	2778.745	1314.2	430.7
1004.4531	2779.9346	1318.7	436.25
1004.5731	2781.1235	1323.65	439.45
1004.693	2782.3117	1322.85	441.15
1004.8129	2783.4992	1327.55	444.1
1004.9328	2784.6861	1325.2	441.45
1005.0526	2785.8723	1330.65	448.1
1005.1723	2787.0579	1333.9	447.9
1005.2921	2788.2428	1331.25	448.55
1005.4118	2789.427	1338.65	457.35
1005.5314	2790.6106	1336.85	453.45
1005.651	2791.7935	1348.55	467.2
1005.7706	2792.9757	1346.6	462.95
1005.8902	2794.1573	1356.5	473.2
1006.0097	2795.3382	1364.85	483.55
1006.1291	2796.5184	1366.7	486.1
1006.2485	2797.698	1375.8	492.35
1006.3679	2798.8769	1381.75	499.3
1006.4873	2800.0551	1394	512.65
1006.6066	2801.2327	1414.85	530.35
1006.7258	2802.4096	1415.75	534.6
1006.8451	2803.5859	1431.4	547.2
1006.9642	2804.7615	1440.45	558.2
1007.0834	2805.9364	1459.05	577.25
1007.2025	2807.1106	1475.7	595.1
1007.3216	2808.2842	1494.4	610.95
1007.4406	2809.4572	1519.2	636.8
1007.5596	2810.6294	1547.15	663.6
1007.6785	2811.801	1572.4	692.2
1007.7975	2812.972	1599.25	718.5
1007.9163	2814.1423	1637.7	754.1
1008.0352	2815.3119	1673.35	791.65
1008.154	2816.4808	1709.05	827.8
1008.2727	2817.6491	1765.35	881.95
1008.3914	2818.8167	1807.5	927.35
1008.5101	2819.9837	1845.05	960.15
1008.6288	2821.15	1887.95	1004.45
1008.7474	2822.3157	1950.05	1068.3
1008.8659	2823.4807	2004.1	1124.45
1008.9844	2824.645	2058.6	1175.8
1009.1029	2825.8086	2104.55	1223.2
1009.2214	2826.9716	2164.35	1283.5
1009.3398	2828.134	2197.3	1315.1
1009.4581	2829.2957	2236.85	1356
1009.5764	2830.4567	2265.35	1385.05
1009.6947	2831.617	2294.35	1412.7
1009.813	2832.7767	2301.65	1421.5
1009.9312	2833.9358	2312.5	1430.4
1010.0493	2835.0941	2287.55	1405.45
1010.1675	2836.2519	2291.5	1410.6
1010.2855	2837.4089	2275.4	1391.4
1010.4036	2838.5653	2254.95	1374.4
1010.5216	2839.7211	2248.85	1368.05
1010.6396	2840.8761	2240	1356.45
1010.7575	2842.0306	2244.35	1364.45
1010.8754	2843.1843	2266.1	1384.2
1010.9932	2844.3374	2285	1404.35
1011.111	2845.4899	2325.6	1443.85
1011.2288	2846.6417	2364.4	1484.3
1011.3465	2847.7928	2410.8	1529.9
1011.4642	2848.9433	2461.55	1580.7
1011.5818	2850.0931	2513.3	1632.6
1011.6995	2851.2422	2562.45	1678.05
1011.817	2852.3907	2622.5	1740.25
1011.9345	2853.5385	2670.85	1786.85
1012.052	2854.6857	2719.85	1812.1
1012.1695	2855.8323	2745.1	1864.6
1012.2869	2856.9781	2786.4	1904.7
1012.4042	2858.1233	2836.75	1956.25
1012.5216	2859.2679	2882.9	2002.1
1012.6389	2860.4118	2916.4	2035.25
1012.7561	2861.555	2956.1	2070.15
1012.8733	2862.6976	2998.15	2113.7
1012.9905	2863.8395	3024.25	2141.45
1013.1076	2864.9808	3050.1	2169.25
1013.2247	2866.1214	3069.7	2192.1
1013.3417	2867.2614	3099.45	2215.95
1013.4587	2868.4007	3117.75	2236.95
1013.5757	2869.5393	3118.05	2234.15
1013.6926	2870.6773	3148.1	2267.2
1013.8095	2871.8146	3151.75	2268
1013.9263	2872.9513	3146.6	2261.7
1014.0431	2874.0874	3130.05	2248.5
1014.1599	2875.2227	3119.55	2237.2
1014.2766	2876.3574	3105	2224.35
1014.3933	2877.4915	3074.7	2194.2
1014.51	2878.6249	3060.95	2179.7
1014.6266	2879.7577	3047.25	2166.45
1014.7431	2880.8898	3045.4	2154.3
1014.8596	2882.0212	3008.45	2128.2
1014.9761	2883.152	3007.2	2125.25
1015.0925	2884.2821	2999	2118.55
1015.2089	2885.4116	2992.55	2110
1015.3253	2886.5405	2990.25	2111.4
1015.4416	2887.6686	2995.8	2111.35
1015.5579	2888.7962	3005.6	2126.85
1015.6741	2889.923	3016.1	2137.1
1015.7903	2891.0493	3022.35	2142.6
1015.9065	2892.1748	3025.85	2144.85
1016.0226	2893.2997	3040.55	2159.2
1016.1387	2894.424	3059.15	2181.55
1016.2547	2895.5476	3067.6	2186.25
1016.3707	2896.6706	3073.1	2191.75
1016.4866	2897.7929	3090.55	2211.75
1016.6025	2898.9145	3118.1	2237.35
1016.7184	2900.0355	3149.65	2266.95
1016.8342	2901.1559	3166.5	2286.45
1016.95	2902.2756	3200.1	2314.2
1017.0658	2903.3946	3223.2	2343.7
1017.1815	2904.513	3241.85	2358.85
1017.2971	2905.6308	3251.05	2370.25
1017.4127	2906.7479	3279	2396.45
1017.5283	2907.8643	3297.9	2418.55
1017.6439	2908.9801	3318.2	2436.05
1017.7594	2910.0953	3330.9	2451.45
1017.8748	2911.2098	3315.6	2431.25
1017.9902	2912.3236	3310.05	2420.3
1018.1056	2913.4368	3293.2	2409.1
1018.2209	2914.5494	3297.1	2416.65
1018.3362	2915.6613	3262.2	2374
1018.4515	2916.7725	3240.45	2357.15
1018.5667	2917.8831	3206.5	2323.45
1018.6819	2918.9931	3190.35	2308.95
1018.797	2920.1024	3165.15	2284.35
1018.9121	2921.211	3139.55	2259.15
1019.0271	2922.319	3128.85	2246.3
1019.1421	2923.4264	3120.3	2242.1
1019.2571	2924.5331	3111.2	2232.85
1019.372	2925.6391	3106.05	2225.35
1019.4869	2926.7445	3102.75	2224.7
1019.6017	2927.8493	3111.3	2232.5
1019.7165	2928.9534	3107.65	2228.25
1019.8313	2930.0569	3129.35	2246.45
1019.946	2931.1597	3124.4	2242.75
1020.0606	2932.2619	3129.55	2248.65
1020.1753	2933.3634	3128.65	2249.85
1020.2899	2934.4643	3136.5	2249.95
1020.4044	2935.5645	3138.8	2253.2
1020.5189	2936.6641	3111.7	2226.5
1020.6334	2937.763	3094.6	2215.65
1020.7478	2938.8613	3053.25	2172.7
1020.8622	2939.959	3030.45	2145.1
1020.9765	2941.056	2976.6	2098.6
1021.0908	2942.1523	2904.45	2022.05
1021.2051	2943.248	2847.2	1967.3
1021.3193	2944.3431	2763.45	1883.65
1021.4334	2945.4375	2682.5	1801.65
1021.5476	2946.5313	2599.3	1719.45
1021.6617	2947.6244	2506.25	1624.35
1021.7757	2948.7169	2428.3	1548.9
1021.8897	2949.8087	2342.95	1464.55
1022.0037	2950.8999	2274.95	1395.85
1022.1176	2951.9904	2206.65	1327.35
1022.2315	2953.0803	2141.9	1260.55
1022.3453	2954.1696	2084.35	1203.75
1022.4591	2955.2582	2050.85	1170.8
1022.5728	2956.3462	2010.2	1131.4
1022.6865	2957.4335	1976.3	1094.7
1022.8002	2958.5202	1944.95	1062.9
1022.9138	2959.6062	1918.25	1038.05
1023.0274	2960.6916	1899.9	1021.85
1023.141	2961.7764	1894.45	1016.65
1023.2545	2962.8605	1869.35	988
1023.3679	2963.9439	1860	981.9
1023.4813	2965.0267	1851.55	969.9
1023.5947	2966.1089	1864.05	960.85
1023.708	2967.1905	1830.5	951.85
1023.8213	2968.2714	1834.25	956
1023.9346	2969.3516	1831.1	951.1
1024.0478	2970.4312	1836.55	950
1024.1609	2971.5102	1838.2	959.3
1024.274	2972.5885	1840.55	961.75
1024.3871	2973.6662	1858.6	974.4
1024.5002	2974.7432	1843.9	965.6
1024.6132	2975.8196	1836.5	957.15
1024.7261	2976.8954	1829.5	950.1
1024.839	2977.9705	1829.95	950
1024.9519	2979.045	1817.05	939.55
1025.0647	2980.1188	1808.65	929.9
1025.1775	2981.192	1788.5	909.85
1025.2902	2982.2645	1783.2	903.75
1025.4029	2983.3364	1751.65	874.65
1025.5156	2984.4077	1742.5	863.25
1025.6282	2985.4783	1727.2	843.4
1025.7407	2986.5483	1692.45	815.65
1025.8532	2987.6177	1663.5	783.1
1025.9657	2988.6864	1624.65	745.85
1026.0782	2989.7545	1605.55	723.8
1026.1906	2990.8219	1578.2	699.1
1026.3029	2991.8887	1550.95	670.95
1026.4152	2992.9548	1527.95	649.1
1026.5275	2994.0204	1501	624.2
1026.6397	2995.0852	1465.65	588.2
1026.7519	2996.1495	1441.2	560.95
1026.864	2997.2131	1424.35	547.15
1026.9761	2998.276	1411.75	534.3
1027.0882	2999.3383	1388.4	507
1027.2002	3000.4	1361.1	481.85
1027.3122	3001.4611	1351.75	473.25
1027.4241	3002.5215	1336.65	458.05
1027.536	3003.5812	1320.2	442.15
1027.6478	3004.6404	1306.1	426.95
1027.7596	3005.6989	1301.5	421.45
1027.8714	3006.7567	1286.85	408.25
1027.9831	3007.8139	1304.95	396.2
1028.0947	3008.8705	1267.45	386
1028.2064	3009.9264	1263.25	382.45
1028.3179	3010.9818	1260.75	380.5
1028.4295	3012.0364	1246	366.2
1028.541	3013.0905	1244.15	364.45
1028.6524	3014.1439	1234.7	354.3
1028.7638	3015.1966	1232.35	354.35
1028.8752	3016.2487	1229.4	351.35
1028.9865	3017.3002	1234.55	351.35
1029.0978	3018.3511	1218.05	339.45
1029.209	3019.4013	1219.45	342.4
1029.3202	3020.4509	1223.45	346.45
1029.4314	3021.4998	1213.35	335.55
1029.5425	3022.5481	1212.2	331.75
1029.6535	3023.5958	1209.15	331.85
1029.7645	3024.6428	1213.05	334.6
1029.8755	3025.6892	1208.7	330.1
1029.9864	3026.735	1208.8	328.55
1030.0973	3027.7802	1206.45	327.7
1030.2082	3028.8247	1204.7	326.2
1030.319	3029.8685	1206.7	328
1030.4297	3030.9118	1211.3	332.6
1030.5404	3031.9544	1208.35	331.7
1030.6511	3032.9963	1210.4	331.6
1030.7617	3034.0376	1211.6	331.5
1030.8723	3035.0783	1211.95	330
1030.9829	3036.1184	1219.3	340.15
1031.0934	3037.1578	1213.05	336.15
1031.2038	3038.1966	1214.6	336.55
1031.3142	3039.2348	1215.5	335.85
1031.4246	3040.2723	1230.35	344.35
1031.5349	3041.3092	1215.85	339.8
1031.6452	3042.3455	1217.9	339.35
1031.7554	3043.3811	1221.1	341.25
1031.8656	3044.4161	1215.65	337.35
1031.9758	3045.4505	1211.75	335.05
1032.0859	3046.4842	1214.5	334.7
1032.1959	3047.5173	1216.55	338.9
1032.3059	3048.5498	1212.6	332.6
1032.4159	3049.5816	1207.7	329.95
1032.5258	3050.6128	1206.3	328.25
1032.6357	3051.6434	1206.75	327.9
1032.7455	3052.6734	1202.7	323.85
1032.8553	3053.7027	1198.95	319.9
1032.9651	3054.7314	1193.6	316.7
1033.0748	3055.7594	1197.8	320.8
1033.1845	3056.7868	1198.2	319.05
1033.2941	3057.8136	1189.8	311.05
1033.4037	3058.8398	1190.05	311.45
1033.5132	3059.8653	1187.05	309.3
1033.6227	3060.8902	1186.25	307.05
1033.7321	3061.9145	1186.15	309.4
1033.8415	3062.9381	1179.9	300.15
1033.9509	3063.9612	1201.35	308.4
1034.0602	3064.9835	1180.65	304.95
1034.1694	3066.0053	1176.6	295.5
1034.2787	3067.0264	1174.75	298.6
1034.3878	3068.0469	1169.5	289.95
1034.497	3069.0668	1165.8	285.75
1034.6061	3070.086	1161.65	284.45
1034.7151	3071.1046	1154.75	276.05
1034.8241	3072.1226	1154.95	274.7
1034.9331	3073.1399	1153.8	274.9
1035.042	3074.1567	1143.1	264.35
1035.1508	3075.1727	1138.7	259.15
1035.2597	3076.1882	1125.95	246.75
1035.3684	3077.203	1121.45	242.45
1035.4772	3078.2173	1122.45	243.55
1035.5859	3079.2308	1118.4	237.65
1035.6945	3080.2438	1112.2	231.45
1035.8031	3081.2561	1103.6	225.6
1035.9117	3082.2678	1097.65	219.85
1036.0202	3083.2789	1092.65	214.05
1036.1286	3084.2893	1087.9	211.05
1036.2371	3085.2991	1083.25	204.35
1036.3454	3086.3083	1085.2	203.7
1036.4538	3087.3169	1077.1	197.6
1036.562	3088.3248	1079.8	199.75
1036.6703	3089.3321	1069.55	190
1036.7785	3090.3388	1068.8	190.6
1036.8866	3091.3449	1068.7	190.75
1036.9948	3092.3503	1060.85	180.2
1037.1028	3093.3551	1053.2	175.8
1037.2108	3094.3593	1049.45	172.7
1037.3188	3095.3629	1053.2	177.35
1037.4267	3096.3658	1051.4	173.5
1037.5346	3097.3681	1049.75	171.6
1037.6425	3098.3698	1048.15	170.25
1037.7503	3099.3708	1051.4	164.55
1037.858	3100.3713	1042.4	166.5
1037.9657	3101.3711	1036.1	156.2
1038.0734	3102.3702	1151.9	158.25
1038.181	3103.3688	1033.9	154.05
1038.2886	3104.3667	1030.5	153.85
1038.3961	3105.364	1033.45	153.7
1038.5036	3106.3607	1033.35	153.2
1038.611	3107.3568	1026.75	148.8
1038.7184	3108.3522	1024.75	148.3
1038.8257	3109.347	1021.1	142.4
1038.933	3110.3412	1027.65	143.5
1039.0403	3111.3348	1019.7	141.65
1039.1475	3112.3277	1019	140.95
1039.2547	3113.32	1017.45	140.25
1039.3618	3114.3117	1012.8	135.1
1039.4689	3115.3028	1012.2	135.85
1039.5759	3116.2932	1013.15	135.3
1039.6829	3117.2831	1017.5	135.4
1039.7898	3118.2723	1009.25	131.15
1039.8967	3119.2608	1004.8	126.55
1040.0035	3120.2488	1002.75	124.9
1040.1103	3121.2361	1005.6	130.35
1040.2171	3122.2229	1002.1	125.05
1040.3238	3123.209	1001.7	125.65
1040.4305	3124.1944	994.2	115.1
1040.5371	3125.1793	1004.8	128.3
1040.6437	3126.1635	997.8	123
1040.7502	3127.1471	999.75	120.95
1040.8567	3128.1301	992.9	116.55
1040.9631	3129.1125	991.8	114.05
1041.0695	3130.0942	995.9	119.55
1041.1759	3131.0753	1003.35	116.8
1041.2822	3132.0558	996.1	115.95
1041.3884	3133.0357	990	112.9
1041.4946	3134.015	989.15	111.5
1041.6008	3134.9936	991.25	109.8
1041.7069	3135.9716	1003.2	106.3
1041.813	3136.949	988.4	111.7
1041.919	3137.9258	1005.05	108.55
1042.025	3138.902	986.75	104.2
1042.1309	3139.8775	984.1	107.5
1042.2368	3140.8524	982.7	105.85
1042.3427	3141.8267	981.3	101.35
1042.4485	3142.8004	983.85	105.15
1042.5542	3143.7735	992	108.1
1042.6599	3144.7459	980.6	101.75
1042.7656	3145.7178	980.25	103.3
1042.8712	3146.689	975.65	98.7
1042.9768	3147.6596	979.35	101.35
1043.0823	3148.6295	976.95	97.75
1043.1878	3149.5989	975.75	98.95
1043.2932	3150.5676	974.8	99.55
1043.3986	3151.5357	971.65	94.9
1043.5039	3152.5032	973.45	97.25
1043.6092	3153.4701	971.6	94.4
1043.7145	3154.4364	975.25	94.2
1043.8197	3155.402	970.7	96.15
1043.9248	3156.367	971.9	92.65
1044.03	3157.3315	1007	94
1044.135	3158.2952	971.05	94.4
1044.24	3159.2584	969.15	92.85
1044.345	3160.221	968.35	89.35
1044.4499	3161.1829	964.35	86.45
1044.5548	3162.1442	964.25	88.2
1044.6596	3163.105	963.95	86.7
1044.7644	3164.065	964.35	86.35
1044.8692	3165.0245	969.25	90.3
1044.9739	3165.9834	962.4	84.65
1045.0785	3166.9416	963.1	87.95
1045.1831	3167.8993	964.35	86.75
1045.2877	3168.8563	961.3	84.85
1045.3922	3169.8127	961.25	84.3
1045.4966	3170.7684	959.95	81.35
1045.6011	3171.7236	962.9	85.4
1045.7054	3172.6782	962.65	85.85
1045.8098	3173.6321	961.7	82.75
1045.914	3174.5854	963.55	81.55
1046.0183	3175.5381	962.15	84.3
1046.1224	3176.4902	956.7	78.7
1046.2266	3177.4417	956.95	81.65
1046.3307	3178.3926	955.45	79.1
1046.4347	3179.3428	955.25	78.75
1046.5387	3180.2924	956.6	81.65
1046.6427	3181.2415	952.95	76
1046.7466	3182.1899	956.35	80
1046.8504	3183.1377	952	76.05
1046.9542	3184.0848	956.4	76.5
1047.058	3185.0314	952.4	76.45
1047.1617	3185.9773	952.85	74.55
1047.2654	3186.9227	953.5	74.65
1047.369	3187.8674	949.1	72
1047.4726	3188.8115	954.15	74.7
1047.5761	3189.755	948.3	72.2
1047.6796	3190.6979	946.8	69.4
1047.783	3191.6402	947.05	71.55
1047.8864	3192.5818	951.5	74
1047.9898	3193.5229	954.85	69.85
1048.0931	3194.4633	947.25	69.55
1048.1963	3195.4031	948.55	71
1048.2995	3196.3423	948.1	72.2
1048.4027	3197.2809	943.3	66.7
1048.5058	3198.2189	950	73.1
1048.6089	3199.1563	964.95	74.95
1048.7119	3200.0931	947.15	70.8
1048.8148	3201.0292	944.95	69.65
1048.9178	3201.9648	945.7	67
1049.0206	3202.8997	949.1	68.7
1049.1235	3203.834	945.7	69.3
1049.2262	3204.7677	945.65	70.05
1049.329	3205.7008	945.2	65.75
1049.4317	3206.6333	941.75	65.6
1049.5343	3207.5652	943.75	64.7
1049.6369	3208.4964	938.3	61.6
1049.7394	3209.4271	939.9	66.05
1049.8419	3210.3571	939.45	60.7
1049.9444	3211.2865	942.75	65.95
1050.0468	3212.2154	941.05	62.45
1050.1491	3213.1436	940.15	61.25
1050.2514	3214.0712	946.15	63.25
1050.3537	3214.9982	939.2	63
1050.4559	3215.9246	940.4	61.4
1050.5581	3216.8503	939.65	63.7
1050.6602	3217.7755	936.8	59.95
1050.7623	3218.7001	939.85	61.9
1050.8643	3219.624	938.95	63.75
1050.9663	3220.5473	934.55	57.75
1051.0682	3221.4701	939.15	60.85
1051.1701	3222.3922	936.8	56.85
1051.2719	3223.3137	933.45	56.75
1051.3737	3224.2346	935	59.85
1051.4754	3225.1549	935.3	59.05
1051.5771	3226.0746	937.3	60.2
1051.6788	3226.9937	936.25	58.6
1051.7804	3227.9121	930.95	56.15
1051.8819	3228.83	933.45	56.85
1051.9834	3229.7473	934.75	59.75
1052.0849	3230.6639	936.8	61.8
1052.1863	3231.5799	932	56.75
1052.2876	3232.4954	931.8	54.5
1052.3889	3233.4102	932.95	58.05
1052.4902	3234.3244	933.2	57.05
1052.5914	3235.238	932.15	55.9
1052.6926	3236.151	957.65	57.3
1052.7937	3237.0634	929.1	53.9
1052.8948	3237.9752	926.6	49.85
1052.9958	3238.8864	928.35	52.25
1053.0968	3239.797	929.55	51.8
1053.1977	3240.7069	928.4	50.05
1053.2986	3241.6163	927.1	49.7
1053.3994	3242.5251	928.85	54.35
1053.5002	3243.4332	928.05	52.4
1053.6009	3244.3408	930.1	52.8
1053.7016	3245.2477	927.4	49.95
1053.8022	3246.154	927.2	49.45
1053.9028	3247.0598	925.75	47.85
1054.0034	3247.9649	922.95	44.2
1054.1039	3248.8694	926.25	51.1
1054.2043	3249.7733	924.35	48
1054.3047	3250.6766	925.65	50.5
1054.4051	3251.5793	926.8	50.7
1054.5054	3252.4814	924.25	48.4
1054.6056	3253.3829	923.8	48.65
1054.7058	3254.2838	920.3	45.9
1054.806	3255.1841	922.25	47.35
1054.9061	3256.0838	920.85	47.35
1055.0061	3256.9829	920.7	43.2
1055.1062	3257.8814	923.65	45
1055.2061	3258.7792	922.65	46.5
1055.306	3259.6765	918.8	40.55
1055.4059	3260.5731	919	42.45
1055.5057	3261.4692	919.55	41.85
1055.6055	3262.3647	920.7	44.4
1055.7052	3263.2595	915.95	40.6
1055.8049	3264.1538	917.65	40.9
1055.9045	3265.0474	918.8	42.1
1056.0041	3265.9404	915.1	41.65
1056.1036	3266.8329	916.75	39.55
1056.2031	3267.7247	925.35	38.2
1056.3025	3268.616	912.65	37.55
1056.4019	3269.5066	910.3	35.1
1056.5013	3270.3966	913.55	36.65
1056.6005	3271.286	908.8	34.8
