Software Version:	3.9.2.0
Unit SN:	10000200
Spectrometer SN:	6960
Date:	3/8/2024 12:57:20 PM
Data Line Index:	25
Spectral Points:	2048
Integration time (ms):	125
Averages:	20
Delay (ms):	30000
Sequence Number:	1
Processing:	dark subtract
Laser Power (mW):	300
Laser Current (mA):	824
Laser Diode Temp (C):	25.1
Laser Case Temp (C):	26.1
System Temp (C):	26.1
Spectrometer Temp (C):	23.9
CCD Temp (C):	0.005
Secondary Temp (C):	20.01
Heatsink Temp (C):	20.351
CCDPCB Temp (C):	36.018
SecondaryPCB Temp (C):	28.926

Wavelength	RamanShift	Raw Counts	Dark Subtracted
787.061	30.1047	452.15	45.1
787.2016	32.3739	451.5	46.2
787.3422	34.6426	459	51
787.4828	36.9109	464.55	57.25
787.6235	39.1787	471.8	58.75
787.7642	41.4461	482.4	64.7
787.9049	43.7131	489.6	66.25
788.0456	45.9796	496.9	74.8
788.1863	48.2456	505	75.8
788.3271	50.5112	517.8	84.15
788.4679	52.7764	524.65	90.6
788.6087	55.0411	535.35	96.2
788.7496	57.3054	546.35	101.2
788.8904	59.5692	554.5	108.85
789.0313	61.8326	562.65	114
789.1722	64.0955	576.45	124.8
789.3132	66.3579	593.35	136.6
789.4541	68.6199	612.6	149.3
789.5951	70.8815	644.6	178
789.7361	73.1426	726.25	255.25
789.8771	75.4032	931.9	456.85
790.0181	77.6634	1425.45	947.35
790.1592	79.9231	2620.3	2131.95
790.3003	82.1824	5166.55	4661.85
790.4414	84.4412	9715.95	9172.2
790.5825	86.6995	15921	15335.95
790.7237	88.9574	21902.7	21280.25
790.8648	91.2148	26002.3	25355.05
791.006	93.4717	27806.8	27141.3
791.1472	95.7282	28113.15	27440.1
791.2885	97.9842	27834.45	27156
791.4297	100.2398	27099.05	26422.25
791.571	102.4949	26292.5	25608.35
791.7123	104.7495	25426.85	24741.9
791.8536	107.0036	24517.5	23828.7
791.9949	109.2573	23680	22989.85
792.1363	111.5105	22953	22264.1
792.2777	113.7632	22262.7	21573.1
792.4191	116.0154	21673.4	20970.15
792.5605	118.2672	21258.9	20560.55
792.7019	120.5185	20852.9	20150.65
792.8434	122.7693	20538.1	19837.35
792.9849	125.0197	20234.8	19529.95
793.1264	127.2696	19948.35	19240.1
793.2679	129.519	19775.25	19058.4
793.4094	131.7679	19536.35	18824.65
793.551	134.0163	19259.1	18536.75
793.6926	136.2642	18939.95	18219.2
793.8342	138.5117	18609.7	17882.95
793.9758	140.7587	18283.5	17558
794.1175	143.0052	17970.35	17238.2
794.2591	145.2512	17655.05	16926.45
794.4008	147.4967	17354.2	16623.2
794.5425	149.7417	17153.85	16419.95
794.6842	151.9863	16995.5	16253.2
794.826	154.2304	16882.55	16139.85
794.9677	156.4739	16725	15981.05
795.1095	158.717	16609.9	15862.3
795.2513	160.9596	16455.5	15704.2
795.3931	163.2017	16181.9	15433.45
795.535	165.4433	15912.45	15154.65
795.6768	167.6844	15565.2	14810.4
795.8187	169.925	15293.05	14530.95
795.9606	172.1651	14929.3	14168.2
796.1025	174.4047	14651	13885.95
796.2445	176.6439	14432.3	13672.55
796.3864	178.8825	14204.25	13437.3
796.5284	181.1206	14049.2	13275.9
796.6704	183.3582	13911.3	13131.35
796.8124	185.5954	13830.15	13049.7
796.9544	187.832	13748.25	12965.95
797.0965	190.0681	13708.55	12921
797.2386	192.3037	13695.4	12906.8
797.3806	194.5388	13695.25	12902.75
797.5228	196.7734	13718	12926.3
797.6649	199.0075	13800.05	13003.45
797.807	201.2411	13915.15	13118.7
797.9492	203.4742	13977.45	13179
798.0914	205.7068	14134.8	13329.3
798.2336	207.9389	14264.4	13459.15
798.3758	210.1704	14426.3	13630.3
798.518	212.4015	14493.15	13711.5
798.6603	214.632	14645.85	13868.8
798.8025	216.862	14813.45	14029.6
798.9448	219.0915	14929.15	14146.15
799.0871	221.3205	15031.45	14247.45
799.2294	223.549	15183.45	14405.5
799.3718	225.777	15347.8	14566
799.5141	228.0044	15518.95	14735.5
799.6565	230.2314	15780.85	14992.45
799.7989	232.4578	15932.8	15144.1
799.9413	234.6837	16145.55	15349.45
800.0837	236.909	16284.55	15482
800.2262	239.1339	16284.85	15455.65
800.3687	241.3582	16163.7	15347
800.5111	243.582	15972.5	15126.05
800.6536	245.8053	15837.55	15006.85
800.7961	248.0281	15701.05	14874.3
800.9387	250.2503	15639.85	14814.95
801.0812	252.472	15616.4	14788
801.2238	254.6932	15711.5	14883.05
801.3664	256.9139	15769.95	14937.8
801.509	259.134	15904.8	15065.65
801.6516	261.3536	16050.55	15216.3
801.7942	263.5727	16334.55	15495.45
801.9369	265.7912	16518.05	15685.95
802.0795	268.0092	16732.55	15898.55
802.2222	270.2267	16888.55	16054.5
802.3649	272.4436	16947.8	16108.15
802.5076	274.6601	16909.15	16065.4
802.6504	276.8759	16807.55	15967.35
802.7931	279.0913	16743.7	15907.05
802.9359	281.3061	16636	15788.3
803.0787	283.5204	16592.3	15744.2
803.2215	285.7341	16596.3	15746.5
803.3643	287.9473	16650.6	15794.95
803.5071	290.16	16783.3	15929.4
803.6499	292.3721	16938.55	16090.45
803.7928	294.5837	17206.55	16359.6
803.9357	296.7947	17466.35	16616.2
804.0786	299.0052	17633.25	16782.45
804.2215	301.2152	17545.95	16694.1
804.3644	303.4246	17324.9	16480.65
804.5074	305.6334	16943.9	16100.4
804.6503	307.8418	16503.8	15655.45
804.7933	310.0495	16068.3	15214.85
804.9363	312.2568	15729.1	14879.35
805.0793	314.4635	15373	14515.3
805.2223	316.6696	15141.7	14281.95
805.3653	318.8752	14979.1	14111.9
805.5084	321.0802	14931.85	14071.85
805.6514	323.2847	14980.3	14118.5
805.7945	325.4887	15020.2	14159.1
805.9376	327.692	14992.7	14125.1
806.0807	329.8949	14918.2	14052.95
806.2238	332.0972	14695.45	13827.6
806.367	334.2989	14493.55	13623.55
806.5101	336.5001	14240.65	13368.6
806.6533	338.7007	14038.35	13169.35
806.7965	340.9008	13931.9	13055.8
806.9397	343.1003	13746.25	12874.6
807.0829	345.2992	13671	12797.2
807.2261	347.4976	13592.75	12718.15
807.3693	349.6955	13529.55	12649.55
807.5126	351.8927	13549.45	12670.1
807.6559	354.0895	13516.2	12627.8
807.7991	356.2856	13509.95	12630.35
807.9424	358.4812	13455.8	12571.85
808.0857	360.6763	13468.25	12579.75
808.2291	362.8707	13450.5	12565.95
808.3724	365.0646	13483.3	12597.95
808.5158	367.258	13503.65	12613.35
808.6591	369.4508	13576.85	12684.65
808.8025	371.643	13701	12809.6
808.9459	373.8346	13745.5	12853.05
809.0893	376.0257	13814.8	12921.05
809.2327	378.2162	13808.1	12914.95
809.3762	380.4062	13764.85	12871.4
809.5196	382.5956	13631.25	12737.75
809.6631	384.7844	13544.6	12660.6
809.8066	386.9726	13399.4	12517.5
809.9501	389.1603	13361.9	12481.9
810.0936	391.3474	13306.55	12400.55
810.2371	393.5339	13274.15	12383
810.3806	395.7199	13227.55	12342.1
810.5241	397.9052	13260.6	12376.55
810.6677	400.09	13314.35	12429.8
810.8113	402.2743	13473.3	12590.5
810.9548	404.4579	13583.35	12694.55
811.0984	406.641	13798.2	12905.95
811.2421	408.8235	13970.6	13080.5
811.3857	411.0054	14159.2	13269.2
811.5293	413.1868	14418.3	13516.95
811.673	415.3675	14547.55	13646.5
811.8166	417.5477	14614.75	13714.1
811.9603	419.7273	14581.7	13678.7
812.104	421.9064	14505.6	13598.8
812.2477	424.0848	14444.25	13543.5
812.3914	426.2627	14273.6	13374.3
812.5351	428.4399	14050.75	13150.95
812.6788	430.6166	13730.8	12826.8
812.8226	432.7928	13372.15	12466.15
812.9663	434.9683	13074.85	12170.1
813.1101	437.1432	12860.05	11958.2
813.2539	439.3176	12659.25	11762.5
813.3977	441.4914	12564.95	11675.8
813.5415	443.6645	12569.55	11673.4
813.6853	445.8371	12493.95	11596.5
813.8291	448.0091	12433.9	11530.05
813.973	450.1806	12428.5	11531.2
814.1168	452.3514	12417.1	11522.8
814.2607	454.5216	12449.2	11545.55
814.4046	456.6913	12425.6	11526.85
814.5485	458.8603	12467.25	11569.35
814.6924	461.0288	12507.4	11613.75
814.8363	463.1967	12476.75	11583.95
814.9802	465.3639	12553.4	11655.05
815.1241	467.5306	12582.5	11684.05
815.2681	469.6967	12622.1	11728.2
815.412	471.8622	12682.7	11789.2
815.556	474.0271	12757.8	11860.7
815.7	476.1914	12825.45	11921.65
815.844	478.3551	12791.7	11889.2
815.988	480.5182	12836.6	11942.6
816.132	482.6807	12879.75	11990.9
816.276	484.8426	13066.95	12183.15
816.4201	487.0039	13352.45	12463.6
816.5641	489.1647	13757.05	12858.8
816.7082	491.3248	14084.1	13182.75
816.8522	493.4843	14248	13352.35
816.9963	495.6432	14194.85	13296.1
817.1404	497.8015	14089.6	13181.05
817.2845	499.9592	13996.5	13080.25
817.4286	502.1163	13835.6	12922.15
817.5727	504.2728	13565.05	12662.95
817.7168	506.4287	13284.95	12393.65
817.861	508.5839	12939.25	12047.85
818.0051	510.7386	12710.25	11812.5
818.1493	512.8927	12606.8	11692.45
818.2935	515.0461	12551.85	11640.2
818.4377	517.199	12587.05	11674.7
818.5818	519.3512	12760.5	11846.5
818.726	521.5029	12930.95	12013.6
818.8703	523.6539	13143.9	12233.05
819.0145	525.8043	13229.35	12316.95
819.1587	527.9541	13179.65	12263.3
819.303	530.1033	13077.2	12168.5
819.4472	532.2519	12943.95	12033.4
819.5915	534.3999	12915.6	11999.1
819.7357	536.5472	13047.85	12136.9
819.88	538.694	13319.65	12412.05
820.0243	540.8401	13717.85	12806.65
820.1686	542.9856	14005.7	13081.35
820.3129	545.1305	14082.5	13152.75
820.4572	547.2748	13992.15	13059.85
820.6016	549.4185	13751.65	12818.8
820.7459	551.5615	13564.05	12637.4
820.8902	553.704	13519.45	12589.25
821.0346	555.8458	13552.95	12632.5
821.1789	557.987	13684.25	12767.15
821.3233	560.1276	13854.6	12936.3
821.4677	562.2675	14111.6	13188.3
821.6121	564.4069	14501.4	13577.15
821.7565	566.5456	14836.1	13914.3
821.9009	568.6837	14935.15	14015.25
822.0453	570.8212	14564.05	13645.6
822.1897	572.958	14007.15	13086.5
822.3342	575.0942	13448.2	12528.65
822.4786	577.2299	13112.75	12198.1
822.6231	579.3648	12924.15	12025.05
822.7675	581.4992	12894.95	12006.25
822.912	583.6329	13030.45	12143.95
823.0565	585.766	13211.65	12316.85
823.201	587.8985	13326.2	12419.65
823.3454	590.0304	13404.15	12466.4
823.4899	592.1616	13344.55	12420.45
823.6345	594.2922	13223.4	12298.25
823.779	596.4222	13042.3	12114.2
823.9235	598.5515	12848.15	11919.35
824.068	600.6802	12687.35	11760.05
824.2126	602.8083	12521.55	11597.9
824.3571	604.9358	12514	11586.8
824.5017	607.0626	12504.65	11575.65
824.6462	609.1888	12583.65	11645.65
824.7908	611.3144	12652.75	11719.1
824.9354	613.4393	12710	11776.75
825.08	615.5636	12782.5	11847.4
825.2246	617.6873	12764.25	11830.65
825.3692	619.8103	12697	11762.35
825.5138	621.9327	12539.8	11610.35
825.6584	624.0544	12384.85	11459.2
825.803	626.1756	12242.35	11318.1
825.9477	628.2961	12135	11203.95
826.0923	630.4159	12034.45	11102.3
826.237	632.5351	12022.1	11086.9
826.3816	634.6537	11983.5	11049.6
826.5263	636.7716	11975.85	11034.3
826.6709	638.8889	12025.65	11085.2
826.8156	641.0056	12011.15	11072.7
826.9603	643.1216	12018.05	11077.85
827.105	645.237	11994.25	11056.45
827.2497	647.3518	11941.7	11011.25
827.3944	649.4659	11882.85	10957.1
827.5391	651.5793	11853.1	10929.95
827.6838	653.6922	11833.8	10905.2
827.8285	655.8043	11839.95	10907.6
827.9733	657.9159	11811.8	10882.6
828.118	660.0268	11793.95	10862.45
828.2627	662.137	11746.55	10812.35
828.4075	664.2466	11747.1	10805.35
828.5522	666.3556	11763.45	10824.75
828.697	668.4639	11726.5	10791.25
828.8418	670.5716	11722.2	10796.1
828.9865	672.6786	11706.9	10774.65
829.1313	674.785	11707.65	10768.3
829.2761	676.8907	11709.8	10777.35
829.4209	678.9958	11734.55	10808.3
829.5657	681.1002	11705.5	10769.25
829.7105	683.204	11671.6	10725.9
829.8553	685.3072	11650.4	10710.55
830.0001	687.4097	11618.05	10676.6
830.1449	689.5115	11601.55	10659.15
830.2898	691.6127	11618.75	10680.15
830.4346	693.7132	11577.15	10643.95
830.5794	695.8131	11587.15	10637.65
830.7243	697.9123	11608.45	10664.05
830.8691	700.0109	11616.6	10674.15
831.014	702.1089	11618.3	10675.5
831.1588	704.2061	11667.35	10724.95
831.3037	706.3028	11699	10755.9
831.4486	708.3987	11754.3	10809.6
831.5935	710.4941	11781.35	10841.75
831.7383	712.5887	11858.75	10917.25
831.8832	714.6827	12008.1	11062.2
832.0281	716.7761	12188.6	11248.65
832.173	718.8688	12425.5	11483.65
832.3179	720.9608	12570	11622.4
832.4628	723.0522	12674.9	11721.45
832.6077	725.1429	12660.65	11717.3
832.7527	727.233	12645.15	11702.4
832.8976	729.3224	12630.3	11690.05
833.0425	731.4112	12502.1	11562.5
833.1874	733.4993	12363.15	11417.85
833.3324	735.5867	12161.75	11218.45
833.4773	737.6735	11976.45	11033.6
833.6222	739.7596	11851.7	10905.75
833.7672	741.845	11741.25	10797.2
833.9122	743.9298	11671.2	10729.15
834.0571	746.014	11634.65	10689.1
834.2021	748.0974	11617.35	10665.55
834.347	750.1802	11611.55	10660.6
834.492	752.2624	11636.55	10686.35
834.637	754.3439	11710.85	10760.35
834.782	756.4247	11795.75	10834.85
834.9269	758.5048	11931	10984.9
835.0719	760.5843	12222.55	11267.8
835.2169	762.6631	12589.75	11636.65
835.3619	764.7413	13127.3	12176.1
835.5069	766.8188	13770.5	12817.65
835.6519	768.8956	14308.15	13360.85
835.7969	770.9718	14671.35	13722.7
835.9419	773.0473	14563.85	13611.85
836.0869	775.1221	14287.15	13337.95
836.232	777.1962	14033.3	13082.9
836.377	779.2697	13901.95	12950.65
836.522	781.3426	13963.65	13001.5
836.667	783.4147	14084.05	13130
836.8121	785.4862	14220.25	13268.65
836.9571	787.557	14076.15	13118.5
837.1021	789.6271	13699.75	12744
837.2472	791.6966	13081.35	12126.65
837.3922	793.7654	12517.95	11565.4
837.5373	795.8335	12163.3	11212.3
837.6823	797.901	11880.5	10929.25
837.8274	799.9678	11755.85	10800.5
837.9724	802.0339	11665.4	10709.95
838.1175	804.0993	11656.05	10689.55
838.2626	806.1641	11596.15	10640.25
838.4076	808.2282	11528.4	10574.6
838.5527	810.2916	11452.35	10498.15
838.6978	812.3544	11374.2	10422.5
838.8428	814.4164	11304.5	10352.25
838.9879	816.4778	11364.45	10409.85
839.133	818.5385	11382.9	10427.2
839.2781	820.5986	11513.35	10558.15
839.4232	822.658	11711.65	10753.5
839.5682	824.7166	11977	11024
839.7133	826.7747	12402	11443.5
839.8584	828.832	12841.8	11886.8
840.0035	830.8886	13134.7	12177.35
840.1486	832.9446	13343.9	12386.15
840.2937	834.9999	13219.35	12264.05
840.4388	837.0545	13024.45	12064.45
840.5839	839.1085	12776.1	11816.3
840.729	841.1618	12545.7	11584.4
840.8741	843.2143	12333.9	11379.45
841.0192	845.2662	12167.2	11211.7
841.1643	847.3175	12077.05	11119.05
841.3095	849.368	11974.45	11014.1
841.4546	851.4179	11847.9	10891.25
841.5997	853.467	11747.2	10789.05
841.7448	855.5155	11682.65	10723.55
841.8899	857.5633	11622.45	10664.6
842.0351	859.6105	11511.25	10554.45
842.1802	861.6569	11409.4	10451.4
842.3253	863.7027	11366.4	10407.45
842.4704	865.7478	11330.35	10370.9
842.6156	867.7922	11292.85	10335.6
842.7607	869.8359	11304.7	10347.1
842.9058	871.8789	11351.4	10390.65
843.0509	873.9212	11462.95	10472.7
843.1961	875.9629	11568	10607.2
843.3412	878.0039	11697.5	10740.55
843.4863	880.0441	11769.75	10817.95
843.6315	882.0837	11815.35	10859.3
843.7766	884.1226	11834.45	10877.9
843.9218	886.1609	11816.65	10859.2
844.0669	888.1984	11879.3	10920.1
844.212	890.2352	11975.35	11016.35
844.3572	892.2714	12014.15	11047.9
844.5023	894.3069	11928.05	10967.55
844.6475	896.3416	11771.15	10811.65
844.7926	898.3757	11718.95	10759.25
844.9377	900.4091	11637.65	10674.9
845.0829	902.4418	11616.7	10650.3
845.228	904.4739	11662.5	10698.7
845.3732	906.5052	11717.95	10754.65
845.5183	908.5358	11646.1	10683.6
845.6635	910.5658	11520.95	10558.85
845.8086	912.595	11307.2	10345.5
845.9538	914.6236	11109.2	10146.05
846.0989	916.6515	11013.75	10050.75
846.2441	918.6786	10936.2	9974.05
846.3892	920.7051	10962.7	9999.1
846.5344	922.7309	11023.65	10064.25
846.6795	924.756	11053.85	10093.15
846.8246	926.7804	11149.75	10183.95
846.9698	928.8041	11127.75	10164.7
847.1149	930.8272	11170.1	10207
847.2601	932.8495	11157.05	10195.6
847.4052	934.8711	11144.95	10181.2
847.5504	936.892	11049.65	10088.3
847.6955	938.9123	11016.15	10052.25
847.8407	940.9318	10977.2	10011
847.9858	942.9506	10964.15	10002.25
848.131	944.9688	10900.95	9940.95
848.2761	946.9862	10830.1	9869.15
848.4213	949.003	10695.75	9733.45
848.5664	951.019	10651.25	9684.95
848.7115	953.0344	10603.95	9645.1
848.8567	955.0491	10599.35	9634.15
849.0018	957.063	10632.2	9668.7
849.147	959.0763	10739.45	9778.5
849.2921	961.0888	10764.2	9802.2
849.4373	963.1007	10835.3	9874.3
849.5824	965.1119	10825.45	9872.6
849.7275	967.1223	10827.7	9883.65
849.8727	969.1321	10840.95	9897.25
850.0178	971.1412	10830.7	9880.1
850.1629	973.1495	10827.85	9871.2
850.3081	975.1572	10889.6	9884.15
850.4532	977.1641	10902.55	9939.2
850.5983	979.1704	10872.2	9911.55
850.7435	981.1759	10851.4	9883.85
850.8886	983.1808	10851.8	9886.55
851.0337	985.1849	10868.65	9897.25
851.1788	987.1884	10990.15	10029.2
851.324	989.1911	11072.75	10110.4
851.4691	991.1932	11173.9	10216.8
851.6142	993.1945	11194.2	10232.45
851.7593	995.1951	11164.7	10199.8
851.9045	997.1951	11132.45	10163.55
852.0496	999.1943	11085.55	10121.45
852.1947	1001.1928	11048.5	10085.2
852.3398	1003.1906	11108.85	10147.5
852.4849	1005.1877	11218.75	10257.45
852.63	1007.1841	11259.65	10300.9
852.7751	1009.1798	11252.25	10288.3
852.9202	1011.1748	11143.4	10180.35
853.0653	1013.1691	10989.2	10028.3
853.2104	1015.1627	10796.55	9834.8
853.3555	1017.1556	10585.15	9624.55
853.5006	1019.1477	10467.85	9509.35
853.6457	1021.1392	10403.8	9453.45
853.7908	1023.1299	10358.6	9411.95
853.9359	1025.12	10359.4	9418.6
854.081	1027.1093	10423.8	9495.3
854.2261	1029.0979	10528.8	9604.1
854.3712	1031.0859	10596.3	9664.6
854.5163	1033.0731	10625.85	9681.15
854.6613	1035.0596	10581.3	9631.1
854.8064	1037.0454	10472.7	9520.05
854.9515	1039.0304	10378.85	9423.8
855.0965	1041.0148	10257.6	9298.75
855.2416	1042.9985	10153.25	9196.25
855.3867	1044.9814	10127.1	9170.95
855.5317	1046.9636	10078.3	9118.45
855.6768	1048.9452	10061.95	9105.75
855.8219	1050.926	10084.25	9125.75
855.9669	1052.9061	10121.55	9167.35
856.112	1054.8855	10141.35	9184.1
856.257	1056.8642	10173.45	9217.1
856.4021	1058.8421	10210.85	9247.8
856.5471	1060.8194	10256.7	9297.9
856.6921	1062.7959	10302.8	9346.3
856.8372	1064.7717	10361.55	9402.65
856.9822	1066.7469	10417.3	9458.8
857.1272	1068.7213	10466.05	9507.1
857.2723	1070.695	10511.5	9553.2
857.4173	1072.6679	10532.1	9574.85
857.5623	1074.6402	10530.4	9571.85
857.7073	1076.6117	10485.7	9521.35
857.8523	1078.5826	10437.65	9477.05
857.9973	1080.5527	10322.85	9363.15
858.1423	1082.5221	10253.55	9296.5
858.2873	1084.4908	10308.25	9350.8
858.4323	1086.4587	10355.15	9398.55
858.5773	1088.426	10449.75	9489.55
858.7223	1090.3925	10471.9	9509.4
858.8673	1092.3584	10475.25	9514.75
859.0123	1094.3235	10451.65	9491.3
859.1573	1096.2879	10475.35	9518.55
859.3022	1098.2515	10545.05	9588.5
859.4472	1100.2145	10708.8	9753.4
859.5922	1102.1767	10866.35	9907.05
859.7371	1104.1382	11044.65	10091
859.8821	1106.099	11306.05	10348.2
860.027	1108.0591	11504.6	10547.85
860.172	1110.0185	11664.1	10706
860.3169	1111.9771	11714.45	10757.7
860.4619	1113.9351	11610.15	10653.85
860.6068	1115.8923	11449.7	10492.45
860.7517	1117.8488	11295.65	10337.4
860.8967	1119.8045	11062.7	10105.25
861.0416	1121.7596	10944.5	9985.4
861.1865	1123.7139	10822.35	9863.1
861.3314	1125.6675	10800.7	9843.75
861.4763	1127.6204	10841.35	9888.45
861.6212	1129.5726	10801.85	9841.5
861.7661	1131.524	10720.45	9767.2
861.911	1133.4748	10603.55	9647.2
862.0559	1135.4248	10465.55	9507
862.2008	1137.3741	10361.9	9405.7
862.3457	1139.3226	10264.95	9308.2
862.4905	1141.2705	10229.35	9274.15
862.6354	1143.2176	10123	9160.15
862.7803	1145.164	10089.95	9130.1
862.9251	1147.1097	10039.85	9081.4
863.07	1149.0546	9962.65	9004.1
863.2148	1150.9989	9895.5	8938.3
863.3597	1152.9424	9812.85	8856.5
863.5045	1154.8852	9699.1	8742.4
863.6493	1156.8272	9623.6	8665.9
863.7942	1158.7686	9629.5	8667.85
863.939	1160.7092	9625.1	8667.45
864.0838	1162.6491	9657.95	8697.4
864.2286	1164.5883	9736.35	8780.45
864.3734	1166.5267	9857.85	8897.4
864.5182	1168.4644	10025.4	9070
864.663	1170.4014	10203.15	9246.95
864.8078	1172.3377	10424.6	9474.55
864.9526	1174.2732	10744.95	9793.5
865.0974	1176.2081	11121.05	10168.5
865.2421	1178.1421	11532.65	10575.2
865.3869	1180.0755	11987.25	11035.1
865.5317	1182.0082	12259.45	11308.35
865.6764	1183.9401	12419.25	11467.65
865.8212	1185.8713	12284.55	11339.5
865.9659	1187.8017	12021.1	11083.55
866.1106	1189.7315	11643.2	10711.9
866.2554	1191.6605	11287.45	10358.1
866.4001	1193.5888	11014.05	10075.1
866.5448	1195.5163	10911.15	9968.05
866.6895	1197.4432	10804.6	9856.1
866.8342	1199.3693	10757.1	9808.25
866.9789	1201.2947	10702.45	9742.6
867.1236	1203.2193	10687.45	9734.65
867.2683	1205.1432	10712	9760.25
867.413	1207.0664	10711.25	9762.1
867.5576	1208.9889	10676.45	9721.95
867.7023	1210.9106	10674.2	9721.7
867.847	1212.8316	10657.3	9707.55
867.9916	1214.7519	10716.35	9758.75
868.1363	1216.6715	10732	9782.05
868.2809	1218.5903	10789.9	9839.2
868.4255	1220.5084	10846.45	9893.5
868.5701	1222.4257	10896.4	9945.9
868.7148	1224.3424	10941.6	9996.05
868.8594	1226.2583	11044.35	10091.65
869.004	1228.1735	11184	10232.45
869.1486	1230.0879	11293.55	10339.15
869.2932	1232.0016	11458.35	10508.3
869.4377	1233.9146	11545.9	10592.8
869.5823	1235.8269	11526.25	10574.3
869.7269	1237.7384	11479.75	10529.85
869.8715	1239.6492	11343.2	10391.85
870.016	1241.5592	11310.35	10361.8
870.1606	1243.4686	11295.15	10344.95
870.3051	1245.3772	11419.55	10468.3
870.4496	1247.285	11555.4	10603.4
870.5941	1249.1922	11696.3	10746.75
870.7387	1251.0986	11806.85	10858.85
870.8832	1253.0042	11851.85	10902.05
871.0277	1254.9092	11952.75	11005.25
871.1722	1256.8134	12022.75	11075.15
871.3167	1258.7169	12197.35	11249.25
871.4611	1260.6196	12347.45	11400.35
871.6056	1262.5216	12557.3	11606.8
871.7501	1264.4229	12729.45	11782.55
871.8945	1266.3234	12911.6	11962.8
872.039	1268.2232	13052.35	12102.85
872.1834	1270.1223	13107.5	12157.8
872.3278	1272.0207	13109.65	12160.1
872.4723	1273.9183	13109.95	12153.55
872.6167	1275.8151	13057.7	12110.45
872.7611	1277.7113	13034.95	12089.25
872.9055	1279.6067	13067.2	12122.15
873.0499	1281.5014	13206.45	12254.7
873.1943	1283.3953	13444.65	12495.6
873.3386	1285.2885	13848.25	12900.55
873.483	1287.181	14232.15	13282.65
873.6274	1289.0727	14602.85	13656.45
873.7717	1290.9637	14863.9	13917.25
873.9161	1292.854	15035.25	14087.9
874.0604	1294.7435	15037.6	14091.45
874.2047	1296.6323	15037.7	14091.2
874.349	1298.5204	14956.15	14003.55
874.4933	1300.4077	14862.9	13912.7
874.6376	1302.2943	14730.85	13781.05
874.7819	1304.1802	14526.65	13575.65
874.9262	1306.0653	14183.5	13238.7
875.0705	1307.9497	13787.8	12840.1
875.2147	1309.8333	13416.5	12473
875.359	1311.7162	13157.45	12209.3
875.5032	1313.5984	13014.25	12063
875.6475	1315.4798	12932.95	11971.6
875.7917	1317.3605	12882	11918.45
875.9359	1319.2405	12777.3	11826.65
876.0801	1321.1197	12587.1	11635.6
876.2243	1322.9982	12320.6	11370.2
876.3685	1324.876	12111.15	11162.55
876.5127	1326.753	11855.55	10908.6
876.6569	1328.6293	11704.95	10754.35
876.801	1330.5048	11588.95	10637.2
876.9452	1332.3796	11453.55	10507.3
877.0893	1334.2537	11385.55	10412.2
877.2335	1336.127	11301.6	10356
877.3776	1337.9996	11307.15	10359.35
877.5217	1339.8714	11274.35	10328
877.6658	1341.7426	11306.35	10316.4
877.8099	1343.6129	11306.9	10358.25
877.954	1345.4826	11273.25	10324
878.0981	1347.3515	11288.4	10338.3
878.2422	1349.2196	11236.8	10288.5
878.3862	1351.087	11269.25	10321.55
878.5303	1352.9537	11346.05	10399.5
878.6743	1354.8197	11465.8	10516.35
878.8184	1356.6849	11603.15	10654
878.9624	1358.5493	11714.3	10767.15
879.1064	1360.4131	11870.25	10922.45
879.2504	1362.276	11969.65	11024.15
879.3944	1364.1383	11963.1	11017.45
879.5384	1365.9998	11763.75	10811.8
879.6823	1367.8606	11436.05	10490.15
879.8263	1369.7206	11081.95	10129.25
879.9702	1371.5799	10780.25	9828.5
880.1142	1373.4384	10521.35	9571.15
880.2581	1375.2962	10304.8	9352.95
880.402	1377.1533	10007.3	9066.55
880.5459	1379.0096	9671.6	8731.15
880.6898	1380.8652	9333.2	8395.35
880.8337	1382.7201	9067.65	8124.95
880.9776	1384.5742	8837.8	7891.9
881.1215	1386.4275	8650.65	7702.5
881.2653	1388.2802	8510.2	7565.85
881.4092	1390.132	8382.65	7435.45
881.553	1391.9832	8329.35	7384.2
881.6968	1393.8336	8231.35	7285.6
881.8406	1395.6832	8193.25	7246.6
881.9844	1397.5322	8150.25	7204.7
882.1282	1399.3803	8140.6	7193.35
882.272	1401.2278	8083.15	7135.65
882.4158	1403.0745	8098.5	7157.7
882.5595	1404.9204	8068.15	7125.85
882.7033	1406.7656	8079.6	7131.95
882.847	1408.6101	8088.6	7141.95
882.9908	1410.4538	8125.05	7176.65
883.1345	1412.2968	8166.95	7221.25
883.2782	1414.139	8214.6	7269.15
883.4219	1415.9805	8285.5	7342.35
883.5656	1417.8213	8365.4	7415.1
883.7092	1419.6613	8468.8	7525.55
883.8529	1421.5006	8609.75	7667.1
883.9965	1423.3391	8813.9	7867.8
884.1402	1425.1769	9092.4	8147.2
884.2838	1427.0139	9524.7	8580.8
884.4274	1428.8502	10060.25	9114.3
884.571	1430.6858	10585.65	9643.2
884.7146	1432.5206	10956.8	10014.5
884.8582	1434.3547	11206.25	10261.7
885.0018	1436.188	11203.9	10261.9
885.1453	1438.0206	11126.65	10184.2
885.2889	1439.8524	10968.2	10023.9
885.4324	1441.6835	10882.35	9939.35
885.5759	1443.5139	10795.9	9850.95
885.7194	1445.3435	10672.15	9728.35
885.8629	1447.1724	10660.8	9719.9
886.0064	1449.0005	10601.55	9663.95
886.1499	1450.8279	10539.95	9597.85
886.2933	1452.6545	10520.6	9581.25
886.4368	1454.4804	10564.95	9627.6
886.5802	1456.3056	10548.45	9604.9
886.7237	1458.13	10488.45	9551.9
886.8671	1459.9536	10308.5	9366.7
887.0105	1461.7766	10033.55	9088.65
887.1539	1463.5987	9684.35	8744.25
887.2972	1465.4202	9354.3	8413.35
887.4406	1467.2409	9011.45	8069.65
887.584	1469.0608	8750.65	7809.95
887.7273	1470.88	8478.65	7538.85
887.8706	1472.6984	8277.6	7339.45
888.0139	1474.5161	8078.05	7132.55
888.1572	1476.3331	7931.05	6992.4
888.3005	1478.1493	7801.1	6857.75
888.4438	1479.9648	7711.35	6769
888.5871	1481.7795	7628.55	6686.8
888.7303	1483.5935	7553.65	6612.55
888.8736	1485.4067	7503.5	6561.35
889.0168	1487.2192	7461.85	6520.1
889.16	1489.031	7419.35	6477.9
889.3032	1490.842	7383.7	6445
889.4464	1492.6522	7338.35	6399.2
889.5896	1494.4618	7327.9	6389.4
889.7327	1496.2705	7296.05	6356.3
889.8759	1498.0785	7262.75	6324.7
890.019	1499.8858	7217.25	6277.3
890.1622	1501.6924	7164.7	6227.5
890.3053	1503.4981	7127.95	6188.25
890.4484	1505.3032	7090.45	6150.95
890.5914	1507.1075	7055	6115.45
890.7345	1508.911	7015.25	6077.4
890.8776	1510.7138	6993.3	6054.95
891.0206	1512.5159	6921.3	5982.55
891.1637	1514.3172	6889.2	5952.7
891.3067	1516.1178	6839	5902.8
891.4497	1517.9176	6819.45	5877.75
891.5927	1519.7166	6763.35	5827.35
891.7357	1521.515	6755.75	5811.55
891.8786	1523.3126	6726.5	5793.1
892.0216	1525.1094	6687.75	5750.05
892.1645	1526.9055	6667.25	5732.3
892.3074	1528.7008	6646.65	5712.15
892.4503	1530.4954	6611.85	5675.75
892.5932	1532.2893	6606.65	5676.7
892.7361	1534.0824	6568.7	5634.45
892.879	1535.8747	6582.95	5655.35
893.0218	1537.6663	6546.8	5614.8
893.1647	1539.4572	6531.95	5600.2
893.3075	1541.2473	6568	5637.05
893.4503	1543.0367	6554.8	5624.9
893.5931	1544.8253	6563.15	5627.5
893.7359	1546.6132	6576.45	5642.95
893.8787	1548.4003	6615.55	5673.55
894.0214	1550.1867	6663.6	5724.95
894.1642	1551.9723	6721.15	5787.35
894.3069	1553.7572	6788.25	5858.6
894.4496	1555.5414	6861.8	5932.25
894.5923	1557.3247	7000.7	6073.55
894.735	1559.1074	7145.35	6223.2
894.8777	1560.8893	7300.5	6375.05
895.0204	1562.6705	7399.45	6475.95
895.163	1564.4509	7518.1	6594.85
895.3056	1566.2305	7582.45	6660.65
895.4482	1568.0094	7656.9	6736.7
895.5908	1569.7876	7640.5	6719.55
895.7334	1571.565	7609.85	6686.3
895.876	1573.3417	7611.85	6687.6
896.0186	1575.1176	7599.95	6678.85
896.1611	1576.8928	7592.25	6670.9
896.3036	1578.6672	7570.85	6658.15
896.4461	1580.4409	7553.85	6639.6
896.5886	1582.2138	7528.65	6611.15
896.7311	1583.986	7538.25	6615.65
896.8736	1585.7575	7585.45	6667.4
897.0161	1587.5282	7651.9	6736.6
897.1585	1589.2981	7713.6	6799.5
897.3009	1591.0673	7750	6837.05
897.4433	1592.8358	7862.4	6948
897.5857	1594.6035	7921.95	7003.2
897.7281	1596.3704	7999.55	7076.35
897.8705	1598.1366	8096.8	7176.55
898.0128	1599.9021	8195.5	7280.35
898.1551	1601.6668	8275.9	7355.9
898.2975	1603.4308	8426.7	7507.9
898.4398	1605.194	8577.65	7658.05
898.5821	1606.9564	8759.3	7851.25
898.7243	1608.7182	8972.75	8064.75
898.8666	1610.4791	9210.05	8307.55
899.0088	1612.2394	9479.85	8578.95
899.1511	1613.9988	9763.8	8859.2
899.2933	1615.7576	10025.8	9114.6
899.4355	1617.5156	10228.05	9302.7
899.5776	1619.2728	10322.5	9402.6
899.7198	1621.0293	10290.6	9372.8
899.862	1622.785	10131.55	9213.55
900.0041	1624.54	9866.7	8953.9
900.1462	1626.2942	9560.5	8649.55
900.2883	1628.0477	9216.1	8304.5
900.4304	1629.8005	8892.4	7979.6
900.5725	1631.5525	8604.4	7697.1
900.7145	1633.3037	8336.55	7427.75
900.8566	1635.0542	8174.85	7266.85
900.9986	1636.804	8017.25	7107.2
901.1406	1638.553	7971.45	6970.85
901.2826	1640.3013	7873	6962.25
901.4245	1642.0488	7833.1	6921.45
901.5665	1643.7955	7832.1	6925.65
901.7085	1645.5416	7912.85	7006.15
901.8504	1647.2868	8025.6	7115.4
901.9923	1649.0313	8129.1	7217.15
902.1342	1650.7751	8264.35	7352.15
902.2761	1652.5181	8416.2	7508.4
902.4179	1654.2604	8572.75	7667
902.5598	1656.0019	8784.3	7876.2
902.7016	1657.7427	9067.05	8157.6
902.8434	1659.4828	9328.45	8418.2
902.9852	1661.222	9495.85	8584.1
903.127	1662.9606	9435.3	8525
903.2687	1664.6984	9200.85	8289.4
903.4105	1666.4354	8825.25	7909.2
903.5522	1668.1717	8289.9	7373.8
903.6939	1669.9072	7713.3	6799.8
903.8356	1671.642	7253.6	6338.95
903.9773	1673.3761	6870.8	5957.25
904.119	1675.1094	6571	5659.45
904.2606	1676.8419	6337.5	5425.85
904.4022	1678.5737	6131.85	5219.9
904.5439	1680.3048	5975	5062.1
904.6855	1682.0351	5857.05	4946.05
904.827	1683.7646	5737.1	4822.4
904.9686	1685.4934	5659.55	4748.35
905.1101	1687.2215	5565.45	4655.25
905.2517	1688.9488	5503.25	4594.15
905.3932	1690.6754	5430.2	4521.15
905.5347	1692.4012	5389.95	4478.05
905.6761	1694.1263	5359.3	4448.2
905.8176	1695.8506	5325.25	4413.95
905.9591	1697.5742	5268	4361.4
906.1005	1699.297	5239	4335
906.2419	1701.0191	5184.15	4280.15
906.3833	1702.7404	5137.4	4234.25
906.5246	1704.461	5105	4196.35
906.666	1706.1808	5070.2	4160.6
906.8073	1707.8999	5063.65	4158.8
906.9487	1709.6182	5042.8	4140.65
907.09	1711.3358	4997.95	4097
907.2313	1713.0527	4996.5	4097.5
907.3725	1714.7688	4975.5	4067.55
907.5138	1716.4841	4924.25	4017.1
907.655	1718.1987	4929	4016.6
907.7962	1719.9126	4880.55	3979.6
907.9374	1721.6257	4858.75	3957.75
908.0786	1723.338	4863.65	3966.6
908.2198	1725.0496	4822.4	3921.15
908.3609	1726.7605	4840.2	3934.75
908.502	1728.4706	4824.5	3918.6
908.6431	1730.18	4792.85	3890.8
908.7842	1731.8886	4775.45	3877.85
908.9253	1733.5964	4795.85	3879.25
909.0664	1735.3036	4744.05	3838.25
909.2074	1737.0099	4723.75	3824
909.3484	1738.7156	4701.85	3801.3
909.4894	1740.4204	4687.6	3782.95
909.6304	1742.1246	4659.8	3755.9
909.7714	1743.8279	4635.25	3736.45
909.9123	1745.5306	4608.5	3707.3
910.0532	1747.2325	4579.95	3681.8
910.1941	1748.9336	4580.4	3680.35
910.335	1750.634	4570	3664.65
910.4759	1752.3336	4545.4	3645.65
910.6168	1754.0325	4545.6	3648.9
910.7576	1755.7307	4523.85	3628.5
910.8984	1757.4281	4509.05	3607.45
911.0392	1759.1247	4513.85	3601.5
911.18	1760.8206	4504.05	3592.65
911.3208	1762.5158	4498.7	3588.1
911.4615	1764.2102	4482.85	3581.3
911.6022	1765.9039	4457.6	3556.95
911.7429	1767.5968	4456.95	3560.4
911.8836	1769.289	4424.45	3527.45
912.0243	1770.9804	4417.85	3516.3
912.1649	1772.6711	4425.75	3522.1
912.3056	1774.361	4402.1	3498.65
912.4462	1776.0502	4393.45	3488.7
912.5868	1777.7386	4384.2	3478.45
912.7274	1779.4263	4380.65	3480.15
912.8679	1781.1132	4361.55	3463.9
913.0084	1782.7994	4354.7	3457.85
913.149	1784.4849	4339.4	3443.15
913.2895	1786.1696	4348.75	3432.55
913.4299	1787.8535	4324.45	3428.65
913.5704	1789.5367	4314.9	3418.8
913.7108	1791.2192	4312.55	3417.35
913.8513	1792.9009	4316.7	3394.8
913.9917	1794.5818	4310.5	3409.6
914.132	1796.2621	4277.45	3378.85
914.2724	1797.9415	4277.8	3375.4
914.4128	1799.6202	4265.25	3367.25
914.5531	1801.2982	4254	3353.1
914.6934	1802.9755	4235.9	3330.85
914.8337	1804.6519	4232.45	3331.05
914.9739	1806.3277	4205.65	3306.05
915.1142	1808.0027	4208.05	3312
915.2544	1809.6769	4196.1	3303.25
915.3946	1811.3504	4175.35	3279.95
915.5348	1813.0231	4178.45	3286.1
915.675	1814.6951	4164.05	3269.25
915.8151	1816.3664	4190.05	3289.8
915.9553	1818.0369	4165.25	3266.25
916.0954	1819.7067	4166.45	3267.6
916.2355	1821.3757	4146.75	3244.6
916.3755	1823.044	4147.95	3248.45
916.5156	1824.7115	4141.6	3241.15
916.6556	1826.3783	4110.15	3211.7
916.7956	1828.0443	4103.8	3207.2
916.9356	1829.7096	4106.35	3206.2
917.0756	1831.3741	4105.05	3203.15
917.2155	1833.0379	4086.25	3190.35
917.3555	1834.701	4100.8	3203.95
917.4954	1836.3633	4074.65	3181.35
917.6353	1838.0248	4058.95	3162.85
917.7751	1839.6856	4065.5	3168.35
917.915	1841.3457	4057.6	3161.7
918.0548	1843.005	4062.6	3164.1
918.1946	1844.6636	4043.6	3147.15
918.3344	1846.3214	4025.95	3128.95
918.4742	1847.9785	4038.75	3139.7
918.6139	1849.6349	4019.2	3118
918.7537	1851.2904	4041.9	3131.05
918.8934	1852.9453	4001.85	3097.85
919.0331	1854.5994	3999.95	3101.15
919.1727	1856.2528	4003.75	3100.55
919.3124	1857.9054	4004.95	3103.4
919.452	1859.5572	4006.65	3110.75
919.5916	1861.2083	3988.35	3092.7
919.7312	1862.8587	3984.05	3085.75
919.8708	1864.5084	3972.1	3069.75
920.0103	1866.1572	3969.6	3069.1
920.1498	1867.8054	3938.2	3035.95
920.2893	1869.4528	3930.55	3029.35
920.4288	1871.0994	3930.85	3029.7
920.5683	1872.7453	3925.35	3025.9
920.7077	1874.3905	3913.95	3010.4
920.8471	1876.0349	3910.75	3011.55
920.9865	1877.6786	3885.9	2986.45
921.1259	1879.3215	3892.7	2996.05
921.2653	1880.9637	3892.3	2994.55
921.4046	1882.6051	3863.05	2965.85
921.5439	1884.2458	3868.25	2970
921.6832	1885.8858	3859.8	2962.55
921.8225	1887.525	3842.45	2945.75
921.9617	1889.1634	3839.95	2939.75
922.101	1890.8011	3827.85	2927.5
922.2402	1892.4381	3811.1	2911.6
922.3794	1894.0743	3828.25	2929.75
922.5185	1895.7098	3829.6	2934.3
922.6577	1897.3446	3803.1	2906.55
922.7968	1898.9786	3822.4	2921.65
922.9359	1900.6118	3793.3	2897.1
923.075	1902.2443	3780.6	2881.65
923.214	1903.8761	3770.2	2873.2
923.3531	1905.5071	3750	2852.25
923.4921	1907.1374	3741.85	2843.3
923.6311	1908.7669	3753.1	2856.85
923.77	1910.3957	3730.3	2833.65
923.909	1912.0237	3721	2823.9
924.0479	1913.651	3712.45	2813.95
924.1868	1915.2776	3694.15	2797.2
924.3257	1916.9034	3686.6	2790.15
924.4646	1918.5285	3667.3	2773.1
924.6034	1920.1528	3667.8	2770.4
924.7422	1921.7764	3669.95	2773.45
924.881	1923.3992	3660.45	2764
925.0198	1925.0213	3639.2	2742
925.1586	1926.6427	3626.6	2729.5
925.2973	1928.2633	3687.3	2709.35
925.436	1929.8832	3641.9	2742.3
925.5747	1931.5023	3599.05	2701.8
925.7134	1933.1207	3595.05	2696.95
925.852	1934.7383	3600.1	2703
925.9906	1936.3552	3594.45	2700.2
926.1292	1937.9714	3571.75	2676.7
926.2678	1939.5868	3575.75	2675.7
926.4064	1941.2015	3553.9	2653.3
926.5449	1942.8154	3541.75	2642.95
926.6834	1944.4286	3519.85	2619.4
926.8219	1946.041	3520.25	2606.95
926.9604	1947.6528	3517.9	2614.75
927.0988	1949.2637	3497.05	2600.75
927.2372	1950.8739	3476.9	2580.35
927.3756	1952.4834	3483.15	2585.9
927.514	1954.0921	3482.75	2587.4
927.6523	1955.7001	3477.5	2578.8
927.7907	1957.3074	3470.15	2582.4
927.929	1958.9139	3451.9	2559.8
928.0673	1960.5197	3432.6	2538.65
928.2055	1962.1247	3414.45	2521.05
928.3438	1963.729	3406.35	2514.85
928.482	1965.3325	3406.1	2506.5
928.6202	1966.9353	3387.05	2497.75
928.7584	1968.5374	3392.65	2498.2
928.8965	1970.1387	3370	2478.65
929.0346	1971.7393	3366.35	2473.35
929.1727	1973.3392	3366.1	2474.7
929.3108	1974.9383	3353	2462.95
929.4489	1976.5366	3329.05	2438
929.5869	1978.1342	3326.7	2438.55
929.7249	1979.7311	3344.9	2450.5
929.8629	1981.3273	3311.8	2423.95
930.0009	1982.9227	3324.1	2433.95
930.1388	1984.5173	3302.15	2414.1
930.2767	1986.1112	3273.5	2385.25
930.4146	1987.7044	3283.6	2396.6
930.5525	1989.2968	3283.75	2391.9
930.6904	1990.8885	3278.3	2387.5
930.8282	1992.4795	3272.75	2386.65
930.966	1994.0697	3254.85	2369.15
931.1038	1995.6592	3239.05	2352.1
931.2415	1997.2479	3238.5	2348.95
931.3793	1998.8359	3247.4	2360.25
931.517	2000.4232	3228.75	2344.8
931.6547	2002.0097	3205.35	2325
931.7923	2003.5955	3197.05	2314.25
931.93	2005.1805	3222.1	2335.7
932.0676	2006.7648	3217	2332.1
932.2052	2008.3484	3185.55	2300.1
932.3427	2009.9312	3191.8	2308.55
932.4803	2011.5133	3166.75	2285.5
932.6178	2013.0946	3174.5	2293.55
932.7553	2014.6752	3168.65	2285.55
932.8928	2016.2551	3162.2	2276.55
933.0302	2017.8342	3157.6	2271.6
933.1676	2019.4126	3149.2	2263.5
933.305	2020.9902	3146.35	2265.45
933.4424	2022.5672	3133.35	2249.35
933.5798	2024.1433	3129.8	2244.2
933.7171	2025.7188	3117.2	2237.35
933.8544	2027.2935	3111.85	2230.15
933.9917	2028.8674	3110.4	2229.65
934.129	2030.4406	3088.6	2209
934.2662	2032.0131	3079.7	2201.1
934.4034	2033.5849	3079.7	2197.5
934.5406	2035.1559	3080.65	2202.5
934.6778	2036.7261	3075.4	2190.9
934.8149	2038.2957	3082.1	2194.85
934.952	2039.8645	3070.75	2181.95
935.0891	2041.4325	3061.65	2172.9
935.2262	2042.9998	3049.25	2164.6
935.3632	2044.5664	3045.7	2163.8
935.5002	2046.1323	3052.85	2170.55
935.6372	2047.6974	3045.5	2163.25
935.7742	2049.2617	3017.25	2137.6
935.9111	2050.8254	3046.85	2140.4
936.048	2052.3883	3017.55	2132.15
936.1849	2053.9504	3020.55	2135.05
936.3218	2055.5118	3000.95	2115
936.4586	2057.0725	3002.85	2113.6
936.5955	2058.6325	2991.75	2110.2
936.7323	2060.1917	2988.2	2103.8
936.869	2061.7502	2987.15	2105.55
937.0058	2063.3079	2978.35	2099.85
937.1425	2064.8649	2975.95	2091.3
937.2792	2066.4212	2975.05	2090.15
937.4159	2067.9767	2962.6	2077.15
937.5525	2069.5315	2946.15	2060.5
937.6891	2071.0856	2948.75	2066.7
937.8257	2072.6389	2935.4	2052
937.9623	2074.1915	2917	2037.75
938.0989	2075.7433	2905.95	2020.45
938.2354	2077.2945	2909.2	2025.65
938.3719	2078.8448	2913.3	2027.1
938.5084	2080.3945	2910.85	2024.3
938.6448	2081.9434	2882.15	1995.35
938.7812	2083.4916	2894.55	2005.35
938.9176	2085.039	2890.2	1996.35
939.054	2086.5857	2884.45	1989.5
939.1903	2088.1317	2875.9	1982.85
939.3267	2089.677	2884.6	1990.45
939.463	2091.2215	2860.6	1966.05
939.5992	2092.7652	2864.9	1970.3
939.7355	2094.3083	2849.4	1957.05
939.8717	2095.8506	2851.25	1960.1
940.0079	2097.3921	2852.4	1965.4
940.1441	2098.933	2844.65	1957.55
940.2802	2100.4731	2845.3	1956.1
940.4163	2102.0124	2838.55	1941.9
940.5524	2103.5511	2843.2	1954.9
940.6885	2105.089	2831.1	1939.2
940.8245	2106.6261	2817.95	1928.35
940.9606	2108.1626	2814.4	1923.2
941.0965	2109.6983	2841.6	1927.95
941.2325	2111.2332	2805.65	1914.7
941.3684	2112.7675	2810.45	1920.35
941.5044	2114.301	2802.35	1910.05
941.6403	2115.8337	2807.6	1916.9
941.7761	2117.3657	2782.75	1893.15
941.912	2118.897	2780.95	1887.45
942.0478	2120.4276	2779.1	1882.05
942.1835	2121.9575	2777.95	1886.2
942.3193	2123.4866	2781.95	1890.75
942.455	2125.0149	2760.8	1871.1
942.5907	2126.5426	2747.9	1859.15
942.7264	2128.0695	2735.15	1849
942.8621	2129.5956	2730.65	1849.1
942.9977	2131.1211	2735.95	1846.25
943.1333	2132.6458	2723.25	1836.35
943.2689	2134.1698	2725.8	1834.5
943.4044	2135.693	2724.3	1829.7
943.54	2137.2155	2721.85	1827.7
943.6755	2138.7373	2713.45	1826.35
943.8109	2140.2584	2698.1	1814.75
943.9464	2141.7787	2701.4	1813.8
944.0818	2143.2983	2690.35	1808.35
944.2172	2144.8171	2674.15	1791.3
944.3526	2146.3353	2681.75	1795.95
944.4879	2147.8527	2674.3	1789.35
944.6232	2149.3693	2681.4	1792.25
944.7585	2150.8853	2673.1	1780.35
944.8938	2152.4005	2666.2	1772.7
945.029	2153.9149	2676.1	1784.6
945.1642	2155.4287	2661.7	1769.5
945.2994	2156.9417	2660.95	1771.7
945.4346	2158.454	2636.55	1746.85
945.5697	2159.9655	2626.45	1737.9
945.7048	2161.4764	2633.25	1746.95
945.8399	2162.9865	2625.5	1737.6
945.9749	2164.4958	2619.9	1733.15
946.1099	2166.0045	2610.55	1722
946.2449	2167.5124	2608.35	1720.5
946.3799	2169.0195	2616.85	1726.55
946.5148	2170.526	2612.9	1720.25
946.6498	2172.0317	2607.7	1720.15
946.7846	2173.5367	2604.75	1716.3
946.9195	2175.0409	2591.6	1704.25
947.0543	2176.5445	2591.15	1702.05
947.1891	2178.0473	2590.3	1698.7
947.3239	2179.5494	2589.05	1695.05
947.4587	2181.0507	2586.8	1695.4
947.5934	2182.5513	2572.2	1681.25
947.7281	2184.0512	2562.75	1670.9
947.8628	2185.5504	2561.95	1672.2
947.9974	2187.0488	2555.15	1667.05
948.132	2188.5465	2540.55	1657.05
948.2666	2190.0435	2545.8	1658.3
948.4012	2191.5397	2533.85	1642.45
948.5357	2193.0353	2533.65	1643.65
948.6702	2194.5301	2529.2	1635.5
948.8047	2196.0241	2524.75	1631.25
948.9392	2197.5175	2529.05	1635.05
949.0736	2199.0101	2518.85	1620.45
949.208	2200.502	2501.8	1611.85
949.3424	2201.9931	2495.45	1608.6
949.4767	2203.4835	2500.6	1614.35
949.611	2204.9733	2496.25	1594.05
949.7453	2206.4622	2479.45	1595.3
949.8796	2207.9505	2477.5	1592.05
950.0138	2209.438	2464.9	1582.95
950.148	2210.9248	2462.65	1576.8
950.2822	2212.4109	2473.9	1585.05
950.4164	2213.8962	2457.35	1563.8
950.5505	2215.3809	2474.6	1578.9
950.6846	2216.8648	2455.05	1559.6
950.8186	2218.3479	2451.1	1548.2
950.9527	2219.8304	2448.25	1549.4
951.0867	2221.3121	2451.85	1553.55
951.2207	2222.7931	2439.5	1541.85
951.3546	2224.2733	2418.75	1527.05
951.4886	2225.7529	2419.9	1531.45
951.6225	2227.2317	2413.35	1525.2
951.7563	2228.7098	2409.8	1523.2
951.8902	2230.1872	2398.35	1511.55
952.024	2231.6638	2393.95	1508.25
952.1578	2233.1397	2388.6	1497.75
952.2916	2234.6149	2390.85	1503.45
952.4253	2236.0894	2383.25	1497.2
952.559	2237.5632	2395.25	1493.55
952.6927	2239.0362	2385.55	1496.85
952.8263	2240.5085	2368.5	1479.8
952.9599	2241.9801	2359.35	1469.2
953.0935	2243.4509	2359.55	1469
953.2271	2244.921	2368.85	1474.45
953.3606	2246.3904	2354.95	1458.3
953.4941	2247.8591	2350.5	1458.25
953.6276	2249.3271	2336.1	1443.9
953.7611	2250.7943	2329.85	1436.6
953.8945	2252.2608	2332.95	1439.75
954.0279	2253.7266	2325.4	1435.4
954.1612	2255.1917	2324.9	1434.95
954.2946	2256.656	2311.65	1423.5
954.4279	2258.1197	2307.55	1420.55
954.5612	2259.5826	2308.2	1419.8
954.6944	2261.0447	2316.8	1427.25
954.8276	2262.5062	2305.2	1413.25
954.9608	2263.9669	2290.6	1396.5
955.094	2265.4269	2298.6	1405.65
955.2271	2266.8862	2297.95	1409.2
955.3602	2268.3448	2281.3	1390.5
955.4933	2269.8026	2287.2	1399.3
955.6264	2271.2598	2270.5	1382.7
955.7594	2272.7162	2262.9	1375.35
955.8924	2274.1719	2276.5	1385.1
956.0253	2275.6268	2282	1390
956.1583	2277.0811	2269.65	1375.35
956.2912	2278.5346	2267	1377.7
956.4241	2279.9874	2262.5	1376.85
956.5569	2281.4395	2265.2	1378.05
956.6897	2282.8908	2257.6	1365.65
956.8225	2284.3414	2249.9	1358.75
956.9553	2285.7914	2243.75	1354.35
957.088	2287.2406	2237.9	1341.9
957.2207	2288.689	2245.8	1349.45
957.3534	2290.1368	2236.1	1339.8
957.486	2291.5838	2241.9	1341.35
957.6186	2293.0302	2242.6	1343.9
957.7512	2294.4758	2229.9	1334.5
957.8838	2295.9206	2225.5	1330.5
958.0163	2297.3648	2218.6	1328.95
958.1488	2298.8082	2216.25	1325.95
958.2813	2300.251	2210.35	1316.65
958.4137	2301.693	2208.35	1310.5
958.5461	2303.1343	2212.95	1315.8
958.6785	2304.5748	2185.15	1294.1
958.8108	2306.0147	2182.2	1292.15
958.9432	2307.4538	2190.8	1302.45
959.0754	2308.8922	2177.5	1294.3
959.2077	2310.3299	2180.8	1294.1
959.3399	2311.7669	2179.6	1292.25
959.4721	2313.2031	2172.7	1283
959.6043	2314.6387	2172.45	1279.75
959.7365	2316.0735	2168.05	1278
959.8686	2317.5076	2168.55	1275.95
960.0006	2318.941	2167.8	1273.8
960.1327	2320.3737	2164.55	1269.6
960.2647	2321.8056	2161.05	1265.5
960.3967	2323.2369	2156.05	1262.3
960.5287	2324.6674	2148.2	1257.05
960.6606	2326.0972	2136.8	1245.3
960.7925	2327.5263	2129	1238.25
960.9244	2328.9547	2138.35	1245.55
961.0562	2330.3823	2130.95	1235.5
961.1881	2331.8092	2140	1242.45
961.3198	2333.2355	2134.7	1239.7
961.4516	2334.661	2127.05	1232.55
961.5833	2336.0858	2126.25	1231.25
961.715	2337.5098	2113.6	1221.85
961.8467	2338.9332	2119.35	1228.65
961.9783	2340.3558	2113.8	1219.6
962.1099	2341.7778	2097.95	1208.35
962.2415	2343.199	2098.75	1206.3
962.373	2344.6195	2096.95	1207.05
962.5045	2346.0393	2097.55	1209.15
962.636	2347.4583	2097.35	1205.2
962.7675	2348.8767	2103.25	1212.05
962.8989	2350.2943	2096.5	1201.65
963.0303	2351.7113	2103.95	1207.55
963.1617	2353.1275	2089.4	1192.35
963.293	2354.543	2096.75	1192.65
963.4243	2355.9578	2087.4	1192.65
963.5556	2357.3718	2075.3	1184.2
963.6868	2358.7852	2080.6	1190.1
963.818	2360.1978	2066.1	1173.6
963.9492	2361.6098	2059.6	1169.95
964.0803	2363.021	2068.8	1174.5
964.2114	2364.4315	2058.6	1165.5
964.3425	2365.8413	2051.15	1159.65
964.4736	2367.2504	2046.35	1156.6
964.6046	2368.6587	2044.15	1153.75
964.7356	2370.0664	2038.35	1148
964.8666	2371.4733	2036.2	1143.25
964.9975	2372.8795	2040.3	1148.4
965.1284	2374.285	2027.45	1136.45
965.2593	2375.6899	2018.65	1126.6
965.3901	2377.0939	2014.3	1123.7
965.5209	2378.4973	2013.95	1123.2
965.6517	2379.9	2010.65	1118.15
965.7825	2381.3019	2013.8	1124.25
965.9132	2382.7032	2005.35	1118.1
966.0439	2384.1037	2005	1119.55
966.1745	2385.5035	1998.3	1109.95
966.3051	2386.9027	1986.25	1100.4
966.4357	2388.3011	1991.8	1101.8
966.5663	2389.6987	1992.25	1104.8
966.6968	2391.0957	1981.2	1092.8
966.8273	2392.492	1980.55	1091.6
966.9578	2393.8876	1971.05	1081.15
967.0882	2395.2824	1968.7	1078.5
967.2186	2396.6765	1965.7	1076.3
967.349	2398.07	1958.95	1070.05
967.4793	2399.4627	1966.15	1075.6
967.6097	2400.8547	1967.35	1076.1
967.7399	2402.246	1957.65	1062.35
967.8702	2403.6366	1947.9	1056.6
968.0004	2405.0265	1943.8	1057.95
968.1306	2406.4156	1944.65	1051.15
968.2607	2407.8041	1943.15	1050.95
968.3909	2409.1918	1937.15	1044.9
968.521	2410.5789	1927.05	1033.9
968.651	2411.9652	1938.4	1043.9
968.781	2413.3508	1926.95	1037.45
968.911	2414.7358	1921.35	1027.6
969.041	2416.12	1917.5	1028.65
969.1709	2417.5035	1928.7	1040.05
969.3008	2418.8863	1915.5	1024.2
969.4307	2420.2684	1913.85	1024.9
969.5606	2421.6497	1909	1016.6
969.6904	2423.0304	1901.15	1010
969.8201	2424.4104	1906.65	1017.7
969.9499	2425.7896	1902.55	1010.6
970.0796	2427.1682	1892	1003.3
970.2093	2428.546	1896.3	1006.5
970.3389	2429.9232	1892.3	1001.1
970.4685	2431.2996	1889.75	999.6
970.5981	2432.6753	1888.45	998.65
970.7277	2434.0503	1889.7	996.5
970.8572	2435.4246	1873	982.6
970.9867	2436.7982	1878.2	982.6
971.1161	2438.1711	1867.3	974.5
971.2456	2439.5433	1870.55	978.55
971.375	2440.9148	1876.85	978.55
971.5043	2442.2856	1859.65	970.35
971.6336	2443.6557	1855.9	963.8
971.7629	2445.025	1865.35	975.35
971.8922	2446.3937	1855.3	964.55
972.0214	2447.7617	1849.2	955.8
972.1506	2449.1289	1837.35	946.05
972.2798	2450.4955	1840.05	946.95
972.4089	2451.8613	1837.75	949.65
972.538	2453.2265	1839.65	949.1
972.6671	2454.5909	1840.7	951.55
972.7961	2455.9546	1835.55	944.85
972.9251	2457.3177	1831.65	942.85
973.0541	2458.68	1828.55	935.4
973.1831	2460.0416	1821.85	931.85
973.312	2461.4025	1816	927.1
973.4408	2462.7627	1839.8	940.95
973.5697	2464.1222	1821	933.55
973.6985	2465.4811	1819.45	929.65
973.8273	2466.8392	1812.7	922.95
973.956	2468.1966	1819.35	926.4
974.0847	2469.5533	1818.75	927.25
974.2134	2470.9093	1811.45	922.75
974.3421	2472.2645	1813.1	924.45
974.4707	2473.6191	1805.15	916.15
974.5993	2474.973	1802.9	912.2
974.7278	2476.3262	1809.3	918.2
974.8563	2477.6787	1806.65	917.25
974.9848	2479.0305	1788.4	898.65
975.1132	2480.3816	1793.9	906.6
975.2417	2481.7319	1789.95	902.2
975.37	2483.0816	1788.45	899.15
975.4984	2484.4306	1782.1	889.75
975.6267	2485.7789	1778.95	890.25
975.755	2487.1264	1777.8	887.25
975.8833	2488.4733	1772.15	883.5
976.0115	2489.8195	1778.5	881.25
976.1397	2491.165	1770.55	876.65
976.2678	2492.5097	1768.35	879.45
976.3959	2493.8538	1750.1	862.4
976.524	2495.1972	1761.65	871.45
976.6521	2496.5398	1759.1	865.55
976.7801	2497.8818	1757.55	864.3
976.9081	2499.2231	1755.35	864.25
977.036	2500.5637	1748.05	852.9
977.164	2501.9035	1748.15	857.05
977.2918	2503.2427	1743.9	850.15
977.4197	2504.5812	1743	852.6
977.5475	2505.919	1741.7	852.15
977.6753	2507.256	1733.65	844.3
977.8031	2508.5924	1729.2	839.2
977.9308	2509.9281	1734.9	835.85
978.0585	2511.2631	1722.5	832.6
978.1861	2512.5974	1725.9	836.25
978.3137	2513.9309	1722.7	831.1
978.4413	2515.2638	1747.9	832.5
978.5689	2516.596	1719.35	830.45
978.6964	2517.9275	1715	824.2
978.8239	2519.2583	1718.2	825.4
978.9513	2520.5884	1721.4	830.4
979.0788	2521.9178	1712.25	822.65
979.2062	2523.2465	1708.85	818.95
979.3335	2524.5745	1706.05	817.2
979.4608	2525.9018	1698.15	809.4
979.5881	2527.2284	1696.2	808.2
979.7154	2528.5543	1700.5	810.3
979.8426	2529.8796	1703.45	811.6
979.9698	2531.2041	1703.55	812.75
980.0969	2532.5279	1688	800.2
980.224	2533.851	1687.05	797.4
980.3511	2535.1735	1690.25	801.45
980.4781	2536.4952	1690.55	800.25
980.6052	2537.8163	1697.05	803.35
980.7321	2539.1366	1682.4	792.85
980.8591	2540.4562	1683.55	792
980.986	2541.7752	1677.85	787.7
981.1129	2543.0935	1685.5	794.75
981.2397	2544.411	1685.2	794.85
981.3665	2545.7279	1677.7	787.7
981.4933	2547.0441	1677.85	786.65
981.62	2548.3596	1683.65	790.75
981.7467	2549.6744	1667.3	778.15
981.8734	2550.9885	1667.6	772.25
982.0001	2552.3019	1659.8	769
982.1267	2553.6146	1662.9	770.8
982.2532	2554.9266	1664.7	773.8
982.3798	2556.2379	1665.3	773.45
982.5063	2557.5485	1674.7	786.3
982.6327	2558.8585	1668.15	770.75
982.7592	2560.1677	1670.75	776.55
982.8856	2561.4762	1657.7	765.4
983.0119	2562.7841	1655.75	762.45
983.1383	2564.0913	1655	765.9
983.2646	2565.3977	1648.15	759.35
983.3908	2566.7035	1657.1	765.5
983.517	2568.0086	1649.25	758.5
983.6432	2569.313	1653.2	760.9
983.7694	2570.6167	1657.15	764.15
983.8955	2571.9197	1646.55	756.35
984.0216	2573.222	1650.95	759.8
984.1476	2574.5236	1648.25	757.35
984.2737	2575.8246	1643.55	750.45
984.3996	2577.1248	1642.55	747.25
984.5256	2578.4244	1639.85	750.4
984.6515	2579.7232	1645.95	756.5
984.7774	2581.0214	1674.05	752.65
984.9032	2582.3189	1644	756.45
985.029	2583.6157	1650.8	754.95
985.1548	2584.9118	1632.45	742.7
985.2806	2586.2072	1636.2	746.65
985.4063	2587.5019	1637.3	746.75
985.5319	2588.7959	1628.75	738.65
985.6576	2590.0893	1645.1	750.8
985.7832	2591.3819	1633.35	741.5
985.9087	2592.6739	1638.15	748.8
986.0343	2593.9652	1633.9	742.35
986.1597	2595.2557	1632.15	742.05
986.2852	2596.5456	1636.85	745.3
986.4106	2597.8348	1632.65	742.45
986.536	2599.1234	1627.1	736.75
986.6614	2600.4112	1639.55	746.25
986.7867	2601.6983	1633.4	740.35
986.912	2602.9848	1637.05	747.45
987.0372	2604.2705	1636.15	736.7
987.1624	2605.5556	1629.55	741.85
987.2876	2606.84	1627.35	736.9
987.4128	2608.1237	1619.75	728.35
987.5379	2609.4067	1609.95	721.55
987.6629	2610.689	1624.1	725.75
987.788	2611.9707	1612.75	720.05
987.913	2613.2516	1617.15	723.3
988.0379	2614.5319	1602.1	714.35
988.1629	2615.8115	1596.8	708.05
988.2878	2617.0903	1600.3	710.35
988.4126	2618.3685	1599.55	710.65
988.5375	2619.6461	1601.95	712.45
988.6622	2620.9229	1596	709.35
988.787	2622.199	1596.75	706.2
988.9117	2623.4745	1593	705.05
989.0364	2624.7493	1593.3	703.65
989.161	2626.0234	1586.75	700.4
989.2857	2627.2968	1594.9	708.3
989.4102	2628.5695	1586.95	697.4
989.5348	2629.8415	1579.25	690.45
989.6593	2631.1128	1580.3	690.75
989.7837	2632.3835	1580.25	691
989.9082	2633.6535	1581.35	692.35
990.0326	2634.9228	1576.4	687.55
990.1569	2636.1914	1574	683.95
990.2812	2637.4593	1572.75	681.4
990.4055	2638.7265	1575.45	686.25
990.5298	2639.9931	1578.5	691.4
990.654	2641.259	1574.85	684.75
990.7782	2642.5242	1571.85	683
990.9023	2643.7887	1569.65	681.5
991.0264	2645.0525	1568.35	678.25
991.1505	2646.3156	1560.35	671.65
991.2745	2647.5781	1556.3	668.25
991.3985	2648.8398	1551.5	664
991.5225	2650.1009	1588.25	665.25
991.6464	2651.3613	1544.8	656.8
991.7703	2652.6211	1546.6	658.7
991.8942	2653.8801	1545.05	657.35
992.018	2655.1385	1547	655.2
992.1418	2656.3961	1546.9	657.25
992.2655	2657.6531	1547.9	658.25
992.3892	2658.9094	1555.9	665.9
992.5129	2660.1651	1542.25	655.25
992.6366	2661.42	1549.35	661.2
992.7602	2662.6743	1549.5	660.2
992.8837	2663.9279	1550.9	665.55
993.0073	2665.1808	1559.15	671.8
993.1307	2666.433	1551.95	661.15
993.2542	2667.6846	1559.1	671.8
993.3776	2668.9354	1557.2	667.75
993.501	2670.1856	1557.8	668.95
993.6244	2671.4351	1552.55	665.4
993.7477	2672.6839	1564.75	675.8
993.8709	2673.9321	1561.2	674.9
993.9942	2675.1795	1557.5	670.85
994.1174	2676.4263	1557.85	672.05
994.2405	2677.6724	1563.2	676.4
994.3637	2678.9179	1569.5	681.45
994.4868	2680.1626	1564.6	676.05
994.6098	2681.4067	1563.35	676.7
994.7328	2682.6501	1550.55	662.55
994.8558	2683.8928	1558.3	667.9
994.9788	2685.1348	1555.1	667.9
995.1017	2686.3761	1545.85	657.5
995.2245	2687.6168	1538.8	650.7
995.3474	2688.8568	1534.55	647.9
995.4702	2690.0961	1535.75	648.1
995.5929	2691.3348	1527.55	639.95
995.7156	2692.5727	1529.9	642.55
995.8383	2693.81	1531.15	642.9
995.961	2695.0466	1533.85	647.5
996.0836	2696.2826	1538.55	651
996.2062	2697.5178	1551.25	644.95
996.3287	2698.7524	1525.2	635.85
996.4512	2699.9863	1532.4	644.35
996.5737	2701.2195	1529.45	642.75
996.6961	2702.452	1535.85	647.4
996.8185	2703.6839	1536.95	647.6
996.9408	2704.9151	1541	654.3
997.0631	2706.1456	1543.55	657.95
997.1854	2707.3755	1545.75	660.95
997.3077	2708.6046	1558.65	667.25
997.4299	2709.8331	1557.3	670.75
997.552	2711.0609	1570.7	682.05
997.6742	2712.2881	1575.6	690.35
997.7963	2713.5145	1581	691.4
997.9183	2714.7403	1583.95	697.15
998.0403	2715.9654	1602.9	716.65
998.1623	2717.1899	1615.5	712.55
998.2842	2718.4136	1619.15	732.05
998.4062	2719.6367	1622.95	737.75
998.528	2720.8591	1638.7	744.4
998.6498	2722.0809	1641.05	753.65
998.7716	2723.3019	1655.1	766.95
998.8934	2724.5223	1664.45	774.5
999.0151	2725.7421	1674.35	787.05
999.1368	2726.9611	1665.8	774.95
999.2584	2728.1795	1681.85	788.65
999.38	2729.3972	1653.25	766.6
999.5016	2730.6142	1656.95	756.8
999.6231	2731.8306	1630.3	741.95
999.7446	2733.0462	1623.5	733.85
999.8661	2734.2612	1610.4	720.95
999.9875	2735.4756	1584.25	696.8
1000.1089	2736.6892	1562.6	676
1000.2302	2737.9022	1558	675.05
1000.3515	2739.1145	1540.8	654.1
1000.4728	2740.3262	1542.25	648.55
1000.594	2741.5372	1521.4	633.55
1000.7152	2742.7475	1512.85	624.85
1000.8363	2743.9571	1506.35	618.2
1000.9575	2745.1661	1495.95	603.3
1001.0785	2746.3744	1487.45	602.55
1001.1996	2747.582	1475.65	589.4
1001.3206	2748.7889	1472.55	584.05
1001.4415	2749.9952	1461.95	576.5
1001.5625	2751.2008	1460.25	573.75
1001.6833	2752.4057	1457.2	569.4
1001.8042	2753.61	1445.7	559.6
1001.925	2754.8136	1448.05	561.5
1002.0458	2756.0165	1445.35	560.75
1002.1665	2757.2188	1443.85	556.85
1002.2872	2758.4204	1447.25	563.15
1002.4078	2759.6213	1447.2	558.1
1002.5285	2760.8215	1449.2	559
1002.649	2762.0211	1435.75	549.55
1002.7696	2763.22	1440.75	552.15
1002.8901	2764.4182	1442.15	554.5
1003.0106	2765.6158	1432.5	545.65
1003.131	2766.8127	1429.3	544.15
1003.2514	2768.009	1423.65	538.45
1003.3717	2769.2045	1426.05	538.85
1003.492	2770.3994	1428.15	540.4
1003.6123	2771.5936	1416.3	529.7
1003.7325	2772.7872	1414.35	528.25
1003.8527	2773.9801	1413.15	524.9
1003.9729	2775.1723	1425.85	522
1004.093	2776.3639	1415	530.15
1004.2131	2777.5548	1405.35	518.15
1004.3331	2778.745	1418.6	530.75
1004.4531	2779.9346	1406.55	521.9
1004.5731	2781.1235	1414	529.15
1004.693	2782.3117	1421.9	537.45
1004.8129	2783.4992	1411.35	528.5
1004.9328	2784.6861	1410.4	524.85
1005.0526	2785.8723	1427.3	543.4
1005.1723	2787.0579	1421.7	534.85
1005.2921	2788.2428	1435.3	550.85
1005.4118	2789.427	1428.9	547.3
1005.5314	2790.6106	1441.85	558.3
1005.651	2791.7935	1449	564.4
1005.7706	2792.9757	1449.65	564.85
1005.8902	2794.1573	1465.35	578.9
1006.0097	2795.3382	1467.25	583.45
1006.1291	2796.5184	1478.35	595.35
1006.2485	2797.698	1492.75	604.7
1006.3679	2798.8769	1493.7	607
1006.4873	2800.0551	1512.75	627.75
1006.6066	2801.2327	1527.4	641.6
1006.7258	2802.4096	1532.3	647.8
1006.8451	2803.5859	1549.6	665.4
1006.9642	2804.7615	1567.75	682.9
1007.0834	2805.9364	1583.85	699.75
1007.2025	2807.1106	1608.3	726.75
1007.3216	2808.2842	1636.95	750.5
1007.4406	2809.4572	1654.7	769.4
1007.5596	2810.6294	1689.1	803.4
1007.6785	2811.801	1725	840.1
1007.7975	2812.972	1761.05	877.95
1007.9163	2814.1423	1793.65	907.15
1008.0352	2815.3119	1837.05	951.95
1008.154	2816.4808	1876.65	993.75
1008.2727	2817.6491	1925.9	1042
1008.3914	2818.8167	1971.1	1089
1008.5101	2819.9837	2036.45	1148.2
1008.6288	2821.15	2080.15	1196.4
1008.7474	2822.3157	2127.55	1246.45
1008.8659	2823.4807	2193.3	1308.45
1008.9844	2824.645	2237.3	1351
1009.1029	2825.8086	2287.2	1403.3
1009.2214	2826.9716	2348.7	1466.35
1009.3398	2828.134	2391.1	1509
1009.4581	2829.2957	2434.85	1552.55
1009.5764	2830.4567	2463.1	1581.9
1009.6947	2831.617	2485	1601.7
1009.813	2832.7767	2500.25	1616.45
1009.9312	2833.9358	2503.45	1622.1
1010.0493	2835.0941	2495	1607.6
1010.1675	2836.2519	2475.85	1593.65
1010.2855	2837.4089	2468.05	1584.35
1010.4036	2838.5653	2454.3	1572.55
1010.5216	2839.7211	2444.6	1561.05
1010.6396	2840.8761	2453.4	1568.1
1010.7575	2842.0306	2445.7	1561.45
1010.8754	2843.1843	2474.35	1591.6
1010.9932	2844.3374	2511.7	1629.45
1011.111	2845.4899	2556.25	1672.1
1011.2288	2846.6417	2617.55	1733.85
1011.3465	2847.7928	2669.3	1787.3
1011.4642	2848.9433	2741.65	1859
1011.5818	2850.0931	2795.35	1913.05
1011.6995	2851.2422	2854.6	1970.25
1011.817	2852.3907	2918.5	2036.05
1011.9345	2853.5385	2965	2080.05
1012.052	2854.6857	3023.65	2131.1
1012.1695	2855.8323	3066.85	2183.85
1012.2869	2856.9781	3117.6	2235.45
1012.4042	2858.1233	3175	2291.7
1012.5216	2859.2679	3214.05	2329.7
1012.6389	2860.4118	3259.6	2378.2
1012.7561	2861.555	3305.65	2419.85
1012.8733	2862.6976	3345.8	2463
1012.9905	2863.8395	3385.3	2502.85
1013.1076	2864.9808	3397.65	2515.05
1013.2247	2866.1214	3414.95	2533.7
1013.3417	2867.2614	3452.15	2569.5
1013.4587	2868.4007	3460.7	2576.25
1013.5757	2869.5393	3461.6	2575
1013.6926	2870.6773	3483.7	2597.15
1013.8095	2871.8146	3500.1	2612.6
1013.9263	2872.9513	3496	2606.75
1014.0431	2874.0874	3481.55	2599.85
1014.1599	2875.2227	3486.95	2602.2
1014.2766	2876.3574	3449.65	2567.3
1014.3933	2877.4915	3435.7	2554.15
1014.51	2878.6249	3414.4	2534.75
1014.6266	2879.7577	3385.8	2501.85
1014.7431	2880.8898	3377.5	2486
1014.8596	2882.0212	3353.85	2473.05
1014.9761	2883.152	3327.9	2447.1
1015.0925	2884.2821	3342.45	2459.8
1015.2089	2885.4116	3319.25	2435.85
1015.3253	2886.5405	3324.5	2441.8
1015.4416	2887.6686	3329.95	2445.95
1015.5579	2888.7962	3330.65	2450.05
1015.6741	2889.923	3344.7	2462.45
1015.7903	2891.0493	3355.9	2473.9
1015.9065	2892.1748	3379.15	2498.5
1016.0226	2893.2997	3371.1	2488.25
1016.1387	2894.424	3394.4	2512.95
1016.2547	2895.5476	3404.55	2522.4
1016.3707	2896.6706	3407.65	2527.95
1016.4866	2897.7929	3443.7	2562.75
1016.6025	2898.9145	3466.15	2583.65
1016.7184	2900.0355	3499.7	2619.05
1016.8342	2901.1559	3523.1	2639.05
1016.95	2902.2756	3550.35	2665.05
1017.0658	2903.3946	3586.1	2704.6
1017.1815	2904.513	3595.7	2712.25
1017.2971	2905.6308	3620.95	2738.05
1017.4127	2906.7479	3648.95	2767.8
1017.5283	2907.8643	3687.5	2806.15
1017.6439	2908.9801	3699.65	2817.4
1017.7594	2910.0953	3705.3	2825.15
1017.8748	2911.2098	3702.3	2817.15
1017.9902	2912.3236	3706.65	2818.7
1018.1056	2913.4368	3683.95	2799.95
1018.2209	2914.5494	3669.75	2788.55
1018.3362	2915.6613	3659.05	2770.65
1018.4515	2916.7725	3616.6	2733.6
1018.5667	2917.8831	3579.7	2695.75
1018.6819	2918.9931	3565.35	2681.15
1018.797	2920.1024	3518.1	2635.2
1018.9121	2921.211	3498.1	2617.25
1019.0271	2922.319	3496.15	2614.25
1019.1421	2923.4264	3475.2	2594.55
1019.2571	2924.5331	3454	2574.95
1019.372	2925.6391	3452.6	2570.15
1019.4869	2926.7445	3460.3	2578.45
1019.6017	2927.8493	3460.4	2578.6
1019.7165	2928.9534	3460.1	2578.5
1019.8313	2930.0569	3469.85	2586.55
1019.946	2931.1597	3466	2583.3
1020.0606	2932.2619	3461.2	2579.7
1020.1753	2933.3634	3457.8	2579.05
1020.2899	2934.4643	3458.1	2569.45
1020.4044	2935.5645	3457.2	2570.55
1020.5189	2936.6641	3428.75	2543.2
1020.6334	2937.763	3392.55	2511.95
1020.7478	2938.8613	3364.75	2482.9
1020.8622	2939.959	3315.3	2429.7
1020.9765	2941.056	3248.45	2368.3
1021.0908	2942.1523	3185.5	2304.4
1021.2051	2943.248	3117.65	2235.45
1021.3193	2944.3431	3024.55	2143.1
1021.4334	2945.4375	2917.25	2034.75
1021.5476	2946.5313	2834.15	1954.6
1021.6617	2947.6244	2726.9	1844.15
1021.7757	2948.7169	2640.15	1758
1021.8897	2949.8087	2551.85	1670.8
1022.0037	2950.8999	2462.5	1579.7
1022.1176	2951.9904	2398	1517.2
1022.2315	2953.0803	2323.35	1441.4
1022.3453	2954.1696	2255.4	1373.75
1022.4591	2955.2582	2208.95	1329.65
1022.5728	2956.3462	2170.15	1290.05
1022.6865	2957.4335	2124.8	1243.95
1022.8002	2958.5202	2104.6	1220.55
1022.9138	2959.6062	2066.05	1184.55
1023.0274	2960.6916	2052.65	1173.95
1023.141	2961.7764	2033.15	1152.35
1023.2545	2962.8605	2005.1	1124
1023.3679	2963.9439	1992.1	1111.75
1023.4813	2965.0267	1988.15	1106.8
1023.5947	2966.1089	1997.2	1094.75
1023.708	2967.1905	1973.55	1093.5
1023.8213	2968.2714	1973.45	1094.05
1023.9346	2969.3516	1969.65	1088.55
1024.0478	2970.4312	1964.9	1075.75
1024.1609	2971.5102	1970.75	1090.55
1024.274	2972.5885	1970.65	1090.45
1024.3871	2973.6662	1969.95	1084.4
1024.5002	2974.7432	1965.75	1087
1024.6132	2975.8196	1968.3	1086.15
1024.7261	2976.8954	1962.8	1085.25
1024.839	2977.9705	1948.7	1067.6
1024.9519	2979.045	1944.75	1063.6
1025.0647	2980.1188	1932.55	1054
1025.1775	2981.192	1925.95	1047.95
1025.2902	2982.2645	1893.25	1012.1
1025.4029	2983.3364	1876.15	998.05
1025.5156	2984.4077	1842.35	960.7
1025.6282	2985.4783	1820.65	934.95
1025.7407	2986.5483	1793.8	917.05
1025.8532	2987.6177	1763.65	882.95
1025.9657	2988.6864	1726.1	845.35
1026.0782	2989.7545	1697.1	813.85
1026.1906	2990.8219	1669	791.7
1026.3029	2991.8887	1633.45	752.1
1026.4152	2992.9548	1604.1	722.65
1026.5275	2994.0204	1573.4	693.3
1026.6397	2995.0852	1541	663.4
1026.7519	2996.1495	1517.95	635.15
1026.864	2997.2131	1490.75	610.2
1026.9761	2998.276	1479.2	599.3
1027.0882	2999.3383	1454.95	576.75
1027.2002	3000.4	1436.55	555.3
1027.3122	3001.4611	1413.75	535
1027.4241	3002.5215	1394.35	515.55
1027.536	3003.5812	1389	509.9
1027.6478	3004.6404	1365.1	485.45
1027.7596	3005.6989	1364.2	481.2
1027.8714	3006.7567	1348.85	469.7
1027.9831	3007.8139	1369.4	458.95
1028.0947	3008.8705	1336	456.65
1028.2064	3009.9264	1329.8	446.15
1028.3179	3010.9818	1319.05	438
1028.4295	3012.0364	1313.7	430.2
1028.541	3013.0905	1302.95	423.6
1028.6524	3014.1439	1292.55	411
1028.7638	3015.1966	1298.9	420.35
1028.8752	3016.2487	1292.25	412.2
1028.9865	3017.3002	1299.35	412.4
1029.0978	3018.3511	1291.75	413.45
1029.209	3019.4013	1285.35	404.55
1029.3202	3020.4509	1284.3	405.95
1029.4314	3021.4998	1284.35	405.05
1029.5425	3022.5481	1273.9	396.1
1029.6535	3023.5958	1276.9	399.3
1029.7645	3024.6428	1278.15	396.65
1029.8755	3025.6892	1278.75	400.1
1029.9864	3026.735	1273.35	392.2
1030.0973	3027.7802	1270.95	392.2
1030.2082	3028.8247	1280.65	402.45
1030.319	3029.8685	1275.1	394.65
1030.4297	3030.9118	1276.9	398.1
1030.5404	3031.9544	1278.05	399.85
1030.6511	3032.9963	1284.7	403.7
1030.7617	3034.0376	1289.1	409.3
1030.8723	3035.0783	1284.1	401.75
1030.9829	3036.1184	1289.15	410.15
1031.0934	3037.1578	1284.85	406.05
1031.2038	3038.1966	1296.85	417.15
1031.3142	3039.2348	1290.8	412.25
1031.4246	3040.2723	1302.75	415.3
1031.5349	3041.3092	1295.5	417.35
1031.6452	3042.3455	1290.65	411.8
1031.7554	3043.3811	1293.3	414.9
1031.8656	3044.4161	1292.4	414.2
1031.9758	3045.4505	1286.1	409.65
1032.0859	3046.4842	1288.75	409.1
1032.1959	3047.5173	1280.95	404.65
1032.3059	3048.5498	1274.75	394.95
1032.4159	3049.5816	1277.3	400.65
1032.5258	3050.6128	1270.95	389.55
1032.6357	3051.6434	1272.95	391.75
1032.7455	3052.6734	1263.15	383.3
1032.8553	3053.7027	1256.1	378.2
1032.9651	3054.7314	1250.95	372.1
1033.0748	3055.7594	1249.2	371.2
1033.1845	3056.7868	1251.2	371.95
1033.2941	3057.8136	1252	374.95
1033.4037	3058.8398	1240.95	364.55
1033.5132	3059.8653	1240.55	361.3
1033.6227	3060.8902	1237.5	358.05
1033.7321	3061.9145	1234.35	356.9
1033.8415	3062.9381	1232.75	355.65
1033.9509	3063.9612	1244.35	350.1
1034.0602	3064.9835	1232	352.75
1034.1694	3066.0053	1228.15	348.55
1034.2787	3067.0264	1213.8	335.4
1034.3878	3068.0469	1217.7	337.9
1034.497	3069.0668	1221.1	341.3
1034.6061	3070.086	1202.35	325.8
1034.7151	3071.1046	1196.15	316.6
1034.8241	3072.1226	1191.7	311.5
1034.9331	3073.1399	1186.75	310.6
1035.042	3074.1567	1179.15	299.8
1035.1508	3075.1727	1171.3	288.95
1035.2597	3076.1882	1164.5	287.6
1035.3684	3077.203	1164.8	285.1
1035.4772	3078.2173	1151.3	272.45
1035.5859	3079.2308	1145.8	264.2
1035.6945	3080.2438	1142.15	264.2
1035.8031	3081.2561	1130.6	252.8
1035.9117	3082.2678	1125.55	246.35
1036.0202	3083.2789	1122.65	242.85
1036.1286	3084.2893	1114.3	236.4
1036.2371	3085.2991	1112.45	233.2
1036.3454	3086.3083	1110.15	228.85
1036.4538	3087.3169	1108.65	228.2
1036.562	3088.3248	1094.55	213.7
1036.6703	3089.3321	1092.65	209.85
1036.7785	3090.3388	1090.7	213.2
1036.8866	3091.3449	1085.85	209.3
1036.9948	3092.3503	1086.95	204.4
1037.1028	3093.3551	1078.4	201.15
1037.2108	3094.3593	1074.15	198
1037.3188	3095.3629	1072.35	193.2
1037.4267	3096.3658	1069.95	192.15
1037.5346	3097.3681	1070.5	191.35
1037.6425	3098.3698	1069.45	190.95
1037.7503	3099.3708	1062.9	179.5
1037.858	3100.3713	1058.5	182.6
1037.9657	3101.3711	1056.5	176.85
1038.0734	3102.3702	1170.4	172
1038.181	3103.3688	1049.15	170.15
1038.2886	3104.3667	1051	173.7
1038.3961	3105.364	1052	173.85
1038.5036	3106.3607	1046.25	166.55
1038.611	3107.3568	1048.85	167.3
1038.7184	3108.3522	1043.2	169.4
1038.8257	3109.347	1038.5	160.35
1038.933	3110.3412	1045.9	163.75
1039.0403	3111.3348	1037.6	158.3
1039.1475	3112.3277	1030.7	153.3
1039.2547	3113.32	1030.45	155.35
1039.3618	3114.3117	1031.85	153.95
1039.4689	3115.3028	1032.5	155.15
1039.5759	3116.2932	1031.2	153.45
1039.6829	3117.2831	1031.15	147.35
1039.7898	3118.2723	1026.45	148.45
1039.8967	3119.2608	1025	148
1040.0035	3120.2488	1024.3	145.6
1040.1103	3121.2361	1020.45	143.3
1040.2171	3122.2229	1019.85	142.45
1040.3238	3123.209	1018.25	141.4
1040.4305	3124.1944	1016.7	139.9
1040.5371	3125.1793	1023.8	143.45
1040.6437	3126.1635	1014.75	138.9
1040.7502	3127.1471	1009.4	133.1
1040.8567	3128.1301	1009.45	133.8
1040.9631	3129.1125	1010.2	135.05
1041.0695	3130.0942	1003.95	127.25
1041.1759	3131.0753	1012.05	128.4
1041.2822	3132.0558	1006.6	126.7
1041.3884	3133.0357	1005.35	127.8
1041.4946	3134.015	1006.55	129.3
1041.6008	3134.9936	1003.25	124.4
1041.7069	3135.9716	1022.45	122.95
1041.813	3136.949	1005.25	128.55
1041.919	3137.9258	1019.9	124.15
1042.025	3138.902	1004.9	121.55
1042.1309	3139.8775	998.45	121.95
1042.2368	3140.8524	998.35	122.95
1042.3427	3141.8267	999.2	118.6
1042.4485	3142.8004	997.3	119.75
1042.5542	3143.7735	999.4	116.05
1042.6599	3144.7459	996.4	116.3
1042.7656	3145.7178	997	120.15
1042.8712	3146.689	987	110.25
1042.9768	3147.6596	994.4	114.5
1043.0823	3148.6295	988.1	110.7
1043.1878	3149.5989	988.65	111.2
1043.2932	3150.5676	984.1	109
1043.3986	3151.5357	982.1	105.6
1043.5039	3152.5032	986.1	110.15
1043.6092	3153.4701	986.45	110.65
1043.7145	3154.4364	987.95	109.05
1043.8197	3155.402	982.5	108.45
1043.9248	3156.367	983.7	104.65
1044.03	3157.3315	1017.8	105.15
1044.135	3158.2952	981.25	104.55
1044.24	3159.2584	983.9	107.15
1044.345	3160.221	979.85	101.1
1044.4499	3161.1829	976.75	100.65
1044.5548	3162.1442	977.9	102.05
1044.6596	3163.105	975.85	99.55
1044.7644	3164.065	975.3	96.25
1044.8692	3165.0245	982.2	102.05
1044.9739	3165.9834	975.2	99.85
1045.0785	3166.9416	971.1	94.6
1045.1831	3167.8993	975.45	99.25
1045.2877	3168.8563	971.75	91.6
1045.3922	3169.8127	975.7	98.7
1045.4966	3170.7684	969.65	93
1045.6011	3171.7236	972.2	93.05
1045.7054	3172.6782	970.2	95.1
1045.8098	3173.6321	968.45	89.25
1045.914	3174.5854	973.7	93.1
1046.0183	3175.5381	965.9	88.8
1046.1224	3176.4902	964.55	87.85
1046.2266	3177.4417	968.85	93.9
1046.3307	3178.3926	967.4	90.05
1046.4347	3179.3428	967.25	90.4
1046.5387	3180.2924	966.95	90.8
1046.6427	3181.2415	964.75	87.3
1046.7466	3182.1899	967.4	91.15
1046.8504	3183.1377	963.7	88.9
1046.9542	3184.0848	966.75	88.65
1047.058	3185.0314	962.35	86.85
1047.1617	3185.9773	964.55	85.85
1047.2654	3186.9227	961.7	84.25
1047.369	3187.8674	963.6	86.65
1047.4726	3188.8115	964.65	82.4
1047.5761	3189.755	961.8	87.05
1047.6796	3190.6979	956.75	80
1047.783	3191.6402	956.15	81.2
1047.8864	3192.5818	957.65	81.05
1047.9898	3193.5229	961.8	77.75
1048.0931	3194.4633	959.65	84.1
1048.1963	3195.4031	956.25	79.25
1048.2995	3196.3423	957.65	80.15
1048.4027	3197.2809	953.9	77.85
1048.5058	3198.2189	956.5	78.95
1048.6089	3199.1563	962.8	79.6
1048.7119	3200.0931	953.6	79.2
1048.8148	3201.0292	954.9	78.75
1048.9178	3201.9648	950.95	76.25
1049.0206	3202.8997	957.05	75.35
1049.1235	3203.834	954.05	77.15
1049.2262	3204.7677	951.15	74.4
1049.329	3205.7008	953	75.45
1049.4317	3206.6333	951.15	77.85
1049.5343	3207.5652	950.8	69.55
1049.6369	3208.4964	951.45	77
1049.7394	3209.4271	948.5	70.95
1049.8419	3210.3571	950.9	75.25
1049.9444	3211.2865	948.2	71.55
1050.0468	3212.2154	950.7	71.3
1050.1491	3213.1436	954	76.2
1050.2514	3214.0712	953.95	70.55
1050.3537	3214.9982	949.55	74.6
1050.4559	3215.9246	946.95	67.7
1050.5581	3216.8503	944.8	68.8
1050.6602	3217.7755	947.9	72.2
1050.7623	3218.7001	947.1	71.2
1050.8643	3219.624	946.55	69.7
1050.9663	3220.5473	946.1	71.65
1051.0682	3221.4701	943.7	66.3
1051.1701	3222.3922	944.5	65
1051.2719	3223.3137	942.9	64.85
1051.3737	3224.2346	944.7	66.8
1051.4754	3225.1549	943.65	68.2
1051.5771	3226.0746	941.25	66.5
1051.6788	3226.9937	940.9	63.8
1051.7804	3227.9121	942.65	67.45
1051.8819	3228.83	941.15	65.95
1051.9834	3229.7473	940.75	65.75
1052.0849	3230.6639	939.9	63.15
1052.1863	3231.5799	939.65	64.3
1052.2876	3232.4954	939.9	62.45
1052.3889	3233.4102	939.15	62.35
1052.4902	3234.3244	940.75	63.1
1052.5914	3235.238	937.15	59.7
1052.6926	3236.151	959.6	59.35
1052.7937	3237.0634	936.55	62.65
1052.8948	3237.9752	933.5	57.1
1052.9958	3238.8864	939.5	64.15
1053.0968	3239.797	937.6	62.4
1053.1977	3240.7069	935.35	57.95
1053.2986	3241.6163	940.75	66
1053.3994	3242.5251	936.15	61.2
1053.5002	3243.4332	936.35	61.8
1053.6009	3244.3408	935.15	57.8
1053.7016	3245.2477	932.6	56.85
1053.8022	3246.154	935.1	59.45
1053.9028	3247.0598	935.05	58.55
1054.0034	3247.9649	935.6	59.1
1054.1039	3248.8694	930.1	54
1054.2043	3249.7733	931.75	54.95
1054.3047	3250.6766	929.45	53.3
1054.4051	3251.5793	931.45	54.25
1054.5054	3252.4814	927.6	55.45
1054.6056	3253.3829	931.1	55.3
1054.7058	3254.2838	930.6	55.65
1054.806	3255.1841	925.15	49.85
1054.9061	3256.0838	930.9	57.05
1055.0061	3256.9829	925.05	50.9
1055.1062	3257.8814	926.75	48.1
1055.2061	3258.7792	929.15	50.35
1055.306	3259.6765	923.3	47.5
1055.4059	3260.5731	922.75	47.4
1055.5057	3261.4692	926.05	49.95
1055.6055	3262.3647	922.6	44.25
1055.7052	3263.2595	922.95	47.05
1055.8049	3264.1538	922.9	48.55
1055.9045	3265.0474	921.95	45.8
1056.0041	3265.9404	918.25	45.8
1056.1036	3266.8329	918.85	44.1
1056.2031	3267.7247	927.7	43.8
1056.3025	3268.616	915.55	43.1
1056.4019	3269.5066	915.8	39.45
1056.5013	3270.3966	914.4	39
1056.6005	3271.286	912.95	37.55
