Software Version:	3.9.2.0
Unit SN:	10000200
Spectrometer SN:	6960
Date:	3/8/2024 2:23:35 PM
Data Line Index:	25
Spectral Points:	2048
Integration time (ms):	125
Averages:	20
Delay (ms):	30000
Sequence Number:	1
Processing:	dark subtract
Laser Power (mW):	300
Laser Current (mA):	827
Laser Diode Temp (C):	25
Laser Case Temp (C):	26.1
System Temp (C):	26.1
Spectrometer Temp (C):	24
CCD Temp (C):	0.005
Secondary Temp (C):	20.007
Heatsink Temp (C):	20.875
CCDPCB Temp (C):	35.985
SecondaryPCB Temp (C):	30.227

Wavelength	RamanShift	Raw Counts	Dark Subtracted
787.061	30.1047	460.65	52.65
787.2016	32.3739	458.45	54.9
787.3422	34.6426	467	62.75
787.4828	36.9109	472.55	64.1
787.6235	39.1787	483.15	70.55
787.7642	41.4461	490.85	74.6
787.9049	43.7131	497.7	78.1
788.0456	45.9796	508.75	85
788.1863	48.2456	520.4	93.9
788.3271	50.5112	525.85	95.45
788.4679	52.7764	539.6	105.3
788.6087	55.0411	551.05	110.3
788.7496	57.3054	558.7	113.3
788.8904	59.5692	574.9	130.05
789.0313	61.8326	578.25	128.95
789.1722	64.0955	596.15	145.15
789.3132	66.3579	608.95	152.35
789.4541	68.6199	631	170.35
789.5951	70.8815	670.45	206.4
789.7361	73.1426	748.5	277.75
789.8771	75.4032	957.45	485.4
790.0181	77.6634	1481.75	1002.55
790.1592	79.9231	2698.3	2211.2
790.3003	82.1824	5347.45	4845.15
790.4414	84.4412	10103.8	9573.05
790.5825	86.6995	16624	16056.55
790.7237	88.9574	22926.65	22325.05
790.8648	91.2148	27275.8	26654.85
791.006	93.4717	29324.2	28687.25
791.1472	95.7282	29759.2	29119.55
791.2885	97.9842	29717.35	29072.95
791.4297	100.2398	29242	28591.5
791.571	102.4949	28686.55	28033.7
791.7123	104.7495	27936.15	27283.35
791.8536	107.0036	27148.35	26493.35
791.9949	109.2573	26434.05	25780.45
792.1363	111.5105	25725	25069.25
792.2777	113.7632	24964.4	24303.9
792.4191	116.0154	24337.9	23666.45
792.5605	118.2672	23845.35	23180.9
792.7019	120.5185	23376.15	22709.75
792.8434	122.7693	22987.05	22320.5
792.9849	125.0197	22686.4	22012.4
793.1264	127.2696	22374.7	21700.85
793.2679	129.519	22258.15	21577.15
793.4094	131.7679	22062.35	21374.9
793.551	134.0163	21949.45	21262.45
793.6926	136.2642	21759.9	21067.5
793.8342	138.5117	21594.2	20895.25
793.9758	140.7587	21377	20684.65
794.1175	143.0052	21218.4	20522.55
794.2591	145.2512	20978.3	20282.05
794.4008	147.4967	20739.2	20041.85
794.5425	149.7417	20624.75	19924.65
794.6842	151.9863	20543.9	19838.25
794.826	154.2304	20437.75	19724.85
794.9677	156.4739	20301.25	19587.55
795.1095	158.717	20288.1	19573.05
795.2513	160.9596	20123	19399.05
795.3931	163.2017	19897.9	19174
795.535	165.4433	19639.35	18920.15
795.6768	167.6844	19325.9	18602.55
795.8187	169.925	18981.6	18254.95
795.9606	172.1651	18597.65	17867.8
796.1025	174.4047	18343.45	17613.15
796.2445	176.6439	18070.2	17335.85
796.3864	178.8825	17799.7	17062.55
796.5284	181.1206	17662.85	16919.6
796.6704	183.3582	17516.5	16773.65
796.8124	185.5954	17397.15	16647.65
796.9544	187.832	17311.8	16558.7
797.0965	190.0681	17303.65	16549.4
797.2386	192.3037	17319.4	16556.8
797.3806	194.5388	17298.7	16534.05
797.5228	196.7734	17335	16571.75
797.6649	199.0075	17423.55	16661.05
797.807	201.2411	17580.65	16816.8
797.9492	203.4742	17664.85	16896.35
798.0914	205.7068	17817.85	17044.65
798.2336	207.9389	17915	17140.85
798.3758	210.1704	18097.4	17330.65
798.518	212.4015	18178	17420.8
798.6603	214.632	18397.85	17650
798.8025	216.862	18573.15	17826.8
798.9448	219.0915	18728.5	17978
799.0871	221.3205	19022.75	18272.65
799.2294	223.549	19284.55	18535.75
799.3718	225.777	19636.1	18884.1
799.5141	228.0044	20010.2	19253.5
799.6565	230.2314	20462.5	19702.7
799.7989	232.4578	20947.45	20186.5
799.9413	234.6837	21356.95	20586.65
800.0837	236.909	21635.65	20861.7
800.2262	239.1339	21614.95	20814.5
800.3687	241.3582	21402.75	20623.4
800.5111	243.582	21072.55	20263.45
800.6536	245.8053	20709.6	19912.15
800.7961	248.0281	20354.55	19559.6
800.9387	250.2503	20097	19296.85
801.0812	252.472	19926.45	19129.35
801.2238	254.6932	19840.05	19044.75
801.3664	256.9139	19751	18951.5
801.509	259.134	19711.2	18908.1
801.6516	261.3536	19668.45	18860.8
801.7942	263.5727	19678.15	18869.25
801.9369	265.7912	19622.05	18817.2
802.0795	268.0092	19641.75	18840.2
802.2222	270.2267	19574.6	18772.95
802.3649	272.4436	19540.65	18736.95
802.5076	274.6601	19506.25	18692.2
802.6504	276.8759	19426.5	18614.4
802.7931	279.0913	19397.5	18584.95
802.9359	281.3061	19397.95	18584.85
803.0787	283.5204	19500.25	18680.2
803.2215	285.7341	19581.05	18757.2
803.3643	287.9473	19771.9	18943.15
803.5071	290.16	19984.25	19163.1
803.6499	292.3721	20373	19557.15
803.7928	294.5837	20807.7	19991.55
803.9357	296.7947	21159.65	20343.05
804.0786	299.0052	21391.4	20572.9
804.2215	301.2152	21262.65	20439.9
804.3644	303.4246	20946.25	20132.5
804.5074	305.6334	20434.45	19620.85
804.6503	307.8418	19901.55	19082.7
804.7933	310.0495	19469	18645.95
804.9363	312.2568	19176.3	18355.15
805.0793	314.4635	18944.1	18112.1
805.2223	316.6696	18890.4	18057.25
805.3653	318.8752	18829	17990.45
805.5084	321.0802	18878.4	18047
805.6514	323.2847	18991.15	18159.2
805.7945	325.4887	19034.15	18198.8
805.9376	327.692	18990.45	18155.6
806.0807	329.8949	18914.95	18076.45
806.2238	332.0972	18684.15	17848.8
806.367	334.2989	18417.45	17575.85
806.5101	336.5001	18125.9	17285.9
806.6533	338.7007	17931.95	17086.75
806.7965	340.9008	17806.8	16966
806.9397	343.1003	17679.3	16834.7
807.0829	345.2992	17636.3	16790.5
807.2261	347.4976	17593	16751.9
807.3693	349.6955	17654	16803.05
807.5126	351.8927	17728.35	16875.95
807.6559	354.0895	17709.15	16847.95
807.7991	356.2856	17756.5	16900.05
807.9424	358.4812	17743.9	16890.7
808.0857	360.6763	17838.15	16984.2
808.2291	362.8707	17832.95	16979.3
808.3724	365.0646	17872.25	17016.4
808.5158	367.258	17817.7	16961.4
808.6591	369.4508	17881.55	17022.7
808.8025	371.643	17928.8	17065.2
808.9459	373.8346	17950.9	17086.65
809.0893	376.0257	17936.1	17067.05
809.2327	378.2162	17839.3	16974.65
809.3762	380.4062	17771.8	16909.3
809.5196	382.5956	17621.8	16763.9
809.6631	384.7844	17527.6	16672.4
809.8066	386.9726	17426	16571.65
809.9501	389.1603	17357.55	16508.2
810.0936	391.3474	17372.65	16475.65
810.2371	393.5339	17350.05	16489.7
810.3806	395.7199	17279.8	16422.4
810.5241	397.9052	17308.2	16449.15
810.6677	400.09	17353.1	16497.5
810.8113	402.2743	17397.4	16541.7
810.9548	404.4579	17473.15	16614.15
811.0984	406.641	17625.5	16764.05
811.2421	408.8235	17863.15	17003.85
811.3857	411.0054	18196.8	17330.85
811.5293	413.1868	18650.05	17779.45
811.673	415.3675	19013.9	18140.6
811.8166	417.5477	19249.95	18379.55
811.9603	419.7273	19343.25	18471.1
812.104	421.9064	19216.75	18337.85
812.2477	424.0848	19099.2	18226.6
812.3914	426.2627	18842.85	17972.55
812.5351	428.4399	18570.75	17695.8
812.6788	430.6166	18216.85	17343.85
812.8226	432.7928	17823.45	16947.05
812.9663	434.9683	17517.65	16646.15
813.1101	437.1432	17297.55	16425.65
813.2539	439.3176	17136.65	16269.25
813.3977	441.4914	17008.5	16143.9
813.5415	443.6645	16993.15	16126.85
813.6853	445.8371	16937.35	16061.1
813.8291	448.0091	16862	15991.1
813.973	450.1806	16825.05	15953.35
814.1168	452.3514	16775.6	15903.25
814.2607	454.5216	16783.35	15902.7
814.4046	456.6913	16727.1	15851.15
814.5485	458.8603	16767.5	15896.8
814.6924	461.0288	16814.25	15944.65
814.8363	463.1967	16846.2	15977.5
814.9802	465.3639	16985.35	16118.9
815.1241	467.5306	17095.1	16224.2
815.2681	469.6967	17249.8	16382.2
815.412	471.8622	17369.2	16505.5
815.556	474.0271	17603.45	16733.4
815.7	476.1914	17718.75	16842.1
815.844	478.3551	17665	16789.55
815.988	480.5182	17679.35	16809.15
816.132	482.6807	17674.15	16806.9
816.276	484.8426	17738.55	16878.75
816.4201	487.0039	18013.15	17145.5
816.5641	489.1647	18384.5	17511.95
816.7082	491.3248	18896.75	18017.85
816.8522	493.4843	19096.2	18223.5
816.9963	495.6432	19094.05	18225
817.1404	497.8015	19017.95	18135.25
817.2845	499.9592	19062.1	18170.6
817.4286	502.1163	19013.05	18127.25
817.5727	504.2728	18809.2	17928.35
817.7168	506.4287	18533.75	17662.75
817.861	508.5839	18066.2	17196.7
818.0051	510.7386	17762.8	16885.35
818.1493	512.8927	17599.2	16713.5
818.2935	515.0461	17455.8	16571.6
818.4377	517.199	17392.35	16508.35
818.5818	519.3512	17377.15	16486.25
818.726	521.5029	17449.75	16559.6
818.8703	523.6539	17487.65	16601.6
819.0145	525.8043	17556.15	16668.8
819.1587	527.9541	17558.25	16667.2
819.303	530.1033	17575.85	16690.6
819.4472	532.2519	17609.8	16723.15
819.5915	534.3999	17770.55	16881.8
819.7357	536.5472	18078	17196
819.88	538.694	18539.55	17658.3
820.0243	540.8401	19155.65	18269.4
820.1686	542.9856	19703.85	18808.25
820.3129	545.1305	19925.25	19022.8
820.4572	547.2748	19798.5	18894.25
820.6016	549.4185	19430.5	18524.15
820.7459	551.5615	19065.85	18161
820.8902	553.704	18912.15	18014.4
821.0346	555.8458	18836.8	17943.8
821.1789	557.987	18856	17967.8
821.3233	560.1276	18803.8	17905.4
821.4677	562.2675	18794.45	17896.4
821.6121	564.4069	18805.25	17907.65
821.7565	566.5456	18773.3	17875.4
821.9009	568.6837	18683	17787.6
822.0453	570.8212	18424.75	17530.4
822.1897	572.958	18117.35	17220.45
822.3342	575.0942	17865.35	16973.55
822.4786	577.2299	17716.1	16824.75
822.6231	579.3648	17688.05	16814.25
822.7675	581.4992	17753.65	16881.5
822.912	583.6329	17969.75	17100.45
823.0565	585.766	18167.4	17289.35
823.201	587.8985	18386.35	17504.6
823.3454	590.0304	18390.4	17486.35
823.4899	592.1616	18305.15	17404.05
823.6345	594.2922	18228.75	17327.15
823.779	596.4222	18086.25	17182.25
823.9235	598.5515	17949	17044.4
824.068	600.6802	17772.3	16872.25
824.2126	602.8083	17567.8	16668.75
824.3571	604.9358	17540	16638.45
824.5017	607.0626	17491	16590.4
824.6462	609.1888	17433.1	16524.05
824.7908	611.3144	17364.35	16450.5
824.9354	613.4393	17237.75	16324.95
825.08	615.5636	17151.3	16244.25
825.2246	617.6873	16999.6	16094.7
825.3692	619.8103	16994.35	16085.35
825.5138	621.9327	16905.25	15999.55
825.6584	624.0544	16909.3	16008.3
825.803	626.1756	16873.1	15974.2
825.9477	628.2961	16841.8	15935.2
826.0923	630.4159	16787.15	15877.05
826.237	632.5351	16751.1	15843.5
826.3816	634.6537	16705.7	15795.35
826.5263	636.7716	16685.9	15771.45
826.6709	638.8889	16712	15797.25
826.8156	641.0056	16788.75	15872.3
826.9603	643.1216	16754.75	15841.15
827.105	645.237	16793.45	15879.1
827.2497	647.3518	16805.7	15900.5
827.3944	649.4659	16859.45	15962
827.5391	651.5793	16874.75	15971.25
827.6838	653.6922	16830.25	15928.75
827.8285	655.8043	16823.7	15918.35
827.9733	657.9159	16836.6	15928.65
828.118	660.0268	16789.85	15881.8
828.2627	662.137	16768.4	15856.5
828.4075	664.2466	16722.2	15806.2
828.5522	666.3556	16703.55	15787.5
828.697	668.4639	16658.95	15748.2
828.8418	670.5716	16734.85	15831.7
828.9865	672.6786	16812.95	15901.3
829.1313	674.785	16898	15980.95
829.2761	676.8907	16972.8	16059.6
829.4209	678.9958	17030.45	16122.1
829.5657	681.1002	17031.05	16119.65
829.7105	683.204	17035.95	16112.6
829.8553	685.3072	16978.45	16056.3
830.0001	687.4097	16949.5	16034.25
830.1449	689.5115	16891.15	15974.05
830.2898	691.6127	16832.2	15919.85
830.4346	693.7132	16782.25	15870.3
830.5794	695.8131	16798.15	15860.95
830.7243	697.9123	16771.4	15848.4
830.8691	700.0109	16731.2	15810.5
831.014	702.1089	16709	15795.2
831.1588	704.2061	16718.85	15800.1
831.3037	706.3028	16757.3	15835.95
831.4486	708.3987	16836.75	15918.1
831.5935	710.4941	16916.7	15999.75
831.7383	712.5887	17104	16186
831.8832	714.6827	17414.2	16494.6
832.0281	716.7761	17770	16856.05
832.173	718.8688	18156.75	17238.6
832.3179	720.9608	18382.55	17455.5
832.4628	723.0522	18441.1	17512.55
832.6077	725.1429	18248.15	17325.3
832.7527	727.233	17968.2	17046.75
832.8976	729.3224	17732.45	16811.95
833.0425	731.4112	17434.25	16510.65
833.1874	733.4993	17221.9	16298.9
833.3324	735.5867	17037.1	16117.25
833.4773	737.6735	16952.75	16031.9
833.6222	739.7596	16923.5	15999.25
833.7672	741.845	16864.7	15943.15
833.9122	743.9298	16827.8	15906.3
834.0571	746.014	16866.2	15944
834.2021	748.0974	16902.45	15973.1
834.347	750.1802	16884.85	15956.15
834.492	752.2624	16860	15935.4
834.637	754.3439	16912.45	15986.75
834.782	756.4247	16988.25	16052.55
834.9269	758.5048	17097.6	16172.3
835.0719	760.5843	17285.45	16355.6
835.2169	762.6631	17644.65	16716.35
835.3619	764.7413	18018.35	17092.7
835.5069	766.8188	18617.7	17686.4
835.6519	768.8956	19056.9	18131
835.7969	770.9718	19424.75	18498.85
835.9419	773.0473	19277.05	18349.85
836.0869	775.1221	18988.1	18062.65
836.232	777.1962	18614.6	17687.1
836.377	779.2697	18386.6	17459.45
836.522	781.3426	18459.5	17510.05
836.667	783.4147	18722.45	17797.25
836.8121	785.4862	19069.6	18142.35
836.9571	787.557	19140	18210.1
837.1021	789.6271	18806.1	17874
837.2472	791.6966	18263.25	17332.45
837.3922	793.7654	17767.65	16838.45
837.5373	795.8335	17476.65	16546.6
837.6823	797.901	17273.75	16345.75
837.8274	799.9678	17219.6	16283
837.9724	802.0339	17193.05	16257.55
838.1175	804.0993	17262.4	16320.3
838.2626	806.1641	17265.95	16337.15
838.4076	808.2282	17231.8	16299.1
838.5527	810.2916	17145.1	16215
838.6978	812.3544	17056.8	16127.1
838.8428	814.4164	16965.4	16037.1
838.9879	816.4778	16960.5	16025.1
839.133	818.5385	16973.85	16041.35
839.2781	820.5986	17037.4	16104.7
839.4232	822.658	17118.15	16181.7
839.5682	824.7166	17221.55	16291.35
839.7133	826.7747	17477.75	16548.1
839.8584	828.832	17639.65	16705.8
840.0035	830.8886	17763.3	16829.05
840.1486	832.9446	17940.1	17008.65
840.2937	834.9999	17973.4	17041.65
840.4388	837.0545	18015.25	17078.75
840.5839	839.1085	18051.2	17116.2
840.729	841.1618	18055	17118.6
840.8741	843.2143	18030.4	17094.5
841.0192	845.2662	17952.55	17020.45
841.1643	847.3175	17907.25	16972.6
841.3095	849.368	17785.05	16852.8
841.4546	851.4179	17669.8	16737.2
841.5997	853.467	17534.6	16597.95
841.7448	855.5155	17415.55	16476.15
841.8899	857.5633	17341.85	16406.5
842.0351	859.6105	17254.35	16320
842.1802	861.6569	17195.3	16263
842.3253	863.7027	17144.5	16204.1
842.4704	865.7478	17160.95	16224.3
842.6156	867.7922	17158.55	16222.35
842.7607	869.8359	17180.45	16242.65
842.9058	871.8789	17354.85	16415.05
843.0509	873.9212	17546.85	16574.25
843.1961	875.9629	17664.15	16725.35
843.3412	878.0039	17844.2	16907.9
843.4863	880.0441	17956.05	17019.6
843.6315	882.0837	18006.8	17066.8
843.7766	884.1226	17889.45	16951.15
843.9218	886.1609	17800.05	16862.75
844.0669	888.1984	17707.7	16769.7
844.212	890.2352	17734.25	16795.2
844.3572	892.2714	17666.15	16721
844.5023	894.3069	17665.55	16724.85
844.6475	896.3416	17584.65	16647.25
844.7926	898.3757	17603.25	16664.1
844.9377	900.4091	17590.8	16650.2
845.0829	902.4418	17583.4	16636.3
845.228	904.4739	17609.95	16667.8
845.3732	906.5052	17627.8	16686.3
845.5183	908.5358	17531.6	16595.75
845.6635	910.5658	17361.95	16422.1
845.8086	912.595	17242.95	16299.8
845.9538	914.6236	17116.85	16173.05
846.0989	916.6515	17068.75	16125.8
846.2441	918.6786	17061.15	16117.6
846.3892	920.7051	17131.9	16187.6
846.5344	922.7309	17264.45	16324.9
846.6795	924.756	17330	16387.3
846.8246	926.7804	17404	16463.85
846.9698	928.8041	17344.5	16406.5
847.1149	930.8272	17422.1	16479.05
847.2601	932.8495	17325.9	16386
847.4052	934.8711	17286.2	16342.55
847.5504	936.892	17148.45	16211.55
847.6955	938.9123	16991.45	16049.85
847.8407	940.9318	16857.1	15920.4
847.9858	942.9506	16741.9	15798.85
848.131	944.9688	16669.65	15729.6
848.2761	946.9862	16640.75	15698.7
848.4213	949.003	16549.7	15606
848.5664	951.019	16551.55	15610.6
848.7115	953.0344	16573	15632.75
848.8567	955.0491	16623.55	15681.85
849.0018	957.063	16711	15771.9
849.147	959.0763	16873.7	15937.2
849.2921	961.0888	16884.25	15942.2
849.4373	963.1007	16996.45	16058.95
849.5824	965.1119	17047	16118.1
849.7275	967.1223	17064	16140.1
849.8727	969.1321	17073	16145.65
850.0178	971.1412	17133.55	16201.35
850.1629	973.1495	17147.05	16210.3
850.3081	975.1572	17232.9	16249.95
850.4532	977.1641	17288.35	16344.65
850.5983	979.1704	17249.55	16306.15
850.7435	981.1759	17254.4	16309.6
850.8886	983.1808	17314.1	16370.25
851.0337	985.1849	17430.3	16477.2
851.1788	987.1884	17540.9	16596.7
851.324	989.1911	17674.05	16733.25
851.4691	991.1932	17840.4	16900.95
851.6142	993.1945	17904.4	16965.4
851.7593	995.1951	17847.7	16908.55
851.9045	997.1951	17834.05	16890.05
852.0496	999.1943	17782.35	16841.4
852.1947	1001.1928	17704.45	16761.35
852.3398	1003.1906	17658.25	16716.85
852.4849	1005.1877	17725.85	16781.95
852.63	1007.1841	17675.2	16735.95
852.7751	1009.1798	17602.25	16662.9
852.9202	1011.1748	17452.6	16515.05
853.0653	1013.1691	17259.45	16316.8
853.2104	1015.1627	17022.1	16085.9
853.3555	1017.1556	16811.55	15875.05
853.5006	1019.1477	16720.2	15782.15
853.6457	1021.1392	16600.95	15671.7
853.7908	1023.1299	16600.15	15669.8
853.9359	1025.12	16606.75	15682.15
854.081	1027.1093	16659.55	15746
854.2261	1029.0979	16747.75	15840.55
854.3712	1031.0859	16818.75	15903.55
854.5163	1033.0731	16807.85	15879.9
854.6613	1035.0596	16723.75	15793.75
854.8064	1037.0454	16559.45	15624.1
854.9515	1039.0304	16477.6	15540.45
855.0965	1041.0148	16344.65	15407.3
855.2416	1042.9985	16253.15	15313.9
855.3867	1044.9814	16238.5	15302.9
855.5317	1046.9636	16193.8	15253.4
855.6768	1048.9452	16127.9	15193.65
855.8219	1050.926	16145.1	15206.35
855.9669	1052.9061	16135.15	15202.25
856.112	1054.8855	16176.5	15236.65
856.257	1056.8642	16231.95	15292.05
856.4021	1058.8421	16240.85	15295
856.5471	1060.8194	16290.7	15350.4
856.6921	1062.7959	16322.2	15386.45
856.8372	1064.7717	16296.85	15357.65
856.9822	1066.7469	16389.05	15448.7
857.1272	1068.7213	16369.7	15429.9
857.2723	1070.695	16365.95	15426.35
857.4173	1072.6679	16254.9	15314
857.5623	1074.6402	16232.4	15289
857.7073	1076.6117	16207.75	15261.7
857.8523	1078.5826	16199.8	15260.1
857.9973	1080.5527	16225.1	15280.9
858.1423	1082.5221	16324.45	15384.55
858.2873	1084.4908	16505.4	15565.8
858.4323	1086.4587	16717.75	15778.1
858.5773	1088.426	16852.35	15910.95
858.7223	1090.3925	16879.35	15932.1
858.8673	1092.3584	16819.65	15879.05
859.0123	1094.3235	16688.7	15750.9
859.1573	1096.2879	16607.05	15666.5
859.3022	1098.2515	16580.75	15640.85
859.4472	1100.2145	16642.6	15702.7
859.5922	1102.1767	16723.2	15786.45
859.7371	1104.1382	16874.95	15937.35
859.8821	1106.099	17061.75	16127.4
860.027	1108.0591	17262.65	16325.6
860.172	1110.0185	17424.6	16487.85
860.3169	1111.9771	17435.8	16500
860.4619	1113.9351	17223.5	16286.95
860.6068	1115.8923	16947.8	16006.4
860.7517	1117.8488	16623.15	15680.35
860.8967	1119.8045	16370.65	15434.1
861.0416	1121.7596	16209.15	15270.35
861.1865	1123.7139	16141.6	15209.05
861.3314	1125.6675	16115.6	15179.8
861.4763	1127.6204	16219.5	15285.35
861.6212	1129.5726	16178.45	15239.3
861.7661	1131.524	16234.25	15296.65
861.911	1133.4748	16238.55	15302.45
862.0559	1135.4248	16192	15253.9
862.2008	1137.3741	16211.3	15273.9
862.3457	1139.3226	16166.95	15227.05
862.4905	1141.2705	16118	15181.05
862.6354	1143.2176	16045.55	15099.2
862.7803	1145.164	16043.7	15105.1
862.9251	1147.1097	16059.7	15121.35
863.07	1149.0546	16075.05	15135.6
863.2148	1150.9989	15971.6	15033.45
863.3597	1152.9424	15866	14930.35
863.5045	1154.8852	15682.45	14746.9
863.6493	1156.8272	15550.6	14613.7
863.7942	1158.7686	15505.7	14559.7
863.939	1160.7092	15453.5	14514.25
864.0838	1162.6491	15434.55	14494.2
864.2286	1164.5883	15520.5	14584.7
864.3734	1166.5267	15588.3	14646.95
864.5182	1168.4644	15730.8	14793.85
864.663	1170.4014	15884.4	14943.9
864.8078	1172.3377	16131.2	15195.2
864.9526	1174.2732	16349.2	15414.55
865.0974	1176.2081	16641.1	15704.6
865.2421	1178.1421	16821.3	15884.35
865.3869	1180.0755	17036.9	16102.55
865.5317	1182.0082	17113	16176.35
865.6764	1183.9401	17084.3	16151.65
865.8212	1185.8713	16935.35	16005.8
865.9659	1187.8017	16712.8	15790.85
866.1106	1189.7315	16450.05	15535.3
866.2554	1191.6605	16143.45	15229.05
866.4001	1193.5888	15947.7	15023.8
866.5448	1195.5163	15847.4	14922.35
866.6895	1197.4432	15729.2	14794.95
866.8342	1199.3693	15677.3	14744.4
866.9789	1201.2947	15611.85	14668.1
867.1236	1203.2193	15551.4	14621.2
867.2683	1205.1432	15608.05	14674.45
867.413	1207.0664	15621.7	14688.3
867.5576	1208.9889	15676.65	14739.95
867.7023	1210.9106	15701.75	14768.2
867.847	1212.8316	15729.7	14798.2
867.9916	1214.7519	15824.4	14886
868.1363	1216.6715	15818.5	14885.1
868.2809	1218.5903	15831.65	14899.5
868.4255	1220.5084	15803.8	14866.4
868.5701	1222.4257	15750.45	14813.6
868.7148	1224.3424	15715.65	14781.6
868.8594	1226.2583	15775.1	14844.7
869.004	1228.1735	15825.95	14892.8
869.1486	1230.0879	15928.9	14994.05
869.2932	1232.0016	16033.1	15101.7
869.4377	1233.9146	16094.1	15156.85
869.5823	1235.8269	16014.25	15082.8
869.7269	1237.7384	15879.6	14947.2
869.8715	1239.6492	15689.15	14756.1
870.016	1241.5592	15569.1	14636.1
870.1606	1243.4686	15493.4	14561.85
870.3051	1245.3772	15450.6	14517.75
870.4496	1247.285	15406.4	14474
870.5941	1249.1922	15366.6	14432.1
870.7387	1251.0986	15384.85	14452.85
870.8832	1253.0042	15353.2	14423.8
871.0277	1254.9092	15389.45	14458.5
871.1722	1256.8134	15474.55	14545.1
871.3167	1258.7169	15621.95	14691.6
871.4611	1260.6196	15746.4	14816.9
871.6056	1262.5216	15911.85	14980.65
871.7501	1264.4229	16086.65	15157.1
871.8945	1266.3234	16228.05	15297.6
872.039	1268.2232	16311.15	15376.65
872.1834	1270.1223	16297.65	15363.45
872.3278	1272.0207	16276.2	15345.85
872.4723	1273.9183	16223.75	15287.35
872.6167	1275.8151	16176.8	15243.4
872.7611	1277.7113	16082.1	15151.7
872.9055	1279.6067	15963.25	15034.15
873.0499	1281.5014	15883.65	14951.4
873.1943	1283.3953	15772.5	14840
873.3386	1285.2885	15746.65	14815.15
873.483	1287.181	15726.95	14799.35
873.6274	1289.0727	15827.4	14898.95
873.7717	1290.9637	15859.5	14930.4
873.9161	1292.854	16002.55	15072.9
874.0604	1294.7435	16125.6	15196.7
874.2047	1296.6323	16351.55	15423.2
874.349	1298.5204	16606.35	15675.05
874.4933	1300.4077	16836.3	15903.15
874.6376	1302.2943	17022.55	16092.9
874.7819	1304.1802	17076.7	16146.2
874.9262	1306.0653	16959.9	16027.05
875.0705	1307.9497	16797.05	15866.85
875.2147	1309.8333	16624.8	15698.2
875.359	1311.7162	16561.45	15634.5
875.5032	1313.5984	16610	15677.1
875.6475	1315.4798	16632.95	15693.3
875.7917	1317.3605	16709.45	15763.2
875.9359	1319.2405	16794.05	15860.45
876.0801	1321.1197	16766.45	15833.7
876.2243	1322.9982	16649.9	15718
876.3685	1324.876	16624.7	15695
876.5127	1326.753	16503.15	15572.05
876.6569	1328.6293	16471.35	15539.05
876.801	1330.5048	16467.65	15532.25
876.9452	1332.3796	16426.1	15492.85
877.0893	1334.2537	16398.15	15442.25
877.2335	1336.127	16340.65	15411.45
877.3776	1337.9996	16285.05	15356.95
877.5217	1339.8714	16235.45	15305.9
877.6658	1341.7426	16210.05	15234.05
877.8099	1343.6129	16179.75	15248.35
877.954	1345.4826	16113.1	15179.35
878.0981	1347.3515	16071.5	15137.8
878.2422	1349.2196	15988.15	15057.75
878.3862	1351.087	15995.1	15065.4
878.5303	1352.9537	16025.05	15093
878.6743	1354.8197	16144	15216.25
878.8184	1356.6849	16304.85	15371.6
878.9624	1358.5493	16359.95	15431.5
879.1064	1360.4131	16393.6	15459.95
879.2504	1362.276	16353.4	15425.65
879.3944	1364.1383	16205.6	15277.35
879.5384	1365.9998	15952	15015.15
879.6823	1367.8606	15648.35	14716.35
879.8263	1369.7206	15407.65	14475.65
879.9702	1371.5799	15192.75	14259.2
880.1142	1373.4384	14982.6	14050.05
880.2581	1375.2962	14875.25	13947.5
880.402	1377.1533	14582.15	13655
880.5459	1379.0096	14249.2	13322.1
880.6898	1380.8652	14002.2	13077.9
880.8337	1382.7201	13724.55	12798.5
880.9776	1384.5742	13484.8	12557.75
881.1215	1386.4275	13301.4	12374
881.2653	1388.2802	13190.3	12263.9
881.4092	1390.132	13054.55	12124.7
881.553	1391.9832	12993.65	12061.2
881.6968	1393.8336	12886.3	11956.7
881.8406	1395.6832	12863.75	11933.75
881.9844	1397.5322	12772	11843.15
882.1282	1399.3803	12766	11830.45
882.272	1401.2278	12679.65	11754.55
882.4158	1403.0745	12695.2	11766.65
882.5595	1404.9204	12677.05	11750.75
882.7033	1406.7656	12667.1	11740.95
882.847	1408.6101	12672.55	11742
882.9908	1410.4538	12670.25	11741.2
883.1345	1412.2968	12714.25	11783.5
883.2782	1414.139	12740.75	11813.7
883.4219	1415.9805	12773.2	11847.8
883.5656	1417.8213	12843.7	11909.45
883.7092	1419.6613	12954.1	12027.6
883.8529	1421.5006	13140.75	12211.75
883.9965	1423.3391	13377.15	12449.95
884.1402	1425.1769	13686.7	12761.55
884.2838	1427.0139	14136.15	13207.55
884.4274	1428.8502	14713.4	13787.7
884.571	1430.6858	15295.95	14368.15
884.7146	1432.5206	15709.6	14782.05
884.8582	1434.3547	15967.2	15038.7
885.0018	1436.188	16022.45	15094.25
885.1453	1438.0206	15947.35	15019.75
885.2889	1439.8524	15769.4	14840.5
885.4324	1441.6835	15682.85	14758.05
885.5759	1443.5139	15563.2	14632.6
885.7194	1445.3435	15491.65	14562.7
885.8629	1447.1724	15433.9	14509.2
886.0064	1449.0005	15332.75	14407.5
886.1499	1450.8279	15270.25	14343.95
886.2933	1452.6545	15192.6	14268.25
886.4368	1454.4804	15210.3	14288.45
886.5802	1456.3056	15243.1	14314.55
886.7237	1458.13	15106.9	14183.35
886.8671	1459.9536	14890.6	13964.8
887.0105	1461.7766	14553.15	13626.75
887.1539	1463.5987	14147.85	13221.65
887.2972	1465.4202	13747.95	12820.15
887.4406	1467.2409	13406.65	12478.3
887.584	1469.0608	13099.5	12173.75
887.7273	1470.88	12839.85	11914.25
887.8706	1472.6984	12583.8	11660.3
888.0139	1474.5161	12350.5	11424
888.1572	1476.3331	12181.3	11259.85
888.3005	1478.1493	12054.8	11128.65
888.4438	1479.9648	11941.6	11016.9
888.5871	1481.7795	11823.5	10898
888.7303	1483.5935	11775.8	10851.3
888.8736	1485.4067	11717	10790.55
889.0168	1487.2192	11646.8	10719.85
889.16	1489.031	11593.2	10666.75
889.3032	1490.842	11525.45	10601.7
889.4464	1492.6522	11504.6	10582.6
889.5896	1494.4618	11469	10542.25
889.7327	1496.2705	11444.65	10519.65
889.8759	1498.0785	11401.4	10477
890.019	1499.8858	11363.2	10438.9
890.1622	1501.6924	11325.45	10400.9
890.3053	1503.4981	11293.75	10368.75
890.4484	1505.3032	11260.2	10335.55
890.5914	1507.1075	11233.3	10310.75
890.7345	1508.911	11184.35	10262.95
890.8776	1510.7138	11137.7	10211.6
891.0206	1512.5159	11057.35	10131.5
891.1637	1514.3172	11020.7	10096.2
891.3067	1516.1178	10983.85	10062.45
891.4497	1517.9176	10937	10013.7
891.5927	1519.7166	10870.4	9949.45
891.7357	1521.515	10852.35	9924.95
891.8786	1523.3126	10857.3	9934.3
892.0216	1525.1094	10783.95	9859.5
892.1645	1526.9055	10742.05	9821.65
892.3074	1528.7008	10727.85	9805.45
892.4503	1530.4954	10625.6	9704.05
892.5932	1532.2893	10641.35	9724
892.7361	1534.0824	10595.55	9674.6
892.879	1535.8747	10578.15	9662
893.0218	1537.6663	10529.75	9613.65
893.1647	1539.4572	10502.15	9581.75
893.3075	1541.2473	10508.75	9588.5
893.4503	1543.0367	10481.2	9564.9
893.5931	1544.8253	10464.35	9542.9
893.7359	1546.6132	10461.4	9542.4
893.8787	1548.4003	10442.95	9516.6
894.0214	1550.1867	10443.7	9522.35
894.1642	1551.9723	10450.5	9530.55
894.3069	1553.7572	10494.2	9580.1
894.4496	1555.5414	10519.5	9603.1
894.5923	1557.3247	10534.5	9619.9
894.735	1559.1074	10587	9674.15
894.8777	1560.8893	10634.6	9725.75
895.0204	1562.6705	10696.6	9785.7
895.163	1564.4509	10764.3	9854
895.3056	1566.2305	10812.1	9903.65
895.4482	1568.0094	10880.1	9976.5
895.5908	1569.7876	10927.4	10015.15
895.7334	1571.565	10943.45	10033
895.876	1573.3417	10970.3	10058.35
896.0186	1575.1176	10924.95	10013.85
896.1611	1576.8928	10910.45	10001.75
896.3036	1578.6672	10834.6	9931.9
896.4461	1580.4409	10704.6	9802.65
896.5886	1582.2138	10596.75	9690.75
896.7311	1583.986	10475.25	9567.9
896.8736	1585.7575	10399.05	9490.95
897.0161	1587.5282	10317.95	9415.25
897.1585	1589.2981	10254.4	9353.55
897.3009	1591.0673	10213.75	9309.95
897.4433	1592.8358	10191.15	9290.75
897.5857	1594.6035	10195.1	9285.8
897.7281	1596.3704	10191.2	9282.65
897.8705	1598.1366	10223.65	9318
898.0128	1599.9021	10237.15	9331.5
898.1551	1601.6668	10296.9	9388.7
898.2975	1603.4308	10336.8	9429.25
898.4398	1605.194	10416.55	9508.15
898.5821	1606.9564	10516.65	9615.9
898.7243	1608.7182	10633.6	9738.05
898.8666	1610.4791	10765.3	9875.45
899.0088	1612.2394	10913.5	10022.7
899.1511	1613.9988	11080.55	10186.45
899.2933	1615.7576	11278.05	10379.35
899.4355	1617.5156	11479.15	10567.5
899.5776	1619.2728	11689.45	10780.5
899.7198	1621.0293	11826.3	10923.5
899.862	1622.785	11858.85	10953.4
900.0041	1624.54	11778.6	10879.8
900.1462	1626.2942	11609.65	10711.95
900.2883	1628.0477	11385.3	10484.6
900.4304	1629.8005	11170.35	10267.55
900.5725	1631.5525	10923.95	10025
900.7145	1633.3037	10741.5	9841.2
900.8566	1635.0542	10580.95	9682.1
900.9986	1636.804	10446.35	9547.9
901.1406	1638.553	10437.6	9457.15
901.2826	1640.3013	10319.55	9419.2
901.4245	1642.0488	10280.5	9382.25
901.5665	1643.7955	10304.2	9408.55
901.7085	1645.5416	10319.9	9425.95
901.8504	1647.2868	10415.1	9517.9
901.9923	1649.0313	10478.3	9579.8
902.1342	1650.7751	10605.05	9702.55
902.2761	1652.5181	10742.2	9847.65
902.4179	1654.2604	10951.75	10055.75
902.5598	1656.0019	11220	10323.9
902.7016	1657.7427	11539.5	10640.25
902.8434	1659.4828	11823.55	10924.9
902.9852	1661.222	12030.75	11129.3
903.127	1662.9606	12023.65	11124.25
903.2687	1664.6984	11842.45	10940.65
903.4105	1666.4354	11489.8	10586.9
903.5522	1668.1717	11004.65	10102.1
903.6939	1669.9072	10509.6	9607.95
903.8356	1671.642	10083.95	9178.35
903.9773	1673.3761	9745.1	8844.3
904.119	1675.1094	9461.1	8563.4
904.2606	1676.8419	9237.05	8338
904.4022	1678.5737	9039.7	8139.85
904.5439	1680.3048	8914	8014.05
904.6855	1682.0351	8795.35	7894.35
904.827	1683.7646	8672.45	7767.65
904.9686	1685.4934	8610.9	7711.55
905.1101	1687.2215	8534.75	7635.65
905.2517	1688.9488	8461.55	7566.1
905.3932	1690.6754	8404	7509.85
905.5347	1692.4012	8382.95	7484.15
905.6761	1694.1263	8322.15	7423.65
905.8176	1695.8506	8297.2	7395.35
905.9591	1697.5742	8261.05	7364.6
906.1005	1699.297	8218.9	7327.15
906.2419	1701.0191	8151.75	7258.85
906.3833	1702.7404	8105.1	7210.4
906.5246	1704.461	8071.15	7174.25
906.666	1706.1808	8021.4	7124.45
906.8073	1707.8999	8010.6	7116.95
906.9487	1709.6182	7957.4	7068.15
907.09	1711.3358	7959.85	7069.15
907.2313	1713.0527	7931.2	7043.05
907.3725	1714.7688	7893.75	6995.95
907.5138	1716.4841	7859.6	6964.75
907.655	1718.1987	7835.8	6937.8
907.7962	1719.9126	7792.7	6902.2
907.9374	1721.6257	7787.7	6897.6
908.0786	1723.338	7749.35	6859.35
908.2198	1725.0496	7691.2	6799.45
908.3609	1726.7605	7696.5	6802.45
908.502	1728.4706	7665.05	6769.65
908.6431	1730.18	7631.25	6740.7
908.7842	1731.8886	7601.6	6713.4
908.9253	1733.5964	7602.25	6694.35
909.0664	1735.3036	7570.35	6674.9
909.2074	1737.0099	7542.35	6649.9
909.3484	1738.7156	7504.95	6617.75
909.4894	1740.4204	7476.55	6584.75
909.6304	1742.1246	7468.05	6575.65
909.7714	1743.8279	7466	6576.05
909.9123	1745.5306	7419.65	6530.5
910.0532	1747.2325	7393	6504.9
910.1941	1748.9336	7398.25	6506.65
910.335	1750.634	7339.75	6448.35
910.4759	1752.3336	7321.15	6429.65
910.6168	1754.0325	7304.25	6417.35
910.7576	1755.7307	7298.45	6409.75
910.8984	1757.4281	7290.95	6401.7
911.0392	1759.1247	7277.55	6379.7
911.18	1760.8206	7257.55	6359.25
911.3208	1762.5158	7251.15	6353.9
911.4615	1764.2102	7186.45	6294.4
911.6022	1765.9039	7178	6285.9
911.7429	1767.5968	7169.4	6283.25
911.8836	1769.289	7146.85	6258.3
912.0243	1770.9804	7130.05	6239.75
912.1649	1772.6711	7116.6	6225.55
912.3056	1774.361	7101.35	6209.7
912.4462	1776.0502	7068.75	6176.4
912.5868	1777.7386	7077.95	6183.75
912.7274	1779.4263	7026.1	6138.35
912.8679	1781.1132	7036.9	6151.75
913.0084	1782.7994	6996.6	6110
913.149	1784.4849	6989.8	6103.55
913.2895	1786.1696	6961.4	6068.25
913.4299	1787.8535	6957.7	6073.8
913.5704	1789.5367	6938.65	6054.5
913.7108	1791.2192	6929.4	6044.15
913.8513	1792.9009	6923.7	6011.15
913.9917	1794.5818	6903.65	6012.6
914.132	1796.2621	6887.75	5999.65
914.2724	1797.9415	6863.7	5972.8
914.4128	1799.6202	6842.75	5951.6
914.5531	1801.2982	6826.15	5935
914.6934	1802.9755	6817.15	5927.55
914.8337	1804.6519	6813.8	5924.3
914.9739	1806.3277	6772.35	5887.5
915.1142	1808.0027	6755.65	5871.1
915.2544	1809.6769	6732.15	5848.2
915.3946	1811.3504	6725.8	5839.3
915.5348	1813.0231	6702.6	5820.1
915.675	1814.6951	6685.15	5799.45
915.8151	1816.3664	6704.6	5815.9
915.9553	1818.0369	6682	5792.35
916.0954	1819.7067	6668.65	5780.1
916.2355	1821.3757	6670.35	5779.8
916.3755	1823.044	6640.95	5750.15
916.5156	1824.7115	6611.75	5720.1
916.6556	1826.3783	6583.3	5693.75
916.7956	1828.0443	6558.9	5670.8
916.9356	1829.7096	6549.4	5659
917.0756	1831.3741	6548.4	5657.4
917.2155	1833.0379	6528.5	5641.95
917.3555	1834.701	6511.35	5625.55
917.4954	1836.3633	6488.95	5604.85
917.6353	1838.0248	6476.1	5587.8
917.7751	1839.6856	6474.1	5589.2
917.915	1841.3457	6446.7	5561
918.0548	1843.005	6442.05	5557.4
918.1946	1844.6636	6455.1	5569.45
918.3344	1846.3214	6429.6	5541.8
918.4742	1847.9785	6409.25	5522.35
918.6139	1849.6349	6399.05	5508.1
918.7537	1851.2904	6406.35	5507.65
918.8934	1852.9453	6382.05	5490.55
919.0331	1854.5994	6354.75	5462.1
919.1727	1856.2528	6367.7	5474.25
919.3124	1857.9054	6356.1	5469.6
919.452	1859.5572	6316.3	5430.9
919.5916	1861.2083	6328.95	5439.65
919.7312	1862.8587	6325.7	5437.65
919.8708	1864.5084	6292.75	5401.55
920.0103	1866.1572	6259.15	5368.8
920.1498	1867.8054	6245.65	5354.25
920.2893	1869.4528	6234.1	5343.5
920.4288	1871.0994	6214.95	5322.45
920.5683	1872.7453	6238.6	5350.1
920.7077	1874.3905	6233.4	5325.75
920.8471	1876.0349	6184.65	5295
920.9865	1877.6786	6173.6	5282.9
921.1259	1879.3215	6171.85	5281.1
921.2653	1880.9637	6139.8	5251.85
921.4046	1882.6051	6138.7	5251.5
921.5439	1884.2458	6120.7	5231.45
921.6832	1885.8858	6095.2	5210.65
921.8225	1887.525	6084.5	5194.85
921.9617	1889.1634	6058.7	5171.1
922.101	1890.8011	6051.55	5163.75
922.2402	1892.4381	6046.3	5155.7
922.3794	1894.0743	6051.15	5162.7
922.5185	1895.7098	6009.1	5118.6
922.6577	1897.3446	5992.35	5102.4
922.7968	1898.9786	5978.25	5085.65
922.9359	1900.6118	5970.9	5082.9
923.075	1902.2443	5945.85	5058.6
923.214	1903.8761	5927.1	5038.85
923.3531	1905.5071	5892.95	5005.05
923.4921	1907.1374	5876.85	4988.6
923.6311	1908.7669	5866.55	4979.35
923.77	1910.3957	5844.1	4957.75
923.909	1912.0237	5828.2	4941.25
924.0479	1913.651	5826.25	4937.3
924.1868	1915.2776	5814.7	4930.3
924.3257	1916.9034	5810.3	4926.6
924.4646	1918.5285	5786.5	4901.2
924.6034	1920.1528	5739.2	4850.5
924.7422	1921.7764	5758.3	4869.25
924.881	1923.3992	5715.05	4829.05
925.0198	1925.0213	5680.75	4792.6
925.1586	1926.6427	5661.9	4775.75
925.2973	1928.2633	5724.15	4740.2
925.436	1929.8832	5671.65	4784.55
925.5747	1931.5023	5607.85	4719.55
925.7134	1933.1207	5605.5	4719.4
925.852	1934.7383	5602.45	4717.45
925.9906	1936.3552	5582.25	4697.45
926.1292	1937.9714	5566.75	4680.85
926.2678	1939.5868	5548.85	4660.55
926.4064	1941.2015	5524.65	4637.25
926.5449	1942.8154	5497.65	4607.2
926.6834	1944.4286	5492.05	4603.35
926.8219	1946.041	5488.25	4583.45
926.9604	1947.6528	5458.7	4565.95
927.0988	1949.2637	5428.05	4545
927.2372	1950.8739	5407.55	4521.35
927.3756	1952.4834	5417.85	4531.65
927.514	1954.0921	5410.45	4524.35
927.6523	1955.7001	5381.05	4491.7
927.7907	1957.3074	5345.75	4462.2
927.929	1958.9139	5336.7	4456.8
928.0673	1960.5197	5322.55	4436.2
928.2055	1962.1247	5298.95	4415.45
928.3438	1963.729	5271.1	4388.85
928.482	1965.3325	5284.1	4395.4
928.6202	1966.9353	5248.9	4371.65
928.7584	1968.5374	5252.3	4367.35
928.8965	1970.1387	5219.2	4336.15
929.0346	1971.7393	5192.95	4309.1
929.1727	1973.3392	5170.45	4288.85
929.3108	1974.9383	5152.2	4270.3
929.4489	1976.5366	5144.6	4263.7
929.5869	1978.1342	5140.1	4258.65
929.7249	1979.7311	5115.75	4233.9
929.8629	1981.3273	5109.15	4228.9
930.0009	1982.9227	5090.1	4210.2
930.1388	1984.5173	5077.6	4199.15
930.2767	1986.1112	5061.15	4180.9
930.4146	1987.7044	5048.9	4169.2
930.5525	1989.2968	5027.8	4145
930.6904	1990.8885	5026.8	4144.45
930.8282	1992.4795	5014.55	4135.2
930.966	1994.0697	4976.85	4098.15
931.1038	1995.6592	4979.25	4099.55
931.2415	1997.2479	4957.1	4078.45
931.3793	1998.8359	4963.4	4082.45
931.517	2000.4232	4930.45	4053.7
931.6547	2002.0097	4920.75	4044.7
931.7923	2003.5955	4896.4	4020.75
931.93	2005.1805	4899.6	4021.8
932.0676	2006.7648	4895.05	4018.75
932.2052	2008.3484	4893	4016.6
932.3427	2009.9312	4893.85	4018
932.4803	2011.5133	4842.75	3969.1
932.6178	2013.0946	4845.45	3967.95
932.7553	2014.6752	4836.6	3959.7
932.8928	2016.2551	4832.75	3954.15
933.0302	2017.8342	4803.6	3924.65
933.1676	2019.4126	4799.4	3924.3
933.305	2020.9902	4763.9	3891.2
933.4424	2022.5672	4762.45	3885.95
933.5798	2024.1433	4763	3883.4
933.7171	2025.7188	4753.95	3879.75
933.8544	2027.2935	4730.8	3854.8
933.9917	2028.8674	4723.15	3850.6
934.129	2030.4406	4697.05	3824.65
934.2662	2032.0131	4675.8	3804.85
934.4034	2033.5849	4661.5	3781.8
934.5406	2035.1559	4644.55	3771.45
934.6778	2036.7261	4645.75	3771.55
934.8149	2038.2957	4651.15	3770.3
934.952	2039.8645	4643.5	3765.55
935.0891	2041.4325	4634.55	3752
935.2262	2042.9998	4606.55	3729.4
935.3632	2044.5664	4612.9	3734.9
935.5002	2046.1323	4583	3708.15
935.6372	2047.6974	4576.5	3701.85
935.7742	2049.2617	4568.05	3693.1
935.9111	2050.8254	4565.55	3684.7
936.048	2052.3883	4570.6	3691.3
936.1849	2053.9504	4548.8	3669.15
936.3218	2055.5118	4525.35	3643.85
936.4586	2057.0725	4533.15	3652.6
936.5955	2058.6325	4500.05	3623.55
936.7323	2060.1917	4502.6	3627.35
936.869	2061.7502	4492.7	3613.65
937.0058	2063.3079	4459.85	3585.8
937.1425	2064.8649	4461.3	3582.4
937.2792	2066.4212	4430.55	3553.45
937.4159	2067.9767	4449.6	3573.05
937.5525	2069.5315	4414.6	3535.7
937.6891	2071.0856	4398.5	3520.55
937.8257	2072.6389	4382.95	3506.5
937.9623	2074.1915	4382.4	3508.1
938.0989	2075.7433	4341.95	3464.6
938.2354	2077.2945	4343.15	3468.15
938.3719	2078.8448	4327.05	3449
938.5084	2080.3945	4315.75	3438.75
938.6448	2081.9434	4336.2	3458.15
938.7812	2083.4916	4315.4	3436.7
938.9176	2085.039	4299.8	3417.3
939.054	2086.5857	4283.15	3399.05
939.1903	2088.1317	4282.75	3399.25
939.3267	2089.677	4280.2	3393.6
939.463	2091.2215	4279.55	3393.5
939.5992	2092.7652	4247.7	3361.25
939.7355	2094.3083	4244.45	3360.55
939.8717	2095.8506	4237.05	3357.05
940.0079	2097.3921	4217.25	3336.4
940.1441	2098.933	4212.8	3333.5
940.2802	2100.4731	4213.5	3334.3
940.4163	2102.0124	4218.75	3319.2
940.5524	2103.5511	4194.35	3312.55
940.6885	2105.089	4186.65	3304.05
940.8245	2106.6261	4178.7	3298.5
940.9606	2108.1626	4173.4	3292.8
941.0965	2109.6983	4191.4	3282.5
941.2325	2111.2332	4145.5	3264.3
941.3684	2112.7675	4134.5	3250.65
941.5044	2114.301	4118.65	3234.5
941.6403	2115.8337	4125.8	3245
941.7761	2117.3657	4123.85	3241
941.912	2118.897	4115.25	3233.45
942.0478	2120.4276	4097.75	3206.6
942.1835	2121.9575	4078.75	3195.15
942.3193	2123.4866	4086.05	3190.9
942.455	2125.0149	4069.8	3184.85
942.5907	2126.5426	4031.7	3154.8
942.7264	2128.0695	4029.75	3148.5
942.8621	2129.5956	4020.2	3145.05
942.9977	2131.1211	4032.95	3151.05
943.1333	2132.6458	4011.9	3133.6
943.2689	2134.1698	4013.85	3128.95
943.4044	2135.693	3986.95	3100.2
943.54	2137.2155	3999.05	3113.4
943.6755	2138.7373	3999.7	3117.9
943.8109	2140.2584	3971.25	3093.25
943.9464	2141.7787	3959.85	3078.4
944.0818	2143.2983	3953.35	3076.95
944.2172	2144.8171	3932.7	3059.9
944.3526	2146.3353	3922.65	3043.4
944.4879	2147.8527	3917.9	3040.1
944.6232	2149.3693	3913.1	3032.2
944.7585	2150.8853	3911.7	3028
944.8938	2152.4005	3895.1	3011.15
945.029	2153.9149	3889.1	3006.25
945.1642	2155.4287	3875	2989.95
945.2994	2156.9417	3866.65	2985.7
945.4346	2158.454	3866.25	2986.8
945.5697	2159.9655	3849.2	2970.9
945.7048	2161.4764	3865.35	2984.55
945.8399	2162.9865	3834.5	2956.6
945.9749	2164.4958	3830.05	2951.25
946.1099	2166.0045	3816.95	2936.7
946.2449	2167.5124	3804.2	2924.75
946.3799	2169.0195	3793.4	2911.1
946.5148	2170.526	3795.75	2911.35
946.6498	2172.0317	3782.5	2901.45
946.7846	2173.5367	3772.1	2891.75
946.9195	2175.0409	3780.6	2902.95
947.0543	2176.5445	3759.35	2878.05
947.1891	2178.0473	3763.1	2879.8
947.3239	2179.5494	3747.35	2863.1
947.4587	2181.0507	3733.45	2853.2
947.5934	2182.5513	3727.7	2846.05
947.7281	2184.0512	3725.95	2840.85
947.8628	2185.5504	3699.75	2819.6
947.9974	2187.0488	3692.9	2813.55
948.132	2188.5465	3672.8	2795.15
948.2666	2190.0435	3665.95	2786.15
948.4012	2191.5397	3666.6	2784.9
948.5357	2193.0353	3651.5	2770.1
948.6702	2194.5301	3644.4	2759.8
948.8047	2196.0241	3639.65	2753.6
948.9392	2197.5175	3636.6	2751.6
949.0736	2199.0101	3629.7	2739.6
949.208	2200.502	3588.15	2707.6
949.3424	2201.9931	3591.45	2711.2
949.4767	2203.4835	3593.65	2713.95
949.611	2204.9733	3566.9	2683.45
949.7453	2206.4622	3575.55	2698.95
949.8796	2207.9505	3537.85	2660.5
950.0138	2209.438	3526.4	2652.95
950.148	2210.9248	3532.5	2655.65
950.2822	2212.4109	3530.2	2650.55
950.4164	2213.8962	3514.85	2627.7
950.5505	2215.3809	3519.65	2633.8
950.6846	2216.8648	3505	2617.2
950.8186	2218.3479	3497.2	2605.5
950.9527	2219.8304	3478.5	2586.85
951.0867	2221.3121	3467.5	2577.45
951.2207	2222.7931	3475.5	2588.3
951.3546	2224.2733	3460.65	2576
951.4886	2225.7529	3447.9	2562.7
951.6225	2227.2317	3449.75	2565.75
951.7563	2228.7098	3426.85	2548.25
951.8902	2230.1872	3406.7	2527.9
952.024	2231.6638	3409.7	2529.25
952.1578	2233.1397	3397.5	2514
952.2916	2234.6149	3396.7	2518.5
952.4253	2236.0894	3388.9	2508.3
952.559	2237.5632	3387.7	2504.3
952.6927	2239.0362	3364.65	2483.55
952.8263	2240.5085	3365.3	2483.4
952.9599	2241.9801	3357.6	2475.3
953.0935	2243.4509	3341.3	2458
953.2271	2244.921	3331.5	2444.8
953.3606	2246.3904	3320.65	2434.15
953.4941	2247.8591	3330.55	2447.1
953.6276	2249.3271	3324	2441.65
953.7611	2250.7943	3305.9	2422.45
953.8945	2252.2608	3291.75	2406.65
954.0279	2253.7266	3286.95	2404.35
954.1612	2255.1917	3278.25	2394.95
954.2946	2256.656	3270.6	2388.8
954.4279	2258.1197	3244.25	2365.75
954.5612	2259.5826	3245.25	2363.1
954.6944	2261.0447	3245.75	2361.65
954.8276	2262.5062	3235.15	2349.95
954.9608	2263.9669	3240.7	2354.05
955.094	2265.4269	3225.9	2343.8
955.2271	2266.8862	3222.9	2342.95
955.3602	2268.3448	3213.85	2332.25
955.4933	2269.8026	3217.7	2337.35
955.6264	2271.2598	3205.85	2325.5
955.7594	2272.7162	3203.7	2325.8
955.8924	2274.1719	3191.95	2307.3
956.0253	2275.6268	3186.05	2301.95
956.1583	2277.0811	3182.75	2297.25
956.2912	2278.5346	3181	2301.4
956.4241	2279.9874	3158.95	2279.85
956.5569	2281.4395	3155.9	2277
956.6897	2282.8908	3154.25	2268.9
956.8225	2284.3414	3161.05	2275.55
956.9553	2285.7914	3132.5	2251.25
957.088	2287.2406	3125.25	2239.6
957.2207	2288.689	3133.45	2248
957.3534	2290.1368	3127.45	2239.15
957.486	2291.5838	3117.65	2230.65
957.6186	2293.0302	3117.9	2227.35
957.7512	2294.4758	3095.1	2209.6
957.8838	2295.9206	3090.05	2205
958.0163	2297.3648	3086.3	2204.75
958.1488	2298.8082	3070.5	2188
958.2813	2300.251	3077.25	2193.35
958.4137	2301.693	3067.2	2180.15
958.5461	2303.1343	3064.55	2181.45
958.6785	2304.5748	3054	2172.75
958.8108	2306.0147	3052.9	2170.45
958.9432	2307.4538	3038.85	2155.3
959.0754	2308.8922	3034	2157.25
959.2077	2310.3299	3028	2150.25
959.3399	2311.7669	3015	2134.3
959.4721	2313.2031	3008.1	2125.8
959.6043	2314.6387	2998	2114.8
959.7365	2316.0735	2993.7	2113.8
959.8686	2317.5076	2996.7	2114.1
960.0006	2318.941	2980.55	2096.3
960.1327	2320.3737	2985.3	2104.15
960.2647	2321.8056	2982.1	2095
960.3967	2323.2369	2955.9	2071.75
960.5287	2324.6674	2947.75	2062.25
960.6606	2326.0972	2954.05	2068.8
960.7925	2327.5263	2945.45	2061.85
960.9244	2328.9547	2931.05	2045.3
961.0562	2330.3823	2943.35	2057.15
961.1881	2331.8092	2933.85	2046.15
961.3198	2333.2355	2920	2036.5
961.4516	2334.661	2909.95	2024.6
961.5833	2336.0858	2907.75	2023.9
961.715	2337.5098	2893	2008.55
961.8467	2338.9332	2891.9	2008.3
961.9783	2340.3558	2898.15	2011.75
962.1099	2341.7778	2878.65	1997.05
962.2415	2343.199	2875.65	1991.8
962.373	2344.6195	2856.25	1975.1
962.5045	2346.0393	2863.65	1982.05
962.636	2347.4583	2855.45	1973.65
962.7675	2348.8767	2859.65	1977.05
962.8989	2350.2943	2856.1	1972.85
963.0303	2351.7113	2841.1	1955.6
963.1617	2353.1275	2849.5	1963.65
963.293	2354.543	2858.2	1948.7
963.4243	2355.9578	2843.85	1960.85
963.5556	2357.3718	2809.8	1929.95
963.6868	2358.7852	2816.9	1933.5
963.818	2360.1978	2794.8	1914.3
963.9492	2361.6098	2796.8	1914.4
964.0803	2363.021	2802.75	1916.4
964.2114	2364.4315	2795.55	1914.3
964.3425	2365.8413	2784.95	1903.6
964.4736	2367.2504	2777.65	1900.1
964.6046	2368.6587	2761.5	1881.2
964.7356	2370.0664	2760.45	1880.35
964.8666	2371.4733	2752.1	1873.35
964.9975	2372.8795	2736.95	1857.85
965.1284	2374.285	2747.7	1866
965.2593	2375.6899	2733.2	1854.5
965.3901	2377.0939	2725.45	1846.25
965.5209	2378.4973	2708.4	1829.25
965.6517	2379.9	2709.35	1829.7
965.7825	2381.3019	2704.3	1826.7
965.9132	2382.7032	2690.7	1811.25
966.0439	2384.1037	2694.3	1818.7
966.1745	2385.5035	2674.4	1799.1
966.3051	2386.9027	2670.65	1794.35
966.4357	2388.3011	2677.3	1796.9
966.5663	2389.6987	2656.9	1778.95
966.6968	2391.0957	2664.55	1786.95
966.8273	2392.492	2647	1770.7
966.9578	2393.8876	2645.4	1767.8
967.0882	2395.2824	2618.2	1740.7
967.2186	2396.6765	2622.3	1745.25
967.349	2398.07	2612.35	1732
967.4793	2399.4627	2617	1736.6
967.6097	2400.8547	2624.35	1744.65
967.7399	2402.246	2626.6	1744.6
967.8702	2403.6366	2585.8	1706.65
968.0004	2405.0265	2582.15	1706.35
968.1306	2406.4156	2586.8	1705.95
968.2607	2407.8041	2575	1694.45
968.3909	2409.1918	2581.25	1701.95
968.521	2410.5789	2562.1	1682.65
968.651	2411.9652	2567.5	1685.4
968.781	2413.3508	2559.65	1680.7
968.911	2414.7358	2549.8	1669.3
969.041	2416.12	2555.15	1680.8
969.1709	2417.5035	2541.8	1662.35
969.3008	2418.8863	2527.6	1646.4
969.4307	2420.2684	2518.7	1640.45
969.5606	2421.6497	2509.25	1630.75
969.6904	2423.0304	2505.85	1629
969.8201	2424.4104	2505.55	1625.95
969.9499	2425.7896	2502.5	1622.45
970.0796	2427.1682	2502.65	1624.4
970.2093	2428.546	2494.65	1615.2
970.3389	2429.9232	2489.85	1607.75
970.4685	2431.2996	2484.15	1607.75
970.5981	2432.6753	2473.45	1594.15
970.7277	2434.0503	2465.65	1584.85
970.8572	2435.4246	2457.1	1579.95
970.9867	2436.7982	2463.5	1582.6
971.1161	2438.1711	2463.45	1585.05
971.2456	2439.5433	2451.15	1569
971.375	2440.9148	2438.8	1552.95
971.5043	2442.2856	2427.7	1549.4
971.6336	2443.6557	2434.5	1554.75
971.7629	2445.025	2435.95	1555.3
971.8922	2446.3937	2413.15	1533.45
972.0214	2447.7617	2413.4	1534.1
972.1506	2449.1289	2417.6	1536.85
972.2798	2450.4955	2418.3	1533.9
972.4089	2451.8613	2411.6	1533.3
972.538	2453.2265	2405.8	1526.9
972.6671	2454.5909	2400.75	1521.4
972.7961	2455.9546	2404.4	1524.7
972.9251	2457.3177	2390	1511
973.0541	2458.68	2397.65	1517.05
973.1831	2460.0416	2384.6	1505.7
973.312	2461.4025	2391.35	1510.5
973.4408	2462.7627	2387.35	1497.2
973.5697	2464.1222	2368.95	1492
973.6985	2465.4811	2361.8	1483.35
973.8273	2466.8392	2353.25	1475.35
973.956	2468.1966	2363.6	1480.85
974.0847	2469.5533	2362.1	1480.9
974.2134	2470.9093	2359.45	1480.6
974.3421	2472.2645	2345.65	1464.05
974.4707	2473.6191	2349.4	1471.15
974.5993	2474.973	2344.15	1465.65
974.7278	2476.3262	2331.25	1450.55
974.8563	2477.6787	2333.8	1454.7
974.9848	2479.0305	2325.65	1446.8
975.1132	2480.3816	2319.25	1438.95
975.2417	2481.7319	2312.7	1431.35
975.37	2483.0816	2304.7	1424.95
975.4984	2484.4306	2296.6	1418.15
975.6267	2485.7789	2286.65	1408.45
975.755	2487.1264	2289.8	1410
975.8833	2488.4733	2275.55	1400.15
976.0115	2489.8195	2280.5	1394.6
976.1397	2491.165	2274.65	1392.05
976.2678	2492.5097	2268.15	1387.45
976.3959	2493.8538	2260.9	1384.05
976.524	2495.1972	2252.4	1372.2
976.6521	2496.5398	2254.95	1374.15
976.7801	2497.8818	2251.45	1369.05
976.9081	2499.2231	2246.6	1365.95
977.036	2500.5637	2232.6	1350.85
977.164	2501.9035	2233.85	1350.8
977.2918	2503.2427	2240.3	1358.55
977.4197	2504.5812	2222.9	1342.45
977.5475	2505.919	2222.6	1340.35
977.6753	2507.256	2225.7	1347.85
977.8031	2508.5924	2202	1323.4
977.9308	2509.9281	2216.3	1331.1
978.0585	2511.2631	2203.55	1322.15
978.1861	2512.5974	2191.15	1312
978.3137	2513.9309	2189	1308.7
978.4413	2515.2638	2212.8	1304.15
978.5689	2516.596	2190.8	1310.65
978.6964	2517.9275	2177.6	1294.6
978.8239	2519.2583	2181.3	1300.7
978.9513	2520.5884	2178.15	1298.3
979.0788	2521.9178	2166.05	1286.15
979.2062	2523.2465	2164.85	1290.15
979.3335	2524.5745	2153	1274.85
979.4608	2525.9018	2155.75	1276.35
979.5881	2527.2284	2160.55	1280.55
979.7154	2528.5543	2144.4	1266.8
979.8426	2529.8796	2151.45	1269.6
979.9698	2531.2041	2133.6	1250.9
980.0969	2532.5279	2134.65	1257.4
980.224	2533.851	2143.85	1263.5
980.3511	2535.1735	2130.3	1249.95
980.4781	2536.4952	2133.75	1253.2
980.6052	2537.8163	2132.1	1249.95
980.7321	2539.1366	2122.9	1241.2
980.8591	2540.4562	2118.55	1236.05
980.986	2541.7752	2118.35	1238.1
981.1129	2543.0935	2115.2	1233.05
981.2397	2544.411	2119.45	1237.9
981.3665	2545.7279	2104.2	1223.2
981.4933	2547.0441	2107.95	1225.4
981.62	2548.3596	2109.1	1226.45
981.7467	2549.6744	2105.5	1224.05
981.8734	2550.9885	2107.55	1220.3
982.0001	2552.3019	2088.9	1208.55
982.1267	2553.6146	2093.1	1212.55
982.2532	2554.9266	2091.45	1213.75
982.3798	2556.2379	2084.35	1203.35
982.5063	2557.5485	2073.3	1194.85
982.6327	2558.8585	2084.7	1197.5
982.7592	2560.1677	2078.7	1194.85
982.8856	2561.4762	2068.45	1184.95
983.0119	2562.7841	2067.9	1185.85
983.1383	2564.0913	2059	1178.8
983.2646	2565.3977	2052.75	1172.35
983.3908	2566.7035	2050.65	1170
983.517	2568.0086	2050.35	1166.1
983.6432	2569.313	2050.95	1169.5
983.7694	2570.6167	2058.7	1173
983.8955	2571.9197	2051.5	1170.65
984.0216	2573.222	2041.1	1156.9
984.1476	2574.5236	2041.95	1159.65
984.2737	2575.8246	2043.8	1159.25
984.3996	2577.1248	2043.3	1158.45
984.5256	2578.4244	2028.85	1147.85
984.6515	2579.7232	2035.05	1154.5
984.7774	2581.0214	2067.3	1159.8
984.9032	2582.3189	2030.7	1150.35
985.029	2583.6157	2033.4	1146.85
985.1548	2584.9118	2029.25	1147.7
985.2806	2586.2072	2024.65	1143.55
985.4063	2587.5019	2019.2	1138.45
985.5319	2588.7959	2032.85	1150.45
985.6576	2590.0893	2033.6	1152.05
985.7832	2591.3819	2029.75	1150.05
985.9087	2592.6739	2032.65	1152.9
986.0343	2593.9652	2027.6	1143.95
986.1597	2595.2557	2017.75	1136.2
986.2852	2596.5456	2020.5	1135.85
986.4106	2597.8348	2017.85	1137.9
986.536	2599.1234	2013.9	1135.05
986.6614	2600.4112	2011.9	1132.6
986.7867	2601.6983	2011.5	1127.3
986.912	2602.9848	1996.1	1115.3
987.0372	2604.2705	2000.1	1111.05
987.1624	2605.5556	1997.1	1116.7
987.2876	2606.84	1984.25	1102.65
987.4128	2608.1237	1990.4	1108.55
987.5379	2609.4067	1985.65	1103.9
987.6629	2610.689	1988.05	1097.7
987.788	2611.9707	1984.25	1100.55
987.913	2613.2516	1976.85	1092.45
988.0379	2614.5319	1961.25	1080
988.1629	2615.8115	1966.9	1087.75
988.2878	2617.0903	1955.7	1075.2
988.4126	2618.3685	1965.25	1084.65
988.5375	2619.6461	1957.8	1074.9
988.6622	2620.9229	1951.85	1070.5
988.787	2622.199	1946.4	1062.9
988.9117	2623.4745	1951.4	1069.9
989.0364	2624.7493	1948.5	1069.7
989.161	2626.0234	1943.8	1064.75
989.2857	2627.2968	1954.25	1073.5
989.4102	2628.5695	1936.8	1054.45
989.5348	2629.8415	1930.7	1051
989.6593	2631.1128	1931.95	1050.6
989.7837	2632.3835	1932.85	1052.9
989.9082	2633.6535	1917.45	1038.65
990.0326	2634.9228	1924.65	1044.6
990.1569	2636.1914	1923.9	1044.05
990.2812	2637.4593	1914.95	1033.55
990.4055	2638.7265	1918.1	1036.4
990.5298	2639.9931	1919.7	1040
990.654	2641.259	1905.1	1023.4
990.7782	2642.5242	1903.45	1021.45
990.9023	2643.7887	1901.1	1019.55
991.0264	2645.0525	1904.35	1023.8
991.1505	2646.3156	1903.5	1022.2
991.2745	2647.5781	1893.45	1014
991.3985	2648.8398	1890.45	1009.15
991.5225	2650.1009	1888.8	998.15
991.6464	2651.3613	1887.5	1007.35
991.7703	2652.6211	1872.5	991.15
991.8942	2653.8801	1876.45	997.3
992.018	2655.1385	1876.45	994.85
992.1418	2656.3961	1877.8	999.4
992.2655	2657.6531	1868.9	989.4
992.3892	2658.9094	1868.25	990.05
992.5129	2660.1651	1872.9	994.8
992.6366	2661.42	1871.35	990.55
992.7602	2662.6743	1870.15	986.2
992.8837	2663.9279	1877.75	996.3
993.0073	2665.1808	1864.35	981.95
993.1307	2666.433	1874	992.55
993.2542	2667.6846	1864.85	985.65
993.3776	2668.9354	1872.4	989.4
993.501	2670.1856	1873.95	994.45
993.6244	2671.4351	1869.05	988.85
993.7477	2672.6839	1871.1	987.7
993.8709	2673.9321	1870.85	992.15
993.9942	2675.1795	1863.7	981.65
994.1174	2676.4263	1870.9	992.65
994.2405	2677.6724	1873.8	994.15
994.3637	2678.9179	1857.05	975.35
994.4868	2680.1626	1860.95	980.1
994.6098	2681.4067	1862.9	984.2
994.7328	2682.6501	1857.5	978.5
994.8558	2683.8928	1851.6	971.2
994.9788	2685.1348	1854.65	975.4
995.1017	2686.3761	1850.65	971.95
995.2245	2687.6168	1845.4	964.85
995.3474	2688.8568	1837.05	958.4
995.4702	2690.0961	1827	948.45
995.5929	2691.3348	1826.4	948.2
995.7156	2692.5727	1833.4	953.1
995.8383	2693.81	1816.3	933.65
995.961	2695.0466	1820.55	940.75
996.0836	2696.2826	1829.5	947.5
996.2062	2697.5178	1813.4	930.5
996.3287	2698.7524	1810	930.3
996.4512	2699.9863	1820.4	936.85
996.5737	2701.2195	1804	925.45
996.6961	2702.452	1808.3	928.05
996.8185	2703.6839	1821.15	941.6
996.9408	2704.9151	1812.45	934.75
997.0631	2706.1456	1827.05	948.3
997.1854	2707.3755	1825.25	947.5
997.3077	2708.6046	1834.45	951.9
997.4299	2709.8331	1833.8	951.35
997.552	2711.0609	1842.2	963.4
997.6742	2712.2881	1859.6	979.35
997.7963	2713.5145	1859.7	977.95
997.9183	2714.7403	1865.7	987.1
998.0403	2715.9654	1872.65	993.85
998.1623	2717.1899	1899.15	1006.6
998.2842	2718.4136	1894.3	1015.7
998.4062	2719.6367	1902.25	1023.65
998.528	2720.8591	1910.05	1022.25
998.6498	2722.0809	1911.55	1031.7
998.7716	2723.3019	1926.4	1045.1
998.8934	2724.5223	1929.4	1048.55
999.0151	2725.7421	1925.1	1043.85
999.1368	2726.9611	1946.2	1065.6
999.2584	2728.1795	1938.8	1054.9
999.38	2729.3972	1916.5	1039.05
999.5016	2730.6142	1924.75	1033.4
999.6231	2731.8306	1896.6	1019.05
999.7446	2733.0462	1884	1005.4
999.8661	2734.2612	1870.05	986.5
999.9875	2735.4756	1853.4	972.15
1000.1089	2736.6892	1833.4	952.7
1000.2302	2737.9022	1805.8	929.45
1000.3515	2739.1145	1796.4	918.1
1000.4728	2740.3262	1784.4	898.75
1000.594	2741.5372	1774.4	898.15
1000.7152	2742.7475	1755.15	873.05
1000.8363	2743.9571	1748.85	868.3
1000.9575	2745.1661	1731.55	850.1
1001.0785	2746.3744	1729.9	850.75
1001.1996	2747.582	1724.3	847.85
1001.3206	2748.7889	1711.85	828.65
1001.4415	2749.9952	1708.95	831.5
1001.5625	2751.2008	1700.75	820.8
1001.6833	2752.4057	1693.6	811.4
1001.8042	2753.61	1690.9	811.25
1001.925	2754.8136	1684.55	805.3
1002.0458	2756.0165	1675.25	798.2
1002.1665	2757.2188	1671.65	794.3
1002.2872	2758.4204	1673.75	794.8
1002.4078	2759.6213	1670.35	790.35
1002.5285	2760.8215	1665.45	782.95
1002.649	2762.0211	1679.3	797.3
1002.7696	2763.22	1667.75	785.75
1002.8901	2764.4182	1665.85	783.5
1003.0106	2765.6158	1659.5	781.15
1003.131	2766.8127	1648	769.5
1003.2514	2768.009	1648.6	768.85
1003.3717	2769.2045	1650.3	772.45
1003.492	2770.3994	1651.9	769.5
1003.6123	2771.5936	1636.1	756.75
1003.7325	2772.7872	1633.9	756.05
1003.8527	2773.9801	1633.1	751
1003.9729	2775.1723	1641.05	745.75
1004.093	2776.3639	1631.65	753.5
1004.2131	2777.5548	1636.9	756.3
1004.3331	2778.745	1626.55	747.7
1004.4531	2779.9346	1625.35	745.65
1004.5731	2781.1235	1626.65	749.05
1004.693	2782.3117	1628.2	748.8
1004.8129	2783.4992	1634.1	756.25
1004.9328	2784.6861	1635.3	757.85
1005.0526	2785.8723	1633.8	754.65
1005.1723	2787.0579	1648.95	769.25
1005.2921	2788.2428	1650.7	771.1
1005.4118	2789.427	1653.3	776.5
1005.5314	2790.6106	1666.6	789.25
1005.651	2791.7935	1670.4	793.65
1005.7706	2792.9757	1685.6	807.95
1005.8902	2794.1573	1688.65	808.9
1006.0097	2795.3382	1710	829.45
1006.1291	2796.5184	1714.5	837.7
1006.2485	2797.698	1731.95	852.1
1006.3679	2798.8769	1749.15	872.9
1006.4873	2800.0551	1763.75	885
1006.6066	2801.2327	1783.55	901.95
1006.7258	2802.4096	1794.4	917.2
1006.8451	2803.5859	1812.75	931.25
1006.9642	2804.7615	1835.3	956.9
1007.0834	2805.9364	1856.75	978.65
1007.2025	2807.1106	1875.15	999
1007.3216	2808.2842	1906.55	1030.4
1007.4406	2809.4572	1931.5	1053.7
1007.5596	2810.6294	1960.7	1083.5
1007.6785	2811.801	2008.3	1131.75
1007.7975	2812.972	2048.55	1171.45
1007.9163	2814.1423	2096.35	1221.1
1008.0352	2815.3119	2132.05	1253.2
1008.154	2816.4808	2188.9	1311.55
1008.2727	2817.6491	2234.6	1356.5
1008.3914	2818.8167	2272.05	1396.65
1008.5101	2819.9837	2325.7	1443.6
1008.6288	2821.15	2372.6	1493.05
1008.7474	2822.3157	2413.7	1538.65
1008.8659	2823.4807	2460.5	1583.1
1008.9844	2824.645	2506.6	1629.75
1009.1029	2825.8086	2539.95	1665
1009.2214	2826.9716	2601.6	1725.4
1009.3398	2828.134	2639.65	1763.3
1009.4581	2829.2957	2689.35	1813.5
1009.5764	2830.4567	2717.25	1840.95
1009.6947	2831.617	2727.4	1851.65
1009.813	2832.7767	2739.45	1862.6
1009.9312	2833.9358	2750.9	1875.65
1010.0493	2835.0941	2732.35	1851.9
1010.1675	2836.2519	2733.2	1855.9
1010.2855	2837.4089	2726.85	1849.15
1010.4036	2838.5653	2707.25	1830.7
1010.5216	2839.7211	2706.4	1828.3
1010.6396	2840.8761	2729.65	1849.9
1010.7575	2842.0306	2742.8	1868.35
1010.8754	2843.1843	2776.95	1899.25
1010.9932	2844.3374	2827.7	1950
1011.111	2845.4899	2870.95	1993.55
1011.2288	2846.6417	2947.65	2072.5
1011.3465	2847.7928	3017.85	2143.75
1011.4642	2848.9433	3098.3	2221.5
1011.5818	2850.0931	3180.65	2304.1
1011.6995	2851.2422	3256.3	2378.95
1011.817	2852.3907	3325.1	2446.5
1011.9345	2853.5385	3381.1	2503.55
1012.052	2854.6857	3457.95	2555.85
1012.1695	2855.8323	3488.45	2613.2
1012.2869	2856.9781	3549.95	2673.5
1012.4042	2858.1233	3588.65	2711.35
1012.5216	2859.2679	3629.95	2752.55
1012.6389	2860.4118	3677	2800.05
1012.7561	2861.555	3719.15	2837.9
1012.8733	2862.6976	3760.75	2884.4
1012.9905	2863.8395	3783.5	2904.9
1013.1076	2864.9808	3812.45	2936.6
1013.2247	2866.1214	3806.55	2932.15
1013.3417	2867.2614	3843.25	2966.7
1013.4587	2868.4007	3865.3	2986.65
1013.5757	2869.5393	3867.9	2988.2
1013.6926	2870.6773	3878.2	2997.85
1013.8095	2871.8146	3886.3	3005.7
1013.9263	2872.9513	3885	3004.8
1014.0431	2874.0874	3888.95	3009.85
1014.1599	2875.2227	3886.3	3008.85
1014.2766	2876.3574	3866.7	2991.45
1014.3933	2877.4915	3834.5	2959.95
1014.51	2878.6249	3810.6	2934.95
1014.6266	2879.7577	3800.3	2922.65
1014.7431	2880.8898	3789.85	2905
1014.8596	2882.0212	3751.5	2877.9
1014.9761	2883.152	3726.95	2850.25
1015.0925	2884.2821	3715.85	2840.3
1015.2089	2885.4116	3714.2	2838.7
1015.3253	2886.5405	3709.8	2834.9
1015.4416	2887.6686	3713.9	2833.3
1015.5579	2888.7962	3716.65	2842.35
1015.6741	2889.923	3732.85	2858.15
1015.7903	2891.0493	3738.3	2863.75
1015.9065	2892.1748	3750.95	2873.95
1016.0226	2893.2997	3759.9	2882.8
1016.1387	2894.424	3781.05	2907.55
1016.2547	2895.5476	3798.7	2924.15
1016.3707	2896.6706	3840.45	2964.9
1016.4866	2897.7929	3852.4	2977.3
1016.6025	2898.9145	3884.6	3008.05
1016.7184	2900.0355	3912.1	3035.15
1016.8342	2901.1559	3930	3054.25
1016.95	2902.2756	3972.45	3097
1017.0658	2903.3946	4004.15	3127.05
1017.1815	2904.513	4035.9	3159.7
1017.2971	2905.6308	4059.85	3183.95
1017.4127	2906.7479	4071.4	3197
1017.5283	2907.8643	4092.15	3215.55
1017.6439	2908.9801	4125.85	3250.35
1017.7594	2910.0953	4118.85	3241.3
1017.8748	2911.2098	4121.1	3241.45
1017.9902	2912.3236	4131.1	3247.45
1018.1056	2913.4368	4105.65	3228.5
1018.2209	2914.5494	4094.95	3218.25
1018.3362	2915.6613	4060.5	3180.65
1018.4515	2916.7725	4036.2	3157.85
1018.5667	2917.8831	3997.45	3121.5
1018.6819	2918.9931	3970.5	3092.55
1018.797	2920.1024	3946.4	3072.2
1018.9121	2921.211	3922.75	3046.25
1019.0271	2922.319	3908.55	3032.2
1019.1421	2923.4264	3888.85	3015.2
1019.2571	2924.5331	3882.9	3008.65
1019.372	2925.6391	3854.35	2978.2
1019.4869	2926.7445	3845.45	2970.65
1019.6017	2927.8493	3830.2	2953.25
1019.7165	2928.9534	3823.9	2947.4
1019.8313	2930.0569	3813.9	2935.9
1019.946	2931.1597	3826.05	2948.35
1020.0606	2932.2619	3816.95	2943.8
1020.1753	2933.3634	3814.4	2938
1020.2899	2934.4643	3804.3	2924.25
1020.4044	2935.5645	3776.4	2894.15
1020.5189	2936.6641	3754.75	2874.15
1020.6334	2937.763	3695.3	2822.4
1020.7478	2938.8613	3647.6	2770.9
1020.8622	2939.959	3581.6	2699.4
1020.9765	2941.056	3522.05	2647.3
1021.0908	2942.1523	3428.8	2550.25
1021.2051	2943.248	3349.95	2476.7
1021.3193	2944.3431	3247.5	2373.8
1021.4334	2945.4375	3157	2281.35
1021.5476	2946.5313	3055.05	2180.4
1021.6617	2947.6244	2949.5	2073.55
1021.7757	2948.7169	2855.4	1979.45
1021.8897	2949.8087	2756.7	1880.75
1022.0037	2950.8999	2660.85	1785.4
1022.1176	2951.9904	2574.75	1700.45
1022.2315	2953.0803	2508.9	1631.5
1022.3453	2954.1696	2437.55	1562.1
1022.4591	2955.2582	2385.2	1510.7
1022.5728	2956.3462	2336.15	1462.25
1022.6865	2957.4335	2302.55	1425.55
1022.8002	2958.5202	2253.6	1377.35
1022.9138	2959.6062	2225.5	1349.7
1023.0274	2960.6916	2209.25	1333.4
1023.141	2961.7764	2177.8	1302.7
1023.2545	2962.8605	2159.65	1284.7
1023.3679	2963.9439	2145.8	1271.1
1023.4813	2965.0267	2140.8	1265.7
1023.5947	2966.1089	2159.25	1260.45
1023.708	2967.1905	2129.1	1256.2
1023.8213	2968.2714	2125.25	1253.3
1023.9346	2969.3516	2123.45	1248
1024.0478	2970.4312	2131.8	1249.8
1024.1609	2971.5102	2128.15	1254.6
1024.274	2972.5885	2117	1243.25
1024.3871	2973.6662	2124.7	1245.9
1024.5002	2974.7432	2115.7	1240.55
1024.6132	2975.8196	2102.2	1226.9
1024.7261	2976.8954	2089	1215.55
1024.839	2977.9705	2085.4	1211
1024.9519	2979.045	2074.6	1200.95
1025.0647	2980.1188	2046.4	1169.75
1025.1775	2981.192	2030.8	1156.35
1025.2902	2982.2645	2008.65	1132.15
1025.4029	2983.3364	1990.1	1114.6
1025.5156	2984.4077	1967.9	1093.65
1025.6282	2985.4783	1945.55	1065.2
1025.7407	2986.5483	1899.5	1026.45
1025.8532	2987.6177	1867.15	994.85
1025.9657	2988.6864	1829.85	955.9
1026.0782	2989.7545	1794.05	917.9
1026.1906	2990.8219	1762.25	888.75
1026.3029	2991.8887	1728.45	852.25
1026.4152	2992.9548	1703.75	827.7
1026.5275	2994.0204	1669.95	796.65
1026.6397	2995.0852	1638.65	766.45
1026.7519	2996.1495	1618.75	741.55
1026.864	2997.2131	1591.45	717.4
1026.9761	2998.276	1567.4	693.7
1027.0882	2999.3383	1548.55	671.45
1027.2002	3000.4	1531.4	656
1027.3122	3001.4611	1509.45	632.8
1027.4241	3002.5215	1492.85	619.05
1027.536	3003.5812	1480.8	606.6
1027.6478	3004.6404	1467.8	593
1027.7596	3005.6989	1461.25	583.6
1027.8714	3006.7567	1447.65	571.85
1027.9831	3007.8139	1462.6	557.9
1028.0947	3008.8705	1433.45	560.05
1028.2064	3009.9264	1423.3	545
1028.3179	3010.9818	1413.35	539.35
1028.4295	3012.0364	1415.05	540.8
1028.541	3013.0905	1408	533.5
1028.6524	3014.1439	1408.45	535.15
1028.7638	3015.1966	1404.3	530.3
1028.8752	3016.2487	1402.35	528.6
1028.9865	3017.3002	1410.25	532.65
1029.0978	3018.3511	1399.65	528.15
1029.209	3019.4013	1403.65	530.8
1029.3202	3020.4509	1394.75	521.85
1029.4314	3021.4998	1400.3	526.15
1029.5425	3022.5481	1396.25	523.1
1029.6535	3023.5958	1398.3	523.05
1029.7645	3024.6428	1400.7	526.55
1029.8755	3025.6892	1397.5	524.25
1029.9864	3026.735	1406.85	532.45
1030.0973	3027.7802	1401.35	526.3
1030.2082	3028.8247	1406.4	531.45
1030.319	3029.8685	1405.45	530.6
1030.4297	3030.9118	1411.05	539.45
1030.5404	3031.9544	1418.1	546.1
1030.6511	3032.9963	1413.6	540.3
1030.7617	3034.0376	1420.15	546.8
1030.8723	3035.0783	1421.2	547
1030.9829	3036.1184	1428.45	553.35
1031.0934	3037.1578	1430.85	559.8
1031.2038	3038.1966	1438.4	563.05
1031.3142	3039.2348	1428.45	555.7
1031.4246	3040.2723	1438.85	556.25
1031.5349	3041.3092	1435.85	562.2
1031.6452	3042.3455	1425.15	552.45
1031.7554	3043.3811	1432.85	558.4
1031.8656	3044.4161	1419.45	545.9
1031.9758	3045.4505	1424.1	550.15
1032.0859	3046.4842	1415.55	541.65
1032.1959	3047.5173	1406.9	533.3
1032.3059	3048.5498	1401	526.2
1032.4159	3049.5816	1390.8	515.8
1032.5258	3050.6128	1388.5	514.5
1032.6357	3051.6434	1378.8	505.1
1032.7455	3052.6734	1372.25	498.3
1032.8553	3053.7027	1365.05	491.5
1032.9651	3054.7314	1365.5	491.5
1033.0748	3055.7594	1358.15	485.35
1033.1845	3056.7868	1341.9	467.15
1033.2941	3057.8136	1337.5	464.05
1033.4037	3058.8398	1334.9	462.5
1033.5132	3059.8653	1338.75	466.15
1033.6227	3060.8902	1333.65	459.65
1033.7321	3061.9145	1328.3	455.3
1033.8415	3062.9381	1317.35	442.4
1033.9509	3063.9612	1318.3	430.55
1034.0602	3064.9835	1308.6	436.55
1034.1694	3066.0053	1309.65	434.65
1034.2787	3067.0264	1299.25	428.4
1034.3878	3068.0469	1288.45	413.25
1034.497	3069.0668	1284.7	408.6
1034.6061	3070.086	1280.3	408.35
1034.7151	3071.1046	1267.5	394
1034.8241	3072.1226	1256.2	381.55
1034.9331	3073.1399	1248.15	375.6
1035.042	3074.1567	1240.85	369.85
1035.1508	3075.1727	1236.95	363.4
1035.2597	3076.1882	1224.65	352.25
1035.3684	3077.203	1212.9	339.75
1035.4772	3078.2173	1208.9	335.3
1035.5859	3079.2308	1201.35	324.9
1035.6945	3080.2438	1191.5	316.05
1035.8031	3081.2561	1180.65	307.45
1035.9117	3082.2678	1173.4	301.65
1036.0202	3083.2789	1166.55	292.4
1036.1286	3084.2893	1164.75	291.4
1036.2371	3085.2991	1156.15	282
1036.3454	3086.3083	1153.75	276.55
1036.4538	3087.3169	1144.55	271.05
1036.562	3088.3248	1141.95	268.95
1036.6703	3089.3321	1135.7	262.35
1036.7785	3090.3388	1128.3	257.8
1036.8866	3091.3449	1122.75	250.75
1036.9948	3092.3503	1120.4	248.2
1037.1028	3093.3551	1119.7	247.55
1037.2108	3094.3593	1110.75	238.5
1037.3188	3095.3629	1110.9	238.1
1037.4267	3096.3658	1112.25	238.45
1037.5346	3097.3681	1100.7	228.7
1037.6425	3098.3698	1101.2	226.05
1037.7503	3099.3708	1106.65	230.6
1037.858	3100.3713	1095.15	224.8
1037.9657	3101.3711	1096.25	223.3
1038.0734	3102.3702	1209.7	219.5
1038.181	3103.3688	1093.25	219.95
1038.2886	3104.3667	1083.85	211.05
1038.3961	3105.364	1085.75	214.7
1038.5036	3106.3607	1080.5	205.7
1038.611	3107.3568	1081.95	206.1
1038.7184	3108.3522	1075.6	203.15
1038.8257	3109.347	1076.4	202.55
1038.933	3110.3412	1078.3	200.9
1039.0403	3111.3348	1069.7	196.8
1039.1475	3112.3277	1066.4	194.65
1039.2547	3113.32	1066.05	196.4
1039.3618	3114.3117	1063.3	189.85
1039.4689	3115.3028	1064.85	190.35
1039.5759	3116.2932	1066.4	191.4
1039.6829	3117.2831	1071.25	193.4
1039.7898	3118.2723	1060.25	188.15
1039.8967	3119.2608	1058.95	186.65
1040.0035	3120.2488	1058.2	187.15
1040.1103	3121.2361	1058.85	185.85
1040.2171	3122.2229	1052.4	180.65
1040.3238	3123.209	1054.7	180.75
1040.4305	3124.1944	1050.85	178.3
1040.5371	3125.1793	1050.35	176.5
1040.6437	3126.1635	1049.9	178.4
1040.7502	3127.1471	1044.7	174
1040.8567	3128.1301	1043.3	170.75
1040.9631	3129.1125	1039.8	166.2
1041.0695	3130.0942	1043.9	171.1
1041.1759	3131.0753	1056	175.1
1041.2822	3132.0558	1041.55	164.6
1041.3884	3133.0357	1037.8	163.85
1041.4946	3134.015	1037.05	163.75
1041.6008	3134.9936	1033.7	158.1
1041.7069	3135.9716	1054.25	160.5
1041.813	3136.949	1032.65	160.9
1041.919	3137.9258	1051.05	162.1
1042.025	3138.902	1037.4	159.05
1042.1309	3139.8775	1033.8	164.2
1042.2368	3140.8524	1029.45	157.1
1042.3427	3141.8267	1030.9	157.6
1042.4485	3142.8004	1022.85	147.45
1042.5542	3143.7735	1033.1	154
1042.6599	3144.7459	1024.7	150.2
1042.7656	3145.7178	1027.05	153.85
1042.8712	3146.689	1022.2	150.55
1042.9768	3147.6596	1023.55	150.2
1043.0823	3148.6295	1016	143.3
1043.1878	3149.5989	1019.55	149.35
1043.2932	3150.5676	1016.65	145.55
1043.3986	3151.5357	1013.05	142.65
1043.5039	3152.5032	1015.05	144.7
1043.6092	3153.4701	1013.85	140.5
1043.7145	3154.4364	1014.75	140.35
1043.8197	3155.402	1013	141.45
1043.9248	3156.367	1015.55	141.2
1044.03	3157.3315	1040.95	140.65
1044.135	3158.2952	1009.35	136.85
1044.24	3159.2584	1006.05	134.4
1044.345	3160.221	1007.8	135.8
1044.4499	3161.1829	1003.9	132.1
1044.5548	3162.1442	1005.1	133.55
1044.6596	3163.105	1002.3	129.6
1044.7644	3164.065	1000.65	129.75
1044.8692	3165.0245	1002.15	127.45
1044.9739	3165.9834	997.85	128.9
1045.0785	3166.9416	1006.2	135.6
1045.1831	3167.8993	996.65	125.65
1045.2877	3168.8563	1000.45	129.75
1045.3922	3169.8127	996.6	124.1
1045.4966	3170.7684	993.5	119.5
1045.6011	3171.7236	996.55	122.7
1045.7054	3172.6782	992.6	119.6
1045.8098	3173.6321	992.45	119.95
1045.914	3174.5854	997.95	120.9
1046.0183	3175.5381	994.25	122.65
1046.1224	3176.4902	995.25	125.45
1046.2266	3177.4417	991.1	120.05
1046.3307	3178.3926	993.05	121.85
1046.4347	3179.3428	989.15	117.05
1046.5387	3180.2924	987.15	116.45
1046.6427	3181.2415	990.4	118.05
1046.7466	3182.1899	986.7	116.3
1046.8504	3183.1377	986.55	114.65
1046.9542	3184.0848	994	118.85
1047.058	3185.0314	987.1	114.5
1047.1617	3185.9773	981.55	110.6
1047.2654	3186.9227	984.85	111.95
1047.369	3187.8674	981.9	109.25
1047.4726	3188.8115	988.1	113.4
1047.5761	3189.755	982.65	113.65
1047.6796	3190.6979	978.6	108.1
1047.783	3191.6402	980.3	110.55
1047.8864	3192.5818	975.9	102.75
1047.9898	3193.5229	982.15	103.5
1048.0931	3194.4633	983.3	109.2
1048.1963	3195.4031	978.3	108.2
1048.2995	3196.3423	974.1	102.25
1048.4027	3197.2809	978.2	107.65
1048.5058	3198.2189	975.6	103.3
1048.6089	3199.1563	995.45	108.4
1048.7119	3200.0931	976.25	106.45
1048.8148	3201.0292	975.2	103.65
1048.9178	3201.9648	973.7	100.95
1049.0206	3202.8997	976.6	101.65
1049.1235	3203.834	973.25	99.15
1049.2262	3204.7677	972.5	103.6
1049.329	3205.7008	974.05	101.25
1049.4317	3206.6333	973.4	105.4
1049.5343	3207.5652	969.3	93.9
1049.6369	3208.4964	971.55	99.75
1049.7394	3209.4271	969.45	98.7
1049.8419	3210.3571	970.4	99.2
1049.9444	3211.2865	971.2	98.55
1050.0468	3212.2154	966.95	95.65
1050.1491	3213.1436	967.9	93.55
1050.2514	3214.0712	972	95.2
1050.3537	3214.9982	967.95	97.65
1050.4559	3215.9246	967.3	94.65
1050.5581	3216.8503	964	93.05
1050.6602	3217.7755	965.35	93.25
1050.7623	3218.7001	960.05	89.35
1050.8643	3219.624	961.95	90
1050.9663	3220.5473	962.75	91.45
1051.0682	3221.4701	964.45	91.4
1051.1701	3222.3922	966.45	91.6
1051.2719	3223.3137	960.25	90.05
1051.3737	3224.2346	959.3	90.15
1051.4754	3225.1549	958.25	87.75
1051.5771	3226.0746	957.8	88.3
1051.6788	3226.9937	957.7	84.7
1051.7804	3227.9121	958.5	88.8
1051.8819	3228.83	959.3	88.85
1051.9834	3229.7473	960.5	88
1052.0849	3230.6639	957.3	87.55
1052.1863	3231.5799	955.45	84
1052.2876	3232.4954	956.55	85.75
1052.3889	3233.4102	957.95	86.9
1052.4902	3234.3244	956.25	85.95
1052.5914	3235.238	953.5	82.55
1052.6926	3236.151	967.25	81.95
1052.7937	3237.0634	952	81.7
1052.8948	3237.9752	953.05	82.05
1052.9958	3238.8864	953.55	81.3
1053.0968	3239.797	955	83.85
1053.1977	3240.7069	953.8	82.3
1053.2986	3241.6163	951.35	78.9
1053.3994	3242.5251	948.6	79.65
1053.5002	3243.4332	948.9	79.05
1053.6009	3244.3408	946.9	75.1
1053.7016	3245.2477	950.35	81.05
1053.8022	3246.154	949.8	76.2
1053.9028	3247.0598	949.15	78.4
1054.0034	3247.9649	949.2	77.8
1054.1039	3248.8694	949.6	78.4
1054.2043	3249.7733	945.6	75.9
1054.3047	3250.6766	946.8	74.8
1054.4051	3251.5793	945.85	74.45
1054.5054	3252.4814	942.65	71.15
1054.6056	3253.3829	942.9	71.3
1054.7058	3254.2838	943.15	71.8
1054.806	3255.1841	945.45	75.6
1054.9061	3256.0838	942.75	73.1
1055.0061	3256.9829	939.25	68.4
1055.1062	3257.8814	941.6	68.5
1055.2061	3258.7792	939.9	66.8
1055.306	3259.6765	943.35	71
1055.4059	3260.5731	935.1	65.85
1055.5057	3261.4692	935.1	64
1055.6055	3262.3647	936.05	64.25
1055.7052	3263.2595	936.65	66
1055.8049	3264.1538	934	65
1055.9045	3265.0474	936.85	65.75
1056.0041	3265.9404	934.75	66.15
1056.1036	3266.8329	930.8	61.2
1056.2031	3267.7247	941	59.2
1056.3025	3268.616	928.9	58.35
1056.4019	3269.5066	923.25	51.85
1056.5013	3270.3966	926.35	53.2
1056.6005	3271.286	924.95	55
