Software Version:	3.9.2.0
Unit SN:	10000200
Spectrometer SN:	6960
Date:	3/8/2024 1:25:43 PM
Data Line Index:	25
Spectral Points:	2048
Integration time (ms):	125
Averages:	20
Delay (ms):	30000
Sequence Number:	1
Processing:	dark subtract
Laser Power (mW):	300
Laser Current (mA):	822
Laser Diode Temp (C):	25.1
Laser Case Temp (C):	26.3
System Temp (C):	26.2
Spectrometer Temp (C):	24.1
CCD Temp (C):	0.007
Secondary Temp (C):	20.01
Heatsink Temp (C):	21.301
CCDPCB Temp (C):	35.918
SecondaryPCB Temp (C):	30.416

Wavelength	RamanShift	Raw Counts	Dark Subtracted
787.061	30.1047	450.7	42.65
787.2016	32.3739	450.55	44
787.3422	34.6426	457.8	49.85
787.4828	36.9109	463.3	52.9
787.6235	39.1787	470.85	57.25
787.7642	41.4461	483.5	64.6
787.9049	43.7131	489	68.05
788.0456	45.9796	496.3	73.15
788.1863	48.2456	506.45	79.55
788.3271	50.5112	515.3	82.4
788.4679	52.7764	519.7	84.25
788.6087	55.0411	536.8	96
788.7496	57.3054	544.35	96.35
788.8904	59.5692	553.15	105.15
789.0313	61.8326	563.25	114.45
789.1722	64.0955	573.75	122
789.3132	66.3579	592.65	135.15
789.4541	68.6199	611.65	149.15
789.5951	70.8815	644.65	177.6
789.7361	73.1426	721.75	251.35
789.8771	75.4032	915.8	443.2
790.0181	77.6634	1396.65	917.95
790.1592	79.9231	2518.3	2030
790.3003	82.1824	4953.75	4447.8
790.4414	84.4412	9300.05	8761.45
790.5825	86.6995	15338.8	14760.75
790.7237	88.9574	21212.85	20602.3
790.8648	91.2148	25261.3	24627.3
791.006	93.4717	27082.85	26432.85
791.1472	95.7282	27423.35	26767.5
791.2885	97.9842	27259.9	26594.25
791.4297	100.2398	26619.35	25952.95
791.571	102.4949	25939.1	25272.4
791.7123	104.7495	25158.45	24484.8
791.8536	107.0036	24303.55	23633.4
791.9949	109.2573	23500.5	22832.3
792.1363	111.5105	22766.3	22093.7
792.2777	113.7632	22067.9	21390.15
792.4191	116.0154	21461.45	20775.8
792.5605	118.2672	21012.15	20329.85
792.7019	120.5185	20526.1	19844.15
792.8434	122.7693	20151.1	19469.7
792.9849	125.0197	19826	19135.05
793.1264	127.2696	19540.8	18849.3
793.2679	129.519	19360	18665.5
793.4094	131.7679	19158.25	18461
793.551	134.0163	18930.55	18225
793.6926	136.2642	18719.9	18014.9
793.8342	138.5117	18421	17712.75
793.9758	140.7587	18151.75	17439.9
794.1175	143.0052	17925.35	17211.45
794.2591	145.2512	17665.55	16949.15
794.4008	147.4967	17393.65	16684.25
794.5425	149.7417	17186.85	16471.3
794.6842	151.9863	17064.2	16341.7
794.826	154.2304	16973.75	16246.45
794.9677	156.4739	16841.4	16107.9
795.1095	158.717	16781.15	16050.85
795.2513	160.9596	16603.5	15868.85
795.3931	163.2017	16350.8	15613.7
795.535	165.4433	16050.5	15312.15
795.6768	167.6844	15725.55	14984.85
795.8187	169.925	15386.7	14644.35
795.9606	172.1651	15047.65	14305.15
796.1025	174.4047	14760.5	14011.4
796.2445	176.6439	14489.25	13739
796.3864	178.8825	14235.55	13480.35
796.5284	181.1206	14091.3	13335.2
796.6704	183.3582	13939.4	13172.7
796.8124	185.5954	13816.05	13052
796.9544	187.832	13721.7	12952.8
797.0965	190.0681	13680.05	12908.15
797.2386	192.3037	13674.15	12904.9
797.3806	194.5388	13683.2	12907.3
797.5228	196.7734	13676.8	12893.8
797.6649	199.0075	13747.45	12968.05
797.807	201.2411	13900.95	13117.9
797.9492	203.4742	13957.8	13173.7
798.0914	205.7068	14095.9	13309.3
798.2336	207.9389	14204.75	13417.45
798.3758	210.1704	14326.75	13543.5
798.518	212.4015	14474.45	13701.95
798.6603	214.632	14635.75	13870.85
798.8025	216.862	14802.35	14034.85
798.9448	219.0915	14948.3	14181.6
799.0871	221.3205	15109.85	14343.35
799.2294	223.549	15325.15	14558.3
799.3718	225.777	15586	14815.1
799.5141	228.0044	15854.65	15083.7
799.6565	230.2314	16263.15	15488.85
799.7989	232.4578	16577.15	15799.25
799.9413	234.6837	16891	16106.25
800.0837	236.909	17069.55	16280.05
800.2262	239.1339	17047.1	16232.8
800.3687	241.3582	16915.85	16115.95
800.5111	243.582	16609.1	15779.25
800.6536	245.8053	16385.1	15573.7
800.7961	248.0281	16069.35	15264.65
800.9387	250.2503	15887.25	15075.85
801.0812	252.472	15789	14974.5
801.2238	254.6932	15774.85	14961.3
801.3664	256.9139	15742.55	14927
801.509	259.134	15826.85	15009.35
801.6516	261.3536	15864.7	15043.8
801.7942	263.5727	15997.1	15174.85
801.9369	265.7912	16028.1	15209
802.0795	268.0092	16129.8	15311.25
802.2222	270.2267	16141.35	15325.1
802.3649	272.4436	16145.3	15322.6
802.5076	274.6601	16115.8	15284.45
802.6504	276.8759	16054.2	15228.2
802.7931	279.0913	15978.75	15153.25
802.9359	281.3061	15892.65	15064.7
803.0787	283.5204	15889.35	15057
803.2215	285.7341	15933.05	15094
803.3643	287.9473	16026.65	15181.5
803.5071	290.16	16193.85	15354.1
803.6499	292.3721	16459.4	15623.9
803.7928	294.5837	16857.65	16022.1
803.9357	296.7947	17173.25	16338.6
804.0786	299.0052	17373.3	16536.65
804.2215	301.2152	17241.15	16404.1
804.3644	303.4246	16940.8	16109.8
804.5074	305.6334	16439.6	15607.45
804.6503	307.8418	15933.1	15095.7
804.7933	310.0495	15526.75	14692.1
804.9363	312.2568	15188.6	14351.8
805.0793	314.4635	14932.85	14091.4
805.2223	316.6696	14795.4	13950.2
805.3653	318.8752	14702.35	13852.95
805.5084	321.0802	14703.45	13856.9
805.6514	323.2847	14817.65	13970.75
805.7945	325.4887	14872.55	14024.05
805.9376	327.692	14826.3	13975.3
806.0807	329.8949	14685.65	13835.5
806.2238	332.0972	14458.25	13603.7
806.367	334.2989	14210.6	13352.5
806.5101	336.5001	13927.15	13070.9
806.6533	338.7007	13747.7	12891.4
806.7965	340.9008	13582.55	12726
806.9397	343.1003	13463.5	12609.15
807.0829	345.2992	13383.25	12525.85
807.2261	347.4976	13356.9	12498
807.3693	349.6955	13327.8	12463.15
807.5126	351.8927	13358.55	12491.45
807.6559	354.0895	13336.95	12457.65
807.7991	356.2856	13375.55	12503.15
807.9424	358.4812	13335.5	12468
808.0857	360.6763	13375.1	12503.8
808.2291	362.8707	13342.55	12475.65
808.3724	365.0646	13370.8	12498.6
808.5158	367.258	13422.2	12549.45
808.6591	369.4508	13447.8	12575.65
808.8025	371.643	13522.85	12639.15
808.9459	373.8346	13519.3	12641.95
809.0893	376.0257	13561.8	12678.75
809.2327	378.2162	13496	12614.95
809.3762	380.4062	13420.25	12540.2
809.5196	382.5956	13279.75	12403.35
809.6631	384.7844	13205.7	12329.7
809.8066	386.9726	13057.35	12188.3
809.9501	389.1603	13006.55	12139
810.0936	391.3474	12977.8	12075.4
810.2371	393.5339	12953.75	12082.7
810.3806	395.7199	12908.1	12033.6
810.5241	397.9052	12922.35	12049.6
810.6677	400.09	12957.8	12084.25
810.8113	402.2743	13029.55	12156.35
810.9548	404.4579	13147.3	12268
811.0984	406.641	13330.2	12452.9
811.2421	408.8235	13499.9	12622.3
811.3857	411.0054	13783.15	12901.05
811.5293	413.1868	14125.8	13242.15
811.673	415.3675	14416.05	13532.7
811.8166	417.5477	14590.55	13706.65
811.9603	419.7273	14591.6	13702
812.104	421.9064	14515.1	13626.4
812.2477	424.0848	14413.1	13528.2
812.3914	426.2627	14193.9	13310.3
812.5351	428.4399	13919.75	13034.5
812.6788	430.6166	13601.4	12708.4
812.8226	432.7928	13230.2	12337.7
812.9663	434.9683	12936.15	12047.35
813.1101	437.1432	12653.95	11764.95
813.2539	439.3176	12504.35	11619.9
813.3977	441.4914	12359.65	11477.5
813.5415	443.6645	12376.7	11494.1
813.6853	445.8371	12306.15	11421.45
813.8291	448.0091	12224.8	11334.65
813.973	450.1806	12237.25	11349.7
814.1168	452.3514	12187.45	11304.7
814.2607	454.5216	12214.05	11316.45
814.4046	456.6913	12137.1	11251.6
814.5485	458.8603	12179.7	11290.5
814.6924	461.0288	12245.6	11360.75
814.8363	463.1967	12236.6	11357.7
814.9802	465.3639	12342.95	11455.55
815.1241	467.5306	12404.9	11518.7
815.2681	469.6967	12518.55	11637.15
815.412	471.8622	12647.85	11764.25
815.556	474.0271	12784.8	11902.5
815.7	476.1914	12841.25	11950.05
815.844	478.3551	12823.65	11932.3
815.988	480.5182	12803.05	11917.8
816.132	482.6807	12830.05	11949.1
816.276	484.8426	12940.2	12065.8
816.4201	487.0039	13235	12353.2
816.5641	489.1647	13640.85	12752.4
816.7082	491.3248	14037.95	13148.5
816.8522	493.4843	14191.2	13306.45
816.9963	495.6432	14194.95	13309.75
817.1404	497.8015	14094.95	13197.4
817.2845	499.9592	14071.75	13165.65
817.4286	502.1163	13958.45	13058.05
817.5727	504.2728	13725.15	12831.05
817.7168	506.4287	13411.8	12528.05
817.861	508.5839	13026.65	12144.1
818.0051	510.7386	12736.35	11844.35
818.1493	512.8927	12565.75	11664.1
818.2935	515.0461	12481.5	11586.4
818.4377	517.199	12465.7	11564.75
818.5818	519.3512	12527.4	11624.25
818.726	521.5029	12636.8	11733.95
818.8703	523.6539	12773.4	11875.05
819.0145	525.8043	12832.7	11930.9
819.1587	527.9541	12839.6	11933.1
819.303	530.1033	12744.6	11844.15
819.4472	532.2519	12721.7	11823.45
819.5915	534.3999	12816.45	11915.25
819.7357	536.5472	13000.85	12102.15
819.88	538.694	13409.3	12512.3
820.0243	540.8401	13902.7	13001.5
820.1686	542.9856	14333.9	13424.9
820.3129	545.1305	14490.5	13572.6
820.4572	547.2748	14349.55	13431.95
820.6016	549.4185	14012.05	13089.65
820.7459	551.5615	13749.05	12830.2
820.8902	553.704	13637.25	12721.5
821.0346	555.8458	13599.1	12689.15
821.1789	557.987	13675.95	12769.45
821.3233	560.1276	13737.1	12824.9
821.4677	562.2675	13832.9	12917.85
821.6121	564.4069	14001.25	13084.35
821.7565	566.5456	14142.95	13231
821.9009	568.6837	14121	13209.55
822.0453	570.8212	13802.95	12891.9
822.1897	572.958	13403.7	12490.2
822.3342	575.0942	12993.3	12080.85
822.4786	577.2299	12734.05	11831.05
822.6231	579.3648	12646.55	11754.2
822.7675	581.4992	12692.1	11811.3
822.912	583.6329	12868.1	11991.35
823.0565	585.766	13084.95	12199.95
823.201	587.8985	13219.85	12325.45
823.3454	590.0304	13241.45	12309.4
823.4899	592.1616	13180.3	12263.8
823.6345	594.2922	13050.45	12133
823.779	596.4222	12902	11984.7
823.9235	598.5515	12741.25	11825.25
824.068	600.6802	12563	11646.8
824.2126	602.8083	12403.65	11490.1
824.3571	604.9358	12363.9	11446.65
824.5017	607.0626	12322	11401.6
824.6462	609.1888	12333.6	11408.25
824.7908	611.3144	12316.9	11390.5
824.9354	613.4393	12291.55	11368.1
825.08	615.5636	12252.6	11329.1
825.2246	617.6873	12197.8	11277.85
825.3692	619.8103	12156.45	11231.9
825.5138	621.9327	12029.05	11109.85
825.6584	624.0544	11926.6	11010.65
825.803	626.1756	11840.55	10925.65
825.9477	628.2961	11753.5	10834.1
826.0923	630.4159	11710.5	10787.6
826.237	632.5351	11682.95	10755.25
826.3816	634.6537	11640.5	10713.2
826.5263	636.7716	11617.4	10689.75
826.6709	638.8889	11644.95	10712.5
826.8156	641.0056	11644.3	10713.85
826.9603	643.1216	11639.35	10710
827.105	645.237	11633.6	10701.2
827.2497	647.3518	11633.5	10717.15
827.3944	649.4659	11601.6	10687.25
827.5391	651.5793	11584.35	10669.6
827.6838	653.6922	11580.45	10663.65
827.8285	655.8043	11566.1	10644.95
827.9733	657.9159	11574.35	10653
828.118	660.0268	11481.75	10558.85
828.2627	662.137	11457.55	10534.65
828.4075	664.2466	11471.05	10537.5
828.5522	666.3556	11420.5	10491.35
828.697	668.4639	11407.55	10481.8
828.8418	670.5716	11417.05	10497.6
828.9865	672.6786	11449.7	10526.25
829.1313	674.785	11492.7	10561.5
829.2761	676.8907	11538.25	10611.75
829.4209	678.9958	11586.25	10665
829.5657	681.1002	11585.95	10660.3
829.7105	683.204	11582.6	10646.15
829.8553	685.3072	11531	10599.6
830.0001	687.4097	11486.9	10559.9
830.1449	689.5115	11444.95	10513.3
830.2898	691.6127	11404	10474.1
830.4346	693.7132	11345.95	10421.25
830.5794	695.8131	11349.05	10407.1
830.7243	697.9123	11325.95	10391.3
830.8691	700.0109	11324.35	10387.05
831.014	702.1089	11295.95	10359.45
831.1588	704.2061	11334.4	10402.55
831.3037	706.3028	11385.05	10450.8
831.4486	708.3987	11429.65	10494.2
831.5935	710.4941	11463.45	10530.15
831.7383	712.5887	11593.2	10664.7
831.8832	714.6827	11809.35	10878.4
832.0281	716.7761	12118.75	11190.35
832.173	718.8688	12404.5	11474.75
832.3179	720.9608	12611.25	11669.8
832.4628	723.0522	12696.8	11753.2
832.6077	725.1429	12608.65	11671.05
832.7527	727.233	12405.9	11467.85
832.8976	729.3224	12242.9	11305.65
833.0425	731.4112	12024.15	11091.9
833.1874	733.4993	11886.9	10950.55
833.3324	735.5867	11688.2	10752.05
833.4773	737.6735	11551.6	10614.5
833.6222	739.7596	11449.45	10513.65
833.7672	741.845	11373.65	10438.45
833.9122	743.9298	11349.1	10412.3
834.0571	746.014	11326.4	10386.95
834.2021	748.0974	11325.05	10380.65
834.347	750.1802	11338.1	10392.15
834.492	752.2624	11346.45	10400.25
834.637	754.3439	11390.15	10447.15
834.782	756.4247	11496.5	10548.05
834.9269	758.5048	11633.45	10692.15
835.0719	760.5843	11853.8	10910.05
835.2169	762.6631	12193.55	11249.35
835.3619	764.7413	12688.75	11744.25
835.5069	766.8188	13286.65	12343.35
835.6519	768.8956	13760.8	12817.55
835.7969	770.9718	14111.65	13167.55
835.9419	773.0473	13991.6	13046
836.0869	775.1221	13681.3	12740.75
836.232	777.1962	13347.6	12406
836.377	779.2697	13172.1	12224.7
836.522	781.3426	13232.75	12277.9
836.667	783.4147	13429.8	12483.85
836.8121	785.4862	13648.45	12705.75
836.9571	787.557	13623.8	12679.6
837.1021	789.6271	13272.35	12324.4
837.2472	791.6966	12714	11768.15
837.3922	793.7654	12174.7	11231.1
837.5373	795.8335	11814.35	10869.05
837.6823	797.901	11600.4	10653.3
837.8274	799.9678	11514.35	10565.5
837.9724	802.0339	11477.9	10533.5
838.1175	804.0993	11490.95	10534.3
838.2626	806.1641	11495.1	10547.65
838.4076	808.2282	11420.65	10476.6
838.5527	810.2916	11337.5	10388.15
838.6978	812.3544	11245	10303.15
838.8428	814.4164	11160.9	10217.2
838.9879	816.4778	11206.15	10252
839.133	818.5385	11226.2	10276.55
839.2781	820.5986	11288.8	10340.05
839.4232	822.658	11448.4	10498.9
839.5682	824.7166	11614.8	10669.6
839.7133	826.7747	11927.9	10978.8
839.8584	828.832	12233.4	11282.65
840.0035	830.8886	12420.7	11472.9
840.1486	832.9446	12579.45	11627.55
840.2937	834.9999	12540.45	11591.35
840.4388	837.0545	12483.2	11529.75
840.5839	839.1085	12366.25	11413.95
840.729	841.1618	12286.15	11332.9
840.8741	843.2143	12166.4	11218.3
841.0192	845.2662	12036	11086.8
841.1643	847.3175	11970.15	11020.8
841.3095	849.368	11881.95	10925.1
841.4546	851.4179	11761.6	10813.05
841.5997	853.467	11614.55	10663.45
841.7448	855.5155	11542.65	10591
841.8899	857.5633	11442.2	10488.75
842.0351	859.6105	11357.1	10407.4
842.1802	861.6569	11297.4	10344.85
842.3253	863.7027	11230.15	10274.7
842.4704	865.7478	11200.6	10248.2
842.6156	867.7922	11209.45	10257.75
842.7607	869.8359	11219.5	10266.65
842.9058	871.8789	11319.5	10365.85
843.0509	873.9212	11489.25	10502.4
843.1961	875.9629	11585.15	10629.85
843.3412	878.0039	11764.65	10814.4
843.4863	880.0441	11867.3	10920.9
843.6315	882.0837	11886.3	10934.15
843.7766	884.1226	11851.55	10902.25
843.9218	886.1609	11780.95	10831.65
844.0669	888.1984	11733.85	10785.55
844.212	890.2352	11749	10796.8
844.3572	892.2714	11722.1	10764.75
844.5023	894.3069	11699.65	10745.4
844.6475	896.3416	11621.1	10671.65
844.7926	898.3757	11541	10584.95
844.9377	900.4091	11531.15	10576.75
845.0829	902.4418	11540.65	10577.5
845.228	904.4739	11566.95	10605.85
845.3732	906.5052	11555.25	10601.9
845.5183	908.5358	11482.65	10528.2
845.6635	910.5658	11358.1	10399
845.8086	912.595	11186.25	10231.15
845.9538	914.6236	10996	10039.95
846.0989	916.6515	10914.7	9959.95
846.2441	918.6786	10915.65	9957.4
846.3892	920.7051	10929.1	9972.7
846.5344	922.7309	11033.2	10074.55
846.6795	924.756	11084.9	10132.75
846.8246	926.7804	11176.9	10221.1
846.9698	928.8041	11144.65	10192.35
847.1149	930.8272	11191	10239.25
847.2601	932.8495	11165.65	10209.5
847.4052	934.8711	11135.65	10177.15
847.5504	936.892	11027.3	10074
847.6955	938.9123	10929.5	9970.85
847.8407	940.9318	10839.5	9886.45
847.9858	942.9506	10760.2	9805.8
848.131	944.9688	10683.05	9726.75
848.2761	946.9862	10607.7	9654.05
848.4213	949.003	10551	9593.95
848.5664	951.019	10538.7	9585.6
848.7115	953.0344	10509.5	9556.2
848.8567	955.0491	10526.65	9573.95
849.0018	957.063	10589.45	9628.65
849.147	959.0763	10672.05	9713.8
849.2921	961.0888	10736.5	9779.6
849.4373	963.1007	10829.3	9874
849.5824	965.1119	10852.05	9908.15
849.7275	967.1223	10879.2	9940.55
849.8727	969.1321	10863.3	9926.65
850.0178	971.1412	10906.35	9962.45
850.1629	973.1495	10891.05	9941.7
850.3081	975.1572	10988.55	9989.45
850.4532	977.1641	10990.25	10035.45
850.5983	979.1704	10981.95	10026.6
850.7435	981.1759	10952.45	9992.85
850.8886	983.1808	10989.1	10030.65
851.0337	985.1849	11055.7	10090.5
851.1788	987.1884	11173.85	10219.35
851.324	989.1911	11349.6	10395.05
851.4691	991.1932	11469.85	10515.9
851.6142	993.1945	11493.85	10542
851.7593	995.1951	11460.85	10506.55
851.9045	997.1951	11415.25	10451.45
852.0496	999.1943	11393.5	10435
852.1947	1001.1928	11328.7	10373.25
852.3398	1003.1906	11359.9	10400.7
852.4849	1005.1877	11423.6	10467.8
852.63	1007.1841	11445	10491.7
852.7751	1009.1798	11419.65	10465.65
852.9202	1011.1748	11285.1	10334.15
853.0653	1013.1691	11087.65	10130.4
853.2104	1015.1627	10885.7	9932.8
853.3555	1017.1556	10656.2	9702.75
853.5006	1019.1477	10570.85	9622.9
853.6457	1021.1392	10497.7	9551.5
853.7908	1023.1299	10485.6	9543.8
853.9359	1025.12	10510.55	9574.3
854.081	1027.1093	10567.8	9642.6
854.2261	1029.0979	10659.4	9739.45
854.3712	1031.0859	10737.75	9810.9
854.5163	1033.0731	10771.2	9834.55
854.6613	1035.0596	10712.4	9767.85
854.8064	1037.0454	10567.35	9617.8
854.9515	1039.0304	10453	9502.5
855.0965	1041.0148	10327.85	9376.35
855.2416	1042.9985	10266.75	9314.95
855.3867	1044.9814	10236.9	9285.3
855.5317	1046.9636	10170.55	9219.15
855.6768	1048.9452	10144.25	9195.25
855.8219	1050.926	10156.5	9205.45
855.9669	1052.9061	10168	9217.75
856.112	1054.8855	10189.65	9234.85
856.257	1056.8642	10233.8	9277.3
856.4021	1058.8421	10300.3	9344.65
856.5471	1060.8194	10335	9382.15
856.6921	1062.7959	10365.8	9411.75
856.8372	1064.7717	10394.55	9441.05
856.9822	1066.7469	10464.35	9514.05
857.1272	1068.7213	10481.6	9524.1
857.2723	1070.695	10504.85	9552.55
857.4173	1072.6679	10440.2	9485.2
857.5623	1074.6402	10427.6	9472.4
857.7073	1076.6117	10391.3	9432.8
857.8523	1078.5826	10345.65	9390.5
857.9973	1080.5527	10320.2	9366.2
858.1423	1082.5221	10348.55	9393.45
858.2873	1084.4908	10506.25	9553.15
858.4323	1086.4587	10614.55	9662.9
858.5773	1088.426	10764.35	9810.3
858.7223	1090.3925	10744.65	9783.75
858.8673	1092.3584	10730.1	9778.15
859.0123	1094.3235	10661.85	9714.05
859.1573	1096.2879	10629.9	9677.5
859.3022	1098.2515	10643.6	9691.7
859.4472	1100.2145	10746.55	9798.35
859.5922	1102.1767	10858.6	9903.5
859.7371	1104.1382	11043.9	10093.8
859.8821	1106.099	11267.85	10314.9
860.027	1108.0591	11484.15	10534.05
860.172	1110.0185	11653.25	10698.45
860.3169	1111.9771	11703.65	10752.05
860.4619	1113.9351	11531.75	10583.4
860.6068	1115.8923	11289.35	10336.4
860.7517	1117.8488	11043.3	10090.05
860.8967	1119.8045	10779.8	9828.15
861.0416	1121.7596	10677.35	9727.3
861.1865	1123.7139	10593.35	9643.9
861.3314	1125.6675	10576.75	9628.55
861.4763	1127.6204	10608.45	9661
861.6212	1129.5726	10603.5	9650.7
861.7661	1131.524	10574.8	9622.05
861.911	1133.4748	10520.3	9570.05
862.0559	1135.4248	10440.9	9490.1
862.2008	1137.3741	10416.2	9466.95
862.3457	1139.3226	10356.65	9405.6
862.4905	1141.2705	10328.05	9377.8
862.6354	1143.2176	10206.95	9248.45
862.7803	1145.164	10207.25	9254.15
862.9251	1147.1097	10196.9	9246.85
863.07	1149.0546	10163	9212.05
863.2148	1150.9989	10072.6	9119.95
863.3597	1152.9424	9946.7	8995.3
863.5045	1154.8852	9831.95	8883.25
863.6493	1156.8272	9721.45	8772.4
863.7942	1158.7686	9713.65	8753.85
863.939	1160.7092	9703	8750.05
864.0838	1162.6491	9694.5	8741.55
864.2286	1164.5883	9780.2	8828.65
864.3734	1166.5267	9874.2	8920.5
864.5182	1168.4644	10038.55	9086.85
864.663	1170.4014	10199.85	9250.5
864.8078	1172.3377	10444.5	9500.2
864.9526	1174.2732	10692.15	9740.55
865.0974	1176.2081	10978.25	10030.95
865.2421	1178.1421	11307	10352.65
865.3869	1180.0755	11624.9	10677.05
865.5317	1182.0082	11788.9	10842.6
865.6764	1183.9401	11846.4	10901
865.8212	1185.8713	11711.5	10770.8
865.9659	1187.8017	11485.25	10549.6
866.1106	1189.7315	11174.6	10249
866.2554	1191.6605	10886.5	9959.75
866.4001	1193.5888	10653.8	9721.05
866.5448	1195.5163	10566.5	9629.8
866.6895	1197.4432	10463.65	9517.15
866.8342	1199.3693	10424.1	9481.3
866.9789	1201.2947	10395.1	9449
867.1236	1203.2193	10368.15	9425.45
867.2683	1205.1432	10419.75	9472.35
867.413	1207.0664	10398.05	9453.15
867.5576	1208.9889	10419.9	9471.5
867.7023	1210.9106	10460.85	9517.6
867.847	1212.8316	10515.15	9568.4
867.9916	1214.7519	10556.9	9600.7
868.1363	1216.6715	10561.85	9615.5
868.2809	1218.5903	10591.35	9644.15
868.4255	1220.5084	10585.25	9640.35
868.5701	1222.4257	10620.8	9677.75
868.7148	1224.3424	10587.75	9647.25
868.8594	1226.2583	10679.1	9733.95
869.004	1228.1735	10756.55	9810.5
869.1486	1230.0879	10862.5	9917.95
869.2932	1232.0016	10998.3	10053
869.4377	1233.9146	11074.7	10125.1
869.5823	1235.8269	11002.35	10056.35
869.7269	1237.7384	10900.4	9952.05
869.8715	1239.6492	10744.4	9801.5
870.016	1241.5592	10664.95	9718.55
870.1606	1243.4686	10620.15	9678.3
870.3051	1245.3772	10627.4	9682.75
870.4496	1247.285	10666.55	9717.1
870.5941	1249.1922	10698.75	9753.2
870.7387	1251.0986	10739.8	9797.8
870.8832	1253.0042	10762.4	9819.6
871.0277	1254.9092	10807.65	9863.9
871.1722	1256.8134	10901.05	9959.35
871.3167	1258.7169	11041.8	10099.5
871.4611	1260.6196	11214.6	10272.6
871.6056	1262.5216	11424.4	10481.3
871.7501	1264.4229	11581.3	10639.5
871.8945	1266.3234	11736.1	10791.05
872.039	1268.2232	11857.15	10909.7
872.1834	1270.1223	11886.95	10945.45
872.3278	1272.0207	11922.2	10979.55
872.4723	1273.9183	11867.25	10915.5
872.6167	1275.8151	11796.6	10854.9
872.7611	1277.7113	11723.15	10779.25
872.9055	1279.6067	11682.95	10740.9
873.0499	1281.5014	11682.9	10736.4
873.1943	1283.3953	11743.85	10798.75
873.3386	1285.2885	11895.95	10952.35
873.483	1287.181	12070.4	11127.55
873.6274	1289.0727	12255.85	11316.7
873.7717	1290.9637	12413.9	11471.65
873.9161	1292.854	12552.65	11609.2
874.0604	1294.7435	12635.3	11688.35
874.2047	1296.6323	12722.95	11779.4
874.349	1298.5204	12853.2	11909.15
874.4933	1300.4077	12947.95	12002.05
874.6376	1302.2943	12998.6	12056.8
874.7819	1304.1802	12923.05	11979.25
874.9262	1306.0653	12739.65	11796.95
875.0705	1307.9497	12459.5	11519.3
875.2147	1309.8333	12243.5	11302.2
875.359	1311.7162	12081.85	11138.5
875.5032	1313.5984	12038.95	11092.45
875.6475	1315.4798	12023.7	11080.4
875.7917	1317.3605	12086.2	11129.65
875.9359	1319.2405	12077.55	11131.75
876.0801	1321.1197	11970.55	11022.45
876.2243	1322.9982	11791.8	10843.8
876.3685	1324.876	11669.35	10728.05
876.5127	1326.753	11548.45	10603.65
876.6569	1328.6293	11471.75	10527.7
876.801	1330.5048	11445.8	10499.5
876.9452	1332.3796	11337.1	10393.8
877.0893	1334.2537	11322.2	10353.75
877.2335	1336.127	11247.35	10307
877.3776	1337.9996	11233.85	10294.4
877.5217	1339.8714	11197.4	10253.25
877.6658	1341.7426	11206.3	10218.75
877.8099	1343.6129	11174.3	10229.6
877.954	1345.4826	11143.3	10198.4
878.0981	1347.3515	11151.2	10205.5
878.2422	1349.2196	11114.75	10170.95
878.3862	1351.087	11119.65	10174.45
878.5303	1352.9537	11182.65	10238.25
878.6743	1354.8197	11281.35	10339.9
878.8184	1356.6849	11474.6	10529.6
878.9624	1358.5493	11573.3	10630.35
879.1064	1360.4131	11642.6	10701.45
879.2504	1362.276	11665.95	10725.9
879.3944	1364.1383	11591.15	10649.75
879.5384	1365.9998	11386.75	10440.85
879.6823	1367.8606	11039.3	10096.05
879.8263	1369.7206	10736.3	9792.95
879.9702	1371.5799	10455	9507.2
880.1142	1373.4384	10258.25	9316.5
880.2581	1375.2962	10074.55	9131.05
880.402	1377.1533	9809.65	8868.6
880.5459	1379.0096	9477.25	8542.85
880.6898	1380.8652	9172.25	8235.6
880.8337	1382.7201	8914	7977.6
880.9776	1384.5742	8714	7775.05
881.1215	1386.4275	8512.6	7570.75
881.2653	1388.2802	8404.7	7464.95
881.4092	1390.132	8297.95	7356.2
881.553	1391.9832	8226.8	7280.2
881.6968	1393.8336	8129.15	7191.45
881.8406	1395.6832	8089.45	7148.85
881.9844	1397.5322	8067.5	7125.2
882.1282	1399.3803	8084.35	7139.2
882.272	1401.2278	8045.75	7105.8
882.4158	1403.0745	8048.65	7111
882.5595	1404.9204	8029.9	7090.85
882.7033	1406.7656	8042.9	7104.4
882.847	1408.6101	8066.15	7127.45
882.9908	1410.4538	8070.55	7131.3
883.1345	1412.2968	8129.3	7188.8
883.2782	1414.139	8179.3	7239.3
883.4219	1415.9805	8254.7	7314.65
883.5656	1417.8213	8348.9	7402.85
883.7092	1419.6613	8445.6	7506.25
883.8529	1421.5006	8605.9	7667.75
883.9965	1423.3391	8856.05	7915
884.1402	1425.1769	9183.4	8244.05
884.2838	1427.0139	9606.5	8664.95
884.4274	1428.8502	10179.95	9238.8
884.571	1430.6858	10714.6	9773.45
884.7146	1432.5206	11131.25	10190.8
884.8582	1434.3547	11344.5	10404.95
885.0018	1436.188	11380.6	10443.7
885.1453	1438.0206	11305.9	10364.3
885.2889	1439.8524	11162.95	10227.75
885.4324	1441.6835	11081.95	10143.8
885.5759	1443.5139	10957.5	10016.6
885.7194	1445.3435	10882.75	9943.8
885.8629	1447.1724	10847.3	9909.2
886.0064	1449.0005	10778.95	9841.2
886.1499	1450.8279	10706.05	9771.3
886.2933	1452.6545	10650.1	9713
886.4368	1454.4804	10701.35	9769.95
886.5802	1456.3056	10659.25	9719.45
886.7237	1458.13	10564.9	9629.4
886.8671	1459.9536	10398.75	9462.2
887.0105	1461.7766	10102.95	9163.85
887.1539	1463.5987	9730.6	8791.05
887.2972	1465.4202	9353.2	8412.85
887.4406	1467.2409	9008.7	8068.75
887.584	1469.0608	8741.05	7805.7
887.7273	1470.88	8466.65	7530.2
887.8706	1472.6984	8243.85	7308.4
888.0139	1474.5161	8025.7	7089.1
888.1572	1476.3331	7887.45	6954.25
888.3005	1478.1493	7738.75	6801.3
888.4438	1479.9648	7669.6	6734.95
888.5871	1481.7795	7578.55	6643.8
888.7303	1483.5935	7516.05	6578.85
888.8736	1485.4067	7469.3	6529.1
889.0168	1487.2192	7406.1	6470.2
889.16	1489.031	7359	6422.55
889.3032	1490.842	7303.1	6368.5
889.4464	1492.6522	7283.2	6351.7
889.5896	1494.4618	7260	6324
889.7327	1496.2705	7221.45	6285.7
889.8759	1498.0785	7197.3	6260.5
890.019	1499.8858	7156.6	6221.85
890.1622	1501.6924	7109.95	6175.3
890.3053	1503.4981	7077.55	6143.5
890.4484	1505.3032	7043.5	6109.7
890.5914	1507.1075	7020.75	6082.95
890.7345	1508.911	6988.85	6054.55
890.8776	1510.7138	6960.5	6022.25
891.0206	1512.5159	6907.1	5973.1
891.1637	1514.3172	6867.95	5932
891.3067	1516.1178	6850.35	5920.55
891.4497	1517.9176	6803.45	5867.05
891.5927	1519.7166	6760.55	5825.8
891.7357	1521.515	6733.45	5796.2
891.8786	1523.3126	6709.7	5777.05
892.0216	1525.1094	6714.6	5777.65
892.1645	1526.9055	6685.65	5755.65
892.3074	1528.7008	6636.6	5708.35
892.4503	1530.4954	6606.7	5672.55
892.5932	1532.2893	6600.5	5671.8
892.7361	1534.0824	6563.7	5629.6
892.879	1535.8747	6546.9	5619.55
893.0218	1537.6663	6552.15	5625.1
893.1647	1539.4572	6539.7	5608.15
893.3075	1541.2473	6513.1	5585.55
893.4503	1543.0367	6526.65	5597.2
893.5931	1544.8253	6519.5	5586.45
893.7359	1546.6132	6555.65	5627.6
893.8787	1548.4003	6558.35	5619.65
894.0214	1550.1867	6607.5	5671.1
894.1642	1551.9723	6620	5689.3
894.3069	1553.7572	6668.95	5743.35
894.4496	1555.5414	6725.45	5800.9
894.5923	1557.3247	6832.25	5907.7
894.735	1559.1074	6904.7	5984.1
894.8777	1560.8893	7007.1	6087.45
895.0204	1562.6705	7113.9	6190.5
895.163	1564.4509	7187.3	6265.9
895.3056	1566.2305	7241.2	6326.25
895.4482	1568.0094	7309.1	6394.15
895.5908	1569.7876	7325.2	6408.4
895.7334	1571.565	7337.7	6415.75
895.876	1573.3417	7335.7	6415.65
896.0186	1575.1176	7323.7	6404.3
896.1611	1576.8928	7300.25	6383.5
896.3036	1578.6672	7238.55	6327.35
896.4461	1580.4409	7179.5	6270.05
896.5886	1582.2138	7104.3	6189.45
896.7311	1583.986	7047.1	6131.45
896.8736	1585.7575	7007.65	6091.25
897.0161	1587.5282	6990.6	6079.35
897.1585	1589.2981	7013.25	6102.5
897.3009	1591.0673	6995.6	6084.95
897.4433	1592.8358	7042.3	6130
897.5857	1594.6035	7092.7	6176.7
897.7281	1596.3704	7141.9	6222.45
897.8705	1598.1366	7184.6	6268.6
898.0128	1599.9021	7243.65	6330.8
898.1551	1601.6668	7315.45	6398.75
898.2975	1603.4308	7417.95	6501.5
898.4398	1605.194	7560.25	6640.8
898.5821	1606.9564	7683.55	6774.65
898.7243	1608.7182	7864	6957.75
898.8666	1610.4791	8054.85	7156.15
899.0088	1612.2394	8255.65	7355.65
899.1511	1613.9988	8457.4	7554.2
899.2933	1615.7576	8726.2	7817.45
899.4355	1617.5156	8913.65	7991.85
899.5776	1619.2728	9071.5	8157.15
899.7198	1621.0293	9129.6	8215.45
899.862	1622.785	9117.25	8203.75
900.0041	1624.54	8952.2	8044.6
900.1462	1626.2942	8751.8	7842.6
900.2883	1628.0477	8484.85	7573.95
900.4304	1629.8005	8220.65	7308
900.5725	1631.5525	8001.25	7095.25
900.7145	1633.3037	7798.2	6893.5
900.8566	1635.0542	7679.55	6772.6
900.9986	1636.804	7562.85	6655.9
901.1406	1638.553	7503.2	6533.4
901.2826	1640.3013	7438.5	6530.25
901.4245	1642.0488	7421.5	6512.9
901.5665	1643.7955	7483.2	6578.65
901.7085	1645.5416	7511.85	6606.8
901.8504	1647.2868	7636.85	6729.9
901.9923	1649.0313	7713.55	6805.75
902.1342	1650.7751	7876.65	6966.65
902.2761	1652.5181	8040.85	7135.8
902.4179	1654.2604	8219.15	7312.7
902.5598	1656.0019	8451.55	7545.2
902.7016	1657.7427	8750.4	7843.8
902.8434	1659.4828	9009.95	8101.75
902.9852	1661.222	9197.65	8289.95
903.127	1662.9606	9179.2	8270.25
903.2687	1664.6984	8949.95	8041.95
903.4105	1666.4354	8554.25	7640.95
903.5522	1668.1717	8054.75	7141.3
903.6939	1669.9072	7511.95	6600
903.8356	1671.642	7087.65	6174.05
903.9773	1673.3761	6697.85	5786.7
904.119	1675.1094	6410.4	5503.2
904.2606	1676.8419	6189.75	5281.15
904.4022	1678.5737	6014.1	5104
904.5439	1680.3048	5877.25	4965.45
904.6855	1682.0351	5768.65	4858.5
904.827	1683.7646	5662.65	4749.95
904.9686	1685.4934	5586.5	4677.3
905.1101	1687.2215	5506.65	4598.85
905.2517	1688.9488	5446.3	4540.7
905.3932	1690.6754	5413.85	4507.2
905.5347	1692.4012	5374.35	4463.5
905.6761	1694.1263	5344.35	4434.95
905.8176	1695.8506	5292	4386
905.9591	1697.5742	5277.55	4373.75
906.1005	1699.297	5227.85	4327.8
906.2419	1701.0191	5177.8	4276.65
906.3833	1702.7404	5166.2	4265.6
906.5246	1704.461	5134.2	4228.95
906.666	1706.1808	5109.4	4202.7
906.8073	1707.8999	5087.3	4185.15
906.9487	1709.6182	5047.3	4147.4
907.09	1711.3358	5038.2	4141.6
907.2313	1713.0527	4988.8	4093.2
907.3725	1714.7688	4979.85	4073.05
907.5138	1716.4841	4960	4055.8
907.655	1718.1987	4945.1	4037.3
907.7962	1719.9126	4918.1	4016.95
907.9374	1721.6257	4908.8	4009.05
908.0786	1723.338	4887.95	3992.6
908.2198	1725.0496	4869.4	3968.95
908.3609	1726.7605	4847.6	3945.55
908.502	1728.4706	4844.7	3944.8
908.6431	1730.18	4804.1	3905.85
908.7842	1731.8886	4791.45	3894.95
908.9253	1733.5964	4788.45	3869.35
909.0664	1735.3036	4766.15	3864.7
909.2074	1737.0099	4745.4	3846.25
909.3484	1738.7156	4731.2	3835.05
909.4894	1740.4204	4696.6	3795.65
909.6304	1742.1246	4684.95	3787.15
909.7714	1743.8279	4671.8	3773.75
909.9123	1745.5306	4657.55	3758.25
910.0532	1747.2325	4628.6	3733.1
910.1941	1748.9336	4624.8	3724.55
910.335	1750.634	4591.85	3690.6
910.4759	1752.3336	4591.25	3693.05
910.6168	1754.0325	4571.95	3677.2
910.7576	1755.7307	4563.9	3666.9
910.8984	1757.4281	4562.25	3665.2
911.0392	1759.1247	4558.6	3647.2
911.18	1760.8206	4544.8	3638.5
911.3208	1762.5158	4543.1	3636.45
911.4615	1764.2102	4517.4	3616.95
911.6022	1765.9039	4502.45	3604.55
911.7429	1767.5968	4488.95	3594.7
911.8836	1769.289	4466.5	3570.3
912.0243	1770.9804	4455.35	3556.15
912.1649	1772.6711	4464.3	3561.55
912.3056	1774.361	4447.5	3544.4
912.4462	1776.0502	4439.3	3538.45
912.5868	1777.7386	4432.05	3529.4
912.7274	1779.4263	4408.9	3509.5
912.8679	1781.1132	4410.2	3514.75
913.0084	1782.7994	4383.65	3489.25
913.149	1784.4849	4382.6	3489.5
913.2895	1786.1696	4378.3	3463.4
913.4299	1787.8535	4377.2	3483.1
913.5704	1789.5367	4347.4	3456.5
913.7108	1791.2192	4351.55	3459.75
913.8513	1792.9009	4360.95	3438.4
913.9917	1794.5818	4329	3428.9
914.132	1796.2621	4318.25	3418.85
914.2724	1797.9415	4309.6	3412.15
914.4128	1799.6202	4291.8	3393.45
914.5531	1801.2982	4288.85	3389
914.6934	1802.9755	4298.5	3398.95
914.8337	1804.6519	4271.7	3374.05
914.9739	1806.3277	4239.1	3342.95
915.1142	1808.0027	4238.65	3346.45
915.2544	1809.6769	4231.4	3337.95
915.3946	1811.3504	4216	3322.65
915.5348	1813.0231	4218	3324.75
915.675	1814.6951	4208.6	3314.7
915.8151	1816.3664	4212.65	3315.35
915.9553	1818.0369	4218.2	3319.55
916.0954	1819.7067	4195.2	3297.4
916.2355	1821.3757	4189.4	3289.85
916.3755	1823.044	4166.2	3267.2
916.5156	1824.7115	4167.05	3267.75
916.6556	1826.3783	4160.6	3261.7
916.7956	1828.0443	4133.2	3237.35
916.9356	1829.7096	4133.7	3235.65
917.0756	1831.3741	4140.25	3239.15
917.2155	1833.0379	4122.2	3230.45
917.3555	1834.701	4100.7	3205.2
917.4954	1836.3633	4126.65	3235.15
917.6353	1838.0248	4094.45	3199.15
917.7751	1839.6856	4094.5	3198.2
917.915	1841.3457	4089.9	3193.45
918.0548	1843.005	4062.65	3162.05
918.1946	1844.6636	4066.65	3168.8
918.3344	1846.3214	4065.35	3169.75
918.4742	1847.9785	4065.7	3171.6
918.6139	1849.6349	4068.85	3172.4
918.7537	1851.2904	4063.65	3157.5
918.8934	1852.9453	4039.4	3139.8
919.0331	1854.5994	4043.95	3146.2
919.1727	1856.2528	4034.2	3133.75
919.3124	1857.9054	4024.65	3126.4
919.452	1859.5572	4010.85	3116.2
919.5916	1861.2083	4009.9	3112.6
919.7312	1862.8587	4006.3	3112.4
919.8708	1864.5084	3991	3093.6
920.0103	1866.1572	3992	3092.95
920.1498	1867.8054	3977.1	3078.2
920.2893	1869.4528	3956.95	3057.05
920.4288	1871.0994	3946.15	3047.85
920.5683	1872.7453	3950.7	3052.65
920.7077	1874.3905	3945.9	3033.1
920.8471	1876.0349	3932.95	3033.75
920.9865	1877.6786	3934.05	3035.15
921.1259	1879.3215	3918.2	3023.15
921.2653	1880.9637	3911.1	3014.4
921.4046	1882.6051	3901.65	3006.3
921.5439	1884.2458	3908.15	3011.35
921.6832	1885.8858	3894.4	3000.15
921.8225	1887.525	3879.3	2981.95
921.9617	1889.1634	3875.35	2977.4
922.101	1890.8011	3861.25	2962.4
922.2402	1892.4381	3861.25	2963.65
922.3794	1894.0743	3850.2	2955.85
922.5185	1895.7098	3841.05	2947.2
922.6577	1897.3446	3832.8	2937.05
922.7968	1898.9786	3831.2	2930.3
922.9359	1900.6118	3801.6	2905.7
923.075	1902.2443	3793.45	2896.95
923.214	1903.8761	3801.75	2906.5
923.3531	1905.5071	3781.8	2884.2
923.4921	1907.1374	3774.65	2876.15
923.6311	1908.7669	3764.55	2868.3
923.77	1910.3957	3766.65	2872.4
923.909	1912.0237	3745.35	2850.85
924.0479	1913.651	3738.1	2842.1
924.1868	1915.2776	3740.45	2846.4
924.3257	1916.9034	3725.5	2833.3
924.4646	1918.5285	3716.45	2823.8
924.6034	1920.1528	3697.75	2804.25
924.7422	1921.7764	3697.75	2803.25
924.881	1923.3992	3686.85	2790.85
925.0198	1925.0213	3652.7	2756.05
925.1586	1926.6427	3650.5	2758.35
925.2973	1928.2633	3809.25	2712.95
925.436	1929.8832	3666.85	2766.55
925.5747	1931.5023	3629.25	2734
925.7134	1933.1207	3623.05	2726.8
925.852	1934.7383	3597.8	2707.75
925.9906	1936.3552	3607.3	2714.55
926.1292	1937.9714	3593.95	2697.6
926.2678	1939.5868	3567.75	2671.25
926.4064	1941.2015	3561.6	2664.95
926.5449	1942.8154	3557.3	2660.15
926.6834	1944.4286	3535.1	2638.75
926.8219	1946.041	3539.25	2626.55
926.9604	1947.6528	3535.35	2634.05
927.0988	1949.2637	3509.9	2613.75
927.2372	1950.8739	3506.3	2611.45
927.3756	1952.4834	3497.8	2603.55
927.514	1954.0921	3502	2607.25
927.6523	1955.7001	3493.95	2596.9
927.7907	1957.3074	3469.3	2578.7
927.929	1958.9139	3463.4	2573.8
928.0673	1960.5197	3455.8	2562.95
928.2055	1962.1247	3443.45	2550.85
928.3438	1963.729	3417.8	2530.1
928.482	1965.3325	3414.9	2519.85
928.6202	1966.9353	3411.75	2521.7
928.7584	1968.5374	3389.5	2498.4
928.8965	1970.1387	3393.4	2501.6
929.0346	1971.7393	3377.95	2487.8
929.1727	1973.3392	3383.7	2492.9
929.3108	1974.9383	3361.45	2473.4
929.4489	1976.5366	3349.35	2464.45
929.5869	1978.1342	3360.3	2472.2
929.7249	1979.7311	3345.65	2455.5
929.8629	1981.3273	3327.15	2438.5
930.0009	1982.9227	3320.5	2431.5
930.1388	1984.5173	3318.45	2430.9
930.2767	1986.1112	3291.65	2405.9
930.4146	1987.7044	3303.7	2415.35
930.5525	1989.2968	3304.2	2414.65
930.6904	1990.8885	3297.85	2406.85
930.8282	1992.4795	3286.3	2401.55
930.966	1994.0697	3269	2384.55
931.1038	1995.6592	3271.75	2383.15
931.2415	1997.2479	3249.85	2361.95
931.3793	1998.8359	3255.5	2369.1
931.517	2000.4232	3247.7	2364.8
931.6547	2002.0097	3229.15	2348.05
931.7923	2003.5955	3205.4	2319.4
931.93	2005.1805	3208.2	2321
932.0676	2006.7648	3207.1	2324.25
932.2052	2008.3484	3209.25	2326.75
932.3427	2009.9312	3208.35	2323.6
932.4803	2011.5133	3189.05	2308.2
932.6178	2013.0946	3187.45	2305.5
932.7553	2014.6752	3187.25	2302.55
932.8928	2016.2551	3181.45	2299.2
933.0302	2017.8342	3157.1	2270.9
933.1676	2019.4126	3157.85	2275.3
933.305	2020.9902	3144.65	2263.05
933.4424	2022.5672	3139.15	2257
933.5798	2024.1433	3139.9	2255.6
933.7171	2025.7188	3126.2	2245.2
933.8544	2027.2935	3125.1	2242.05
933.9917	2028.8674	3118.2	2237.1
934.129	2030.4406	3104.4	2224.4
934.2662	2032.0131	3090.35	2212.45
934.4034	2033.5849	3086.65	2197.55
934.5406	2035.1559	3082.85	2202.35
934.6778	2036.7261	3084.05	2199.7
934.8149	2038.2957	3083.5	2197.45
934.952	2039.8645	3075.95	2190.35
935.0891	2041.4325	3079.15	2189.7
935.2262	2042.9998	3051.3	2165.55
935.3632	2044.5664	3051.95	2169.4
935.5002	2046.1323	3035.85	2154.9
935.6372	2047.6974	3035.1	2153.25
935.7742	2049.2617	3021.1	2141.15
935.9111	2050.8254	3062.5	2143.75
936.048	2052.3883	3034.55	2148.9
936.1849	2053.9504	3022.75	2134.45
936.3218	2055.5118	3017.05	2131.35
936.4586	2057.0725	3004.3	2116.25
936.5955	2058.6325	3012.9	2131.15
936.7323	2060.1917	2989.65	2107.95
936.869	2061.7502	2991.25	2104.2
937.0058	2063.3079	2982.45	2100.1
937.1425	2064.8649	2973.1	2088.4
937.2792	2066.4212	2969.8	2087.1
937.4159	2067.9767	2964.35	2078.65
937.5525	2069.5315	2941.25	2058.25
937.6891	2071.0856	2943.6	2060
937.8257	2072.6389	2926.75	2045.85
937.9623	2074.1915	2930	2049.55
938.0989	2075.7433	2916.05	2033.8
938.2354	2077.2945	2903.3	2021.15
938.3719	2078.8448	2916.55	2031.45
938.5084	2080.3945	2893.8	2008.05
938.6448	2081.9434	2902	2016.65
938.7812	2083.4916	2906.15	2018.6
938.9176	2085.039	2886.35	1993.05
939.054	2086.5857	2884.1	1990.8
939.1903	2088.1317	2879.55	1985.9
939.3267	2089.677	2883.3	1990.05
939.463	2091.2215	2870.1	1976.9
939.5992	2092.7652	2871	1976.75
939.7355	2094.3083	2862.75	1972.4
939.8717	2095.8506	2852.4	1965.05
940.0079	2097.3921	2846.9	1958.5
940.1441	2098.933	2838.7	1950.7
940.2802	2100.4731	2840.7	1952.95
940.4163	2102.0124	2846.3	1949.25
940.5524	2103.5511	2831.35	1941.6
940.6885	2105.089	2826.85	1937.5
940.8245	2106.6261	2824.2	1936.9
940.9606	2108.1626	2807	1918.55
941.0965	2109.6983	2842.3	1925.1
941.2325	2111.2332	2806.45	1915.85
941.3684	2112.7675	2795.95	1906.4
941.5044	2114.301	2783.65	1891.55
941.6403	2115.8337	2789.15	1900.45
941.7761	2117.3657	2775.95	1885.75
941.912	2118.897	2768.2	1877
942.0478	2120.4276	2784.6	1888.45
942.1835	2121.9575	2763.45	1874.4
942.3193	2123.4866	2766.85	1874.15
942.455	2125.0149	2763.85	1873.05
942.5907	2126.5426	2739	1853.95
942.7264	2128.0695	2751.9	1864.55
942.8621	2129.5956	2734.5	1853.05
942.9977	2131.1211	2739.2	1849.6
943.1333	2132.6458	2731.05	1844.65
943.2689	2134.1698	2719.25	1828.5
943.4044	2135.693	2726.95	1833.05
943.54	2137.2155	2724.5	1831.45
943.6755	2138.7373	2717.2	1829.15
943.8109	2140.2584	2704.45	1818.8
943.9464	2141.7787	2700.45	1812.75
944.0818	2143.2983	2684.05	1803.5
944.2172	2144.8171	2678.05	1798.05
944.3526	2146.3353	2679.1	1794.75
944.4879	2147.8527	2673.6	1788.25
944.6232	2149.3693	2679.25	1788.1
944.7585	2150.8853	2668.45	1776.5
944.8938	2152.4005	2663.75	1773.8
945.029	2153.9149	2662.65	1771.65
945.1642	2155.4287	2651.85	1760.75
945.2994	2156.9417	2658.9	1768.7
945.4346	2158.454	2633.65	1744.95
945.5697	2159.9655	2623.05	1737.6
945.7048	2161.4764	2625.85	1738.95
945.8399	2162.9865	2602.55	1715.3
945.9749	2164.4958	2611.45	1727.85
946.1099	2166.0045	2610.5	1721.4
946.2449	2167.5124	2604.65	1719.4
946.3799	2169.0195	2602.3	1714
946.5148	2170.526	2620.95	1729.15
946.6498	2172.0317	2610.7	1721.5
946.7846	2173.5367	2602	1714.2
946.9195	2175.0409	2590.05	1703.1
947.0543	2176.5445	2602.65	1715.2
947.1891	2178.0473	2588.85	1696.15
947.3239	2179.5494	2579.8	1685.35
947.4587	2181.0507	2569.95	1680.95
947.5934	2182.5513	2571	1683.05
947.7281	2184.0512	2569.6	1679.05
947.8628	2185.5504	2553.15	1662.15
947.9974	2187.0488	2553.6	1666.95
948.132	2188.5465	2537.45	1652.85
948.2666	2190.0435	2543.2	1656.95
948.4012	2191.5397	2537.4	1649
948.5357	2193.0353	2533.05	1641.15
948.6702	2194.5301	2523.3	1631.3
948.8047	2196.0241	2524.7	1631.25
948.9392	2197.5175	2520.4	1625.1
949.0736	2199.0101	2520.95	1625.15
949.208	2200.502	2491.55	1600.45
949.3424	2201.9931	2492.25	1607.1
949.4767	2203.4835	2476.25	1590.4
949.611	2204.9733	2494.15	1603.8
949.7453	2206.4622	2480.3	1596.2
949.8796	2207.9505	2472.35	1587.05
950.0138	2209.438	2456.05	1575.15
950.148	2210.9248	2464.4	1579.9
950.2822	2212.4109	2461.35	1574.2
950.4164	2213.8962	2455.65	1561.55
950.5505	2215.3809	2449.4	1555.6
950.6846	2216.8648	2451.4	1556.15
950.8186	2218.3479	2452.55	1549.25
950.9527	2219.8304	2447.65	1549.7
951.0867	2221.3121	2429.45	1534.35
951.2207	2222.7931	2426.05	1533.9
951.3546	2224.2733	2415.85	1526.95
951.4886	2225.7529	2418.65	1529.55
951.6225	2227.2317	2406.3	1514.9
951.7563	2228.7098	2408.55	1523.05
951.8902	2230.1872	2389.05	1505.4
952.024	2231.6638	2389.05	1504.3
952.1578	2233.1397	2387.7	1496.5
952.2916	2234.6149	2381.5	1494.05
952.4253	2236.0894	2373.15	1484.95
952.559	2237.5632	2388.1	1490.35
952.6927	2239.0362	2365.3	1477.6
952.8263	2240.5085	2352.1	1464.05
952.9599	2241.9801	2360.1	1472.15
953.0935	2243.4509	2356.65	1464
953.2271	2244.921	2353.35	1459.9
953.3606	2246.3904	2350.45	1455.6
953.4941	2247.8591	2328.4	1438.45
953.6276	2249.3271	2337.1	1447
953.7611	2250.7943	2328.2	1437.35
953.8945	2252.2608	2328.8	1437.25
954.0279	2253.7266	2321.3	1429.9
954.1612	2255.1917	2314.15	1425.45
954.2946	2256.656	2310	1420.9
954.4279	2258.1197	2306.9	1420.15
954.5612	2259.5826	2301.8	1409.65
954.6944	2261.0447	2303.55	1412.25
954.8276	2262.5062	2300.65	1408.25
954.9608	2263.9669	2297.7	1403.85
955.094	2265.4269	2289.1	1399.6
955.2271	2266.8862	2281.3	1392.8
955.3602	2268.3448	2278.7	1392.2
955.4933	2269.8026	2286.25	1398.35
955.6264	2271.2598	2264	1377
955.7594	2272.7162	2262.7	1375.45
955.8924	2274.1719	2268.1	1377.9
956.0253	2275.6268	2261.5	1369.2
956.1583	2277.0811	2257.15	1363.9
956.2912	2278.5346	2249.85	1361.65
956.4241	2279.9874	2246.45	1360.3
956.5569	2281.4395	2246.75	1362.1
956.6897	2282.8908	2243	1349.95
956.8225	2284.3414	2248.8	1357.15
956.9553	2285.7914	2238.4	1348.5
957.088	2287.2406	2236.7	1345.1
957.2207	2288.689	2242.2	1349.25
957.3534	2290.1368	2231.35	1335.45
957.486	2291.5838	2224	1327.55
957.6186	2293.0302	2218.95	1323.1
957.7512	2294.4758	2211.45	1316.95
957.8838	2295.9206	2211	1317.5
958.0163	2297.3648	2211.65	1321.65
958.1488	2298.8082	2203.1	1313.9
958.2813	2300.251	2203.55	1312.15
958.4137	2301.693	2203.65	1307.65
958.5461	2303.1343	2205.25	1311.65
958.6785	2304.5748	2185.35	1293.35
958.8108	2306.0147	2180.3	1293.3
958.9432	2307.4538	2183.15	1293.95
959.0754	2308.8922	2176.65	1295.3
959.2077	2310.3299	2171.45	1284.15
959.3399	2311.7669	2168.95	1279.95
959.4721	2313.2031	2151.8	1260.5
959.6043	2314.6387	2155.2	1264.1
959.7365	2316.0735	2160.5	1270.1
959.8686	2317.5076	2157.3	1267.15
960.0006	2318.941	2150.6	1259.3
960.1327	2320.3737	2152.95	1260.05
960.2647	2321.8056	2141	1246.3
960.3967	2323.2369	2136.95	1244.65
960.5287	2324.6674	2144.5	1251
960.6606	2326.0972	2126.4	1234.1
960.7925	2327.5263	2125.45	1235
960.9244	2328.9547	2138.35	1245.2
961.0562	2330.3823	2133.2	1236.6
961.1881	2331.8092	2126.05	1229.75
961.3198	2333.2355	2115.55	1221.3
961.4516	2334.661	2120.45	1229.1
961.5833	2336.0858	2105.3	1210.85
961.715	2337.5098	2101.7	1209.85
961.8467	2338.9332	2104.15	1213.35
961.9783	2340.3558	2106.2	1215.2
962.1099	2341.7778	2095.5	1206.4
962.2415	2343.199	2085.85	1195.25
962.373	2344.6195	2096.35	1210.7
962.5045	2346.0393	2073	1185.5
962.636	2347.4583	2083.1	1191.3
962.7675	2348.8767	2080.95	1189.55
962.8989	2350.2943	2074.05	1179.9
963.0303	2351.7113	2087.9	1194.5
963.1617	2353.1275	2076.6	1180.7
963.293	2354.543	2086	1184.05
963.4243	2355.9578	2075.5	1182.35
963.5556	2357.3718	2049.9	1161.25
963.6868	2358.7852	2055.9	1164.8
963.818	2360.1978	2059.55	1171.6
963.9492	2361.6098	2050	1162.15
964.0803	2363.021	2055.2	1161.6
964.2114	2364.4315	2046.45	1155.35
964.3425	2365.8413	2041	1149.55
964.4736	2367.2504	2034.7	1148.75
964.6046	2368.6587	2023.95	1137.35
964.7356	2370.0664	2022.6	1133.7
964.8666	2371.4733	2027.85	1139.85
964.9975	2372.8795	2026.7	1138.7
965.1284	2374.285	2021.1	1133.05
965.2593	2375.6899	2014.05	1125.3
965.3901	2377.0939	2004.95	1116.5
965.5209	2378.4973	1999	1112.2
965.6517	2379.9	1994.8	1106.75
965.7825	2381.3019	1981.45	1095.9
965.9132	2382.7032	1985.4	1100.9
966.0439	2384.1037	1991.7	1107.65
966.1745	2385.5035	1982.8	1098.5
966.3051	2386.9027	1980.3	1097.1
966.4357	2388.3011	1975.3	1087.95
966.5663	2389.6987	1971.5	1086.25
966.6968	2391.0957	1975.55	1088
966.8273	2392.492	1960.7	1076.9
966.9578	2393.8876	1955.45	1069.3
967.0882	2395.2824	1960.2	1074.05
967.2186	2396.6765	1946.45	1061.6
967.349	2398.07	1939.45	1049.85
967.4793	2399.4627	1953.2	1066.25
967.6097	2400.8547	1949.05	1061
967.7399	2402.246	1944	1051.7
967.8702	2403.6366	1929.05	1041.3
968.0004	2405.0265	1920.55	1033.45
968.1306	2406.4156	1927.25	1038.4
968.2607	2407.8041	1930.15	1041.65
968.3909	2409.1918	1925.45	1037.15
968.521	2410.5789	1921.6	1036.25
968.651	2411.9652	1911.55	1022.65
968.781	2413.3508	1912.05	1025
968.911	2414.7358	1915.8	1028.25
969.041	2416.12	1908.45	1023.6
969.1709	2417.5035	1903.1	1017.6
969.3008	2418.8863	1900.65	1012.8
969.4307	2420.2684	1904.1	1014.75
969.5606	2421.6497	1896.4	1009.45
969.6904	2423.0304	1885.75	999.55
969.8201	2424.4104	1887.25	1000.4
969.9499	2425.7896	1886.45	997.75
970.0796	2427.1682	1889.3	1004.05
970.2093	2428.546	1871.1	983.65
970.3389	2429.9232	1874.15	982.75
970.4685	2431.2996	1870.2	981.6
970.5981	2432.6753	1864.8	977.5
970.7277	2434.0503	1875.75	987.95
970.8572	2435.4246	1854.45	969.1
970.9867	2436.7982	1863.25	973.55
971.1161	2438.1711	1859.75	975.2
971.2456	2439.5433	1858.45	968.35
971.375	2440.9148	1854.35	960.9
971.5043	2442.2856	1833.55	945.8
971.6336	2443.6557	1846.3	957.25
971.7629	2445.025	1838.4	950.8
971.8922	2446.3937	1841.95	953.65
972.0214	2447.7617	1832.95	942.3
972.1506	2449.1289	1839.85	951.45
972.2798	2450.4955	1826.4	933.4
972.4089	2451.8613	1822.45	937.4
972.538	2453.2265	1820.35	933.4
972.6671	2454.5909	1817.8	928.95
972.7961	2455.9546	1817.4	930.9
972.9251	2457.3177	1815.65	927.45
973.0541	2458.68	1820.5	933.4
973.1831	2460.0416	1818.7	932
973.312	2461.4025	1808.5	920.05
973.4408	2462.7627	1816.6	918.6
973.5697	2464.1222	1801.5	916.25
973.6985	2465.4811	1806.55	919.75
973.8273	2466.8392	1797.75	911.75
973.956	2468.1966	1810.7	920.45
974.0847	2469.5533	1810.2	920.55
974.2134	2470.9093	1800.85	910.6
974.3421	2472.2645	1804	915.4
974.4707	2473.6191	1799.35	913.65
974.5993	2474.973	1789.25	902.6
974.7278	2476.3262	1790.75	903.35
974.8563	2477.6787	1792.2	906.95
974.9848	2479.0305	1777.95	890.05
975.1132	2480.3816	1778.15	888.65
975.2417	2481.7319	1768.95	881.1
975.37	2483.0816	1765.8	877.2
975.4984	2484.4306	1761.75	874.55
975.6267	2485.7789	1760.2	875.1
975.755	2487.1264	1763.55	876.9
975.8833	2488.4733	1755.35	868.55
976.0115	2489.8195	1775.8	873.8
976.1397	2491.165	1765.9	874.15
976.2678	2492.5097	1751.75	864.35
976.3959	2493.8538	1746.2	861.25
976.524	2495.1972	1744.9	856
976.6521	2496.5398	1739.4	848.85
976.7801	2497.8818	1739.75	849.05
976.9081	2499.2231	1736.3	846.4
977.036	2500.5637	1737.65	846.65
977.164	2501.9035	1740.6	850.6
977.2918	2503.2427	1736.55	845.4
977.4197	2504.5812	1719.35	830.3
977.5475	2505.919	1722.45	833
977.6753	2507.256	1720.3	832.35
977.8031	2508.5924	1713.35	825.95
977.9308	2509.9281	1722	830.15
978.0585	2511.2631	1720.3	832.65
978.1861	2512.5974	1714.8	827.45
978.3137	2513.9309	1709.7	823.15
978.4413	2515.2638	1731.65	816.9
978.5689	2516.596	1710.8	822.6
978.6964	2517.9275	1699.85	812.3
978.8239	2519.2583	1700.95	813.7
978.9513	2520.5884	1704	815.1
979.0788	2521.9178	1692.8	804.1
979.2062	2523.2465	1689.85	800.5
979.3335	2524.5745	1689.5	802.3
979.4608	2525.9018	1688.45	803.25
979.5881	2527.2284	1686.1	800.5
979.7154	2528.5543	1683.1	796.6
979.8426	2529.8796	1675.65	788.15
979.9698	2531.2041	1678.85	789.25
980.0969	2532.5279	1680.25	794.1
980.224	2533.851	1678.85	791.7
980.3511	2535.1735	1681.1	792.85
980.4781	2536.4952	1670.7	781.45
980.6052	2537.8163	1678.2	789.75
980.7321	2539.1366	1673.05	785.25
980.8591	2540.4562	1670.5	781.6
980.986	2541.7752	1681.8	794.3
981.1129	2543.0935	1668.25	777.8
981.2397	2544.411	1665.35	775.05
981.3665	2545.7279	1673.35	784.95
981.4933	2547.0441	1670.25	779.55
981.62	2548.3596	1669.25	776.1
981.7467	2549.6744	1663.45	775.8
981.8734	2550.9885	1655.75	766.15
982.0001	2552.3019	1657.45	769.85
982.1267	2553.6146	1654.2	766.05
982.2532	2554.9266	1651.1	761.9
982.3798	2556.2379	1650.25	761.25
982.5063	2557.5485	1647	758.85
982.6327	2558.8585	1656.6	761.55
982.7592	2560.1677	1648.6	756.5
982.8856	2561.4762	1634.15	745.85
983.0119	2562.7841	1642.8	751.35
983.1383	2564.0913	1640.1	755.7
983.2646	2565.3977	1634.75	745.35
983.3908	2566.7035	1642.45	755.15
983.517	2568.0086	1639.5	749.45
983.6432	2569.313	1629.05	738.2
983.7694	2570.6167	1631.65	738.45
983.8955	2571.9197	1632.25	744.05
984.0216	2573.222	1628.45	737.45
984.1476	2574.5236	1628.45	738.35
984.2737	2575.8246	1632.5	741.7
984.3996	2577.1248	1623.1	731
984.5256	2578.4244	1625.25	734.7
984.6515	2579.7232	1623.85	733.9
984.7774	2581.0214	1659.9	743.75
984.9032	2582.3189	1629.05	741.55
985.029	2583.6157	1634	741.7
985.1548	2584.9118	1624.25	734.15
985.2806	2586.2072	1631.05	742.95
985.4063	2587.5019	1621.6	732.25
985.5319	2588.7959	1616.8	727.15
985.6576	2590.0893	1621.4	730.75
985.7832	2591.3819	1625	735.85
985.9087	2592.6739	1621.8	734.7
986.0343	2593.9652	1622.8	733.85
986.1597	2595.2557	1624.25	736.5
986.2852	2596.5456	1615.75	724.4
986.4106	2597.8348	1622.7	734.9
986.536	2599.1234	1620.85	733.15
986.6614	2600.4112	1615.05	725.45
986.7867	2601.6983	1624.75	733.8
986.912	2602.9848	1624.8	738.4
987.0372	2604.2705	1615.95	718.95
987.1624	2605.5556	1612.75	723.95
987.2876	2606.84	1621.6	731.8
987.4128	2608.1237	1604.1	714
987.5379	2609.4067	1606.55	718
987.6629	2610.689	1618.75	722.5
987.788	2611.9707	1609.55	717
987.913	2613.2516	1602.8	710.25
988.0379	2614.5319	1596.65	709.2
988.1629	2615.8115	1593.6	709.4
988.2878	2617.0903	1592.9	701.75
988.4126	2618.3685	1588	701.35
988.5375	2619.6461	1596.2	708.25
988.6622	2620.9229	1593.9	707.7
988.787	2622.199	1585.5	695.45
988.9117	2623.4745	1588.4	700.1
989.0364	2624.7493	1582.85	695.5
989.161	2626.0234	1583.4	697.2
989.2857	2627.2968	1588.25	702.5
989.4102	2628.5695	1586.95	697.75
989.5348	2629.8415	1581.55	694.65
989.6593	2631.1128	1574.25	684.4
989.7837	2632.3835	1577.75	692.05
989.9082	2633.6535	1572.2	685.95
990.0326	2634.9228	1573.2	686
990.1569	2636.1914	1573.8	688.45
990.2812	2637.4593	1571.55	683.3
990.4055	2638.7265	1566.7	677.8
990.5298	2639.9931	1564.6	677.6
990.654	2641.259	1565.85	678.05
990.7782	2642.5242	1569.4	681.85
990.9023	2643.7887	1562.55	673.5
991.0264	2645.0525	1557.9	673.05
991.1505	2646.3156	1559.1	669.95
991.2745	2647.5781	1560.1	673.85
991.3985	2648.8398	1550.65	664.8
991.5225	2650.1009	1583.05	658.6
991.6464	2651.3613	1547.05	661.15
991.7703	2652.6211	1546.85	657.8
991.8942	2653.8801	1542.95	657.1
992.018	2655.1385	1540.05	651.2
992.1418	2656.3961	1541.95	654.7
992.2655	2657.6531	1545.8	658.7
992.3892	2658.9094	1542.75	655.4
992.5129	2660.1651	1545.65	661.9
992.6366	2661.42	1546	658.55
992.7602	2662.6743	1543.55	654.7
992.8837	2663.9279	1552.7	666.7
993.0073	2665.1808	1543.05	654.45
993.1307	2666.433	1548.35	660.4
993.2542	2667.6846	1540.25	653.45
993.3776	2668.9354	1547.3	657.2
993.501	2670.1856	1546.05	659.45
993.6244	2671.4351	1548.8	662.55
993.7477	2672.6839	1558.6	673
993.8709	2673.9321	1560.05	673.3
993.9942	2675.1795	1563.1	675.65
994.1174	2676.4263	1554.6	667.75
994.2405	2677.6724	1555.15	669
994.3637	2678.9179	1556.3	667.7
994.4868	2680.1626	1550.7	663.65
994.6098	2681.4067	1557.25	670.05
994.7328	2682.6501	1551.65	666.3
994.8558	2683.8928	1550.3	663.05
994.9788	2685.1348	1545.2	657.75
995.1017	2686.3761	1547.85	661.9
995.2245	2687.6168	1547.15	660.05
995.3474	2688.8568	1541.6	656.75
995.4702	2690.0961	1533.8	648.55
995.5929	2691.3348	1523.55	636.2
995.7156	2692.5727	1527.1	640.75
995.8383	2693.81	1518.1	631.3
995.961	2695.0466	1523.55	637.3
996.0836	2696.2826	1520.95	632.15
996.2062	2697.5178	1526.3	635.85
996.3287	2698.7524	1516.95	630.35
996.4512	2699.9863	1523.1	632.2
996.5737	2701.2195	1522	639.35
996.6961	2702.452	1534.4	648.6
996.8185	2703.6839	1539.45	653.15
996.9408	2704.9151	1543.9	658.25
997.0631	2706.1456	1545.8	660.25
997.1854	2707.3755	1549.85	662.05
997.3077	2708.6046	1549.6	661.4
997.4299	2709.8331	1564.5	675.75
997.552	2711.0609	1563.1	675.85
997.6742	2712.2881	1569.15	682.1
997.7963	2713.5145	1579.25	689.05
997.9183	2714.7403	1593.85	709.3
998.0403	2715.9654	1597.85	712.95
998.1623	2717.1899	1626.9	725.2
998.2842	2718.4136	1615.2	727.05
998.4062	2719.6367	1617.8	732.1
998.528	2720.8591	1641	746.1
998.6498	2722.0809	1648.7	762.5
998.7716	2723.3019	1664.2	774.35
998.8934	2724.5223	1673.5	786.4
999.0151	2725.7421	1671.2	785.7
999.1368	2726.9611	1672.45	783.95
999.2584	2728.1795	1671	780.6
999.38	2729.3972	1655.2	769.4
999.5016	2730.6142	1664.45	765.3
999.6231	2731.8306	1635.9	749.5
999.7446	2733.0462	1623.55	737.7
999.8661	2734.2612	1606	714.7
999.9875	2735.4756	1590.65	701.6
1000.1089	2736.6892	1575.55	688.2
1000.2302	2737.9022	1558.4	675.2
1000.3515	2739.1145	1540.85	656.95
1000.4728	2740.3262	1541.75	647.9
1000.594	2741.5372	1532.25	646.45
1000.7152	2742.7475	1511.7	624.7
1000.8363	2743.9571	1501.5	613.3
1000.9575	2745.1661	1496.25	605.95
1001.0785	2746.3744	1488.85	601.5
1001.1996	2747.582	1478.25	590.55
1001.3206	2748.7889	1473	587
1001.4415	2749.9952	1459.75	572.75
1001.5625	2751.2008	1459.35	573.45
1001.6833	2752.4057	1452.5	564.05
1001.8042	2753.61	1454.7	569.5
1001.925	2754.8136	1441.5	556.95
1002.0458	2756.0165	1442.85	556.25
1002.1665	2757.2188	1437.85	554.25
1002.2872	2758.4204	1441.4	554.7
1002.4078	2759.6213	1443.9	557.95
1002.5285	2760.8215	1446	554.05
1002.649	2762.0211	1442.25	554.4
1002.7696	2763.22	1434.7	545.2
1002.8901	2764.4182	1440.2	556.4
1003.0106	2765.6158	1430	544.1
1003.131	2766.8127	1429.25	542.65
1003.2514	2768.009	1427.05	540.3
1003.3717	2769.2045	1429.3	541.85
1003.492	2770.3994	1424.95	538.8
1003.6123	2771.5936	1418.65	531.7
1003.7325	2772.7872	1412.1	526.55
1003.8527	2773.9801	1413	525.5
1003.9729	2775.1723	1425.2	523.3
1004.093	2776.3639	1411.4	529.8
1004.2131	2777.5548	1413.55	526.85
1004.3331	2778.745	1406.2	519.3
1004.4531	2779.9346	1407.45	524.95
1004.5731	2781.1235	1414.7	527.3
1004.693	2782.3117	1411.65	528.2
1004.8129	2783.4992	1422.15	539.3
1004.9328	2784.6861	1411.35	528.35
1005.0526	2785.8723	1424.45	537.65
1005.1723	2787.0579	1424.1	538.3
1005.2921	2788.2428	1434.1	551.15
1005.4118	2789.427	1439.4	554.9
1005.5314	2790.6106	1449.05	564.4
1005.651	2791.7935	1458.65	572.1
1005.7706	2792.9757	1470.2	587
1005.8902	2794.1573	1480.4	594.6
1006.0097	2795.3382	1493.85	609.95
1006.1291	2796.5184	1500.55	618.35
1006.2485	2797.698	1516.95	632.5
1006.3679	2798.8769	1525.7	640.3
1006.4873	2800.0551	1545.9	659.8
1006.6066	2801.2327	1556.8	670.95
1006.7258	2802.4096	1562.9	677.85
1006.8451	2803.5859	1583.15	700
1006.9642	2804.7615	1611.4	726.4
1007.0834	2805.9364	1629.65	746.4
1007.2025	2807.1106	1654.9	772.15
1007.3216	2808.2842	1682.7	798.35
1007.4406	2809.4572	1699.2	814.7
1007.5596	2810.6294	1735.7	850.7
1007.6785	2811.801	1778.65	896.45
1007.7975	2812.972	1814.1	928.05
1007.9163	2814.1423	1864.8	979.4
1008.0352	2815.3119	1903.75	1021.4
1008.154	2816.4808	1946.75	1063.05
1008.2727	2817.6491	1995.85	1110.05
1008.3914	2818.8167	2035.85	1152.2
1008.5101	2819.9837	2092.15	1205.25
1008.6288	2821.15	2136.1	1252.65
1008.7474	2822.3157	2187.55	1305
1008.8659	2823.4807	2239.45	1356.05
1008.9844	2824.645	2299.15	1415.9
1009.1029	2825.8086	2343.4	1459.5
1009.2214	2826.9716	2392.3	1509.5
1009.3398	2828.134	2440.55	1559
1009.4581	2829.2957	2477.7	1592.2
1009.5764	2830.4567	2511.5	1626.9
1009.6947	2831.617	2533.9	1650.55
1009.813	2832.7767	2539.4	1657.1
1009.9312	2833.9358	2543.75	1660.55
1010.0493	2835.0941	2538.6	1651.85
1010.1675	2836.2519	2518.6	1635.7
1010.2855	2837.4089	2515.6	1630.35
1010.4036	2838.5653	2493.4	1608.75
1010.5216	2839.7211	2485.5	1604.45
1010.6396	2840.8761	2485.95	1602.1
1010.7575	2842.0306	2517.4	1637.2
1010.8754	2843.1843	2541.05	1659.5
1010.9932	2844.3374	2586	1701.5
1011.111	2845.4899	2636.75	1750.8
1011.2288	2846.6417	2692	1807.75
1011.3465	2847.7928	2752.55	1869.55
1011.4642	2848.9433	2830.2	1950.5
1011.5818	2850.0931	2907.9	2024.9
1011.6995	2851.2422	2977.65	2092.6
1011.817	2852.3907	3048.55	2164.45
1011.9345	2853.5385	3093.8	2208.35
1012.052	2854.6857	3151.3	2257.2
1012.1695	2855.8323	3184.7	2301.6
1012.2869	2856.9781	3252.7	2368.95
1012.4042	2858.1233	3294.6	2409.65
1012.5216	2859.2679	3346.7	2465.4
1012.6389	2860.4118	3396.35	2514.25
1012.7561	2861.555	3438.05	2550.85
1012.8733	2862.6976	3477.7	2593.6
1012.9905	2863.8395	3511.3	2627.15
1013.1076	2864.9808	3531.75	2648.55
1013.2247	2866.1214	3537.6	2655.45
1013.3417	2867.2614	3560.85	2678.35
1013.4587	2868.4007	3571.9	2686.2
1013.5757	2869.5393	3587.6	2703.75
1013.6926	2870.6773	3612.4	2724.95
1013.8095	2871.8146	3627.55	2740.95
1013.9263	2872.9513	3631.65	2744.5
1014.0431	2874.0874	3629.7	2746.4
1014.1599	2875.2227	3598.5	2714.45
1014.2766	2876.3574	3598.8	2714.25
1014.3933	2877.4915	3581.55	2700.6
1014.51	2878.6249	3541.95	2659.5
1014.6266	2879.7577	3520.2	2637.25
1014.7431	2880.8898	3504.3	2611.25
1014.8596	2882.0212	3494.7	2612.45
1014.9761	2883.152	3471.25	2587.4
1015.0925	2884.2821	3450.6	2569.85
1015.2089	2885.4116	3449.7	2566.9
1015.3253	2886.5405	3450	2568
1015.4416	2887.6686	3458.15	2571.75
1015.5579	2888.7962	3465.4	2583.95
1015.6741	2889.923	3484.15	2601.1
1015.7903	2891.0493	3480.85	2599.1
1015.9065	2892.1748	3503.2	2620.95
1016.0226	2893.2997	3518.25	2633.8
1016.1387	2894.424	3531.8	2651.75
1016.2547	2895.5476	3539.5	2655.85
1016.3707	2896.6706	3553.1	2672.95
1016.4866	2897.7929	3585.6	2702.9
1016.6025	2898.9145	3604.3	2720.3
1016.7184	2900.0355	3649.05	2766
1016.8342	2901.1559	3681.15	2799
1016.95	2902.2756	3702.6	2821.95
1017.0658	2903.3946	3723.9	2841.75
1017.1815	2904.513	3761.95	2875.95
1017.2971	2905.6308	3798.9	2919.65
1017.4127	2906.7479	3831	2947.85
1017.5283	2907.8643	3837.85	2953.85
1017.6439	2908.9801	3846.85	2964.95
1017.7594	2910.0953	3846.95	2965.7
1017.8748	2911.2098	3862.35	2978.75
1017.9902	2912.3236	3871.35	2983.35
1018.1056	2913.4368	3841.8	2958.05
1018.2209	2914.5494	3825.95	2946.1
1018.3362	2915.6613	3795	2907.6
1018.4515	2916.7725	3781.8	2896.7
1018.5667	2917.8831	3743.85	2860.4
1018.6819	2918.9931	3719.45	2833.35
1018.797	2920.1024	3677	2794.85
1018.9121	2921.211	3655.05	2773.05
1019.0271	2922.319	3638.2	2756.05
1019.1421	2923.4264	3626.75	2746.15
1019.2571	2924.5331	3610.55	2730.05
1019.372	2925.6391	3606.45	2726.3
1019.4869	2926.7445	3608.95	2729.2
1019.6017	2927.8493	3600.25	2720.15
1019.7165	2928.9534	3604.5	2724.3
1019.8313	2930.0569	3582.5	2695.9
1019.946	2931.1597	3584.05	2703.45
1020.0606	2932.2619	3589.4	2706.15
1020.1753	2933.3634	3577.6	2696.35
1020.2899	2934.4643	3579.95	2691.8
1020.4044	2935.5645	3572.05	2683
1020.5189	2936.6641	3551.5	2664.25
1020.6334	2937.763	3498.6	2618.1
1020.7478	2938.8613	3455.95	2574.8
1020.8622	2939.959	3392.65	2508.55
1020.9765	2941.056	3324.9	2446.3
1021.0908	2942.1523	3243.8	2360.45
1021.2051	2943.248	3168.75	2287.55
1021.3193	2944.3431	3090.65	2209
1021.4334	2945.4375	2989.9	2106.25
1021.5476	2946.5313	2883.9	2003.55
1021.6617	2947.6244	2791.3	1910.85
1021.7757	2948.7169	2695.95	1816.4
1021.8897	2949.8087	2593.7	1711.65
1022.0037	2950.8999	2499.55	1617.65
1022.1176	2951.9904	2425.35	1544.05
1022.2315	2953.0803	2357.85	1475.6
1022.3453	2954.1696	2299.25	1418.25
1022.4591	2955.2582	2240.45	1360.7
1022.5728	2956.3462	2202.2	1320.9
1022.6865	2957.4335	2168.85	1285.1
1022.8002	2958.5202	2128.75	1246.55
1022.9138	2959.6062	2095.8	1216.85
1023.0274	2960.6916	2078.55	1199.2
1023.141	2961.7764	2048.05	1165.05
1023.2545	2962.8605	2040.45	1159.9
1023.3679	2963.9439	2020.85	1141.4
1023.4813	2965.0267	2019.95	1139.5
1023.5947	2966.1089	2030.45	1127.45
1023.708	2967.1905	2010.7	1132.05
1023.8213	2968.2714	1996.95	1115.7
1023.9346	2969.3516	1993.7	1112.75
1024.0478	2970.4312	2011	1124.1
1024.1609	2971.5102	2006.85	1129.35
1024.274	2972.5885	2005.75	1123.5
1024.3871	2973.6662	2009.8	1123.5
1024.5002	2974.7432	2001.85	1120.85
1024.6132	2975.8196	1993.45	1113.7
1024.7261	2976.8954	1983.85	1103.85
1024.839	2977.9705	1970	1090.05
1024.9519	2979.045	1959.5	1079.4
1025.0647	2980.1188	1951.2	1071.35
1025.1775	2981.192	1923.85	1045.35
1025.2902	2982.2645	1911.45	1031.85
1025.4029	2983.3364	1897.85	1017.7
1025.5156	2984.4077	1848.75	968.6
1025.6282	2985.4783	1831.55	945.05
1025.7407	2986.5483	1798.1	920.4
1025.8532	2987.6177	1768.65	889.45
1025.9657	2988.6864	1723.9	844.7
1026.0782	2989.7545	1695.6	815.2
1026.1906	2990.8219	1666.9	786.75
1026.3029	2991.8887	1640.8	758.65
1026.4152	2992.9548	1607.2	727.05
1026.5275	2994.0204	1577.25	699.35
1026.6397	2995.0852	1550.25	670.8
1026.7519	2996.1495	1517.6	636.25
1026.864	2997.2131	1501	620.45
1026.9761	2998.276	1474.1	593.8
1027.0882	2999.3383	1456.15	575.3
1027.2002	3000.4	1432.7	552.05
1027.3122	3001.4611	1416.35	536.9
1027.4241	3002.5215	1407.9	529.15
1027.536	3003.5812	1389.1	509.15
1027.6478	3004.6404	1374.2	494.4
1027.7596	3005.6989	1368.7	485.6
1027.8714	3006.7567	1363.35	484.55
1027.9831	3007.8139	1374.2	464.15
1028.0947	3008.8705	1343.25	461.95
1028.2064	3009.9264	1333.85	450.45
1028.3179	3010.9818	1329.05	449.7
1028.4295	3012.0364	1319.65	437.5
1028.541	3013.0905	1313.25	433.15
1028.6524	3014.1439	1311.65	431.7
1028.7638	3015.1966	1313.95	434.55
1028.8752	3016.2487	1310.75	430.35
1028.9865	3017.3002	1315.5	429.95
1029.0978	3018.3511	1305.45	428.1
1029.209	3019.4013	1307.95	429.05
1029.3202	3020.4509	1302.9	423.4
1029.4314	3021.4998	1300.4	419.1
1029.5425	3022.5481	1302.35	422.95
1029.6535	3023.5958	1302.85	422.5
1029.7645	3024.6428	1298.5	415.85
1029.8755	3025.6892	1304	426.75
1029.9864	3026.735	1304.7	424.25
1030.0973	3027.7802	1301.45	419.05
1030.2082	3028.8247	1306.05	427.5
1030.319	3029.8685	1303.35	422.25
1030.4297	3030.9118	1314	432.25
1030.5404	3031.9544	1307.1	428.55
1030.6511	3032.9963	1312.6	434
1030.7617	3034.0376	1316.35	436.5
1030.8723	3035.0783	1327.35	445.55
1030.9829	3036.1184	1319.45	437.9
1031.0934	3037.1578	1327.15	447.65
1031.2038	3038.1966	1331.3	450.05
1031.3142	3039.2348	1331.25	452.2
1031.4246	3040.2723	1340.75	455.65
1031.5349	3041.3092	1328.05	449.4
1031.6452	3042.3455	1332.1	452.1
1031.7554	3043.3811	1328.95	448.45
1031.8656	3044.4161	1326.1	446.35
1031.9758	3045.4505	1322.95	443.45
1032.0859	3046.4842	1317.95	437.05
1032.1959	3047.5173	1306.75	428.75
1032.3059	3048.5498	1305.1	427.25
1032.4159	3049.5816	1306.3	426.65
1032.5258	3050.6128	1295.65	415.85
1032.6357	3051.6434	1287.95	405.5
1032.7455	3052.6734	1288.3	406.45
1032.8553	3053.7027	1281.7	401.95
1032.9651	3054.7314	1279.45	401.25
1033.0748	3055.7594	1274.5	395.4
1033.1845	3056.7868	1275.1	395.7
1033.2941	3057.8136	1261.25	384.55
1033.4037	3058.8398	1260.75	383.2
1033.5132	3059.8653	1257.7	376.8
1033.6227	3060.8902	1252.5	373.6
1033.7321	3061.9145	1252.5	374.25
1033.8415	3062.9381	1236.8	357.5
1033.9509	3063.9612	1257.45	360.55
1034.0602	3064.9835	1239.2	360.65
1034.1694	3066.0053	1231.45	351.6
1034.2787	3067.0264	1227.6	350.2
1034.3878	3068.0469	1227.1	347.35
1034.497	3069.0668	1225.1	345.3
1034.6061	3070.086	1209.65	332.25
1034.7151	3071.1046	1202.95	323.3
1034.8241	3072.1226	1194.8	312.7
1034.9331	3073.1399	1189	311.2
1035.042	3074.1567	1179.45	299.45
1035.1508	3075.1727	1171.95	290.2
1035.2597	3076.1882	1162.65	282.7
1035.3684	3077.203	1154.05	274
1035.4772	3078.2173	1149	269.55
1035.5859	3079.2308	1147	265.15
1035.6945	3080.2438	1136.6	256.4
1035.8031	3081.2561	1127.7	248.45
1035.9117	3082.2678	1119.4	238.4
1036.0202	3083.2789	1115.7	237.55
1036.1286	3084.2893	1107.35	228.5
1036.2371	3085.2991	1109.6	231.75
1036.3454	3086.3083	1107.6	225.25
1036.4538	3087.3169	1092.7	212.55
1036.562	3088.3248	1093.65	211.2
1036.6703	3089.3321	1086.95	205.3
1036.7785	3090.3388	1078	201.1
1036.8866	3091.3449	1077.15	198.55
1036.9948	3092.3503	1079.55	199.7
1037.1028	3093.3551	1067.9	191.65
1037.2108	3094.3593	1066.85	188.55
1037.3188	3095.3629	1067.35	189.05
1037.4267	3096.3658	1062.95	185.7
1037.5346	3097.3681	1057.85	178.1
1037.6425	3098.3698	1060.3	179.25
1037.7503	3099.3708	1069.15	184.6
1037.858	3100.3713	1046.9	167.35
1037.9657	3101.3711	1051.1	172.55
1038.0734	3102.3702	1183.75	168.4
1038.181	3103.3688	1046.3	165.3
1038.2886	3104.3667	1040.8	164.55
1038.3961	3105.364	1041.85	164.25
1038.5036	3106.3607	1041.05	160.95
1038.611	3107.3568	1035.9	154.95
1038.7184	3108.3522	1034.25	158.5
1038.8257	3109.347	1035.3	156.45
1038.933	3110.3412	1039.85	155.65
1039.0403	3111.3348	1029.6	151.35
1039.1475	3112.3277	1029.15	148.35
1039.2547	3113.32	1026.25	150.65
1039.3618	3114.3117	1027.55	148.2
1039.4689	3115.3028	1024.75	145.5
1039.5759	3116.2932	1025.6	146.2
1039.6829	3117.2831	1024.9	141.6
1039.7898	3118.2723	1014.6	137.85
1039.8967	3119.2608	1016.65	138.85
1040.0035	3120.2488	1017.55	136.9
1040.1103	3121.2361	1015.5	135.75
1040.2171	3122.2229	1009.9	132.45
1040.3238	3123.209	1016.25	135.75
1040.4305	3124.1944	1009.9	133.25
1040.5371	3125.1793	1012.75	131.8
1040.6437	3126.1635	1008.35	131.4
1040.7502	3127.1471	1007.75	127.8
1040.8567	3128.1301	1006.2	128.55
1040.9631	3129.1125	1003.75	126.05
1041.0695	3130.0942	1007	128.7
1041.1759	3131.0753	1010.45	125
1041.2822	3132.0558	1004.3	126.3
1041.3884	3133.0357	1004.9	125.8
1041.4946	3134.015	1003.55	125.7
1041.6008	3134.9936	1002.1	122
1041.7069	3135.9716	1021.95	120.55
1041.813	3136.949	999.95	121.8
1041.919	3137.9258	1012.7	112.2
1042.025	3138.902	999.7	116.35
1042.1309	3139.8775	991.8	114.55
1042.2368	3140.8524	989.8	111.95
1042.3427	3141.8267	991.5	113.05
1042.4485	3142.8004	994.1	116.05
1042.5542	3143.7735	999.55	116.65
1042.6599	3144.7459	987.75	108.25
1042.7656	3145.7178	990.75	112.45
1042.8712	3146.689	989.85	111.7
1042.9768	3147.6596	988.3	107.65
1043.0823	3148.6295	988.45	110.95
1043.1878	3149.5989	983.7	105.45
1043.2932	3150.5676	981.8	105
1043.3986	3151.5357	983.95	108.5
1043.5039	3152.5032	979.75	104.05
1043.6092	3153.4701	980.6	102.55
1043.7145	3154.4364	980.3	102.5
1043.8197	3155.402	976.55	100.75
1043.9248	3156.367	980.1	99.8
1044.03	3157.3315	1010.8	102.05
1044.135	3158.2952	975.8	98.95
1044.24	3159.2584	972.6	94.35
1044.345	3160.221	978.3	99.15
1044.4499	3161.1829	973.3	95.4
1044.5548	3162.1442	974.4	96.75
1044.6596	3163.105	972.9	95.85
1044.7644	3164.065	970.75	92.25
1044.8692	3165.0245	974.2	94.9
1044.9739	3165.9834	970.1	94.55
1045.0785	3166.9416	968.1	92.25
1045.1831	3167.8993	968.35	90.7
1045.2877	3168.8563	973.05	93.5
1045.3922	3169.8127	968.3	90.7
1045.4966	3170.7684	967.65	93.05
1045.6011	3171.7236	969.4	89.05
1045.7054	3172.6782	967.8	88.65
1045.8098	3173.6321	966.05	89.15
1045.914	3174.5854	970.7	87.75
1046.0183	3175.5381	966.85	88.8
1046.1224	3176.4902	965.2	86.65
1046.2266	3177.4417	963.15	84.25
1046.3307	3178.3926	963.5	86.75
1046.4347	3179.3428	965.4	87.65
1046.5387	3180.2924	960.3	81.35
1046.6427	3181.2415	960.15	83.6
1046.7466	3182.1899	961.65	84.05
1046.8504	3183.1377	960.25	81.7
1046.9542	3184.0848	963.35	81.15
1047.058	3185.0314	958.65	80.9
1047.1617	3185.9773	958.8	81.4
1047.2654	3186.9227	959.2	80.35
1047.369	3187.8674	959.35	81
1047.4726	3188.8115	962.75	81.65
1047.5761	3189.755	958.45	81.1
1047.6796	3190.6979	957.3	79.7
1047.783	3191.6402	956.65	81.05
1047.8864	3192.5818	953.7	77.95
1047.9898	3193.5229	971.45	74.9
1048.0931	3194.4633	955.7	80.3
1048.1963	3195.4031	953.05	75.15
1048.2995	3196.3423	956.1	80.35
1048.4027	3197.2809	955.5	76.25
1048.5058	3198.2189	954.25	78.9
1048.6089	3199.1563	957.8	74.3
1048.7119	3200.0931	951.1	74.15
1048.8148	3201.0292	950.35	74.9
1048.9178	3201.9648	951.8	73.7
1049.0206	3202.8997	950.85	69.95
1049.1235	3203.834	951.25	74.8
1049.2262	3204.7677	950.75	74.05
1049.329	3205.7008	950.1	72
1049.4317	3206.6333	948.75	74
1049.5343	3207.5652	949.55	69.75
1049.6369	3208.4964	950.05	73.2
1049.7394	3209.4271	948.9	73.3
1049.8419	3210.3571	943.15	66.55
1049.9444	3211.2865	945.55	66.7
1050.0468	3212.2154	947.95	70.4
1050.1491	3213.1436	946.6	65.75
1050.2514	3214.0712	952.7	69.5
1050.3537	3214.9982	944.9	67.9
1050.4559	3215.9246	942.5	65.8
1050.5581	3216.8503	944.25	70.1
1050.6602	3217.7755	943.05	66.7
1050.7623	3218.7001	944.25	67.9
1050.8643	3219.624	944.65	67.35
1050.9663	3220.5473	941.95	65.2
1051.0682	3221.4701	946.15	67.75
1051.1701	3222.3922	943.6	65.25
1051.2719	3223.3137	943.15	67.05
1051.3737	3224.2346	945	66.95
1051.4754	3225.1549	941.85	63.2
1051.5771	3226.0746	939.8	64.8
1051.6788	3226.9937	938.95	62.8
1051.7804	3227.9121	938.8	63.45
1051.8819	3228.83	939.3	62.85
1051.9834	3229.7473	940.15	63.2
1052.0849	3230.6639	938.85	61.4
1052.1863	3231.5799	939.75	63.8
1052.2876	3232.4954	938.3	60.35
1052.3889	3233.4102	939.15	61.85
1052.4902	3234.3244	939.5	61.9
1052.5914	3235.238	936.4	60.75
1052.6926	3236.151	963.15	62.3
1052.7937	3237.0634	937.2	62.9
1052.8948	3237.9752	938.35	60.15
1052.9958	3238.8864	939.6	62.8
1053.0968	3239.797	936.1	60.35
1053.1977	3240.7069	938.45	61.95
1053.2986	3241.6163	936.4	60.85
1053.3994	3242.5251	933.6	56.6
1053.5002	3243.4332	933.4	56.95
1053.6009	3244.3408	934.35	57.55
1053.7016	3245.2477	931.05	53.3
1053.8022	3246.154	935.8	58.2
1053.9028	3247.0598	929.5	52.8
1054.0034	3247.9649	934.1	56.55
1054.1039	3248.8694	931.25	52.5
1054.2043	3249.7733	930.9	55.25
1054.3047	3250.6766	929.2	52.15
1054.4051	3251.5793	931.55	53.75
1054.5054	3252.4814	926.95	50.4
1054.6056	3253.3829	927.5	50.2
1054.7058	3254.2838	929.7	54.55
1054.806	3255.1841	930.4	53.25
1054.9061	3256.0838	924.75	48.55
1055.0061	3256.9829	925.05	49.7
1055.1062	3257.8814	925.3	47.6
1055.2061	3258.7792	926.3	46.25
1055.306	3259.6765	925	48.05
1055.4059	3260.5731	924.15	47.2
1055.5057	3261.4692	926	49.1
1055.6055	3262.3647	922.8	45.65
1055.7052	3263.2595	920.2	44.35
1055.8049	3264.1538	921.2	46.25
1055.9045	3265.0474	921.3	45.4
1056.0041	3265.9404	918.65	43.15
1056.1036	3266.8329	921.1	45.6
1056.2031	3267.7247	928.35	42.45
1056.3025	3268.616	914.95	43
1056.4019	3269.5066	916.05	40.8
1056.5013	3270.3966	917.95	39.5
1056.6005	3271.286	910	34.75
