Software Version:	3.9.2.0
Unit SN:	10000200
Spectrometer SN:	6960
Date:	3/8/2024 11:34:55 AM
Data Line Index:	25
Spectral Points:	2048
Integration time (ms):	125
Averages:	20
Delay (ms):	30000
Sequence Number:	1
Processing:	dark subtract
Laser Power (mW):	300
Laser Current (mA):	821
Laser Diode Temp (C):	25.1
Laser Case Temp (C):	25.1
System Temp (C):	25.1
Spectrometer Temp (C):	23
CCD Temp (C):	0.008
Secondary Temp (C):	20.013
Heatsink Temp (C):	19.848
CCDPCB Temp (C):	32.483
SecondaryPCB Temp (C):	27.314

Wavelength	RamanShift	Raw Counts	Dark Subtracted
787.061	30.1047	415.75	7.7
787.2016	32.3739	412.25	3.95
787.3422	34.6426	412.35	3.1
787.4828	36.9109	418.4	8.2
787.6235	39.1787	420.95	6.7
787.7642	41.4461	425.9	6.55
787.9049	43.7131	430.55	7.45
788.0456	45.9796	434.65	8.85
788.1863	48.2456	437.2	8.85
788.3271	50.5112	441.9	10.6
788.4679	52.7764	444.75	10.7
788.6087	55.0411	451.85	10.85
788.7496	57.3054	456	8.8
788.8904	59.5692	459.1	12.7
789.0313	61.8326	462.85	14.1
789.1722	64.0955	468.9	17.15
789.3132	66.3579	475.5	18.8
789.4541	68.6199	482.55	22.05
789.5951	70.8815	493.4	27.1
789.7361	73.1426	510.9	43.2
789.8771	75.4032	545	71.9
790.0181	77.6634	626.65	151
790.1592	79.9231	804.15	323.35
790.3003	82.1824	1169.85	684.95
790.4414	84.4412	1774.35	1276.05
790.5825	86.6995	2541.1	2028.85
790.7237	88.9574	3272.65	2752.65
790.8648	91.2148	3765.85	3236.4
791.006	93.4717	3965.25	3429.55
791.1472	95.7282	3995.55	3455.5
791.2885	97.9842	3981.45	3438.85
791.4297	100.2398	3922.85	3377.7
791.571	102.4949	3859.15	3311.95
791.7123	104.7495	3812.35	3262.05
791.8536	107.0036	3778.2	3226.1
791.9949	109.2573	3698.05	3147.2
792.1363	111.5105	3602.85	3049.75
792.2777	113.7632	3499.1	2944.3
792.4191	116.0154	3398	2831.15
792.5605	118.2672	3283.25	2723.45
792.7019	120.5185	3180.4	2618.35
792.8434	122.7693	3063.15	2498.65
792.9849	125.0197	2982.9	2415
793.1264	127.2696	2899.75	2328.8
793.2679	129.519	2862.85	2287.2
793.4094	131.7679	2812.3	2235.7
793.551	134.0163	2800.75	2218.75
793.6926	136.2642	2804.1	2220.15
793.8342	138.5117	2782.65	2194.15
793.9758	140.7587	2748.2	2160
794.1175	143.0052	2708.3	2116.95
794.2591	145.2512	2656.8	2066.15
794.4008	147.4967	2602.6	2008.65
794.5425	149.7417	2556.9	1960.95
794.6842	151.9863	2538.25	1937.55
794.826	154.2304	2518.35	1913.15
794.9677	156.4739	2511.95	1899.15
795.1095	158.717	2526.4	1915.85
795.2513	160.9596	2561.9	1946.6
795.3931	163.2017	2575.15	1959.75
795.535	165.4433	2593.25	1975.25
795.6768	167.6844	2580.65	1962.25
795.8187	169.925	2556.4	1933.6
795.9606	172.1651	2500.65	1872.7
796.1025	174.4047	2452.75	1823
796.2445	176.6439	2406.55	1773
796.3864	178.8825	2361	1725.35
796.5284	181.1206	2353.4	1713.6
796.6704	183.3582	2363.45	1721.15
796.8124	185.5954	2344.45	1701.85
796.9544	187.832	2357.6	1708.4
797.0965	190.0681	2347.1	1695
797.2386	192.3037	2350.65	1696.35
797.3806	194.5388	2358.75	1701.5
797.5228	196.7734	2365.55	1707.15
797.6649	199.0075	2387.35	1726.55
797.807	201.2411	2415.4	1754.4
797.9492	203.4742	2443.4	1778.7
798.0914	205.7068	2462.2	1793.45
798.2336	207.9389	2493.3	1824.3
798.3758	210.1704	2501.85	1840.6
798.518	212.4015	2485.65	1829.9
798.6603	214.632	2486.55	1836.75
798.8025	216.862	2497.25	1850.65
798.9448	219.0915	2500.75	1852.65
799.0871	221.3205	2506.9	1857.95
799.2294	223.549	2521.75	1873.85
799.3718	225.777	2527.95	1880.55
799.5141	228.0044	2520.2	1863.6
799.6565	230.2314	2520.55	1867.65
799.7989	232.4578	2501.5	1841.2
799.9413	234.6837	2496.4	1825.9
800.0837	236.909	2479.55	1809.4
800.2262	239.1339	2494.5	1800.45
800.3687	241.3582	2468.85	1789.25
800.5111	243.582	2494.1	1783.55
800.6536	245.8053	2498.1	1800.65
800.7961	248.0281	2492.15	1800.3
800.9387	250.2503	2494.3	1798.3
801.0812	252.472	2509.2	1812.1
801.2238	254.6932	2522.15	1823.25
801.3664	256.9139	2514.7	1813.85
801.509	259.134	2539.7	1833.6
801.6516	261.3536	2561.25	1860.15
801.7942	263.5727	2610.15	1907.15
801.9369	265.7912	2660.8	1957.9
802.0795	268.0092	2713.65	2008.95
802.2222	270.2267	2770	2068.05
802.3649	272.4436	2833.25	2127.4
802.5076	274.6601	2882.45	2167.65
802.6504	276.8759	2879.35	2167.5
802.7931	279.0913	2920.7	2206.15
802.9359	281.3061	2920	2207.55
803.0787	283.5204	2964.65	2247.75
803.2215	285.7341	2995.75	2276.1
803.3643	287.9473	2994.05	2270.95
803.5071	290.16	3011.55	2288.7
803.6499	292.3721	2964.5	2249
803.7928	294.5837	2924.2	2204.8
803.9357	296.7947	2889.95	2169.95
804.0786	299.0052	2870	2148
804.2215	301.2152	2874.4	2152.75
804.3644	303.4246	2841.4	2122.65
804.5074	305.6334	2824.55	2103.3
804.6503	307.8418	2811.75	2086.2
804.7933	310.0495	2791.85	2068.95
804.9363	312.2568	2746.6	2019.45
805.0793	314.4635	2714.75	1986.2
805.2223	316.6696	2651.4	1918.4
805.3653	318.8752	2606.45	1865.35
805.5084	321.0802	2570.35	1840.2
805.6514	323.2847	2567.35	1832.05
805.7945	325.4887	2557.25	1824.95
805.9376	327.692	2584.35	1845.15
806.0807	329.8949	2640.95	1901.15
806.2238	332.0972	2679.15	1941.65
806.367	334.2989	2698.05	1954.9
806.5101	336.5001	2702.2	1960.8
806.6533	338.7007	2660.15	1917.8
806.7965	340.9008	2613.05	1866.7
806.9397	343.1003	2566.4	1818
807.0829	345.2992	2502.65	1753.7
807.2261	347.4976	2467.35	1718.75
807.3693	349.6955	2440.7	1687.55
807.5126	351.8927	2425.1	1672.3
807.6559	354.0895	2414.65	1653.1
807.7991	356.2856	2393.05	1638.35
807.9424	358.4812	2379.35	1622.75
808.0857	360.6763	2387.5	1628.65
808.2291	362.8707	2371.7	1612
808.3724	365.0646	2373.1	1608.1
808.5158	367.258	2385.4	1620.5
808.6591	369.4508	2416.2	1646.4
808.8025	371.643	2437.6	1670.15
808.9459	373.8346	2452.35	1681.1
809.0893	376.0257	2499.5	1728.2
809.2327	378.2162	2531.1	1759.25
809.3762	380.4062	2525.7	1752.35
809.5196	382.5956	2505.35	1737.45
809.6631	384.7844	2467.75	1703.65
809.8066	386.9726	2426.45	1661.7
809.9501	389.1603	2394.45	1630.65
810.0936	391.3474	2411.9	1613.15
810.2371	393.5339	2379.55	1612.85
810.3806	395.7199	2388.75	1624.4
810.5241	397.9052	2409.6	1643.3
810.6677	400.09	2456.7	1690.6
810.8113	402.2743	2504.45	1739.2
810.9548	404.4579	2552.25	1783.85
811.0984	406.641	2601.4	1833.55
811.2421	408.8235	2651.95	1881.05
811.3857	411.0054	2697.9	1923.9
811.5293	413.1868	2755.45	1978.65
811.673	415.3675	2819	2039.5
811.8166	417.5477	2815.8	2036.8
811.9603	419.7273	2748.65	1964.5
812.104	421.9064	2658.9	1868.1
812.2477	424.0848	2584.5	1800.5
812.3914	426.2627	2522.5	1737.85
812.5351	428.4399	2462.35	1675
812.6788	430.6166	2398.95	1608.2
812.8226	432.7928	2359.3	1566.75
812.9663	434.9683	2327.35	1536.35
813.1101	437.1432	2288.9	1496.55
813.2539	439.3176	2266	1474.9
813.3977	441.4914	2247.6	1457.65
813.5415	443.6645	2255.1	1462.05
813.6853	445.8371	2254.05	1462.3
813.8291	448.0091	2251.05	1456.95
813.973	450.1806	2242.6	1449.7
814.1168	452.3514	2245.35	1450.8
814.2607	454.5216	2252.1	1448.85
814.4046	456.6913	2243.3	1444.65
814.5485	458.8603	2251.05	1456.9
814.6924	461.0288	2248.95	1455.35
814.8363	463.1967	2241.85	1448.4
814.9802	465.3639	2248.85	1450.75
815.1241	467.5306	2246.7	1449
815.2681	469.6967	2230.5	1432.5
815.412	471.8622	2223.85	1428.2
815.556	474.0271	2223.65	1426.7
815.7	476.1914	2228	1427.1
815.844	478.3551	2225.9	1426.9
815.988	480.5182	2214.3	1415.6
816.132	482.6807	2223	1422.5
816.276	484.8426	2236.35	1439.85
816.4201	487.0039	2288.6	1490.35
816.5641	489.1647	2338.35	1534.4
816.7082	491.3248	2392.25	1589.95
816.8522	493.4843	2404.85	1602.05
816.9963	495.6432	2399.25	1597.7
817.1404	497.8015	2372.95	1564.95
817.2845	499.9592	2323.55	1516.05
817.4286	502.1163	2265.8	1456.95
817.5727	504.2728	2224.8	1417.1
817.7168	506.4287	2190.65	1386.2
817.861	508.5839	2171.05	1364.4
818.0051	510.7386	2163.3	1357.1
818.1493	512.8927	2171.35	1353.85
818.2935	515.0461	2179.45	1367.55
818.4377	517.199	2207.35	1395.95
818.5818	519.3512	2245.8	1433.15
818.726	521.5029	2324.55	1508.6
818.8703	523.6539	2389.05	1574.95
819.0145	525.8043	2390.9	1575
819.1587	527.9541	2339.85	1521.1
819.303	530.1033	2258.55	1442
819.4472	532.2519	2203.1	1386
819.5915	534.3999	2181.45	1363.8
819.7357	536.5472	2170	1355.05
819.88	538.694	2176.05	1360.7
820.0243	540.8401	2181.2	1360.75
820.1686	542.9856	2213.05	1392.45
820.3129	545.1305	2235.55	1413.2
820.4572	547.2748	2245.6	1423.9
820.6016	549.4185	2249.3	1423.95
820.7459	551.5615	2253.45	1432
820.8902	553.704	2273.5	1451.15
821.0346	555.8458	2290.2	1470.5
821.1789	557.987	2312.3	1491.15
821.3233	560.1276	2339.15	1516.9
821.4677	562.2675	2400.05	1578.3
821.6121	564.4069	2469.25	1646.45
821.7565	566.5456	2527.85	1706.9
821.9009	568.6837	2502.25	1676.95
822.0453	570.8212	2429.7	1604.85
822.1897	572.958	2331.1	1507.7
822.3342	575.0942	2267.05	1444.2
822.4786	577.2299	2235.45	1412.45
822.6231	579.3648	2208.7	1390.1
822.7675	581.4992	2178.7	1359.5
822.912	583.6329	2188.8	1367.9
823.0565	585.766	2227.15	1406.7
823.201	587.8985	2269.6	1447.8
823.3454	590.0304	2348.15	1511.1
823.4899	592.1616	2357.5	1524.8
823.6345	594.2922	2358.1	1528.05
823.779	596.4222	2319.35	1487.75
823.9235	598.5515	2249.4	1420.05
824.068	600.6802	2191.2	1359.05
824.2126	602.8083	2157.5	1327.25
824.3571	604.9358	2146.6	1315.6
824.5017	607.0626	2129.6	1295.75
824.6462	609.1888	2151.4	1316
824.7908	611.3144	2168.25	1333.15
824.9354	613.4393	2218.9	1387.05
825.08	615.5636	2266.45	1432.25
825.2246	617.6873	2322.75	1488.05
825.3692	619.8103	2365.55	1527.5
825.5138	621.9327	2353.35	1516.6
825.6584	624.0544	2313.75	1478
825.803	626.1756	2254.75	1418.55
825.9477	628.2961	2190.2	1355.25
826.0923	630.4159	2172.2	1335.3
826.237	632.5351	2173.7	1334.6
826.3816	634.6537	2162.8	1324.8
826.5263	636.7716	2150.05	1308.5
826.6709	638.8889	2142.1	1300.95
826.8156	641.0056	2142.4	1301.4
826.9603	643.1216	2160.75	1322.05
827.105	645.237	2159.55	1314.65
827.2497	647.3518	2138.8	1297.9
827.3944	649.4659	2114.6	1277.4
827.5391	651.5793	2102.6	1262.8
827.6838	653.6922	2083.2	1244.5
827.8285	655.8043	2068.2	1225.85
827.9733	657.9159	2045.45	1203.05
828.118	660.0268	2051.65	1209.7
828.2627	662.137	2051.9	1209
828.4075	664.2466	2047.75	1203.15
828.5522	666.3556	2045.25	1200
828.697	668.4639	2031.15	1185.65
828.8418	670.5716	2023.3	1179.3
828.9865	672.6786	2021.15	1176.95
829.1313	674.785	2012.7	1163.7
829.2761	676.8907	2011.3	1165.4
829.4209	678.9958	2013.45	1167.9
829.5657	681.1002	2017.55	1169.35
829.7105	683.204	2011.9	1159.4
829.8553	685.3072	2011.45	1161.2
830.0001	687.4097	2010.55	1161.3
830.1449	689.5115	2003	1152.85
830.2898	691.6127	1996.1	1149.5
830.4346	693.7132	2003.55	1152.6
830.5794	695.8131	2015.05	1161.55
830.7243	697.9123	2006.85	1155.95
830.8691	700.0109	2016.35	1165.1
831.014	702.1089	2028.25	1176.4
831.1588	704.2061	2042.15	1191.35
831.3037	706.3028	2059.65	1207.7
831.4486	708.3987	2085.7	1230.95
831.5935	710.4941	2098.45	1244.6
831.7383	712.5887	2107.05	1256.9
831.8832	714.6827	2103.25	1247.4
832.0281	716.7761	2095.45	1244.8
832.173	718.8688	2088.4	1236.6
832.3179	720.9608	2100.05	1244.1
832.4628	723.0522	2122.15	1262.55
832.6077	725.1429	2131.55	1275.45
832.7527	727.233	2177.4	1321.85
832.8976	729.3224	2242	1386.9
833.0425	731.4112	2304.35	1448.35
833.1874	733.4993	2302.9	1447.8
833.3324	735.5867	2259	1403.55
833.4773	737.6735	2165.15	1307.2
833.6222	739.7596	2109.3	1252.55
833.7672	741.845	2083.5	1225.4
833.9122	743.9298	2074.8	1216.25
834.0571	746.014	2086.55	1230.35
834.2021	748.0974	2082.45	1223.35
834.347	750.1802	2098.7	1235.8
834.492	752.2624	2086.35	1228.1
834.637	754.3439	2066.95	1206.55
834.782	756.4247	2075.2	1204.6
834.9269	758.5048	2077.8	1218.6
835.0719	760.5843	2088.35	1228.95
835.2169	762.6631	2122.3	1260.95
835.3619	764.7413	2183.25	1323.95
835.5069	766.8188	2286.5	1425.75
835.6519	768.8956	2355.85	1492.95
835.7969	770.9718	2420.8	1560.05
835.9419	773.0473	2414	1553.4
836.0869	775.1221	2371.45	1510.45
836.232	777.1962	2360.65	1498.15
836.377	779.2697	2433.15	1570.65
836.522	781.3426	2545.35	1663.55
836.667	783.4147	2613.15	1749.5
836.8121	785.4862	2592.55	1730.35
836.9571	787.557	2492.9	1631.2
837.1021	789.6271	2349.65	1484.6
837.2472	791.6966	2221.5	1359.25
837.3922	793.7654	2115.4	1252.7
837.5373	795.8335	2067.95	1203.7
837.6823	797.901	2032.25	1168.8
837.8274	799.9678	2021.25	1156.25
837.9724	802.0339	2015.95	1154.9
838.1175	804.0993	2029.15	1155.4
838.2626	806.1641	2015.4	1150.35
838.4076	808.2282	2006.55	1143
838.5527	810.2916	1978.7	1112.1
838.6978	812.3544	1961.35	1100.2
838.8428	814.4164	1945.1	1081.25
838.9879	816.4778	1959.95	1093
839.133	818.5385	1968.45	1104.05
839.2781	820.5986	2000.25	1132.65
839.4232	822.658	2063.6	1195.9
839.5682	824.7166	2126	1261.85
839.7133	826.7747	2222.05	1356.65
839.8584	828.832	2314.05	1448
840.0035	830.8886	2380.35	1513.2
840.1486	832.9446	2407.25	1540.6
840.2937	834.9999	2379.9	1513.6
840.4388	837.0545	2295.95	1424.5
840.5839	839.1085	2197.55	1330.1
840.729	841.1618	2116.15	1245.4
840.8741	843.2143	2058.45	1191.45
841.0192	845.2662	2017.75	1148.2
841.1643	847.3175	2012.2	1144.9
841.3095	849.368	1991.75	1122.8
841.4546	851.4179	1984.45	1116.85
841.5997	853.467	1988.3	1118.3
841.7448	855.5155	2000.9	1132.95
841.8899	857.5633	1997.75	1129
842.0351	859.6105	1987.85	1120.1
842.1802	861.6569	1975.25	1104.6
842.3253	863.7027	1967.5	1096.15
842.4704	865.7478	1958.35	1088.9
842.6156	867.7922	1949.6	1077.05
842.7607	869.8359	1924.5	1053.4
842.9058	871.8789	1921.65	1050.45
843.0509	873.9212	1953.9	1051.7
843.1961	875.9629	1949.25	1078.15
843.3412	878.0039	1955	1080.1
843.4863	880.0441	1968.5	1094.95
843.6315	882.0837	1991.85	1120.95
843.7766	884.1226	2015.65	1140.95
843.9218	886.1609	2046.6	1172.65
844.0669	888.1984	2093.2	1220.05
844.212	890.2352	2150.2	1278.1
844.3572	892.2714	2165.2	1290.3
844.5023	894.3069	2130.25	1255.45
844.6475	896.3416	2075.2	1203
844.7926	898.3757	2022.85	1150.65
844.9377	900.4091	1999.15	1126.3
845.0829	902.4418	2014.25	1135.95
845.228	904.4739	2031.35	1157
845.3732	906.5052	2043.5	1169.35
845.5183	908.5358	2025.35	1150.45
845.6635	910.5658	2016.1	1141
845.8086	912.595	1975.85	1100.5
845.9538	914.6236	1942	1067.6
846.0989	916.6515	1909.25	1037.65
846.2441	918.6786	1893.6	1018.15
846.3892	920.7051	1874.85	996.3
846.5344	922.7309	1872.65	995.75
846.6795	924.756	1876.55	1002.75
846.8246	926.7804	1886.75	1009.85
846.9698	928.8041	1898.6	1022.35
847.1149	930.8272	1913.35	1038.05
847.2601	932.8495	1929.4	1052.5
847.4052	934.8711	1936.3	1058.85
847.5504	936.892	1942.3	1066.3
847.6955	938.9123	1957.65	1080.65
847.8407	940.9318	1994.25	1118.6
847.9858	942.9506	2011.95	1134.3
848.131	944.9688	1997.1	1122.9
848.2761	946.9862	1967.75	1092.2
848.4213	949.003	1936.35	1058.75
848.5664	951.019	1908.15	1032.15
848.7115	953.0344	1883.85	1004.1
848.8567	955.0491	1880.9	1002.6
849.0018	957.063	1869.25	991.9
849.147	959.0763	1869.25	993.2
849.2921	961.0888	1860.8	980.25
849.4373	963.1007	1856.45	979.85
849.5824	965.1119	1855.1	979.8
849.7275	967.1223	1847.1	972.6
849.8727	969.1321	1827.5	955.35
850.0178	971.1412	1835.6	958.15
850.1629	973.1495	1839	962.85
850.3081	975.1572	1860.8	951.15
850.4532	977.1641	1836.35	959.05
850.5983	979.1704	1828.05	949
850.7435	981.1759	1830.1	948.75
850.8886	983.1808	1822.8	942.15
851.0337	985.1849	1828.65	940.25
851.1788	987.1884	1822.9	942.35
851.324	989.1911	1809.8	929.85
851.4691	991.1932	1829.3	949.7
851.6142	993.1945	1838.5	959.35
851.7593	995.1951	1816.55	936.8
851.9045	997.1951	1833.75	948.05
852.0496	999.1943	1823.4	944.75
852.1947	1001.1928	1830.4	949.45
852.3398	1003.1906	1824.4	944.95
852.4849	1005.1877	1858.65	976.3
852.63	1007.1841	1891.75	1012.35
852.7751	1009.1798	1903.5	1026
852.9202	1011.1748	1889.75	1010.65
853.0653	1013.1691	1859.65	980.1
853.2104	1015.1627	1837.15	957.65
853.3555	1017.1556	1801.05	922.4
853.5006	1019.1477	1778.45	899.35
853.6457	1021.1392	1753.8	876.75
853.7908	1023.1299	1747.7	868.7
853.9359	1025.12	1747.1	868.5
854.081	1027.1093	1753.65	879.3
854.2261	1029.0979	1781.35	906.9
854.3712	1031.0859	1805.8	929.75
854.5163	1033.0731	1812	932.7
854.6613	1035.0596	1815.1	937.85
854.8064	1037.0454	1808	930.35
854.9515	1039.0304	1802.8	921.05
855.0965	1041.0148	1770.7	889.8
855.2416	1042.9985	1741.25	855.25
855.3867	1044.9814	1730.05	850.45
855.5317	1046.9636	1731.65	849.7
855.6768	1048.9452	1735.95	855.45
855.8219	1050.926	1762.95	883.95
855.9669	1052.9061	1777.3	897.4
856.112	1054.8855	1783.6	902.95
856.257	1056.8642	1787.45	906.9
856.4021	1058.8421	1788.2	905.5
856.5471	1060.8194	1780.85	900.15
856.6921	1062.7959	1774.7	892.75
856.8372	1064.7717	1770.7	887.6
856.9822	1066.7469	1780.9	898.35
857.1272	1068.7213	1778.7	893.8
857.2723	1070.695	1796.15	915.9
857.4173	1072.6679	1809.2	928.25
857.5623	1074.6402	1843.45	960.2
857.7073	1076.6117	1851.05	963.9
857.8523	1078.5826	1823.7	939.85
857.9973	1080.5527	1787.7	903.4
858.1423	1082.5221	1757.05	873.65
858.2873	1084.4908	1721.1	838.75
858.4323	1086.4587	1701.45	817
858.5773	1088.426	1702.4	818.1
858.7223	1090.3925	1693.5	808.5
858.8673	1092.3584	1698.1	814.6
859.0123	1094.3235	1709.2	825.75
859.1573	1096.2879	1722.45	840.8
859.3022	1098.2515	1749.25	864.4
859.4472	1100.2145	1784.45	902.45
859.5922	1102.1767	1819.2	933.6
859.7371	1104.1382	1869.65	986.1
859.8821	1106.099	1919.85	1033.45
860.027	1108.0591	1967.75	1083.75
860.172	1110.0185	2006.4	1120.75
860.3169	1111.9771	2055.45	1173.15
860.4619	1113.9351	2102.1	1216.95
860.6068	1115.8923	2172.65	1287.15
860.7517	1117.8488	2193.85	1310
860.8967	1119.8045	2144.6	1261.6
861.0416	1121.7596	2047.55	1161.95
861.1865	1123.7139	1937.5	1054.3
861.3314	1125.6675	1883.85	1000.15
861.4763	1127.6204	1875.35	994.65
861.6212	1129.5726	1900.65	1013.8
861.7661	1131.524	1890.9	1006.6
861.911	1133.4748	1855.15	971.75
862.0559	1135.4248	1783.3	896.9
862.2008	1137.3741	1743.65	860.95
862.3457	1139.3226	1711.85	827.85
862.4905	1141.2705	1710.3	826.1
862.6354	1143.2176	1723.75	833.8
862.7803	1145.164	1735.15	850.25
862.9251	1147.1097	1729.75	845.8
863.07	1149.0546	1708.95	822.5
863.2148	1150.9989	1685.05	800.5
863.3597	1152.9424	1663.3	778.65
863.5045	1154.8852	1655.3	767.95
863.6493	1156.8272	1643.1	759.5
863.7942	1158.7686	1644.75	752.85
863.939	1160.7092	1638.25	751.85
864.0838	1162.6491	1651.45	763.1
864.2286	1164.5883	1667.85	783.9
864.3734	1166.5267	1669.85	783.2
864.5182	1168.4644	1699.5	816.25
864.663	1170.4014	1724.35	837
864.8078	1172.3377	1767.6	883.05
864.9526	1174.2732	1832.45	947.6
865.0974	1176.2081	1924.75	1038.95
865.2421	1178.1421	2049.45	1161.2
865.3869	1180.0755	2168.25	1284.15
865.5317	1182.0082	2242.15	1356.9
865.6764	1183.9401	2224.5	1338.7
865.8212	1185.8713	2108.3	1225.05
865.9659	1187.8017	1979.7	1094.4
866.1106	1189.7315	1862.15	981.6
866.2554	1191.6605	1809.9	898.9
866.4001	1193.5888	1740.05	858
866.5448	1195.5163	1718.2	834.55
866.6895	1197.4432	1693.25	808.45
866.8342	1199.3693	1667.4	785.9
866.9789	1201.2947	1658	771.7
867.1236	1203.2193	1646.8	760.85
867.2683	1205.1432	1652.2	765.6
867.413	1207.0664	1642.8	758.3
867.5576	1208.9889	1649.3	761.45
867.7023	1210.9106	1644.3	757.4
867.847	1212.8316	1654.9	770.7
867.9916	1214.7519	1670.55	776.45
868.1363	1216.6715	1676.05	791.6
868.2809	1218.5903	1690.4	804.6
868.4255	1220.5084	1693.25	808
868.5701	1222.4257	1719.75	833.2
868.7148	1224.3424	1720.1	836.45
868.8594	1226.2583	1751.65	864.1
869.004	1228.1735	1776.3	889.55
869.1486	1230.0879	1820.45	932.65
869.2932	1232.0016	1861.45	979.15
869.4377	1233.9146	1891.15	1003.8
869.5823	1235.8269	1913.9	1027.25
869.7269	1237.7384	1921.65	1036.35
869.8715	1239.6492	1925.3	1038.5
870.016	1241.5592	1938	1048.5
870.1606	1243.4686	1985.95	1097.9
870.3051	1245.3772	2064.25	1177.4
870.4496	1247.285	2152.45	1264.9
870.5941	1249.1922	2243.8	1356.75
870.7387	1251.0986	2317.65	1430.45
870.8832	1253.0042	2380.45	1492.8
871.0277	1254.9092	2483.25	1595.85
871.1722	1256.8134	2562.55	1677.3
871.3167	1258.7169	2641.3	1755.55
871.4611	1260.6196	2678.05	1790.6
871.6056	1262.5216	2710.7	1823.45
871.7501	1264.4229	2687.5	1800.85
871.8945	1266.3234	2656	1771.7
872.039	1268.2232	2604.15	1716.85
872.1834	1270.1223	2551.2	1661.35
872.3278	1272.0207	2509.1	1622.5
872.4723	1273.9183	2495.4	1602.7
872.6167	1275.8151	2481.35	1595.8
872.7611	1277.7113	2530.05	1644.4
872.9055	1279.6067	2632.75	1746.65
873.0499	1281.5014	2775.8	1887.25
873.1943	1283.3953	2956.85	2068.8
873.3386	1285.2885	3147.05	2260.8
873.483	1287.181	3284.1	2396.4
873.6274	1289.0727	3344.25	2458.9
873.7717	1290.9637	3295.4	2408.4
873.9161	1292.854	3189.45	2304.25
874.0604	1294.7435	3070.7	2182.85
874.2047	1296.6323	2960.05	2075.25
874.349	1298.5204	2859.95	1969
874.4933	1300.4077	2791.3	1903.6
874.6376	1302.2943	2732	1845.3
874.7819	1304.1802	2693.6	1806.15
874.9262	1306.0653	2654.1	1765.2
875.0705	1307.9497	2616.85	1729.65
875.2147	1309.8333	2579.05	1692.3
875.359	1311.7162	2542.7	1654.55
875.5032	1313.5984	2510.4	1620.8
875.6475	1315.4798	2495.75	1596.35
875.7917	1317.3605	2491.65	1601.7
875.9359	1319.2405	2487.2	1599.1
876.0801	1321.1197	2457.05	1569.3
876.2243	1322.9982	2395.85	1502.65
876.3685	1324.876	2331.3	1444.35
876.5127	1326.753	2225.65	1338.25
876.6569	1328.6293	2147.15	1256.9
876.801	1330.5048	2052.9	1163.2
876.9452	1332.3796	1971.7	1085.35
877.0893	1334.2537	1937.1	1023.6
877.2335	1336.127	1885.5	996.75
877.3776	1337.9996	1850.35	962.95
877.5217	1339.8714	1820.45	931.9
877.6658	1341.7426	1849.85	914.4
877.8099	1343.6129	1795.05	906.75
877.954	1345.4826	1778.35	891.5
878.0981	1347.3515	1765.65	875.3
878.2422	1349.2196	1746.2	856.55
878.3862	1351.087	1736.05	846.2
878.5303	1352.9537	1729.75	843
878.6743	1354.8197	1740.2	851.55
878.8184	1356.6849	1758.85	870.8
878.9624	1358.5493	1764.55	877
879.1064	1360.4131	1791.25	905.45
879.2504	1362.276	1822.15	935.65
879.3944	1364.1383	1867.35	979.3
879.5384	1365.9998	1886.15	995.7
879.6823	1367.8606	1869.95	981.45
879.8263	1369.7206	1855.1	966.25
879.9702	1371.5799	1857.15	965.85
880.1142	1373.4384	1857.1	968.8
880.2581	1375.2962	1818	929.55
880.402	1377.1533	1762.3	874.45
880.5459	1379.0096	1719.05	832
880.6898	1380.8652	1683	793.8
880.8337	1382.7201	1649	762.15
880.9776	1384.5742	1623.05	734.4
881.1215	1386.4275	1605.3	714.8
881.2653	1388.2802	1588.55	701
881.4092	1390.132	1575.2	688.35
881.553	1391.9832	1564	673.05
881.6968	1393.8336	1558.9	669.55
881.8406	1395.6832	1551.85	661.1
881.9844	1397.5322	1536.8	647.8
882.1282	1399.3803	1539.6	645.15
882.272	1401.2278	1518.3	628.5
882.4158	1403.0745	1515.25	626.3
882.5595	1404.9204	1496.85	609.15
882.7033	1406.7656	1507.55	617.9
882.847	1408.6101	1495.5	607.4
882.9908	1410.4538	1490.9	601.65
883.1345	1412.2968	1498.95	610.7
883.2782	1414.139	1494.2	606.85
883.4219	1415.9805	1508.25	619.95
883.5656	1417.8213	1523.9	627.5
883.7092	1419.6613	1539.5	651.05
883.8529	1421.5006	1564.8	675.05
883.9965	1423.3391	1595.5	706.3
884.1402	1425.1769	1653.15	763.3
884.2838	1427.0139	1733	845.3
884.4274	1428.8502	1816.4	926.25
884.571	1430.6858	1889.35	1001.05
884.7146	1432.5206	1911.75	1025.7
884.8582	1434.3547	1923.45	1034.2
885.0018	1436.188	1880.45	990.3
885.1453	1438.0206	1874.4	984.2
885.2889	1439.8524	1863.05	975.5
885.4324	1441.6835	1860.4	970.15
885.5759	1443.5139	1862.55	972.5
885.7194	1445.3435	1862.2	973.7
885.8629	1447.1724	1865.85	979.65
886.0064	1449.0005	1863.15	975.15
886.1499	1450.8279	1851.25	961.05
886.2933	1452.6545	1854.05	961.75
886.4368	1454.4804	1849.5	961.65
886.5802	1456.3056	1841.35	945.5
886.7237	1458.13	1814.1	927.5
886.8671	1459.9536	1795.25	907.3
887.0105	1461.7766	1757.2	869.35
887.1539	1463.5987	1708.9	821.45
887.2972	1465.4202	1675.95	787.75
887.4406	1467.2409	1640.4	751.55
887.584	1469.0608	1604.3	714.9
887.7273	1470.88	1576.85	687.55
887.8706	1472.6984	1544	656.1
888.0139	1474.5161	1529.75	637.3
888.1572	1476.3331	1501.05	615
888.3005	1478.1493	1490.8	601.75
888.4438	1479.9648	1491	603.85
888.5871	1481.7795	1496.15	607.55
888.7303	1483.5935	1501.05	613.3
888.8736	1485.4067	1497.7	611.4
889.0168	1487.2192	1494.15	607.2
889.16	1489.031	1502.1	612.05
889.3032	1490.842	1487.85	599.5
889.4464	1492.6522	1489.55	601.85
889.5896	1494.4618	1491.8	604.25
889.7327	1496.2705	1484.3	594.7
889.8759	1498.0785	1474.55	584.9
890.019	1499.8858	1472.15	585.85
890.1622	1501.6924	1468.55	582.55
890.3053	1503.4981	1461.1	571.9
890.4484	1505.3032	1455.5	567.7
890.5914	1507.1075	1450.9	560.8
890.7345	1508.911	1443.1	552.55
890.8776	1510.7138	1423.9	534.95
891.0206	1512.5159	1420.75	532.4
891.1637	1514.3172	1418.7	531.1
891.3067	1516.1178	1413.3	525.45
891.4497	1517.9176	1411.5	520.95
891.5927	1519.7166	1401.25	514.25
891.7357	1521.515	1404.35	509.55
891.8786	1523.3126	1390.9	502.5
892.0216	1525.1094	1385.05	496.85
892.1645	1526.9055	1382.4	496
892.3074	1528.7008	1381.55	495.3
892.4503	1530.4954	1379.65	487.05
892.5932	1532.2893	1376.55	487.95
892.7361	1534.0824	1374.85	483.1
892.879	1535.8747	1371.95	483.15
893.0218	1537.6663	1368.8	481
893.1647	1539.4572	1375	485.15
893.3075	1541.2473	1373.85	483.5
893.4503	1543.0367	1370.9	483.15
893.5931	1544.8253	1373.3	480.9
893.7359	1546.6132	1379.5	488.85
893.8787	1548.4003	1389.25	492.2
894.0214	1550.1867	1400	503.4
894.1642	1551.9723	1399.95	507.25
894.3069	1553.7572	1411.25	521.55
894.4496	1555.5414	1429.2	540.75
894.5923	1557.3247	1458.6	572.65
894.735	1559.1074	1495.3	609.4
894.8777	1560.8893	1526.6	642.25
895.0204	1562.6705	1567.5	680.85
895.163	1564.4509	1588.75	702.5
895.3056	1566.2305	1606.25	720.85
895.4482	1568.0094	1612.55	728.15
895.5908	1569.7876	1601.85	716.55
895.7334	1571.565	1598.4	711.05
895.876	1573.3417	1593.6	707.95
896.0186	1575.1176	1605.45	718.2
896.1611	1576.8928	1612.3	726.3
896.3036	1578.6672	1638.65	754.6
896.4461	1580.4409	1661.15	779.4
896.5886	1582.2138	1702.4	812.15
896.7311	1583.986	1741.4	855.5
896.8736	1585.7575	1779.2	894.1
897.0161	1587.5282	1810.7	926.15
897.1585	1589.2981	1832.4	947.65
897.3009	1591.0673	1853.4	967
897.4433	1592.8358	1859.95	974.5
897.5857	1594.6035	1863.15	977.1
897.7281	1596.3704	1850.2	964.75
897.8705	1598.1366	1830.65	946.35
898.0128	1599.9021	1809.85	927
898.1551	1601.6668	1781.35	894.9
898.2975	1603.4308	1765.3	878.3
898.4398	1605.194	1776.25	886.75
898.5821	1606.9564	1791.5	908.2
898.7243	1608.7182	1855.6	969.65
898.8666	1610.4791	1935.85	1053.45
899.0088	1612.2394	2040.6	1156.2
899.1511	1613.9988	2135.8	1254.95
899.2933	1615.7576	2201.65	1317.15
899.4355	1617.5156	2235.45	1343.3
899.5776	1619.2728	2202.65	1318.55
899.7198	1621.0293	2117.9	1233.1
899.862	1622.785	2006.6	1118.1
900.0041	1624.54	1889.2	1003.15
900.1462	1626.2942	1768.25	885.05
900.2883	1628.0477	1669.7	782.9
900.4304	1629.8005	1592.6	703.25
900.5725	1631.5525	1521.2	637.3
900.7145	1633.3037	1473.1	589.75
900.8566	1635.0542	1425.85	544.35
900.9986	1636.804	1400.5	516.3
901.1406	1638.553	1433.45	486.3
901.2826	1640.3013	1357.85	474
901.4245	1642.0488	1336.1	450.55
901.5665	1643.7955	1326	445.9
901.7085	1645.5416	1312.6	427.05
901.8504	1647.2868	1302.6	417.7
901.9923	1649.0313	1291.65	409.2
902.1342	1650.7751	1293.5	405.45
902.2761	1652.5181	1288.8	405.75
902.4179	1654.2604	1284.7	400.7
902.5598	1656.0019	1289.75	408.95
902.7016	1657.7427	1298.5	411.95
902.8434	1659.4828	1319.3	433.7
902.9852	1661.222	1353.65	468.7
903.127	1662.9606	1378.5	493
903.2687	1664.6984	1417.55	534.35
903.4105	1666.4354	1423.8	538.7
903.5522	1668.1717	1396.75	513.25
903.6939	1669.9072	1357.7	473.15
903.8356	1671.642	1312.85	423.25
903.9773	1673.3761	1279.6	393.65
904.119	1675.1094	1249	361.85
904.2606	1676.8419	1229.9	345.7
904.4022	1678.5737	1219.7	335.2
904.5439	1680.3048	1206.75	321.6
904.6855	1682.0351	1196.1	312.6
904.827	1683.7646	1191.4	302.25
904.9686	1685.4934	1192.15	306
905.1101	1687.2215	1182.6	296.9
905.2517	1688.9488	1175.35	289.1
905.3932	1690.6754	1174.6	290.2
905.5347	1692.4012	1173.05	286.65
905.6761	1694.1263	1173.05	289.35
905.8176	1695.8506	1166.45	281.4
905.9591	1697.5742	1164.4	282.6
906.1005	1699.297	1163.4	279.5
906.2419	1701.0191	1157.9	272.75
906.3833	1702.7404	1157.15	272.8
906.5246	1704.461	1152.15	264.15
906.666	1706.1808	1152.5	267.1
906.8073	1707.8999	1150.85	263.95
906.9487	1709.6182	1147	263.8
907.09	1711.3358	1144.25	260.65
907.2313	1713.0527	1141.85	258.35
907.3725	1714.7688	1149.25	260.45
907.5138	1716.4841	1144.6	259.55
907.655	1718.1987	1148.2	258.95
907.7962	1719.9126	1139.15	256.15
907.9374	1721.6257	1138.3	253.4
908.0786	1723.338	1136.65	254.4
908.2198	1725.0496	1138.7	253.5
908.3609	1726.7605	1136.65	251.35
908.502	1728.4706	1129.7	243.95
908.6431	1730.18	1128.15	242.45
908.7842	1731.8886	1130.25	248.1
908.9253	1733.5964	1148.4	244.6
909.0664	1735.3036	1127.95	242.7
909.2074	1737.0099	1129.5	247.1
909.3484	1738.7156	1125.2	242.45
909.4894	1740.4204	1130.5	245.3
909.6304	1742.1246	1128.45	242.55
909.7714	1743.8279	1128.65	245.7
909.9123	1745.5306	1124.45	239.25
910.0532	1747.2325	1118.6	232.25
910.1941	1748.9336	1120.4	236.4
910.335	1750.634	1120.85	234.85
910.4759	1752.3336	1119.75	236.15
910.6168	1754.0325	1123.35	242.7
910.7576	1755.7307	1123	239.5
910.8984	1757.4281	1117.55	234.25
911.0392	1759.1247	1130.8	239.05
911.18	1760.8206	1124.15	236
911.3208	1762.5158	1119.25	230.85
911.4615	1764.2102	1123.6	237.95
911.6022	1765.9039	1119.45	235.8
911.7429	1767.5968	1114.85	232.4
911.8836	1769.289	1117.1	234.75
912.0243	1770.9804	1110.85	226.65
912.1649	1772.6711	1115.3	233
912.3056	1774.361	1113.6	228.3
912.4462	1776.0502	1110.4	225.25
912.5868	1777.7386	1114.1	224.85
912.7274	1779.4263	1111.5	225.8
912.8679	1781.1132	1110.6	226.25
913.0084	1782.7994	1111.25	225.45
913.149	1784.4849	1106.4	223.55
913.2895	1786.1696	1130.25	227.3
913.4299	1787.8535	1109.75	227.75
913.5704	1789.5367	1104.1	222.45
913.7108	1791.2192	1104.9	221.25
913.8513	1792.9009	1124.4	217.75
913.9917	1794.5818	1107.4	220.25
914.132	1796.2621	1107.6	225.6
914.2724	1797.9415	1104.55	219.9
914.4128	1799.6202	1101	218.65
914.5531	1801.2982	1103.55	220.65
914.6934	1802.9755	1100.8	215.95
914.8337	1804.6519	1097.65	213.9
914.9739	1806.3277	1096.8	213.35
915.1142	1808.0027	1095.55	211.7
915.2544	1809.6769	1099.85	216.75
915.3946	1811.3504	1098.85	214.15
915.5348	1813.0231	1096.25	211.7
915.675	1814.6951	1099	213.9
915.8151	1816.3664	1095.3	208.05
915.9553	1818.0369	1097.2	213.45
916.0954	1819.7067	1090.5	207.3
916.2355	1821.3757	1095.95	209.7
916.3755	1823.044	1093.9	210
916.5156	1824.7115	1097.45	215.45
916.6556	1826.3783	1092.95	210.65
916.7956	1828.0443	1093.25	209.8
916.9356	1829.7096	1101.4	216.85
917.0756	1831.3741	1094.6	209.1
917.2155	1833.0379	1085.75	204.6
917.3555	1834.701	1087	202.15
917.4954	1836.3633	1086.45	202.25
917.6353	1838.0248	1087	199.5
917.7751	1839.6856	1088.2	203.25
917.915	1841.3457	1087.15	203
918.0548	1843.005	1089.1	205.65
918.1946	1844.6636	1084.25	199.9
918.3344	1846.3214	1090.6	205.45
918.4742	1847.9785	1084.95	201.25
918.6139	1849.6349	1083.6	199.6
918.7537	1851.2904	1097.85	205.2
918.8934	1852.9453	1082.05	198.05
919.0331	1854.5994	1083.9	195.55
919.1727	1856.2528	1091.5	201.25
919.3124	1857.9054	1080.7	197.3
919.452	1859.5572	1083.4	199.25
919.5916	1861.2083	1078.65	195.25
919.7312	1862.8587	1079.25	194.4
919.8708	1864.5084	1081.6	195.15
920.0103	1866.1572	1080.3	196.1
920.1498	1867.8054	1079.85	194.8
920.2893	1869.4528	1082.15	197
920.4288	1871.0994	1073.1	188.95
920.5683	1872.7453	1075.85	190.1
920.7077	1874.3905	1082.6	192.85
920.8471	1876.0349	1081.1	197.15
920.9865	1877.6786	1078.75	192.65
921.1259	1879.3215	1078.9	193.75
921.2653	1880.9637	1078.95	193.7
921.4046	1882.6051	1075.9	192.7
921.5439	1884.2458	1078.15	192.2
921.6832	1885.8858	1077.2	193.6
921.8225	1887.525	1073.25	186.95
921.9617	1889.1634	1074.55	190
922.101	1890.8011	1070.6	184.95
922.2402	1892.4381	1069.3	183.1
922.3794	1894.0743	1070.25	186.7
922.5185	1895.7098	1074.35	191
922.6577	1897.3446	1068.75	185.55
922.7968	1898.9786	1078.1	190.7
922.9359	1900.6118	1066.85	182.7
923.075	1902.2443	1069.55	183.35
923.214	1903.8761	1068.05	183.8
923.3531	1905.5071	1066.3	180.7
923.4921	1907.1374	1069.65	183.4
923.6311	1908.7669	1067.55	183.7
923.77	1910.3957	1068.3	184.35
923.909	1912.0237	1068.15	184.6
924.0479	1913.651	1071.35	187.15
924.1868	1915.2776	1060.15	176.05
924.3257	1916.9034	1059.5	176.3
924.4646	1918.5285	1063.1	180.65
924.6034	1920.1528	1060.75	177.05
924.7422	1921.7764	1063.4	178.6
924.881	1923.3992	1060.3	177.3
925.0198	1925.0213	1060.65	175.45
925.1586	1926.6427	1062.1	181.3
925.2973	1928.2633	1266.1	166
925.436	1929.8832	1060.7	174.25
925.5747	1931.5023	1059.15	175.4
925.7134	1933.1207	1057.55	173.05
925.852	1934.7383	1060.35	176.8
925.9906	1936.3552	1055.9	173
926.1292	1937.9714	1059.2	175.25
926.2678	1939.5868	1053.5	167.55
926.4064	1941.2015	1054.15	168.95
926.5449	1942.8154	1054.8	168.55
926.6834	1944.4286	1054.55	169.8
926.8219	1946.041	1078.3	170.45
926.9604	1947.6528	1053.7	165.85
927.0988	1949.2637	1051.6	168.8
927.2372	1950.8739	1052.2	168.6
927.3756	1952.4834	1052.45	167.6
927.514	1954.0921	1052.7	168.5
927.6523	1955.7001	1052.05	164.65
927.7907	1957.3074	1051.1	167.6
927.929	1958.9139	1049	168.85
928.0673	1960.5197	1051.2	164.2
928.2055	1962.1247	1050.4	166.95
928.3438	1963.729	1044.75	161.55
928.482	1965.3325	1052.15	164.4
928.6202	1966.9353	1043.4	161.5
928.7584	1968.5374	1045.25	160.85
928.8965	1970.1387	1045.5	163.1
929.0346	1971.7393	1040.9	157.75
929.1727	1973.3392	1045.6	163.25
929.3108	1974.9383	1042.1	158.5
929.4489	1976.5366	1044.3	163.25
929.5869	1978.1342	1046.75	163.8
929.7249	1979.7311	1044.75	160.45
929.8629	1981.3273	1041.65	160.8
930.0009	1982.9227	1041.7	157.7
930.1388	1984.5173	1039.05	158.05
930.2767	1986.1112	1037.6	158.3
930.4146	1987.7044	1038.4	155.9
930.5525	1989.2968	1037.65	154.2
930.6904	1990.8885	1041.85	156
930.8282	1992.4795	1039.3	156.45
930.966	1994.0697	1037.3	157.6
931.1038	1995.6592	1038.65	156.3
931.2415	1997.2479	1039.15	157.9
931.3793	1998.8359	1034.2	154.45
931.517	2000.4232	1033.6	154.1
931.6547	2002.0097	1035.4	156.5
931.7923	2003.5955	1033.05	151.15
931.93	2005.1805	1036.05	154.05
932.0676	2006.7648	1039.45	159.6
932.2052	2008.3484	1037.95	155.2
932.3427	2009.9312	1036.8	155.4
932.4803	2011.5133	1031.7	151.2
932.6178	2013.0946	1031.5	153.25
932.7553	2014.6752	1034.25	155.65
932.8928	2016.2551	1030.2	148.3
933.0302	2017.8342	1032.4	151.55
933.1676	2019.4126	1032.15	151.55
933.305	2020.9902	1030.15	149.95
933.4424	2022.5672	1030.75	148.8
933.5798	2024.1433	1033.3	149.25
933.7171	2025.7188	1028.5	150.3
933.8544	2027.2935	1033.4	152.4
933.9917	2028.8674	1026.95	148.4
934.129	2030.4406	1026.45	147.95
934.2662	2032.0131	1029.7	152.5
934.4034	2033.5849	1030.6	147.05
934.5406	2035.1559	1029.35	150.2
934.6778	2036.7261	1028.6	147.8
934.8149	2038.2957	1031	151.4
934.952	2039.8645	1029.15	147.95
935.0891	2041.4325	1036.3	153.9
935.2262	2042.9998	1027.65	147.8
935.3632	2044.5664	1024.55	141.65
935.5002	2046.1323	1029.4	152.7
935.6372	2047.6974	1026.15	146.3
935.7742	2049.2617	1025.55	147.1
935.9111	2050.8254	1053.15	147.65
936.048	2052.3883	1030.75	150.05
936.1849	2053.9504	1026.7	145.45
936.3218	2055.5118	1030.8	149.45
936.4586	2057.0725	1027.6	143.25
936.5955	2058.6325	1024.8	144.95
936.7323	2060.1917	1023.25	144
936.869	2061.7502	1030.75	147.55
937.0058	2063.3079	1027.6	149.7
937.1425	2064.8649	1025.35	142.25
937.2792	2066.4212	1024.2	145.05
937.4159	2067.9767	1025.45	145
937.5525	2069.5315	1024	144
937.6891	2071.0856	1026.9	147.9
937.8257	2072.6389	1025	144.7
937.9623	2074.1915	1022.25	144.7
938.0989	2075.7433	1027.5	146.2
938.2354	2077.2945	1020.95	143.1
938.3719	2078.8448	1023.55	143.15
938.5084	2080.3945	1025	144.85
938.6448	2081.9434	1022.2	144.4
938.7812	2083.4916	1023.1	141.85
938.9176	2085.039	1021.6	135.1
939.054	2086.5857	1026	140.9
939.1903	2088.1317	1024.95	141.6
939.3267	2089.677	1020.9	136.7
939.463	2091.2215	1021.4	141.9
939.5992	2092.7652	1023.3	138.05
939.7355	2094.3083	1022.1	139.4
939.8717	2095.8506	1020.15	138.95
940.0079	2097.3921	1024.1	145.15
940.1441	2098.933	1021.05	138.6
940.2802	2100.4731	1018.95	138.05
940.4163	2102.0124	1038.6	140.75
940.5524	2103.5511	1022.2	139.95
940.6885	2105.089	1023.55	142.1
940.8245	2106.6261	1022.2	141.4
940.9606	2108.1626	1023.15	141.55
941.0965	2109.6983	1051.15	145.15
941.2325	2111.2332	1020.2	138.5
941.3684	2112.7675	1021.05	138.7
941.5044	2114.301	1023	139.9
941.6403	2115.8337	1024.25	144.45
941.7761	2117.3657	1022.95	140.95
941.912	2118.897	1019.35	138.6
942.0478	2120.4276	1024.3	137.9
942.1835	2121.9575	1019.8	139.6
942.3193	2123.4866	1032.3	136.5
942.455	2125.0149	1015.55	132.35
942.5907	2126.5426	1018.9	137.95
942.7264	2128.0695	1024.3	140.25
942.8621	2129.5956	1014.95	137.55
942.9977	2131.1211	1022.3	139.55
943.1333	2132.6458	1018.4	137.75
943.2689	2134.1698	1013.4	131.2
943.4044	2135.693	1022	137.35
943.54	2137.2155	1021.7	138.55
943.6755	2138.7373	1014.2	132
943.8109	2140.2584	1013.25	133.15
943.9464	2141.7787	1019.3	133.95
944.0818	2143.2983	1012.25	133.9
944.2172	2144.8171	1012.8	135.45
944.3526	2146.3353	1017.85	134.2
944.4879	2147.8527	1014.4	136.35
944.6232	2149.3693	1019.3	136.45
944.7585	2150.8853	1014.9	132.45
944.8938	2152.4005	1013.85	132.6
945.029	2153.9149	1016.9	135.9
945.1642	2155.4287	1014.35	133.2
945.2994	2156.9417	1016.25	135.35
945.4346	2158.454	1017.65	132.25
945.5697	2159.9655	1013.95	133.55
945.7048	2161.4764	1016.95	134.95
945.8399	2162.9865	1017.45	137.5
945.9749	2164.4958	1013	132.6
946.1099	2166.0045	1014.2	131.35
946.2449	2167.5124	1012.4	132.1
946.3799	2169.0195	1013	131.35
946.5148	2170.526	1011.4	130.05
946.6498	2172.0317	1016.1	136.7
946.7846	2173.5367	1011.3	129.85
946.9195	2175.0409	1011.75	130.2
947.0543	2176.5445	1015.75	137.2
947.1891	2178.0473	1008.75	128
947.3239	2179.5494	1014.75	131.45
947.4587	2181.0507	1014.25	131.8
947.5934	2182.5513	1011.55	129.8
947.7281	2184.0512	1011.05	130.95
947.8628	2185.5504	1013.55	135.9
947.9974	2187.0488	1007.95	126.45
948.132	2188.5465	1008.1	128.65
948.2666	2190.0435	1008.8	128.4
948.4012	2191.5397	1009.55	130.95
948.5357	2193.0353	1009.95	130.15
948.6702	2194.5301	1015.95	133.25
948.8047	2196.0241	1011.35	129.7
948.9392	2197.5175	1010	130.05
949.0736	2199.0101	1011.9	127.5
949.208	2200.502	1005	126.5
949.3424	2201.9931	1005.9	125.45
949.4767	2203.4835	1008.3	126.2
949.611	2204.9733	1021.2	125.65
949.7453	2206.4622	1004.8	127.3
949.8796	2207.9505	1004.15	121.95
950.0138	2209.438	1003.55	125.95
950.148	2210.9248	1005.7	124.2
950.2822	2212.4109	1004.7	125.25
950.4164	2213.8962	1006.7	123.5
950.5505	2215.3809	1005.55	121.55
950.6846	2216.8648	1004.05	122.25
950.8186	2218.3479	1010.4	121.6
950.9527	2219.8304	1009	125.7
951.0867	2221.3121	1006.65	120.55
951.2207	2222.7931	1003.9	122.95
951.3546	2224.2733	1001.5	120.6
951.4886	2225.7529	1000.4	118.3
951.6225	2227.2317	1006.65	122.6
951.7563	2228.7098	1001.95	123.3
951.8902	2230.1872	1000.8	119.8
952.024	2231.6638	998.95	119
952.1578	2233.1397	1005.55	118.25
952.2916	2234.6149	1000.35	120.75
952.4253	2236.0894	998.8	116.5
952.559	2237.5632	1009.2	121.05
952.6927	2239.0362	996.35	118
952.8263	2240.5085	998.8	117.2
952.9599	2241.9801	1000.8	121.5
953.0935	2243.4509	996.15	113
953.2271	2244.921	997.55	117.3
953.3606	2246.3904	1000.05	118.6
953.4941	2247.8591	997.25	116.4
953.6276	2249.3271	998.25	118.1
953.7611	2250.7943	997.6	117.95
953.8945	2252.2608	995.25	114.95
954.0279	2253.7266	995.7	113.35
954.1612	2255.1917	991.5	111.6
954.2946	2256.656	999.2	119.05
954.4279	2258.1197	995.7	117.35
954.5612	2259.5826	991.25	107.7
954.6944	2261.0447	995.35	114.75
954.8276	2262.5062	992.8	109.45
954.9608	2263.9669	994.3	109.55
955.094	2265.4269	994	112.2
955.2271	2266.8862	991.15	110.75
955.3602	2268.3448	992.6	111.95
955.4933	2269.8026	987.3	106.3
955.6264	2271.2598	991.5	112.8
955.7594	2272.7162	990.7	113.55
955.8924	2274.1719	990.9	109.4
956.0253	2275.6268	990.05	110
956.1583	2277.0811	988.95	107.2
956.2912	2278.5346	987.6	107.75
956.4241	2279.9874	988.4	109.95
956.5569	2281.4395	985.7	106.2
956.6897	2282.8908	997.75	113.65
956.8225	2284.3414	994.9	110.85
956.9553	2285.7914	989.6	109.75
957.088	2287.2406	991.9	107.75
957.2207	2288.689	988.95	107.7
957.3534	2290.1368	992.85	109.75
957.486	2291.5838	995.4	112.9
957.6186	2293.0302	991.3	109.35
957.7512	2294.4758	986.25	106.2
957.8838	2295.9206	989.85	106.05
958.0163	2297.3648	990.05	109.4
958.1488	2298.8082	985.4	104.7
958.2813	2300.251	989	109.3
958.4137	2301.693	990.15	106.4
958.5461	2303.1343	986.55	105.45
958.6785	2304.5748	983.45	104.2
958.8108	2306.0147	989.05	108.7
958.9432	2307.4538	987.2	105.05
959.0754	2308.8922	988.05	109.65
959.2077	2310.3299	987.05	105.1
959.3399	2311.7669	981.6	101.9
959.4721	2313.2031	985.55	104.6
959.6043	2314.6387	984.2	103.35
959.7365	2316.0735	982.85	100.05
959.8686	2317.5076	985.3	102.95
960.0006	2318.941	987.05	107.1
960.1327	2320.3737	985.4	104.9
960.2647	2321.8056	988.85	104.65
960.3967	2323.2369	987.75	105.9
960.5287	2324.6674	988.35	105.4
960.6606	2326.0972	990.7	107.15
960.7925	2327.5263	991.75	112.1
960.9244	2328.9547	997.95	115.4
961.0562	2330.3823	993.65	113.7
961.1881	2331.8092	990.45	107.25
961.3198	2333.2355	986.7	105.55
961.4516	2334.661	987.35	104.35
961.5833	2336.0858	983.6	101.4
961.715	2337.5098	976.1	93.35
961.8467	2338.9332	984.4	101.75
961.9783	2340.3558	982.3	98.8
962.1099	2341.7778	980.4	99.8
962.2415	2343.199	981.05	96.6
962.373	2344.6195	979.7	99.85
962.5045	2346.0393	977.9	97.5
962.636	2347.4583	979.05	96.85
962.7675	2348.8767	984.45	101.95
962.8989	2350.2943	980	96.3
963.0303	2351.7113	982.2	99
963.1617	2353.1275	980.35	98.7
963.293	2354.543	1002.45	98.75
963.4243	2355.9578	982.6	101.2
963.5556	2357.3718	977.45	97.55
963.6868	2358.7852	979.45	95.65
963.818	2360.1978	976.75	93.9
963.9492	2361.6098	978.7	98.45
964.0803	2363.021	982.35	97.65
964.2114	2364.4315	978.45	96.9
964.3425	2365.8413	978.35	91.25
964.4736	2367.2504	974.6	94.45
964.6046	2368.6587	973.7	91.55
964.7356	2370.0664	976.15	94.2
964.8666	2371.4733	975.1	91.3
964.9975	2372.8795	975.65	94.9
965.1284	2374.285	975.4	93.25
965.2593	2375.6899	971.9	91.25
965.3901	2377.0939	975.75	94.15
965.5209	2378.4973	976.15	96.6
965.6517	2379.9	974.55	93.4
965.7825	2381.3019	975.05	93.8
965.9132	2382.7032	975	93.2
966.0439	2384.1037	973.2	93.4
966.1745	2385.5035	974.55	93.9
966.3051	2386.9027	974.05	92.65
966.4357	2388.3011	975.6	91.65
966.5663	2389.6987	972.35	90.15
966.6968	2391.0957	971.25	89.6
966.8273	2392.492	974.4	93.2
966.9578	2393.8876	971.2	89.15
967.0882	2395.2824	971.55	92.3
967.2186	2396.6765	969	86.45
967.349	2398.07	969.05	88.15
967.4793	2399.4627	972.5	87.5
967.6097	2400.8547	971.95	90.5
967.7399	2402.246	975.35	87.35
967.8702	2403.6366	969.25	85.9
968.0004	2405.0265	968	86
968.1306	2406.4156	974.9	89.35
968.2607	2407.8041	971.7	87.25
968.3909	2409.1918	970.8	88
968.521	2410.5789	971.75	91.2
968.651	2411.9652	972.4	87
968.781	2413.3508	966.75	84.45
968.911	2414.7358	969.4	88.45
969.041	2416.12	966.5	84.95
969.1709	2417.5035	968.5	85.6
969.3008	2418.8863	969.05	86.55
969.4307	2420.2684	968.65	86.75
969.5606	2421.6497	972.45	89.4
969.6904	2423.0304	967.3	85.85
969.8201	2424.4104	964.8	81.65
969.9499	2425.7896	971.75	83.9
970.0796	2427.1682	968.35	89.2
970.2093	2428.546	965.9	83.15
970.3389	2429.9232	965.25	81.45
970.4685	2431.2996	966.2	86.15
970.5981	2432.6753	964.55	82.9
970.7277	2434.0503	967.2	85.3
970.8572	2435.4246	967.3	85.55
970.9867	2436.7982	966.25	82
971.1161	2438.1711	963.55	81.3
971.2456	2439.5433	967.1	82.5
971.375	2440.9148	964.85	82.7
971.5043	2442.2856	962.85	78.65
971.6336	2443.6557	964	82.65
971.7629	2445.025	962.65	80.9
971.8922	2446.3937	964.4	83.1
972.0214	2447.7617	962.3	81.45
972.1506	2449.1289	961.65	78.3
972.2798	2450.4955	964.45	80.1
972.4089	2451.8613	960.95	81.15
972.538	2453.2265	964.95	80.65
972.6671	2454.5909	962.7	81.45
972.7961	2455.9546	961.9	81.2
972.9251	2457.3177	960.65	79.85
973.0541	2458.68	959.55	74.6
973.1831	2460.0416	959.65	78.3
973.312	2461.4025	959.55	74.9
973.4408	2462.7627	970.65	79.25
973.5697	2464.1222	956.45	75.7
973.6985	2465.4811	961.95	80.5
973.8273	2466.8392	962.1	78.65
973.956	2468.1966	964.9	79.5
974.0847	2469.5533	962.1	78.3
974.2134	2470.9093	959.75	77.7
974.3421	2472.2645	963.2	80.15
974.4707	2473.6191	959.1	77
974.5993	2474.973	961.05	78.6
974.7278	2476.3262	957.65	74.15
974.8563	2477.6787	959.4	77.7
974.9848	2479.0305	956.85	75.05
975.1132	2480.3816	961	77.65
975.2417	2481.7319	960.7	79.1
975.37	2483.0816	958.35	74.6
975.4984	2484.4306	958.15	76.9
975.6267	2485.7789	957.5	75.95
975.755	2487.1264	959	74.5
975.8833	2488.4733	957.65	77.05
976.0115	2489.8195	964.85	76.4
976.1397	2491.165	958.55	74.5
976.2678	2492.5097	958.8	77.45
976.3959	2493.8538	957.8	76.8
976.524	2495.1972	957.45	73.35
976.6521	2496.5398	957.2	74.1
976.7801	2497.8818	957.8	73.1
976.9081	2499.2231	959.6	76.2
977.036	2500.5637	958	75.2
977.164	2501.9035	958.45	75.6
977.2918	2503.2427	958.3	73.3
977.4197	2504.5812	957.5	75.3
977.5475	2505.919	959.1	74.15
977.6753	2507.256	952.95	70.6
977.8031	2508.5924	954	72.35
977.9308	2509.9281	961	74.35
978.0585	2511.2631	953.6	72.8
978.1861	2512.5974	953.15	72
978.3137	2513.9309	956.15	73
978.4413	2515.2638	980.4	72.7
978.5689	2516.596	952.3	72.05
978.6964	2517.9275	955.55	72.1
978.8239	2519.2583	954.95	73.1
978.9513	2520.5884	952.3	69.9
979.0788	2521.9178	951.3	68.25
979.2062	2523.2465	949.4	66.85
979.3335	2524.5745	951	70.4
979.4608	2525.9018	951.55	71.7
979.5881	2527.2284	951.1	70.7
979.7154	2528.5543	950.3	67.75
979.8426	2529.8796	949.9	69.2
979.9698	2531.2041	950.65	67.8
980.0969	2532.5279	949.65	68.9
980.224	2533.851	950.8	70.55
980.3511	2535.1735	950.5	69.15
980.4781	2536.4952	950.55	68.55
980.6052	2537.8163	948.9	65.6
980.7321	2539.1366	948.7	67.95
980.8591	2540.4562	950.7	67
980.986	2541.7752	948.2	65.4
981.1129	2543.0935	948.45	64.9
981.2397	2544.411	951	68.25
981.3665	2545.7279	947.35	67.15
981.4933	2547.0441	946.8	64.35
981.62	2548.3596	951.15	67.85
981.7467	2549.6744	947.6	67.25
981.8734	2550.9885	957.4	66.95
982.0001	2552.3019	945.95	64.8
982.1267	2553.6146	949.5	65.3
982.2532	2554.9266	947.5	65.65
982.3798	2556.2379	952.65	70.3
982.5063	2557.5485	944.9	65.65
982.6327	2558.8585	953.8	61.95
982.7592	2560.1677	951.55	66.45
982.8856	2561.4762	948.1	66.5
983.0119	2562.7841	950.95	67.55
983.1383	2564.0913	945.1	66.45
983.2646	2565.3977	947	66.05
983.3908	2566.7035	945.1	62.95
983.517	2568.0086	947.15	62.35
983.6432	2569.313	948.75	67.2
983.7694	2570.6167	950.9	63.65
983.8955	2571.9197	946.25	62.25
984.0216	2573.222	949.85	62.25
984.1476	2574.5236	947.15	63.05
984.2737	2575.8246	950.95	67.9
984.3996	2577.1248	949.2	63.75
984.5256	2578.4244	946.45	63.25
984.6515	2579.7232	946.95	67.65
984.7774	2581.0214	976.8	64.15
984.9032	2582.3189	948.1	67.35
985.029	2583.6157	951.95	65.7
985.1548	2584.9118	946.5	65.1
985.2806	2586.2072	945	62.75
985.4063	2587.5019	948.25	67.95
985.5319	2588.7959	947.1	63.95
985.6576	2590.0893	946.7	64.95
985.7832	2591.3819	945.45	64.4
985.9087	2592.6739	947.55	67.3
986.0343	2593.9652	949.35	66.6
986.1597	2595.2557	945.8	65.05
986.2852	2596.5456	947.65	62.45
986.4106	2597.8348	943.5	61.35
986.536	2599.1234	946.05	64.7
986.6614	2600.4112	947.8	65.25
986.7867	2601.6983	948.75	65.1
986.912	2602.9848	946.4	64.15
987.0372	2604.2705	951.2	63.55
987.1624	2605.5556	946.85	65.55
987.2876	2606.84	943.7	63.4
987.4128	2608.1237	943.95	61.9
987.5379	2609.4067	945.05	62.9
987.6629	2610.689	954.2	65.5
987.788	2611.9707	950.5	66.3
987.913	2613.2516	947.05	61.3
988.0379	2614.5319	941.45	61.25
988.1629	2615.8115	944.95	61.1
988.2878	2617.0903	944.75	60.9
988.4126	2618.3685	941.3	59.8
988.5375	2619.6461	944.05	63.5
988.6622	2620.9229	941.15	61.75
988.787	2622.199	943.5	60.45
988.9117	2623.4745	942.35	60.5
989.0364	2624.7493	943.3	61
989.161	2626.0234	941.65	62.35
989.2857	2627.2968	942.55	61.6
989.4102	2628.5695	942.1	60.9
989.5348	2629.8415	939.8	59.2
989.6593	2631.1128	944.25	61.55
989.7837	2632.3835	939.7	58.3
989.9082	2633.6535	937.8	57.85
990.0326	2634.9228	942.05	61.55
990.1569	2636.1914	939.85	61.6
990.2812	2637.4593	940	57.85
990.4055	2638.7265	940.65	59.65
990.5298	2639.9931	937.75	56.4
990.654	2641.259	939	58.1
990.7782	2642.5242	939.95	58.35
990.9023	2643.7887	940.3	58.6
991.0264	2645.0525	936.95	54.7
991.1505	2646.3156	942.4	60.45
991.2745	2647.5781	936.25	56.9
991.3985	2648.8398	934.85	55.85
991.5225	2650.1009	976.15	57.9
991.6464	2651.3613	937.1	54.4
991.7703	2652.6211	938.85	58.1
991.8942	2653.8801	936.3	57.4
992.018	2655.1385	938.4	52.95
992.1418	2656.3961	936.4	55.7
992.2655	2657.6531	937.5	56.2
992.3892	2658.9094	937.2	53.45
992.5129	2660.1651	935.9	56.9
992.6366	2661.42	933.3	51.6
992.7602	2662.6743	936.9	54.5
992.8837	2663.9279	938.45	58.05
993.0073	2665.1808	936.95	56.4
993.1307	2666.433	937.55	52.5
993.2542	2667.6846	936.55	55.55
993.3776	2668.9354	939.4	52.5
993.501	2670.1856	935.65	53.9
993.6244	2671.4351	935.7	55.5
993.7477	2672.6839	937.6	54.9
993.8709	2673.9321	936.75	55.2
993.9942	2675.1795	935.5	54.75
994.1174	2676.4263	936.4	56.95
994.2405	2677.6724	935.05	53.6
994.3637	2678.9179	936.95	56.45
994.4868	2680.1626	937.25	56.05
994.6098	2681.4067	937.2	56.3
994.7328	2682.6501	938.3	56.7
994.8558	2683.8928	939.5	60.1
994.9788	2685.1348	935.2	53.3
995.1017	2686.3761	934.75	53.95
995.2245	2687.6168	932.8	51.55
995.3474	2688.8568	933.4	49.45
995.4702	2690.0961	931.55	52.3
995.5929	2691.3348	931.8	48.55
995.7156	2692.5727	935.35	56
995.8383	2693.81	933.1	52.9
995.961	2695.0466	932.3	54.35
996.0836	2696.2826	934.4	51.65
996.2062	2697.5178	934.45	50.05
996.3287	2698.7524	930.3	49.65
996.4512	2699.9863	936.9	54.15
996.5737	2701.2195	933.15	53.2
996.6961	2702.452	933.15	50.85
996.8185	2703.6839	934.75	51.05
996.9408	2704.9151	934.4	54
997.0631	2706.1456	934	52.25
997.1854	2707.3755	936.55	56.2
997.3077	2708.6046	937.2	56.9
997.4299	2709.8331	935.8	54.25
997.552	2711.0609	932.6	52.25
997.6742	2712.2881	935.3	54.4
997.7963	2713.5145	936.9	54.85
997.9183	2714.7403	938.45	58.2
998.0403	2715.9654	937.75	55.5
998.1623	2717.1899	954.1	58.75
998.2842	2718.4136	938.15	57.1
998.4062	2719.6367	938.85	57.25
998.528	2720.8591	948.45	59.05
998.6498	2722.0809	940.8	58.85
998.7716	2723.3019	948.45	63.55
998.8934	2724.5223	942.4	59.8
999.0151	2725.7421	943.4	62
999.1368	2726.9611	944.3	62.35
999.2584	2728.1795	948.15	62.75
999.38	2729.3972	942	61.8
999.5016	2730.6142	947.4	59.45
999.6231	2731.8306	937.95	56.25
999.7446	2733.0462	939.3	58
999.8661	2734.2612	942.4	57.9
999.9875	2735.4756	938.05	56.75
1000.1089	2736.6892	935.6	55.2
1000.2302	2737.9022	929.35	49.2
1000.3515	2739.1145	930.6	49.65
1000.4728	2740.3262	939.05	49.4
1000.594	2741.5372	932.85	53.15
1000.7152	2742.7475	930.8	50.65
1000.8363	2743.9571	932.75	50.55
1000.9575	2745.1661	935.2	50.95
1001.0785	2746.3744	930.6	50.65
1001.1996	2747.582	925.3	43.5
1001.3206	2748.7889	929.9	48.85
1001.4415	2749.9952	926.2	45.5
1001.5625	2751.2008	926	44.7
1001.6833	2752.4057	928.45	47.55
1001.8042	2753.61	926.9	46.05
1001.925	2754.8136	928.5	45.5
1002.0458	2756.0165	924.5	44.6
1002.1665	2757.2188	921.95	41.15
1002.2872	2758.4204	923.55	44.9
1002.4078	2759.6213	926.75	45
1002.5285	2760.8215	928.5	46.15
1002.649	2762.0211	929	44.75
1002.7696	2763.22	925.45	41.5
1002.8901	2764.4182	925.45	45.35
1003.0106	2765.6158	923.8	41.1
1003.131	2766.8127	923.3	43.8
1003.2514	2768.009	921.9	43.05
1003.3717	2769.2045	925.85	45
1003.492	2770.3994	925.75	43.9
1003.6123	2771.5936	922.65	42.7
1003.7325	2772.7872	921.9	39.25
1003.8527	2773.9801	925.8	44.5
1003.9729	2775.1723	939.05	42.95
1004.093	2776.3639	922.85	44.95
1004.2131	2777.5548	928.25	46.7
1004.3331	2778.745	922.25	40.55
1004.4531	2779.9346	922.35	42.8
1004.5731	2781.1235	923	43.15
1004.693	2782.3117	919.5	40.6
1004.8129	2783.4992	918.95	38.3
1004.9328	2784.6861	922.05	43.05
1005.0526	2785.8723	925.2	43.35
1005.1723	2787.0579	921.55	39.7
1005.2921	2788.2428	920.35	38.55
1005.4118	2789.427	919.8	38.95
1005.5314	2790.6106	922	44.15
1005.651	2791.7935	920.3	38.35
1005.7706	2792.9757	920.65	42.1
1005.8902	2794.1573	924.95	41.55
1006.0097	2795.3382	922.45	43.3
1006.1291	2796.5184	920.5	40.35
1006.2485	2797.698	923.2	41.3
1006.3679	2798.8769	922.8	43.05
1006.4873	2800.0551	922.85	42.65
1006.6066	2801.2327	926.65	45.05
1006.7258	2802.4096	924.1	45.6
1006.8451	2803.5859	922.6	41.25
1006.9642	2804.7615	925.85	44.15
1007.0834	2805.9364	923.3	43.45
1007.2025	2807.1106	924.75	45.05
1007.3216	2808.2842	925.35	44.35
1007.4406	2809.4572	927.95	48.6
1007.5596	2810.6294	929.1	48.25
1007.6785	2811.801	929.3	49.75
1007.7975	2812.972	930.25	51.4
1007.9163	2814.1423	935.45	55.05
1008.0352	2815.3119	937.7	57.1
1008.154	2816.4808	933.7	53.6
1008.2727	2817.6491	941.15	59
1008.3914	2818.8167	945.3	66.4
1008.5101	2819.9837	951.65	65.85
1008.6288	2821.15	955.75	75.8
1008.7474	2822.3157	954.3	74.8
1008.8659	2823.4807	963.45	84.15
1008.9844	2824.645	972.1	90.15
1009.1029	2825.8086	977.4	99.6
1009.2214	2826.9716	985.4	108.55
1009.3398	2828.134	990.7	112.9
1009.4581	2829.2957	1002.05	123.5
1009.5764	2830.4567	1007.5	126.9
1009.6947	2831.617	1014	135.85
1009.813	2832.7767	1013.35	132
1009.9312	2833.9358	1017.3	138.3
1010.0493	2835.0941	1016	133.45
1010.1675	2836.2519	1010.2	133.7
1010.2855	2837.4089	1007.2	127
1010.4036	2838.5653	1004.8	125
1010.5216	2839.7211	997.9	118.9
1010.6396	2840.8761	997.2	116.15
1010.7575	2842.0306	993.6	115.9
1010.8754	2843.1843	995	115
1010.9932	2844.3374	992.85	112.7
1011.111	2845.4899	999.25	116.85
1011.2288	2846.6417	998.8	119.85
1011.3465	2847.7928	1001.65	120.05
1011.4642	2848.9433	1002.8	123.15
1011.5818	2850.0931	1005.45	127.65
1011.6995	2851.2422	1004.9	124.7
1011.817	2852.3907	1009.5	132.1
1011.9345	2853.5385	1006.8	126.25
1012.052	2854.6857	1039.25	133.8
1012.1695	2855.8323	1010.75	131.2
1012.2869	2856.9781	1015.85	136.9
1012.4042	2858.1233	1016.15	137.8
1012.5216	2859.2679	1020.35	142.2
1012.6389	2860.4118	1023.35	142.75
1012.7561	2861.555	1031.75	148.5
1012.8733	2862.6976	1033.9	152.95
1012.9905	2863.8395	1031.4	151.8
1013.1076	2864.9808	1028.05	148.2
1013.2247	2866.1214	1031.5	153.65
1013.3417	2867.2614	1032.45	152.7
1013.4587	2868.4007	1038.75	157.15
1013.5757	2869.5393	1041.2	160.8
1013.6926	2870.6773	1044.6	161.7
1013.8095	2871.8146	1047.45	164.9
1013.9263	2872.9513	1050.75	167.9
1014.0431	2874.0874	1043.15	162
1014.1599	2875.2227	1053.6	173.1
1014.2766	2876.3574	1055.4	175.15
1014.3933	2877.4915	1055.15	174.45
1014.51	2878.6249	1056.4	178.1
1014.6266	2879.7577	1061.55	181.25
1014.7431	2880.8898	1072.25	180.85
1014.8596	2882.0212	1059.95	182.2
1014.9761	2883.152	1061.1	181.4
1015.0925	2884.2821	1060.9	183.1
1015.2089	2885.4116	1064.85	186.7
1015.3253	2886.5405	1066.5	186.85
1015.4416	2887.6686	1071.3	187.55
1015.5579	2888.7962	1071.25	192.5
1015.6741	2889.923	1067.95	188.5
1015.7903	2891.0493	1069.45	191.75
1015.9065	2892.1748	1067.15	187.15
1016.0226	2893.2997	1070.55	190.75
1016.1387	2894.424	1070.85	193.2
1016.2547	2895.5476	1069.6	189.6
1016.3707	2896.6706	1070.5	192.05
1016.4866	2897.7929	1071.7	190.25
1016.6025	2898.9145	1075.55	196.55
1016.7184	2900.0355	1068.45	188.35
1016.8342	2901.1559	1073.2	192.45
1016.95	2902.2756	1073.9	190.15
1017.0658	2903.3946	1066.35	186.45
1017.1815	2904.513	1070.2	189.05
1017.2971	2905.6308	1066.6	187.3
1017.4127	2906.7479	1067.55	187.1
1017.5283	2907.8643	1069.15	187.95
1017.6439	2908.9801	1067.25	189.55
1017.7594	2910.0953	1068.35	187.45
1017.8748	2911.2098	1065.7	184.6
1017.9902	2912.3236	1076.5	188.65
1018.1056	2913.4368	1066.15	184.1
1018.2209	2914.5494	1066.95	187.35
1018.3362	2915.6613	1069.1	183.8
1018.4515	2916.7725	1067.05	183.45
1018.5667	2917.8831	1058.55	178.75
1018.6819	2918.9931	1055.05	173.5
1018.797	2920.1024	1054	172.7
1018.9121	2921.211	1046	168.8
1019.0271	2922.319	1045.9	166.75
1019.1421	2923.4264	1045.75	168.75
1019.2571	2924.5331	1043.4	165
1019.372	2925.6391	1046.05	165.55
1019.4869	2926.7445	1042.9	165.55
1019.6017	2927.8493	1044.15	163.35
1019.7165	2928.9534	1045.2	165.25
1019.8313	2930.0569	1049.1	168.3
1019.946	2931.1597	1050.85	169.5
1020.0606	2932.2619	1053	173.2
1020.1753	2933.3634	1054.9	175.7
1020.2899	2934.4643	1057.5	169.2
1020.4044	2935.5645	1057	172.2
1020.5189	2936.6641	1053.85	170.65
1020.6334	2937.763	1051.9	173
1020.7478	2938.8613	1058.75	179.75
1020.8622	2939.959	1056.2	168.3
1020.9765	2941.056	1047.45	171.25
1021.0908	2942.1523	1042.4	160.95
1021.2051	2943.248	1031.35	152.3
1021.3193	2944.3431	1025.65	147.3
1021.4334	2945.4375	1020.9	140.2
1021.5476	2946.5313	1011.8	134.35
1021.6617	2947.6244	1008.2	129.8
1021.7757	2948.7169	1001.75	120.45
1021.8897	2949.8087	992.3	113.7
1022.0037	2950.8999	988.55	108.45
1022.1176	2951.9904	980.35	102.55
1022.2315	2953.0803	976.9	96.3
1022.3453	2954.1696	973.9	95.3
1022.4591	2955.2582	971.35	93.2
1022.5728	2956.3462	966.05	87.75
1022.6865	2957.4335	965.95	86
1022.8002	2958.5202	968.5	89
1022.9138	2959.6062	964.2	85.45
1023.0274	2960.6916	967.25	86.9
1023.141	2961.7764	964.95	84.25
1023.2545	2962.8605	965.9	87.1
1023.3679	2963.9439	963.7	85.95
1023.4813	2965.0267	963.4	84.3
1023.5947	2966.1089	983.65	85.55
1023.708	2967.1905	963.9	86.35
1023.8213	2968.2714	962	83.65
1023.9346	2969.3516	957.95	80.35
1024.0478	2970.4312	969.85	82.5
1024.1609	2971.5102	960.25	80.95
1024.274	2972.5885	961.2	82.75
1024.3871	2973.6662	964.25	80
1024.5002	2974.7432	959.2	81.4
1024.6132	2975.8196	963.35	83.9
1024.7261	2976.8954	963.4	84.9
1024.839	2977.9705	961.15	83.15
1024.9519	2979.045	959.85	82
1025.0647	2980.1188	963.1	86.3
1025.1775	2981.192	961.1	82.3
1025.2902	2982.2645	961.1	81.9
1025.4029	2983.3364	960.45	79.8
1025.5156	2984.4077	955.4	77.3
1025.6282	2985.4783	958.25	73.8
1025.7407	2986.5483	950.1	71.6
1025.8532	2987.6177	948.2	69.7
1025.9657	2988.6864	942.75	61.85
1026.0782	2989.7545	943.85	64.3
1026.1906	2990.8219	941.05	61.65
1026.3029	2991.8887	939.35	59.6
1026.4152	2992.9548	938.2	61.35
1026.5275	2994.0204	934.95	54.95
1026.6397	2995.0852	928.5	49.55
1026.7519	2996.1495	930.65	50.7
1026.864	2997.2131	926.75	48.3
1026.9761	2998.276	924.65	46.55
1027.0882	2999.3383	922.45	43.95
1027.2002	3000.4	919.35	39.15
1027.3122	3001.4611	917.95	40.4
1027.4241	3002.5215	914.45	33.1
1027.536	3003.5812	912.8	34.6
1027.6478	3004.6404	915.1	36.6
1027.7596	3005.6989	914.65	33.55
1027.8714	3006.7567	911.65	31.25
1027.9831	3007.8139	943.75	34.9
1028.0947	3008.8705	914.6	35.25
1028.2064	3009.9264	913.1	32.35
1028.3179	3010.9818	909.75	31.5
1028.4295	3012.0364	908.85	30.5
1028.541	3013.0905	903.8	25.75
1028.6524	3014.1439	907	27.4
1028.7638	3015.1966	907.6	30.1
1028.8752	3016.2487	909.5	29.8
1028.9865	3017.3002	912.85	29.55
1029.0978	3018.3511	903.15	25.7
1029.209	3019.4013	903.85	24.05
1029.3202	3020.4509	904.8	28.3
1029.4314	3021.4998	905.95	25.05
1029.5425	3022.5481	904.85	27.05
1029.6535	3023.5958	905.8	26.65
1029.7645	3024.6428	907.4	28.15
1029.8755	3025.6892	904.1	24.9
1029.9864	3026.735	902.65	23.1
1030.0973	3027.7802	904.45	25.6
1030.2082	3028.8247	903.55	23.85
1030.319	3029.8685	903.15	25.75
1030.4297	3030.9118	905.9	24.9
1030.5404	3031.9544	903.6	25.6
1030.6511	3032.9963	903	21.85
1030.7617	3034.0376	902.8	26.45
1030.8723	3035.0783	908	26.5
1030.9829	3036.1184	903.8	26
1031.0934	3037.1578	906.15	28.05
1031.2038	3038.1966	905.4	22.25
1031.3142	3039.2348	903.75	27.55
1031.4246	3040.2723	911.75	26.4
1031.5349	3041.3092	903.15	27.75
1031.6452	3042.3455	903.65	24.75
1031.7554	3043.3811	907.8	26.4
1031.8656	3044.4161	905.8	28.05
1031.9758	3045.4505	905.05	27.3
1032.0859	3046.4842	905.8	26.35
1032.1959	3047.5173	903.95	27.8
1032.3059	3048.5498	907.75	29.3
1032.4159	3049.5816	906.25	26.1
1032.5258	3050.6128	905.65	24.1
1032.6357	3051.6434	907.1	27
1032.7455	3052.6734	905	24.9
1032.8553	3053.7027	903.8	24.6
1032.9651	3054.7314	907.6	30.35
1033.0748	3055.7594	903.85	26.35
1033.1845	3056.7868	905.15	25.35
1033.2941	3057.8136	904.05	25.6
1033.4037	3058.8398	904.4	24.7
1033.5132	3059.8653	906.35	28.5
1033.6227	3060.8902	905.75	26.75
1033.7321	3061.9145	904.55	26.4
1033.8415	3062.9381	907.7	29.6
1033.9509	3063.9612	921.95	28
1034.0602	3064.9835	907.1	28.1
1034.1694	3066.0053	910.35	31.95
1034.2787	3067.0264	907.05	28.1
1034.3878	3068.0469	908.3	28.15
1034.497	3069.0668	910.95	29.05
1034.6061	3070.086	906.25	29
1034.7151	3071.1046	905.1	26.4
1034.8241	3072.1226	909.85	31.7
1034.9331	3073.1399	906.15	28.95
1035.042	3074.1567	904.3	26.75
1035.1508	3075.1727	903.7	24.45
1035.2597	3076.1882	904	27.1
1035.3684	3077.203	905.5	26.4
1035.4772	3078.2173	904.6	26.2
1035.5859	3079.2308	903.9	20.35
1035.6945	3080.2438	903.8	22.7
1035.8031	3081.2561	901.05	21.6
1035.9117	3082.2678	899.2	21.2
1036.0202	3083.2789	898.35	20.65
1036.1286	3084.2893	899.1	20.8
1036.2371	3085.2991	899.85	20.8
1036.3454	3086.3083	905.3	24.35
1036.4538	3087.3169	900.95	23.85
1036.562	3088.3248	900	20.8
1036.6703	3089.3321	899.8	19.25
1036.7785	3090.3388	895.15	18.6
1036.8866	3091.3449	896.65	19.05
1036.9948	3092.3503	899.55	18.75
1037.1028	3093.3551	896.85	20.35
1037.2108	3094.3593	895.4	18.3
1037.3188	3095.3629	894.95	15.25
1037.4267	3096.3658	900.2	21.05
1037.5346	3097.3681	895.9	17.65
1037.6425	3098.3698	899.1	19.1
1037.7503	3099.3708	896.45	17.55
1037.858	3100.3713	894.6	15.9
1037.9657	3101.3711	897.45	18.65
1038.0734	3102.3702	1031.5	17.15
1038.181	3103.3688	897.25	18.25
1038.2886	3104.3667	893.35	14.4
1038.3961	3105.364	896.2	20
1038.5036	3106.3607	894.95	15.2
1038.611	3107.3568	895.85	14.9
1038.7184	3108.3522	893.55	16.95
1038.8257	3109.347	897.75	18.35
1038.933	3110.3412	898.6	15.55
1039.0403	3111.3348	894.95	18.5
1039.1475	3112.3277	893.05	13.55
1039.2547	3113.32	891.1	13.35
1039.3618	3114.3117	893.05	11.85
1039.4689	3115.3028	892.95	16.65
1039.5759	3116.2932	895.4	13.25
1039.6829	3117.2831	898.35	15.35
1039.7898	3118.2723	893.05	15.65
1039.8967	3119.2608	891.15	12.65
1040.0035	3120.2488	891.7	12.75
1040.1103	3121.2361	892.1	11.75
1040.2171	3122.2229	891.95	13.25
1040.3238	3123.209	891.9	12.85
1040.4305	3124.1944	889.1	11.55
1040.5371	3125.1793	894.75	14.95
1040.6437	3126.1635	891.9	14.9
1040.7502	3127.1471	892.05	16
1040.8567	3128.1301	889.65	12.95
1040.9631	3129.1125	889.3	11.15
1041.0695	3130.0942	893.2	13.75
1041.1759	3131.0753	897.75	11.7
1041.2822	3132.0558	893.15	14.05
1041.3884	3133.0357	891.65	11.4
1041.4946	3134.015	890.95	11.75
1041.6008	3134.9936	889.9	9.15
1041.7069	3135.9716	909.6	11.85
1041.813	3136.949	889.2	13.9
1041.919	3137.9258	907.35	10.65
1042.025	3138.902	894.6	10.95
1042.1309	3139.8775	889.95	11.75
1042.2368	3140.8524	888.15	9.3
1042.3427	3141.8267	891.7	9.9
1042.4485	3142.8004	887.1	8.55
1042.5542	3143.7735	895.05	11.95
1042.6599	3144.7459	891.15	11.25
1042.7656	3145.7178	888.85	11.25
1042.8712	3146.689	888.15	11
1042.9768	3147.6596	893.75	15.5
1043.0823	3148.6295	889.4	9.9
1043.1878	3149.5989	889.65	10.05
1043.2932	3150.5676	888.25	8.2
1043.3986	3151.5357	888.75	10.7
1043.5039	3152.5032	889.5	12.65
1043.6092	3153.4701	887.3	10.55
1043.7145	3154.4364	893.35	12.05
1043.8197	3155.402	886.7	11.8
1043.9248	3156.367	888.6	8.85
1044.03	3157.3315	928.8	9.1
1044.135	3158.2952	888.05	8.7
1044.24	3159.2584	888.55	9.45
1044.345	3160.221	887.4	8.7
1044.4499	3161.1829	889.15	9.65
1044.5548	3162.1442	886.35	7.9
1044.6596	3163.105	889.35	12.6
1044.7644	3164.065	887.8	7.8
1044.8692	3165.0245	890.15	8.2
1044.9739	3165.9834	887.1	11.5
1045.0785	3166.9416	888.4	11.15
1045.1831	3167.8993	885.7	9.5
1045.2877	3168.8563	889.65	8.9
1045.3922	3169.8127	886.4	9.8
1045.4966	3170.7684	886.75	10
1045.6011	3171.7236	887.95	9.7
1045.7054	3172.6782	888.3	10.1
1045.8098	3173.6321	888.05	8.95
1045.914	3174.5854	890.25	7.6
1046.0183	3175.5381	885.15	7.1
1046.1224	3176.4902	886.95	8.8
1046.2266	3177.4417	886.55	9.25
1046.3307	3178.3926	887.5	9.3
1046.4347	3179.3428	885.05	8.55
1046.5387	3180.2924	885.35	6.5
1046.6427	3181.2415	887.9	8.95
1046.7466	3182.1899	889.15	10.7
1046.8504	3183.1377	885.65	5.6
1046.9542	3184.0848	888.25	7.15
1047.058	3185.0314	887.85	8.6
1047.1617	3185.9773	886.6	8.15
1047.2654	3186.9227	886.65	6.35
1047.369	3187.8674	885.7	7.45
1047.4726	3188.8115	890.65	10.45
1047.5761	3189.755	885.6	9.05
1047.6796	3190.6979	887.65	9.7
1047.783	3191.6402	884.35	6.55
1047.8864	3192.5818	885.2	8.65
1047.9898	3193.5229	911.5	8.65
1048.0931	3194.4633	886.85	8.95
1048.1963	3195.4031	886.85	7.05
1048.2995	3196.3423	885.1	4.75
1048.4027	3197.2809	885.55	5.8
1048.5058	3198.2189	886.5	8.4
1048.6089	3199.1563	892.25	8.7
1048.7119	3200.0931	885.75	8.8
1048.8148	3201.0292	885.15	6.7
1048.9178	3201.9648	883.65	5.5
1049.0206	3202.8997	887	4.5
1049.1235	3203.834	885.8	8.1
1049.2262	3204.7677	884.05	7.25
1049.329	3205.7008	886.9	6.3
1049.4317	3206.6333	884.75	7.45
1049.5343	3207.5652	887.7	8.05
1049.6369	3208.4964	886.25	8.6
1049.7394	3209.4271	884.7	7.6
1049.8419	3210.3571	883.8	5.6
1049.9444	3211.2865	886.1	9.4
1050.0468	3212.2154	886.7	7.25
1050.1491	3213.1436	888.2	7.55
1050.2514	3214.0712	890.8	6.05
1050.3537	3214.9982	885.3	7.35
1050.4559	3215.9246	884.6	7.45
1050.5581	3216.8503	882.1	6
1050.6602	3217.7755	886	6.95
1050.7623	3218.7001	885.2	8.15
1050.8643	3219.624	885.25	6.2
1050.9663	3220.5473	884.25	6.35
1051.0682	3221.4701	886.2	7.75
1051.1701	3222.3922	885.7	6.95
1051.2719	3223.3137	883.45	5.6
1051.3737	3224.2346	885.05	7.8
1051.4754	3225.1549	884.45	6.2
1051.5771	3226.0746	884.25	6.1
1051.6788	3226.9937	884.45	5.65
1051.7804	3227.9121	883.05	4.75
1051.8819	3228.83	882.9	6.55
1051.9834	3229.7473	881.9	5.1
1052.0849	3230.6639	883.05	4.9
1052.1863	3231.5799	883.55	5.2
1052.2876	3232.4954	885.6	6.85
1052.3889	3233.4102	883.3	5.2
1052.4902	3234.3244	885.7	6.15
1052.5914	3235.238	882.4	4.2
1052.6926	3236.151	906.45	4.75
1052.7937	3237.0634	883.6	6.3
1052.8948	3237.9752	884.55	6.65
1052.9958	3238.8864	885.05	6
1053.0968	3239.797	882.8	5.85
1053.1977	3240.7069	884.4	6.3
1053.2986	3241.6163	885	4.4
1053.3994	3242.5251	883.35	7.1
1053.5002	3243.4332	882.35	5.25
1053.6009	3244.3408	886.2	6.3
1053.7016	3245.2477	882.05	4.05
1053.8022	3246.154	884.6	5.3
1053.9028	3247.0598	884.05	5.3
1054.0034	3247.9649	884.9	9.6
1054.1039	3248.8694	883.75	6.65
1054.2043	3249.7733	884.15	7.1
1054.3047	3250.6766	882.95	3.45
1054.4051	3251.5793	884.05	4.35
1054.5054	3252.4814	881.85	3.25
1054.6056	3253.3829	884.1	4.5
1054.7058	3254.2838	882.75	6.35
1054.806	3255.1841	882.7	6.55
1054.9061	3256.0838	882.3	4.65
1055.0061	3256.9829	882.75	6.8
1055.1062	3257.8814	882.65	0.55
1055.2061	3258.7792	884.25	5.25
1055.306	3259.6765	882.35	3.8
1055.4059	3260.5731	882.15	3.9
1055.5057	3261.4692	882.05	3.35
1055.6055	3262.3647	881.25	3
1055.7052	3263.2595	882.35	6.2
1055.8049	3264.1538	883.25	5.8
1055.9045	3265.0474	883.75	4.15
1056.0041	3265.9404	881	2.65
1056.1036	3266.8329	882.85	5.15
1056.2031	3267.7247	893.15	6.05
1056.3025	3268.616	880.8	4.55
1056.4019	3269.5066	882.3	3.85
1056.5013	3270.3966	882.75	3.6
1056.6005	3271.286	882	5.5
