Software Version:	3.9.2.0
Unit SN:	10000200
Spectrometer SN:	6960
Date:	3/8/2024 12:14:02 PM
Data Line Index:	25
Spectral Points:	2048
Integration time (ms):	125
Averages:	20
Delay (ms):	30000
Sequence Number:	1
Processing:	dark subtract
Laser Power (mW):	305
Laser Current (mA):	822
Laser Diode Temp (C):	25
Laser Case Temp (C):	25.6
System Temp (C):	25.7
Spectrometer Temp (C):	23.4
CCD Temp (C):	0.009
Secondary Temp (C):	20.011
Heatsink Temp (C):	19.949
CCDPCB Temp (C):	35.996
SecondaryPCB Temp (C):	28.47

Wavelength	RamanShift	Raw Counts	Dark Subtracted
787.061	30.1047	433.6	24.65
787.2016	32.3739	434.2	27.7
787.3422	34.6426	437.4	29.55
787.4828	36.9109	444.3	33.65
787.6235	39.1787	452.15	38.5
787.7642	41.4461	457.5	38.5
787.9049	43.7131	464.4	43.65
788.0456	45.9796	472.4	48.55
788.1863	48.2456	480.4	53.25
788.3271	50.5112	486.5	55.3
788.4679	52.7764	493.1	58.1
788.6087	55.0411	500.5	60.1
788.7496	57.3054	509.6	65.35
788.8904	59.5692	515.55	70.3
789.0313	61.8326	524.3	73.5
789.1722	64.0955	535.15	82.9
789.3132	66.3579	546.85	89.3
789.4541	68.6199	561.5	101.35
789.5951	70.8815	589.2	125.3
789.7361	73.1426	650.45	179.65
789.8771	75.4032	802.2	326.45
790.0181	77.6634	1189.1	709.4
790.1592	79.9231	2054.65	1574.2
790.3003	82.1824	3916.15	3422.2
790.4414	84.4412	7179.15	6665.85
790.5825	86.6995	11522.35	10988.4
790.7237	88.9574	15603.15	15049.95
790.8648	91.2148	18293.2	17725.2
791.006	93.4717	19435.75	18856.55
791.1472	95.7282	19516.45	18935.15
791.2885	97.9842	19219.45	18636.75
791.4297	100.2398	18567.15	17978.95
791.571	102.4949	17874.85	17285.3
791.7123	104.7495	17122.45	16529.9
791.8536	107.0036	16381.55	15791.05
791.9949	109.2573	15726.9	15134.95
792.1363	111.5105	15104.35	14510.25
792.2777	113.7632	14595.15	14000.35
792.4191	116.0154	14136.1	13526.85
792.5605	118.2672	13818.8	13215.3
792.7019	120.5185	13509.8	12906.9
792.8434	122.7693	13268.35	12659.8
792.9849	125.0197	13055.2	12445.1
793.1264	127.2696	12844.9	12229.75
793.2679	129.519	12709.75	12088.8
793.4094	131.7679	12474.65	11853
793.551	134.0163	12255.8	11631
793.6926	136.2642	11955.75	11329.7
793.8342	138.5117	11669.9	11032.8
793.9758	140.7587	11348.05	10717.75
794.1175	143.0052	11092.5	10459.25
794.2591	145.2512	10753	10117.6
794.4008	147.4967	10500.5	9865.85
794.5425	149.7417	10262.7	9622.55
794.6842	151.9863	10126.95	9481.65
794.826	154.2304	10023.65	9377.85
794.9677	156.4739	9918.25	9263.85
795.1095	158.717	9819.9	9166.55
795.2513	160.9596	9725.25	9069.65
795.3931	163.2017	9535.75	8877.35
795.535	165.4433	9335.05	8673.55
795.6768	167.6844	9094.85	8434.95
795.8187	169.925	8862.6	8196.45
795.9606	172.1651	8602.5	7932.75
796.1025	174.4047	8402.9	7731.15
796.2445	176.6439	8198.05	7525.75
796.3864	178.8825	8039.95	7362
796.5284	181.1206	7905.5	7223.6
796.6704	183.3582	7816.3	7135.15
796.8124	185.5954	7721.65	7035.2
796.9544	187.832	7688.05	6995.95
797.0965	190.0681	7664.6	6971.15
797.2386	192.3037	7663.5	6964.1
797.3806	194.5388	7645.25	6946.9
797.5228	196.7734	7673.5	6972.05
797.6649	199.0075	7709.65	7007.15
797.807	201.2411	7780.65	7074.1
797.9492	203.4742	7840.3	7133.95
798.0914	205.7068	7955.8	7248.25
798.2336	207.9389	8061.95	7353.9
798.3758	210.1704	8154.8	7450.5
798.518	212.4015	8230.1	7532.65
798.6603	214.632	8355.2	7666.9
798.8025	216.862	8440.6	7752.95
798.9448	219.0915	8506.45	7814.35
799.0871	221.3205	8573.5	7880.6
799.2294	223.549	8613.05	7925.95
799.3718	225.777	8613.2	7923.65
799.5141	228.0044	8659.55	7961.05
799.6565	230.2314	8712.95	8016.8
799.7989	232.4578	8724.45	8025.3
799.9413	234.6837	8754.1	8045.25
800.0837	236.909	8797.9	8089.1
800.2262	239.1339	8757.8	8026.2
800.3687	241.3582	8709	7988.9
800.5111	243.582	8694.5	7945.6
800.6536	245.8053	8663.5	7926.1
800.7961	248.0281	8636.95	7902.65
800.9387	250.2503	8642.75	7908
801.0812	252.472	8710.9	7973
801.2238	254.6932	8800.35	8061.8
801.3664	256.9139	8879.3	8139
801.509	259.134	9049.45	8304.15
801.6516	261.3536	9219.65	8476.9
801.7942	263.5727	9498.05	8752.9
801.9369	265.7912	9739.15	8994.75
802.0795	268.0092	10036.7	9294.45
802.2222	270.2267	10265.2	9523.3
802.3649	272.4436	10450.75	9703.05
802.5076	274.6601	10517.55	9761.6
802.6504	276.8759	10509.9	9758.05
802.7931	279.0913	10463.85	9712.5
802.9359	281.3061	10386.25	9634.7
803.0787	283.5204	10336.8	9580.25
803.2215	285.7341	10343.15	9584.65
803.3643	287.9473	10331.6	9570.4
803.5071	290.16	10326.05	9564.95
803.6499	292.3721	10340.65	9587.05
803.7928	294.5837	10407.25	9648.95
803.9357	296.7947	10500.95	9743.3
804.0786	299.0052	10639.35	9880.05
804.2215	301.2152	10686	9921.5
804.3644	303.4246	10650.45	9893.35
804.5074	305.6334	10465.2	9707.5
804.6503	307.8418	10205.5	9441.35
804.7933	310.0495	9865.7	9102.4
804.9363	312.2568	9560.5	8793.3
805.0793	314.4635	9181.15	8412.5
805.2223	316.6696	8894.85	8124.95
805.3653	318.8752	8694.45	7913.95
805.5084	321.0802	8570.9	7799.15
805.6514	323.2847	8582.3	7808.5
805.7945	325.4887	8596.65	7823.85
805.9376	327.692	8633.55	7859.3
806.0807	329.8949	8625.3	7848.9
806.2238	332.0972	8564.95	7786.6
806.367	334.2989	8410.8	7631
806.5101	336.5001	8229.9	7449.05
806.6533	338.7007	8063.2	7280.65
806.7965	340.9008	7922.85	7140.55
806.9397	343.1003	7750.75	6964.3
807.0829	345.2992	7647.95	6859.2
807.2261	347.4976	7522.55	6735.1
807.3693	349.6955	7455.05	6664.75
807.5126	351.8927	7399.7	6605.95
807.6559	354.0895	7334.65	6533.05
807.7991	356.2856	7286.4	6489.25
807.9424	358.4812	7211.95	6421.1
808.0857	360.6763	7208	6411.05
808.2291	362.8707	7178	6378.15
808.3724	365.0646	7209.35	6407.65
808.5158	367.258	7230.1	6429.35
808.6591	369.4508	7300.65	6491.25
808.8025	371.643	7412.95	6607
808.9459	373.8346	7507	6700.75
809.0893	376.0257	7632.45	6820.8
809.2327	378.2162	7714.3	6907.6
809.3762	380.4062	7736.65	6929
809.5196	382.5956	7656.65	6851.45
809.6631	384.7844	7564	6762.45
809.8066	386.9726	7424.7	6623
809.9501	389.1603	7361	6562.05
810.0936	391.3474	7311.9	6480
810.2371	393.5339	7280.8	6478.65
810.3806	395.7199	7265.2	6465.2
810.5241	397.9052	7315	6516.85
810.6677	400.09	7414.45	6615.05
810.8113	402.2743	7567.2	6764.1
810.9548	404.4579	7722.7	6916.95
811.0984	406.641	7890.9	7086.95
811.2421	408.8235	8026.2	7224.8
811.3857	411.0054	8132.45	7321.6
811.5293	413.1868	8201.3	7387
811.673	415.3675	8226.8	7409.7
811.8166	417.5477	8178.35	7359.35
811.9603	419.7273	8117.15	7299.25
812.104	421.9064	8037.55	7211.3
812.2477	424.0848	7991.9	7174.95
812.3914	426.2627	7885.1	7064.55
812.5351	428.4399	7726.05	6904.85
812.6788	430.6166	7457.7	6631.1
812.8226	432.7928	7205	6380.45
812.9663	434.9683	6963.65	6140.65
813.1101	437.1432	6778.5	5954.6
813.2539	439.3176	6658.7	5839.05
813.3977	441.4914	6572.6	5753.4
813.5415	443.6645	6557	5731.3
813.6853	445.8371	6532.3	5707.25
813.8291	448.0091	6493.6	5668.1
813.973	450.1806	6502.5	5677.45
814.1168	452.3514	6498.9	5671.75
814.2607	454.5216	6528.3	5693.15
814.4046	456.6913	6539.7	5712.9
814.5485	458.8603	6575.55	5748
814.6924	461.0288	6590.6	5767.35
814.8363	463.1967	6599.15	5777.35
814.9802	465.3639	6611.75	5787.05
815.1241	467.5306	6590.95	5761.95
815.2681	469.6967	6567.15	5741.25
815.412	471.8622	6548.55	5719.55
815.556	474.0271	6570.45	5746.15
815.7	476.1914	6594.25	5766.9
815.844	478.3551	6591.7	5761.5
815.988	480.5182	6635.15	5805.95
816.132	482.6807	6707.2	5881.9
816.276	484.8426	6865.55	6044.65
816.4201	487.0039	7122.9	6298.1
816.5641	489.1647	7408	6575.7
816.7082	491.3248	7646.1	6812.1
816.8522	493.4843	7716.2	6885.5
816.9963	495.6432	7676.6	6844.75
817.1404	497.8015	7560.8	6721.15
817.2845	499.9592	7456.2	6614.35
817.4286	502.1163	7252.6	6413.2
817.5727	504.2728	7019.15	6182.05
817.7168	506.4287	6798.1	5968.6
817.861	508.5839	6587.2	5754.55
818.0051	510.7386	6449.6	5615.35
818.1493	512.8927	6388.75	5546.55
818.2935	515.0461	6403.4	5563.25
818.4377	517.199	6484.15	5643.3
818.5818	519.3512	6653.85	5813.75
818.726	521.5029	6926.2	6081.3
818.8703	523.6539	7156.5	6316.05
819.0145	525.8043	7279.95	6435.85
819.1587	527.9541	7217.9	6370.35
819.303	530.1033	7033.95	6194
819.4472	532.2519	6843.6	6000.2
819.5915	534.3999	6754.45	5906.2
819.7357	536.5472	6760.9	5917.1
819.88	538.694	6841.95	6000.1
820.0243	540.8401	7012.8	6168
820.1686	542.9856	7122.4	6270.45
820.3129	545.1305	7150.8	6298
820.4572	547.2748	7098.8	6244.2
820.6016	549.4185	6993.1	6139.85
820.7459	551.5615	6939.05	6085.55
820.8902	553.704	6972.45	6122.15
821.0346	555.8458	7061.05	6210.9
821.1789	557.987	7226.15	6378.45
821.3233	560.1276	7429.1	6579.6
821.4677	562.2675	7751.4	6900.3
821.6121	564.4069	8234.75	7383.7
821.7565	566.5456	8722.1	7871.4
821.9009	568.6837	8919.75	8068.95
822.0453	570.8212	8598.65	7750.7
822.1897	572.958	8005.3	7152.5
822.3342	575.0942	7432.85	6586.35
822.4786	577.2299	7025.05	6174.55
822.6231	579.3648	6782.4	5938.15
822.7675	581.4992	6715.35	5875.05
822.912	583.6329	6775.5	5936.95
823.0565	585.766	6907.4	6066.35
823.201	587.8985	7055.05	6207.7
823.3454	590.0304	7148.7	6270.3
823.4899	592.1616	7151.8	6294.5
823.6345	594.2922	7105.15	6250
823.779	596.4222	6937.5	6079.9
823.9235	598.5515	6794.5	5935.65
824.068	600.6802	6597.15	5736.95
824.2126	602.8083	6475.7	5618.8
824.3571	604.9358	6472.6	5613.5
824.5017	607.0626	6501.3	5638.75
824.6462	609.1888	6620.65	5760.35
824.7908	611.3144	6794.1	5930.75
824.9354	613.4393	6973.9	6112.8
825.08	615.5636	7117.25	6253.65
825.2246	617.6873	7162.15	6299.15
825.3692	619.8103	7130.45	6262.05
825.5138	621.9327	6946	6080.55
825.6584	624.0544	6751.45	5888.85
825.803	626.1756	6518.5	5657.7
825.9477	628.2961	6389.2	5525.7
826.0923	630.4159	6342.35	5477.3
826.237	632.5351	6317.6	5454.5
826.3816	634.6537	6313.85	5447.75
826.5263	636.7716	6321.4	5452.1
826.6709	638.8889	6339.5	5472.15
826.8156	641.0056	6337.7	5471.35
826.9603	643.1216	6356	5485.85
827.105	645.237	6337.3	5468.4
827.2497	647.3518	6246.2	5376.95
827.3944	649.4659	6171.45	5309.65
827.5391	651.5793	6121.15	5258.75
827.6838	653.6922	6081.3	5215.55
827.8285	655.8043	6069.75	5207.45
827.9733	657.9159	6068.9	5202.15
828.118	660.0268	6065.25	5195
828.2627	662.137	6075.4	5208.6
828.4075	664.2466	6109.65	5236.9
828.5522	666.3556	6106.85	5236.2
828.697	668.4639	6058.25	5187.2
828.8418	670.5716	6006.1	5140.3
828.9865	672.6786	5940.75	5070.6
829.1313	674.785	5880.8	5006.05
829.2761	676.8907	5840.6	4970.2
829.4209	678.9958	5837.4	4970.15
829.5657	681.1002	5825.05	4954.35
829.7105	683.204	5825.4	4949.8
829.8553	685.3072	5801.8	4927.1
830.0001	687.4097	5800.95	4925.85
830.1449	689.5115	5819.8	4945.3
830.2898	691.6127	5827.05	4954.05
830.4346	693.7132	5800.85	4927
830.5794	695.8131	5829.1	4936.4
830.7243	697.9123	5843.45	4966.6
830.8691	700.0109	5874.75	4996
831.014	702.1089	5934.4	5057.15
831.1588	704.2061	6002.8	5128.95
831.3037	706.3028	6075.1	5198.85
831.4486	708.3987	6121.6	5243.95
831.5935	710.4941	6153.65	5276.45
831.7383	712.5887	6143.65	5268.9
831.8832	714.6827	6189	5310.35
832.0281	716.7761	6225.15	5348.45
832.173	718.8688	6291.7	5411.75
832.3179	720.9608	6393.5	5508.5
832.4628	723.0522	6529.05	5643.7
832.6077	725.1429	6643.25	5761.2
832.7527	727.233	6772.35	5893.05
832.8976	729.3224	6861.7	5983.45
833.0425	731.4112	6850.65	5969.55
833.1874	733.4993	6764.65	5884.25
833.3324	735.5867	6600.4	5718.4
833.4773	737.6735	6369.8	5490
833.6222	739.7596	6200.7	5318.25
833.7672	741.845	6053.8	5173.05
833.9122	743.9298	5984.5	5098.8
834.0571	746.014	5952.4	5072.05
834.2021	748.0974	5935.95	5050.15
834.347	750.1802	5946.95	5062.55
834.492	752.2624	5963.1	5082.3
834.637	754.3439	5993.8	5106.95
834.782	756.4247	6087.45	5191.3
834.9269	758.5048	6190.3	5303.6
835.0719	760.5843	6412.85	5525.85
835.2169	762.6631	6704	5820.3
835.3619	764.7413	7141.45	6259.15
835.5069	766.8188	7694.9	6809.9
835.6519	768.8956	8252.85	7363.5
835.7969	770.9718	8635.45	7751.4
835.9419	773.0473	8667.4	7784
836.0869	775.1221	8506.4	7621.45
836.232	777.1962	8302.15	7416.35
836.377	779.2697	8282.05	7395.65
836.522	781.3426	8456.55	7555.7
836.667	783.4147	8588.65	7702.85
836.8121	785.4862	8617.4	7731.95
836.9571	787.557	8409.15	7519.2
837.1021	789.6271	7980.7	7090.75
837.2472	791.6966	7439	6550.3
837.3922	793.7654	6914.65	6025.65
837.5373	795.8335	6523.25	5637.65
837.6823	797.901	6264.95	5377.25
837.8274	799.9678	6116.25	5228.3
837.9724	802.0339	6030.85	5141.45
838.1175	804.0993	5976.15	5079.85
838.2626	806.1641	5904.05	5016.55
838.4076	808.2282	5855.7	4964.95
838.5527	810.2916	5809.3	4919.45
838.6978	812.3544	5754.75	4866.1
838.8428	814.4164	5691.35	4805.25
838.9879	816.4778	5720.35	4831.25
839.133	818.5385	5770.3	4878.95
839.2781	820.5986	5869.7	4979.7
839.4232	822.658	6071.55	5179.25
839.5682	824.7166	6362.5	5472.7
839.7133	826.7747	6799.8	5908.65
839.8584	828.832	7294.15	6403.95
840.0035	830.8886	7722.65	6829.25
840.1486	832.9446	7949.15	7057.8
840.2937	834.9999	7863.95	6975.75
840.4388	837.0545	7601.1	6708.9
840.5839	839.1085	7215.45	6322.5
840.729	841.1618	6902.9	6005.05
840.8741	843.2143	6633	5740.9
841.0192	845.2662	6438.35	5547.2
841.1643	847.3175	6331.5	5439.6
841.3095	849.368	6217.65	5323.35
841.4546	851.4179	6149.1	5255.45
841.5997	853.467	6095.25	5202.55
841.7448	855.5155	6051.45	5157.15
841.8899	857.5633	6018.65	5126.05
842.0351	859.6105	5951.55	5057.1
842.1802	861.6569	5888.8	4996.65
842.3253	863.7027	5815.8	4923.15
842.4704	865.7478	5776.5	4882.95
842.6156	867.7922	5734.15	4842.6
842.7607	869.8359	5700.65	4807.85
842.9058	871.8789	5708.6	4812.5
843.0509	873.9212	5762.9	4837.7
843.1961	875.9629	5789.4	4894.4
843.3412	878.0039	5880.6	4985.6
843.4863	880.0441	5923.35	5031.3
843.6315	882.0837	5991.4	5094.2
843.7766	884.1226	6033.65	5137.15
843.9218	886.1609	6136.15	5242.6
844.0669	888.1984	6266.1	5369.45
844.212	890.2352	6428.15	5532.5
844.3572	892.2714	6493.85	5592.65
844.5023	894.3069	6457.5	5560.9
844.6475	896.3416	6300.15	5402.65
844.7926	898.3757	6136.5	5238.25
844.9377	900.4091	6018.7	5119.65
845.0829	902.4418	5989.65	5089.05
845.228	904.4739	6018.45	5117.15
845.3732	906.5052	6084.25	5185.55
845.5183	908.5358	6083.9	5188.1
845.6635	910.5658	6019.3	5117.55
845.8086	912.595	5837	4938.85
845.9538	914.6236	5654.5	4756.45
846.0989	916.6515	5513.3	4615.1
846.2441	918.6786	5405.7	4505.25
846.3892	920.7051	5413.2	4512.55
846.5344	922.7309	5420.25	4521.35
846.6795	924.756	5446.7	4550.2
846.8246	926.7804	5502.95	4603.9
846.9698	928.8041	5506.2	4607.75
847.1149	930.8272	5558.1	4657.65
847.2601	932.8495	5543.4	4641.6
847.4052	934.8711	5567.8	4667.35
847.5504	936.892	5565.65	4667.9
847.6955	938.9123	5592.9	4692.5
847.8407	940.9318	5668.05	4765.6
847.9858	942.9506	5712.35	4811.5
848.131	944.9688	5691.35	4793.8
848.2761	946.9862	5607.3	4707.25
848.4213	949.003	5457.35	4559.9
848.5664	951.019	5348.05	4446.35
848.7115	953.0344	5265.85	4367.25
848.8567	955.0491	5238.85	4337.95
849.0018	957.063	5275.05	4375.2
849.147	959.0763	5295.75	4397.65
849.2921	961.0888	5331.5	4429.7
849.4373	963.1007	5381	4482.35
849.5824	965.1119	5391.5	4496.65
849.7275	967.1223	5365.7	4472.05
849.8727	969.1321	5350.65	4458.3
850.0178	971.1412	5326.05	4428.5
850.1629	973.1495	5319.8	4421
850.3081	975.1572	5369.55	4436.1
850.4532	977.1641	5344.2	4445.25
850.5983	979.1704	5312.95	4411.65
850.7435	981.1759	5294.15	4390.05
850.8886	983.1808	5277.85	4373.5
851.0337	985.1849	5290.25	4378.65
851.1788	987.1884	5322.3	4420.05
851.324	989.1911	5371.25	4470.8
851.4691	991.1932	5439.95	4537.25
851.6142	993.1945	5450.55	4552.2
851.7593	995.1951	5422.95	4522
851.9045	997.1951	5412.45	4505.1
852.0496	999.1943	5392.85	4491.6
852.1947	1001.1928	5412.8	4511.45
852.3398	1003.1906	5463.6	4563
852.4849	1005.1877	5574.95	4674.4
852.63	1007.1841	5682.45	4782.15
852.7751	1009.1798	5737.4	4837.5
852.9202	1011.1748	5731.95	4834.45
853.0653	1013.1691	5600.15	4700.35
853.2104	1015.1627	5435.6	4534.5
853.3555	1017.1556	5271.5	4369.75
853.5006	1019.1477	5175.45	4274.25
853.6457	1021.1392	5087.9	4190.2
853.7908	1023.1299	5048.7	4152.9
853.9359	1025.12	5043.75	4150.9
854.081	1027.1093	5102.7	4216.5
854.2261	1029.0979	5209.25	4324.4
854.3712	1031.0859	5317.2	4427.05
854.5163	1033.0731	5352	4457.35
854.6613	1035.0596	5365.9	4470.45
854.8064	1037.0454	5285.8	4387.6
854.9515	1039.0304	5218.8	4316.9
855.0965	1041.0148	5111.4	4210.95
855.2416	1042.9985	5046.2	4145.5
855.3867	1044.9814	5002.3	4103.8
855.5317	1046.9636	4954	4051.35
855.6768	1048.9452	4946.5	4048.2
855.8219	1050.926	5011.2	4111.3
855.9669	1052.9061	5047.9	4145.9
856.112	1054.8855	5079.95	4179.35
856.257	1056.8642	5116.15	4214.85
856.4021	1058.8421	5141.6	4236.9
856.5471	1060.8194	5152.35	4250.05
856.6921	1062.7959	5177.95	4277.8
856.8372	1064.7717	5232.9	4327.1
856.9822	1066.7469	5316.45	4414.7
857.1272	1068.7213	5372	4468.7
857.2723	1070.695	5476.8	4576.15
857.4173	1072.6679	5550.8	4647.15
857.5623	1074.6402	5594.15	4691.95
857.7073	1076.6117	5587.95	4682
857.8523	1078.5826	5477.65	4576.45
857.9973	1080.5527	5352.6	4449.95
858.1423	1082.5221	5186.1	4285
858.2873	1084.4908	5146.3	4247.25
858.4323	1086.4587	5104.95	4202.05
858.5773	1088.426	5104.65	4203.45
858.7223	1090.3925	5117.9	4210.8
858.8673	1092.3584	5135	4234.8
859.0123	1094.3235	5196.95	4296.1
859.1573	1096.2879	5288.5	4386.55
859.3022	1098.2515	5402.6	4501.55
859.4472	1100.2145	5550.25	4649.7
859.5922	1102.1767	5732.05	4826.85
859.7371	1104.1382	5942.25	5038.6
859.8821	1106.099	6143.5	5240.9
860.027	1108.0591	6344.3	5443.9
860.172	1110.0185	6506.85	5602.85
860.3169	1111.9771	6584.8	5683.65
860.4619	1113.9351	6554.7	5653.2
860.6068	1115.8923	6493.6	5592.15
860.7517	1117.8488	6445.75	5540.4
860.8967	1119.8045	6319.4	5417.6
861.0416	1121.7596	6170.95	5270.6
861.1865	1123.7139	6023.9	5124.7
861.3314	1125.6675	5943.05	5041
861.4763	1127.6204	5928.65	5030.65
861.6212	1129.5726	5936.1	5033.4
861.7661	1131.524	5889.95	4988.5
861.911	1133.4748	5743.4	4841.65
862.0559	1135.4248	5566.45	4663.55
862.2008	1137.3741	5434.1	4532.6
862.3457	1139.3226	5306.35	4402.5
862.4905	1141.2705	5269.5	4369.65
862.6354	1143.2176	5256.85	4348.3
862.7803	1145.164	5220.8	4317.45
862.9251	1147.1097	5163.1	4263.1
863.07	1149.0546	5050.1	4145.7
863.2148	1150.9989	4953	4050.95
863.3597	1152.9424	4864.65	3961.35
863.5045	1154.8852	4779.8	3875.6
863.6493	1156.8272	4775	3874.55
863.7942	1158.7686	4778.3	3870.35
863.939	1160.7092	4807.35	3904.1
864.0838	1162.6491	4835.8	3933.5
864.2286	1164.5883	4932.5	4032
864.3734	1166.5267	5015	4115.3
864.5182	1168.4644	5155.9	4256.1
864.663	1170.4014	5304.3	4398
864.8078	1172.3377	5493.55	4592.9
864.9526	1174.2732	5750.05	4847.9
865.0974	1176.2081	6094.45	5193.8
865.2421	1178.1421	6566.5	5658.85
865.3869	1180.0755	7079.8	6182.9
865.5317	1182.0082	7487.75	6589.25
865.6764	1183.9401	7674.3	6773.6
865.8212	1185.8713	7550.1	6654.65
865.9659	1187.8017	7204.9	6310.3
866.1106	1189.7315	6823.6	5933.55
866.2554	1191.6605	6401.2	5510.25
866.4001	1193.5888	6127.7	5234.35
866.5448	1195.5163	5963.3	5066.15
866.6895	1197.4432	5864.7	4964.15
866.8342	1199.3693	5786.1	4887
866.9789	1201.2947	5743.8	4839.8
867.1236	1203.2193	5715.7	4811.65
867.2683	1205.1432	5691.45	4790.2
867.413	1207.0664	5652.15	4751.15
867.5576	1208.9889	5666.4	4763.6
867.7023	1210.9106	5666.7	4768
867.847	1212.8316	5673.6	4775.15
867.9916	1214.7519	5733.35	4823.5
868.1363	1216.6715	5752.8	4855.5
868.2809	1218.5903	5843.1	4943.5
868.4255	1220.5084	5901.1	5002.75
868.5701	1222.4257	6003.35	5104.35
868.7148	1224.3424	6111.15	5212.75
868.8594	1226.2583	6211.45	5305.75
869.004	1228.1735	6394.6	5493.6
869.1486	1230.0879	6572.9	5670.9
869.2932	1232.0016	6776.85	5879.15
869.4377	1233.9146	6936.4	6034.25
869.5823	1235.8269	7022.05	6122.95
869.7269	1237.7384	7022.5	6123.8
869.8715	1239.6492	6943.2	6044.45
870.016	1241.5592	6933.2	6032.15
870.1606	1243.4686	7016.95	6116.65
870.3051	1245.3772	7184.9	6284.05
870.4496	1247.285	7454.35	6554.15
870.5941	1249.1922	7712.55	6812.25
870.7387	1251.0986	7960.35	7062.65
870.8832	1253.0042	8138.8	7241.5
871.0277	1254.9092	8295.8	7394.35
871.1722	1256.8134	8411.1	7514.55
871.3167	1258.7169	8548	7650.7
871.4611	1260.6196	8658.15	7763.15
871.6056	1262.5216	8817.25	7918
871.7501	1264.4229	8969.3	8070.05
871.8945	1266.3234	9154.7	8253.15
872.039	1268.2232	9284.4	8382.35
872.1834	1270.1223	9359.85	8456.1
872.3278	1272.0207	9402.75	8504.15
872.4723	1273.9183	9399.6	8494.85
872.6167	1275.8151	9301.5	8402.55
872.7611	1277.7113	9279	8381.65
872.9055	1279.6067	9397.8	8497.35
873.0499	1281.5014	9696.75	8795.95
873.1943	1283.3953	10175.35	9272.25
873.3386	1285.2885	10842.85	9944.15
873.483	1287.181	11559.55	10660.15
873.6274	1289.0727	12230.95	11334.4
873.7717	1290.9637	12723.05	11823.8
873.9161	1292.854	13013.95	12115.25
874.0604	1294.7435	13039.9	12140.05
874.2047	1296.6323	12859.55	11961.6
874.349	1298.5204	12556.75	11652.4
874.4933	1300.4077	12172.6	11272.75
874.6376	1302.2943	11734.15	10833.95
874.7819	1304.1802	11308.35	10409.25
874.9262	1306.0653	10763.8	9865.15
875.0705	1307.9497	10214.45	9315.45
875.2147	1309.8333	9754.15	8855.35
875.359	1311.7162	9385.3	8487.25
875.5032	1313.5984	9153.8	8250.05
875.6475	1315.4798	9061.55	8145.8
875.7917	1317.3605	8945.85	8029.25
875.9359	1319.2405	8817.9	7915.65
876.0801	1321.1197	8612.85	7710.85
876.2243	1322.9982	8327.1	7422.55
876.3685	1324.876	8000.85	7103.2
876.5127	1326.753	7662.65	6764.25
876.6569	1328.6293	7365.35	6462.8
876.801	1330.5048	7136.8	6233.35
876.9452	1332.3796	6916.75	6018.55
877.0893	1334.2537	6785.45	5856.55
877.2335	1336.127	6614.3	5713.85
877.3776	1337.9996	6529.1	5629
877.5217	1339.8714	6489.25	5589.4
877.6658	1341.7426	6495.25	5549.1
877.8099	1343.6129	6477.1	5577
877.954	1345.4826	6480.1	5580.3
878.0981	1347.3515	6467.15	5565.25
878.2422	1349.2196	6443.7	5544.35
878.3862	1351.087	6442.95	5542.9
878.5303	1352.9537	6486.2	5584.65
878.6743	1354.8197	6568.1	5667.8
878.8184	1356.6849	6670.7	5771.7
878.9624	1358.5493	6807.45	5906.85
879.1064	1360.4131	7019.5	6120.05
879.2504	1362.276	7193	6293.1
879.3944	1364.1383	7292.5	6395.5
879.5384	1365.9998	7250.85	6344.75
879.6823	1367.8606	7052.55	6149.3
879.8263	1369.7206	6792.15	5891.65
879.9702	1371.5799	6548.4	5648.55
880.1142	1373.4384	6355	5455.1
880.2581	1375.2962	6155.85	5254.55
880.402	1377.1533	5893.5	4992.1
880.5459	1379.0096	5618.45	4720.2
880.6898	1380.8652	5332	4432.65
880.8337	1382.7201	5104.75	4207.65
880.9776	1384.5742	4904.65	4004.9
881.1215	1386.4275	4777.7	3877.85
881.2653	1388.2802	4656.7	3755.55
881.4092	1390.132	4575.8	3674.4
881.553	1391.9832	4510.8	3608.8
881.6968	1393.8336	4464.2	3563.1
881.8406	1395.6832	4434.65	3532.7
881.9844	1397.5322	4393.7	3495.6
882.1282	1399.3803	4377.6	3474
882.272	1401.2278	4344.25	3446.2
882.4158	1403.0745	4321.25	3421.9
882.5595	1404.9204	4294	3394.85
882.7033	1406.7656	4305.2	3405.7
882.847	1408.6101	4314.4	3413.45
882.9908	1410.4538	4323.6	3422.35
883.1345	1412.2968	4350.95	3448.3
883.2782	1414.139	4387.4	3490.3
883.4219	1415.9805	4436	3536.8
883.5656	1417.8213	4483	3560.7
883.7092	1419.6613	4583.35	3687.35
883.8529	1421.5006	4708.4	3809
883.9965	1423.3391	4860.2	3960.25
884.1402	1425.1769	5092.6	4191.35
884.2838	1427.0139	5452.3	4551.65
884.4274	1428.8502	5847	4946.05
884.571	1430.6858	6272.15	5373.7
884.7146	1432.5206	6583.6	5685.35
884.8582	1434.3547	6773.35	5875.75
885.0018	1436.188	6797.8	5899.65
885.1453	1438.0206	6728.2	5830.1
885.2889	1439.8524	6630.15	5732.6
885.4324	1441.6835	6513.65	5616.55
885.5759	1443.5139	6465.85	5565.55
885.7194	1445.3435	6403.35	5506.25
885.8629	1447.1724	6374.05	5476.25
886.0064	1449.0005	6349.15	5452.35
886.1499	1450.8279	6315.5	5417.2
886.2933	1452.6545	6300.75	5402.45
886.4368	1454.4804	6345.85	5446.6
886.5802	1456.3056	6348.95	5447.95
886.7237	1458.13	6305.85	5408.3
886.8671	1459.9536	6186.2	5289.65
887.0105	1461.7766	5997.4	5099.8
887.1539	1463.5987	5750.1	4852.15
887.2972	1465.4202	5513.75	4617.1
887.4406	1467.2409	5280.45	4381.75
887.584	1469.0608	5056.1	4157.5
887.7273	1470.88	4849	3949.1
887.8706	1472.6984	4658.2	3759.65
888.0139	1474.5161	4509.2	3608.7
888.1572	1476.3331	4396.95	3499.05
888.3005	1478.1493	4323.85	3424.2
888.4438	1479.9648	4266.55	3368.35
888.5871	1481.7795	4202.6	3303.25
888.7303	1483.5935	4164.45	3268
888.8736	1485.4067	4132.2	3235.15
889.0168	1487.2192	4119.45	3220.65
889.16	1489.031	4095.4	3194.9
889.3032	1490.842	4063.7	3166.95
889.4464	1492.6522	4065.1	3168.45
889.5896	1494.4618	4039.85	3141.7
889.7327	1496.2705	4015.45	3119.2
889.8759	1498.0785	3996.05	3099.1
890.019	1499.8858	3967.8	3069.6
890.1622	1501.6924	3932.75	3037.9
890.3053	1503.4981	3897.95	3001.1
890.4484	1505.3032	3876.35	2979.85
890.5914	1507.1075	3829.5	2933.95
890.7345	1508.911	3798	2901.75
890.8776	1510.7138	3768.8	2872.95
891.0206	1512.5159	3737.5	2841.1
891.1637	1514.3172	3694.7	2800
891.3067	1516.1178	3658.35	2763.55
891.4497	1517.9176	3650.1	2750.75
891.5927	1519.7166	3612.85	2716.15
891.7357	1521.515	3600	2698.25
891.8786	1523.3126	3583.6	2689.5
892.0216	1525.1094	3566.4	2670.5
892.1645	1526.9055	3556.6	2663.2
892.3074	1528.7008	3545.15	2650.45
892.4503	1530.4954	3520.45	2626.1
892.5932	1532.2893	3508.5	2616.9
892.7361	1534.0824	3487.9	2588.2
892.879	1535.8747	3496.3	2602.15
893.0218	1537.6663	3504.15	2611.65
893.1647	1539.4572	3498.65	2602.15
893.3075	1541.2473	3510.95	2616.85
893.4503	1543.0367	3525.1	2631.5
893.5931	1544.8253	3525.65	2628.4
893.7359	1546.6132	3568.25	2672.45
893.8787	1548.4003	3585.9	2685.25
894.0214	1550.1867	3629.35	2729.7
894.1642	1551.9723	3702.5	2807.35
894.3069	1553.7572	3773.15	2878.85
894.4496	1555.5414	3871.05	2979.6
894.5923	1557.3247	3990.5	3099
894.735	1559.1074	4152.75	3259.5
894.8777	1560.8893	4330.75	3442.05
895.0204	1562.6705	4468.5	3577.35
895.163	1564.4509	4618.7	3729.35
895.3056	1566.2305	4705.45	3816.95
895.4482	1568.0094	4764.3	3877.35
895.5908	1569.7876	4779.9	3892.15
895.7334	1571.565	4769.3	3878
895.876	1573.3417	4788.45	3898.4
896.0186	1575.1176	4803.7	3914.5
896.1611	1576.8928	4822.8	3933.6
896.3036	1578.6672	4871.2	3984.3
896.4461	1580.4409	4917.6	4032.7
896.5886	1582.2138	5016.3	4128.7
896.7311	1583.986	5124.15	4235.65
896.8736	1585.7575	5261.55	4372.4
897.0161	1587.5282	5346.3	4459.4
897.1585	1589.2981	5478.6	4592.7
897.3009	1591.0673	5604.5	4720.7
897.4433	1592.8358	5720.9	4833
897.5857	1594.6035	5810.65	4921.7
897.7281	1596.3704	5859	4969.55
897.8705	1598.1366	5918.45	5029.9
898.0128	1599.9021	5971.1	5084.55
898.1551	1601.6668	5997.75	5108.15
898.2975	1603.4308	6087.75	5199.5
898.4398	1605.194	6180.05	5288.75
898.5821	1606.9564	6325.2	5440.7
898.7243	1608.7182	6542.95	5655.7
898.8666	1610.4791	6805.05	5922.55
899.0088	1612.2394	7121.35	6240.45
899.1511	1613.9988	7431.05	6546.7
899.2933	1615.7576	7771.55	6886.25
899.4355	1617.5156	7997.7	7105.45
899.5776	1619.2728	8109.7	7222.95
899.7198	1621.0293	8023.7	7137.4
899.862	1622.785	7813.05	6923.25
900.0041	1624.54	7445.85	6559.65
900.1462	1626.2942	7042.2	6157.35
900.2883	1628.0477	6605.8	5718.7
900.4304	1629.8005	6219.7	5333.05
900.5725	1631.5525	5849.65	4966.95
900.7145	1633.3037	5557	4672.55
900.8566	1635.0542	5291.4	4407.9
900.9986	1636.804	5095.35	4211.7
901.1406	1638.553	4989.35	4037.3
901.2826	1640.3013	4821.55	3938
901.4245	1642.0488	4742.65	3857.55
901.5665	1643.7955	4722.65	3840
901.7085	1645.5416	4738.1	3855.35
901.8504	1647.2868	4772.45	3889.55
901.9923	1649.0313	4823.7	3939.55
902.1342	1650.7751	4905.95	4020
902.2761	1652.5181	4988	4106.5
902.4179	1654.2604	5083.35	4200.95
902.5598	1656.0019	5208.65	4325.3
902.7016	1657.7427	5405.4	4521.05
902.8434	1659.4828	5608.25	4723.55
902.9852	1661.222	5770.7	4884.95
903.127	1662.9606	5822.85	4941.3
903.2687	1664.6984	5724.1	4837.45
903.4105	1666.4354	5464.95	4578.1
903.5522	1668.1717	5067.9	4182.35
903.6939	1669.9072	4673.2	3788.2
903.8356	1671.642	4299.65	3412.85
903.9773	1673.3761	3987.5	3103.85
904.119	1675.1094	3756.5	2873.05
904.2606	1676.8419	3569.3	2687.15
904.4022	1678.5737	3427.45	2543.45
904.5439	1680.3048	3304.5	2422
904.6855	1682.0351	3206.45	2323.75
904.827	1683.7646	3142.1	2253.65
904.9686	1685.4934	3078.15	2193.35
905.1101	1687.2215	3028.45	2143.55
905.2517	1688.9488	2973.5	2090.2
905.3932	1690.6754	2930.35	2046.7
905.5347	1692.4012	2892.45	2008.8
905.6761	1694.1263	2877.85	1995.2
905.8176	1695.8506	2840.7	1958.3
905.9591	1697.5742	2813.75	1933.75
906.1005	1699.297	2794.35	1913.05
906.2419	1701.0191	2759.55	1878.45
906.3833	1702.7404	2726.75	1845.25
906.5246	1704.461	2720.45	1834.85
906.666	1706.1808	2693.55	1810.55
906.8073	1707.8999	2679.35	1795.3
906.9487	1709.6182	2663.35	1781.2
907.09	1711.3358	2638	1757.1
907.2313	1713.0527	2640.75	1763.05
907.3725	1714.7688	2626.35	1736.65
907.5138	1716.4841	2600.15	1716.9
907.655	1718.1987	2588.65	1702.9
907.7962	1719.9126	2579.75	1699.6
907.9374	1721.6257	2576.45	1694
908.0786	1723.338	2567.35	1685.15
908.2198	1725.0496	2551.45	1669.65
908.3609	1726.7605	2552.3	1668.15
908.502	1728.4706	2536.6	1654.85
908.6431	1730.18	2524.45	1641.65
908.7842	1731.8886	2515.45	1635.15
908.9253	1733.5964	2528.5	1627.9
909.0664	1735.3036	2512.35	1626.85
909.2074	1737.0099	2486.3	1603.35
909.3484	1738.7156	2477.2	1597.85
909.4894	1740.4204	2463.05	1576.5
909.6304	1742.1246	2457.25	1574.1
909.7714	1743.8279	2442.2	1561.65
909.9123	1745.5306	2419.6	1538.55
910.0532	1747.2325	2422.75	1540.15
910.1941	1748.9336	2403.1	1521.85
910.335	1750.634	2404.75	1521.85
910.4759	1752.3336	2395.7	1514.7
910.6168	1754.0325	2392.7	1514.1
910.7576	1755.7307	2377.45	1498.1
910.8984	1757.4281	2390.1	1507.6
911.0392	1759.1247	2390.7	1500.8
911.18	1760.8206	2380	1496.1
911.3208	1762.5158	2372	1485.7
911.4615	1764.2102	2356.1	1476.3
911.6022	1765.9039	2348.35	1466.5
911.7429	1767.5968	2349.2	1469.35
911.8836	1769.289	2349.15	1467
912.0243	1770.9804	2344.9	1463.3
912.1649	1772.6711	2345.15	1463.65
912.3056	1774.361	2331.85	1449.15
912.4462	1776.0502	2335.05	1451.65
912.5868	1777.7386	2329.2	1444.2
912.7274	1779.4263	2336	1452.9
912.8679	1781.1132	2322.45	1440.5
913.0084	1782.7994	2323.2	1441.9
913.149	1784.4849	2309.9	1428.75
913.2895	1786.1696	2325.05	1425.2
913.4299	1787.8535	2294.35	1414.25
913.5704	1789.5367	2288.3	1408.75
913.7108	1791.2192	2279.6	1398.8
913.8513	1792.9009	2307.2	1400.7
913.9917	1794.5818	2280.15	1395.95
914.132	1796.2621	2277.6	1396.85
914.2724	1797.9415	2279.55	1397.9
914.4128	1799.6202	2266.4	1385.25
914.5531	1801.2982	2253	1371.8
914.6934	1802.9755	2269.95	1386.9
914.8337	1804.6519	2261.35	1379.1
914.9739	1806.3277	2255.3	1374.35
915.1142	1808.0027	2240.8	1360.8
915.2544	1809.6769	2250.35	1373.55
915.3946	1811.3504	2242.9	1362.9
915.5348	1813.0231	2228.1	1347.45
915.675	1814.6951	2240.35	1358.65
915.8151	1816.3664	2239.2	1355.95
915.9553	1818.0369	2237.85	1354.15
916.0954	1819.7067	2224.85	1344.25
916.2355	1821.3757	2214.5	1332.4
916.3755	1823.044	2208.85	1327.5
916.5156	1824.7115	2212.25	1331.55
916.6556	1826.3783	2207.7	1327.7
916.7956	1828.0443	2205.15	1325.05
916.9356	1829.7096	2200.9	1316.1
917.0756	1831.3741	2200.05	1315.75
917.2155	1833.0379	2194.05	1314.25
917.3555	1834.701	2198.15	1314.8
917.4954	1836.3633	2207.45	1326.1
917.6353	1838.0248	2198.4	1313.5
917.7751	1839.6856	2183.25	1304.1
917.915	1841.3457	2184.1	1304.45
918.0548	1843.005	2188.2	1308.75
918.1946	1844.6636	2169.05	1288.05
918.3344	1846.3214	2175.05	1293.6
918.4742	1847.9785	2175.6	1294.6
918.6139	1849.6349	2176.1	1294.5
918.7537	1851.2904	2181.1	1289.15
918.8934	1852.9453	2169.5	1287.45
919.0331	1854.5994	2164.95	1280.6
919.1727	1856.2528	2163.95	1278.4
919.3124	1857.9054	2157.55	1277.3
919.452	1859.5572	2153.35	1274
919.5916	1861.2083	2169.1	1287.7
919.7312	1862.8587	2153.15	1271.9
919.8708	1864.5084	2137.7	1257.5
920.0103	1866.1572	2152.45	1272.5
920.1498	1867.8054	2139.9	1259
920.2893	1869.4528	2136.9	1256.5
920.4288	1871.0994	2127.65	1245.2
920.5683	1872.7453	2136.15	1253.45
920.7077	1874.3905	2137.75	1249.55
920.8471	1876.0349	2122.65	1240.15
920.9865	1877.6786	2118.55	1236.75
921.1259	1879.3215	2118.3	1237.65
921.2653	1880.9637	2122.05	1239.2
921.4046	1882.6051	2121.15	1240.8
921.5439	1884.2458	2113.5	1230.35
921.6832	1885.8858	2107.95	1226.3
921.8225	1887.525	2101.8	1220.15
921.9617	1889.1634	2102.85	1222.1
922.101	1890.8011	2089.05	1207.35
922.2402	1892.4381	2089.55	1205.95
922.3794	1894.0743	2086.55	1206.35
922.5185	1895.7098	2079.65	1198.7
922.6577	1897.3446	2090.15	1208.2
922.7968	1898.9786	2084.85	1202.05
922.9359	1900.6118	2074.25	1195.65
923.075	1902.2443	2065.5	1180
923.214	1903.8761	2078.55	1198.65
923.3531	1905.5071	2065.6	1184.6
923.4921	1907.1374	2058.45	1176.7
923.6311	1908.7669	2057.5	1176.85
923.77	1910.3957	2051.7	1170.55
923.909	1912.0237	2048.75	1165.9
924.0479	1913.651	2040.75	1158.65
924.1868	1915.2776	2036.1	1156.95
924.3257	1916.9034	2033.7	1154.35
924.4646	1918.5285	2032.9	1154.6
924.6034	1920.1528	2022.6	1141.3
924.7422	1921.7764	2019.75	1138.55
924.881	1923.3992	2030.25	1149.9
925.0198	1925.0213	2016.5	1135.75
925.1586	1926.6427	2018.45	1142.05
925.2973	1928.2633	2085.35	1117.35
925.436	1929.8832	2007.2	1124.05
925.5747	1931.5023	2000.85	1120.5
925.7134	1933.1207	1993.8	1112.2
925.852	1934.7383	1993.1	1114.55
925.9906	1936.3552	1985.95	1106
926.1292	1937.9714	1981.1	1102.5
926.2678	1939.5868	1986.15	1104.25
926.4064	1941.2015	1988.6	1108.7
926.5449	1942.8154	1983.7	1102.5
926.6834	1944.4286	1977.4	1096.45
926.8219	1946.041	1989.4	1085.8
926.9604	1947.6528	1967.35	1080.45
927.0988	1949.2637	1966.05	1086.55
927.2372	1950.8739	1961	1082.25
927.3756	1952.4834	1957.05	1075.7
927.514	1954.0921	1957.55	1077.45
927.6523	1955.7001	1948.35	1065
927.7907	1957.3074	1942.25	1064.4
927.929	1958.9139	1928.15	1049.3
928.0673	1960.5197	1948.55	1069.95
928.2055	1962.1247	1929.3	1050.35
928.3438	1963.729	1919.8	1039.35
928.482	1965.3325	1925.45	1041.15
928.6202	1966.9353	1910	1033.5
928.7584	1968.5374	1919.5	1037.8
928.8965	1970.1387	1916.25	1038.25
929.0346	1971.7393	1908.2	1027.05
929.1727	1973.3392	1903.7	1024.95
929.3108	1974.9383	1900.1	1019.85
929.4489	1976.5366	1900	1022.85
929.5869	1978.1342	1897.05	1017.3
929.7249	1979.7311	1893.3	1014.4
929.8629	1981.3273	1892.8	1014.75
930.0009	1982.9227	1883.55	1003.05
930.1388	1984.5173	1880.95	1002.1
930.2767	1986.1112	1879.25	1000.45
930.4146	1987.7044	1878.2	999.2
930.5525	1989.2968	1871.45	990.55
930.6904	1990.8885	1876.65	997.4
930.8282	1992.4795	1869.55	989.8
930.966	1994.0697	1864.6	988.1
931.1038	1995.6592	1871.8	993.95
931.2415	1997.2479	1863.45	985
931.3793	1998.8359	1864.5	988.2
931.517	2000.4232	1854.25	976.6
931.6547	2002.0097	1842.85	967.85
931.7923	2003.5955	1844.45	967.5
931.93	2005.1805	1848.85	969.15
932.0676	2006.7648	1843.25	965.6
932.2052	2008.3484	1841.45	964.55
932.3427	2009.9312	1834.45	955.1
932.4803	2011.5133	1831.65	956.4
932.6178	2013.0946	1827.3	949.9
932.7553	2014.6752	1829.25	954.65
932.8928	2016.2551	1830.95	950.85
933.0302	2017.8342	1819.1	941.2
933.1676	2019.4126	1827.65	949.9
933.305	2020.9902	1822.55	945.15
933.4424	2022.5672	1824.6	948.75
933.5798	2024.1433	1820.45	939.3
933.7171	2025.7188	1814.9	940.35
933.8544	2027.2935	1806	930.95
933.9917	2028.8674	1795.6	918.15
934.129	2030.4406	1809.85	934.4
934.2662	2032.0131	1804.6	930.85
934.4034	2033.5849	1799.8	914.35
934.5406	2035.1559	1788.2	911.75
934.6778	2036.7261	1786.65	910.1
934.8149	2038.2957	1790.1	909.75
934.952	2039.8645	1787.9	911.7
935.0891	2041.4325	1804.6	923.65
935.2262	2042.9998	1791.9	914.95
935.3632	2044.5664	1786.15	908
935.5002	2046.1323	1775.15	898.6
935.6372	2047.6974	1781.7	905.3
935.7742	2049.2617	1774.65	900.15
935.9111	2050.8254	1781.1	901.65
936.048	2052.3883	1771.2	893.85
936.1849	2053.9504	1768.2	888.85
936.3218	2055.5118	1781.95	903.2
936.4586	2057.0725	1767.8	882.95
936.5955	2058.6325	1763.4	886.95
936.7323	2060.1917	1761.25	886.4
936.869	2061.7502	1760.8	880.35
937.0058	2063.3079	1751.85	875.1
937.1425	2064.8649	1759.85	879.15
937.2792	2066.4212	1755.35	878.9
937.4159	2067.9767	1752	875
937.5525	2069.5315	1744.85	869.35
937.6891	2071.0856	1750.55	873.95
937.8257	2072.6389	1748.3	870.65
937.9623	2074.1915	1732.8	856.55
938.0989	2075.7433	1733.05	855.4
938.2354	2077.2945	1729.05	855.15
938.3719	2078.8448	1732.15	854.1
938.5084	2080.3945	1713.9	836.95
938.6448	2081.9434	1722.1	845.25
938.7812	2083.4916	1723.8	844.6
938.9176	2085.039	1722.3	841.35
939.054	2086.5857	1722.4	841.5
939.1903	2088.1317	1715.25	833.9
939.3267	2089.677	1715.3	834.2
939.463	2091.2215	1715.2	836.95
939.5992	2092.7652	1707.8	826
939.7355	2094.3083	1708.5	827.8
939.8717	2095.8506	1710.25	833.75
940.0079	2097.3921	1707.2	826.05
940.1441	2098.933	1704	825.5
940.2802	2100.4731	1705.75	827.45
940.4163	2102.0124	1724.45	828.3
940.5524	2103.5511	1699.85	820.45
940.6885	2105.089	1694.4	813
940.8245	2106.6261	1689.15	810.05
940.9606	2108.1626	1693.05	811.85
941.0965	2109.6983	1714.2	807.35
941.2325	2111.2332	1689.55	811.75
941.3684	2112.7675	1686.75	807.7
941.5044	2114.301	1691.85	811.4
941.6403	2115.8337	1686.05	807.65
941.7761	2117.3657	1676.95	797.55
941.912	2118.897	1675.75	796.75
942.0478	2120.4276	1685.4	799.9
942.1835	2121.9575	1675.35	794
942.3193	2123.4866	1680.35	797.4
942.455	2125.0149	1678.3	795.85
942.5907	2126.5426	1668.5	793.95
942.7264	2128.0695	1657.8	778.3
942.8621	2129.5956	1656.15	780.65
942.9977	2131.1211	1662	780.6
943.1333	2132.6458	1659.3	781.45
943.2689	2134.1698	1661.4	781.7
943.4044	2135.693	1656.5	774.15
943.54	2137.2155	1657.05	774.55
943.6755	2138.7373	1655.3	777.5
943.8109	2140.2584	1643	765.15
943.9464	2141.7787	1655.3	770.3
944.0818	2143.2983	1642.85	767.8
944.2172	2144.8171	1645.85	771.55
944.3526	2146.3353	1644.75	766.1
944.4879	2147.8527	1636.1	759
944.6232	2149.3693	1639.65	759.75
944.7585	2150.8853	1636.7	756.05
944.8938	2152.4005	1634.1	757.8
945.029	2153.9149	1633.65	754.4
945.1642	2155.4287	1628.1	748.55
945.2994	2156.9417	1633.3	754.85
945.4346	2158.454	1618.1	738.7
945.5697	2159.9655	1627.55	750.6
945.7048	2161.4764	1621.2	741.5
945.8399	2162.9865	1626.95	749.85
945.9749	2164.4958	1612.95	733.3
946.1099	2166.0045	1618.35	738.4
946.2449	2167.5124	1614.35	736.2
946.3799	2169.0195	1616.95	737
946.5148	2170.526	1611.4	731
946.6498	2172.0317	1609.65	729.95
946.7846	2173.5367	1604.15	724.75
946.9195	2175.0409	1607.05	729.6
947.0543	2176.5445	1610	730.95
947.1891	2178.0473	1601	720.45
947.3239	2179.5494	1607.9	723.65
947.4587	2181.0507	1601	722.6
947.5934	2182.5513	1608.8	726.3
947.7281	2184.0512	1595.75	717.3
947.8628	2185.5504	1592.4	712.5
947.9974	2187.0488	1587.05	709.4
948.132	2188.5465	1595	716.55
948.2666	2190.0435	1593.85	714.6
948.4012	2191.5397	1590.2	710.25
948.5357	2193.0353	1589.35	711
948.6702	2194.5301	1590.2	708.15
948.8047	2196.0241	1577.45	696
948.9392	2197.5175	1590.35	706.05
949.0736	2199.0101	1590.75	706.55
949.208	2200.502	1577.55	699.2
949.3424	2201.9931	1569.55	690.75
949.4767	2203.4835	1567.8	687.85
949.611	2204.9733	1580.85	697.8
949.7453	2206.4622	1564.8	687.75
949.8796	2207.9505	1564.75	685.05
950.0138	2209.438	1555.85	680.05
950.148	2210.9248	1558.55	678.15
950.2822	2212.4109	1553.7	675.6
950.4164	2213.8962	1553.7	670.25
950.5505	2215.3809	1556.05	672.95
950.6846	2216.8648	1554.8	673.15
950.8186	2218.3479	1556.9	671.4
950.9527	2219.8304	1549.6	664.8
951.0867	2221.3121	1552.15	669.6
951.2207	2222.7931	1547.7	667.2
951.3546	2224.2733	1538.65	658.15
951.4886	2225.7529	1540.3	659.55
951.6225	2227.2317	1536.35	656.3
951.7563	2228.7098	1529.95	652.4
951.8902	2230.1872	1531.25	652.75
952.024	2231.6638	1527.1	649.7
952.1578	2233.1397	1534.85	652.55
952.2916	2234.6149	1524.1	646.1
952.4253	2236.0894	1527.4	648.75
952.559	2237.5632	1533.45	643.5
952.6927	2239.0362	1521.7	642.7
952.8263	2240.5085	1523.55	641.05
952.9599	2241.9801	1524.2	641.9
953.0935	2243.4509	1522	640.9
953.2271	2244.921	1520.3	641.75
953.3606	2246.3904	1514.3	632.1
953.4941	2247.8591	1506.55	628.05
953.6276	2249.3271	1512.5	630.85
953.7611	2250.7943	1494.85	614.6
953.8945	2252.2608	1501.8	619.15
954.0279	2253.7266	1502.6	623.8
954.1612	2255.1917	1500.7	620.85
954.2946	2256.656	1500.85	620.4
954.4279	2258.1197	1488.05	610.9
954.5612	2259.5826	1492.05	612.5
954.6944	2261.0447	1500.05	620.05
954.8276	2262.5062	1488.5	606.25
954.9608	2263.9669	1488.2	607.25
955.094	2265.4269	1483.45	602.3
955.2271	2266.8862	1489.65	610.2
955.3602	2268.3448	1495.95	616.45
955.4933	2269.8026	1486.5	604.95
955.6264	2271.2598	1482.7	603.85
955.7594	2272.7162	1482.4	605.15
955.8924	2274.1719	1484	604.1
956.0253	2275.6268	1475.9	595.45
956.1583	2277.0811	1480.3	598.65
956.2912	2278.5346	1470.8	589.55
956.4241	2279.9874	1476.95	597.55
956.5569	2281.4395	1474.9	596
956.6897	2282.8908	1476.4	593.75
956.8225	2284.3414	1480.4	598.9
956.9553	2285.7914	1468.45	588.85
957.088	2287.2406	1473	592.6
957.2207	2288.689	1466	586
957.3534	2290.1368	1476.15	594
957.486	2291.5838	1470.6	587.2
957.6186	2293.0302	1466.55	583.2
957.7512	2294.4758	1461.8	580.45
957.8838	2295.9206	1456.4	572.9
958.0163	2297.3648	1459.8	579.25
958.1488	2298.8082	1463.7	582.45
958.2813	2300.251	1463.65	583.5
958.4137	2301.693	1458.65	576.3
958.5461	2303.1343	1463.3	584.75
958.6785	2304.5748	1453.85	573.6
958.8108	2306.0147	1452.55	572.1
958.9432	2307.4538	1453.85	573.25
959.0754	2308.8922	1452.6	576.75
959.2077	2310.3299	1442.75	561.8
959.3399	2311.7669	1442.35	563.3
959.4721	2313.2031	1441.5	563.8
959.6043	2314.6387	1445.35	565.75
959.7365	2316.0735	1435.4	555.05
959.8686	2317.5076	1448.4	568.15
960.0006	2318.941	1442.45	562.65
960.1327	2320.3737	1435.15	552.55
960.2647	2321.8056	1434.65	550.6
960.3967	2323.2369	1439.55	560.65
960.5287	2324.6674	1431.4	550.85
960.6606	2326.0972	1429.2	548
960.7925	2327.5263	1440.25	558.95
960.9244	2328.9547	1442.5	559.5
961.0562	2330.3823	1435.85	554
961.1881	2331.8092	1433	548.95
961.3198	2333.2355	1425.25	546.55
961.4516	2334.661	1427.3	544.85
961.5833	2336.0858	1427.95	544.75
961.715	2337.5098	1427.05	545.8
961.8467	2338.9332	1426.85	546.15
961.9783	2340.3558	1417.25	534.6
962.1099	2341.7778	1418.95	537.8
962.2415	2343.199	1418.05	535.9
962.373	2344.6195	1421.65	541
962.5045	2346.0393	1411.45	533.05
962.636	2347.4583	1416.5	535
962.7675	2348.8767	1419.05	536.95
962.8989	2350.2943	1418.65	536.65
963.0303	2351.7113	1419	536.6
963.1617	2353.1275	1417.55	534.15
963.293	2354.543	1437	529.05
963.4243	2355.9578	1423.35	541.85
963.5556	2357.3718	1412.45	530.35
963.6868	2358.7852	1407.4	523.45
963.818	2360.1978	1406.2	524.3
963.9492	2361.6098	1401.4	521.55
964.0803	2363.021	1408.7	523.75
964.2114	2364.4315	1407.6	530.05
964.3425	2365.8413	1402.1	521.05
964.4736	2367.2504	1399.5	520.6
964.6046	2368.6587	1392.95	509.2
964.7356	2370.0664	1397.3	518.5
964.8666	2371.4733	1399.65	519
964.9975	2372.8795	1393.8	509.4
965.1284	2374.285	1391.9	511.5
965.2593	2375.6899	1392.75	513.1
965.3901	2377.0939	1386.3	508.5
965.5209	2378.4973	1390.45	510.9
965.6517	2379.9	1389.55	507.15
965.7825	2381.3019	1388.55	508.65
965.9132	2382.7032	1391.25	509.2
966.0439	2384.1037	1376	496.5
966.1745	2385.5035	1383.65	503.4
966.3051	2386.9027	1371.7	491.5
966.4357	2388.3011	1375.55	492.2
966.5663	2389.6987	1379.35	498.4
966.6968	2391.0957	1367.85	489.2
966.8273	2392.492	1368.45	490.25
966.9578	2393.8876	1364.25	486.2
967.0882	2395.2824	1367.3	488.8
967.2186	2396.6765	1358.5	480.75
967.349	2398.07	1370.8	489.8
967.4793	2399.4627	1361.7	478.55
967.6097	2400.8547	1361.6	479.9
967.7399	2402.246	1370.75	483.5
967.8702	2403.6366	1357.5	477.75
968.0004	2405.0265	1351.85	471.15
968.1306	2406.4156	1356.05	472.2
968.2607	2407.8041	1354.8	472.95
968.3909	2409.1918	1354.65	473.7
968.521	2410.5789	1346.35	463.75
968.651	2411.9652	1360.35	474.7
968.781	2413.3508	1350.1	468.45
968.911	2414.7358	1349.15	467.2
969.041	2416.12	1346.65	466.75
969.1709	2417.5035	1343.8	464.4
969.3008	2418.8863	1346.85	465
969.4307	2420.2684	1346.25	466.15
969.5606	2421.6497	1342.4	460.3
969.6904	2423.0304	1337.5	457.2
969.8201	2424.4104	1347.3	464.55
969.9499	2425.7896	1347.45	459.5
970.0796	2427.1682	1345.15	465.1
970.2093	2428.546	1345.1	462.35
970.3389	2429.9232	1341.15	458
970.4685	2431.2996	1343.15	458.8
970.5981	2432.6753	1337.35	457.4
970.7277	2434.0503	1338.4	457.6
970.8572	2435.4246	1328.05	447.55
970.9867	2436.7982	1329.95	445.1
971.1161	2438.1711	1329.1	450.25
971.2456	2439.5433	1334.75	452.75
971.375	2440.9148	1330.05	444.85
971.5043	2442.2856	1322.7	440.35
971.6336	2443.6557	1321.3	437.65
971.7629	2445.025	1321.65	442.7
971.8922	2446.3937	1320.45	439.55
972.0214	2447.7617	1323.85	443.2
972.1506	2449.1289	1316.4	434.45
972.2798	2450.4955	1325.05	442.65
972.4089	2451.8613	1317.5	438.1
972.538	2453.2265	1313.45	432.35
972.6671	2454.5909	1312.15	430.5
972.7961	2455.9546	1315	436.1
972.9251	2457.3177	1314.6	434.2
973.0541	2458.68	1307.8	425.75
973.1831	2460.0416	1309.35	428.35
973.312	2461.4025	1310.7	427.5
973.4408	2462.7627	1321.45	428.7
973.5697	2464.1222	1308.3	429.55
973.6985	2465.4811	1310.95	430.1
973.8273	2466.8392	1312.25	430.85
973.956	2468.1966	1306.5	424.15
974.0847	2469.5533	1312.7	430.25
974.2134	2470.9093	1306	424.25
974.3421	2472.2645	1303.9	423.45
974.4707	2473.6191	1308.05	428.6
974.5993	2474.973	1301.15	421.1
974.7278	2476.3262	1307.6	425.85
974.8563	2477.6787	1302.7	423.45
974.9848	2479.0305	1300.7	420.65
975.1132	2480.3816	1306.75	423.55
975.2417	2481.7319	1304.6	424.15
975.37	2483.0816	1304.95	423.65
975.4984	2484.4306	1297.95	415.95
975.6267	2485.7789	1292.15	413.65
975.755	2487.1264	1299.3	416.7
975.8833	2488.4733	1291.1	411.35
976.0115	2489.8195	1314.9	417.35
976.1397	2491.165	1302.3	417.05
976.2678	2492.5097	1296.7	415.9
976.3959	2493.8538	1279.25	398.9
976.524	2495.1972	1290.25	408.5
976.6521	2496.5398	1290.5	408.65
976.7801	2497.8818	1291.95	409.5
976.9081	2499.2231	1283.25	402.05
977.036	2500.5637	1288.3	405.4
977.164	2501.9035	1283.05	401.75
977.2918	2503.2427	1286.9	403.75
977.4197	2504.5812	1284.9	406.65
977.5475	2505.919	1286.2	402.9
977.6753	2507.256	1279.05	399.95
977.8031	2508.5924	1285.65	402.8
977.9308	2509.9281	1285.6	399
978.0585	2511.2631	1277.95	399.6
978.1861	2512.5974	1278.95	399.6
978.3137	2513.9309	1273	391.85
978.4413	2515.2638	1303.9	391.25
978.5689	2516.596	1277.25	397.2
978.6964	2517.9275	1277.85	393.35
978.8239	2519.2583	1278.3	396.65
978.9513	2520.5884	1267.65	385.3
979.0788	2521.9178	1272.4	392.65
979.2062	2523.2465	1265.8	386.5
979.3335	2524.5745	1270.9	390.45
979.4608	2525.9018	1268.7	386.2
979.5881	2527.2284	1261.8	382.9
979.7154	2528.5543	1267.85	389.6
979.8426	2529.8796	1262.7	382
979.9698	2531.2041	1270.7	390.1
980.0969	2532.5279	1257.2	378.6
980.224	2533.851	1267.2	387
980.3511	2535.1735	1262.6	382
980.4781	2536.4952	1268.25	385.35
980.6052	2537.8163	1265.75	384.3
980.7321	2539.1366	1264.6	386.75
980.8591	2540.4562	1266.1	383.85
980.986	2541.7752	1262.25	381.5
981.1129	2543.0935	1264.45	383.95
981.2397	2544.411	1271.5	390.45
981.3665	2545.7279	1259.15	378.3
981.4933	2547.0441	1261.8	381.85
981.62	2548.3596	1256.2	371.9
981.7467	2549.6744	1253.6	373.7
981.8734	2550.9885	1265	374.95
982.0001	2552.3019	1255.5	375.5
982.1267	2553.6146	1259.7	379.25
982.2532	2554.9266	1261.85	382.1
982.3798	2556.2379	1262.8	383.3
982.5063	2557.5485	1257.8	378.45
982.6327	2558.8585	1259.65	372.65
982.7592	2560.1677	1261.05	377.2
982.8856	2561.4762	1262.9	380.55
983.0119	2562.7841	1259.8	375.95
983.1383	2564.0913	1247.75	367.05
983.2646	2565.3977	1250.15	370.85
983.3908	2566.7035	1253.9	371.65
983.517	2568.0086	1254.95	373.05
983.6432	2569.313	1249.3	369.15
983.7694	2570.6167	1261.8	379.75
983.8955	2571.9197	1246.85	368.7
984.0216	2573.222	1255.4	370.6
984.1476	2574.5236	1254.55	374.1
984.2737	2575.8246	1251.7	370.15
984.3996	2577.1248	1255.5	373.15
984.5256	2578.4244	1247.3	369.1
984.6515	2579.7232	1247.25	365.95
984.7774	2581.0214	1277.05	370.3
984.9032	2582.3189	1254.45	372.85
985.029	2583.6157	1259.15	374.85
985.1548	2584.9118	1248.95	367.75
985.2806	2586.2072	1247.9	368.3
985.4063	2587.5019	1249.35	368.35
985.5319	2588.7959	1251.4	372.6
985.6576	2590.0893	1251.9	371.15
985.7832	2591.3819	1251.7	370.6
985.9087	2592.6739	1243.2	365
986.0343	2593.9652	1252.85	371.65
986.1597	2595.2557	1255.2	374.85
986.2852	2596.5456	1252	370.25
986.4106	2597.8348	1255.75	377.35
986.536	2599.1234	1248.4	370.3
986.6614	2600.4112	1260.4	379.35
986.7867	2601.6983	1264.95	382.55
986.912	2602.9848	1257.95	377.9
987.0372	2604.2705	1258.75	373.5
987.1624	2605.5556	1256.3	377.35
987.2876	2606.84	1255.7	376.25
987.4128	2608.1237	1256.95	375.5
987.5379	2609.4067	1252.15	371.95
987.6629	2610.689	1255.1	366.15
987.788	2611.9707	1248.6	366.45
987.913	2613.2516	1250.75	366.25
988.0379	2614.5319	1240.35	363.1
988.1629	2615.8115	1242.55	363.85
988.2878	2617.0903	1239.85	358.05
988.4126	2618.3685	1235.25	355.65
988.5375	2619.6461	1232.05	352.05
988.6622	2620.9229	1234.1	355.4
988.787	2622.199	1240.5	360.55
988.9117	2623.4745	1235.9	355.3
989.0364	2624.7493	1231.95	353.55
989.161	2626.0234	1233.45	354.85
989.2857	2627.2968	1232.85	352.7
989.4102	2628.5695	1227.45	345.75
989.5348	2629.8415	1230.5	352.4
989.6593	2631.1128	1232.9	353.2
989.7837	2632.3835	1231.45	351.55
989.9082	2633.6535	1231.3	353.7
990.0326	2634.9228	1232.8	354.1
990.1569	2636.1914	1232.15	354.05
990.2812	2637.4593	1224.75	344.7
990.4055	2638.7265	1233.25	354.05
990.5298	2639.9931	1228.35	350.7
990.654	2641.259	1230.8	351.65
990.7782	2642.5242	1217.25	337.55
990.9023	2643.7887	1221.6	341.9
991.0264	2645.0525	1223.5	344
991.1505	2646.3156	1219.5	338.4
991.2745	2647.5781	1219.25	339.2
991.3985	2648.8398	1217.75	338.75
991.5225	2650.1009	1230.25	341.05
991.6464	2651.3613	1215.3	337.8
991.7703	2652.6211	1214.4	336.5
991.8942	2653.8801	1210.25	331.65
992.018	2655.1385	1215.85	333.3
992.1418	2656.3961	1210.9	333.45
992.2655	2657.6531	1212.8	333.4
992.3892	2658.9094	1218.4	339.4
992.5129	2660.1651	1218	339.65
992.6366	2661.42	1215.6	338.8
992.7602	2662.6743	1219.65	338.65
992.8837	2663.9279	1218.1	343.45
993.0073	2665.1808	1222.25	341.9
993.1307	2666.433	1222.9	342.6
993.2542	2667.6846	1220	341.95
993.3776	2668.9354	1223.35	342.3
993.501	2670.1856	1226.05	347.8
993.6244	2671.4351	1227.6	349.25
993.7477	2672.6839	1232.25	352.25
993.8709	2673.9321	1227.5	349.2
993.9942	2675.1795	1235.85	356.85
994.1174	2676.4263	1232.7	353.9
994.2405	2677.6724	1234.6	357.1
994.3637	2678.9179	1236.05	354.45
994.4868	2680.1626	1230.8	353.6
994.6098	2681.4067	1233.3	355.65
994.7328	2682.6501	1235.25	353.8
994.8558	2683.8928	1237.95	359.05
994.9788	2685.1348	1226.5	349.85
995.1017	2686.3761	1225.4	345.1
995.2245	2687.6168	1227.2	348.15
995.3474	2688.8568	1219.2	340.5
995.4702	2690.0961	1219.85	343.5
995.5929	2691.3348	1215.8	338.8
995.7156	2692.5727	1216.7	337.75
995.8383	2693.81	1212.6	333.9
995.961	2695.0466	1216.4	338.35
996.0836	2696.2826	1211.85	333.35
996.2062	2697.5178	1238.05	341.7
996.3287	2698.7524	1216.5	339
996.4512	2699.9863	1223.65	344.95
996.5737	2701.2195	1219	341.35
996.6961	2702.452	1218.75	338.5
996.8185	2703.6839	1231.9	352.05
996.9408	2704.9151	1229.65	353.6
997.0631	2706.1456	1230.15	351.2
997.1854	2707.3755	1239.65	361.8
997.3077	2708.6046	1250	368.7
997.4299	2709.8331	1254.35	376
997.552	2711.0609	1247.15	369.1
997.6742	2712.2881	1258.1	381.65
997.7963	2713.5145	1271.3	389.6
997.9183	2714.7403	1272.65	395.3
998.0403	2715.9654	1275.7	396.95
998.1623	2717.1899	1296.75	402
998.2842	2718.4136	1291.4	413.2
998.4062	2719.6367	1299.7	421.85
998.528	2720.8591	1310.75	426.35
998.6498	2722.0809	1318.6	440.6
998.7716	2723.3019	1334.05	453
998.8934	2724.5223	1337.2	458.1
999.0151	2725.7421	1340	459.9
999.1368	2726.9611	1334.35	454.55
999.2584	2728.1795	1342.35	458.4
999.38	2729.3972	1325.5	447.5
999.5016	2730.6142	1316.15	434
999.6231	2731.8306	1312.25	432.9
999.7446	2733.0462	1299.95	419.6
999.8661	2734.2612	1291.65	407.8
999.9875	2735.4756	1277.4	398.6
1000.1089	2736.6892	1266.65	386.7
1000.2302	2737.9022	1252.95	375.3
1000.3515	2739.1145	1244.35	364.9
1000.4728	2740.3262	1246.75	361.2
1000.594	2741.5372	1229.9	354.3
1000.7152	2742.7475	1230.9	352.5
1000.8363	2743.9571	1224.45	345.45
1000.9575	2745.1661	1217.55	334.2
1001.0785	2746.3744	1208.1	329.65
1001.1996	2747.582	1199.85	321.9
1001.3206	2748.7889	1201.7	321.1
1001.4415	2749.9952	1186.35	310.9
1001.5625	2751.2008	1188.1	309.4
1001.6833	2752.4057	1185.95	304.85
1001.8042	2753.61	1184.15	305.8
1001.925	2754.8136	1186.7	306.8
1002.0458	2756.0165	1179.6	301.8
1002.1665	2757.2188	1177.15	301.35
1002.2872	2758.4204	1184.9	306.75
1002.4078	2759.6213	1179.1	297.45
1002.5285	2760.8215	1188.4	306.2
1002.649	2762.0211	1182.8	302.65
1002.7696	2763.22	1185.35	305.2
1002.8901	2764.4182	1183.35	303.6
1003.0106	2765.6158	1176	298.45
1003.131	2766.8127	1173.5	295.8
1003.2514	2768.009	1174.6	298.65
1003.3717	2769.2045	1172.9	295.25
1003.492	2770.3994	1173.45	293.55
1003.6123	2771.5936	1167.3	289.55
1003.7325	2772.7872	1159.95	283.7
1003.8527	2773.9801	1159.4	281.05
1003.9729	2775.1723	1177.35	283.2
1004.093	2776.3639	1159	283.6
1004.2131	2777.5548	1159.3	279.4
1004.3331	2778.745	1159.85	279.35
1004.4531	2779.9346	1160.15	283.2
1004.5731	2781.1235	1160.25	281.05
1004.693	2782.3117	1166.75	291.2
1004.8129	2783.4992	1165.6	288.6
1004.9328	2784.6861	1165.95	288.35
1005.0526	2785.8723	1169.1	290.5
1005.1723	2787.0579	1172.6	293.9
1005.2921	2788.2428	1170.5	292.15
1005.4118	2789.427	1169.7	293.75
1005.5314	2790.6106	1177	300
1005.651	2791.7935	1183.55	303.7
1005.7706	2792.9757	1183.5	307.45
1005.8902	2794.1573	1191.45	311.6
1006.0097	2795.3382	1199.95	323.55
1006.1291	2796.5184	1196.25	319.4
1006.2485	2797.698	1202.95	323.5
1006.3679	2798.8769	1209.7	332.95
1006.4873	2800.0551	1217.35	340.45
1006.6066	2801.2327	1233.2	354.95
1006.7258	2802.4096	1233.15	357.05
1006.8451	2803.5859	1246	367.7
1006.9642	2804.7615	1252.75	375.9
1007.0834	2805.9364	1268.45	392.05
1007.2025	2807.1106	1283.5	408.9
1007.3216	2808.2842	1295.35	417.45
1007.4406	2809.4572	1313.25	435.65
1007.5596	2810.6294	1340.15	462.75
1007.6785	2811.801	1365.4	488.75
1007.7975	2812.972	1391.9	514.35
1007.9163	2814.1423	1415.85	540.95
1008.0352	2815.3119	1443.1	566.1
1008.154	2816.4808	1476.65	601.8
1008.2727	2817.6491	1505.25	624.55
1008.3914	2818.8167	1556.8	680.5
1008.5101	2819.9837	1599.7	718.2
1008.6288	2821.15	1633.15	756
1008.7474	2822.3157	1671	794.8
1008.8659	2823.4807	1723	846.35
1008.9844	2824.645	1754.85	877
1009.1029	2825.8086	1805.35	929.9
1009.2214	2826.9716	1849.55	971.2
1009.3398	2828.134	1884.65	1008.55
1009.4581	2829.2957	1925.75	1048.95
1009.5764	2830.4567	1935.7	1060.05
1009.6947	2831.617	1969	1093.75
1009.813	2832.7767	1976.75	1101.3
1009.9312	2833.9358	1968.4	1093.4
1010.0493	2835.0941	1966.55	1086.3
1010.1675	2836.2519	1952.4	1075.85
1010.2855	2837.4089	1942.05	1064.65
1010.4036	2838.5653	1924.65	1048.1
1010.5216	2839.7211	1921.3	1045
1010.6396	2840.8761	1921.35	1044.75
1010.7575	2842.0306	1916.7	1041.95
1010.8754	2843.1843	1925.05	1050.2
1010.9932	2844.3374	1954.35	1077.8
1011.111	2845.4899	1977.95	1100.6
1011.2288	2846.6417	2017.7	1141.9
1011.3465	2847.7928	2055.15	1179.65
1011.4642	2848.9433	2096.65	1220.5
1011.5818	2850.0931	2134.1	1256.2
1011.6995	2851.2422	2184.1	1305.25
1011.817	2852.3907	2210.7	1333
1011.9345	2853.5385	2251.75	1375.05
1012.052	2854.6857	2294.2	1390
1012.1695	2855.8323	2315.15	1439.15
1012.2869	2856.9781	2343.6	1468.05
1012.4042	2858.1233	2394.4	1517.9
1012.5216	2859.2679	2429.4	1551.7
1012.6389	2860.4118	2458.2	1580.8
1012.7561	2861.555	2510.9	1629.3
1012.8733	2862.6976	2537.65	1659.7
1012.9905	2863.8395	2560.45	1687.6
1013.1076	2864.9808	2583.95	1707.95
1013.2247	2866.1214	2594.8	1720.05
1013.3417	2867.2614	2613.55	1737.65
1013.4587	2868.4007	2616.65	1737.6
1013.5757	2869.5393	2625.2	1745.4
1013.6926	2870.6773	2648.25	1767.25
1013.8095	2871.8146	2655.95	1776.35
1013.9263	2872.9513	2651.3	1770.75
1014.0431	2874.0874	2636.3	1758.7
1014.1599	2875.2227	2627.75	1751.3
1014.2766	2876.3574	2616.05	1739.55
1014.3933	2877.4915	2600.7	1725.55
1014.51	2878.6249	2570.9	1695.65
1014.6266	2879.7577	2566.65	1688.65
1014.7431	2880.8898	2556.35	1669.5
1014.8596	2882.0212	2539.25	1666.2
1014.9761	2883.152	2541.3	1664.3
1015.0925	2884.2821	2531.95	1655
1015.2089	2885.4116	2523.9	1648.25
1015.3253	2886.5405	2529.4	1652.95
1015.4416	2887.6686	2546.35	1667
1015.5579	2888.7962	2541.05	1666.4
1015.6741	2889.923	2548.6	1671.55
1015.7903	2891.0493	2550.7	1676.7
1015.9065	2892.1748	2566.7	1691.9
1016.0226	2893.2997	2573	1695.85
1016.1387	2894.424	2578.65	1703.55
1016.2547	2895.5476	2602.85	1727
1016.3707	2896.6706	2606.2	1731.15
1016.4866	2897.7929	2636.7	1759.9
1016.6025	2898.9145	2646.55	1767.75
1016.7184	2900.0355	2658.1	1780.5
1016.8342	2901.1559	2675.2	1797.4
1016.95	2902.2756	2696.1	1819.05
1017.0658	2903.3946	2701.1	1826.3
1017.1815	2904.513	2729.8	1853.1
1017.2971	2905.6308	2745.5	1871.15
1017.4127	2906.7479	2761.25	1882.35
1017.5283	2907.8643	2784.55	1908.1
1017.6439	2908.9801	2782.8	1905.45
1017.7594	2910.0953	2784.35	1908.15
1017.8748	2911.2098	2795.75	1916.35
1017.9902	2912.3236	2768.1	1883.25
1018.1056	2913.4368	2769.5	1889.65
1018.2209	2914.5494	2741.3	1865.5
1018.3362	2915.6613	2730	1847.5
1018.4515	2916.7725	2699.8	1820.45
1018.5667	2917.8831	2684.95	1808.05
1018.6819	2918.9931	2650.9	1771.25
1018.797	2920.1024	2654.9	1777.9
1018.9121	2921.211	2619.35	1744.45
1019.0271	2922.319	2609.15	1732.2
1019.1421	2923.4264	2607.8	1731.3
1019.2571	2924.5331	2601.1	1727.9
1019.372	2925.6391	2590.95	1715.75
1019.4869	2926.7445	2595.5	1720.4
1019.6017	2927.8493	2601.45	1724
1019.7165	2928.9534	2604.85	1728.4
1019.8313	2930.0569	2615.65	1735.85
1019.946	2931.1597	2613.25	1737.3
1020.0606	2932.2619	2614.2	1738.45
1020.1753	2933.3634	2631.55	1756.3
1020.2899	2934.4643	2637.9	1752.65
1020.4044	2935.5645	2635.2	1752.1
1020.5189	2936.6641	2621.75	1743.75
1020.6334	2937.763	2603.85	1729.25
1020.7478	2938.8613	2586	1708.6
1020.8622	2939.959	2552.25	1671.35
1020.9765	2941.056	2517.9	1643.2
1021.0908	2942.1523	2463.35	1586
1021.2051	2943.248	2429.5	1553.35
1021.3193	2944.3431	2352.6	1474.45
1021.4334	2945.4375	2286	1409.4
1021.5476	2946.5313	2224.7	1349.3
1021.6617	2947.6244	2144.85	1266.65
1021.7757	2948.7169	2080.55	1202.75
1021.8897	2949.8087	2017.5	1142.9
1022.0037	2950.8999	1957.7	1083.1
1022.1176	2951.9904	1897.75	1025.4
1022.2315	2953.0803	1860.8	984.35
1022.3453	2954.1696	1823.15	947.15
1022.4591	2955.2582	1785.8	909.9
1022.5728	2956.3462	1749	872.25
1022.6865	2957.4335	1730.95	852.7
1022.8002	2958.5202	1707.25	829.65
1022.9138	2959.6062	1672.8	795.75
1023.0274	2960.6916	1673.75	796.35
1023.141	2961.7764	1658.45	781.5
1023.2545	2962.8605	1645.7	768
1023.3679	2963.9439	1637.8	760.8
1023.4813	2965.0267	1627.05	749.6
1023.5947	2966.1089	1649.6	751.9
1023.708	2967.1905	1632	758.4
1023.8213	2968.2714	1624.5	749
1023.9346	2969.3516	1627.8	753.4
1024.0478	2970.4312	1633.7	748.95
1024.1609	2971.5102	1624.6	748.95
1024.274	2972.5885	1631.8	754.55
1024.3871	2973.6662	1636.95	755.95
1024.5002	2974.7432	1632.2	756.8
1024.6132	2975.8196	1639.95	764.2
1024.7261	2976.8954	1626.75	753.1
1024.839	2977.9705	1618.05	742.75
1024.9519	2979.045	1631.8	755.65
1025.0647	2980.1188	1615.8	740.55
1025.1775	2981.192	1600.15	725.1
1025.2902	2982.2645	1587.85	711.5
1025.4029	2983.3364	1570.4	693.9
1025.5156	2984.4077	1567.2	692.5
1025.6282	2985.4783	1536.55	652.7
1025.7407	2986.5483	1512.2	639.25
1025.8532	2987.6177	1492.7	618.25
1025.9657	2988.6864	1465.05	589.45
1026.0782	2989.7545	1453.6	577.35
1026.1906	2990.8219	1431.2	555.35
1026.3029	2991.8887	1400.1	521.8
1026.4152	2992.9548	1377.15	500.4
1026.5275	2994.0204	1346.15	470.55
1026.6397	2995.0852	1336.95	460.5
1026.7519	2996.1495	1315.25	439.8
1026.864	2997.2131	1297	420.75
1026.9761	2998.276	1281.35	406.8
1027.0882	2999.3383	1264.35	387.3
1027.2002	3000.4	1249.4	372.9
1027.3122	3001.4611	1230.55	355.65
1027.4241	3002.5215	1227.25	351.9
1027.536	3003.5812	1205.1	327.95
1027.6478	3004.6404	1195.15	321.25
1027.7596	3005.6989	1185.8	308
1027.8714	3006.7567	1179.6	303.35
1027.9831	3007.8139	1197.15	292.9
1028.0947	3008.8705	1161.75	286.85
1028.2064	3009.9264	1161.3	282.45
1028.3179	3010.9818	1148.2	275.1
1028.4295	3012.0364	1150.15	274.8
1028.541	3013.0905	1139.2	264.1
1028.6524	3014.1439	1130.7	254.25
1028.7638	3015.1966	1133	257.85
1028.8752	3016.2487	1127.05	251.75
1028.9865	3017.3002	1129.95	250.65
1029.0978	3018.3511	1120.6	249.1
1029.209	3019.4013	1122.2	247.1
1029.3202	3020.4509	1121	247.6
1029.4314	3021.4998	1121	243.95
1029.5425	3022.5481	1109.75	234.1
1029.6535	3023.5958	1111.9	238
1029.7645	3024.6428	1115.5	239.35
1029.8755	3025.6892	1111.7	236.9
1029.9864	3026.735	1115.05	238.35
1030.0973	3027.7802	1111.9	237.4
1030.2082	3028.8247	1106.15	232.9
1030.319	3029.8685	1112.15	237.75
1030.4297	3030.9118	1113.85	237.05
1030.5404	3031.9544	1110.45	235.8
1030.6511	3032.9963	1113.1	236.3
1030.7617	3034.0376	1117.7	241.75
1030.8723	3035.0783	1115.6	236.05
1030.9829	3036.1184	1118.9	241.45
1031.0934	3037.1578	1117.05	243.9
1031.2038	3038.1966	1118.45	243.5
1031.3142	3039.2348	1121.35	246.5
1031.4246	3040.2723	1129.4	246.05
1031.5349	3041.3092	1121.1	244.85
1031.6452	3042.3455	1123.4	246.9
1031.7554	3043.3811	1119.2	242.5
1031.8656	3044.4161	1119	242.7
1031.9758	3045.4505	1121	247.15
1032.0859	3046.4842	1127.35	251.6
1032.1959	3047.5173	1118.9	244.6
1032.3059	3048.5498	1119.45	243.1
1032.4159	3049.5816	1111.4	235.7
1032.5258	3050.6128	1118.5	241.45
1032.6357	3051.6434	1116.75	238.65
1032.7455	3052.6734	1111.9	235.35
1032.8553	3053.7027	1112.55	236.65
1032.9651	3054.7314	1106.4	233.8
1033.0748	3055.7594	1108.5	234.75
1033.1845	3056.7868	1109.3	234.4
1033.2941	3057.8136	1105.45	230.1
1033.4037	3058.8398	1105.8	231.1
1033.5132	3059.8653	1106.15	229.95
1033.6227	3060.8902	1104.7	231.2
1033.7321	3061.9145	1102.9	228.15
1033.8415	3062.9381	1102	228.1
1033.9509	3063.9612	1116.35	224
1034.0602	3064.9835	1101.1	226.35
1034.1694	3066.0053	1098.8	220.2
1034.2787	3067.0264	1097.75	223
1034.3878	3068.0469	1094	217.3
1034.497	3069.0668	1093.05	216.15
1034.6061	3070.086	1087.65	213.9
1034.7151	3071.1046	1083.85	210.5
1034.8241	3072.1226	1081.7	204
1034.9331	3073.1399	1075.65	202.4
1035.042	3074.1567	1071.8	197
1035.1508	3075.1727	1070.45	191.75
1035.2597	3076.1882	1062	187.55
1035.3684	3077.203	1061.85	187.25
1035.4772	3078.2173	1055.5	178.75
1035.5859	3079.2308	1060.4	182
1035.6945	3080.2438	1048.75	171.8
1035.8031	3081.2561	1042.75	168.4
1035.9117	3082.2678	1039.65	165.4
1036.0202	3083.2789	1034.4	160.2
1036.1286	3084.2893	1035.3	160.6
1036.2371	3085.2991	1027.65	150.9
1036.3454	3086.3083	1028.4	148.95
1036.4538	3087.3169	1025.3	147.7
1036.562	3088.3248	1019.7	144.65
1036.6703	3089.3321	1016.25	138.5
1036.7785	3090.3388	1015.75	140.95
1036.8866	3091.3449	1015.3	141
1036.9948	3092.3503	1013.75	136.35
1037.1028	3093.3551	1004.25	130.45
1037.2108	3094.3593	1004.7	132.9
1037.3188	3095.3629	1005.7	128.4
1037.4267	3096.3658	1001.95	123.9
1037.5346	3097.3681	997.3	121.7
1037.6425	3098.3698	997.2	119.45
1037.7503	3099.3708	1002.7	120.15
1037.858	3100.3713	992.7	120.3
1037.9657	3101.3711	991.65	116.7
1038.0734	3102.3702	1125.4	112.75
1038.181	3103.3688	987.5	112.1
1038.2886	3104.3667	980.8	107.95
1038.3961	3105.364	984.6	109.85
1038.5036	3106.3607	980.2	104.7
1038.611	3107.3568	980.9	106.15
1038.7184	3108.3522	982.2	108.7
1038.8257	3109.347	981.1	104.6
1038.933	3110.3412	978.35	97.9
1039.0403	3111.3348	973.3	100.55
1039.1475	3112.3277	976.95	102.55
1039.2547	3113.32	974.3	100.3
1039.3618	3114.3117	973.45	97.4
1039.4689	3115.3028	968.3	93.55
1039.5759	3116.2932	971.8	93.7
1039.6829	3117.2831	972.95	92.6
1039.7898	3118.2723	965.65	91.55
1039.8967	3119.2608	965.6	91.1
1040.0035	3120.2488	965.55	92.3
1040.1103	3121.2361	963.15	87.3
1040.2171	3122.2229	962.55	87.6
1040.3238	3123.209	962.65	86.2
1040.4305	3124.1944	962.85	86.5
1040.5371	3125.1793	958.65	81.05
1040.6437	3126.1635	961.7	88
1040.7502	3127.1471	958.4	85.85
1040.8567	3128.1301	956.15	82.95
1040.9631	3129.1125	955.85	82.9
1041.0695	3130.0942	956.7	83.65
1041.1759	3131.0753	965.1	82.8
1041.2822	3132.0558	957.4	79.95
1041.3884	3133.0357	951.8	74.95
1041.4946	3134.015	953.65	77.05
1041.6008	3134.9936	956.75	79.5
1041.7069	3135.9716	973.95	77.4
1041.813	3136.949	950.55	76.9
1041.919	3137.9258	967.4	72.65
1042.025	3138.902	957.65	78.5
1042.1309	3139.8775	951.75	77.95
1042.2368	3140.8524	949.1	74.1
1042.3427	3141.8267	946.2	69.45
1042.4485	3142.8004	946.5	70.65
1042.5542	3143.7735	948.4	66.25
1042.6599	3144.7459	945.25	69.2
1042.7656	3145.7178	946.4	71.2
1042.8712	3146.689	945.6	73.7
1042.9768	3147.6596	945.15	67.15
1043.0823	3148.6295	940.1	62.85
1043.1878	3149.5989	939.15	64
1043.2932	3150.5676	942.75	68.15
1043.3986	3151.5357	940.75	65.85
1043.5039	3152.5032	940.65	66.1
1043.6092	3153.4701	938.15	63.4
1043.7145	3154.4364	941.85	64.2
1043.8197	3155.402	940.45	64.65
1043.9248	3156.367	939.9	64.1
1044.03	3157.3315	973.65	61.95
1044.135	3158.2952	937.9	64.8
1044.24	3159.2584	936.65	60.95
1044.345	3160.221	936.5	60.65
1044.4499	3161.1829	936.95	63
1044.5548	3162.1442	936.65	61.6
1044.6596	3163.105	936.7	62.35
1044.7644	3164.065	936	60.35
1044.8692	3165.0245	936.55	58.5
1044.9739	3165.9834	932.45	58.5
1045.0785	3166.9416	932.45	57.6
1045.1831	3167.8993	935.55	59.45
1045.2877	3168.8563	931.65	57.65
1045.3922	3169.8127	932	56.65
1045.4966	3170.7684	931.75	57.65
1045.6011	3171.7236	933.45	55.85
1045.7054	3172.6782	931.05	56.05
1045.8098	3173.6321	934.05	58.35
1045.914	3174.5854	938.15	58.75
1046.0183	3175.5381	930.05	57.8
1046.1224	3176.4902	928.85	54.85
1046.2266	3177.4417	930.3	54.75
1046.3307	3178.3926	927.9	52.9
1046.4347	3179.3428	926.95	54.6
1046.5387	3180.2924	928.3	54.3
1046.6427	3181.2415	930.05	54.65
1046.7466	3182.1899	929.65	54.3
1046.8504	3183.1377	926.55	52.2
1046.9542	3184.0848	932.4	54.9
1047.058	3185.0314	926.7	51.8
1047.1617	3185.9773	927.5	53.2
1047.2654	3186.9227	925.6	51.1
1047.369	3187.8674	927.6	53.6
1047.4726	3188.8115	927.85	48.3
1047.5761	3189.755	924.35	50.15
1047.6796	3190.6979	923.85	47.95
1047.783	3191.6402	922.65	49.2
1047.8864	3192.5818	925.1	49.3
1047.9898	3193.5229	937.45	48.65
1048.0931	3194.4633	924.05	51
1048.1963	3195.4031	922.4	46.25
1048.2995	3196.3423	920.1	44.95
1048.4027	3197.2809	921.35	47.35
1048.5058	3198.2189	921.5	46.45
1048.6089	3199.1563	938.8	46.25
1048.7119	3200.0931	918.35	45.65
1048.8148	3201.0292	919.75	45.35
1048.9178	3201.9648	920.45	46.3
1049.0206	3202.8997	920.65	40.95
1049.1235	3203.834	920.5	47.4
1049.2262	3204.7677	920.3	44.65
1049.329	3205.7008	920.95	43.4
1049.4317	3206.6333	915.55	43.75
1049.5343	3207.5652	919.55	42.1
1049.6369	3208.4964	919.7	45.8
1049.7394	3209.4271	918.7	44.9
1049.8419	3210.3571	917.8	42.85
1049.9444	3211.2865	918.45	43.3
1050.0468	3212.2154	915.95	38.95
1050.1491	3213.1436	920.6	42.15
1050.2514	3214.0712	925.6	44.45
1050.3537	3214.9982	916.55	42.1
1050.4559	3215.9246	917.2	43
1050.5581	3216.8503	915.7	42.6
1050.6602	3217.7755	912.75	37.85
1050.7623	3218.7001	916.1	41.1
1050.8643	3219.624	915.6	39.75
1050.9663	3220.5473	915.75	43.7
1051.0682	3221.4701	915.85	39.2
1051.1701	3222.3922	918.55	40.7
1051.2719	3223.3137	913.85	39
1051.3737	3224.2346	914.3	39.8
1051.4754	3225.1549	914	42.3
1051.5771	3226.0746	914.4	41.35
1051.6788	3226.9937	912.05	36.65
1051.7804	3227.9121	911.7	39.5
1051.8819	3228.83	912.2	36.6
1051.9834	3229.7473	915.25	39.95
1052.0849	3230.6639	911.8	36.05
1052.1863	3231.5799	912.9	37.95
1052.2876	3232.4954	911.95	35.5
1052.3889	3233.4102	912.4	38.1
1052.4902	3234.3244	909.75	34.45
1052.5914	3235.238	910.25	37.3
1052.6926	3236.151	931.85	31.7
1052.7937	3237.0634	911.1	37.85
1052.8948	3237.9752	910.45	34.35
1052.9958	3238.8864	909.85	32.5
1053.0968	3239.797	910.4	36.55
1053.1977	3240.7069	909.3	33.75
1053.2986	3241.6163	912.4	37.6
1053.3994	3242.5251	907.85	33.9
1053.5002	3243.4332	908.9	35.8
1053.6009	3244.3408	910.25	35.4
1053.7016	3245.2477	907.95	33.4
1053.8022	3246.154	909.35	33.3
1053.9028	3247.0598	906.65	30.05
1054.0034	3247.9649	906.1	30.45
1054.1039	3248.8694	908.2	34.3
1054.2043	3249.7733	904.3	29.85
1054.3047	3250.6766	907.6	33.1
1054.4051	3251.5793	907.55	31.6
1054.5054	3252.4814	906.6	31.9
1054.6056	3253.3829	904.55	30.65
1054.7058	3254.2838	904.35	29.95
1054.806	3255.1841	904.05	29.4
1054.9061	3256.0838	905.55	30.85
1055.0061	3256.9829	903.25	29.9
1055.1062	3257.8814	905.05	28.95
1055.2061	3258.7792	906.3	30.15
1055.306	3259.6765	906.1	30.75
1055.4059	3260.5731	902.2	27.3
1055.5057	3261.4692	904.8	28.65
1055.6055	3262.3647	903.25	28.65
1055.7052	3263.2595	900.6	25.3
1055.8049	3264.1538	902	30.55
1055.9045	3265.0474	901.4	26.6
1056.0041	3265.9404	901.45	27.05
1056.1036	3266.8329	899.2	24.45
1056.2031	3267.7247	910.1	25.35
1056.3025	3268.616	899.75	25.8
1056.4019	3269.5066	899.55	24.25
1056.5013	3270.3966	897.95	22.05
1056.6005	3271.286	894.75	21.35
