Software Version:	3.9.2.0
Unit SN:	10000200
Spectrometer SN:	6960
Date:	3/8/2024 1:06:48 PM
Data Line Index:	25
Spectral Points:	2048
Integration time (ms):	125
Averages:	20
Delay (ms):	30000
Sequence Number:	1
Processing:	dark subtract
Laser Power (mW):	305
Laser Current (mA):	822
Laser Diode Temp (C):	25
Laser Case Temp (C):	26.1
System Temp (C):	26.1
Spectrometer Temp (C):	23.9
CCD Temp (C):	0.007
Secondary Temp (C):	20.014
Heatsink Temp (C):	21.145
CCDPCB Temp (C):	36.207
SecondaryPCB Temp (C):	30.882

Wavelength	RamanShift	Raw Counts	Dark Subtracted
787.061	30.1047	459.15	50.55
787.2016	32.3739	457.85	51.75
787.3422	34.6426	462.6	54
787.4828	36.9109	468.05	59.25
787.6235	39.1787	476.9	64.15
787.7642	41.4461	485.7	68.45
787.9049	43.7131	492.95	71.1
788.0456	45.9796	501.95	79.2
788.1863	48.2456	510	83.15
788.3271	50.5112	521.85	89.6
788.4679	52.7764	530.55	95.2
788.6087	55.0411	540.6	100.5
788.7496	57.3054	551.4	104.85
788.8904	59.5692	561.8	115.2
789.0313	61.8326	574.35	126.15
789.1722	64.0955	580.5	129.55
789.3132	66.3579	598.1	139.75
789.4541	68.6199	619.1	156
789.5951	70.8815	652.3	183.95
789.7361	73.1426	732.75	262.8
789.8771	75.4032	940.65	467.65
790.0181	77.6634	1442.7	964.15
790.1592	79.9231	2627.9	2143.25
790.3003	82.1824	5158.2	4652.3
790.4414	84.4412	9718	9183.45
790.5825	86.6995	16009.35	15438.7
790.7237	88.9574	22111	21511.55
790.8648	91.2148	26304	25681.35
791.006	93.4717	28201.1	27567.7
791.1472	95.7282	28566.6	27919.8
791.2885	97.9842	28349.85	27700.3
791.4297	100.2398	27740.35	27091.3
791.571	102.4949	27037.95	26379.3
791.7123	104.7495	26176.15	25523.1
791.8536	107.0036	25312.65	24655.3
791.9949	109.2573	24522.05	23869.6
792.1363	111.5105	23821	23159.85
792.2777	113.7632	23133.25	22473.25
792.4191	116.0154	22570.8	21898
792.5605	118.2672	22154.5	21487.75
792.7019	120.5185	21767.05	21098.55
792.8434	122.7693	21446.95	20775.15
792.9849	125.0197	21155.35	20482.15
793.1264	127.2696	20901.05	20230.1
793.2679	129.519	20719	20039.1
793.4094	131.7679	20476.95	19793.35
793.551	134.0163	20240.5	19555.7
793.6926	136.2642	19976.1	19284.2
793.8342	138.5117	19698.75	18996.1
793.9758	140.7587	19418.35	18724.2
794.1175	143.0052	19155.9	18460.3
794.2591	145.2512	18834.25	18136.6
794.4008	147.4967	18599.55	17900.8
794.5425	149.7417	18416.15	17717.95
794.6842	151.9863	18257.75	17554.95
794.826	154.2304	18151.95	17443.15
794.9677	156.4739	18000.4	17284.15
795.1095	158.717	17935.2	17221
795.2513	160.9596	17759.7	17040.55
795.3931	163.2017	17479.8	16758.6
795.535	165.4433	17225.15	16503.05
795.6768	167.6844	16892.85	16171.6
795.8187	169.925	16602	15872.6
795.9606	172.1651	16235.2	15507.5
796.1025	174.4047	15997.6	15264.75
796.2445	176.6439	15739	15005
796.3864	178.8825	15542.15	14808.8
796.5284	181.1206	15401.85	14660
796.6704	183.3582	15234.85	14492.45
796.8124	185.5954	15162.05	14417.9
796.9544	187.832	15075.45	14326.2
797.0965	190.0681	15031.95	14280.9
797.2386	192.3037	15062.75	14303.45
797.3806	194.5388	15057.25	14298.6
797.5228	196.7734	15097.6	14337.45
797.6649	199.0075	15156.55	14394
797.807	201.2411	15316.35	14552
797.9492	203.4742	15358.1	14590.85
798.0914	205.7068	15542.8	14771.95
798.2336	207.9389	15642.45	14869
798.3758	210.1704	15764.9	14998.25
798.518	212.4015	15862.55	15100.6
798.6603	214.632	16049.05	15296.95
798.8025	216.862	16225.35	15478.7
798.9448	219.0915	16345.35	15595.2
799.0871	221.3205	16515.1	15764.5
799.2294	223.549	16671.95	15922.05
799.3718	225.777	16892.8	16142.45
799.5141	228.0044	17086.15	16331.65
799.6565	230.2314	17364.85	16610.25
799.7989	232.4578	17651.5	16891.15
799.9413	234.6837	17860	17095.55
800.0837	236.909	18003.55	17234.25
800.2262	239.1339	18009.55	17214
800.3687	241.3582	17888.45	17108.05
800.5111	243.582	17652.4	16841.2
800.6536	245.8053	17494.55	16693.75
800.7961	248.0281	17316.3	16523.2
800.9387	250.2503	17200.1	16406.25
801.0812	252.472	17203.05	16403.3
801.2238	254.6932	17248.35	16449.85
801.3664	256.9139	17269	16470.85
801.509	259.134	17393.25	16589.35
801.6516	261.3536	17489.1	16690.5
801.7942	263.5727	17713.8	16911.15
801.9369	265.7912	17838.75	17039
802.0795	268.0092	18037.25	17234.5
802.2222	270.2267	18097.25	17294.55
802.3649	272.4436	18122.75	17319.6
802.5076	274.6601	18112.9	17300.1
802.6504	276.8759	18036.75	17230.4
802.7931	279.0913	17958.55	17146.3
802.9359	281.3061	17842.8	17033
803.0787	283.5204	17825.75	17008.35
803.2215	285.7341	17848.05	17028.9
803.3643	287.9473	17958.9	17131.9
803.5071	290.16	18081.85	17254.9
803.6499	292.3721	18264	17448.6
803.7928	294.5837	18568.45	17750.15
803.9357	296.7947	18877.35	18058.65
804.0786	299.0052	19066.35	18249
804.2215	301.2152	18962.25	18141
804.3644	303.4246	18731.45	17911.6
804.5074	305.6334	18274.05	17459.75
804.6503	307.8418	17846.75	17026.5
804.7933	310.0495	17421.45	16597.75
804.9363	312.2568	17096.3	16273.15
805.0793	314.4635	16784.65	15961.75
805.2223	316.6696	16619	15795.35
805.3653	318.8752	16476.65	15640.65
805.5084	321.0802	16432.9	15606.25
805.6514	323.2847	16526.3	15693.45
805.7945	325.4887	16568.15	15739.05
805.9376	327.692	16538.15	15705.35
806.0807	329.8949	16479.5	15645.4
806.2238	332.0972	16254.2	15422.1
806.367	334.2989	16000.05	15163.8
806.5101	336.5001	15782.65	14946.45
806.6533	338.7007	15562.8	14722.3
806.7965	340.9008	15454.1	14613.5
806.9397	343.1003	15299.5	14455.75
807.0829	345.2992	15255.25	14413
807.2261	347.4976	15198.05	14354.1
807.3693	349.6955	15159.15	14311.15
807.5126	351.8927	15158	14309.55
807.6559	354.0895	15151.8	14292.05
807.7991	356.2856	15153.5	14299
807.9424	358.4812	15133.6	14280.45
808.0857	360.6763	15130.7	14277.55
808.2291	362.8707	15131.35	14280.2
808.3724	365.0646	15158.4	14304.75
808.5158	367.258	15213.3	14359.5
808.6591	369.4508	15243.9	14387.35
808.8025	371.643	15381.05	14518
808.9459	373.8346	15410	14549.25
809.0893	376.0257	15458.9	14594.85
809.2327	378.2162	15423.4	14563.5
809.3762	380.4062	15361.95	14499.7
809.5196	382.5956	15243.95	14380.95
809.6631	384.7844	15144.95	14287.6
809.8066	386.9726	15033.6	14179.05
809.9501	389.1603	14976	14122.5
810.0936	391.3474	14927.5	14043.15
810.2371	393.5339	14890.65	14033.8
810.3806	395.7199	14867.3	14009.8
810.5241	397.9052	14904.15	14052.15
810.6677	400.09	14938.65	14085.65
810.8113	402.2743	15031.4	14174.9
810.9548	404.4579	15162.55	14307.5
811.0984	406.641	15349.4	14487.85
811.2421	408.8235	15548.45	14688.4
811.3857	411.0054	15793.05	14933.5
811.5293	413.1868	16070.65	15202.1
811.673	415.3675	16259.4	15392.5
811.8166	417.5477	16379.15	15511.85
811.9603	419.7273	16342.2	15472
812.104	421.9064	16284.55	15408.05
812.2477	424.0848	16201	15328.2
812.3914	426.2627	15999.75	15125.2
812.5351	428.4399	15766.15	14895.05
812.6788	430.6166	15417.3	14542.45
812.8226	432.7928	15110.95	14237.4
812.9663	434.9683	14806.5	13934.5
813.1101	437.1432	14580.95	13704.9
813.2539	439.3176	14427.4	13557.75
813.3977	441.4914	14327.85	13462.3
813.5415	443.6645	14328.65	13457.35
813.6853	445.8371	14264.65	13390.45
813.8291	448.0091	14185.75	13313.2
813.973	450.1806	14156.85	13286.3
814.1168	452.3514	14130.55	13260.4
814.2607	454.5216	14187.6	13309.85
814.4046	456.6913	14144.4	13267.5
814.5485	458.8603	14172.9	13298.35
814.6924	461.0288	14238	13368.85
814.8363	463.1967	14230.7	13364
814.9802	465.3639	14304.3	13431.85
815.1241	467.5306	14341.7	13470.15
815.2681	469.6967	14413.6	13541.3
815.412	471.8622	14484	13620.05
815.556	474.0271	14617.5	13745.8
815.7	476.1914	14657	13777.9
815.844	478.3551	14605.25	13732.75
815.988	480.5182	14673.4	13801.8
816.132	482.6807	14721.6	13855.85
816.276	484.8426	14862.25	14001.1
816.4201	487.0039	15142.55	14275.9
816.5641	489.1647	15553.45	14679.25
816.7082	491.3248	15957.4	15083.1
816.8522	493.4843	16056.8	15184.1
816.9963	495.6432	16019.75	15146.85
817.1404	497.8015	15936.85	15054.45
817.2845	499.9592	15893.35	15005.4
817.4286	502.1163	15776.2	14891.8
817.5727	504.2728	15492.65	14609.85
817.7168	506.4287	15229.35	14358.85
817.861	508.5839	14870.25	13995.35
818.0051	510.7386	14638.65	13761.8
818.1493	512.8927	14483.1	13595.75
818.2935	515.0461	14438.7	13555.25
818.4377	517.199	14456.45	13570.9
818.5818	519.3512	14559.8	13669.05
818.726	521.5029	14762.15	13871.25
818.8703	523.6539	14895.35	14007.85
819.0145	525.8043	14962	14074.7
819.1587	527.9541	14941.7	14052.95
819.303	530.1033	14847.25	13955.9
819.4472	532.2519	14767.05	13882.05
819.5915	534.3999	14814.1	13925.1
819.7357	536.5472	14955.25	14071.4
819.88	538.694	15306.45	14421.45
820.0243	540.8401	15706.5	14816.15
820.1686	542.9856	16035.65	15139.8
820.3129	545.1305	16147.2	15246.05
820.4572	547.2748	16058.5	15154.85
820.6016	549.4185	15778.7	14875.45
820.7459	551.5615	15558.3	14654.2
820.8902	553.704	15525.4	14621.65
821.0346	555.8458	15518.55	14625
821.1789	557.987	15609.05	14713.9
821.3233	560.1276	15726.65	14829.35
821.4677	562.2675	15947.4	15049.75
821.6121	564.4069	16228.25	15331.2
821.7565	566.5456	16479.75	15584.35
821.9009	568.6837	16521.35	15625.95
822.0453	570.8212	16183	15292
822.1897	572.958	15709.35	14814.45
822.3342	575.0942	15223	14329.95
822.4786	577.2299	14896.65	14005.4
822.6231	579.3648	14756.1	13876.3
822.7675	581.4992	14772.9	13898.35
822.912	583.6329	14893.65	14021.85
823.0565	585.766	15088.15	14215.2
823.201	587.8985	15250.9	14368.25
823.3454	590.0304	15281.55	14366.45
823.4899	592.1616	15220.25	14323.5
823.6345	594.2922	15112.65	14212.05
823.779	596.4222	14925.3	14021.65
823.9235	598.5515	14754.65	13846
824.068	600.6802	14592.25	13685.8
824.2126	602.8083	14415.65	13519.55
824.3571	604.9358	14405.3	13500.45
824.5017	607.0626	14366.3	13464.95
824.6462	609.1888	14416.8	13507.5
824.7908	611.3144	14492.95	13585.05
824.9354	613.4393	14499.55	13591.85
825.08	615.5636	14527.55	13625.05
825.2246	617.6873	14509.3	13604.8
825.3692	619.8103	14401.5	13494.25
825.5138	621.9327	14271.75	13368.8
825.6584	624.0544	14179.5	13278.05
825.803	626.1756	14064.55	13163.6
825.9477	628.2961	13982.55	13081.2
826.0923	630.4159	13914.4	13010.45
826.237	632.5351	13917.05	13007.75
826.3816	634.6537	13865.9	12956.3
826.5263	636.7716	13858.5	12946.4
826.6709	638.8889	13895.85	12978.05
826.8156	641.0056	13883.05	12968.95
826.9603	643.1216	13859.55	12947.45
827.105	645.237	13899.15	12990.2
827.2497	647.3518	13819.65	12915.65
827.3944	649.4659	13777.1	12875.1
827.5391	651.5793	13775.35	12877.85
827.6838	653.6922	13763.35	12860.75
827.8285	655.8043	13773.25	12871.85
827.9733	657.9159	13731.2	12826.9
828.118	660.0268	13683.9	12778.2
828.2627	662.137	13680.3	12775.85
828.4075	664.2466	13664.2	12753.2
828.5522	666.3556	13673.9	12762.9
828.697	668.4639	13632.3	12725.3
828.8418	670.5716	13634.85	12728.95
828.9865	672.6786	13680.15	12768.95
829.1313	674.785	13657.9	12742.9
829.2761	676.8907	13700.95	12787.95
829.4209	678.9958	13721.7	12813.7
829.5657	681.1002	13705	12796.05
829.7105	683.204	13706.1	12789.95
829.8553	685.3072	13663.95	12744.9
830.0001	687.4097	13654	12739.5
830.1449	689.5115	13611.8	12696.95
830.2898	691.6127	13603.35	12687.45
830.4346	693.7132	13552.6	12645.75
830.5794	695.8131	13546.4	12621
830.7243	697.9123	13583.35	12669.95
830.8691	700.0109	13539.7	12621.05
831.014	702.1089	13542.45	12633.9
831.1588	704.2061	13603.85	12689.3
831.3037	706.3028	13674.2	12756.25
831.4486	708.3987	13706.6	12787.9
831.5935	710.4941	13747.45	12828.95
831.7383	712.5887	13875.55	12959.75
831.8832	714.6827	14018.55	13099.8
832.0281	716.7761	14249.9	13337.5
832.173	718.8688	14474.3	13561.45
832.3179	720.9608	14665.3	13742.4
832.4628	723.0522	14759.25	13833.7
832.6077	725.1429	14714.35	13792.25
832.7527	727.233	14635.7	13717.7
832.8976	729.3224	14573.25	13655.7
833.0425	731.4112	14417.4	13497.8
833.1874	733.4993	14270.15	13350.05
833.3324	735.5867	14054.2	13134.15
833.4773	737.6735	13905.5	12983.55
833.6222	739.7596	13784.6	12862.25
833.7672	741.845	13694.05	12777.5
833.9122	743.9298	13642.5	12721.6
834.0571	746.014	13598.35	12678.1
834.2021	748.0974	13614.25	12690.55
834.347	750.1802	13608.8	12685.1
834.492	752.2624	13624.9	12700.05
834.637	754.3439	13671.6	12745.35
834.782	756.4247	13755.85	12824.9
834.9269	758.5048	13905.8	12979.05
835.0719	760.5843	14172.1	13245.25
835.2169	762.6631	14534.85	13608.1
835.3619	764.7413	15036.2	14111.55
835.5069	766.8188	15673.55	14749.85
835.6519	768.8956	16162.3	15233.75
835.7969	770.9718	16484.8	15561
835.9419	773.0473	16374.8	15450.2
836.0869	775.1221	16115.9	15189.55
836.232	777.1962	15802.2	14875.9
836.377	779.2697	15621.45	14696.45
836.522	781.3426	15666.3	14726.1
836.667	783.4147	15840.05	14913.8
836.8121	785.4862	15990.4	15064.35
836.9571	787.557	15909.55	14982.8
837.1021	789.6271	15516.1	14590.1
837.2472	791.6966	14982.9	14056.6
837.3922	793.7654	14433.6	13506
837.5373	795.8335	14100.25	13175.3
837.6823	797.901	13839.6	12915.55
837.8274	799.9678	13760.75	12830.35
837.9724	802.0339	13668.35	12740.15
838.1175	804.0993	13691.95	12755.55
838.2626	806.1641	13648.9	12718.25
838.4076	808.2282	13573.3	12652
838.5527	810.2916	13538.15	12612.15
838.6978	812.3544	13445.35	12519.45
838.8428	814.4164	13353.1	12428.6
838.9879	816.4778	13387.65	12455.5
839.133	818.5385	13418.9	12486.7
839.2781	820.5986	13535.5	12606.3
839.4232	822.658	13727.45	12791.95
839.5682	824.7166	13957.2	13030.4
839.7133	826.7747	14312.1	13384.35
839.8584	828.832	14723.85	13792.05
840.0035	830.8886	14955.2	14018.85
840.1486	832.9446	15099.1	14166.3
840.2937	834.9999	15027.45	14097.95
840.4388	837.0545	14870.5	13937.25
840.5839	839.1085	14722.35	13791.9
840.729	841.1618	14531.2	13591.85
840.8741	843.2143	14366.3	13433.65
841.0192	845.2662	14203.75	13272.5
841.1643	847.3175	14137.6	13204.95
841.3095	849.368	14012.8	13080
841.4546	851.4179	13926.8	12991.85
841.5997	853.467	13778.2	12845.9
841.7448	855.5155	13684.5	12750.65
841.8899	857.5633	13646.15	12714.15
842.0351	859.6105	13568.45	12635.15
842.1802	861.6569	13505.55	12572.6
842.3253	863.7027	13436.2	12501.35
842.4704	865.7478	13410.15	12474.55
842.6156	867.7922	13428.1	12494
842.7607	869.8359	13419.2	12482.9
842.9058	871.8789	13452.75	12519.1
843.0509	873.9212	13609.05	12644.25
843.1961	875.9629	13709.5	12775.35
843.3412	878.0039	13858.55	12924.95
843.4863	880.0441	13940	13010.2
843.6315	882.0837	13973.35	13042.95
843.7766	884.1226	13960.8	13026.6
843.9218	886.1609	13912.65	12979.7
844.0669	888.1984	13936.2	13006
844.212	890.2352	14049.65	13113.95
844.3572	892.2714	14027.55	13089.6
844.5023	894.3069	14004.2	13067.1
844.6475	896.3416	13883.8	12947.2
844.7926	898.3757	13792.35	12855.55
844.9377	900.4091	13729.85	12791.8
845.0829	902.4418	13754.5	12812.3
845.228	904.4739	13742.15	12804.25
845.3732	906.5052	13791.9	12853.95
845.5183	908.5358	13700.75	12764
845.6635	910.5658	13603.7	12665.2
845.8086	912.595	13412.85	12476.45
845.9538	914.6236	13224.5	12289.85
846.0989	916.6515	13154.8	12220.85
846.2441	918.6786	13091.55	12154.35
846.3892	920.7051	13141.4	12201.75
846.5344	922.7309	13221.8	12287.55
846.6795	924.756	13235.55	12300.45
846.8246	926.7804	13323.6	12383.45
846.9698	928.8041	13305.15	12367.85
847.1149	930.8272	13356.9	12419.45
847.2601	932.8495	13301.5	12361.6
847.4052	934.8711	13284.35	12346.6
847.5504	936.892	13188.95	12250.35
847.6955	938.9123	13119.1	12183.2
847.8407	940.9318	13070.45	12134.8
847.9858	942.9506	13031.2	12091.6
848.131	944.9688	12934.55	12000
848.2761	946.9862	12899.85	11962.95
848.4213	949.003	12758.45	11824.65
848.5664	951.019	12721.4	11784.05
848.7115	953.0344	12627.6	11690.35
848.8567	955.0491	12670.05	11734.05
849.0018	957.063	12763.15	11824.15
849.147	959.0763	12840.8	11907.9
849.2921	961.0888	12891.7	11952
849.4373	963.1007	12973.5	12038.65
849.5824	965.1119	13008.3	12082.45
849.7275	967.1223	13003.95	12077.2
849.8727	969.1321	12993.3	12071
850.0178	971.1412	13029.85	12099.4
850.1629	973.1495	13005	12072.25
850.3081	975.1572	13091.85	12110.2
850.4532	977.1641	13064.65	12127.5
850.5983	979.1704	13045.4	12109.4
850.7435	981.1759	13035.3	12093.55
850.8886	983.1808	13055.1	12113.4
851.0337	985.1849	13113.9	12170.6
851.1788	987.1884	13202.65	12265.85
851.324	989.1911	13321.9	12383.7
851.4691	991.1932	13415.8	12479.4
851.6142	993.1945	13446	12513.1
851.7593	995.1951	13384.8	12447.4
851.9045	997.1951	13412.55	12470.2
852.0496	999.1943	13313.05	12378.8
852.1947	1001.1928	13312.4	12376.75
852.3398	1003.1906	13303.75	12365.75
852.4849	1005.1877	13389.75	12453.75
852.63	1007.1841	13433.1	12497.7
852.7751	1009.1798	13415.55	12480.65
852.9202	1011.1748	13289.2	12354.4
853.0653	1013.1691	13113.05	12175.75
853.2104	1015.1627	12941.85	12007.65
853.3555	1017.1556	12707.1	11774.6
853.5006	1019.1477	12620.7	11686.75
853.6457	1021.1392	12515.6	11587.2
853.7908	1023.1299	12501.35	11576.45
853.9359	1025.12	12515.65	11594.1
854.081	1027.1093	12567.95	11655.85
854.2261	1029.0979	12662.9	11752.45
854.3712	1031.0859	12700.85	11785.05
854.5163	1033.0731	12740.05	11814.3
854.6613	1035.0596	12687.65	11759.35
854.8064	1037.0454	12566.5	11633.9
854.9515	1039.0304	12443.15	11510.45
855.0965	1041.0148	12320	11385.5
855.2416	1042.9985	12258.7	11320.8
855.3867	1044.9814	12223.95	11289.75
855.5317	1046.9636	12155.25	11219.95
855.6768	1048.9452	12118.1	11182.85
855.8219	1050.926	12166.65	11234.15
855.9669	1052.9061	12183.95	11253.05
856.112	1054.8855	12209.35	11274.85
856.257	1056.8642	12250.4	11314.9
856.4021	1058.8421	12282.15	11341.8
856.5471	1060.8194	12307.85	11370.75
856.6921	1062.7959	12367.35	11430.05
856.8372	1064.7717	12388.7	11452.05
856.9822	1066.7469	12437.4	11500.85
857.1272	1068.7213	12477.6	11540.9
857.2723	1070.695	12532.75	11596.15
857.4173	1072.6679	12501.5	11563.7
857.5623	1074.6402	12488.15	11552.85
857.7073	1076.6117	12474.95	11537.5
857.8523	1078.5826	12403	11465.95
857.9973	1080.5527	12343.65	11403.35
858.1423	1082.5221	12334.85	11398.65
858.2873	1084.4908	12392.45	11456.1
858.4323	1086.4587	12481.8	11544.35
858.5773	1088.426	12565.1	11628.5
858.7223	1090.3925	12564.05	11623.8
858.8673	1092.3584	12554.1	11618.65
859.0123	1094.3235	12488.3	11554.4
859.1573	1096.2879	12527.05	11591.9
859.3022	1098.2515	12590.5	11654.05
859.4472	1100.2145	12725.3	11790.65
859.5922	1102.1767	12857.8	11923
859.7371	1104.1382	13045.45	12115.3
859.8821	1106.099	13231.05	12295.4
860.027	1108.0591	13466.15	12532.1
860.172	1110.0185	13615.5	12676.8
860.3169	1111.9771	13676.5	12739.2
860.4619	1113.9351	13508.35	12573.3
860.6068	1115.8923	13337.4	12400.6
860.7517	1117.8488	13115.35	12180.2
860.8967	1119.8045	12888.1	11951.45
861.0416	1121.7596	12771.8	11837.95
861.1865	1123.7139	12654.9	11721.25
861.3314	1125.6675	12663.35	11731.8
861.4763	1127.6204	12690.35	11753.05
861.6212	1129.5726	12659.8	11722.55
861.7661	1131.524	12588.25	11650.15
861.911	1133.4748	12536.65	11604.4
862.0559	1135.4248	12418.6	11484.1
862.2008	1137.3741	12327	11392.55
862.3457	1139.3226	12261.55	11326.6
862.4905	1141.2705	12211	11277.85
862.6354	1143.2176	12139.65	11201.4
862.7803	1145.164	12100.65	11163.6
862.9251	1147.1097	12058.6	11124.1
863.07	1149.0546	12007.45	11070.25
863.2148	1150.9989	11907.1	10971.05
863.3597	1152.9424	11829.3	10896
863.5045	1154.8852	11726.15	10788.5
863.6493	1156.8272	11625.1	10693.5
863.7942	1158.7686	11628.35	10689.3
863.939	1160.7092	11608.15	10673.4
864.0838	1162.6491	11647.2	10711.1
864.2286	1164.5883	11714.35	10779.95
864.3734	1166.5267	11841.7	10905.5
864.5182	1168.4644	11988.3	11049.75
864.663	1170.4014	12137.1	11204.35
864.8078	1172.3377	12379.65	11447.95
864.9526	1174.2732	12650.65	11716.6
865.0974	1176.2081	12978.5	12049
865.2421	1178.1421	13347.65	12411.25
865.3869	1180.0755	13723.9	12791.3
865.5317	1182.0082	13952.35	13024.75
865.6764	1183.9401	14072.3	13140
865.8212	1185.8713	13961.9	13034.25
865.9659	1187.8017	13685.05	12761.25
866.1106	1189.7315	13373.2	12460.45
866.2554	1191.6605	13023.65	12109.25
866.4001	1193.5888	12773.4	11854.25
866.5448	1195.5163	12675.7	11748.4
866.6895	1197.4432	12599.5	11670.2
866.8342	1199.3693	12541.9	11612.35
866.9789	1201.2947	12516.9	11577.95
867.1236	1203.2193	12502.55	11568.05
867.2683	1205.1432	12498.1	11566.15
867.413	1207.0664	12490.65	11557.85
867.5576	1208.9889	12484.1	11549.7
867.7023	1210.9106	12497.25	11566.6
867.847	1212.8316	12478.9	11549.5
867.9916	1214.7519	12536.85	11595.95
868.1363	1216.6715	12562.4	11630.9
868.2809	1218.5903	12611.8	11684.05
868.4255	1220.5084	12606.25	11676.35
868.5701	1222.4257	12673.1	11744.25
868.7148	1224.3424	12656.15	11726.95
868.8594	1226.2583	12768.1	11832.45
869.004	1228.1735	12845.8	11914.85
869.1486	1230.0879	12952.2	12021
869.2932	1232.0016	13072.45	12140.65
869.4377	1233.9146	13178.95	12247.1
869.5823	1235.8269	13095.4	12165.3
869.7269	1237.7384	13053.95	12126.15
869.8715	1239.6492	12881.8	11951.5
870.016	1241.5592	12852.7	11923.5
870.1606	1243.4686	12805.95	11875.7
870.3051	1245.3772	12902.6	11973.8
870.4496	1247.285	13001.2	12072.95
870.5941	1249.1922	13050.4	12120.45
870.7387	1251.0986	13093.2	12162.55
870.8832	1253.0042	13137.85	12209.25
871.0277	1254.9092	13221.1	12290.5
871.1722	1256.8134	13311.65	12384.2
871.3167	1258.7169	13461.05	12528.2
871.4611	1260.6196	13606.45	12673.55
871.6056	1262.5216	13822.2	12893.6
871.7501	1264.4229	13991.25	13062.6
871.8945	1266.3234	14174.55	13248.15
872.039	1268.2232	14255.1	13324.1
872.1834	1270.1223	14327.65	13396.3
872.3278	1272.0207	14366.6	13434.7
872.4723	1273.9183	14336.7	13395.45
872.6167	1275.8151	14250.9	13305.65
872.7611	1277.7113	14219.85	13288.45
872.9055	1279.6067	14191.2	13265.65
873.0499	1281.5014	14254.9	13320.95
873.1943	1283.3953	14449.6	13518.35
873.3386	1285.2885	14726.05	13799
873.483	1287.181	15000	14070.3
873.6274	1289.0727	15317.25	14389.55
873.7717	1290.9637	15513.55	14589.05
873.9161	1292.854	15629.85	14700.1
874.0604	1294.7435	15698.95	14770.35
874.2047	1296.6323	15730.95	14803.9
874.349	1298.5204	15741.4	14809.9
874.4933	1300.4077	15699.55	14769.05
874.6376	1302.2943	15631.9	14702.9
874.7819	1304.1802	15524.25	14594.15
874.9262	1306.0653	15217.75	14287.75
875.0705	1307.9497	14889.35	13960.55
875.2147	1309.8333	14587.9	13662.45
875.359	1311.7162	14379.85	13451.25
875.5032	1313.5984	14250.35	13317.95
875.6475	1315.4798	14174.05	13235.7
875.7917	1317.3605	14180.85	13235.35
875.9359	1319.2405	14116	13163.9
876.0801	1321.1197	13988.5	13056.6
876.2243	1322.9982	13778.75	12842.4
876.3685	1324.876	13623.1	12696.25
876.5127	1326.753	13385	12456.85
876.6569	1328.6293	13287.25	12355.95
876.801	1330.5048	13211.85	12279.35
876.9452	1332.3796	13062.35	12132.95
877.0893	1334.2537	13031.25	12076.6
877.2335	1336.127	12945.95	12018.55
877.3776	1337.9996	12945.95	12016.3
877.5217	1339.8714	12910.7	11981.85
877.6658	1341.7426	12969.9	11997.65
877.8099	1343.6129	12909.05	11979.3
877.954	1345.4826	12892.75	11964.55
878.0981	1347.3515	12906.05	11971.3
878.2422	1349.2196	12881.1	11949.6
878.3862	1351.087	12887.65	11956.7
878.5303	1352.9537	12949.35	12019.3
878.6743	1354.8197	13059.25	12131.05
878.8184	1356.6849	13211.7	12284.2
878.9624	1358.5493	13354.35	12426.35
879.1064	1360.4131	13424.05	12494.85
879.2504	1362.276	13505.85	12579.2
879.3944	1364.1383	13438.15	12508.95
879.5384	1365.9998	13202.95	12266.55
879.6823	1367.8606	12904.85	11972.35
879.8263	1369.7206	12560.05	11626.55
879.9702	1371.5799	12273.1	11341.6
880.1142	1373.4384	12057.1	11128.8
880.2581	1375.2962	11840.35	10909.1
880.402	1377.1533	11545.55	10616.9
880.5459	1379.0096	11208.25	10282.55
880.6898	1380.8652	10915.55	9994.1
880.8337	1382.7201	10628.25	9703.25
880.9776	1384.5742	10389.25	9462.9
881.1215	1386.4275	10197.3	9269.65
881.2653	1388.2802	10071.45	9139.5
881.4092	1390.132	9970.45	9039.45
881.553	1391.9832	9898.7	8968.25
881.6968	1393.8336	9810.35	8883.6
881.8406	1395.6832	9756.95	8826.45
881.9844	1397.5322	9738.45	8811.3
882.1282	1399.3803	9711.85	8783.1
882.272	1401.2278	9642.8	8716.85
882.4158	1403.0745	9655.1	8732
882.5595	1404.9204	9646.5	8721.75
882.7033	1406.7656	9676.9	8750.35
882.847	1408.6101	9649.25	8719.2
882.9908	1410.4538	9668.45	8740.2
883.1345	1412.2968	9731.55	8805.25
883.2782	1414.139	9763.55	8834.6
883.4219	1415.9805	9837.2	8914.55
883.5656	1417.8213	9905.2	8972.85
883.7092	1419.6613	10020.2	9095.05
883.8529	1421.5006	10158	9232.6
883.9965	1423.3391	10401.6	9472.35
884.1402	1425.1769	10700.4	9772.7
884.2838	1427.0139	11081.55	10155.45
884.4274	1428.8502	11571.85	10645.75
884.571	1430.6858	12118.8	11193.8
884.7146	1432.5206	12527.8	11600.75
884.8582	1434.3547	12716.95	11790.45
885.0018	1436.188	12731.2	11803
885.1453	1438.0206	12635.55	11707.4
885.2889	1439.8524	12474.7	11546.25
885.4324	1441.6835	12381	11453.5
885.5759	1443.5139	12279.8	11354
885.7194	1445.3435	12198.45	11272.5
885.8629	1447.1724	12171.8	11247.75
886.0064	1449.0005	12110	11186.8
886.1499	1450.8279	12023.7	11100.5
886.2933	1452.6545	11997.4	11076.9
886.4368	1454.4804	12012.55	11091.2
886.5802	1456.3056	12004.65	11075.85
886.7237	1458.13	11922.15	10998.95
886.8671	1459.9536	11762.8	10838.1
887.0105	1461.7766	11472.15	10551.95
887.1539	1463.5987	11144.85	10221.35
887.2972	1465.4202	10763.05	9839.1
887.4406	1467.2409	10434.8	9511.35
887.584	1469.0608	10175.4	9251.55
887.7273	1470.88	9939	9013.85
887.8706	1472.6984	9723.75	8798.2
888.0139	1474.5161	9518.9	8591.1
888.1572	1476.3331	9337	8414.5
888.3005	1478.1493	9239.85	8315.95
888.4438	1479.9648	9136.45	8209.2
888.5871	1481.7795	9055.6	8131.25
888.7303	1483.5935	8978.35	8055.1
888.8736	1485.4067	8919.85	7993.3
889.0168	1487.2192	8877	7954.45
889.16	1489.031	8836.9	7908
889.3032	1490.842	8780.3	7857.5
889.4464	1492.6522	8730.45	7808.3
889.5896	1494.4618	8710.8	7786
889.7327	1496.2705	8692.7	7768.25
889.8759	1498.0785	8666.55	7742.1
890.019	1499.8858	8619.6	7695.1
890.1622	1501.6924	8568.8	7645.9
890.3053	1503.4981	8525.55	7603.35
890.4484	1505.3032	8503.25	7579.45
890.5914	1507.1075	8460.25	7536.05
890.7345	1508.911	8421.45	7499.65
890.8776	1510.7138	8382.95	7461.3
891.0206	1512.5159	8314.1	7392.35
891.1637	1514.3172	8282.95	7362.5
891.3067	1516.1178	8233.1	7312.9
891.4497	1517.9176	8203.15	7278.15
891.5927	1519.7166	8164.5	7241.3
891.7357	1521.515	8114.1	7187
891.8786	1523.3126	8098.65	7176.15
892.0216	1525.1094	8075.05	7155.3
892.1645	1526.9055	8035.65	7114.85
892.3074	1528.7008	8018.45	7098.4
892.4503	1530.4954	7988.4	7066.65
892.5932	1532.2893	7957.6	7041.8
892.7361	1534.0824	7929.15	7010.1
892.879	1535.8747	7921.4	7005.25
893.0218	1537.6663	7885.85	6971.7
893.1647	1539.4572	7893.95	6975.95
893.3075	1541.2473	7892.85	6973.65
893.4503	1543.0367	7903.5	6986.6
893.5931	1544.8253	7870.6	6949.4
893.7359	1546.6132	7904.9	6983.5
893.8787	1548.4003	7889.3	6962.95
894.0214	1550.1867	7952.4	7027
894.1642	1551.9723	8000.35	7081.4
894.3069	1553.7572	8051.95	7134.4
894.4496	1555.5414	8145.7	7230.65
894.5923	1557.3247	8226.55	7315.05
894.735	1559.1074	8340.15	7430.65
894.8777	1560.8893	8455.25	7542.45
895.0204	1562.6705	8535.9	7624.35
895.163	1564.4509	8666.15	7754.25
895.3056	1566.2305	8740.4	7831.25
895.4482	1568.0094	8782	7871.35
895.5908	1569.7876	8774.25	7863.75
895.7334	1571.565	8761.8	7849.25
895.876	1573.3417	8748.15	7840.75
896.0186	1575.1176	8738.5	7829.15
896.1611	1576.8928	8727.05	7818.6
896.3036	1578.6672	8652.3	7748.3
896.4461	1580.4409	8617.45	7713.55
896.5886	1582.2138	8590.35	7682.55
896.7311	1583.986	8570.25	7662.35
896.8736	1585.7575	8570.9	7662.95
897.0161	1587.5282	8580.1	7675.6
897.1585	1589.2981	8645.1	7741.55
897.3009	1591.0673	8656.75	7753.75
897.4433	1592.8358	8739.25	7836.5
897.5857	1594.6035	8797.6	7888.1
897.7281	1596.3704	8843.85	7933.1
897.8705	1598.1366	8903.2	7995.6
898.0128	1599.9021	8982.95	8078.55
898.1551	1601.6668	9073.4	8166.4
898.2975	1603.4308	9164.7	8256.1
898.4398	1605.194	9306.2	8396.75
898.5821	1606.9564	9448.95	8546.8
898.7243	1608.7182	9657.75	8754.9
898.8666	1610.4791	9909.15	9014.25
899.0088	1612.2394	10117.95	9226.6
899.1511	1613.9988	10362.2	9467.6
899.2933	1615.7576	10613.95	9713.8
899.4355	1617.5156	10769.55	9857.1
899.5776	1619.2728	10899.1	9991.45
899.7198	1621.0293	10925.05	10018.7
899.862	1622.785	10821.35	9915.9
900.0041	1624.54	10599.35	9695
900.1462	1626.2942	10327.1	9428.7
900.2883	1628.0477	10022.5	9116.65
900.4304	1629.8005	9748.95	8843.55
900.5725	1631.5525	9483.55	8581.6
900.7145	1633.3037	9253.65	8351.6
900.8566	1635.0542	9065.4	8165.8
900.9986	1636.804	8941.25	8042.8
901.1406	1638.553	8933.65	7946.15
901.2826	1640.3013	8822.2	7920
901.4245	1642.0488	8787.5	7884.2
901.5665	1643.7955	8829.95	7932.5
901.7085	1645.5416	8889.35	7993.35
901.8504	1647.2868	8972.7	8073.2
901.9923	1649.0313	9073.2	8171.45
902.1342	1650.7751	9217.35	8313
902.2761	1652.5181	9365.15	8465.65
902.4179	1654.2604	9532.5	8633.2
902.5598	1656.0019	9757.35	8858.5
902.7016	1657.7427	9999.95	9099.9
902.8434	1659.4828	10296.85	9396.65
902.9852	1661.222	10426.95	9525
903.127	1662.9606	10369.75	9470.85
903.2687	1664.6984	10163.75	9260.55
903.4105	1666.4354	9764.65	8858.65
903.5522	1668.1717	9236	8332.25
903.6939	1669.9072	8699.65	7796.05
903.8356	1671.642	8259.1	7353.2
903.9773	1673.3761	7865.25	6961.85
904.119	1675.1094	7591.25	6691.45
904.2606	1676.8419	7339.35	6440.85
904.4022	1678.5737	7139.5	6240.55
904.5439	1680.3048	6991.1	6086.65
904.6855	1682.0351	6879.7	5977.4
904.827	1683.7646	6760.05	5854.9
904.9686	1685.4934	6686.6	5782.9
905.1101	1687.2215	6622.85	5723.9
905.2517	1688.9488	6527.9	5629.3
905.3932	1690.6754	6474.15	5576.45
905.5347	1692.4012	6441.55	5540.1
905.6761	1694.1263	6384.6	5485.25
905.8176	1695.8506	6363.6	5462.1
905.9591	1697.5742	6305.35	5406.6
906.1005	1699.297	6258.25	5360.6
906.2419	1701.0191	6216.9	5321.3
906.3833	1702.7404	6183.3	5287.95
906.5246	1704.461	6124.75	5226.25
906.666	1706.1808	6107.1	5208.3
906.8073	1707.8999	6065.15	5167.25
906.9487	1709.6182	6055.45	5160.25
907.09	1711.3358	6019.9	5127.95
907.2313	1713.0527	5976.55	5085.65
907.3725	1714.7688	5971.45	5070.15
907.5138	1716.4841	5949.3	5050.85
907.655	1718.1987	5925.75	5025.85
907.7962	1719.9126	5898.1	5005.45
907.9374	1721.6257	5850	4955.5
908.0786	1723.338	5858.45	4967.65
908.2198	1725.0496	5819.3	4925.1
908.3609	1726.7605	5822.4	4927.6
908.502	1728.4706	5814.05	4919.85
908.6431	1730.18	5780.1	4884.95
908.7842	1731.8886	5749.2	4858.3
908.9253	1733.5964	5757.25	4846.95
909.0664	1735.3036	5721.65	4825.75
909.2074	1737.0099	5704.35	4810
909.3484	1738.7156	5678.7	4785.95
909.4894	1740.4204	5624.55	4727.1
909.6304	1742.1246	5624.4	4727.9
909.7714	1743.8279	5599.65	4706.75
909.9123	1745.5306	5584.5	4690.65
910.0532	1747.2325	5563.25	4673.05
910.1941	1748.9336	5527.65	4632.5
910.335	1750.634	5499.75	4603
910.4759	1752.3336	5486.05	4590.65
910.6168	1754.0325	5488.5	4598.5
910.7576	1755.7307	5475.95	4585.35
910.8984	1757.4281	5474	4581.85
911.0392	1759.1247	5451.9	4548.9
911.18	1760.8206	5449.7	4549.05
911.3208	1762.5158	5431.5	4531.05
911.4615	1764.2102	5404.9	4509.1
911.6022	1765.9039	5377.2	4483.6
911.7429	1767.5968	5382.2	4490.9
911.8836	1769.289	5362	4472.45
912.0243	1770.9804	5355.9	4462.1
912.1649	1772.6711	5339.95	4443.5
912.3056	1774.361	5324.45	4426.8
912.4462	1776.0502	5310.3	4413.05
912.5868	1777.7386	5297.65	4401.15
912.7274	1779.4263	5290.05	4396.65
912.8679	1781.1132	5280.1	4390.15
913.0084	1782.7994	5261.95	4371.15
913.149	1784.4849	5240.6	4352.15
913.2895	1786.1696	5246.75	4349.8
913.4299	1787.8535	5223.15	4333.8
913.5704	1789.5367	5221.4	4331.7
913.7108	1791.2192	5196.45	4306.45
913.8513	1792.9009	5206.5	4286.4
913.9917	1794.5818	5177.8	4282.45
914.132	1796.2621	5174.7	4282.85
914.2724	1797.9415	5146.45	4250.25
914.4128	1799.6202	5143.1	4248.25
914.5531	1801.2982	5149.6	4254.45
914.6934	1802.9755	5123.7	4227.1
914.8337	1804.6519	5116.35	4223.05
914.9739	1806.3277	5092.4	4201.1
915.1142	1808.0027	5074.5	4186.5
915.2544	1809.6769	5073.35	4182.9
915.3946	1811.3504	5067.9	4179.15
915.5348	1813.0231	5047.2	4157.8
915.675	1814.6951	5032.4	4142.3
915.8151	1816.3664	5048	4154.85
915.9553	1818.0369	5020.7	4129.3
916.0954	1819.7067	5030.55	4138.85
916.2355	1821.3757	5018	4123.9
916.3755	1823.044	4988.05	4095
916.5156	1824.7115	4995.8	4102.1
916.6556	1826.3783	4965.45	4072.95
916.7956	1828.0443	4965.85	4072.35
916.9356	1829.7096	4946.6	4052.65
917.0756	1831.3741	4945.25	4051.4
917.2155	1833.0379	4935.95	4045.35
917.3555	1834.701	4917.7	4027.45
917.4954	1836.3633	4915.3	4027.05
917.6353	1838.0248	4901.6	4012.05
917.7751	1839.6856	4885.7	3994.35
917.915	1841.3457	4879.85	3989.25
918.0548	1843.005	4863.65	3970.4
918.1946	1844.6636	4871.15	3980
918.3344	1846.3214	4853.15	3960.8
918.4742	1847.9785	4843.3	3950.3
918.6139	1849.6349	4844.7	3952.25
918.7537	1851.2904	4851.1	3948.45
918.8934	1852.9453	4834.3	3941.65
919.0331	1854.5994	4812.15	3916.2
919.1727	1856.2528	4819.25	3923.75
919.3124	1857.9054	4815.6	3922.4
919.452	1859.5572	4805.75	3913.35
919.5916	1861.2083	4798.4	3906.75
919.7312	1862.8587	4774.15	3880.5
919.8708	1864.5084	4760.45	3865
920.0103	1866.1572	4749.8	3856.25
920.1498	1867.8054	4758.25	3863
920.2893	1869.4528	4735.2	3842.1
920.4288	1871.0994	4720.15	3828.7
920.5683	1872.7453	4716.95	3822.6
920.7077	1874.3905	4695.5	3796.75
920.8471	1876.0349	4706.45	3813.35
920.9865	1877.6786	4680.85	3787.95
921.1259	1879.3215	4676.7	3785.05
921.2653	1880.9637	4671.95	3781.45
921.4046	1882.6051	4664.8	3775.35
921.5439	1884.2458	4638.95	3748.4
921.6832	1885.8858	4618.8	3727.75
921.8225	1887.525	4619	3724.85
921.9617	1889.1634	4612.4	3719.15
922.101	1890.8011	4607.2	3713.7
922.2402	1892.4381	4584.75	3690.6
922.3794	1894.0743	4577.7	3686.15
922.5185	1895.7098	4566.95	3674.05
922.6577	1897.3446	4559.6	3669.95
922.7968	1898.9786	4541.9	3647.2
922.9359	1900.6118	4532.35	3643.1
923.075	1902.2443	4534.25	3644.05
923.214	1903.8761	4525	3633.5
923.3531	1905.5071	4504.25	3612.1
923.4921	1907.1374	4497.15	3607.15
923.6311	1908.7669	4485.1	3593.85
923.77	1910.3957	4476.85	3586.2
923.909	1912.0237	4452.7	3561.55
924.0479	1913.651	4437.5	3545.1
924.1868	1915.2776	4436.1	3546.4
924.3257	1916.9034	4419.3	3530.95
924.4646	1918.5285	4395.85	3506.6
924.6034	1920.1528	4385.6	3494.9
924.7422	1921.7764	4389.35	3498.15
924.881	1923.3992	4374.55	3484.7
925.0198	1925.0213	4346.45	3455.1
925.1586	1926.6427	4321.45	3432.9
925.2973	1928.2633	4502.55	3407.7
925.436	1929.8832	4340.85	3445.65
925.5747	1931.5023	4319.35	3427.85
925.7134	1933.1207	4295.2	3405.1
925.852	1934.7383	4289.65	3400.6
925.9906	1936.3552	4279.6	3390.9
926.1292	1937.9714	4273.8	3382.85
926.2678	1939.5868	4245.85	3353.05
926.4064	1941.2015	4227.2	3335.6
926.5449	1942.8154	4215.5	3323.95
926.6834	1944.4286	4198.75	3306.35
926.8219	1946.041	4206.35	3298.65
926.9604	1947.6528	4182.7	3286.85
927.0988	1949.2637	4162.05	3272.15
927.2372	1950.8739	4164.75	3274.1
927.3756	1952.4834	4144.75	3254.9
927.514	1954.0921	4143.55	3254.15
927.6523	1955.7001	4136.8	3243.8
927.7907	1957.3074	4123.4	3234.75
927.929	1958.9139	4094.05	3209.8
928.0673	1960.5197	4094.85	3204.9
928.2055	1962.1247	4075.95	3186.35
928.3438	1963.729	4053.15	3167.1
928.482	1965.3325	4040.15	3146.35
928.6202	1966.9353	4059.1	3172.85
928.7584	1968.5374	4026.15	3138.9
928.8965	1970.1387	4020.1	3132.9
929.0346	1971.7393	3996.5	3109.5
929.1727	1973.3392	4006.65	3119.65
929.3108	1974.9383	3975	3089.9
929.4489	1976.5366	3968.2	3084.05
929.5869	1978.1342	3951.65	3066.6
929.7249	1979.7311	3952.65	3066.25
929.8629	1981.3273	3938.75	3052
930.0009	1982.9227	3934.3	3046.75
930.1388	1984.5173	3917.5	3033.5
930.2767	1986.1112	3918	3034.8
930.4146	1987.7044	3903.1	3018.6
930.5525	1989.2968	3888.55	3002.85
930.6904	1990.8885	3886.8	2999.2
930.8282	1992.4795	3879.9	2995.25
930.966	1994.0697	3857.45	2973.6
931.1038	1995.6592	3858.65	2975.55
931.2415	1997.2479	3853.8	2969.7
931.3793	1998.8359	3831.75	2949.9
931.517	2000.4232	3826.35	2945.75
931.6547	2002.0097	3797.1	2917.9
931.7923	2003.5955	3791.4	2909.2
931.93	2005.1805	3790	2907.05
932.0676	2006.7648	3804.8	2921.9
932.2052	2008.3484	3770.4	2890
932.3427	2009.9312	3789.2	2907.4
932.4803	2011.5133	3761.1	2879.95
932.6178	2013.0946	3764.4	2884.3
932.7553	2014.6752	3740.05	2860.55
932.8928	2016.2551	3760.6	2879.05
933.0302	2017.8342	3736.55	2853
933.1676	2019.4126	3710.6	2832.75
933.305	2020.9902	3700.2	2819.95
933.4424	2022.5672	3694.1	2813.5
933.5798	2024.1433	3696.2	2812.35
933.7171	2025.7188	3683.1	2807.45
933.8544	2027.2935	3678.6	2797.9
933.9917	2028.8674	3667.3	2787.2
934.129	2030.4406	3651.85	2771.7
934.2662	2032.0131	3632.9	2757.5
934.4034	2033.5849	3628.8	2750.55
934.5406	2035.1559	3636.35	2759
934.6778	2036.7261	3626.2	2745.3
934.8149	2038.2957	3627.45	2746
934.952	2039.8645	3615.9	2730.25
935.0891	2041.4325	3621.9	2735.15
935.2262	2042.9998	3591.3	2709.9
935.3632	2044.5664	3592.85	2709.8
935.5002	2046.1323	3602.85	2722.95
935.6372	2047.6974	3575.4	2696.7
935.7742	2049.2617	3570.55	2690.15
935.9111	2050.8254	3594.9	2693.75
936.048	2052.3883	3566.9	2684.45
936.1849	2053.9504	3552.5	2670.3
936.3218	2055.5118	3538.8	2655.45
936.4586	2057.0725	3530.95	2644.8
936.5955	2058.6325	3530.05	2649.3
936.7323	2060.1917	3502.75	2622.3
936.869	2061.7502	3507.95	2624.6
937.0058	2063.3079	3492.75	2612.95
937.1425	2064.8649	3493.75	2612.3
937.2792	2066.4212	3493.5	2613.5
937.4159	2067.9767	3482.05	2601.8
937.5525	2069.5315	3460.6	2578.2
937.6891	2071.0856	3462.55	2580.25
937.8257	2072.6389	3434.6	2554.95
937.9623	2074.1915	3428.2	2550.1
938.0989	2075.7433	3419.5	2537.2
938.2354	2077.2945	3415.9	2535.9
938.3719	2078.8448	3418.85	2535.3
938.5084	2080.3945	3390.1	2507.5
938.6448	2081.9434	3385.1	2500.75
938.7812	2083.4916	3384.8	2500.4
938.9176	2085.039	3373.25	2483.85
939.054	2086.5857	3382.8	2492.15
939.1903	2088.1317	3366.55	2478.95
939.3267	2089.677	3368.85	2481.85
939.463	2091.2215	3361.8	2473.05
939.5992	2092.7652	3339.8	2448.2
939.7355	2094.3083	3333.8	2445.8
939.8717	2095.8506	3337.4	2454
940.0079	2097.3921	3335.05	2452.5
940.1441	2098.933	3313.6	2429.55
940.2802	2100.4731	3301.65	2417.25
940.4163	2102.0124	3314.95	2422
940.5524	2103.5511	3309.45	2423.75
940.6885	2105.089	3307.45	2421.1
940.8245	2106.6261	3298.95	2411.7
940.9606	2108.1626	3282.55	2397.25
941.0965	2109.6983	3307.6	2394.5
941.2325	2111.2332	3281.85	2395.1
941.3684	2112.7675	3262.25	2372.9
941.5044	2114.301	3258.2	2371.2
941.6403	2115.8337	3258.9	2375.05
941.7761	2117.3657	3250.85	2366.1
941.912	2118.897	3248.85	2361.3
942.0478	2120.4276	3236.75	2344.05
942.1835	2121.9575	3232.6	2344.85
942.3193	2123.4866	3231.15	2341.05
942.455	2125.0149	3219.05	2330.2
942.5907	2126.5426	3196.9	2315.2
942.7264	2128.0695	3194.35	2312
942.8621	2129.5956	3186.3	2305.5
942.9977	2131.1211	3185.45	2298.2
943.1333	2132.6458	3175.05	2292.45
943.2689	2134.1698	3177.25	2290.3
943.4044	2135.693	3161.7	2272.65
943.54	2137.2155	3160.7	2270.65
943.6755	2138.7373	3165.9	2281.3
943.8109	2140.2584	3148.35	2266.05
943.9464	2141.7787	3134.4	2249.35
944.0818	2143.2983	3134.2	2257.35
944.2172	2144.8171	3114.8	2236.55
944.3526	2146.3353	3114.7	2231
944.4879	2147.8527	3106.7	2223.8
944.6232	2149.3693	3107.15	2221.85
944.7585	2150.8853	3104.55	2218.35
944.8938	2152.4005	3093.4	2207.35
945.029	2153.9149	3079.45	2193
945.1642	2155.4287	3091.6	2204.65
945.2994	2156.9417	3084.15	2196.75
945.4346	2158.454	3074.8	2190.4
945.5697	2159.9655	3051.65	2168.9
945.7048	2161.4764	3056.55	2173.45
945.8399	2162.9865	3055	2172.7
945.9749	2164.4958	3048.85	2166.95
946.1099	2166.0045	3037.85	2153.35
946.2449	2167.5124	3046.3	2162.85
946.3799	2169.0195	3022.3	2136.4
946.5148	2170.526	3018.7	2133.1
946.6498	2172.0317	3009.35	2124
946.7846	2173.5367	3004.15	2118.95
946.9195	2175.0409	3004.45	2121
947.0543	2176.5445	3003.2	2119.6
947.1891	2178.0473	3004.05	2114.45
947.3239	2179.5494	2985.35	2097.3
947.4587	2181.0507	2974.8	2088.5
947.5934	2182.5513	2974.25	2090.45
947.7281	2184.0512	2967.4	2081.25
947.8628	2185.5504	2971.6	2087.3
947.9974	2187.0488	2941.35	2058
948.132	2188.5465	2951	2069.35
948.2666	2190.0435	2935.25	2052
948.4012	2191.5397	2936.45	2050.95
948.5357	2193.0353	2932.35	2046.55
948.6702	2194.5301	2931.6	2045.1
948.8047	2196.0241	2918.1	2028.05
948.9392	2197.5175	2916.9	2025.8
949.0736	2199.0101	2914.9	2021.75
949.208	2200.502	2893.5	2008.05
949.3424	2201.9931	2875.9	1991.9
949.4767	2203.4835	2867.9	1983.7
949.611	2204.9733	2870.65	1981.85
949.7453	2206.4622	2862.1	1980
949.8796	2207.9505	2853.2	1968.85
950.0138	2209.438	2845.75	1964.25
950.148	2210.9248	2848.2	1962.3
950.2822	2212.4109	2839.95	1957.9
950.4164	2213.8962	2837.05	1946.6
950.5505	2215.3809	2834.2	1945.05
950.6846	2216.8648	2818.05	1929.25
950.8186	2218.3479	2830.5	1936.2
950.9527	2219.8304	2802.55	1910.05
951.0867	2221.3121	2796	1901.8
951.2207	2222.7931	2792.75	1903.75
951.3546	2224.2733	2780.95	1893.15
951.4886	2225.7529	2780.35	1894.6
951.6225	2227.2317	2763.15	1877.7
951.7563	2228.7098	2764.4	1884.25
951.8902	2230.1872	2761.9	1879
952.024	2231.6638	2752.65	1869.35
952.1578	2233.1397	2749.65	1863.65
952.2916	2234.6149	2758.8	1876.45
952.4253	2236.0894	2722.75	1838.45
952.559	2237.5632	2738.5	1842.55
952.6927	2239.0362	2723.1	1840.2
952.8263	2240.5085	2705.8	1822.85
952.9599	2241.9801	2699.15	1813.3
953.0935	2243.4509	2700.9	1814.85
953.2271	2244.921	2696.3	1806.6
953.3606	2246.3904	2683.2	1793.2
953.4941	2247.8591	2686.45	1799.4
953.6276	2249.3271	2672.65	1785.45
953.7611	2250.7943	2666.15	1779.65
953.8945	2252.2608	2664.95	1775.7
954.0279	2253.7266	2663.3	1779.2
954.1612	2255.1917	2668.9	1782.15
954.2946	2256.656	2647.75	1764.6
954.4279	2258.1197	2633.9	1751
954.5612	2259.5826	2630.05	1742.65
954.6944	2261.0447	2648.85	1763.85
954.8276	2262.5062	2636.05	1747.55
954.9608	2263.9669	2631.05	1741.95
955.094	2265.4269	2622.8	1737.05
955.2271	2266.8862	2615.35	1729
955.3602	2268.3448	2607.7	1721.05
955.4933	2269.8026	2608.8	1726.5
955.6264	2271.2598	2606.15	1723.5
955.7594	2272.7162	2594.5	1709.05
955.8924	2274.1719	2582.25	1694.65
956.0253	2275.6268	2583.75	1695.65
956.1583	2277.0811	2594.95	1709.1
956.2912	2278.5346	2585.6	1699.7
956.4241	2279.9874	2577.45	1694.45
956.5569	2281.4395	2574.6	1691.95
956.6897	2282.8908	2567.15	1677.75
956.8225	2284.3414	2566.7	1679.3
956.9553	2285.7914	2561.25	1674.25
957.088	2287.2406	2541.25	1650.05
957.2207	2288.689	2544.1	1657.4
957.3534	2290.1368	2551.05	1659.15
957.486	2291.5838	2550.55	1658
957.6186	2293.0302	2544.5	1653.8
957.7512	2294.4758	2520.85	1632.6
957.8838	2295.9206	2523.5	1632.95
958.0163	2297.3648	2517.2	1630.7
958.1488	2298.8082	2518.15	1631.25
958.2813	2300.251	2513.75	1627.8
958.4137	2301.693	2514.55	1623.1
958.5461	2303.1343	2503.95	1617.2
958.6785	2304.5748	2501.95	1615.05
958.8108	2306.0147	2483.25	1599.1
958.9432	2307.4538	2489.2	1604.1
959.0754	2308.8922	2479.65	1601.15
959.2077	2310.3299	2475.9	1590.4
959.3399	2311.7669	2476	1592.25
959.4721	2313.2031	2471.2	1586.2
959.6043	2314.6387	2460.95	1573.1
959.7365	2316.0735	2451.25	1563.35
959.8686	2317.5076	2442.6	1554.55
960.0006	2318.941	2439.3	1551.55
960.1327	2320.3737	2454.05	1565.3
960.2647	2321.8056	2444.45	1554.75
960.3967	2323.2369	2433.25	1544.35
960.5287	2324.6674	2428.4	1542.95
960.6606	2326.0972	2424.5	1535.45
960.7925	2327.5263	2415.9	1531.85
960.9244	2328.9547	2431.5	1544
961.0562	2330.3823	2415.2	1525.9
961.1881	2331.8092	2420.95	1528.5
961.3198	2333.2355	2400.75	1508.25
961.4516	2334.661	2390.85	1501.95
961.5833	2336.0858	2399.8	1509.9
961.715	2337.5098	2399.55	1511.05
961.8467	2338.9332	2397.9	1510.35
961.9783	2340.3558	2376.25	1484.9
962.1099	2341.7778	2361.55	1476.05
962.2415	2343.199	2366.3	1478.8
962.373	2344.6195	2372.95	1486.5
962.5045	2346.0393	2367.1	1480.5
962.636	2347.4583	2368.25	1481.15
962.7675	2348.8767	2374.35	1488.4
962.8989	2350.2943	2360	1472
963.0303	2351.7113	2366.15	1473.95
963.1617	2353.1275	2350.15	1461.6
963.293	2354.543	2361.4	1464.9
963.4243	2355.9578	2349.7	1460.65
963.5556	2357.3718	2336.6	1450.6
963.6868	2358.7852	2326.85	1439.55
963.818	2360.1978	2321.4	1436.15
963.9492	2361.6098	2317.25	1430.3
964.0803	2363.021	2308.7	1418.4
964.2114	2364.4315	2320.05	1435.7
964.3425	2365.8413	2314.2	1427.6
964.4736	2367.2504	2307.15	1423.45
964.6046	2368.6587	2291.85	1407.35
964.7356	2370.0664	2293.25	1407.65
964.8666	2371.4733	2286.3	1399.25
964.9975	2372.8795	2269.6	1385
965.1284	2374.285	2270.85	1386.75
965.2593	2375.6899	2267.75	1383.35
965.3901	2377.0939	2265.45	1382.3
965.5209	2378.4973	2255.95	1371.7
965.6517	2379.9	2256.5	1372.75
965.7825	2381.3019	2255.85	1371.95
965.9132	2382.7032	2238.95	1356.6
966.0439	2384.1037	2239.9	1357.05
966.1745	2385.5035	2232.85	1349.75
966.3051	2386.9027	2231.8	1348.5
966.4357	2388.3011	2230.95	1345.3
966.5663	2389.6987	2232.45	1348.65
966.6968	2391.0957	2223.95	1341.3
966.8273	2392.492	2214.05	1329.65
966.9578	2393.8876	2201.15	1314.9
967.0882	2395.2824	2194.3	1311.25
967.2186	2396.6765	2193.25	1310.45
967.349	2398.07	2206.8	1322.2
967.4793	2399.4627	2188.25	1299.7
967.6097	2400.8547	2186.75	1300.8
967.7399	2402.246	2192.8	1304.05
967.8702	2403.6366	2178.6	1293.7
968.0004	2405.0265	2175.5	1291.6
968.1306	2406.4156	2170.4	1282.9
968.2607	2407.8041	2167	1279.6
968.3909	2409.1918	2159.95	1274.05
968.521	2410.5789	2152.4	1268.2
968.651	2411.9652	2161.1	1274.05
968.781	2413.3508	2145.7	1261.35
968.911	2414.7358	2140.15	1253.9
969.041	2416.12	2137.75	1252.55
969.1709	2417.5035	2130.65	1248
969.3008	2418.8863	2137.5	1249.35
969.4307	2420.2684	2135.75	1253.15
969.5606	2421.6497	2125.25	1240.3
969.6904	2423.0304	2111.65	1227.05
969.8201	2424.4104	2113.4	1227.55
969.9499	2425.7896	2117.2	1231.6
970.0796	2427.1682	2114.45	1231.85
970.2093	2428.546	2112.15	1226.25
970.3389	2429.9232	2099.35	1211.45
970.4685	2431.2996	2095	1211.05
970.5981	2432.6753	2096.55	1209.75
970.7277	2434.0503	2092.25	1207
970.8572	2435.4246	2086.7	1200.55
970.9867	2436.7982	2077.5	1188.05
971.1161	2438.1711	2067.8	1183.6
971.2456	2439.5433	2077.65	1189.95
971.375	2440.9148	2066.65	1176
971.5043	2442.2856	2055.4	1171.85
971.6336	2443.6557	2063.5	1177.35
971.7629	2445.025	2054.8	1170.1
971.8922	2446.3937	2057.6	1170.9
972.0214	2447.7617	2043.9	1155.35
972.1506	2449.1289	2050.9	1163.2
972.2798	2450.4955	2055.05	1166.2
972.4089	2451.8613	2035.85	1152.6
972.538	2453.2265	2036.65	1151.95
972.6671	2454.5909	2022.3	1137.25
972.7961	2455.9546	2025.3	1140.85
972.9251	2457.3177	2021.1	1135.35
973.0541	2458.68	2022.15	1135.8
973.1831	2460.0416	2018.15	1134.15
973.312	2461.4025	2016.5	1129.7
973.4408	2462.7627	2015.25	1120.2
973.5697	2464.1222	2014.8	1133.15
973.6985	2465.4811	2012.55	1129.15
973.8273	2466.8392	2009.1	1123.55
973.956	2468.1966	2008.8	1120.85
974.0847	2469.5533	2002.75	1115
974.2134	2470.9093	2002.45	1117.25
974.3421	2472.2645	1999.7	1116.5
974.4707	2473.6191	1998.7	1113.65
974.5993	2474.973	1988.95	1103.35
974.7278	2476.3262	1983.35	1097.95
974.8563	2477.6787	1992.6	1108.05
974.9848	2479.0305	1989.8	1104.45
975.1132	2480.3816	1973.65	1085.95
975.2417	2481.7319	1973.75	1089.25
975.37	2483.0816	1969.7	1084.4
975.4984	2484.4306	1964.85	1080.1
975.6267	2485.7789	1957.4	1073.45
975.755	2487.1264	1957.75	1072.45
975.8833	2488.4733	1951.25	1068.95
976.0115	2489.8195	1959.25	1071.6
976.1397	2491.165	1945.55	1057.3
976.2678	2492.5097	1944.5	1059.1
976.3959	2493.8538	1930.9	1047.1
976.524	2495.1972	1931.15	1044.75
976.6521	2496.5398	1929.75	1042.45
976.7801	2497.8818	1925.55	1036.95
976.9081	2499.2231	1922	1037.4
977.036	2500.5637	1920.5	1033.95
977.164	2501.9035	1916.05	1031.35
977.2918	2503.2427	1917.25	1030.7
977.4197	2504.5812	1913.9	1029.95
977.5475	2505.919	1905.5	1015.85
977.6753	2507.256	1918.3	1034.85
977.8031	2508.5924	1898	1012.85
977.9308	2509.9281	1892.1	1000.85
978.0585	2511.2631	1891.6	1005.75
978.1861	2512.5974	1890.85	1006.2
978.3137	2513.9309	1887.95	1002.4
978.4413	2515.2638	1914.95	1004.4
978.5689	2516.596	1888.65	1003.35
978.6964	2517.9275	1877.95	991.1
978.8239	2519.2583	1877.55	993.9
978.9513	2520.5884	1870.95	987.15
979.0788	2521.9178	1863.6	978.15
979.2062	2523.2465	1866.6	982.85
979.3335	2524.5745	1855.85	970.5
979.4608	2525.9018	1860.4	975.35
979.5881	2527.2284	1854.1	969.75
979.7154	2528.5543	1857.05	972.5
979.8426	2529.8796	1851.55	966.05
979.9698	2531.2041	1842.25	955.45
980.0969	2532.5279	1850.8	968.3
980.224	2533.851	1849.95	965.1
980.3511	2535.1735	1843.8	957.55
980.4781	2536.4952	1845.55	961.55
980.6052	2537.8163	1848.75	961.15
980.7321	2539.1366	1843.65	958.5
980.8591	2540.4562	1828.7	942.25
980.986	2541.7752	1832.45	945.95
981.1129	2543.0935	1830.15	945
981.2397	2544.411	1829.65	943
981.3665	2545.7279	1836	950.95
981.4933	2547.0441	1819.05	934.35
981.62	2548.3596	1827.4	938.2
981.7467	2549.6744	1822.15	937.95
981.8734	2550.9885	1825.55	937.35
982.0001	2552.3019	1813.35	926.95
982.1267	2553.6146	1823.6	938.3
982.2532	2554.9266	1811	925.85
982.3798	2556.2379	1809.6	925.2
982.5063	2557.5485	1816.8	932.4
982.6327	2558.8585	1812.75	920.25
982.7592	2560.1677	1808.3	919.85
982.8856	2561.4762	1789.2	904.85
983.0119	2562.7841	1802.85	914.45
983.1383	2564.0913	1798	913.8
983.2646	2565.3977	1790.95	906.35
983.3908	2566.7035	1790.55	906.45
983.517	2568.0086	1802.75	915.35
983.6432	2569.313	1797.45	909.2
983.7694	2570.6167	1793.55	904.55
983.8955	2571.9197	1776.65	889.75
984.0216	2573.222	1784.65	896.9
984.1476	2574.5236	1784.7	896.7
984.2737	2575.8246	1778.1	889.85
984.3996	2577.1248	1776.5	889.15
984.5256	2578.4244	1767.85	882.5
984.6515	2579.7232	1779.65	892.15
984.7774	2581.0214	1800.6	889.3
984.9032	2582.3189	1778.35	892.55
985.029	2583.6157	1774.65	885.1
985.1548	2584.9118	1779.85	893.9
985.2806	2586.2072	1768.9	883.1
985.4063	2587.5019	1768.7	883.05
985.5319	2588.7959	1766.95	882.05
985.6576	2590.0893	1772.15	883.9
985.7832	2591.3819	1767.4	882.4
985.9087	2592.6739	1770.65	885.75
986.0343	2593.9652	1773.3	885.35
986.1597	2595.2557	1759.7	874.15
986.2852	2596.5456	1776	888
986.4106	2597.8348	1762.15	877.2
986.536	2599.1234	1763.65	878
986.6614	2600.4112	1766.75	882
986.7867	2601.6983	1766.55	878.35
986.912	2602.9848	1763.55	878.7
987.0372	2604.2705	1764.55	872.25
987.1624	2605.5556	1754.1	869.05
987.2876	2606.84	1749.35	865.05
987.4128	2608.1237	1746.9	862.25
987.5379	2609.4067	1744.15	860.05
987.6629	2610.689	1755.45	863
987.788	2611.9707	1740.35	851.95
987.913	2613.2516	1740.85	850.75
988.0379	2614.5319	1728.8	843.4
988.1629	2615.8115	1722.85	837
988.2878	2617.0903	1724	838.25
988.4126	2618.3685	1720.4	833.65
988.5375	2619.6461	1727.15	842.5
988.6622	2620.9229	1718.25	833.65
988.787	2622.199	1719.6	832.55
988.9117	2623.4745	1720.3	834.8
989.0364	2624.7493	1715.4	831.05
989.161	2626.0234	1698.55	815.95
989.2857	2627.2968	1699.55	815.8
989.4102	2628.5695	1708.6	823.25
989.5348	2629.8415	1702.85	817.9
989.6593	2631.1128	1702.5	817.85
989.7837	2632.3835	1703.05	818.5
989.9082	2633.6535	1694.05	810.6
990.0326	2634.9228	1694.5	809.75
990.1569	2636.1914	1694.5	811.3
990.2812	2637.4593	1689.75	805.25
990.4055	2638.7265	1680.45	794.9
990.5298	2639.9931	1677.7	794.1
990.654	2641.259	1687.1	802.25
990.7782	2642.5242	1682.65	797
990.9023	2643.7887	1682.45	797.55
991.0264	2645.0525	1678.85	794.65
991.1505	2646.3156	1676.45	791.3
991.2745	2647.5781	1673.05	789.15
991.3985	2648.8398	1656.25	771.95
991.5225	2650.1009	1702.5	781.65
991.6464	2651.3613	1664.65	780.85
991.7703	2652.6211	1663.75	780.3
991.8942	2653.8801	1657.6	773.05
992.018	2655.1385	1656.25	770.95
992.1418	2656.3961	1655.45	770.85
992.2655	2657.6531	1649.7	765.3
992.3892	2658.9094	1645.6	760.7
992.5129	2660.1651	1658.55	775.5
992.6366	2661.42	1648.95	765.4
992.7602	2662.6743	1654.85	769.95
992.8837	2663.9279	1662.85	780
993.0073	2665.1808	1661.45	775.4
993.1307	2666.433	1654	768.6
993.2542	2667.6846	1655.85	771.9
993.3776	2668.9354	1662.8	776.75
993.501	2670.1856	1657.3	773.8
993.6244	2671.4351	1659	774.85
993.7477	2672.6839	1662.15	776.9
993.8709	2673.9321	1660.3	778.7
993.9942	2675.1795	1662.4	778.1
994.1174	2676.4263	1657.7	773.35
994.2405	2677.6724	1661.55	779.1
994.3637	2678.9179	1667.8	784.7
994.4868	2680.1626	1655.55	772.35
994.6098	2681.4067	1668.95	786.1
994.7328	2682.6501	1667.75	782.4
994.8558	2683.8928	1655	772.15
994.9788	2685.1348	1645.1	762.7
995.1017	2686.3761	1646.4	763
995.2245	2687.6168	1643.35	760.05
995.3474	2688.8568	1635.75	753
995.4702	2690.0961	1633.65	752.25
995.5929	2691.3348	1637.6	751.85
995.7156	2692.5727	1624.85	744.65
995.8383	2693.81	1627.1	742.6
995.961	2695.0466	1618.9	738.25
996.0836	2696.2826	1619.3	735.85
996.2062	2697.5178	1643	740.5
996.3287	2698.7524	1623.65	740.85
996.4512	2699.9863	1626	740.65
996.5737	2701.2195	1613.8	731.45
996.6961	2702.452	1618.75	735.1
996.8185	2703.6839	1629.4	746.4
996.9408	2704.9151	1637.85	754.35
997.0631	2706.1456	1634.5	750.5
997.1854	2707.3755	1643.3	761.75
997.3077	2708.6046	1638.4	752.05
997.4299	2709.8331	1644.45	759.05
997.552	2711.0609	1661.5	781.15
997.6742	2712.2881	1666.25	782.1
997.7963	2713.5145	1669.1	783.45
997.9183	2714.7403	1677.8	797.3
998.0403	2715.9654	1685.1	801.5
998.1623	2717.1899	1705.8	810.25
998.2842	2718.4136	1705.85	823.35
998.4062	2719.6367	1713.25	828.9
998.528	2720.8591	1720.1	828.05
998.6498	2722.0809	1734.2	850.75
998.7716	2723.3019	1742.55	857.5
998.8934	2724.5223	1750.25	864
999.0151	2725.7421	1761.95	878.05
999.1368	2726.9611	1751.5	867.25
999.2584	2728.1795	1757.25	867.7
999.38	2729.3972	1734.2	852
999.5016	2730.6142	1744.5	848.15
999.6231	2731.8306	1712.85	830.55
999.7446	2733.0462	1710.35	825.3
999.8661	2734.2612	1694.45	807.05
999.9875	2735.4756	1669.65	784.3
1000.1089	2736.6892	1657.1	773.2
1000.2302	2737.9022	1641.3	760.05
1000.3515	2739.1145	1631.5	749.25
1000.4728	2740.3262	1617.8	728.2
1000.594	2741.5372	1599.95	716.65
1000.7152	2742.7475	1589.7	705.8
1000.8363	2743.9571	1583.3	698.9
1000.9575	2745.1661	1577.9	689.5
1001.0785	2746.3744	1570.95	689.8
1001.1996	2747.582	1557.25	674.15
1001.3206	2748.7889	1552.3	667.3
1001.4415	2749.9952	1540.45	657.05
1001.5625	2751.2008	1537.1	654.3
1001.6833	2752.4057	1537.1	650.1
1001.8042	2753.61	1522.5	639.95
1001.925	2754.8136	1518.1	632
1002.0458	2756.0165	1522.4	639.65
1002.1665	2757.2188	1520.25	638.85
1002.2872	2758.4204	1520.2	637.6
1002.4078	2759.6213	1519.65	634.2
1002.5285	2760.8215	1516.4	631
1002.649	2762.0211	1513.95	629.05
1002.7696	2763.22	1509.15	623.8
1002.8901	2764.4182	1512.55	628.8
1003.0106	2765.6158	1513.4	632.7
1003.131	2766.8127	1510	627.15
1003.2514	2768.009	1503.55	622.05
1003.3717	2769.2045	1499.2	615.1
1003.492	2770.3994	1505.05	620.8
1003.6123	2771.5936	1500	619.1
1003.7325	2772.7872	1479.7	599.35
1003.8527	2773.9801	1479.25	596.75
1003.9729	2775.1723	1495.65	597.6
1004.093	2776.3639	1476.2	594.7
1004.2131	2777.5548	1486.05	601.1
1004.3331	2778.745	1479	594.7
1004.4531	2779.9346	1478.25	595.15
1004.5731	2781.1235	1481.35	599.35
1004.693	2782.3117	1483.6	603
1004.8129	2783.4992	1479.3	596.95
1004.9328	2784.6861	1489.7	607.1
1005.0526	2785.8723	1498.85	614.8
1005.1723	2787.0579	1498	615.95
1005.2921	2788.2428	1504.1	624.1
1005.4118	2789.427	1500.9	620.25
1005.5314	2790.6106	1513.2	633.3
1005.651	2791.7935	1524.25	641.35
1005.7706	2792.9757	1528.4	649.5
1005.8902	2794.1573	1530.4	646.75
1006.0097	2795.3382	1542.35	659.4
1006.1291	2796.5184	1551.9	672.45
1006.2485	2797.698	1565.3	682.45
1006.3679	2798.8769	1573.85	691.05
1006.4873	2800.0551	1584.85	703.05
1006.6066	2801.2327	1605.85	722.15
1006.7258	2802.4096	1616.1	737
1006.8451	2803.5859	1630.3	745.45
1006.9642	2804.7615	1646.95	766.3
1007.0834	2805.9364	1655.05	774.2
1007.2025	2807.1106	1674.6	794.35
1007.3216	2808.2842	1711.75	828.9
1007.4406	2809.4572	1742.4	860.9
1007.5596	2810.6294	1758.05	877.75
1007.6785	2811.801	1796.05	916
1007.7975	2812.972	1839.2	959.45
1007.9163	2814.1423	1874.6	992.4
1008.0352	2815.3119	1918.25	1035.9
1008.154	2816.4808	1956.85	1078.7
1008.2727	2817.6491	1998.2	1117
1008.3914	2818.8167	2048.55	1169.2
1008.5101	2819.9837	2106.05	1221.75
1008.6288	2821.15	2145.1	1264.35
1008.7474	2822.3157	2201.6	1320.5
1008.8659	2823.4807	2246.15	1365.4
1008.9844	2824.645	2309.4	1426.35
1009.1029	2825.8086	2350.95	1470.75
1009.2214	2826.9716	2406.85	1526
1009.3398	2828.134	2463.05	1584.15
1009.4581	2829.2957	2491	1609.6
1009.5764	2830.4567	2526.95	1646.9
1009.6947	2831.617	2536.4	1656.65
1009.813	2832.7767	2549	1669.45
1009.9312	2833.9358	2554.65	1675.55
1010.0493	2835.0941	2548.4	1666
1010.1675	2836.2519	2542.3	1662.8
1010.2855	2837.4089	2522.8	1640
1010.4036	2838.5653	2507	1624.35
1010.5216	2839.7211	2505.35	1627.4
1010.6396	2840.8761	2509.3	1624.9
1010.7575	2842.0306	2520.25	1641.8
1010.8754	2843.1843	2546.2	1666.7
1010.9932	2844.3374	2581.1	1701.7
1011.111	2845.4899	2625.25	1742.4
1011.2288	2846.6417	2681.4	1800.6
1011.3465	2847.7928	2735.75	1855.45
1011.4642	2848.9433	2809.9	1929.3
1011.5818	2850.0931	2872.1	1991.5
1011.6995	2851.2422	2929.1	2045.4
1011.817	2852.3907	2981.05	2096.6
1011.9345	2853.5385	3045.8	2164.1
1012.052	2854.6857	3114.25	2220.6
1012.1695	2855.8323	3140.15	2260.2
1012.2869	2856.9781	3174.6	2295
1012.4042	2858.1233	3239.1	2357.7
1012.5216	2859.2679	3279	2399.95
1012.6389	2860.4118	3330.6	2449.85
1012.7561	2861.555	3376.75	2491.4
1012.8733	2862.6976	3402.6	2520.95
1012.9905	2863.8395	3441.35	2561.5
1013.1076	2864.9808	3468.9	2589.1
1013.2247	2866.1214	3491.2	2610.8
1013.3417	2867.2614	3484.95	2603.75
1013.4587	2868.4007	3514.1	2634.6
1013.5757	2869.5393	3534.7	2649.95
1013.6926	2870.6773	3540.2	2656.9
1013.8095	2871.8146	3563.3	2679.6
1013.9263	2872.9513	3555.45	2672.75
1014.0431	2874.0874	3539.1	2656.7
1014.1599	2875.2227	3544.35	2664.45
1014.2766	2876.3574	3525.3	2646.75
1014.3933	2877.4915	3481.3	2602.95
1014.51	2878.6249	3463.5	2584.1
1014.6266	2879.7577	3441.8	2561.2
1014.7431	2880.8898	3436.55	2546.75
1014.8596	2882.0212	3415.15	2537.05
1014.9761	2883.152	3401.65	2519.05
1015.0925	2884.2821	3394.85	2515.75
1015.2089	2885.4116	3379.25	2499
1015.3253	2886.5405	3384.55	2505
1015.4416	2887.6686	3406.55	2523.3
1015.5579	2888.7962	3404.15	2526.05
1015.6741	2889.923	3412.65	2535.35
1015.7903	2891.0493	3417.4	2539
1015.9065	2892.1748	3419.15	2539.15
1016.0226	2893.2997	3432.7	2553.8
1016.1387	2894.424	3443.1	2565.7
1016.2547	2895.5476	3456.3	2574.45
1016.3707	2896.6706	3479.35	2600.5
1016.4866	2897.7929	3502.55	2621.3
1016.6025	2898.9145	3535.8	2657
1016.7184	2900.0355	3548.45	2669.1
1016.8342	2901.1559	3573.4	2692.7
1016.95	2902.2756	3609.05	2729.1
1017.0658	2903.3946	3643.3	2764.95
1017.1815	2904.513	3668.75	2786.2
1017.2971	2905.6308	3706.6	2827.1
1017.4127	2906.7479	3717.2	2836.2
1017.5283	2907.8643	3737.1	2855.6
1017.6439	2908.9801	3770.6	2892.1
1017.7594	2910.0953	3755.8	2877
1017.8748	2911.2098	3755.95	2872.65
1017.9902	2912.3236	3738.45	2852.35
1018.1056	2913.4368	3732.4	2850.85
1018.2209	2914.5494	3726.8	2847.85
1018.3362	2915.6613	3711.9	2826.35
1018.4515	2916.7725	3686.1	2804.1
1018.5667	2917.8831	3660.85	2778.8
1018.6819	2918.9931	3611.25	2729.6
1018.797	2920.1024	3582.05	2700.7
1018.9121	2921.211	3556.6	2677.75
1019.0271	2922.319	3547.5	2667.4
1019.1421	2923.4264	3537.2	2657.5
1019.2571	2924.5331	3530.85	2652.6
1019.372	2925.6391	3509.85	2631.95
1019.4869	2926.7445	3510.6	2631.1
1019.6017	2927.8493	3503.1	2623.3
1019.7165	2928.9534	3496.25	2616.85
1019.8313	2930.0569	3522.65	2638.85
1019.946	2931.1597	3514.2	2635.2
1020.0606	2932.2619	3510.45	2630.5
1020.1753	2933.3634	3516.6	2639.8
1020.2899	2934.4643	3504.05	2616
1020.4044	2935.5645	3509.2	2623.45
1020.5189	2936.6641	3460.85	2577.45
1020.6334	2937.763	3432.2	2553.3
1020.7478	2938.8613	3375.1	2495.15
1020.8622	2939.959	3349.95	2466.7
1020.9765	2941.056	3275.8	2397.5
1021.0908	2942.1523	3211.15	2332.1
1021.2051	2943.248	3127.65	2246.8
1021.3193	2944.3431	3059	2180.8
1021.4334	2945.4375	2946.65	2066.55
1021.5476	2946.5313	2852.05	1974.75
1021.6617	2947.6244	2759.4	1879.55
1021.7757	2948.7169	2676.2	1796.65
1021.8897	2949.8087	2569.65	1691.2
1022.0037	2950.8999	2479.1	1598.95
1022.1176	2951.9904	2410.3	1532.45
1022.2315	2953.0803	2351.8	1471.8
1022.3453	2954.1696	2301.35	1423.65
1022.4591	2955.2582	2246.1	1368.45
1022.5728	2956.3462	2195.1	1316.35
1022.6865	2957.4335	2157.35	1277.5
1022.8002	2958.5202	2118	1237.45
1022.9138	2959.6062	2087.75	1209.55
1023.0274	2960.6916	2078.1	1198.95
1023.141	2961.7764	2050.55	1171.1
1023.2545	2962.8605	2041.45	1161.65
1023.3679	2963.9439	2021.3	1145.65
1023.4813	2965.0267	2010.3	1127.4
1023.5947	2966.1089	2031.35	1132.25
1023.708	2967.1905	1997.6	1119.3
1023.8213	2968.2714	1993.05	1114.85
1023.9346	2969.3516	1993.9	1114.4
1024.0478	2970.4312	2007.65	1122.45
1024.1609	2971.5102	1994.85	1116.7
1024.274	2972.5885	2006.9	1130.05
1024.3871	2973.6662	2013.55	1128.55
1024.5002	2974.7432	1990.75	1112.45
1024.6132	2975.8196	1990.9	1113.9
1024.7261	2976.8954	1986.6	1109.1
1024.839	2977.9705	1969	1090.7
1024.9519	2979.045	1959.35	1081.85
1025.0647	2980.1188	1952	1074.4
1025.1775	2981.192	1928.05	1050.25
1025.2902	2982.2645	1914	1034.1
1025.4029	2983.3364	1890.5	1013.35
1025.5156	2984.4077	1864.05	985.85
1025.6282	2985.4783	1842.85	959.9
1025.7407	2986.5483	1807.05	930.3
1025.8532	2987.6177	1771.2	894.7
1025.9657	2988.6864	1739.75	862.55
1026.0782	2989.7545	1722.5	842.2
1026.1906	2990.8219	1686.5	809.05
1026.3029	2991.8887	1660.05	779.1
1026.4152	2992.9548	1622.95	743.85
1026.5275	2994.0204	1591.65	713.1
1026.6397	2995.0852	1565.85	688.65
1026.7519	2996.1495	1539.55	662.1
1026.864	2997.2131	1514.6	637.85
1026.9761	2998.276	1498	620.1
1027.0882	2999.3383	1469.1	589.75
1027.2002	3000.4	1452.85	575.45
1027.3122	3001.4611	1434.75	557.1
1027.4241	3002.5215	1424.6	546.6
1027.536	3003.5812	1411.95	534.05
1027.6478	3004.6404	1399.25	520.2
1027.7596	3005.6989	1385.95	506.7
1027.8714	3006.7567	1369.05	492
1027.9831	3007.8139	1390.5	485.35
1028.0947	3008.8705	1351.2	474.25
1028.2064	3009.9264	1351	468.3
1028.3179	3010.9818	1342	462.25
1028.4295	3012.0364	1340.7	461.8
1028.541	3013.0905	1332	452.45
1028.6524	3014.1439	1322.55	443.85
1028.7638	3015.1966	1326	448.75
1028.8752	3016.2487	1316.85	439.6
1028.9865	3017.3002	1324.35	441.05
1029.0978	3018.3511	1312.9	436.4
1029.209	3019.4013	1317.5	440.15
1029.3202	3020.4509	1307.45	429.1
1029.4314	3021.4998	1303.3	426.05
1029.5425	3022.5481	1311.4	432
1029.6535	3023.5958	1303.85	425.65
1029.7645	3024.6428	1302.8	423.05
1029.8755	3025.6892	1306.9	428.95
1029.9864	3026.735	1305.5	426
1030.0973	3027.7802	1306.1	428.05
1030.2082	3028.8247	1306.5	427.95
1030.319	3029.8685	1304.7	428.25
1030.4297	3030.9118	1311.15	434.25
1030.5404	3031.9544	1315.9	439.05
1030.6511	3032.9963	1322.75	446.5
1030.7617	3034.0376	1311.65	435
1030.8723	3035.0783	1318.65	437.45
1030.9829	3036.1184	1323.25	444.85
1031.0934	3037.1578	1331.75	455.25
1031.2038	3038.1966	1322.05	442.7
1031.3142	3039.2348	1325.95	449.6
1031.4246	3040.2723	1333.15	446.55
1031.5349	3041.3092	1327.35	452.65
1031.6452	3042.3455	1331.6	455.6
1031.7554	3043.3811	1325.5	446.05
1031.8656	3044.4161	1316.8	439.3
1031.9758	3045.4505	1311.55	433.75
1032.0859	3046.4842	1318.9	439
1032.1959	3047.5173	1313.9	439.65
1032.3059	3048.5498	1307.75	428.75
1032.4159	3049.5816	1300.7	422.3
1032.5258	3050.6128	1301.85	422.15
1032.6357	3051.6434	1295.65	417.7
1032.7455	3052.6734	1297.4	418.7
1032.8553	3053.7027	1285.55	410.15
1032.9651	3054.7314	1287.65	411.5
1033.0748	3055.7594	1279.35	403.5
1033.1845	3056.7868	1272.8	392.8
1033.2941	3057.8136	1277	399.85
1033.4037	3058.8398	1264.7	387.55
1033.5132	3059.8653	1262.85	385.75
1033.6227	3060.8902	1269.5	393.1
1033.7321	3061.9145	1261.25	382.75
1033.8415	3062.9381	1255.85	378.5
1033.9509	3063.9612	1271.15	377.65
1034.0602	3064.9835	1250	373.1
1034.1694	3066.0053	1241.95	361.35
1034.2787	3067.0264	1236.9	359.6
1034.3878	3068.0469	1229.15	350.9
1034.497	3069.0668	1231.15	352.35
1034.6061	3070.086	1220.05	344.5
1034.7151	3071.1046	1213.7	336.4
1034.8241	3072.1226	1207.65	329.25
1034.9331	3073.1399	1206.85	330.85
1035.042	3074.1567	1195.95	319.15
1035.1508	3075.1727	1193.1	313.85
1035.2597	3076.1882	1179.8	302.55
1035.3684	3077.203	1170.95	294.3
1035.4772	3078.2173	1169.65	292.55
1035.5859	3079.2308	1167.35	287.85
1035.6945	3080.2438	1159.85	283.4
1035.8031	3081.2561	1147.95	271.5
1035.9117	3082.2678	1140.55	263.7
1036.0202	3083.2789	1137.5	257.25
1036.1286	3084.2893	1131.65	253.2
1036.2371	3085.2991	1126.05	249.45
1036.3454	3086.3083	1127.3	245.85
1036.4538	3087.3169	1119.65	239.2
1036.562	3088.3248	1114.85	237.4
1036.6703	3089.3321	1109.1	229.55
1036.7785	3090.3388	1100.1	222.35
1036.8866	3091.3449	1099.9	223.7
1036.9948	3092.3503	1095.7	215.5
1037.1028	3093.3551	1091.55	215.95
1037.2108	3094.3593	1089.45	211.7
1037.3188	3095.3629	1091	215.85
1037.4267	3096.3658	1085.05	205.55
1037.5346	3097.3681	1080.2	203.9
1037.6425	3098.3698	1083	203.55
1037.7503	3099.3708	1083.95	201.1
1037.858	3100.3713	1070.65	192.7
1037.9657	3101.3711	1068.5	191.65
1038.0734	3102.3702	1206.55	192.8
1038.181	3103.3688	1071	194.3
1038.2886	3104.3667	1064.55	189.9
1038.3961	3105.364	1061.65	184.5
1038.5036	3106.3607	1059.75	181.95
1038.611	3107.3568	1054.45	175.6
1038.7184	3108.3522	1054.4	179.2
1038.8257	3109.347	1055.35	177.95
1038.933	3110.3412	1057.2	176.45
1039.0403	3111.3348	1046.65	169.4
1039.1475	3112.3277	1049.3	174.05
1039.2547	3113.32	1045.7	170.3
1039.3618	3114.3117	1044.25	167.25
1039.4689	3115.3028	1039.2	163.15
1039.5759	3116.2932	1043.95	166.35
1039.6829	3117.2831	1044	159.9
1039.7898	3118.2723	1036.2	160.85
1039.8967	3119.2608	1037.45	159.2
1040.0035	3120.2488	1035.85	161
1040.1103	3121.2361	1032.3	156.6
1040.2171	3122.2229	1032.7	156.5
1040.3238	3123.209	1032.1	153.05
1040.4305	3124.1944	1027.45	152.2
1040.5371	3125.1793	1032.45	155.25
1040.6437	3126.1635	1025.95	151.85
1040.7502	3127.1471	1027.2	151
1040.8567	3128.1301	1021.75	144.35
1040.9631	3129.1125	1020.35	145.5
1041.0695	3130.0942	1021.5	142.7
1041.1759	3131.0753	1028.25	141.4
1041.2822	3132.0558	1024.05	144.3
1041.3884	3133.0357	1016.05	139.3
1041.4946	3134.015	1015.55	138
1041.6008	3134.9936	1017.5	137.35
1041.7069	3135.9716	1033.2	134.25
1041.813	3136.949	1015.55	137.2
1041.919	3137.9258	1031	134.8
1042.025	3138.902	1018.55	137.8
1042.1309	3139.8775	1007.95	131.9
1042.2368	3140.8524	1006.7	131.55
1042.3427	3141.8267	1010.2	131.4
1042.4485	3142.8004	1007.25	130.85
1042.5542	3143.7735	1011.75	129.15
1042.6599	3144.7459	1005.7	126.95
1042.7656	3145.7178	1005.4	128.8
1042.8712	3146.689	1003.3	128.2
1042.9768	3147.6596	1003.45	123.45
1043.0823	3148.6295	999.85	123.4
1043.1878	3149.5989	997.9	123.1
1043.2932	3150.5676	998.55	124.15
1043.3986	3151.5357	998.1	123.65
1043.5039	3152.5032	995.05	120.1
1043.6092	3153.4701	991.9	115.4
1043.7145	3154.4364	1000.7	122.6
1043.8197	3155.402	993.2	118.45
1043.9248	3156.367	993.5	114.55
1044.03	3157.3315	1022.45	113.55
1044.135	3158.2952	991.75	115.45
1044.24	3159.2584	987.6	110.15
1044.345	3160.221	992.1	114.55
1044.4499	3161.1829	990.45	114.75
1044.5548	3162.1442	988.2	111.55
1044.6596	3163.105	989.45	114.9
1044.7644	3164.065	988	112.25
1044.8692	3165.0245	988.95	110.35
1044.9739	3165.9834	978.8	102.75
1045.0785	3166.9416	983.7	107.5
1045.1831	3167.8993	986.3	109.95
1045.2877	3168.8563	985.1	108
1045.3922	3169.8127	982.4	108.35
1045.4966	3170.7684	978.9	104.05
1045.6011	3171.7236	987.05	110.3
1045.7054	3172.6782	980.05	103.05
1045.8098	3173.6321	978.35	102.3
1045.914	3174.5854	986.2	106.1
1046.0183	3175.5381	982	107.15
1046.1224	3176.4902	980.55	104.15
1046.2266	3177.4417	975.75	98.85
1046.3307	3178.3926	976.65	101.3
1046.4347	3179.3428	972.65	98.5
1046.5387	3180.2924	972.3	98.1
1046.6427	3181.2415	975.7	100.4
1046.7466	3182.1899	975.85	100.65
1046.8504	3183.1377	970.7	95.8
1046.9542	3184.0848	973.85	94.45
1047.058	3185.0314	974.5	97.4
1047.1617	3185.9773	971.55	94.3
1047.2654	3186.9227	972.55	98.55
1047.369	3187.8674	970.55	95.5
1047.4726	3188.8115	975.2	95.85
1047.5761	3189.755	966.15	90.8
1047.6796	3190.6979	967.3	90.65
1047.783	3191.6402	967.15	91.5
1047.8864	3192.5818	966.5	91.05
1047.9898	3193.5229	980.6	86.1
1048.0931	3194.4633	969.1	95
1048.1963	3195.4031	965.55	89.6
1048.2995	3196.3423	966.3	90.4
1048.4027	3197.2809	964.4	88.1
1048.5058	3198.2189	965	88.2
1048.6089	3199.1563	969.4	87.6
1048.7119	3200.0931	960.6	84.95
1048.8148	3201.0292	960.85	84.6
1048.9178	3201.9648	958.35	82.85
1049.0206	3202.8997	962.5	82.4
1049.1235	3203.834	959.75	85.45
1049.2262	3204.7677	964.05	87.7
1049.329	3205.7008	959.9	81.05
1049.4317	3206.6333	954.7	80.85
1049.5343	3207.5652	963.2	86.9
1049.6369	3208.4964	957.2	82.75
1049.7394	3209.4271	955	80.25
1049.8419	3210.3571	954.9	77.1
1049.9444	3211.2865	958.25	81.95
1050.0468	3212.2154	958.8	82.05
1050.1491	3213.1436	958.8	81.9
1050.2514	3214.0712	961.65	79.85
1050.3537	3214.9982	956.3	81.3
1050.4559	3215.9246	955.5	78.85
1050.5581	3216.8503	952.3	77.75
1050.6602	3217.7755	954.05	78.1
1050.7623	3218.7001	952.55	78.3
1050.8643	3219.624	956.65	81.1
1050.9663	3220.5473	951	75.95
1051.0682	3221.4701	953.4	76
1051.1701	3222.3922	954.85	79.35
1051.2719	3223.3137	952.7	77.8
1051.3737	3224.2346	948.75	73.95
1051.4754	3225.1549	949.25	74.05
1051.5771	3226.0746	947.95	71.2
1051.6788	3226.9937	950.7	74.9
1051.7804	3227.9121	949.9	75.35
1051.8819	3228.83	949.05	74
1051.9834	3229.7473	949.05	73.45
1052.0849	3230.6639	946.4	71.5
1052.1863	3231.5799	943.65	66
1052.2876	3232.4954	948.7	72.2
1052.3889	3233.4102	947.35	70.25
1052.4902	3234.3244	945.65	70.85
1052.5914	3235.238	943.95	71.8
1052.6926	3236.151	959.75	71.2
1052.7937	3237.0634	943.25	69.05
1052.8948	3237.9752	944.9	68.25
1052.9958	3238.8864	946.1	70.35
1053.0968	3239.797	941	64.6
1053.1977	3240.7069	945.25	68.75
1053.2986	3241.6163	943.9	68.5
1053.3994	3242.5251	939.4	66.15
1053.5002	3243.4332	940.4	66.2
1053.6009	3244.3408	940.25	65.25
1053.7016	3245.2477	941.15	66.8
1053.8022	3246.154	945.15	68.85
1053.9028	3247.0598	940.75	65.15
1054.0034	3247.9649	937.8	62.2
1054.1039	3248.8694	938.4	60.8
1054.2043	3249.7733	937.65	63.55
1054.3047	3250.6766	938.85	63.35
1054.4051	3251.5793	939	63.35
1054.5054	3252.4814	934.75	59.55
1054.6056	3253.3829	937.95	64.3
1054.7058	3254.2838	933.4	58.7
1054.806	3255.1841	934	59.25
1054.9061	3256.0838	932.8	56.3
1055.0061	3256.9829	932.75	58.05
1055.1062	3257.8814	935.65	58.5
1055.2061	3258.7792	936.2	59.55
1055.306	3259.6765	933.85	57.45
1055.4059	3260.5731	931.95	57.75
1055.5057	3261.4692	928.65	53.35
1055.6055	3262.3647	931	55.75
1055.7052	3263.2595	926.3	51.1
1055.8049	3264.1538	926.85	51.4
1055.9045	3265.0474	925.15	49.75
1056.0041	3265.9404	927.45	52.7
1056.1036	3266.8329	924.3	48.65
1056.2031	3267.7247	935.1	48.75
1056.3025	3268.616	923.15	50.65
1056.4019	3269.5066	922.5	44.55
1056.5013	3270.3966	920.2	43.95
1056.6005	3271.286	917.15	44.5
