Software Version:	3.9.2.0
Unit SN:	10000200
Spectrometer SN:	6960
Date:	3/8/2024 11:52:26 AM
Data Line Index:	25
Spectral Points:	2048
Integration time (ms):	125
Averages:	20
Delay (ms):	30000
Sequence Number:	1
Processing:	dark subtract
Laser Power (mW):	305
Laser Current (mA):	822
Laser Diode Temp (C):	25
Laser Case Temp (C):	25.4
System Temp (C):	25.4
Spectrometer Temp (C):	23.2
CCD Temp (C):	0.007
Secondary Temp (C):	20.001
Heatsink Temp (C):	19.881
CCDPCB Temp (C):	33.806
SecondaryPCB Temp (C):	27.826

Wavelength	RamanShift	Raw Counts	Dark Subtracted
787.061	30.1047	414.65	5.85
787.2016	32.3739	412.95	5.95
787.3422	34.6426	413.6	5.25
787.4828	36.9109	417.85	7.95
787.6235	39.1787	421.4	7.95
787.7642	41.4461	425.35	6.1
787.9049	43.7131	430.45	10.4
788.0456	45.9796	432.75	8.4
788.1863	48.2456	437.65	9.6
788.3271	50.5112	440.85	8
788.4679	52.7764	445.75	11.4
788.6087	55.0411	450.65	11.35
788.7496	57.3054	457.3	11.4
788.8904	59.5692	458.9	10.25
789.0313	61.8326	461.1	11.95
789.1722	64.0955	467.3	14.25
789.3132	66.3579	474.7	17.3
789.4541	68.6199	480.5	18.6
789.5951	70.8815	491.5	27.7
789.7361	73.1426	508.1	39.2
789.8771	75.4032	543.7	69.05
790.0181	77.6634	614.55	138
790.1592	79.9231	781	298.25
790.3003	82.1824	1115.75	621.7
790.4414	84.4412	1683.15	1173
790.5825	86.6995	2386.1	1854.65
790.7237	88.9574	3051.85	2505.75
790.8648	91.2148	3503.15	2944.95
791.006	93.4717	3682.2	3114.2
791.1472	95.7282	3708.65	3136.5
791.2885	97.9842	3686.4	3109.65
791.4297	100.2398	3627.85	3050.1
791.571	102.4949	3571.7	2993.6
791.7123	104.7495	3538.9	2957.95
791.8536	107.0036	3499.4	2915.9
791.9949	109.2573	3417.9	2835.75
792.1363	111.5105	3321.95	2734.85
792.2777	113.7632	3222.15	2635.4
792.4191	116.0154	3121.85	2522.85
792.5605	118.2672	3006.9	2415.1
792.7019	120.5185	2918.7	2322.95
792.8434	122.7693	2826.75	2228.65
792.9849	125.0197	2754	2153.65
793.1264	127.2696	2670.6	2064.35
793.2679	129.519	2636.85	2027.6
793.4094	131.7679	2607.7	1994.7
793.551	134.0163	2585.65	1973.3
793.6926	136.2642	2573.05	1954.7
793.8342	138.5117	2570.55	1940.95
793.9758	140.7587	2528	1907.6
794.1175	143.0052	2497.5	1871.55
794.2591	145.2512	2433.9	1809.65
794.4008	147.4967	2395.85	1771.95
794.5425	149.7417	2350.75	1721.55
794.6842	151.9863	2338.65	1705.8
794.826	154.2304	2331.55	1695.35
794.9677	156.4739	2308	1667.4
795.1095	158.717	2330.1	1686.75
795.2513	160.9596	2349.3	1699.45
795.3931	163.2017	2366	1718.9
795.535	165.4433	2374.4	1721.55
795.6768	167.6844	2369.15	1714.15
795.8187	169.925	2334.85	1678.95
795.9606	172.1651	2278.1	1619.25
796.1025	174.4047	2233.95	1571.45
796.2445	176.6439	2209.85	1549.85
796.3864	178.8825	2172.15	1504
796.5284	181.1206	2160	1491.3
796.6704	183.3582	2150.2	1474.7
796.8124	185.5954	2144.9	1467.05
796.9544	187.832	2155.45	1474.85
797.0965	190.0681	2146.75	1463.1
797.2386	192.3037	2144.55	1456.5
797.3806	194.5388	2159.55	1468.55
797.5228	196.7734	2162.4	1471.5
797.6649	199.0075	2188.65	1493
797.807	201.2411	2203.65	1508.45
797.9492	203.4742	2221.6	1526.95
798.0914	205.7068	2255.65	1555.45
798.2336	207.9389	2264.05	1560.9
798.3758	210.1704	2281.45	1583.2
798.518	212.4015	2270.45	1583.15
798.6603	214.632	2270.25	1588.5
798.8025	216.862	2273.1	1595.75
798.9448	219.0915	2297	1613.15
799.0871	221.3205	2300.75	1619.2
799.2294	223.549	2316.4	1638.1
799.3718	225.777	2301.65	1622.45
799.5141	228.0044	2305.65	1622.25
799.6565	230.2314	2297.35	1610.25
799.7989	232.4578	2289.25	1601.45
799.9413	234.6837	2266.9	1569.3
800.0837	236.909	2254.6	1553.3
800.2262	239.1339	2277.4	1551.8
800.3687	241.3582	2256.65	1546.3
800.5111	243.582	2277.65	1537.25
800.6536	245.8053	2282.05	1555.9
800.7961	248.0281	2279	1556.95
800.9387	250.2503	2282.45	1556.4
801.0812	252.472	2290.45	1561.95
801.2238	254.6932	2303.85	1577.3
801.3664	256.9139	2302.95	1572.4
801.509	259.134	2332.3	1598.35
801.6516	261.3536	2348.2	1615.3
801.7942	263.5727	2392.95	1658.85
801.9369	265.7912	2431.7	1696.25
802.0795	268.0092	2498.2	1764.2
802.2222	270.2267	2553.55	1819.85
802.3649	272.4436	2582.25	1846.45
802.5076	274.6601	2628.8	1884.25
802.6504	276.8759	2651.5	1909.25
802.7931	279.0913	2676.4	1930.6
802.9359	281.3061	2692.1	1949.25
803.0787	283.5204	2696	1949.95
803.2215	285.7341	2716.25	1967.65
803.3643	287.9473	2739.75	1986.75
803.5071	290.16	2752.95	2000.5
803.6499	292.3721	2713.5	1966.1
803.7928	294.5837	2676	1927.65
803.9357	296.7947	2665.05	1916.25
804.0786	299.0052	2636.6	1886.4
804.2215	301.2152	2626.75	1875.7
804.3644	303.4246	2604.85	1855.85
804.5074	305.6334	2582.2	1831.45
804.6503	307.8418	2568.2	1814.55
804.7933	310.0495	2536.85	1781.9
804.9363	312.2568	2508.8	1754.3
805.0793	314.4635	2468.8	1710.45
805.2223	316.6696	2422.4	1661.95
805.3653	318.8752	2378.55	1611.45
805.5084	321.0802	2351.05	1588.05
805.6514	323.2847	2352.1	1586.35
805.7945	325.4887	2352.35	1587.5
805.9376	327.692	2383.4	1617.35
806.0807	329.8949	2410.75	1640.4
806.2238	332.0972	2443.65	1673.7
806.367	334.2989	2476.8	1705.05
806.5101	336.5001	2454.65	1680.95
806.6533	338.7007	2427.2	1653.15
806.7965	340.9008	2386.5	1612.45
806.9397	343.1003	2334.2	1556.6
807.0829	345.2992	2285.15	1512.2
807.2261	347.4976	2255.1	1476.95
807.3693	349.6955	2232.4	1448.8
807.5126	351.8927	2204.4	1420.65
807.6559	354.0895	2201.05	1407
807.7991	356.2856	2192.35	1407.75
807.9424	358.4812	2174.45	1389.65
808.0857	360.6763	2165.5	1377.95
808.2291	362.8707	2166.35	1378.55
808.3724	365.0646	2175.45	1383.25
808.5158	367.258	2192.65	1401.4
808.6591	369.4508	2205.05	1410.2
808.8025	371.643	2233.05	1437.45
808.9459	373.8346	2245.4	1449.15
809.0893	376.0257	2287.9	1489.2
809.2327	378.2162	2316.5	1517.3
809.3762	380.4062	2308.8	1506
809.5196	382.5956	2295.8	1495.75
809.6631	384.7844	2252.75	1456.6
809.8066	386.9726	2202.45	1408
809.9501	389.1603	2185.65	1391.85
810.0936	391.3474	2194.9	1368.3
810.2371	393.5339	2175.5	1379.25
810.3806	395.7199	2189.15	1398.2
810.5241	397.9052	2213.7	1422.05
810.6677	400.09	2259.6	1466
810.8113	402.2743	2292.9	1499.95
810.9548	404.4579	2324.55	1531.05
811.0984	406.641	2376.1	1578.75
811.2421	408.8235	2421.9	1625.6
811.3857	411.0054	2454.85	1654.55
811.5293	413.1868	2518.5	1714.85
811.673	415.3675	2578.1	1772.1
811.8166	417.5477	2575.05	1769.9
811.9603	419.7273	2506.7	1697.35
812.104	421.9064	2432.65	1613.35
812.2477	424.0848	2368	1553.65
812.3914	426.2627	2322.25	1508.95
812.5351	428.4399	2258.75	1446.65
812.6788	430.6166	2202.2	1388.9
812.8226	432.7928	2166.85	1349.75
812.9663	434.9683	2130.2	1313.45
813.1101	437.1432	2098.8	1278.7
813.2539	439.3176	2073.85	1258.65
813.3977	441.4914	2064.7	1252.55
813.5415	443.6645	2060.45	1244.2
813.6853	445.8371	2063.7	1245
813.8291	448.0091	2067.15	1249.25
813.973	450.1806	2059.55	1244.2
814.1168	452.3514	2051.75	1235.4
814.2607	454.5216	2073.9	1245.6
814.4046	456.6913	2050.7	1227.95
814.5485	458.8603	2060.1	1242.25
814.6924	461.0288	2059.65	1239.4
814.8363	463.1967	2058.45	1243.15
814.9802	465.3639	2069.55	1248.85
815.1241	467.5306	2059.25	1239.05
815.2681	469.6967	2054.55	1236.3
815.412	471.8622	2038.7	1219.3
815.556	474.0271	2041.2	1220.3
815.7	476.1914	2041.45	1214.9
815.844	478.3551	2023.45	1198.15
815.988	480.5182	2028.85	1205.9
816.132	482.6807	2034.8	1215.1
816.276	484.8426	2054.1	1236.4
816.4201	487.0039	2111.5	1291.55
816.5641	489.1647	2145	1320.3
816.7082	491.3248	2189.95	1364.55
816.8522	493.4843	2200.9	1377.85
816.9963	495.6432	2195.45	1370.75
817.1404	497.8015	2177.25	1347.05
817.2845	499.9592	2133.15	1301.25
817.4286	502.1163	2074.7	1241.75
817.5727	504.2728	2045.45	1216.8
817.7168	506.4287	2013.5	1188.9
817.861	508.5839	1997.05	1169.1
818.0051	510.7386	1981.4	1151.1
818.1493	512.8927	1995.65	1154
818.2935	515.0461	2008.05	1177.25
818.4377	517.199	2029.65	1196.15
818.5818	519.3512	2066.5	1228.3
818.726	521.5029	2127.4	1291.2
818.8703	523.6539	2189.7	1351.45
819.0145	525.8043	2194.1	1355.9
819.1587	527.9541	2140	1299
819.303	530.1033	2084.45	1246.85
819.4472	532.2519	2035.9	1194.8
819.5915	534.3999	2011.3	1168.95
819.7357	536.5472	2006.25	1167
819.88	538.694	2008.05	1170.5
820.0243	540.8401	2018.45	1175.3
820.1686	542.9856	2036.9	1188.75
820.3129	545.1305	2046.9	1201.4
820.4572	547.2748	2064.15	1215.85
820.6016	549.4185	2069.4	1221.65
820.7459	551.5615	2070.75	1224.9
820.8902	553.704	2092.3	1245.45
821.0346	555.8458	2111.95	1266.3
821.1789	557.987	2130.45	1287.85
821.3233	560.1276	2153.35	1310.8
821.4677	562.2675	2203.05	1359.85
821.6121	564.4069	2264.1	1419.85
821.7565	566.5456	2299.55	1459.5
821.9009	568.6837	2288.05	1445.05
822.0453	570.8212	2222.6	1383.05
822.1897	572.958	2151.95	1307.55
822.3342	575.0942	2100.15	1256.15
822.4786	577.2299	2060.5	1216.45
822.6231	579.3648	2045.7	1206.1
822.7675	581.4992	2024.6	1187.4
822.912	583.6329	2021.8	1185.55
823.0565	585.766	2060.45	1224.7
823.201	587.8985	2112.05	1270.2
823.3454	590.0304	2156.7	1299.35
823.4899	592.1616	2185.7	1335.1
823.6345	594.2922	2167.6	1316
823.779	596.4222	2126.15	1273.95
823.9235	598.5515	2075.7	1222.85
824.068	600.6802	2025.55	1175.05
824.2126	602.8083	1987	1136.25
824.3571	604.9358	1970.05	1116.9
824.5017	607.0626	1986.2	1133.25
824.6462	609.1888	1995.15	1138.55
824.7908	611.3144	2016.1	1159.9
824.9354	613.4393	2053.15	1195.25
825.08	615.5636	2098.85	1239.85
825.2246	617.6873	2148.5	1291.15
825.3692	619.8103	2177.95	1322.8
825.5138	621.9327	2173.15	1314.35
825.6584	624.0544	2127.7	1274.3
825.803	626.1756	2090.85	1233.05
825.9477	628.2961	2039.65	1180.55
826.0923	630.4159	2019.4	1160.65
826.237	632.5351	2013.9	1153.4
826.3816	634.6537	2005.3	1144.95
826.5263	636.7716	1991.7	1125.7
826.6709	638.8889	1977.35	1114.6
826.8156	641.0056	1999.4	1135.95
826.9603	643.1216	1989.85	1127.6
827.105	645.237	2005.4	1140.25
827.2497	647.3518	1972.75	1110.3
827.3944	649.4659	1945.45	1090.9
827.5391	651.5793	1934.65	1078.3
827.6838	653.6922	1921.45	1065.65
827.8285	655.8043	1909.8	1051.6
827.9733	657.9159	1908.45	1047.15
828.118	660.0268	1896.9	1036.8
828.2627	662.137	1894.75	1031.1
828.4075	664.2466	1896.8	1031.35
828.5522	666.3556	1901.05	1034.65
828.697	668.4639	1884.55	1023.4
828.8418	670.5716	1871.75	1008.25
828.9865	672.6786	1878.25	1013.4
829.1313	674.785	1869.25	1003.1
829.2761	676.8907	1874.75	1010.5
829.4209	678.9958	1869.8	1008.35
829.5657	681.1002	1866.05	999.7
829.7105	683.204	1866.2	992.95
829.8553	685.3072	1867.7	996.05
830.0001	687.4097	1868.45	1001.6
830.1449	689.5115	1869.15	996.75
830.2898	691.6127	1869.85	1003.55
830.4346	693.7132	1856.7	989.5
830.5794	695.8131	1886.45	998.2
830.7243	697.9123	1866.8	996.75
830.8691	700.0109	1866.85	996.8
831.014	702.1089	1887	1016.65
831.1588	704.2061	1896.9	1027.1
831.3037	706.3028	1916.4	1044.35
831.4486	708.3987	1943.5	1071.9
831.5935	710.4941	1956.55	1083.1
831.7383	712.5887	1951.65	1081.9
831.8832	714.6827	1950.5	1076.85
832.0281	716.7761	1940.85	1072.1
832.173	718.8688	1936.25	1062.25
832.3179	720.9608	1945.9	1070.1
832.4628	723.0522	1967.4	1088.95
832.6077	725.1429	1985.05	1113.35
832.7527	727.233	2021.25	1146.35
832.8976	729.3224	2086.75	1213.55
833.0425	731.4112	2131.75	1256.55
833.1874	733.4993	2136.3	1260.65
833.3324	735.5867	2082.8	1208.85
833.4773	737.6735	2019.8	1144.9
833.6222	739.7596	1963.75	1085.35
833.7672	741.845	1939.65	1063.5
833.9122	743.9298	1941.95	1065.35
834.0571	746.014	1941.85	1067.6
834.2021	748.0974	1955.4	1077
834.347	750.1802	1959.95	1082.3
834.492	752.2624	1953.2	1075.4
834.637	754.3439	1934.1	1053.55
834.782	756.4247	1937.45	1050.3
834.9269	758.5048	1940.65	1061.95
835.0719	760.5843	1956.1	1077.35
835.2169	762.6631	1983.2	1103.8
835.3619	764.7413	2038.55	1159.95
835.5069	766.8188	2114.75	1232.85
835.6519	768.8956	2196.35	1314.15
835.7969	770.9718	2255.85	1376.05
835.9419	773.0473	2239.2	1360
836.0869	775.1221	2212.9	1334.85
836.232	777.1962	2206.45	1323.3
836.377	779.2697	2254.4	1371.1
836.522	781.3426	2353.55	1455.15
836.667	783.4147	2408.85	1528.75
836.8121	785.4862	2383.75	1505.95
836.9571	787.557	2304.45	1423.1
837.1021	789.6271	2177.85	1297.85
837.2472	791.6966	2066.7	1183.9
837.3922	793.7654	1978.25	1097.35
837.5373	795.8335	1922.65	1041.4
837.6823	797.901	1888.9	1004.85
837.8274	799.9678	1880.9	996.4
837.9724	802.0339	1889.7	1008.7
838.1175	804.0993	1893.45	1000.75
838.2626	806.1641	1889.55	1004.2
838.4076	808.2282	1860.9	979.75
838.5527	810.2916	1855.9	970.85
838.6978	812.3544	1827.4	945.9
838.8428	814.4164	1826.35	944.75
838.9879	816.4778	1831.1	946.4
839.133	818.5385	1840.75	956.1
839.2781	820.5986	1880.05	993.65
839.4232	822.658	1922.7	1035.95
839.5682	824.7166	1978.4	1095
839.7133	826.7747	2073.9	1187.4
839.8584	828.832	2153.05	1267.75
840.0035	830.8886	2214.65	1330.85
840.1486	832.9446	2224.15	1335.5
840.2937	834.9999	2188.55	1302.45
840.4388	837.0545	2124.9	1235.85
840.5839	839.1085	2037.95	1151.5
840.729	841.1618	1975.9	1087.35
840.8741	843.2143	1920.8	1033.85
841.0192	845.2662	1886.15	998.05
841.1643	847.3175	1868.65	980.3
841.3095	849.368	1858.15	971.5
841.4546	851.4179	1866.35	977
841.5997	853.467	1856.5	968
841.7448	855.5155	1863	972.05
841.8899	857.5633	1871.1	984.55
842.0351	859.6105	1873.5	983.65
842.1802	861.6569	1857.5	969.1
842.3253	863.7027	1836.3	947.05
842.4704	865.7478	1825.65	933.5
842.6156	867.7922	1816.75	928.7
842.7607	869.8359	1807.45	917.75
842.9058	871.8789	1813.3	923.55
843.0509	873.9212	1836.7	916.1
843.1961	875.9629	1821.15	931.2
843.3412	878.0039	1829.2	939.4
843.4863	880.0441	1846	956.7
843.6315	882.0837	1868.65	978.65
843.7766	884.1226	1887.8	996.45
843.9218	886.1609	1920.25	1031.5
844.0669	888.1984	1963.5	1071.95
844.212	890.2352	2008.6	1118.5
844.3572	892.2714	2017.1	1121
844.5023	894.3069	1989.45	1096.9
844.6475	896.3416	1939.55	1048
844.7926	898.3757	1902.4	1009.25
844.9377	900.4091	1878.05	984.15
845.0829	902.4418	1886.1	987.55
845.228	904.4739	1899.45	1006.1
845.3732	906.5052	1905.75	1013.85
845.5183	908.5358	1901.85	1007.6
845.6635	910.5658	1871.25	977.2
845.8086	912.595	1844	949.1
845.9538	914.6236	1819.45	928.55
846.0989	916.6515	1789.95	900.7
846.2441	918.6786	1775.75	882.75
846.3892	920.7051	1769.35	873.75
846.5344	922.7309	1770.6	878.2
846.6795	924.756	1764.35	871.25
846.8246	926.7804	1774.9	880.15
846.9698	928.8041	1783.15	888.25
847.1149	930.8272	1800.8	910.2
847.2601	932.8495	1805.25	909.65
847.4052	934.8711	1814.4	919.55
847.5504	936.892	1817.25	921.35
847.6955	938.9123	1837.9	939.85
847.8407	940.9318	1858.3	965.3
847.9858	942.9506	1865.2	971.45
848.131	944.9688	1854.35	960.75
848.2761	946.9862	1839.55	944.4
848.4213	949.003	1805.15	906.8
848.5664	951.019	1783.3	888.75
848.7115	953.0344	1777.65	882.3
848.8567	955.0491	1758.55	864.65
849.0018	957.063	1750.85	857.5
849.147	959.0763	1748.3	854.5
849.2921	961.0888	1744.2	847.2
849.4373	963.1007	1753.15	859.1
849.5824	965.1119	1737.7	847.2
849.7275	967.1223	1730.55	840.15
849.8727	969.1321	1726.7	839.5
850.0178	971.1412	1718.3	826.95
850.1629	973.1495	1725.55	831.7
850.3081	975.1572	1756.25	824.65
850.4532	977.1641	1729.85	837.75
850.5983	979.1704	1727.3	832.6
850.7435	981.1759	1719.65	820.35
850.8886	983.1808	1718.6	821.5
851.0337	985.1849	1715.15	806.35
851.1788	987.1884	1709.75	813.4
851.324	989.1911	1716.05	818.05
851.4691	991.1932	1718.1	820.6
851.6142	993.1945	1723.4	828.15
851.7593	995.1951	1712.9	817.15
851.9045	997.1951	1723.4	820.3
852.0496	999.1943	1710.75	816.7
852.1947	1001.1928	1715.25	817.15
852.3398	1003.1906	1726.05	828.2
852.4849	1005.1877	1748.85	852.4
852.63	1007.1841	1760.75	866.65
852.7751	1009.1798	1779.75	885.65
852.9202	1011.1748	1768.4	872.25
853.0653	1013.1691	1750.4	855.85
853.2104	1015.1627	1715.1	819
853.3555	1017.1556	1682.9	786.45
853.5006	1019.1477	1668.2	772.5
853.6457	1021.1392	1659.85	769.25
853.7908	1023.1299	1646.85	757.6
853.9359	1025.12	1649.95	760.3
854.081	1027.1093	1657.95	772.8
854.2261	1029.0979	1665.85	785
854.3712	1031.0859	1690.9	802.2
854.5163	1033.0731	1706.35	814.75
854.6613	1035.0596	1707.1	814.75
854.8064	1037.0454	1685.7	787.7
854.9515	1039.0304	1682.95	785.75
855.0965	1041.0148	1661.8	767.7
855.2416	1042.9985	1652.7	756.7
855.3867	1044.9814	1636.65	742.7
855.5317	1046.9636	1639.7	741.1
855.6768	1048.9452	1639.85	746.3
855.8219	1050.926	1655.8	760.25
855.9669	1052.9061	1664.5	767.7
856.112	1054.8855	1687.8	788.9
856.257	1056.8642	1671.05	773.85
856.4021	1058.8421	1679.55	779.85
856.5471	1060.8194	1668.05	770.4
856.6921	1062.7959	1673.9	778.35
856.8372	1064.7717	1672.4	775
856.9822	1066.7469	1674.8	778
857.1272	1068.7213	1674.7	775.55
857.2723	1070.695	1683.9	784.75
857.4173	1072.6679	1704.85	808.6
857.5623	1074.6402	1726.7	831.95
857.7073	1076.6117	1732.4	827.05
857.8523	1078.5826	1711.85	813.95
857.9973	1080.5527	1683.95	783.75
858.1423	1082.5221	1641.3	744.7
858.2873	1084.4908	1625.45	730.75
858.4323	1086.4587	1609.15	711.3
858.5773	1088.426	1599.45	699.8
858.7223	1090.3925	1603.55	702.4
858.8673	1092.3584	1601.95	702.95
859.0123	1094.3235	1614.5	720.1
859.1573	1096.2879	1633.85	735.65
859.3022	1098.2515	1661.3	761.6
859.4472	1100.2145	1678	781.2
859.5922	1102.1767	1716.75	820.55
859.7371	1104.1382	1751.95	856.15
859.8821	1106.099	1804.75	906.65
860.027	1108.0591	1844.4	946.8
860.172	1110.0185	1886.05	984.85
860.3169	1111.9771	1917.1	1019.15
860.4619	1113.9351	1969	1071
860.6068	1115.8923	2015.25	1116.45
860.7517	1117.8488	2036.05	1135.65
860.8967	1119.8045	1992.6	1094.7
861.0416	1121.7596	1898.5	997.8
861.1865	1123.7139	1814.8	917.85
861.3314	1125.6675	1765.15	867.05
861.4763	1127.6204	1758.95	861.75
861.6212	1129.5726	1776.6	876.9
861.7661	1131.524	1783.15	885.7
861.911	1133.4748	1738.5	838.15
862.0559	1135.4248	1682.1	783.5
862.2008	1137.3741	1642.25	744.8
862.3457	1139.3226	1626.15	726.05
862.4905	1141.2705	1619.25	720.65
862.6354	1143.2176	1630.05	725.35
862.7803	1145.164	1636.6	737.45
862.9251	1147.1097	1627.75	729.75
863.07	1149.0546	1607.6	710.55
863.2148	1150.9989	1582.65	684.35
863.3597	1152.9424	1568.95	671.15
863.5045	1154.8852	1566.95	665.85
863.6493	1156.8272	1551.05	652.4
863.7942	1158.7686	1555.95	651.65
863.939	1160.7092	1557.2	657.3
864.0838	1162.6491	1562.55	663.8
864.2286	1164.5883	1568.7	670.75
864.3734	1166.5267	1589.9	688.45
864.5182	1168.4644	1612.4	712.9
864.663	1170.4014	1645.15	741
864.8078	1172.3377	1675.4	778.95
864.9526	1174.2732	1732.5	835.1
865.0974	1176.2081	1814.5	915.7
865.2421	1178.1421	1927.75	1026.65
865.3869	1180.0755	2015.55	1117
865.5317	1182.0082	2076.7	1179.15
865.6764	1183.9401	2035.55	1137.2
865.8212	1185.8713	1951.3	1054.1
865.9659	1187.8017	1830.65	938.8
866.1106	1189.7315	1747.1	854.95
866.2554	1191.6605	1699.05	780.8
866.4001	1193.5888	1643.2	749.25
866.5448	1195.5163	1608.6	714.3
866.6895	1197.4432	1592.65	692.55
866.8342	1199.3693	1581	681.55
866.9789	1201.2947	1571.65	670.4
867.1236	1203.2193	1559.2	660.45
867.2683	1205.1432	1562.95	662.3
867.413	1207.0664	1561.05	661.95
867.5576	1208.9889	1562.15	661.3
867.7023	1210.9106	1566.25	667
867.847	1212.8316	1566.05	669.9
867.9916	1214.7519	1588.5	678.15
868.1363	1216.6715	1587.15	689.15
868.2809	1218.5903	1597.3	696.55
868.4255	1220.5084	1613.8	715.65
868.5701	1222.4257	1618.5	721.4
868.7148	1224.3424	1630.75	732.7
868.8594	1226.2583	1644.65	742.3
869.004	1228.1735	1675.95	774.9
869.1486	1230.0879	1718.7	820.2
869.2932	1232.0016	1750.75	853.8
869.4377	1233.9146	1797	896
869.5823	1235.8269	1812.15	914.1
869.7269	1237.7384	1819.35	920.35
869.8715	1239.6492	1820.55	922
870.016	1241.5592	1828	930.9
870.1606	1243.4686	1879.05	981.3
870.3051	1245.3772	1944.2	1044.95
870.4496	1247.285	2023.05	1122.7
870.5941	1249.1922	2094.85	1195.9
870.7387	1251.0986	2159.8	1264.5
870.8832	1253.0042	2235.1	1336.65
871.0277	1254.9092	2314.2	1415.95
871.1722	1256.8134	2379	1483.3
871.3167	1258.7169	2443.4	1546.1
871.4611	1260.6196	2452.8	1555.45
871.6056	1262.5216	2466.15	1568.05
871.7501	1264.4229	2436.45	1539.75
871.8945	1266.3234	2416.5	1517.15
872.039	1268.2232	2377.55	1478.75
872.1834	1270.1223	2329.65	1430.3
872.3278	1272.0207	2298.65	1397.8
872.4723	1273.9183	2287.9	1382.3
872.6167	1275.8151	2290.7	1394.2
872.7611	1277.7113	2329.9	1432.4
872.9055	1279.6067	2421.2	1522.3
873.0499	1281.5014	2543.95	1645.95
873.1943	1283.3953	2698.15	1799.15
873.3386	1285.2885	2849.5	1952.6
873.483	1287.181	2946.95	2046.9
873.6274	1289.0727	2988.4	2091.1
873.7717	1290.9637	2952.15	2053.4
873.9161	1292.854	2877.3	1977.7
874.0604	1294.7435	2789.4	1889.25
874.2047	1296.6323	2697.4	1799.9
874.349	1298.5204	2630.45	1726.75
874.4933	1300.4077	2561.2	1661.5
874.6376	1302.2943	2515.6	1615.25
874.7819	1304.1802	2478.15	1578.8
874.9262	1306.0653	2442.6	1541.1
875.0705	1307.9497	2417.55	1518.5
875.2147	1309.8333	2376.8	1477.5
875.359	1311.7162	2350.3	1451.5
875.5032	1313.5984	2311.25	1408.8
875.6475	1315.4798	2308.75	1390.3
875.7917	1317.3605	2293.85	1391.85
875.9359	1319.2405	2281.1	1379.8
876.0801	1321.1197	2244.7	1342.4
876.2243	1322.9982	2198	1294.55
876.3685	1324.876	2121.05	1221.1
876.5127	1326.753	2032.85	1134.9
876.6569	1328.6293	1961.55	1059.85
876.801	1330.5048	1888.9	987.1
876.9452	1332.3796	1822.4	921.7
877.0893	1334.2537	1804.65	878.05
877.2335	1336.127	1745.9	847.45
877.3776	1337.9996	1724.35	825
877.5217	1339.8714	1701.1	800.15
877.6658	1341.7426	1730.05	785.1
877.8099	1343.6129	1680	778.9
877.954	1345.4826	1671.15	771.4
878.0981	1347.3515	1651.3	748.25
878.2422	1349.2196	1644.25	744.65
878.3862	1351.087	1639.3	738.7
878.5303	1352.9537	1637.6	736.95
878.6743	1354.8197	1640.1	740.8
878.8184	1356.6849	1648.45	746.25
878.9624	1358.5493	1666.05	764.15
879.1064	1360.4131	1685	787.15
879.2504	1362.276	1720.85	824.65
879.3944	1364.1383	1754.25	854.8
879.5384	1365.9998	1767.3	863.35
879.6823	1367.8606	1749.1	848.5
879.8263	1369.7206	1736.45	836.95
879.9702	1371.5799	1735.35	834.6
880.1142	1373.4384	1715.15	815.25
880.2581	1375.2962	1699.4	798.1
880.402	1377.1533	1646.25	744.9
880.5459	1379.0096	1614.85	713.65
880.6898	1380.8652	1583.65	686.95
880.8337	1382.7201	1550.3	652.75
880.9776	1384.5742	1534.05	634.9
881.1215	1386.4275	1515.8	613.5
881.2653	1388.2802	1500.95	603.2
881.4092	1390.132	1482.7	581.85
881.553	1391.9832	1471.7	568.9
881.6968	1393.8336	1467.35	566.7
881.8406	1395.6832	1466.85	564.05
881.9844	1397.5322	1452.4	554.25
882.1282	1399.3803	1454.1	550.9
882.272	1401.2278	1439.25	540.5
882.4158	1403.0745	1435.3	533.4
882.5595	1404.9204	1421.1	523.65
882.7033	1406.7656	1423.85	524.75
882.847	1408.6101	1418.95	518.15
882.9908	1410.4538	1423.85	522.85
883.1345	1412.2968	1419.95	518.9
883.2782	1414.139	1416.95	517.35
883.4219	1415.9805	1429	532
883.5656	1417.8213	1443.8	541.25
883.7092	1419.6613	1449.5	550.65
883.8529	1421.5006	1477.65	577.55
883.9965	1423.3391	1504.3	604.05
884.1402	1425.1769	1552.9	649.45
884.2838	1427.0139	1619.9	719.05
884.4274	1428.8502	1698.2	797.65
884.571	1430.6858	1752.95	855.5
884.7146	1432.5206	1775.1	875.15
884.8582	1434.3547	1767.3	866.85
885.0018	1436.188	1757.8	857.55
885.1453	1438.0206	1738.55	839.1
885.2889	1439.8524	1730.45	833.2
885.4324	1441.6835	1732.6	832.8
885.5759	1443.5139	1732.05	831.35
885.7194	1445.3435	1736.15	838.75
885.8629	1447.1724	1734.2	838.4
886.0064	1449.0005	1733.95	835.15
886.1499	1450.8279	1734.55	837.2
886.2933	1452.6545	1728.8	828
886.4368	1454.4804	1712	813.9
886.5802	1456.3056	1716.4	809.2
886.7237	1458.13	1696.7	801.8
886.8671	1459.9536	1668.5	769.9
887.0105	1461.7766	1646.8	749.6
887.1539	1463.5987	1608.4	706.85
887.2972	1465.4202	1569.65	668.5
887.4406	1467.2409	1534.75	636.7
887.584	1469.0608	1510.25	612.6
887.7273	1470.88	1484.5	586.85
887.8706	1472.6984	1464.4	565.2
888.0139	1474.5161	1450.85	548.45
888.1572	1476.3331	1435.85	538.8
888.3005	1478.1493	1428.55	529.2
888.4438	1479.9648	1419.45	519.9
888.5871	1481.7795	1419.65	518.1
888.7303	1483.5935	1416.7	517.3
888.8736	1485.4067	1419	521.85
889.0168	1487.2192	1416.75	516.45
889.16	1489.031	1419.9	520.1
889.3032	1490.842	1406.15	508.6
889.4464	1492.6522	1405.75	506.8
889.5896	1494.4618	1400.6	500.7
889.7327	1496.2705	1401.55	504.4
889.8759	1498.0785	1389.2	492.8
890.019	1499.8858	1394.85	498.4
890.1622	1501.6924	1389.2	495.05
890.3053	1503.4981	1379.9	482.5
890.4484	1505.3032	1379.15	479.75
890.5914	1507.1075	1370.85	472.25
890.7345	1508.911	1365.35	467.75
890.8776	1510.7138	1360.65	462
891.0206	1512.5159	1358	459
891.1637	1514.3172	1345.15	446.75
891.3067	1516.1178	1342.8	446.4
891.4497	1517.9176	1337.05	433.5
891.5927	1519.7166	1326.65	431.25
891.7357	1521.515	1339.45	435.05
891.8786	1523.3126	1320.3	422.45
892.0216	1525.1094	1319.05	420.5
892.1645	1526.9055	1310.9	414.85
892.3074	1528.7008	1310.6	413.8
892.4503	1530.4954	1313.25	412
892.5932	1532.2893	1307.15	411.6
892.7361	1534.0824	1310.4	410.5
892.879	1535.8747	1307.45	411.05
893.0218	1537.6663	1304.3	408.25
893.1647	1539.4572	1304.4	407.2
893.3075	1541.2473	1301	401.8
893.4503	1543.0367	1297.2	400.1
893.5931	1544.8253	1309.3	406.45
893.7359	1546.6132	1313.15	411.45
893.8787	1548.4003	1319.15	414.3
894.0214	1550.1867	1329.85	426.85
894.1642	1551.9723	1332.15	431.05
894.3069	1553.7572	1342.25	446.75
894.4496	1555.5414	1359.8	462.8
894.5923	1557.3247	1385.25	490.5
894.735	1559.1074	1410.25	518.8
894.8777	1560.8893	1441.35	548.2
895.0204	1562.6705	1474.9	579.85
895.163	1564.4509	1495.45	603
895.3056	1566.2305	1498.45	605.15
895.4482	1568.0094	1501	607.05
895.5908	1569.7876	1499.9	605.8
895.7334	1571.565	1495.3	600.6
895.876	1573.3417	1496.2	603.1
896.0186	1575.1176	1497.7	607
896.1611	1576.8928	1513.25	620.6
896.3036	1578.6672	1525.5	635.7
896.4461	1580.4409	1544.75	653.85
896.5886	1582.2138	1569.9	678.95
896.7311	1583.986	1608.05	713.75
896.8736	1585.7575	1635.15	740.6
897.0161	1587.5282	1659	769.05
897.1585	1589.2981	1683.8	792.7
897.3009	1591.0673	1697.25	806.1
897.4433	1592.8358	1701.05	810
897.5857	1594.6035	1709.35	816.85
897.7281	1596.3704	1697.95	804.3
897.8705	1598.1366	1688.25	797.1
898.0128	1599.9021	1670.25	780.1
898.1551	1601.6668	1651	758.2
898.2975	1603.4308	1644.3	752.8
898.4398	1605.194	1658.8	760.6
898.5821	1606.9564	1672.8	784.7
898.7243	1608.7182	1723.75	834.2
898.8666	1610.4791	1796.85	911.35
899.0088	1612.2394	1869.8	984.6
899.1511	1613.9988	1953.05	1064.5
899.2933	1615.7576	2012.85	1122.8
899.4355	1617.5156	2016.1	1122.1
899.5776	1619.2728	1983.7	1091.55
899.7198	1621.0293	1907.7	1016.95
899.862	1622.785	1816.1	921.7
900.0041	1624.54	1717.25	825.2
900.1462	1626.2942	1615.15	725.45
900.2883	1628.0477	1539.35	645.65
900.4304	1629.8005	1476.7	582.6
900.5725	1631.5525	1416.75	526.5
900.7145	1633.3037	1373.75	486.7
900.8566	1635.0542	1350.95	462.15
900.9986	1636.804	1324.85	432.45
901.1406	1638.553	1376.7	378.3
901.2826	1640.3013	1279.05	389.1
901.4245	1642.0488	1261.75	369.3
901.5665	1643.7955	1246.9	358.7
901.7085	1645.5416	1241.6	351.1
901.8504	1647.2868	1232.85	344.55
901.9923	1649.0313	1228.6	336.75
902.1342	1650.7751	1232.2	339.8
902.2761	1652.5181	1221.7	334.05
902.4179	1654.2604	1225.55	336
902.5598	1656.0019	1227.2	339.75
902.7016	1657.7427	1248.05	359.95
902.8434	1659.4828	1266.7	378.3
902.9852	1661.222	1288.4	396.75
903.127	1662.9606	1309.3	418.55
903.2687	1664.6984	1333.15	441.75
903.4105	1666.4354	1331	436.35
903.5522	1668.1717	1308.7	416.25
903.6939	1669.9072	1273.4	380.5
903.8356	1671.642	1233.35	338.1
903.9773	1673.3761	1214.1	324.2
904.119	1675.1094	1186.15	296.15
904.2606	1676.8419	1168.85	279.6
904.4022	1678.5737	1160.3	269.75
904.5439	1680.3048	1162.25	269.6
904.6855	1682.0351	1148.9	257
904.827	1683.7646	1141	247.65
904.9686	1685.4934	1136.1	245.6
905.1101	1687.2215	1133.85	242.65
905.2517	1688.9488	1126.05	236
905.3932	1690.6754	1122.3	232.15
905.5347	1692.4012	1126.5	237.15
905.6761	1694.1263	1120.2	229.4
905.8176	1695.8506	1119.95	230.05
905.9591	1697.5742	1114.75	227.25
906.1005	1699.297	1114.2	229.35
906.2419	1701.0191	1106.35	219.15
906.3833	1702.7404	1108.85	219.85
906.5246	1704.461	1108.55	218.3
906.666	1706.1808	1105.65	215.7
906.8073	1707.8999	1103.55	215.95
906.9487	1709.6182	1102.55	214.7
907.09	1711.3358	1096.05	208.1
907.2313	1713.0527	1095.55	210.3
907.3725	1714.7688	1102.1	211.5
907.5138	1716.4841	1095.5	203.4
907.655	1718.1987	1100.3	207.65
907.7962	1719.9126	1093.45	208
907.9374	1721.6257	1091.75	201
908.0786	1723.338	1093.55	207.55
908.2198	1725.0496	1085.85	195.05
908.3609	1726.7605	1087.05	197.65
908.502	1728.4706	1086.6	199.85
908.6431	1730.18	1094.5	205.75
908.7842	1731.8886	1088.95	205.2
908.9253	1733.5964	1109.05	201.35
909.0664	1735.3036	1087.55	196.55
909.2074	1737.0099	1085.3	200.25
909.3484	1738.7156	1086.75	200.7
909.4894	1740.4204	1081.35	189.3
909.6304	1742.1246	1080.8	192.4
909.7714	1743.8279	1084.2	197.4
909.9123	1745.5306	1081.35	195.15
910.0532	1747.2325	1078.2	193.85
910.1941	1748.9336	1078.5	190.7
910.335	1750.634	1081.65	189.95
910.4759	1752.3336	1080.3	193.25
910.6168	1754.0325	1077.4	191.95
910.7576	1755.7307	1077.55	190.7
910.8984	1757.4281	1079.6	192
911.0392	1759.1247	1086.9	189.65
911.18	1760.8206	1084.7	190.65
911.3208	1762.5158	1081.85	188.05
911.4615	1764.2102	1077.3	190.8
911.6022	1765.9039	1073.2	187.1
911.7429	1767.5968	1071.9	185.1
911.8836	1769.289	1075.35	189.35
912.0243	1770.9804	1072.8	184.3
912.1649	1772.6711	1076.45	183.05
912.3056	1774.361	1073.8	183.35
912.4462	1776.0502	1071.3	181.3
912.5868	1777.7386	1075.2	181.2
912.7274	1779.4263	1076.15	186.3
912.8679	1781.1132	1066.75	180.95
913.0084	1782.7994	1072.1	185.55
913.149	1784.4849	1068.55	185.8
913.2895	1786.1696	1084.55	181
913.4299	1787.8535	1066.95	181.2
913.5704	1789.5367	1068.6	182.95
913.7108	1791.2192	1065.6	180.15
913.8513	1792.9009	1092.5	177.45
913.9917	1794.5818	1069.75	178.4
914.132	1796.2621	1064.9	177.55
914.2724	1797.9415	1067	178.8
914.4128	1799.6202	1060.5	175.8
914.5531	1801.2982	1062.9	173.35
914.6934	1802.9755	1063.05	172
914.8337	1804.6519	1061.35	172.35
914.9739	1806.3277	1060.75	174.05
915.1142	1808.0027	1059.25	174
915.2544	1809.6769	1060	176.25
915.3946	1811.3504	1056.15	169.75
915.5348	1813.0231	1059.55	173.7
915.675	1814.6951	1056.7	169.55
915.8151	1816.3664	1062.35	172.35
915.9553	1818.0369	1059.9	171.65
916.0954	1819.7067	1057.95	169.6
916.2355	1821.3757	1059.9	169.6
916.3755	1823.044	1057	169.45
916.5156	1824.7115	1057.65	169.35
916.6556	1826.3783	1055.45	166.55
916.7956	1828.0443	1055.3	168.6
916.9356	1829.7096	1057.5	169.15
917.0756	1831.3741	1056.75	164.85
917.2155	1833.0379	1052.25	166.1
917.3555	1834.701	1050.15	162.65
917.4954	1836.3633	1050.35	164.75
917.6353	1838.0248	1049.5	161.5
917.7751	1839.6856	1052.25	164.3
917.915	1841.3457	1053.8	167
918.0548	1843.005	1051.75	166.15
918.1946	1844.6636	1052.65	168.05
918.3344	1846.3214	1049.75	161.35
918.4742	1847.9785	1046.05	157.35
918.6139	1849.6349	1049.5	159.45
918.7537	1851.2904	1056.9	158.75
918.8934	1852.9453	1050.3	160.55
919.0331	1854.5994	1051.9	161.35
919.1727	1856.2528	1053.6	160.05
919.3124	1857.9054	1049.9	161.5
919.452	1859.5572	1047.95	160.4
919.5916	1861.2083	1051.4	163.95
919.7312	1862.8587	1047.5	158.15
919.8708	1864.5084	1045.05	153.6
920.0103	1866.1572	1048.3	158.55
920.1498	1867.8054	1047.55	158.7
920.2893	1869.4528	1045.45	156.1
920.4288	1871.0994	1045.35	157.95
920.5683	1872.7453	1045.7	156.2
920.7077	1874.3905	1049.65	153.45
920.8471	1876.0349	1045.8	157.05
920.9865	1877.6786	1045.35	156.1
921.1259	1879.3215	1042.45	155.65
921.2653	1880.9637	1041.95	154.85
921.4046	1882.6051	1041.2	154.1
921.5439	1884.2458	1045.15	156.2
921.6832	1885.8858	1041.15	154.8
921.8225	1887.525	1037.6	148.6
921.9617	1889.1634	1037.85	151.7
922.101	1890.8011	1043.25	155.65
922.2402	1892.4381	1038.75	149.65
922.3794	1894.0743	1039	151.1
922.5185	1895.7098	1041.6	154.6
922.6577	1897.3446	1039.7	149.6
922.7968	1898.9786	1043	151.55
922.9359	1900.6118	1033.95	148.25
923.075	1902.2443	1036.6	148.05
923.214	1903.8761	1036.55	149.75
923.3531	1905.5071	1036.9	146.3
923.4921	1907.1374	1033.75	144.75
923.6311	1908.7669	1034.2	147.8
923.77	1910.3957	1040.55	151.15
923.909	1912.0237	1030.6	143.9
924.0479	1913.651	1033.35	143.3
924.1868	1915.2776	1035.3	146.75
924.3257	1916.9034	1028.8	141.35
924.4646	1918.5285	1028.75	144.2
924.6034	1920.1528	1027.05	141
924.7422	1921.7764	1029.5	144.1
924.881	1923.3992	1032.6	144.9
925.0198	1925.0213	1029.15	140
925.1586	1926.6427	1025.65	136.85
925.2973	1928.2633	1243.75	145.55
925.436	1929.8832	1031.4	139.25
925.5747	1931.5023	1026	139.05
925.7134	1933.1207	1029	142.45
925.852	1934.7383	1028.3	139.2
925.9906	1936.3552	1026.95	141.45
926.1292	1937.9714	1022.15	133.85
926.2678	1939.5868	1027.25	136.55
926.4064	1941.2015	1027.15	137.1
926.5449	1942.8154	1025.3	135.8
926.6834	1944.4286	1025.1	138.35
926.8219	1946.041	1048.75	135.65
926.9604	1947.6528	1026.3	134.15
927.0988	1949.2637	1021.05	133.05
927.2372	1950.8739	1022.7	136.2
927.3756	1952.4834	1022.95	134.5
927.514	1954.0921	1022.8	134.05
927.6523	1955.7001	1021.95	129.7
927.7907	1957.3074	1020.25	134.3
927.929	1958.9139	1017.35	131.8
928.0673	1960.5197	1020.95	134.4
928.2055	1962.1247	1018.3	132.25
928.3438	1963.729	1015.6	133.85
928.482	1965.3325	1022.15	130.05
928.6202	1966.9353	1013.45	128.95
928.7584	1968.5374	1014.45	128.8
928.8965	1970.1387	1015.05	131.6
929.0346	1971.7393	1015	129.15
929.1727	1973.3392	1016.85	132.15
929.3108	1974.9383	1016.5	130.85
929.4489	1976.5366	1013.5	128.1
929.5869	1978.1342	1016.3	133.95
929.7249	1979.7311	1011.85	128.8
929.8629	1981.3273	1017.45	132.85
930.0009	1982.9227	1010.7	125.45
930.1388	1984.5173	1006.65	124.45
930.2767	1986.1112	1009.15	125.85
930.4146	1987.7044	1010.85	128.8
930.5525	1989.2968	1011.15	128.75
930.6904	1990.8885	1019.75	132.35
930.8282	1992.4795	1013.45	127.3
930.966	1994.0697	1003.7	123.1
931.1038	1995.6592	1009.45	126.7
931.2415	1997.2479	1005.45	123.35
931.3793	1998.8359	1005.35	123.75
931.517	2000.4232	1002.45	122.15
931.6547	2002.0097	1001.25	124.05
931.7923	2003.5955	1000.15	118.75
931.93	2005.1805	1009	125.95
932.0676	2006.7648	1007.05	126.1
932.2052	2008.3484	1006.95	127.6
932.3427	2009.9312	1006.45	124.65
932.4803	2011.5133	1001.55	123.7
932.6178	2013.0946	1003.75	125.7
932.7553	2014.6752	1003.25	123.6
932.8928	2016.2551	1007.95	126.4
933.0302	2017.8342	1003.9	122.55
933.1676	2019.4126	1002.95	122.85
933.305	2020.9902	998.95	120.8
933.4424	2022.5672	1000.25	117.9
933.5798	2024.1433	1009.7	126.65
933.7171	2025.7188	999.2	121.55
933.8544	2027.2935	1000.8	122.65
933.9917	2028.8674	1000.95	121.95
934.129	2030.4406	1002	125.95
934.2662	2032.0131	997.8	121
934.4034	2033.5849	997.65	112.2
934.5406	2035.1559	1002.45	124.2
934.6778	2036.7261	998.7	116.5
934.8149	2038.2957	1000.35	119.55
934.952	2039.8645	1006.15	125.25
935.0891	2041.4325	1006.65	125.55
935.2262	2042.9998	1003.45	124.15
935.3632	2044.5664	1000.9	119.7
935.5002	2046.1323	1001.05	122.75
935.6372	2047.6974	998.15	118.05
935.7742	2049.2617	999.9	120.45
935.9111	2050.8254	1003.25	119.95
936.048	2052.3883	1002.05	119.65
936.1849	2053.9504	1002.1	123.1
936.3218	2055.5118	1002.45	117.4
936.4586	2057.0725	1004.35	121.8
936.5955	2058.6325	996.65	117.7
936.7323	2060.1917	997.2	118.6
936.869	2061.7502	999.7	118.65
937.0058	2063.3079	996.35	119.2
937.1425	2064.8649	998.85	117.75
937.2792	2066.4212	999.9	120.9
937.4159	2067.9767	997.1	115.75
937.5525	2069.5315	999.7	118.65
937.6891	2071.0856	998.45	117.5
937.8257	2072.6389	994.85	113.55
937.9623	2074.1915	992.85	113.9
938.0989	2075.7433	998.95	117.8
938.2354	2077.2945	999.1	119.5
938.3719	2078.8448	997.05	115.9
938.5084	2080.3945	995.15	114.6
938.6448	2081.9434	995.6	115.1
938.7812	2083.4916	999.55	117.05
938.9176	2085.039	1000.8	116.55
939.054	2086.5857	1002.3	117.6
939.1903	2088.1317	1000.7	114.25
939.3267	2089.677	999.8	114.95
939.463	2091.2215	1000.9	118.05
939.5992	2092.7652	1004	121.1
939.7355	2094.3083	1000.25	118.65
939.8717	2095.8506	993.8	110.75
940.0079	2097.3921	997.4	117.05
940.1441	2098.933	993.1	109.8
940.2802	2100.4731	997.55	115.35
940.4163	2102.0124	1015.35	113.75
940.5524	2103.5511	997.3	113.75
940.6885	2105.089	1000.7	118.45
940.8245	2106.6261	998.85	118.55
940.9606	2108.1626	997.7	117.55
941.0965	2109.6983	1022.1	110.3
941.2325	2111.2332	995.3	112.35
941.3684	2112.7675	997.25	114.45
941.5044	2114.301	1002.25	117.05
941.6403	2115.8337	1000.55	119.75
941.7761	2117.3657	997.7	115.6
941.912	2118.897	997.8	113.5
942.0478	2120.4276	1002.5	114.4
942.1835	2121.9575	996.25	112.15
942.3193	2123.4866	995.7	110.1
942.455	2125.0149	998.05	113.4
942.5907	2126.5426	992.3	114.65
942.7264	2128.0695	995.5	112.15
942.8621	2129.5956	990.15	111.9
942.9977	2131.1211	995.6	112.3
943.1333	2132.6458	992.3	111
943.2689	2134.1698	999	114.45
943.4044	2135.693	999.95	113.55
943.54	2137.2155	997.45	111.9
943.6755	2138.7373	993.15	113.3
943.8109	2140.2584	992.85	114.55
943.9464	2141.7787	997.7	112
944.0818	2143.2983	990	112.85
944.2172	2144.8171	986.15	109.75
944.3526	2146.3353	992.7	111.85
944.4879	2147.8527	989.35	110.45
944.6232	2149.3693	997.65	115.2
944.7585	2150.8853	992.7	112
944.8938	2152.4005	994.25	111.55
945.029	2153.9149	996.35	113.1
945.1642	2155.4287	994.15	113.05
945.2994	2156.9417	993.45	112.15
945.4346	2158.454	993.8	108.65
945.5697	2159.9655	992	111.75
945.7048	2161.4764	988.35	107.95
945.8399	2162.9865	988.55	106.2
945.9749	2164.4958	990.85	110.65
946.1099	2166.0045	993.2	108.8
946.2449	2167.5124	992.85	112.7
946.3799	2169.0195	991.95	111.75
946.5148	2170.526	992.15	111
946.6498	2172.0317	989.3	109
946.7846	2173.5367	991.05	109.05
946.9195	2175.0409	987.95	109.2
947.0543	2176.5445	988.8	107.1
947.1891	2178.0473	991.7	108.6
947.3239	2179.5494	991.55	106.05
947.4587	2181.0507	992.6	110.95
947.5934	2182.5513	991.95	111.4
947.7281	2184.0512	990.25	107.85
947.8628	2185.5504	988.75	106.05
947.9974	2187.0488	985.95	105
948.132	2188.5465	984.8	104.7
948.2666	2190.0435	987.9	107.4
948.4012	2191.5397	988.85	106.95
948.5357	2193.0353	988.05	106.9
948.6702	2194.5301	990.5	105.85
948.8047	2196.0241	988.9	103.3
948.9392	2197.5175	991.75	105.95
949.0736	2199.0101	995.15	108.25
949.208	2200.502	987.7	107.75
949.3424	2201.9931	986.65	106.05
949.4767	2203.4835	983.7	102.55
949.611	2204.9733	1003.6	107.4
949.7453	2206.4622	985.75	107.1
949.8796	2207.9505	985.65	104.75
950.0138	2209.438	979.1	100.95
950.148	2210.9248	982.2	100.65
950.2822	2212.4109	983.6	102.85
950.4164	2213.8962	986.3	101.45
950.5505	2215.3809	991.15	108
950.6846	2216.8648	985.45	103.15
950.8186	2218.3479	991.5	102.3
950.9527	2219.8304	988.05	100.15
951.0867	2221.3121	986.15	100.7
951.2207	2222.7931	984.3	101.15
951.3546	2224.2733	981.8	99.35
951.4886	2225.7529	985.15	103.6
951.6225	2227.2317	989.3	106
951.7563	2228.7098	975.3	95.25
951.8902	2230.1872	980.1	100.55
952.024	2231.6638	980.75	101.65
952.1578	2233.1397	982.9	98.15
952.2916	2234.6149	976.25	96.9
952.4253	2236.0894	980.1	97.6
952.559	2237.5632	989.4	98.1
952.6927	2239.0362	979.25	97.75
952.8263	2240.5085	978	97
952.9599	2241.9801	981.4	98.55
953.0935	2243.4509	979.35	97.6
953.2271	2244.921	982.65	100.55
953.3606	2246.3904	980.6	96.3
953.4941	2247.8591	974.35	92.95
953.6276	2249.3271	976.05	94.25
953.7611	2250.7943	979.25	97.05
953.8945	2252.2608	980.1	97.1
954.0279	2253.7266	979.75	98.9
954.1612	2255.1917	978.75	95.9
954.2946	2256.656	974.1	91.1
954.4279	2258.1197	974.65	94.45
954.5612	2259.5826	978.55	96.3
954.6944	2261.0447	978.35	94.05
954.8276	2262.5062	979	95.45
954.9608	2263.9669	974.95	90.45
955.094	2265.4269	973.35	93.75
955.2271	2266.8862	977.1	95.45
955.3602	2268.3448	974.85	94.25
955.4933	2269.8026	976.05	94.45
955.6264	2271.2598	977	95.55
955.7594	2272.7162	970.35	89.3
955.8924	2274.1719	978.1	97.25
956.0253	2275.6268	975.75	93.35
956.1583	2277.0811	973.55	91.55
956.2912	2278.5346	972.4	93.45
956.4241	2279.9874	973.85	93.4
956.5569	2281.4395	969.65	89.45
956.6897	2282.8908	978.7	91.05
956.8225	2284.3414	976.4	94.75
956.9553	2285.7914	969.75	90.1
957.088	2287.2406	972.75	88.1
957.2207	2288.689	972.45	91.75
957.3534	2290.1368	972.6	89.3
957.486	2291.5838	977.2	90.2
957.6186	2293.0302	978.65	94.65
957.7512	2294.4758	971.55	89.85
957.8838	2295.9206	972.95	88.05
958.0163	2297.3648	969.65	89.7
958.1488	2298.8082	969.8	87.6
958.2813	2300.251	970.85	90.25
958.4137	2301.693	976.15	91.45
958.5461	2303.1343	973.85	89
958.6785	2304.5748	971	88.85
958.8108	2306.0147	970.1	88.65
958.9432	2307.4538	972.5	89.45
959.0754	2308.8922	968.4	91.2
959.2077	2310.3299	968.1	88.25
959.3399	2311.7669	973.75	92.45
959.4721	2313.2031	969.8	87.9
959.6043	2314.6387	968.45	87.25
959.7365	2316.0735	968.15	85.4
959.8686	2317.5076	973.7	91.2
960.0006	2318.941	971.35	88.95
960.1327	2320.3737	971.7	88.45
960.2647	2321.8056	971.85	89.05
960.3967	2323.2369	971.4	89
960.5287	2324.6674	974.35	91.3
960.6606	2326.0972	976.75	94.1
960.7925	2327.5263	977.85	95.1
960.9244	2328.9547	978.3	94.15
961.0562	2330.3823	976.85	93.5
961.1881	2331.8092	977.6	91
961.3198	2333.2355	970.05	87.05
961.4516	2334.661	969.05	85.4
961.5833	2336.0858	969.95	84.8
961.715	2337.5098	967.25	85.15
961.8467	2338.9332	967.1	83.5
961.9783	2340.3558	972.7	89.1
962.1099	2341.7778	966.5	86.35
962.2415	2343.199	967.35	84.85
962.373	2344.6195	964.65	82.55
962.5045	2346.0393	964.25	82.9
962.636	2347.4583	967.1	83.45
962.7675	2348.8767	966.25	83.3
962.8989	2350.2943	967.35	82.2
963.0303	2351.7113	964.45	80.15
963.1617	2353.1275	968.2	86
963.293	2354.543	991.75	84.5
963.4243	2355.9578	964.45	80.9
963.5556	2357.3718	961.55	78.3
963.6868	2358.7852	965.75	81.85
963.818	2360.1978	962.95	81.05
963.9492	2361.6098	962.8	80.7
964.0803	2363.021	966.15	79.95
964.2114	2364.4315	963	80.05
964.3425	2365.8413	963.75	79.25
964.4736	2367.2504	961.5	78.05
964.6046	2368.6587	967.7	85.25
964.7356	2370.0664	961	80.35
964.8666	2371.4733	961.85	78.95
964.9975	2372.8795	961.95	77.3
965.1284	2374.285	961.65	78.95
965.2593	2375.6899	962.85	83.55
965.3901	2377.0939	962.1	79.7
965.5209	2378.4973	962.1	79.9
965.6517	2379.9	964.65	79.5
965.7825	2381.3019	963.4	80.75
965.9132	2382.7032	959.9	76.5
966.0439	2384.1037	960.7	79.95
966.1745	2385.5035	957.55	73.4
966.3051	2386.9027	957.6	77.7
966.4357	2388.3011	964.7	79.65
966.5663	2389.6987	959.05	74.15
966.6968	2391.0957	958.3	76.2
966.8273	2392.492	955.2	70.35
966.9578	2393.8876	963.8	80.65
967.0882	2395.2824	958.95	77.8
967.2186	2396.6765	959.8	76.25
967.349	2398.07	956.15	72.4
967.4793	2399.4627	960.05	73
967.6097	2400.8547	960.65	73.95
967.7399	2402.246	964.85	75.85
967.8702	2403.6366	957.8	74.1
968.0004	2405.0265	958.75	76.6
968.1306	2406.4156	961.3	73.05
968.2607	2407.8041	961.85	74.5
968.3909	2409.1918	959.1	72.8
968.521	2410.5789	958.2	71.5
968.651	2411.9652	958.6	71.7
968.781	2413.3508	955.25	71.9
968.911	2414.7358	959.15	71.7
969.041	2416.12	956	71.6
969.1709	2417.5035	956.3	71.1
969.3008	2418.8863	960	75.4
969.4307	2420.2684	955.8	71.4
969.5606	2421.6497	956.95	70.35
969.6904	2423.0304	954.55	72.7
969.8201	2424.4104	952.75	67.05
969.9499	2425.7896	965.35	74.3
970.0796	2427.1682	952.95	68.35
970.2093	2428.546	954.5	69.95
970.3389	2429.9232	959.4	75
970.4685	2431.2996	953.15	69.05
970.5981	2432.6753	956.25	71.75
970.7277	2434.0503	956	71.5
970.8572	2435.4246	952.7	67.05
970.9867	2436.7982	956.45	69.35
971.1161	2438.1711	954.75	71.1
971.2456	2439.5433	955.65	70
971.375	2440.9148	954.45	68.95
971.5043	2442.2856	949.05	65.95
971.6336	2443.6557	956.25	71.4
971.7629	2445.025	954	70.25
971.8922	2446.3937	953	68.65
972.0214	2447.7617	949.1	63.95
972.1506	2449.1289	950.55	66.7
972.2798	2450.4955	955.15	68.7
972.4089	2451.8613	951.05	66.7
972.538	2453.2265	952.05	69
972.6671	2454.5909	949.65	67.4
972.7961	2455.9546	950.7	67.5
972.9251	2457.3177	951.85	68.2
973.0541	2458.68	949.75	64.05
973.1831	2460.0416	952.05	66.75
973.312	2461.4025	950.8	64.75
973.4408	2462.7627	956.35	62.15
973.5697	2464.1222	945.9	65.95
973.6985	2465.4811	946.25	63.2
973.8273	2466.8392	947.1	65.05
973.956	2468.1966	950.85	63.85
974.0847	2469.5533	951.55	65.2
974.2134	2470.9093	950.3	68.65
974.3421	2472.2645	945.05	63.8
974.4707	2473.6191	950.25	65.85
974.5993	2474.973	948.4	66.15
974.7278	2476.3262	952.1	66.25
974.8563	2477.6787	946.6	65.2
974.9848	2479.0305	947.15	64.4
975.1132	2480.3816	950.9	65
975.2417	2481.7319	947.4	64.05
975.37	2483.0816	950.4	64.45
975.4984	2484.4306	948.45	65.3
975.6267	2485.7789	946.5	65
975.755	2487.1264	945.45	62.8
975.8833	2488.4733	944.6	62.85
976.0115	2489.8195	950.65	59.35
976.1397	2491.165	953.6	68.1
976.2678	2492.5097	947.25	64.7
976.3959	2493.8538	946	63.5
976.524	2495.1972	947	63.2
976.6521	2496.5398	947.3	61
976.7801	2497.8818	946.6	63.15
976.9081	2499.2231	943.2	62.15
977.036	2500.5637	945.6	60.9
977.164	2501.9035	943.3	59.7
977.2918	2503.2427	949	62.75
977.4197	2504.5812	943.6	59.2
977.5475	2505.919	946.45	60.85
977.6753	2507.256	948.05	65.6
977.8031	2508.5924	944	61.65
977.9308	2509.9281	948.7	60.5
978.0585	2511.2631	942.8	59.9
978.1861	2512.5974	942.45	60.6
978.3137	2513.9309	943.85	60.7
978.4413	2515.2638	972.85	62.25
978.5689	2516.596	944.55	61.45
978.6964	2517.9275	946.45	61.05
978.8239	2519.2583	942.65	59.05
978.9513	2520.5884	943.25	58.05
979.0788	2521.9178	941.7	59.25
979.2062	2523.2465	941.2	60.3
979.3335	2524.5745	939.25	56.65
979.4608	2525.9018	944.15	62.7
979.5881	2527.2284	942.05	61.15
979.7154	2528.5543	938.65	56.95
979.8426	2529.8796	942.95	59.05
979.9698	2531.2041	939.1	54.6
980.0969	2532.5279	940.1	59.6
980.224	2533.851	941	56.45
980.3511	2535.1735	939.1	56
980.4781	2536.4952	942.45	61.05
980.6052	2537.8163	940.15	56.15
980.7321	2539.1366	941.3	58.15
980.8591	2540.4562	942.45	56.6
980.986	2541.7752	940.65	58.3
981.1129	2543.0935	939.4	55.05
981.2397	2544.411	942.85	61.45
981.3665	2545.7279	940.35	59.05
981.4933	2547.0441	937.7	53.95
981.62	2548.3596	943.4	58.4
981.7467	2549.6744	939.3	57.15
981.8734	2550.9885	946.1	53.65
982.0001	2552.3019	939.45	56.85
982.1267	2553.6146	943.8	59.7
982.2532	2554.9266	938.6	52.9
982.3798	2556.2379	942.15	58.15
982.5063	2557.5485	935.2	53.95
982.6327	2558.8585	944.8	53.85
982.7592	2560.1677	940.35	54.15
982.8856	2561.4762	939.85	55.95
983.0119	2562.7841	938.05	53.65
983.1383	2564.0913	936.35	54.75
983.2646	2565.3977	937.35	53.95
983.3908	2566.7035	939.55	58.3
983.517	2568.0086	941	58
983.6432	2569.313	937.5	53.6
983.7694	2570.6167	940.2	54.7
983.8955	2571.9197	937.8	54.1
984.0216	2573.222	941.05	53.8
984.1476	2574.5236	937.8	54.65
984.2737	2575.8246	940.95	56.65
984.3996	2577.1248	943.1	58.5
984.5256	2578.4244	938.1	56.1
984.6515	2579.7232	937.25	54.2
984.7774	2581.0214	962.55	54.85
984.9032	2582.3189	933.5	51.6
985.029	2583.6157	941.35	53.85
985.1548	2584.9118	939.95	56.1
985.2806	2586.2072	936.7	56.05
985.4063	2587.5019	937.5	53.3
985.5319	2588.7959	941.25	59.1
985.6576	2590.0893	939.35	52.2
985.7832	2591.3819	936.5	54
985.9087	2592.6739	935.15	51.5
986.0343	2593.9652	938.85	54.15
986.1597	2595.2557	934.65	51.9
986.2852	2596.5456	939.5	53.4
986.4106	2597.8348	935.1	53.15
986.536	2599.1234	934.2	53.65
986.6614	2600.4112	935.9	51.3
986.7867	2601.6983	937.55	52.7
986.912	2602.9848	936.55	52.6
987.0372	2604.2705	944.7	57.4
987.1624	2605.5556	936	55
987.2876	2606.84	935.6	52.85
987.4128	2608.1237	934.6	49.8
987.5379	2609.4067	932.5	51.4
987.6629	2610.689	947.1	54.15
987.788	2611.9707	937.3	50.5
987.913	2613.2516	940.85	54.85
988.0379	2614.5319	933.85	53
988.1629	2615.8115	932.3	49.8
988.2878	2617.0903	936	53.5
988.4126	2618.3685	931.4	50.2
988.5375	2619.6461	934.15	53.8
988.6622	2620.9229	931.7	48.35
988.787	2622.199	933.15	49.45
988.9117	2623.4745	933.1	50.8
989.0364	2624.7493	932.85	50.05
989.161	2626.0234	931.25	47.65
989.2857	2627.2968	930.2	50.5
989.4102	2628.5695	931.75	46.4
989.5348	2629.8415	933.55	51.65
989.6593	2631.1128	930.75	47.3
989.7837	2632.3835	931.45	47.85
989.9082	2633.6535	929.8	48.15
990.0326	2634.9228	932.1	50.95
990.1569	2636.1914	929.1	50.1
990.2812	2637.4593	936.4	48.8
990.4055	2638.7265	932.4	50.45
990.5298	2639.9931	930.65	47.95
990.654	2641.259	929.9	45.7
990.7782	2642.5242	931.7	48
990.9023	2643.7887	930.85	49
991.0264	2645.0525	929.1	45.35
991.1505	2646.3156	931.05	47.65
991.2745	2647.5781	925.55	43.5
991.3985	2648.8398	927.3	44.2
991.5225	2650.1009	937.55	47.7
991.6464	2651.3613	927.8	47
991.7703	2652.6211	929.9	48.25
991.8942	2653.8801	928.2	46.9
992.018	2655.1385	931.75	47.5
992.1418	2656.3961	926.5	44.2
992.2655	2657.6531	927.25	45.05
992.3892	2658.9094	931.1	47.7
992.5129	2660.1651	927.7	47.7
992.6366	2661.42	926.75	44.05
992.7602	2662.6743	930	47.5
992.8837	2663.9279	928.35	48.45
993.0073	2665.1808	929.55	48.5
993.1307	2666.433	928.5	45.25
993.2542	2667.6846	927.3	45.7
993.3776	2668.9354	933.8	47.9
993.501	2670.1856	929.3	46.3
993.6244	2671.4351	926.3	44.85
993.7477	2672.6839	927.9	44.7
993.8709	2673.9321	931.45	49.8
993.9942	2675.1795	928.05	47.9
994.1174	2676.4263	929.7	46.45
994.2405	2677.6724	928.7	47.9
994.3637	2678.9179	929.45	47.85
994.4868	2680.1626	927.9	47.05
994.6098	2681.4067	925.85	45.15
994.7328	2682.6501	925.65	44.75
994.8558	2683.8928	928.25	47.25
994.9788	2685.1348	924.4	43.6
995.1017	2686.3761	926.7	44
995.2245	2687.6168	925.25	43.9
995.3474	2688.8568	923.6	41.45
995.4702	2690.0961	927.55	47.6
995.5929	2691.3348	924.4	43.7
995.7156	2692.5727	924.65	40.9
995.8383	2693.81	924.6	44.25
995.961	2695.0466	924.35	44.6
996.0836	2696.2826	925.7	43.6
996.2062	2697.5178	927.85	44.55
996.3287	2698.7524	925.2	44
996.4512	2699.9863	925.65	42.5
996.5737	2701.2195	924.7	43.6
996.6961	2702.452	928.2	45.3
996.8185	2703.6839	927.95	43.85
996.9408	2704.9151	923	43.95
997.0631	2706.1456	924.4	42.2
997.1854	2707.3755	926.55	45.65
997.3077	2708.6046	927.3	43.15
997.4299	2709.8331	924.55	44.4
997.552	2711.0609	925.85	44.3
997.6742	2712.2881	925.3	43.4
997.7963	2713.5145	928.9	45.65
997.9183	2714.7403	928.05	47.85
998.0403	2715.9654	930.55	49.3
998.1623	2717.1899	942.4	46.8
998.2842	2718.4136	931.05	48.4
998.4062	2719.6367	930.85	50.7
998.528	2720.8591	938.7	50.85
998.6498	2722.0809	933.7	52
998.7716	2723.3019	936.45	50.65
998.8934	2724.5223	934.9	52.9
999.0151	2725.7421	935	53
999.1368	2726.9611	934.5	52.85
999.2584	2728.1795	936.85	50.1
999.38	2729.3972	932.3	51.15
999.5016	2730.6142	936.55	47.3
999.6231	2731.8306	928.7	46.4
999.7446	2733.0462	929.35	45.05
999.8661	2734.2612	930.25	45.9
999.9875	2735.4756	927.55	45.9
1000.1089	2736.6892	925.2	44.95
1000.2302	2737.9022	923.55	44.65
1000.3515	2739.1145	922.4	38.7
1000.4728	2740.3262	932.45	43.5
1000.594	2741.5372	926.3	47
1000.7152	2742.7475	924.3	43.75
1000.8363	2743.9571	924.65	43.5
1000.9575	2745.1661	925.9	40.25
1001.0785	2746.3744	925.45	45
1001.1996	2747.582	919.7	39.8
1001.3206	2748.7889	922.45	39
1001.4415	2749.9952	918.15	36.3
1001.5625	2751.2008	920.8	39.3
1001.6833	2752.4057	921.45	39.75
1001.8042	2753.61	916	34.2
1001.925	2754.8136	917.9	35.4
1002.0458	2756.0165	918	37.55
1002.1665	2757.2188	916.45	37.45
1002.2872	2758.4204	917.1	36.65
1002.4078	2759.6213	918.1	35.6
1002.5285	2760.8215	921.15	37.25
1002.649	2762.0211	919.5	38.4
1002.7696	2763.22	920	37.15
1002.8901	2764.4182	918.8	36.65
1003.0106	2765.6158	918.7	36.7
1003.131	2766.8127	916.4	35.2
1003.2514	2768.009	915.95	36.45
1003.3717	2769.2045	916.7	34.05
1003.492	2770.3994	917.6	36.2
1003.6123	2771.5936	918.25	37.95
1003.7325	2772.7872	915	34.9
1003.8527	2773.9801	914.5	32.45
1003.9729	2775.1723	932.2	38.15
1004.093	2776.3639	915.85	36.1
1004.2131	2777.5548	918.85	36.25
1004.3331	2778.745	916.9	32.95
1004.4531	2779.9346	915	36.4
1004.5731	2781.1235	918.1	36.15
1004.693	2782.3117	914	33.35
1004.8129	2783.4992	914.4	34.1
1004.9328	2784.6861	912.35	32.75
1005.0526	2785.8723	915.05	33.35
1005.1723	2787.0579	914.9	36.75
1005.2921	2788.2428	915.45	33.55
1005.4118	2789.427	912.45	32.85
1005.5314	2790.6106	913.55	34.15
1005.651	2791.7935	914.9	35.25
1005.7706	2792.9757	914.1	36.4
1005.8902	2794.1573	914.85	33.5
1006.0097	2795.3382	913	33.05
1006.1291	2796.5184	914.45	35.6
1006.2485	2797.698	916.85	35.85
1006.3679	2798.8769	914.35	34.6
1006.4873	2800.0551	915.35	33.7
1006.6066	2801.2327	917.85	33.95
1006.7258	2802.4096	917.2	37.1
1006.8451	2803.5859	913.05	33.35
1006.9642	2804.7615	918.5	38.05
1007.0834	2805.9364	916.75	37.35
1007.2025	2807.1106	913.85	36.55
1007.3216	2808.2842	917.35	36.65
1007.4406	2809.4572	920.6	43.3
1007.5596	2810.6294	920.25	38.3
1007.6785	2811.801	924.85	46.3
1007.7975	2812.972	922.65	42.9
1007.9163	2814.1423	923.35	44.15
1008.0352	2815.3119	922.25	42.75
1008.154	2816.4808	927.85	49.1
1008.2727	2817.6491	931.15	49.4
1008.3914	2818.8167	931.75	53.85
1008.5101	2819.9837	940.6	55.9
1008.6288	2821.15	943.55	64.6
1008.7474	2822.3157	946.4	67.65
1008.8659	2823.4807	948.75	70.05
1008.9844	2824.645	959.15	77.55
1009.1029	2825.8086	964.8	86.4
1009.2214	2826.9716	968.4	86.55
1009.3398	2828.134	974.05	94.75
1009.4581	2829.2957	981.2	103.45
1009.5764	2830.4567	988.45	107.45
1009.6947	2831.617	987.65	107.5
1009.813	2832.7767	992.4	114.95
1009.9312	2833.9358	991.1	111.3
1010.0493	2835.0941	992.9	111.3
1010.1675	2836.2519	986.05	108
1010.2855	2837.4089	983.95	102.75
1010.4036	2838.5653	981.7	101.6
1010.5216	2839.7211	979.05	101.95
1010.6396	2840.8761	981.35	98.5
1010.7575	2842.0306	973.85	95.2
1010.8754	2843.1843	977.05	97.85
1010.9932	2844.3374	975.7	97.9
1011.111	2845.4899	976.85	97.4
1011.2288	2846.6417	981.05	102.35
1011.3465	2847.7928	978.45	101.15
1011.4642	2848.9433	981.4	101.75
1011.5818	2850.0931	985.25	107
1011.6995	2851.2422	986	105.9
1011.817	2852.3907	984.95	105.75
1011.9345	2853.5385	989.1	109.4
1012.052	2854.6857	1012.75	108.95
1012.1695	2855.8323	990.65	113.1
1012.2869	2856.9781	989.7	110.45
1012.4042	2858.1233	993	115.15
1012.5216	2859.2679	996.25	114.75
1012.6389	2860.4118	1002.45	124.45
1012.7561	2861.555	1008.9	125.3
1012.8733	2862.6976	1005.15	124.3
1012.9905	2863.8395	1005.75	126.05
1013.1076	2864.9808	1008.6	129
1013.2247	2866.1214	1006.65	127.55
1013.3417	2867.2614	1011.05	130.75
1013.4587	2868.4007	1014.4	135.55
1013.5757	2869.5393	1011.05	127.35
1013.6926	2870.6773	1019.6	137.15
1013.8095	2871.8146	1017.4	133.9
1013.9263	2872.9513	1019.25	138.65
1014.0431	2874.0874	1017.7	137.75
1014.1599	2875.2227	1020.25	140.7
1014.2766	2876.3574	1022.1	142.7
1014.3933	2877.4915	1023.5	146.25
1014.51	2878.6249	1024.55	144.9
1014.6266	2879.7577	1031.35	153
1014.7431	2880.8898	1040.2	151.65
1014.8596	2882.0212	1028.3	150.1
1014.9761	2883.152	1033.35	153.85
1015.0925	2884.2821	1033.85	155.75
1015.2089	2885.4116	1033.5	153.75
1015.3253	2886.5405	1034.6	156.75
1015.4416	2887.6686	1042.3	159.3
1015.5579	2888.7962	1037.85	161.6
1015.6741	2889.923	1036.7	157.3
1015.7903	2891.0493	1038.75	161.4
1015.9065	2892.1748	1036.65	157.9
1016.0226	2893.2997	1037.7	156.9
1016.1387	2894.424	1034.6	158.4
1016.2547	2895.5476	1034.95	155.95
1016.3707	2896.6706	1036.55	160.05
1016.4866	2897.7929	1035.3	154.65
1016.6025	2898.9145	1038.3	159.1
1016.7184	2900.0355	1041	161.85
1016.8342	2901.1559	1038.05	158.45
1016.95	2902.2756	1042.15	160.75
1017.0658	2903.3946	1034.85	156.5
1017.1815	2904.513	1040.15	161.35
1017.2971	2905.6308	1038.8	160.85
1017.4127	2906.7479	1035.55	156
1017.5283	2907.8643	1033.8	154.7
1017.6439	2908.9801	1038.65	160.15
1017.7594	2910.0953	1034.15	156.1
1017.8748	2911.2098	1038.8	157.2
1017.9902	2912.3236	1042.95	157.75
1018.1056	2913.4368	1038.25	157.9
1018.2209	2914.5494	1034.35	156.4
1018.3362	2915.6613	1034.8	150.2
1018.4515	2916.7725	1030.45	148.2
1018.5667	2917.8831	1029.6	149.2
1018.6819	2918.9931	1028.6	146.4
1018.797	2920.1024	1024.9	144.2
1018.9121	2921.211	1020.05	140.75
1019.0271	2922.319	1022.9	145.75
1019.1421	2923.4264	1019.9	141.8
1019.2571	2924.5331	1014.7	137.9
1019.372	2925.6391	1019.15	143.1
1019.4869	2926.7445	1018.55	141.7
1019.6017	2927.8493	1019.05	140.55
1019.7165	2928.9534	1018.6	140.15
1019.8313	2930.0569	1024.45	144.15
1019.946	2931.1597	1022.05	143.1
1020.0606	2932.2619	1020.85	142.95
1020.1753	2933.3634	1021.5	142.35
1020.2899	2934.4643	1035.4	150.8
1020.4044	2935.5645	1032.3	148.45
1020.5189	2936.6641	1029.4	145.65
1020.6334	2937.763	1023.2	143.85
1020.7478	2938.8613	1026.3	147.9
1020.8622	2939.959	1027.85	142.85
1020.9765	2941.056	1022.05	144.05
1021.0908	2942.1523	1016.8	138.5
1021.2051	2943.248	1010.65	130.55
1021.3193	2944.3431	1001.7	123.05
1021.4334	2945.4375	996.95	118.75
1021.5476	2946.5313	986.7	110.3
1021.6617	2947.6244	983.8	104.95
1021.7757	2948.7169	983.4	102.5
1021.8897	2949.8087	971.9	94.8
1022.0037	2950.8999	963.7	85.7
1022.1176	2951.9904	964.95	87.9
1022.2315	2953.0803	961.75	83.9
1022.3453	2954.1696	953.9	76.85
1022.4591	2955.2582	951.1	74.6
1022.5728	2956.3462	949.9	71
1022.6865	2957.4335	950.45	72.6
1022.8002	2958.5202	950.95	71.05
1022.9138	2959.6062	950	70.75
1023.0274	2960.6916	948.2	70.55
1023.141	2961.7764	952.45	73.2
1023.2545	2962.8605	949.1	71.95
1023.3679	2963.9439	950.75	74.5
1023.4813	2965.0267	949.1	70
1023.5947	2966.1089	968.5	69.2
1023.708	2967.1905	944.45	67.85
1023.8213	2968.2714	945.35	68.1
1023.9346	2969.3516	944.5	65.85
1024.0478	2970.4312	953.2	67.7
1024.1609	2971.5102	941.95	63.55
1024.274	2972.5885	946.05	69.6
1024.3871	2973.6662	952.45	69.95
1024.5002	2974.7432	945.85	68.55
1024.6132	2975.8196	944.5	66.35
1024.7261	2976.8954	945.55	70.15
1024.839	2977.9705	942.9	66.55
1024.9519	2979.045	947.2	70.3
1025.0647	2980.1188	945.25	68.35
1025.1775	2981.192	943.15	66.45
1025.2902	2982.2645	945.8	68.15
1025.4029	2983.3364	945.3	67
1025.5156	2984.4077	942	63.65
1025.6282	2985.4783	947.85	64.05
1025.7407	2986.5483	938.65	61.55
1025.8532	2987.6177	937.75	59.2
1025.9657	2988.6864	936.25	60.1
1026.0782	2989.7545	932.6	52.5
1026.1906	2990.8219	929.65	52.3
1026.3029	2991.8887	930	50.6
1026.4152	2992.9548	927.45	49.35
1026.5275	2994.0204	921.85	44.75
1026.6397	2995.0852	919.75	44.95
1026.7519	2996.1495	919.4	41.7
1026.864	2997.2131	917.35	39.25
1026.9761	2998.276	917.95	38.95
1027.0882	2999.3383	914.7	36.75
1027.2002	3000.4	913.2	32.35
1027.3122	3001.4611	911.45	32
1027.4241	3002.5215	910.5	33.3
1027.536	3003.5812	907.35	28.85
1027.6478	3004.6404	907.2	29.7
1027.7596	3005.6989	909.9	32.1
1027.8714	3006.7567	907.35	29.3
1027.9831	3007.8139	937.9	29.05
1028.0947	3008.8705	904.1	26.15
1028.2064	3009.9264	908.85	28.9
1028.3179	3010.9818	903.85	26.45
1028.4295	3012.0364	904.1	24.2
1028.541	3013.0905	904	25.7
1028.6524	3014.1439	901.5	23.65
1028.7638	3015.1966	901	25.65
1028.8752	3016.2487	903.6	26.75
1028.9865	3017.3002	910	26.2
1029.0978	3018.3511	899.85	20.5
1029.209	3019.4013	901.1	24.05
1029.3202	3020.4509	897.75	21.3
1029.4314	3021.4998	899.25	22.75
1029.5425	3022.5481	899.8	23.6
1029.6535	3023.5958	902.95	26.3
1029.7645	3024.6428	902.35	24
1029.8755	3025.6892	898.5	22.25
1029.9864	3026.735	900.45	22.8
1030.0973	3027.7802	898.95	20.95
1030.2082	3028.8247	897.95	20.7
1030.319	3029.8685	900.1	23.2
1030.4297	3030.9118	900.75	21.45
1030.5404	3031.9544	899.3	22
1030.6511	3032.9963	901.5	24.9
1030.7617	3034.0376	899	22.4
1030.8723	3035.0783	901.65	22.25
1030.9829	3036.1184	898.2	20.25
1031.0934	3037.1578	898.05	23.8
1031.2038	3038.1966	898.4	21.25
1031.3142	3039.2348	898.75	21.3
1031.4246	3040.2723	906.05	20.35
1031.5349	3041.3092	899.05	22.05
1031.6452	3042.3455	900.4	22.5
1031.7554	3043.3811	898.7	21.1
1031.8656	3044.4161	900.25	23.7
1031.9758	3045.4505	897.75	21.4
1032.0859	3046.4842	902.3	24.05
1032.1959	3047.5173	897.55	21.15
1032.3059	3048.5498	901.55	22.7
1032.4159	3049.5816	898.85	22.05
1032.5258	3050.6128	901.15	20.9
1032.6357	3051.6434	898.55	21.2
1032.7455	3052.6734	899.55	21.65
1032.8553	3053.7027	899.7	22.6
1032.9651	3054.7314	901.15	23.1
1033.0748	3055.7594	899.9	23.45
1033.1845	3056.7868	901.85	21.55
1033.2941	3057.8136	899.85	24.15
1033.4037	3058.8398	899.4	21.4
1033.5132	3059.8653	900.8	22.35
1033.6227	3060.8902	898.35	22.3
1033.7321	3061.9145	901.65	23.9
1033.8415	3062.9381	901.65	24.55
1033.9509	3063.9612	917.9	26.9
1034.0602	3064.9835	901.2	25.65
1034.1694	3066.0053	904.8	27.9
1034.2787	3067.0264	900.05	22.5
1034.3878	3068.0469	902.4	21.55
1034.497	3069.0668	901.55	22.15
1034.6061	3070.086	901.5	25.15
1034.7151	3071.1046	901.05	26.3
1034.8241	3072.1226	900.35	23.9
1034.9331	3073.1399	898.15	22.85
1035.042	3074.1567	900.25	24.55
1035.1508	3075.1727	902.95	25
1035.2597	3076.1882	897.25	21.05
1035.3684	3077.203	897.3	18.5
1035.4772	3078.2173	898.15	20
1035.5859	3079.2308	901.05	21.95
1035.6945	3080.2438	899.4	19.4
1035.8031	3081.2561	894.5	15.75
1035.9117	3082.2678	893.85	16.8
1036.0202	3083.2789	895.8	20.25
1036.1286	3084.2893	894.55	16.9
1036.2371	3085.2991	894.7	17.2
1036.3454	3086.3083	899.8	16.85
1036.4538	3087.3169	896	17.95
1036.562	3088.3248	896.1	16.15
1036.6703	3089.3321	894.8	16.7
1036.7785	3090.3388	895.25	18.35
1036.8866	3091.3449	893.7	18.3
1036.9948	3092.3503	895.45	16.3
1037.1028	3093.3551	889.95	15.15
1037.2108	3094.3593	893.5	16.35
1037.3188	3095.3629	889.45	13.4
1037.4267	3096.3658	893.3	16.05
1037.5346	3097.3681	893.1	15.75
1037.6425	3098.3698	891.3	12.3
1037.7503	3099.3708	892.5	13.25
1037.858	3100.3713	892.05	15.05
1037.9657	3101.3711	891.95	12.3
1038.0734	3102.3702	1028.1	14.65
1038.181	3103.3688	892.5	13.7
1038.2886	3104.3667	889.6	14
1038.3961	3105.364	889.4	12.8
1038.5036	3106.3607	891.3	11.5
1038.611	3107.3568	892.1	14.45
1038.7184	3108.3522	890.9	13.8
1038.8257	3109.347	893.2	16.2
1038.933	3110.3412	894.95	15.9
1039.0403	3111.3348	891.55	16.35
1039.1475	3112.3277	887.65	11.8
1039.2547	3113.32	886.9	10.8
1039.3618	3114.3117	891.15	15.3
1039.4689	3115.3028	888.6	12.3
1039.5759	3116.2932	890.7	11.6
1039.6829	3117.2831	895.65	12.6
1039.7898	3118.2723	891.7	14.4
1039.8967	3119.2608	887.5	11.1
1040.0035	3120.2488	888.85	12.45
1040.1103	3121.2361	886.45	10.15
1040.2171	3122.2229	888.2	13.05
1040.3238	3123.209	887.55	11.5
1040.4305	3124.1944	888.75	12.05
1040.5371	3125.1793	889.15	10.15
1040.6437	3126.1635	886.55	11.7
1040.7502	3127.1471	888.45	13
1040.8567	3128.1301	888.5	12.95
1040.9631	3129.1125	884.35	7.8
1041.0695	3130.0942	886.9	7.85
1041.1759	3131.0753	894.75	10.1
1041.2822	3132.0558	889.95	10.15
1041.3884	3133.0357	886.2	9.15
1041.4946	3134.015	888.5	9.15
1041.6008	3134.9936	889.85	10.15
1041.7069	3135.9716	904.75	3.65
1041.813	3136.949	886.55	10
1041.919	3137.9258	906.6	11
1042.025	3138.902	892.4	9.05
1042.1309	3139.8775	884.2	11.1
1042.2368	3140.8524	885.7	8.5
1042.3427	3141.8267	885.65	6.4
1042.4485	3142.8004	886.3	10.05
1042.5542	3143.7735	892.95	9.4
1042.6599	3144.7459	889.3	10.85
1042.7656	3145.7178	887.15	10.05
1042.8712	3146.689	886.15	12.25
1042.9768	3147.6596	890.4	10.5
1043.0823	3148.6295	886.1	10.75
1043.1878	3149.5989	886.25	8.6
1043.2932	3150.5676	885.55	9.55
1043.3986	3151.5357	885.3	11.1
1043.5039	3152.5032	885.3	9.95
1043.6092	3153.4701	885.75	8.9
1043.7145	3154.4364	886.5	7.2
1043.8197	3155.402	883.85	8.5
1043.9248	3156.367	886.8	9.7
1044.03	3157.3315	925.65	7.1
1044.135	3158.2952	884.75	8.5
1044.24	3159.2584	884.85	9.35
1044.345	3160.221	884.65	7.6
1044.4499	3161.1829	886	9.75
1044.5548	3162.1442	884.1	9.15
1044.6596	3163.105	884.35	9.4
1044.7644	3164.065	885.45	8
1044.8692	3165.0245	886.9	8.95
1044.9739	3165.9834	883.35	8.3
1045.0785	3166.9416	884.4	8.7
1045.1831	3167.8993	885.85	9.05
1045.2877	3168.8563	883.85	7.65
1045.3922	3169.8127	884.75	7.9
1045.4966	3170.7684	883.5	7.4
1045.6011	3171.7236	886.8	10.75
1045.7054	3172.6782	884.5	8.35
1045.8098	3173.6321	885.8	7.6
1045.914	3174.5854	888.55	6.1
1046.0183	3175.5381	882.9	7.4
1046.1224	3176.4902	882.45	7.3
1046.2266	3177.4417	882.85	7.75
1046.3307	3178.3926	884.5	8.9
1046.4347	3179.3428	882.85	7.2
1046.5387	3180.2924	882.75	7.35
1046.6427	3181.2415	884.05	8.25
1046.7466	3182.1899	886.4	10.65
1046.8504	3183.1377	883.75	7.35
1046.9542	3184.0848	887.75	9.3
1047.058	3185.0314	884.8	8
1047.1617	3185.9773	883.35	7.35
1047.2654	3186.9227	883.35	7.9
1047.369	3187.8674	882.05	5.6
1047.4726	3188.8115	887.9	7.75
1047.5761	3189.755	881.9	5.8
1047.6796	3190.6979	883.15	6.45
1047.783	3191.6402	882.1	6.6
1047.8864	3192.5818	882.7	6.35
1047.9898	3193.5229	891.45	9.2
1048.0931	3194.4633	882.9	6.25
1048.1963	3195.4031	883.65	8.5
1048.2995	3196.3423	880.35	5
1048.4027	3197.2809	884.45	7.1
1048.5058	3198.2189	879.85	3.3
1048.6089	3199.1563	887.85	6
1048.7119	3200.0931	882.75	5.5
1048.8148	3201.0292	881.45	7.45
1048.9178	3201.9648	883.7	6
1049.0206	3202.8997	884.9	5.85
1049.1235	3203.834	883	7.45
1049.2262	3204.7677	881.45	5.3
1049.329	3205.7008	884.7	6.6
1049.4317	3206.6333	880.35	4.4
1049.5343	3207.5652	883.9	4.15
1049.6369	3208.4964	880.2	3.65
1049.7394	3209.4271	881.65	6.3
1049.8419	3210.3571	881.85	5.25
1049.9444	3211.2865	882.35	5.7
1050.0468	3212.2154	882.4	2.9
1050.1491	3213.1436	884.85	4.1
1050.2514	3214.0712	888.1	3.45
1050.3537	3214.9982	882.8	6.75
1050.4559	3215.9246	883.05	7.45
1050.5581	3216.8503	882.3	6.15
1050.6602	3217.7755	882.45	6.5
1050.7623	3218.7001	884.1	8.95
1050.8643	3219.624	882.4	7.5
1050.9663	3220.5473	881.1	5.45
1051.0682	3221.4701	882.3	5.15
1051.1701	3222.3922	883	6.7
1051.2719	3223.3137	881.7	4.55
1051.3737	3224.2346	880.45	3
1051.4754	3225.1549	881.25	5.1
1051.5771	3226.0746	879.9	2.15
1051.6788	3226.9937	881.7	5.35
1051.7804	3227.9121	879.3	2
1051.8819	3228.83	878.5	3.8
1051.9834	3229.7473	880.5	4.1
1052.0849	3230.6639	882.1	6.75
1052.1863	3231.5799	879.55	3
1052.2876	3232.4954	882.6	5.6
1052.3889	3233.4102	882.65	5.2
1052.4902	3234.3244	884.2	8.85
1052.5914	3235.238	880.05	3.25
1052.6926	3236.151	905.35	5
1052.7937	3237.0634	879.95	5.1
1052.8948	3237.9752	883.1	7.95
1052.9958	3238.8864	880.3	5.7
1053.0968	3239.797	882.65	6.25
1053.1977	3240.7069	880.7	3.7
1053.2986	3241.6163	883.85	6
1053.3994	3242.5251	878.1	4.05
1053.5002	3243.4332	879.75	5.8
1053.6009	3244.3408	881.8	6.5
1053.7016	3245.2477	880.8	6.45
1053.8022	3246.154	880.8	3.4
1053.9028	3247.0598	883.35	6.6
1054.0034	3247.9649	881.2	3.1
1054.1039	3248.8694	881	4.75
1054.2043	3249.7733	880.6	3
1054.3047	3250.6766	882.25	6.7
1054.4051	3251.5793	883	4.8
1054.5054	3252.4814	880.65	6.35
1054.6056	3253.3829	878.05	1.55
1054.7058	3254.2838	878.75	4.6
1054.806	3255.1841	880.05	5.75
1054.9061	3256.0838	879.15	2.45
1055.0061	3256.9829	879.1	4.9
1055.1062	3257.8814	881.9	2.4
1055.2061	3258.7792	882	4
1055.306	3259.6765	881.5	4.9
1055.4059	3260.5731	879.85	2.35
1055.5057	3261.4692	882.3	5.75
1055.6055	3262.3647	879.05	1.45
1055.7052	3263.2595	879.6	2.55
1055.8049	3264.1538	877.7	3.25
1055.9045	3265.0474	881.35	3.9
1056.0041	3265.9404	880	5.65
1056.1036	3266.8329	878.5	4.15
1056.2031	3267.7247	888.1	-1.35
1056.3025	3268.616	878.4	3.7
1056.4019	3269.5066	881.4	4.5
1056.5013	3270.3966	881.1	3.05
1056.6005	3271.286	879.5	5.2
