Software Version:	3.9.2.0
Unit SN:	10000200
Spectrometer SN:	6960
Date:	3/8/2024 2:16:18 PM
Data Line Index:	25
Spectral Points:	2048
Integration time (ms):	125
Averages:	20
Delay (ms):	30000
Sequence Number:	1
Processing:	dark subtract
Laser Power (mW):	305
Laser Current (mA):	823
Laser Diode Temp (C):	25.1
Laser Case Temp (C):	26.3
System Temp (C):	26.3
Spectrometer Temp (C):	24.2
CCD Temp (C):	0.007
Secondary Temp (C):	20.006
Heatsink Temp (C):	20.752
CCDPCB Temp (C):	36.307
SecondaryPCB Temp (C):	31.171

Wavelength	RamanShift	Raw Counts	Dark Subtracted
787.061	30.1047	465.5	56.65
787.2016	32.3739	462.6	55.9
787.3422	34.6426	470.2	63.1
787.4828	36.9109	475.9	66.65
787.6235	39.1787	483.5	72
787.7642	41.4461	493.75	76.25
787.9049	43.7131	504.55	84
788.0456	45.9796	507.2	83.75
788.1863	48.2456	523.35	94.9
788.3271	50.5112	530.8	99.85
788.4679	52.7764	542.65	106.7
788.6087	55.0411	552.4	114.65
788.7496	57.3054	566.5	122.9
788.8904	59.5692	569.15	123.7
789.0313	61.8326	579.8	131.15
789.1722	64.0955	594.15	141.8
789.3132	66.3579	616	159
789.4541	68.6199	635.45	175.55
789.5951	70.8815	673.95	210.45
789.7361	73.1426	754.8	286.3
789.8771	75.4032	970.5	499.45
790.0181	77.6634	1483.35	1006.35
790.1592	79.9231	2706.15	2219.7
790.3003	82.1824	5375.65	4873.75
790.4414	84.4412	10170.8	9640.3
790.5825	86.6995	16740.6	16171.9
790.7237	88.9574	23157.2	22559.25
790.8648	91.2148	27560.65	26941.2
791.006	93.4717	29623.65	28994.1
791.1472	95.7282	30131.1	29490.7
791.2885	97.9842	30071.25	29423.5
791.4297	100.2398	29591.7	28940.85
791.571	102.4949	29068.65	28418.1
791.7123	104.7495	28354.8	27701.1
791.8536	107.0036	27572.3	26917.6
791.9949	109.2573	26827.7	26179.25
792.1363	111.5105	26125.05	25468.3
792.2777	113.7632	25415.55	24757.65
792.4191	116.0154	24815.85	24146.7
792.5605	118.2672	24339.8	23674.65
792.7019	120.5185	23847.55	23180.9
792.8434	122.7693	23502.7	22836.25
792.9849	125.0197	23236.2	22563.6
793.1264	127.2696	22970.05	22289.45
793.2679	129.519	22855.2	22172.45
793.4094	131.7679	22682.05	22000.65
793.551	134.0163	22549.6	21860.05
793.6926	136.2642	22390.95	21706.15
793.8342	138.5117	22218.65	21520.95
793.9758	140.7587	22008.55	21312.4
794.1175	143.0052	21831.7	21133.2
794.2591	145.2512	21600.35	20900.55
794.4008	147.4967	21395.1	20697.65
794.5425	149.7417	21271.25	20572.85
794.6842	151.9863	21144.8	20441.55
794.826	154.2304	21152.6	20441.9
794.9677	156.4739	20998.2	20285.7
795.1095	158.717	20951.5	20233.75
795.2513	160.9596	20812.05	20093.4
795.3931	163.2017	20551.55	19828.7
795.535	165.4433	20273.6	19548.35
795.6768	167.6844	19959.7	19229.3
795.8187	169.925	19675.05	18944.6
795.9606	172.1651	19288.4	18557.75
796.1025	174.4047	19033.8	18299.8
796.2445	176.6439	18780.85	18047.2
796.3864	178.8825	18567.95	17832.2
796.5284	181.1206	18385.25	17640.9
796.6704	183.3582	18231.05	17481.15
796.8124	185.5954	18174.55	17426.15
796.9544	187.832	18055.1	17301.5
797.0965	190.0681	18070	17314.6
797.2386	192.3037	18070.7	17310.95
797.3806	194.5388	18068	17310
797.5228	196.7734	18119.9	17356.1
797.6649	199.0075	18216.05	17452.85
797.807	201.2411	18396.95	17632.75
797.9492	203.4742	18438.85	17668.65
798.0914	205.7068	18621.05	17848.4
798.2336	207.9389	18745.05	17974.5
798.3758	210.1704	18932.45	18165.65
798.518	212.4015	19030.75	18275.1
798.6603	214.632	19199.8	18450
798.8025	216.862	19443.55	18694.35
798.9448	219.0915	19591.65	18842.2
799.0871	221.3205	19842.4	19086.1
799.2294	223.549	20094.35	19343.95
799.3718	225.777	20445.15	19690.45
799.5141	228.0044	20825.1	20064.8
799.6565	230.2314	21315.5	20557.2
799.7989	232.4578	21744.1	20984.9
799.9413	234.6837	22159	21388.35
800.0837	236.909	22393.9	21621.05
800.2262	239.1339	22393.95	21595.95
800.3687	241.3582	22190	21405.5
800.5111	243.582	21849.85	21038.4
800.6536	245.8053	21464.05	20665.45
800.7961	248.0281	21149.95	20357
800.9387	250.2503	20910.45	20111.65
801.0812	252.472	20753.55	19951.9
801.2238	254.6932	20714.9	19915.45
801.3664	256.9139	20596.25	19797.3
801.509	259.134	20571.95	19766.9
801.6516	261.3536	20528.4	19723.85
801.7942	263.5727	20598.55	19793.95
801.9369	265.7912	20565.05	19758.55
802.0795	268.0092	20602.15	19801.45
802.2222	270.2267	20491.2	19685.6
802.3649	272.4436	20483.25	19676.1
802.5076	274.6601	20465.2	19650.05
802.6504	276.8759	20398.2	19587.75
802.7931	279.0913	20400.1	19587.25
802.9359	281.3061	20387	19576.3
803.0787	283.5204	20521.75	19704.05
803.2215	285.7341	20587.7	19764.25
803.3643	287.9473	20751.1	19924.55
803.5071	290.16	20998.25	20175.5
803.6499	292.3721	21315.8	20499.7
803.7928	294.5837	21777.7	20962.35
803.9357	296.7947	22144.2	21326
804.0786	299.0052	22326.9	21508.25
804.2215	301.2152	22212.55	21389.35
804.3644	303.4246	21908.45	21091.75
804.5074	305.6334	21334.35	20517.3
804.6503	307.8418	20858.2	20034.7
804.7933	310.0495	20448.3	19626.95
804.9363	312.2568	20140.25	19318.65
805.0793	314.4635	19928.75	19098.5
805.2223	316.6696	19882	19054.6
805.3653	318.8752	19850.05	19010.75
805.5084	321.0802	19951.6	19118.25
805.6514	323.2847	20003.9	19169.95
805.7945	325.4887	20115.7	19282.5
805.9376	327.692	20023.4	19188.4
806.0807	329.8949	19975.1	19138.65
806.2238	332.0972	19705.9	18867.4
806.367	334.2989	19460.65	18619.95
806.5101	336.5001	19137.45	18293.55
806.6533	338.7007	18962.7	18121.7
806.7965	340.9008	18882.2	18040.6
806.9397	343.1003	18781.8	17943.55
807.0829	345.2992	18713.6	17866.9
807.2261	347.4976	18727.3	17883.3
807.3693	349.6955	18674.8	17825.35
807.5126	351.8927	18803.55	17951.65
807.6559	354.0895	18817.05	17955.2
807.7991	356.2856	18888.3	18032.95
807.9424	358.4812	18873.95	18019.05
808.0857	360.6763	18935.95	18080.05
808.2291	362.8707	18904.6	18049.25
808.3724	365.0646	18939.95	18083.15
808.5158	367.258	18968.2	18107
808.6591	369.4508	19002.35	18140.35
808.8025	371.643	19070.05	18208.15
808.9459	373.8346	19078.6	18215.85
809.0893	376.0257	19089.85	18222.8
809.2327	378.2162	18974.6	18112.1
809.3762	380.4062	18925.45	18061.35
809.5196	382.5956	18730.45	17869
809.6631	384.7844	18683.5	17827.6
809.8066	386.9726	18594.25	17739.5
809.9501	389.1603	18521.85	17669.3
810.0936	391.3474	18501.3	17622.4
810.2371	393.5339	18495.3	17637.2
810.3806	395.7199	18436.85	17578.2
810.5241	397.9052	18508.1	17648.6
810.6677	400.09	18500	17642.85
810.8113	402.2743	18582.55	17727.25
810.9548	404.4579	18668.65	17811.85
811.0984	406.641	18843.7	17981.55
811.2421	408.8235	19056.15	18191.6
811.3857	411.0054	19422.6	18560.1
811.5293	413.1868	19845.3	18977.75
811.673	415.3675	20210.6	19338.8
811.8166	417.5477	20419.65	19549.3
811.9603	419.7273	20490.15	19622
812.104	421.9064	20374.35	19498.4
812.2477	424.0848	20241	19366.6
812.3914	426.2627	20010	19136.45
812.5351	428.4399	19743.8	18873.8
812.6788	430.6166	19421.15	18545.35
812.8226	432.7928	19057.95	18178.4
812.9663	434.9683	18725	17848.95
813.1101	437.1432	18524.05	17652.4
813.2539	439.3176	18349.7	17479.1
813.3977	441.4914	18227.5	17361.25
813.5415	443.6645	18247.4	17378.75
813.6853	445.8371	18183.7	17310.65
813.8291	448.0091	18113.6	17241.05
813.973	450.1806	18080.05	17209.1
814.1168	452.3514	18045.8	17173.45
814.2607	454.5216	18053.8	17174.75
814.4046	456.6913	17983	17109.7
814.5485	458.8603	18023.25	17153.2
814.6924	461.0288	18099.95	17235.7
814.8363	463.1967	18128.05	17261.8
814.9802	465.3639	18284.4	17412.6
815.1241	467.5306	18386.45	17516.3
815.2681	469.6967	18533.4	17663.65
815.412	471.8622	18703	17835.2
815.556	474.0271	18882.8	18008.15
815.7	476.1914	18997.3	18115.85
815.844	478.3551	18947.85	18071.85
815.988	480.5182	18953.6	18076.8
816.132	482.6807	18952.4	18085.45
816.276	484.8426	19076.05	18213.7
816.4201	487.0039	19349.6	18483.45
816.5641	489.1647	19776.4	18901.85
816.7082	491.3248	20202	19324.8
816.8522	493.4843	20404.6	19538.2
816.9963	495.6432	20395.4	19523.75
817.1404	497.8015	20359.2	19470.55
817.2845	499.9592	20382.6	19494.15
817.4286	502.1163	20349.65	19461.15
817.5727	504.2728	20097	19217.95
817.7168	506.4287	19802.3	18934.2
817.861	508.5839	19393	18522.6
818.0051	510.7386	19060.7	18187.45
818.1493	512.8927	18912.15	18030.65
818.2935	515.0461	18813.3	17930.95
818.4377	517.199	18758.95	17875.3
818.5818	519.3512	18728.7	17845.45
818.726	521.5029	18838.3	17948.7
818.8703	523.6539	18908.35	18025.3
819.0145	525.8043	18966.15	18076.15
819.1587	527.9541	18991	18097.4
819.303	530.1033	18965.75	18075.8
819.4472	532.2519	19012.4	18129.05
819.5915	534.3999	19160	18270.2
819.7357	536.5472	19489.4	18604.45
819.88	538.694	19931.6	19053.4
820.0243	540.8401	20581.9	19691.05
820.1686	542.9856	21099.7	20205.75
820.3129	545.1305	21230.85	20329.45
820.4572	547.2748	21178.9	20273.7
820.6016	549.4185	20784.15	19876.9
820.7459	551.5615	20431.9	19523.55
820.8902	553.704	20283.4	19379.05
821.0346	555.8458	20242.6	19343.2
821.1789	557.987	20260.9	19363
821.3233	560.1276	20242.95	19343.95
821.4677	562.2675	20246.1	19345.6
821.6121	564.4069	20237	19337.35
821.7565	566.5456	20214.55	19317.1
821.9009	568.6837	20139.2	19243.65
822.0453	570.8212	19907.9	19013.6
822.1897	572.958	19584.8	18686.5
822.3342	575.0942	19323.65	18431.2
822.4786	577.2299	19148.05	18253.85
822.6231	579.3648	19147.25	18265.25
822.7675	581.4992	19204.85	18334.7
822.912	583.6329	19398.6	18529.2
823.0565	585.766	19670.4	18798.2
823.201	587.8985	19815.55	18938.15
823.3454	590.0304	19841.1	18939.95
823.4899	592.1616	19792.05	18896.15
823.6345	594.2922	19707.45	18806.2
823.779	596.4222	19553.35	18649.35
823.9235	598.5515	19393.75	18489.15
824.068	600.6802	19255.5	18350.75
824.2126	602.8083	19024.05	18124.85
824.3571	604.9358	19036	18133.25
824.5017	607.0626	18950.75	18045.8
824.6462	609.1888	18919.45	18010.4
824.7908	611.3144	18851.7	17940.25
824.9354	613.4393	18787.9	17880.9
825.08	615.5636	18689.45	17782.95
825.2246	617.6873	18559.65	17651.05
825.3692	619.8103	18557.35	17647.55
825.5138	621.9327	18451.25	17543.75
825.6584	624.0544	18444.5	17542.05
825.803	626.1756	18423.6	17519.6
825.9477	628.2961	18397.15	17491.75
826.0923	630.4159	18328.5	17423.1
826.237	632.5351	18334.15	17424.25
826.3816	634.6537	18303.75	17393.45
826.5263	636.7716	18276.55	17358.6
826.6709	638.8889	18297.2	17379.65
826.8156	641.0056	18355.6	17438.6
826.9603	643.1216	18378.35	17461.5
827.105	645.237	18448.85	17535.25
827.2497	647.3518	18395.85	17491.95
827.3944	649.4659	18455.35	17557.3
827.5391	651.5793	18451.7	17548.2
827.6838	653.6922	18397.85	17488.9
827.8285	655.8043	18451.95	17545.6
827.9733	657.9159	18449.15	17542.15
828.118	660.0268	18360.75	17454.15
828.2627	662.137	18325.85	17417.35
828.4075	664.2466	18282.65	17360.8
828.5522	666.3556	18308.1	17396.15
828.697	668.4639	18320.1	17408.25
828.8418	670.5716	18402.9	17499.1
828.9865	672.6786	18484.45	17572.05
829.1313	674.785	18523.6	17605.15
829.2761	676.8907	18572.4	17658.95
829.4209	678.9958	18681.8	17776.7
829.5657	681.1002	18653.05	17737.45
829.7105	683.204	18657.65	17735.65
829.8553	685.3072	18637.3	17715
830.0001	687.4097	18585.4	17669.35
830.1449	689.5115	18560.8	17641.9
830.2898	691.6127	18525.6	17610.45
830.4346	693.7132	18440.15	17528.4
830.5794	695.8131	18427.6	17497.95
830.7243	697.9123	18411.25	17489.85
830.8691	700.0109	18375.35	17449.55
831.014	702.1089	18372.45	17452.1
831.1588	704.2061	18412.9	17493.85
831.3037	706.3028	18444.35	17523.4
831.4486	708.3987	18510.1	17591.1
831.5935	710.4941	18621.55	17704.15
831.7383	712.5887	18815.15	17894.8
831.8832	714.6827	19103.55	18184.8
832.0281	716.7761	19457.05	18544.1
832.173	718.8688	19858.25	18939.45
832.3179	720.9608	20090.7	19165.25
832.4628	723.0522	20148.85	19219
832.6077	725.1429	19928.7	19004.3
832.7527	727.233	19673.25	18751.35
832.8976	729.3224	19425.85	18502.15
833.0425	731.4112	19150.15	18229.45
833.1874	733.4993	18911.9	17990.2
833.3324	735.5867	18765.75	17843.7
833.4773	737.6735	18688.05	17764.9
833.6222	739.7596	18652.05	17730.1
833.7672	741.845	18622.7	17702.4
833.9122	743.9298	18604.4	17678.55
834.0571	746.014	18617.7	17697.85
834.2021	748.0974	18615.1	17684.1
834.347	750.1802	18664.45	17736.65
834.492	752.2624	18648.35	17720.4
834.637	754.3439	18674.8	17746.55
834.782	756.4247	18737.9	17804.9
834.9269	758.5048	18861.55	17935.8
835.0719	760.5843	19080.3	18148.3
835.2169	762.6631	19360.3	18432.65
835.3619	764.7413	19815.2	18889.15
835.5069	766.8188	20400.5	19472.9
835.6519	768.8956	20854.5	19927.1
835.7969	770.9718	21182.55	20250.9
835.9419	773.0473	21047.4	20117.3
836.0869	775.1221	20680.2	19749.65
836.232	777.1962	20351.8	19422.25
836.377	779.2697	20165.8	19236.05
836.522	781.3426	20246.8	19299.8
836.667	783.4147	20499.2	19571.35
836.8121	785.4862	20795.35	19866.45
836.9571	787.557	20835.15	19903.45
837.1021	789.6271	20516.85	19583.05
837.2472	791.6966	20018.8	19087.8
837.3922	793.7654	19478.2	18549.95
837.5373	795.8335	19207.45	18278.8
837.6823	797.901	19019.6	18087.8
837.8274	799.9678	18951.7	18017.7
837.9724	802.0339	19042.6	18109.15
838.1175	804.0993	19064.6	18121.75
838.2626	806.1641	19027.9	18094.2
838.4076	808.2282	18962.9	18033.45
838.5527	810.2916	18911.5	17978.35
838.6978	812.3544	18813.7	17884.05
838.8428	814.4164	18769.15	17840
838.9879	816.4778	18781.4	17848.75
839.133	818.5385	18765.1	17828.1
839.2781	820.5986	18857.65	17922.15
839.4232	822.658	18991.55	18056.15
839.5682	824.7166	19063.7	18130.2
839.7133	826.7747	19318.3	18387.4
839.8584	828.832	19484.3	18551.55
840.0035	830.8886	19609.7	18669.85
840.1486	832.9446	19750.55	18810.65
840.2937	834.9999	19774.25	18840.25
840.4388	837.0545	19840.25	18900.4
840.5839	839.1085	19858.35	18922.7
840.729	841.1618	19860.65	18921.7
840.8741	843.2143	19836.35	18903
841.0192	845.2662	19775.05	18842.9
841.1643	847.3175	19729.4	18792.95
841.3095	849.368	19604.55	18668.05
841.4546	851.4179	19545.6	18609.95
841.5997	853.467	19344.35	18409.3
841.7448	855.5155	19256	18320.8
841.8899	857.5633	19146.8	18208.85
842.0351	859.6105	19058.9	18121.75
842.1802	861.6569	19028.1	18090.65
842.3253	863.7027	18973.6	18034.05
842.4704	865.7478	19001.75	18062.65
842.6156	867.7922	19014.6	18073.4
842.7607	869.8359	19059.65	18121.45
842.9058	871.8789	19170.5	18233.3
843.0509	873.9212	19411.45	18440.25
843.1961	875.9629	19543.05	18604.65
843.3412	878.0039	19754.35	18816.9
843.4863	880.0441	19867.15	18930.45
843.6315	882.0837	19872.9	18936
843.7766	884.1226	19795.25	18853.2
843.9218	886.1609	19688.05	18751.4
844.0669	888.1984	19592.15	18654.6
844.212	890.2352	19641.35	18708.35
844.3572	892.2714	19567.5	18622.8
844.5023	894.3069	19590.15	18647.35
844.6475	896.3416	19483.4	18543.7
844.7926	898.3757	19503.15	18565.85
844.9377	900.4091	19498.25	18558.65
845.0829	902.4418	19510.15	18562.9
845.228	904.4739	19534.15	18590.45
845.3732	906.5052	19539.1	18594.3
845.5183	908.5358	19462.3	18517.95
845.6635	910.5658	19305.9	18361.95
845.8086	912.595	19137.5	18198.15
845.9538	914.6236	18982.9	18044.6
846.0989	916.6515	19013	18072.95
846.2441	918.6786	18960.5	18014.1
846.3892	920.7051	19067.85	18122.55
846.5344	922.7309	19216.05	18273.25
846.6795	924.756	19247.35	18305.85
846.8246	926.7804	19359.15	18410.95
846.9698	928.8041	19288.9	18347.3
847.1149	930.8272	19329.2	18387.65
847.2601	932.8495	19253.35	18310
847.4052	934.8711	19226.65	18284.45
847.5504	936.892	19045.2	18101.05
847.6955	938.9123	18926.55	17985.45
847.8407	940.9318	18811.95	17873.25
847.9858	942.9506	18693.15	17750.35
848.131	944.9688	18595.25	17655.4
848.2761	946.9862	18550.65	17607.3
848.4213	949.003	18471.45	17528.95
848.5664	951.019	18489.15	17550.85
848.7115	953.0344	18525.85	17585.8
848.8567	955.0491	18543.9	17598.85
849.0018	957.063	18682.65	17738.5
849.147	959.0763	18837.35	17894.4
849.2921	961.0888	18861.35	17916.9
849.4373	963.1007	18903.25	17964.4
849.5824	965.1119	18978.85	18047.55
849.7275	967.1223	19011.75	18084.35
849.8727	969.1321	19054.2	18128.35
850.0178	971.1412	19097.55	18165.3
850.1629	973.1495	19119.55	18179.65
850.3081	975.1572	19194.2	18211.8
850.4532	977.1641	19204.15	18261
850.5983	979.1704	19174.5	18232.05
850.7435	981.1759	19173.9	18227.05
850.8886	983.1808	19238.95	18294.9
851.0337	985.1849	19357.85	18408.8
851.1788	987.1884	19495.9	18552.45
851.324	989.1911	19699.05	18760.5
851.4691	991.1932	19815.75	18870.8
851.6142	993.1945	19838	18894.2
851.7593	995.1951	19782.9	18843.35
851.9045	997.1951	19808.35	18859.55
852.0496	999.1943	19706.2	18764.3
852.1947	1001.1928	19652.35	18710.1
852.3398	1003.1906	19644.35	18701.05
852.4849	1005.1877	19693.6	18750.9
852.63	1007.1841	19644.8	18706.1
852.7751	1009.1798	19547.75	18608.6
852.9202	1011.1748	19364.6	18423.95
853.0653	1013.1691	19189.6	18244.15
853.2104	1015.1627	18935.95	17994.7
853.3555	1017.1556	18765.9	17827.2
853.5006	1019.1477	18650.65	17714.35
853.6457	1021.1392	18551.65	17620.25
853.7908	1023.1299	18516	17585.35
853.9359	1025.12	18537.95	17609.95
854.081	1027.1093	18574.3	17661.1
854.2261	1029.0979	18668.95	17758.55
854.3712	1031.0859	18733.2	17813.65
854.5163	1033.0731	18736.8	17811.6
854.6613	1035.0596	18652.3	17720.5
854.8064	1037.0454	18480.55	17546.1
854.9515	1039.0304	18373.15	17440.15
855.0965	1041.0148	18272.45	17338.2
855.2416	1042.9985	18167.7	17226.5
855.3867	1044.9814	18176.3	17238.05
855.5317	1046.9636	18113.9	17173.9
855.6768	1048.9452	18062.25	17126.75
855.8219	1050.926	18077.15	17138.75
855.9669	1052.9061	18029.95	17090.1
856.112	1054.8855	18042.9	17101
856.257	1056.8642	18107	17169.95
856.4021	1058.8421	18204.05	17256.2
856.5471	1060.8194	18218	17278.35
856.6921	1062.7959	18228.55	17287.5
856.8372	1064.7717	18239	17298.3
856.9822	1066.7469	18256.95	17311.65
857.1272	1068.7213	18276.4	17334.15
857.2723	1070.695	18269.4	17328.85
857.4173	1072.6679	18174.85	17231.35
857.5623	1074.6402	18126	17185.6
857.7073	1076.6117	18139.9	17195.95
857.8523	1078.5826	18116.65	17178.9
857.9973	1080.5527	18126.55	17187.2
858.1423	1082.5221	18260.1	17321.4
858.2873	1084.4908	18423.05	17484.4
858.4323	1086.4587	18599.85	17659.55
858.5773	1088.426	18751.05	17809
858.7223	1090.3925	18748.8	17801.2
858.8673	1092.3584	18700.55	17760.8
859.0123	1094.3235	18542.3	17600.95
859.1573	1096.2879	18471.7	17531.9
859.3022	1098.2515	18464.85	17526.9
859.4472	1100.2145	18532.65	17592.25
859.5922	1102.1767	18603.1	17660.6
859.7371	1104.1382	18743.4	17806.5
859.8821	1106.099	18973.35	18032.6
860.027	1108.0591	19179.9	18238.65
860.172	1110.0185	19283.45	18342.05
860.3169	1111.9771	19348.95	18407.55
860.4619	1113.9351	19092.25	18151.65
860.6068	1115.8923	18804.15	17867.45
860.7517	1117.8488	18507.75	17567.3
860.8967	1119.8045	18246.45	17308.65
861.0416	1121.7596	18132.5	17190.85
861.1865	1123.7139	18076.7	17138.55
861.3314	1125.6675	18027.15	17088.95
861.4763	1127.6204	18132.15	17193.5
861.6212	1129.5726	18072	17132.45
861.7661	1131.524	18075.3	17136.2
861.911	1133.4748	18084.25	17144.3
862.0559	1135.4248	18112.05	17171.65
862.2008	1137.3741	18087.05	17149.9
862.3457	1139.3226	18046.5	17107.7
862.4905	1141.2705	18029.8	17091.9
862.6354	1143.2176	17941.65	16997.75
862.7803	1145.164	17948.45	17006.2
862.9251	1147.1097	17966.75	17028.4
863.07	1149.0546	17939.35	16999.25
863.2148	1150.9989	17895.9	16954.85
863.3597	1152.9424	17731.55	16790.85
863.5045	1154.8852	17572.4	16633.25
863.6493	1156.8272	17443.7	16504.2
863.7942	1158.7686	17424.4	16478.5
863.939	1160.7092	17346.2	16405
864.0838	1162.6491	17322.5	16379.85
864.2286	1164.5883	17424.4	16486.35
864.3734	1166.5267	17506.75	16567.15
864.5182	1168.4644	17634.9	16695.6
864.663	1170.4014	17811.5	16868.7
864.8078	1172.3377	18066.15	17131.9
864.9526	1174.2732	18272.95	17337.5
865.0974	1176.2081	18488.2	17552.1
865.2421	1178.1421	18742.15	17798.25
865.3869	1180.0755	18968	18031.65
865.5317	1182.0082	19001.75	18068.05
865.6764	1183.9401	18994.55	18060.05
865.8212	1185.8713	18821.5	17891.7
865.9659	1187.8017	18601.5	17677.65
866.1106	1189.7315	18355.05	17438.05
866.2554	1191.6605	18058.65	17140.2
866.4001	1193.5888	17827.35	16905
866.5448	1195.5163	17711.7	16783.05
866.6895	1197.4432	17641.65	16708.1
866.8342	1199.3693	17569.9	16636.9
866.9789	1201.2947	17529.65	16591.15
867.1236	1203.2193	17487.65	16552.15
867.2683	1205.1432	17516	16578.85
867.413	1207.0664	17525.5	16591.15
867.5576	1208.9889	17572.15	16633.9
867.7023	1210.9106	17606.35	16667.75
867.847	1212.8316	17639.35	16703.5
867.9916	1214.7519	17681.1	16738.4
868.1363	1216.6715	17704.6	16773.6
868.2809	1218.5903	17675.2	16741.2
868.4255	1220.5084	17655.6	16721.75
868.5701	1222.4257	17646.7	16712.5
868.7148	1224.3424	17596.4	16666.5
868.8594	1226.2583	17622.55	16690.95
869.004	1228.1735	17703.05	16771.55
869.1486	1230.0879	17821.85	16886.15
869.2932	1232.0016	17926.15	16994.1
869.4377	1233.9146	17986.05	17052.5
869.5823	1235.8269	17843.8	16909.75
869.7269	1237.7384	17740.1	16808.7
869.8715	1239.6492	17566.85	16634.2
870.016	1241.5592	17417.6	16482.25
870.1606	1243.4686	17335.75	16401.75
870.3051	1245.3772	17324.75	16392.55
870.4496	1247.285	17256.4	16321.3
870.5941	1249.1922	17233.95	16300.75
870.7387	1251.0986	17240.95	16308.6
870.8832	1253.0042	17198.05	16266.5
871.0277	1254.9092	17211.15	16279.2
871.1722	1256.8134	17313.3	16385.95
871.3167	1258.7169	17488.25	16553.65
871.4611	1260.6196	17564.3	16633.55
871.6056	1262.5216	17787.85	16856.25
871.7501	1264.4229	17932.45	16999.5
871.8945	1266.3234	18093.4	17165.8
872.039	1268.2232	18146.4	17211.95
872.1834	1270.1223	18124.95	17190.8
872.3278	1272.0207	18134.75	17201.05
872.4723	1273.9183	18084.25	17144.1
872.6167	1275.8151	17996.55	17066.65
872.7611	1277.7113	17925.2	16993.4
872.9055	1279.6067	17771	16838.45
873.0499	1281.5014	17656.75	16724.5
873.1943	1283.3953	17596.95	16662.45
873.3386	1285.2885	17578.95	16647.55
873.483	1287.181	17614.65	16686.85
873.6274	1289.0727	17670.05	16741.35
873.7717	1290.9637	17747.95	16815.05
873.9161	1292.854	17876.4	16944.7
874.0604	1294.7435	17989.6	17059.9
874.2047	1296.6323	18191	17259.15
874.349	1298.5204	18446.5	17513.95
874.4933	1300.4077	18689.65	17758.25
874.6376	1302.2943	18819	17886.4
874.7819	1304.1802	18870.9	17938.4
874.9262	1306.0653	18741.6	17807.95
875.0705	1307.9497	18567.15	17637
875.2147	1309.8333	18425.4	17497.6
875.359	1311.7162	18348.85	17417.8
875.5032	1313.5984	18341.3	17406.1
875.6475	1315.4798	18402.95	17456.55
875.7917	1317.3605	18521.1	17573.15
875.9359	1319.2405	18543.45	17608.35
876.0801	1321.1197	18490.4	17554.85
876.2243	1322.9982	18368.55	17430.85
876.3685	1324.876	18329.1	17398.2
876.5127	1326.753	18219.05	17288.45
876.6569	1328.6293	18211.05	17277.35
876.801	1330.5048	18201.95	17266.1
876.9452	1332.3796	18134.6	17203.5
877.0893	1334.2537	18108.75	17150.9
877.2335	1336.127	18028.3	17096.25
877.3776	1337.9996	18015.3	17084.25
877.5217	1339.8714	17949.3	17019.25
877.6658	1341.7426	17937.3	16958.8
877.8099	1343.6129	17873.7	16940.05
877.954	1345.4826	17812.6	16880.45
878.0981	1347.3515	17802.25	16867.65
878.2422	1349.2196	17748.2	16814.3
878.3862	1351.087	17745.35	16810
878.5303	1352.9537	17750.85	16819.1
878.6743	1354.8197	17853.4	16917.35
878.8184	1356.6849	18030.7	17094.5
878.9624	1358.5493	18114.35	17183.95
879.1064	1360.4131	18132.15	17201.5
879.2504	1362.276	18095.6	17168
879.3944	1364.1383	17916.1	16987.35
879.5384	1365.9998	17667.5	16729.35
879.6823	1367.8606	17360.9	16429.15
879.8263	1369.7206	17047.45	16113.85
879.9702	1371.5799	16848.35	15911.85
880.1142	1373.4384	16684.65	15752.9
880.2581	1375.2962	16548.35	15615.8
880.402	1377.1533	16285	15354.05
880.5459	1379.0096	15939.75	15010.7
880.6898	1380.8652	15641.8	14716.15
880.8337	1382.7201	15401.7	14470.95
880.9776	1384.5742	15153.95	14223
881.1215	1386.4275	14977.75	14045.75
881.2653	1388.2802	14830.55	13900.3
881.4092	1390.132	14705.95	13774.8
881.553	1391.9832	14647.45	13714.95
881.6968	1393.8336	14557.6	13627.15
881.8406	1395.6832	14496.65	13563.1
881.9844	1397.5322	14457.05	13528.65
882.1282	1399.3803	14419.9	13486.4
882.272	1401.2278	14390.55	13461.85
882.4158	1403.0745	14361.1	13432.5
882.5595	1404.9204	14282.5	13353.8
882.7033	1406.7656	14313.25	13379.65
882.847	1408.6101	14304.1	13372.35
882.9908	1410.4538	14301.6	13369.5
883.1345	1412.2968	14313.1	13383.35
883.2782	1414.139	14321.75	13396.05
883.4219	1415.9805	14379.75	13450
883.5656	1417.8213	14453	13519.9
883.7092	1419.6613	14589.15	13659.95
883.8529	1421.5006	14753.8	13825.15
883.9965	1423.3391	14948	14019.75
884.1402	1425.1769	15259.85	14329.35
884.2838	1427.0139	15721.2	14793.6
884.4274	1428.8502	16286.9	15357.3
884.571	1430.6858	16909.05	15980.95
884.7146	1432.5206	17248.5	16320.3
884.8582	1434.3547	17494.85	16566.45
885.0018	1436.188	17493.95	16565.25
885.1453	1438.0206	17429.75	16501.3
885.2889	1439.8524	17251.1	16315.85
885.4324	1441.6835	17146	16216.45
885.5759	1443.5139	17084.4	16150.95
885.7194	1445.3435	16974.45	16045.75
885.8629	1447.1724	16900.65	15974.3
886.0064	1449.0005	16811.45	15882.85
886.1499	1450.8279	16719.25	15791.2
886.2933	1452.6545	16661.7	15733.2
886.4368	1454.4804	16682.6	15757.05
886.5802	1456.3056	16696.15	15765.55
886.7237	1458.13	16567.4	15641.2
886.8671	1459.9536	16380.8	15454.2
887.0105	1461.7766	16020.55	15092.65
887.1539	1463.5987	15595.4	14666.2
887.2972	1465.4202	15192.7	14265.65
887.4406	1467.2409	14829.25	13903.8
887.584	1469.0608	14581.2	13655.6
887.7273	1470.88	14287.65	13359.95
887.8706	1472.6984	14039.35	13113
888.0139	1474.5161	13840.15	12911.65
888.1572	1476.3331	13691.85	12764.15
888.3005	1478.1493	13555.65	12625.6
888.4438	1479.9648	13449.4	12523.25
888.5871	1481.7795	13331.5	12403.2
888.7303	1483.5935	13251.75	12326.4
888.8736	1485.4067	13167.65	12239.25
889.0168	1487.2192	13132.35	12207.1
889.16	1489.031	13074.75	12145.75
889.3032	1490.842	13030.35	12105.4
889.4464	1492.6522	12989.9	12064.2
889.5896	1494.4618	12924.35	11996.65
889.7327	1496.2705	12933.1	12005.45
889.8759	1498.0785	12861.5	11933.9
890.019	1499.8858	12808.85	11881.95
890.1622	1501.6924	12795.2	11870.7
890.3053	1503.4981	12766.55	11843.5
890.4484	1505.3032	12721.3	11791.85
890.5914	1507.1075	12674.25	11748.55
890.7345	1508.911	12604.5	11681.15
890.8776	1510.7138	12575.1	11648.8
891.0206	1512.5159	12534.8	11609.4
891.1637	1514.3172	12473.4	11549.75
891.3067	1516.1178	12390.9	11465
891.4497	1517.9176	12373.75	11445.8
891.5927	1519.7166	12325.8	11403.95
891.7357	1521.515	12274.65	11345.35
891.8786	1523.3126	12256.4	11333
892.0216	1525.1094	12211.15	11285.3
892.1645	1526.9055	12163.1	11242.3
892.3074	1528.7008	12102.2	11180.15
892.4503	1530.4954	12046.9	11123.75
892.5932	1532.2893	12032.05	11111.5
892.7361	1534.0824	11975.85	11052
892.879	1535.8747	11971.95	11053
893.0218	1537.6663	11921.95	11001.7
893.1647	1539.4572	11916.45	10997.45
893.3075	1541.2473	11893.75	10972.3
893.4503	1543.0367	11873.35	10955.5
893.5931	1544.8253	11835.45	10913.45
893.7359	1546.6132	11879.85	10958.6
893.8787	1548.4003	11828.25	10899.25
894.0214	1550.1867	11850.9	10922.8
894.1642	1551.9723	11858.1	10937.85
894.3069	1553.7572	11866.05	10949.5
894.4496	1555.5414	11858.5	10941.9
894.5923	1557.3247	11922.65	11008.7
894.735	1559.1074	11943.75	11031.1
894.8777	1560.8893	11992.65	11080.35
895.0204	1562.6705	12044.35	11130.4
895.163	1564.4509	12083.95	11169.5
895.3056	1566.2305	12156.8	11248.55
895.4482	1568.0094	12241.1	11331.45
895.5908	1569.7876	12269.05	11356.35
895.7334	1571.565	12283.2	11369.7
895.876	1573.3417	12294.75	11383.05
896.0186	1575.1176	12264.6	11352.15
896.1611	1576.8928	12206.3	11298.25
896.3036	1578.6672	12127.45	11223.75
896.4461	1580.4409	12024.5	11121.65
896.5886	1582.2138	11886.5	10979.2
896.7311	1583.986	11751.25	10840.2
896.8736	1585.7575	11687.65	10778.55
897.0161	1587.5282	11615.4	10709.9
897.1585	1589.2981	11555	10650.1
897.3009	1591.0673	11503.2	10599.35
897.4433	1592.8358	11527.25	10622.9
897.5857	1594.6035	11488.55	10579.75
897.7281	1596.3704	11509.75	10598.05
897.8705	1598.1366	11522.3	10616.3
898.0128	1599.9021	11549.95	10645.6
898.1551	1601.6668	11575.7	10667.7
898.2975	1603.4308	11629	10718.4
898.4398	1605.194	11716.85	10803.6
898.5821	1606.9564	11800.4	10900.75
898.7243	1608.7182	11921.5	11022.4
898.8666	1610.4791	12063.4	11172.6
899.0088	1612.2394	12192.3	11299.15
899.1511	1613.9988	12337.3	11441.55
899.2933	1615.7576	12543.35	11644.7
899.4355	1617.5156	12744	11831.25
899.5776	1619.2728	12952.85	12042.6
899.7198	1621.0293	13069.65	12163.45
899.862	1622.785	13087.9	12180.65
900.0041	1624.54	12997.95	12096.05
900.1462	1626.2942	12839.8	11939.6
900.2883	1628.0477	12585.7	11684.1
900.4304	1629.8005	12340.05	11436.1
900.5725	1631.5525	12103.8	11204.1
900.7145	1633.3037	11932.45	11034.15
900.8566	1635.0542	11795.05	10895.1
900.9986	1636.804	11668.15	10768.8
901.1406	1638.553	11672	10682.35
901.2826	1640.3013	11544.3	10643.1
901.4245	1642.0488	11497.1	10593.4
901.5665	1643.7955	11500.6	10602.5
901.7085	1645.5416	11538.4	10642.35
901.8504	1647.2868	11621.85	10725.6
901.9923	1649.0313	11683.3	10781.1
902.1342	1650.7751	11820.75	10917.85
902.2761	1652.5181	11983.35	11084.2
902.4179	1654.2604	12147.4	11247.9
902.5598	1656.0019	12389.55	11493
902.7016	1657.7427	12708.05	11810
902.8434	1659.4828	13022.45	12123.05
902.9852	1661.222	13212.95	12310.5
903.127	1662.9606	13202.85	12301.2
903.2687	1664.6984	12969.55	12066.9
903.4105	1666.4354	12612.05	11708.05
903.5522	1668.1717	12121.15	11216.9
903.6939	1669.9072	11561.35	10657.7
903.8356	1671.642	11166.1	10260.1
903.9773	1673.3761	10837	9933.1
904.119	1675.1094	10540.4	9641.95
904.2606	1676.8419	10332.2	9434.6
904.4022	1678.5737	10153.6	9253.75
904.5439	1680.3048	10018.8	9114.35
904.6855	1682.0351	9872.75	8974.05
904.827	1683.7646	9784.05	8879.75
904.9686	1685.4934	9732.55	8832.25
905.1101	1687.2215	9639.65	8740.6
905.2517	1688.9488	9565.8	8668.95
905.3932	1690.6754	9524.1	8625.65
905.5347	1692.4012	9459.3	8559.35
905.6761	1694.1263	9402.8	8501
905.8176	1695.8506	9358.55	8458.7
905.9591	1697.5742	9337.5	8441.15
906.1005	1699.297	9291.5	8399
906.2419	1701.0191	9213.5	8322.4
906.3833	1702.7404	9161.6	8266.8
906.5246	1704.461	9120.25	8223.75
906.666	1706.1808	9094.95	8197.3
906.8073	1707.8999	9057.1	8161.8
906.9487	1709.6182	9014.7	8123.7
907.09	1711.3358	9013.8	8124.3
907.2313	1713.0527	8943.05	8053.45
907.3725	1714.7688	8901.85	8003.25
907.5138	1716.4841	8867.55	7970.15
907.655	1718.1987	8875.55	7973.3
907.7962	1719.9126	8839.35	7947.35
907.9374	1721.6257	8795.85	7902.7
908.0786	1723.338	8786.1	7895.3
908.2198	1725.0496	8713.4	7821.05
908.3609	1726.7605	8702.1	7808.5
908.502	1728.4706	8674.8	7783
908.6431	1730.18	8627.7	7732.35
908.7842	1731.8886	8626.2	7737.25
908.9253	1733.5964	8604.35	7691.25
909.0664	1735.3036	8590.85	7695.1
909.2074	1737.0099	8559	7668.65
909.3484	1738.7156	8517.65	7629.6
909.4894	1740.4204	8457.1	7564.45
909.6304	1742.1246	8421.4	7528.25
909.7714	1743.8279	8450.75	7560.9
909.9123	1745.5306	8392.4	7500.75
910.0532	1747.2325	8368.4	7476.05
910.1941	1748.9336	8329.55	7439.95
910.335	1750.634	8307.35	7411.4
910.4759	1752.3336	8296.1	7405.05
910.6168	1754.0325	8249.05	7363.35
910.7576	1755.7307	8243.55	7353.55
910.8984	1757.4281	8252.55	7362.25
911.0392	1759.1247	8195.6	7291.75
911.18	1760.8206	8212.1	7314.2
911.3208	1762.5158	8196	7300.1
911.4615	1764.2102	8160.45	7267.55
911.6022	1765.9039	8131.45	7240.75
911.7429	1767.5968	8096.5	7209.8
911.8836	1769.289	8084.3	7196.35
912.0243	1770.9804	8072.9	7180.2
912.1649	1772.6711	8063.25	7170.65
912.3056	1774.361	8026.8	7130.45
912.4462	1776.0502	7982.8	7086.05
912.5868	1777.7386	7968.2	7074.05
912.7274	1779.4263	7960.9	7071.05
912.8679	1781.1132	7948.3	7060.85
913.0084	1782.7994	7916.35	7027.45
913.149	1784.4849	7917.6	7031.4
913.2895	1786.1696	7894.1	6999.7
913.4299	1787.8535	7870.3	6983.3
913.5704	1789.5367	7868.05	6981.6
913.7108	1791.2192	7804.65	6917.95
913.8513	1792.9009	7806.1	6891.5
913.9917	1794.5818	7783.9	6890.05
914.132	1796.2621	7782.6	6892.35
914.2724	1797.9415	7754.05	6861.6
914.4128	1799.6202	7752.4	6861.65
914.5531	1801.2982	7716.25	6823.3
914.6934	1802.9755	7714.6	6821.55
914.8337	1804.6519	7695.25	6805.2
914.9739	1806.3277	7646.7	6757
915.1142	1808.0027	7622.35	6737.3
915.2544	1809.6769	7592.3	6707.9
915.3946	1811.3504	7579.55	6694
915.5348	1813.0231	7584.85	6697.35
915.675	1814.6951	7548.95	6660.3
915.8151	1816.3664	7565.85	6673.6
915.9553	1818.0369	7552.45	6661.8
916.0954	1819.7067	7519.6	6630.65
916.2355	1821.3757	7486.65	6594.6
916.3755	1823.044	7482.05	6591.75
916.5156	1824.7115	7467.6	6577.45
916.6556	1826.3783	7425.95	6536.5
916.7956	1828.0443	7408.55	6521.35
916.9356	1829.7096	7376.65	6483.4
917.0756	1831.3741	7387.55	6494.95
917.2155	1833.0379	7365.1	6477.95
917.3555	1834.701	7331.45	6444.85
917.4954	1836.3633	7323.1	6438
917.6353	1838.0248	7300.5	6413.35
917.7751	1839.6856	7319.65	6428.3
917.915	1841.3457	7313.75	6425.25
918.0548	1843.005	7282.6	6392
918.1946	1844.6636	7271.1	6379.55
918.3344	1846.3214	7243.3	6353.8
918.4742	1847.9785	7234	6345
918.6139	1849.6349	7208.2	6315.55
918.7537	1851.2904	7199.15	6297.8
918.8934	1852.9453	7205.45	6313.65
919.0331	1854.5994	7173.2	6279.2
919.1727	1856.2528	7177.85	6281.65
919.3124	1857.9054	7138.45	6248.35
919.452	1859.5572	7116.05	6227.35
919.5916	1861.2083	7105.05	6215.5
919.7312	1862.8587	7139	6249.7
919.8708	1864.5084	7104.85	6212.45
920.0103	1866.1572	7072.7	6177.95
920.1498	1867.8054	7043.95	6151.35
920.2893	1869.4528	7022.4	6130.3
920.4288	1871.0994	6995.4	6104.3
920.5683	1872.7453	7003.45	6111.8
920.7077	1874.3905	6985.8	6076
920.8471	1876.0349	6955.2	6062.6
920.9865	1877.6786	6957.75	6064.8
921.1259	1879.3215	6962	6071.9
921.2653	1880.9637	6937.55	6046.8
921.4046	1882.6051	6914.2	6025.35
921.5439	1884.2458	6907.1	6013.9
921.6832	1885.8858	6875.5	5985.35
921.8225	1887.525	6865.8	5974.05
921.9617	1889.1634	6838.75	5947.35
922.101	1890.8011	6824.1	5932.65
922.2402	1892.4381	6797	5907
922.3794	1894.0743	6788.4	5898.65
922.5185	1895.7098	6755.7	5864.85
922.6577	1897.3446	6748.1	5856.75
922.7968	1898.9786	6726.4	5833.1
922.9359	1900.6118	6732.35	5843.55
923.075	1902.2443	6699.35	5808.7
923.214	1903.8761	6674.35	5785.7
923.3531	1905.5071	6648.2	5758.4
923.4921	1907.1374	6642.15	5752.15
923.6311	1908.7669	6603.65	5717.4
923.77	1910.3957	6623.5	5735.2
923.909	1912.0237	6562.05	5674.9
924.0479	1913.651	6553.35	5663.75
924.1868	1915.2776	6542.8	5655.25
924.3257	1916.9034	6521.05	5632.25
924.4646	1918.5285	6490.75	5604.5
924.6034	1920.1528	6476.7	5588
924.7422	1921.7764	6461.1	5571.4
924.881	1923.3992	6430.45	5543.35
925.0198	1925.0213	6402.95	5514.85
925.1586	1926.6427	6369.45	5481.25
925.2973	1928.2633	6469.15	5480.65
925.436	1929.8832	6386.4	5497.3
925.5747	1931.5023	6340.8	5453.8
925.7134	1933.1207	6323	5430.85
925.852	1934.7383	6313.65	5426.4
925.9906	1936.3552	6284.3	5396.35
926.1292	1937.9714	6258.75	5369.35
926.2678	1939.5868	6225.95	5337.95
926.4064	1941.2015	6222.1	5331.55
926.5449	1942.8154	6185.25	5296.85
926.6834	1944.4286	6171.75	5281.35
926.8219	1946.041	6160.2	5247.55
926.9604	1947.6528	6133.3	5238
927.0988	1949.2637	6111	5223.55
927.2372	1950.8739	6088.9	5197.3
927.3756	1952.4834	6069.35	5180.95
927.514	1954.0921	6065.35	5177.3
927.6523	1955.7001	6037.2	5147.65
927.7907	1957.3074	5991.7	5107.3
927.929	1958.9139	5986.6	5104.3
928.0673	1960.5197	5987.75	5101.7
928.2055	1962.1247	5951.8	5067.75
928.3438	1963.729	5921.65	5037.15
928.482	1965.3325	5925.85	5037.65
928.6202	1966.9353	5891.9	5009.15
928.7584	1968.5374	5873.65	4987.1
928.8965	1970.1387	5826.95	4941.2
929.0346	1971.7393	5813.1	4928.8
929.1727	1973.3392	5808.95	4923.5
929.3108	1974.9383	5794.75	4911.6
929.4489	1976.5366	5784.85	4901.6
929.5869	1978.1342	5766.05	4885.75
929.7249	1979.7311	5749.9	4866.8
929.8629	1981.3273	5752.85	4870.15
930.0009	1982.9227	5727.6	4844.15
930.1388	1984.5173	5695.55	4814.95
930.2767	1986.1112	5672.65	4792.6
930.4146	1987.7044	5678.05	4796.05
930.5525	1989.2968	5669.05	4785.6
930.6904	1990.8885	5633.55	4749.5
930.8282	1992.4795	5636.95	4756.3
930.966	1994.0697	5621.4	4741.1
931.1038	1995.6592	5582.75	4702
931.2415	1997.2479	5569.15	4688.1
931.3793	1998.8359	5570.55	4687.4
931.517	2000.4232	5556.7	4679.9
931.6547	2002.0097	5537.05	4661.85
931.7923	2003.5955	5502.2	4623.1
931.93	2005.1805	5507.8	4627.7
932.0676	2006.7648	5472.3	4595.35
932.2052	2008.3484	5466.15	4587.35
932.3427	2009.9312	5468.75	4590
932.4803	2011.5133	5457.7	4583.25
932.6178	2013.0946	5432.6	4556
932.7553	2014.6752	5415.35	4538.45
932.8928	2016.2551	5411	4530.45
933.0302	2017.8342	5380.3	4501.1
933.1676	2019.4126	5368.45	4490.85
933.305	2020.9902	5348.65	4472.95
933.4424	2022.5672	5329.45	4450.75
933.5798	2024.1433	5313.65	4432.05
933.7171	2025.7188	5297.8	4423.8
933.8544	2027.2935	5301.15	4424.95
933.9917	2028.8674	5286.9	4412.15
934.129	2030.4406	5283.85	4407.95
934.2662	2032.0131	5239.25	4366.1
934.4034	2033.5849	5232.05	4348.55
934.5406	2035.1559	5213.9	4340.6
934.6778	2036.7261	5215.65	4337.35
934.8149	2038.2957	5214.4	4335.6
934.952	2039.8645	5178.8	4298.3
935.0891	2041.4325	5182.25	4299.6
935.2262	2042.9998	5168.3	4290.2
935.3632	2044.5664	5162.3	4281.85
935.5002	2046.1323	5124.2	4249.8
935.6372	2047.6974	5101.95	4227.15
935.7742	2049.2617	5099.25	4224
935.9111	2050.8254	5110.8	4226.55
936.048	2052.3883	5099.15	4218.7
936.1849	2053.9504	5086.95	4206.2
936.3218	2055.5118	5054.9	4173.55
936.4586	2057.0725	5044.5	4163.25
936.5955	2058.6325	5028.5	4150
936.7323	2060.1917	5021.65	4144.75
936.869	2061.7502	5025.7	4146.65
937.0058	2063.3079	4980.25	4105.9
937.1425	2064.8649	4996.75	4117.05
937.2792	2066.4212	4969.25	4091.45
937.4159	2067.9767	4962.6	4085.2
937.5525	2069.5315	4933.35	4056.1
937.6891	2071.0856	4928.65	4049.4
937.8257	2072.6389	4886.95	4009
937.9623	2074.1915	4880.35	4005
938.0989	2075.7433	4876.05	3998.1
938.2354	2077.2945	4855.45	3981.35
938.3719	2078.8448	4840.55	3962.95
938.5084	2080.3945	4833.2	3952.75
938.6448	2081.9434	4815.1	3935.65
938.7812	2083.4916	4813.9	3932.9
938.9176	2085.039	4785.9	3898.7
939.054	2086.5857	4785.05	3901.25
939.1903	2088.1317	4779.95	3892.5
939.3267	2089.677	4768.55	3882.25
939.463	2091.2215	4740.55	3853.25
939.5992	2092.7652	4737.2	3848.35
939.7355	2094.3083	4731.85	3846.95
939.8717	2095.8506	4721.55	3838.55
940.0079	2097.3921	4736	3853.5
940.1441	2098.933	4710.1	3827.45
940.2802	2100.4731	4694.6	3814.1
940.4163	2102.0124	4719.65	3817.4
940.5524	2103.5511	4679.2	3795.45
940.6885	2105.089	4665.85	3783.8
940.8245	2106.6261	4663.9	3781.5
940.9606	2108.1626	4657.05	3775.35
941.0965	2109.6983	4654.45	3741.9
941.2325	2111.2332	4621.5	3739
941.3684	2112.7675	4609.45	3724.55
941.5044	2114.301	4589.75	3706.35
941.6403	2115.8337	4600.85	3718.65
941.7761	2117.3657	4582.3	3697.5
941.912	2118.897	4586.4	3702.25
942.0478	2120.4276	4560.65	3672.65
942.1835	2121.9575	4541.3	3657.45
942.3193	2123.4866	4559.9	3662.35
942.455	2125.0149	4530.6	3644.9
942.5907	2126.5426	4504.55	3623.85
942.7264	2128.0695	4513.95	3635.15
942.8621	2129.5956	4494.9	3620
942.9977	2131.1211	4491.2	3610
943.1333	2132.6458	4468.3	3587.6
943.2689	2134.1698	4452.25	3569.05
943.4044	2135.693	4455.75	3569
943.54	2137.2155	4444.5	3558.5
943.6755	2138.7373	4439.85	3557.65
943.8109	2140.2584	4414.85	3535.75
943.9464	2141.7787	4412.55	3529.1
944.0818	2143.2983	4377.35	3501.4
944.2172	2144.8171	4382.5	3506.1
944.3526	2146.3353	4367.5	3486.65
944.4879	2147.8527	4356.55	3479.2
944.6232	2149.3693	4357.35	3473.5
944.7585	2150.8853	4360.8	3476.85
944.8938	2152.4005	4316.2	3431.25
945.029	2153.9149	4325.15	3441
945.1642	2155.4287	4306.5	3422.05
945.2994	2156.9417	4295.8	3412.15
945.4346	2158.454	4287.5	3405.4
945.5697	2159.9655	4288.55	3408
945.7048	2161.4764	4276.7	3396.25
945.8399	2162.9865	4255.95	3374.9
945.9749	2164.4958	4245.5	3363.8
946.1099	2166.0045	4222.2	3338.8
946.2449	2167.5124	4225.15	3344.35
946.3799	2169.0195	4207.85	3324.3
946.5148	2170.526	4200.8	3319.2
946.6498	2172.0317	4193.4	3308.75
946.7846	2173.5367	4187.6	3305.7
946.9195	2175.0409	4179.05	3298.4
947.0543	2176.5445	4187.25	3302.1
947.1891	2178.0473	4159.25	3276.75
947.3239	2179.5494	4167.9	3281.4
947.4587	2181.0507	4122.8	3239.35
947.5934	2182.5513	4120	3236.65
947.7281	2184.0512	4123.3	3239.2
947.8628	2185.5504	4116.2	3232.7
947.9974	2187.0488	4095.4	3215.85
948.132	2188.5465	4075.65	3196.8
948.2666	2190.0435	4078.4	3195.7
948.4012	2191.5397	4060.15	3178.3
948.5357	2193.0353	4052.5	3168.7
948.6702	2194.5301	4036.3	3149.5
948.8047	2196.0241	4028.75	3140
948.9392	2197.5175	4033.65	3145.4
949.0736	2199.0101	4014.75	3123.4
949.208	2200.502	3998.2	3115.5
949.3424	2201.9931	3974.95	3095.05
949.4767	2203.4835	3968.15	3085.2
949.611	2204.9733	3963.05	3077.45
949.7453	2206.4622	3946.2	3067.85
949.8796	2207.9505	3925	3043
950.0138	2209.438	3921.6	3046.6
950.148	2210.9248	3921	3042.55
950.2822	2212.4109	3901	3018.4
950.4164	2213.8962	3902.6	3015.3
950.5505	2215.3809	3896.85	3008.75
950.6846	2216.8648	3879.3	2991
950.8186	2218.3479	3867.4	2973
950.9527	2219.8304	3853.05	2961.95
951.0867	2221.3121	3841.85	2950.65
951.2207	2222.7931	3840.3	2955.45
951.3546	2224.2733	3822.9	2936.55
951.4886	2225.7529	3824.3	2938.5
951.6225	2227.2317	3793.65	2907.9
951.7563	2228.7098	3783.8	2903.5
951.8902	2230.1872	3783.35	2904.7
952.024	2231.6638	3775.95	2899.2
952.1578	2233.1397	3759.35	2873.75
952.2916	2234.6149	3746.55	2867.1
952.4253	2236.0894	3736.15	2853.7
952.559	2237.5632	3744.2	2851.85
952.6927	2239.0362	3721.55	2841.9
952.8263	2240.5085	3728.2	2847.15
952.9599	2241.9801	3720.2	2837.05
953.0935	2243.4509	3687.75	2803.25
953.2271	2244.921	3685.6	2797.2
953.3606	2246.3904	3675	2788.1
953.4941	2247.8591	3670.8	2786.6
953.6276	2249.3271	3646.1	2760.9
953.7611	2250.7943	3640.7	2757.25
953.8945	2252.2608	3633.9	2746.75
954.0279	2253.7266	3620.2	2736.85
954.1612	2255.1917	3618.95	2735.2
954.2946	2256.656	3593.2	2711.4
954.4279	2258.1197	3584.95	2705.95
954.5612	2259.5826	3572.6	2689.05
954.6944	2261.0447	3596.2	2712.65
954.8276	2262.5062	3576.5	2689.1
954.9608	2263.9669	3565.3	2680.5
955.094	2265.4269	3555.4	2672.25
955.2271	2266.8862	3557.4	2674.2
955.3602	2268.3448	3548.45	2666
955.4933	2269.8026	3537.4	2654.75
955.6264	2271.2598	3536.15	2654.65
955.7594	2272.7162	3523.65	2641.1
955.8924	2274.1719	3521.1	2636.6
956.0253	2275.6268	3510.9	2627
956.1583	2277.0811	3509.35	2622
956.2912	2278.5346	3496.35	2612.7
956.4241	2279.9874	3487.95	2606.2
956.5569	2281.4395	3483.7	2604.3
956.6897	2282.8908	3478.05	2591.45
956.8225	2284.3414	3480	2596.4
956.9553	2285.7914	3457.25	2574.65
957.088	2287.2406	3450.8	2566.55
957.2207	2288.689	3452.95	2565.15
957.3534	2290.1368	3443.8	2554.1
957.486	2291.5838	3435.85	2543.3
957.6186	2293.0302	3431.85	2542.5
957.7512	2294.4758	3411.2	2525.3
957.8838	2295.9206	3393.45	2506
958.0163	2297.3648	3402.75	2519
958.1488	2298.8082	3392.95	2511.35
958.2813	2300.251	3378.9	2493.45
958.4137	2301.693	3377.35	2486.9
958.5461	2303.1343	3372.6	2485.5
958.6785	2304.5748	3357.7	2474.75
958.8108	2306.0147	3339.75	2457.2
958.9432	2307.4538	3337.3	2455.05
959.0754	2308.8922	3322.85	2441.8
959.2077	2310.3299	3319.4	2438.75
959.3399	2311.7669	3318.45	2436.6
959.4721	2313.2031	3313.1	2427.6
959.6043	2314.6387	3301.5	2417.55
959.7365	2316.0735	3289.1	2404.45
959.8686	2317.5076	3270.85	2387.55
960.0006	2318.941	3257.25	2371.7
960.1327	2320.3737	3262.3	2374.2
960.2647	2321.8056	3255.95	2366.9
960.3967	2323.2369	3252.95	2366.3
960.5287	2324.6674	3249.25	2362.75
960.6606	2326.0972	3234.7	2347.9
960.7925	2327.5263	3224.85	2340.25
960.9244	2328.9547	3227.85	2340.35
961.0562	2330.3823	3217.5	2331.7
961.1881	2331.8092	3221.25	2329.55
961.3198	2333.2355	3191.6	2303.5
961.4516	2334.661	3193.65	2307.3
961.5833	2336.0858	3189.15	2301.7
961.715	2337.5098	3179	2292.6
961.8467	2338.9332	3183.8	2297.4
961.9783	2340.3558	3173.25	2287.65
962.1099	2341.7778	3166	2284.9
962.2415	2343.199	3165.5	2279.45
962.373	2344.6195	3153.55	2270.35
962.5045	2346.0393	3142.4	2259.95
962.636	2347.4583	3145.7	2259
962.7675	2348.8767	3125.7	2241.25
962.8989	2350.2943	3136.9	2248.1
963.0303	2351.7113	3131.25	2244.1
963.1617	2353.1275	3122.3	2235.25
963.293	2354.543	3134.85	2222.45
963.4243	2355.9578	3103.55	2218.2
963.5556	2357.3718	3072.65	2189.75
963.6868	2358.7852	3085.1	2202.6
963.818	2360.1978	3068.4	2184.35
963.9492	2361.6098	3060.65	2178.3
964.0803	2363.021	3055	2168.95
964.2114	2364.4315	3055.45	2171.3
964.3425	2365.8413	3047.8	2162.5
964.4736	2367.2504	3030.15	2150.75
964.6046	2368.6587	3018.55	2137.15
964.7356	2370.0664	3025.8	2144.95
964.8666	2371.4733	3012.55	2130.7
964.9975	2372.8795	3002.55	2120.75
965.1284	2374.285	2991.45	2107.8
965.2593	2375.6899	2985.5	2105.7
965.3901	2377.0939	2977	2097.25
965.5209	2378.4973	2975.7	2094.9
965.6517	2379.9	2968.3	2087.1
965.7825	2381.3019	2942.95	2061.7
965.9132	2382.7032	2939.5	2057.7
966.0439	2384.1037	2940.35	2064.6
966.1745	2385.5035	2928.55	2049.1
966.3051	2386.9027	2908.3	2030.4
966.4357	2388.3011	2911.7	2029.8
966.5663	2389.6987	2905.85	2026.55
966.6968	2391.0957	2898.7	2019.1
966.8273	2392.492	2881	1999.95
966.9578	2393.8876	2886.6	2006.2
967.0882	2395.2824	2875.45	1995.8
967.2186	2396.6765	2877.5	1998.45
967.349	2398.07	2860.15	1981.75
967.4793	2399.4627	2865.9	1983.85
967.6097	2400.8547	2853	1973.75
967.7399	2402.246	2841.5	1954.45
967.8702	2403.6366	2826.2	1946.5
968.0004	2405.0265	2831.6	1952.1
968.1306	2406.4156	2824.95	1941.7
968.2607	2407.8041	2827.1	1944.9
968.3909	2409.1918	2812.85	1929.65
968.521	2410.5789	2792.9	1909
968.651	2411.9652	2789.25	1907.6
968.781	2413.3508	2780.05	1899.65
968.911	2414.7358	2773.25	1892.75
969.041	2416.12	2769.5	1891.85
969.1709	2417.5035	2769.3	1887.8
969.3008	2418.8863	2753.3	1873.7
969.4307	2420.2684	2751.95	1872
969.5606	2421.6497	2734.05	1849.7
969.6904	2423.0304	2726.3	1846
969.8201	2424.4104	2735.9	1855.75
969.9499	2425.7896	2716.3	1835.4
970.0796	2427.1682	2710.65	1830.65
970.2093	2428.546	2696.5	1813.35
970.3389	2429.9232	2704.35	1822.4
970.4685	2431.2996	2718.4	1839.05
970.5981	2432.6753	2697.15	1814.05
970.7277	2434.0503	2691.65	1810.55
970.8572	2435.4246	2677.1	1796.25
970.9867	2436.7982	2684.6	1802.2
971.1161	2438.1711	2673.65	1793.1
971.2456	2439.5433	2663.95	1782.05
971.375	2440.9148	2659.2	1772.45
971.5043	2442.2856	2645.85	1764.3
971.6336	2443.6557	2651.15	1768.2
971.7629	2445.025	2637.95	1758
971.8922	2446.3937	2633.3	1750.95
972.0214	2447.7617	2628.3	1746.3
972.1506	2449.1289	2620.4	1737.95
972.2798	2450.4955	2622.9	1738.5
972.4089	2451.8613	2619.85	1739.4
972.538	2453.2265	2609.9	1728.9
972.6671	2454.5909	2600.6	1717.5
972.7961	2455.9546	2595.8	1715.85
972.9251	2457.3177	2597.95	1716.9
973.0541	2458.68	2581.2	1699.3
973.1831	2460.0416	2581.7	1700.1
973.312	2461.4025	2578.5	1696.6
973.4408	2462.7627	2573.5	1682.45
973.5697	2464.1222	2564.5	1685.15
973.6985	2465.4811	2565.8	1683.65
973.8273	2466.8392	2560.4	1680.75
973.956	2468.1966	2557	1671.65
974.0847	2469.5533	2561.05	1678.7
974.2134	2470.9093	2554.6	1674.55
974.3421	2472.2645	2544.25	1662.45
974.4707	2473.6191	2536.9	1654.1
974.5993	2474.973	2524.6	1643.1
974.7278	2476.3262	2525.2	1640.5
974.8563	2477.6787	2514.8	1634.4
974.9848	2479.0305	2511.55	1630.45
975.1132	2480.3816	2504.2	1622.45
975.2417	2481.7319	2508.45	1627.95
975.37	2483.0816	2497.75	1614.4
975.4984	2484.4306	2499.55	1617.8
975.6267	2485.7789	2473.95	1594.85
975.755	2487.1264	2482.45	1601.1
975.8833	2488.4733	2466.7	1585.2
976.0115	2489.8195	2475.35	1576.95
976.1397	2491.165	2459	1575.25
976.2678	2492.5097	2446.25	1565.1
976.3959	2493.8538	2436.7	1557.2
976.524	2495.1972	2437.7	1554.65
976.6521	2496.5398	2436.15	1552.8
976.7801	2497.8818	2418.9	1534.6
976.9081	2499.2231	2414.65	1531.9
977.036	2500.5637	2415.9	1530.9
977.164	2501.9035	2418.7	1534.4
977.2918	2503.2427	2402.2	1518.9
977.4197	2504.5812	2398.95	1515.95
977.5475	2505.919	2399.95	1519.25
977.6753	2507.256	2386.7	1505.85
977.8031	2508.5924	2388.75	1506.65
977.9308	2509.9281	2380.85	1493.7
978.0585	2511.2631	2370.3	1489.45
978.1861	2512.5974	2372.35	1492.25
978.3137	2513.9309	2363.35	1482.8
978.4413	2515.2638	2384.35	1474.95
978.5689	2516.596	2364.6	1484.6
978.6964	2517.9275	2351.1	1467.5
978.8239	2519.2583	2344.95	1462.1
978.9513	2520.5884	2341.45	1459.05
979.0788	2521.9178	2332.1	1451.1
979.2062	2523.2465	2331.5	1449.25
979.3335	2524.5745	2320.7	1440.4
979.4608	2525.9018	2327.15	1442.95
979.5881	2527.2284	2318.8	1439.1
979.7154	2528.5543	2311.15	1430.9
979.8426	2529.8796	2305.7	1424.2
979.9698	2531.2041	2308.9	1426.2
980.0969	2532.5279	2294.7	1414.8
980.224	2533.851	2302.05	1421.2
980.3511	2535.1735	2290.3	1406.45
980.4781	2536.4952	2291.6	1411.75
980.6052	2537.8163	2297.5	1413.2
980.7321	2539.1366	2284.85	1402.15
980.8591	2540.4562	2280.65	1394.05
980.986	2541.7752	2278.3	1397.05
981.1129	2543.0935	2274.4	1390.9
981.2397	2544.411	2272.75	1388.35
981.3665	2545.7279	2273.1	1391.05
981.4933	2547.0441	2266	1382.75
981.62	2548.3596	2269.75	1384.2
981.7467	2549.6744	2262	1378.05
981.8734	2550.9885	2271.7	1380.65
982.0001	2552.3019	2246.05	1364.85
982.1267	2553.6146	2249.05	1366.25
982.2532	2554.9266	2240.6	1359.15
982.3798	2556.2379	2239.15	1354.8
982.5063	2557.5485	2233.9	1352.9
982.6327	2558.8585	2228.95	1338.75
982.7592	2560.1677	2234.45	1347.7
982.8856	2561.4762	2218.9	1333.95
983.0119	2562.7841	2208.9	1322.7
983.1383	2564.0913	2218.55	1336.55
983.2646	2565.3977	2219.5	1336.2
983.3908	2566.7035	2198.35	1315
983.517	2568.0086	2205.1	1319.15
983.6432	2569.313	2208.35	1325.9
983.7694	2570.6167	2197.2	1310.7
983.8955	2571.9197	2190.4	1308
984.0216	2573.222	2195.05	1307.5
984.1476	2574.5236	2188.85	1306
984.2737	2575.8246	2192.95	1308.9
984.3996	2577.1248	2198.1	1315.4
984.5256	2578.4244	2190.1	1307.8
984.6515	2579.7232	2192.15	1307.8
984.7774	2581.0214	2217.1	1302.25
984.9032	2582.3189	2175.4	1292.15
985.029	2583.6157	2172.65	1287.6
985.1548	2584.9118	2173.5	1289.55
985.2806	2586.2072	2178.35	1296.85
985.4063	2587.5019	2174.7	1291.6
985.5319	2588.7959	2167.1	1282.5
985.6576	2590.0893	2183.25	1296.5
985.7832	2591.3819	2164.25	1282.75
985.9087	2592.6739	2167.95	1288.15
986.0343	2593.9652	2169.1	1283.05
986.1597	2595.2557	2165.85	1284.7
986.2852	2596.5456	2151.35	1265.05
986.4106	2597.8348	2161.25	1278.3
986.536	2599.1234	2147.1	1265.7
986.6614	2600.4112	2146.95	1264.4
986.7867	2601.6983	2148.85	1261
986.912	2602.9848	2140	1256.05
987.0372	2604.2705	2140.45	1251.1
987.1624	2605.5556	2140.75	1258.15
987.2876	2606.84	2137.15	1253.1
987.4128	2608.1237	2133.6	1249.55
987.5379	2609.4067	2122.75	1238.55
987.6629	2610.689	2132	1241.75
987.788	2611.9707	2112.15	1225.8
987.913	2613.2516	2113.45	1228.2
988.0379	2614.5319	2101.95	1219.2
988.1629	2615.8115	2089.25	1205.3
988.2878	2617.0903	2096.15	1211.85
988.4126	2618.3685	2086.3	1202.15
988.5375	2619.6461	2085.15	1202.25
988.6622	2620.9229	2079.75	1198.55
988.787	2622.199	2083.65	1200.1
988.9117	2623.4745	2073.05	1191.7
989.0364	2624.7493	2083.75	1201.1
989.161	2626.0234	2061.8	1179.8
989.2857	2627.2968	2066.7	1185.7
989.4102	2628.5695	2068.85	1185.8
989.5348	2629.8415	2062.05	1182.1
989.6593	2631.1128	2059.6	1174.25
989.7837	2632.3835	2048.4	1167.15
989.9082	2633.6535	2043.8	1161.6
990.0326	2634.9228	2051.4	1169.55
990.1569	2636.1914	2046.35	1161.8
990.2812	2637.4593	2043.45	1159.9
990.4055	2638.7265	2040.4	1157.85
990.5298	2639.9931	2038.6	1156.9
990.654	2641.259	2029.65	1148.95
990.7782	2642.5242	2027.55	1143.3
990.9023	2643.7887	2024.65	1143.05
991.0264	2645.0525	2022.65	1140.15
991.1505	2646.3156	2014.45	1131.65
991.2745	2647.5781	2005	1124.85
991.3985	2648.8398	2010.45	1129.05
991.5225	2650.1009	2017.25	1125.55
991.6464	2651.3613	2004.35	1123.3
991.7703	2652.6211	1997.3	1115.55
991.8942	2653.8801	1991.85	1111.9
992.018	2655.1385	1995.9	1112
992.1418	2656.3961	1980.75	1098.1
992.2655	2657.6531	1986.55	1103.45
992.3892	2658.9094	1991.8	1107.6
992.5129	2660.1651	1983.3	1102.8
992.6366	2661.42	1979.6	1096.55
992.7602	2662.6743	1984.55	1103.3
992.8837	2663.9279	1975.65	1094.8
993.0073	2665.1808	1975.6	1092.6
993.1307	2666.433	1983.3	1098.8
993.2542	2667.6846	1969.05	1088.7
993.3776	2668.9354	1981.1	1093.95
993.501	2670.1856	1987.5	1105.05
993.6244	2671.4351	1977.35	1096.25
993.7477	2672.6839	1982.2	1098.85
993.8709	2673.9321	1969.2	1089.85
993.9942	2675.1795	1973.9	1091.65
994.1174	2676.4263	1974.55	1091.3
994.2405	2677.6724	1969.8	1085.6
994.3637	2678.9179	1965.35	1083.2
994.4868	2680.1626	1975.55	1093.35
994.6098	2681.4067	1966.5	1084.45
994.7328	2682.6501	1960.25	1078.3
994.8558	2683.8928	1960.25	1077.3
994.9788	2685.1348	1954.15	1073.65
995.1017	2686.3761	1954.4	1073.95
995.2245	2687.6168	1949.2	1065.95
995.3474	2688.8568	1941.45	1061.15
995.4702	2690.0961	1934.45	1052.6
995.5929	2691.3348	1928.2	1047.95
995.7156	2692.5727	1930.8	1048.3
995.8383	2693.81	1926.6	1045.45
995.961	2695.0466	1922.3	1043
996.0836	2696.2826	1917	1032.35
996.2062	2697.5178	1916.45	1031.5
996.3287	2698.7524	1909.5	1026.7
996.4512	2699.9863	1908.05	1025.9
996.5737	2701.2195	1912.25	1032.8
996.6961	2702.452	1915.35	1031.5
996.8185	2703.6839	1915.55	1030.65
996.9408	2704.9151	1915.75	1036.5
997.0631	2706.1456	1921.7	1036.7
997.1854	2707.3755	1928.05	1046.05
997.3077	2708.6046	1926.85	1043.35
997.4299	2709.8331	1937.15	1054.5
997.552	2711.0609	1933.1	1051.8
997.6742	2712.2881	1943.25	1059.9
997.7963	2713.5145	1961.15	1076.85
997.9183	2714.7403	1946.35	1064.9
998.0403	2715.9654	1968.2	1085.85
998.1623	2717.1899	1981.8	1084.05
998.2842	2718.4136	1971.65	1090.75
998.4062	2719.6367	1983.95	1101.7
998.528	2720.8591	2006.8	1117.95
998.6498	2722.0809	2008.8	1124.9
998.7716	2723.3019	2023.8	1140.6
998.8934	2724.5223	2030.2	1149.1
999.0151	2725.7421	2031.1	1148.25
999.1368	2726.9611	2020.4	1137.3
999.2584	2728.1795	2027	1140.3
999.38	2729.3972	2022.6	1142.6
999.5016	2730.6142	2017.4	1122.35
999.6231	2731.8306	1981.75	1100.95
999.7446	2733.0462	1968.25	1086.45
999.8661	2734.2612	1954	1065.3
999.9875	2735.4756	1931.75	1050.4
1000.1089	2736.6892	1912.6	1032.4
1000.2302	2737.9022	1896.45	1017.85
1000.3515	2739.1145	1878.15	997.3
1000.4728	2740.3262	1871.95	983.9
1000.594	2741.5372	1854.5	974.15
1000.7152	2742.7475	1840.75	956.9
1000.8363	2743.9571	1834	953.15
1000.9575	2745.1661	1834.9	947
1001.0785	2746.3744	1816.25	935.8
1001.1996	2747.582	1804.85	926.05
1001.3206	2748.7889	1789	904.4
1001.4415	2749.9952	1786.7	908
1001.5625	2751.2008	1773.6	891.8
1001.6833	2752.4057	1775.35	891.55
1001.8042	2753.61	1766	885.3
1001.925	2754.8136	1767.15	886
1002.0458	2756.0165	1751.2	869.9
1002.1665	2757.2188	1749.65	870.05
1002.2872	2758.4204	1754.2	872.75
1002.4078	2759.6213	1759	877
1002.5285	2760.8215	1759.75	876.15
1002.649	2762.0211	1746.65	865
1002.7696	2763.22	1735.6	852.8
1002.8901	2764.4182	1746.55	862.65
1003.0106	2765.6158	1743.35	863.65
1003.131	2766.8127	1738.2	858.5
1003.2514	2768.009	1722.75	843.25
1003.3717	2769.2045	1728.85	848
1003.492	2770.3994	1723.9	840.5
1003.6123	2771.5936	1717.9	838.9
1003.7325	2772.7872	1711.05	830.45
1003.8527	2773.9801	1710	826.85
1003.9729	2775.1723	1726.25	831.25
1004.093	2776.3639	1702.2	823.3
1004.2131	2777.5548	1706.35	821.7
1004.3331	2778.745	1693.75	813.55
1004.4531	2779.9346	1709.05	829
1004.5731	2781.1235	1702.25	822.9
1004.693	2782.3117	1720.3	842.3
1004.8129	2783.4992	1719.15	838.9
1004.9328	2784.6861	1703.25	825.8
1005.0526	2785.8723	1711.5	829.15
1005.1723	2787.0579	1719.8	839.1
1005.2921	2788.2428	1728.85	849.95
1005.4118	2789.427	1735.05	856.1
1005.5314	2790.6106	1732.35	853.45
1005.651	2791.7935	1751.95	872.95
1005.7706	2792.9757	1746.8	870.1
1005.8902	2794.1573	1760.1	879.15
1006.0097	2795.3382	1781.7	902.95
1006.1291	2796.5184	1777.7	900.3
1006.2485	2797.698	1808.85	928.25
1006.3679	2798.8769	1821.8	943.65
1006.4873	2800.0551	1838	961.4
1006.6066	2801.2327	1837.65	958.4
1006.7258	2802.4096	1854.9	977.2
1006.8451	2803.5859	1876.2	997.1
1006.9642	2804.7615	1895.3	1014.35
1007.0834	2805.9364	1908.2	1030.15
1007.2025	2807.1106	1947.7	1068.7
1007.3216	2808.2842	1977.45	1097.85
1007.4406	2809.4572	1993.05	1113.25
1007.5596	2810.6294	2028	1148.25
1007.6785	2811.801	2076	1198.25
1007.7975	2812.972	2112.6	1234.3
1007.9163	2814.1423	2151	1271.85
1008.0352	2815.3119	2200.85	1322.05
1008.154	2816.4808	2240.35	1361.65
1008.2727	2817.6491	2289.45	1412.05
1008.3914	2818.8167	2340.7	1462.4
1008.5101	2819.9837	2391.2	1506.1
1008.6288	2821.15	2425.6	1544.9
1008.7474	2822.3157	2471.55	1592.2
1008.8659	2823.4807	2517.5	1640.05
1008.9844	2824.645	2566.3	1686.5
1009.1029	2825.8086	2608.8	1729.95
1009.2214	2826.9716	2645.25	1767.45
1009.3398	2828.134	2697.65	1819.9
1009.4581	2829.2957	2723.25	1843.7
1009.5764	2830.4567	2763.95	1886.8
1009.6947	2831.617	2785.4	1904.7
1009.813	2832.7767	2790.6	1911.85
1009.9312	2833.9358	2796.4	1918.1
1010.0493	2835.0941	2782.1	1901.1
1010.1675	2836.2519	2784.95	1907.2
1010.2855	2837.4089	2760.25	1881.5
1010.4036	2838.5653	2751.45	1873.8
1010.5216	2839.7211	2753.55	1877.4
1010.6396	2840.8761	2760.3	1879.7
1010.7575	2842.0306	2787.65	1911.6
1010.8754	2843.1843	2821.55	1943.8
1010.9932	2844.3374	2855.55	1976.95
1011.111	2845.4899	2922.7	2042.8
1011.2288	2846.6417	2987.2	2108.05
1011.3465	2847.7928	3066.7	2187.75
1011.4642	2848.9433	3139.5	2260
1011.5818	2850.0931	3222.95	2342.65
1011.6995	2851.2422	3279.15	2400.6
1011.817	2852.3907	3362.95	2483.9
1011.9345	2853.5385	3410.95	2531.8
1012.052	2854.6857	3494.45	2587.55
1012.1695	2855.8323	3519.85	2644.5
1012.2869	2856.9781	3572.1	2694.45
1012.4042	2858.1233	3626.8	2749.75
1012.5216	2859.2679	3673.4	2794.9
1012.6389	2860.4118	3722.55	2845.65
1012.7561	2861.555	3762.75	2878.9
1012.8733	2862.6976	3787.15	2908.7
1012.9905	2863.8395	3815.65	2935.35
1013.1076	2864.9808	3826.4	2947.9
1013.2247	2866.1214	3841.15	2961.35
1013.3417	2867.2614	3856.45	2978.65
1013.4587	2868.4007	3870	2990.9
1013.5757	2869.5393	3865.7	2986.9
1013.6926	2870.6773	3887.55	3006.35
1013.8095	2871.8146	3917.2	3036
1013.9263	2872.9513	3908.2	3025.95
1014.0431	2874.0874	3899.5	3020.6
1014.1599	2875.2227	3888	3009.3
1014.2766	2876.3574	3872.85	2994.05
1014.3933	2877.4915	3835.35	2957.55
1014.51	2878.6249	3821.05	2943.15
1014.6266	2879.7577	3804.85	2926.25
1014.7431	2880.8898	3790.8	2903.2
1014.8596	2882.0212	3763.55	2887.4
1014.9761	2883.152	3748.6	2870.75
1015.0925	2884.2821	3731	2855
1015.2089	2885.4116	3734.85	2859.05
1015.3253	2886.5405	3731.95	2854.05
1015.4416	2887.6686	3743.35	2861.45
1015.5579	2888.7962	3741.6	2865.7
1015.6741	2889.923	3752.85	2875.85
1015.7903	2891.0493	3754.1	2874.55
1015.9065	2892.1748	3756.4	2880.15
1016.0226	2893.2997	3791.1	2911.5
1016.1387	2894.424	3793.3	2917.3
1016.2547	2895.5476	3811.3	2932.4
1016.3707	2896.6706	3835.55	2959.35
1016.4866	2897.7929	3861.2	2982.6
1016.6025	2898.9145	3881.15	3002.35
1016.7184	2900.0355	3917.6	3040.45
1016.8342	2901.1559	3946.9	3067
1016.95	2902.2756	3972.7	3094.9
1017.0658	2903.3946	4026.65	3148
1017.1815	2904.513	4036.75	3156.1
1017.2971	2905.6308	4066.5	3189.05
1017.4127	2906.7479	4099.85	3223.45
1017.5283	2907.8643	4113.4	3235.2
1017.6439	2908.9801	4130.6	3254.3
1017.7594	2910.0953	4143.25	3267.5
1017.8748	2911.2098	4140.9	3259.1
1017.9902	2912.3236	4131.75	3243.2
1018.1056	2913.4368	4113.2	3232.85
1018.2209	2914.5494	4101.15	3222.7
1018.3362	2915.6613	4064.5	3180.55
1018.4515	2916.7725	4036.65	3159.05
1018.5667	2917.8831	4011.25	3133.05
1018.6819	2918.9931	3982.25	3102.85
1018.797	2920.1024	3944.3	3065.45
1018.9121	2921.211	3932.55	3057.75
1019.0271	2922.319	3901.85	3025.8
1019.1421	2923.4264	3877.4	3000.35
1019.2571	2924.5331	3866.6	2990.45
1019.372	2925.6391	3865.6	2989.1
1019.4869	2926.7445	3854.4	2978.95
1019.6017	2927.8493	3837.55	2958.2
1019.7165	2928.9534	3827.4	2952.3
1019.8313	2930.0569	3827.4	2947.55
1019.946	2931.1597	3808.55	2927.2
1020.0606	2932.2619	3818.15	2942.3
1020.1753	2933.3634	3803.35	2925.65
1020.2899	2934.4643	3816	2933.35
1020.4044	2935.5645	3782.6	2898.95
1020.5189	2936.6641	3735	2853.9
1020.6334	2937.763	3702.05	2825.3
1020.7478	2938.8613	3646.15	2766.55
1020.8622	2939.959	3590.65	2709.8
1020.9765	2941.056	3512.7	2634.6
1021.0908	2942.1523	3453.55	2573.65
1021.2051	2943.248	3352.65	2475.35
1021.3193	2944.3431	3259.95	2384
1021.4334	2945.4375	3163.25	2287.2
1021.5476	2946.5313	3051.4	2176.7
1021.6617	2947.6244	2956.3	2078.65
1021.7757	2948.7169	2846.65	1969.85
1021.8897	2949.8087	2771.25	1892.95
1022.0037	2950.8999	2657.6	1779.4
1022.1176	2951.9904	2583.15	1707.5
1022.2315	2953.0803	2514	1636.8
1022.3453	2954.1696	2446.5	1570.3
1022.4591	2955.2582	2387.45	1511.3
1022.5728	2956.3462	2354.75	1478.55
1022.6865	2957.4335	2308.15	1431.55
1022.8002	2958.5202	2284.55	1406.65
1022.9138	2959.6062	2245.25	1367.3
1023.0274	2960.6916	2222.2	1345.8
1023.141	2961.7764	2204.8	1326.65
1023.2545	2962.8605	2188.2	1312.3
1023.3679	2963.9439	2168.5	1292.15
1023.4813	2965.0267	2166.45	1290.3
1023.5947	2966.1089	2183.05	1285.75
1023.708	2967.1905	2158.65	1282.7
1023.8213	2968.2714	2142.65	1265.95
1023.9346	2969.3516	2127.95	1251.45
1024.0478	2970.4312	2149	1265.85
1024.1609	2971.5102	2147	1272.65
1024.274	2972.5885	2140.3	1264.7
1024.3871	2973.6662	2150.3	1270.1
1024.5002	2974.7432	2130.6	1255.1
1024.6132	2975.8196	2130.85	1257
1024.7261	2976.8954	2116.65	1243.15
1024.839	2977.9705	2104.15	1229.1
1024.9519	2979.045	2094.6	1220.65
1025.0647	2980.1188	2081.1	1204.9
1025.1775	2981.192	2056.4	1183.3
1025.2902	2982.2645	2028.25	1146.7
1025.4029	2983.3364	2016.1	1140.15
1025.5156	2984.4077	1978.4	1102.95
1025.6282	2985.4783	1958.2	1075.15
1025.7407	2986.5483	1917.8	1042.7
1025.8532	2987.6177	1887.45	1012.1
1025.9657	2988.6864	1846.85	970.6
1026.0782	2989.7545	1819.15	940.85
1026.1906	2990.8219	1779.05	902.55
1026.3029	2991.8887	1755.55	876.8
1026.4152	2992.9548	1713.65	836.65
1026.5275	2994.0204	1688.75	815.55
1026.6397	2995.0852	1653.05	778.8
1026.7519	2996.1495	1647.65	769.5
1026.864	2997.2131	1611.7	735.5
1026.9761	2998.276	1590.95	714.75
1027.0882	2999.3383	1563	686.15
1027.2002	3000.4	1552.9	674.35
1027.3122	3001.4611	1537	660
1027.4241	3002.5215	1511.65	635.35
1027.536	3003.5812	1497.35	620.75
1027.6478	3004.6404	1491.2	616.25
1027.7596	3005.6989	1484.4	608.3
1027.8714	3006.7567	1475.55	600.25
1027.9831	3007.8139	1483.95	574.6
1028.0947	3008.8705	1458.05	581.45
1028.2064	3009.9264	1460.9	581.65
1028.3179	3010.9818	1446.15	570.8
1028.4295	3012.0364	1441.75	562.45
1028.541	3013.0905	1438	562.25
1028.6524	3014.1439	1432.8	558.3
1028.7638	3015.1966	1435.05	560.45
1028.8752	3016.2487	1424.1	549.85
1028.9865	3017.3002	1431.15	551.3
1029.0978	3018.3511	1421.4	546.1
1029.209	3019.4013	1421.35	544.3
1029.3202	3020.4509	1417.7	542.9
1029.4314	3021.4998	1428.6	554.1
1029.5425	3022.5481	1423.4	547.6
1029.6535	3023.5958	1420.5	545
1029.7645	3024.6428	1420.15	544.35
1029.8755	3025.6892	1423.45	547.45
1029.9864	3026.735	1426.35	551.7
1030.0973	3027.7802	1428.45	551.9
1030.2082	3028.8247	1427	551.2
1030.319	3029.8685	1431.5	554.5
1030.4297	3030.9118	1430.8	556
1030.5404	3031.9544	1435.05	560.55
1030.6511	3032.9963	1442.2	565.3
1030.7617	3034.0376	1445.4	571.1
1030.8723	3035.0783	1447.5	570.35
1030.9829	3036.1184	1444.05	569.4
1031.0934	3037.1578	1451.75	576.7
1031.2038	3038.1966	1450.5	573.85
1031.3142	3039.2348	1452.35	575.55
1031.4246	3040.2723	1459.45	575.9
1031.5349	3041.3092	1455.35	580
1031.6452	3042.3455	1443.65	568.7
1031.7554	3043.3811	1444.75	570.55
1031.8656	3044.4161	1440.2	566.05
1031.9758	3045.4505	1431.8	557.6
1032.0859	3046.4842	1435.75	560.7
1032.1959	3047.5173	1422.9	550.9
1032.3059	3048.5498	1421.8	548.8
1032.4159	3049.5816	1411.8	535.5
1032.5258	3050.6128	1406.4	530.3
1032.6357	3051.6434	1403.55	526.75
1032.7455	3052.6734	1394.5	519.45
1032.8553	3053.7027	1390.75	514
1032.9651	3054.7314	1390.2	516.25
1033.0748	3055.7594	1365.8	491.3
1033.1845	3056.7868	1374.2	500.45
1033.2941	3057.8136	1362.45	488.75
1033.4037	3058.8398	1356.65	482.9
1033.5132	3059.8653	1356.7	481.55
1033.6227	3060.8902	1345.05	470.25
1033.7321	3061.9145	1346.05	469.6
1033.8415	3062.9381	1338.85	462.55
1033.9509	3063.9612	1349.4	459.25
1034.0602	3064.9835	1331.15	454.9
1034.1694	3066.0053	1321.8	444.2
1034.2787	3067.0264	1313.8	439.95
1034.3878	3068.0469	1306.8	431.45
1034.497	3069.0668	1298.8	421.75
1034.6061	3070.086	1291.3	416.8
1034.7151	3071.1046	1283.15	407.05
1034.8241	3072.1226	1281.15	403.7
1034.9331	3073.1399	1266.15	392.55
1035.042	3074.1567	1254.4	379.55
1035.1508	3075.1727	1249.15	373.15
1035.2597	3076.1882	1235.45	360.7
1035.3684	3077.203	1227.45	353.8
1035.4772	3078.2173	1230.25	355.25
1035.5859	3079.2308	1223.5	344.5
1035.6945	3080.2438	1210.1	334.25
1035.8031	3081.2561	1200.4	326.8
1035.9117	3082.2678	1190.85	318.15
1036.0202	3083.2789	1187.75	313.7
1036.1286	3084.2893	1182.95	306.5
1036.2371	3085.2991	1176.05	302.9
1036.3454	3086.3083	1175.1	298.2
1036.4538	3087.3169	1166.35	288.5
1036.562	3088.3248	1161.55	287.35
1036.6703	3089.3321	1152.75	274.85
1036.7785	3090.3388	1151.4	276.4
1036.8866	3091.3449	1148.05	272.2
1036.9948	3092.3503	1146.5	269.8
1037.1028	3093.3551	1136.4	262.7
1037.2108	3094.3593	1133	259.7
1037.3188	3095.3629	1129.55	256.6
1037.4267	3096.3658	1128.05	252.95
1037.5346	3097.3681	1119.95	245.85
1037.6425	3098.3698	1123.1	248.75
1037.7503	3099.3708	1126.3	246
1037.858	3100.3713	1112.35	240.05
1037.9657	3101.3711	1112.8	237.4
1038.0734	3102.3702	1226.75	235.45
1038.181	3103.3688	1105	228.15
1038.2886	3104.3667	1099	225.25
1038.3961	3105.364	1102.7	228.55
1038.5036	3106.3607	1102.45	228.6
1038.611	3107.3568	1097.8	221.7
1038.7184	3108.3522	1093.9	221.1
1038.8257	3109.347	1090.3	214.35
1038.933	3110.3412	1094.75	216.2
1039.0403	3111.3348	1083.6	209.15
1039.1475	3112.3277	1085.95	210.5
1039.2547	3113.32	1082.3	208.95
1039.3618	3114.3117	1085.8	211
1039.4689	3115.3028	1082.75	209.45
1039.5759	3116.2932	1081.35	206.1
1039.6829	3117.2831	1086.85	206.65
1039.7898	3118.2723	1078.95	205
1039.8967	3119.2608	1074.9	203
1040.0035	3120.2488	1077.05	203.6
1040.1103	3121.2361	1075.7	202
1040.2171	3122.2229	1068.9	194.75
1040.3238	3123.209	1069.5	194.1
1040.4305	3124.1944	1067.95	193.7
1040.5371	3125.1793	1063.3	188.4
1040.6437	3126.1635	1061.8	188.25
1040.7502	3127.1471	1063.9	189.3
1040.8567	3128.1301	1059.55	188.85
1040.9631	3129.1125	1063.5	189.25
1041.0695	3130.0942	1058.55	184.25
1041.1759	3131.0753	1069.1	185.5
1041.2822	3132.0558	1057.65	182.05
1041.3884	3133.0357	1058.2	182.15
1041.4946	3134.015	1055.3	180.95
1041.6008	3134.9936	1052.95	178.25
1041.7069	3135.9716	1073.25	177.2
1041.813	3136.949	1049.1	175.45
1041.919	3137.9258	1064.5	171.75
1042.025	3138.902	1054.2	173.55
1042.1309	3139.8775	1043.1	170.05
1042.2368	3140.8524	1047.2	171.35
1042.3427	3141.8267	1048	173.3
1042.4485	3142.8004	1040.6	167.15
1042.5542	3143.7735	1046.45	165.95
1042.6599	3144.7459	1049.15	173.1
1042.7656	3145.7178	1038.85	165.15
1042.8712	3146.689	1039.95	169.2
1042.9768	3147.6596	1035.3	158.75
1043.0823	3148.6295	1032.5	160.1
1043.1878	3149.5989	1035	161.55
1043.2932	3150.5676	1031.6	158.2
1043.3986	3151.5357	1031.5	159
1043.5039	3152.5032	1029.3	154.3
1043.6092	3153.4701	1028.55	156.5
1043.7145	3154.4364	1029.95	156.1
1043.8197	3155.402	1030.95	159.7
1043.9248	3156.367	1027.1	154.15
1044.03	3157.3315	1053.45	151.1
1044.135	3158.2952	1023.2	149.4
1044.24	3159.2584	1020.65	146.45
1044.345	3160.221	1022.25	146.9
1044.4499	3161.1829	1021.6	147.8
1044.5548	3162.1442	1017.15	145.05
1044.6596	3163.105	1016.75	144.3
1044.7644	3164.065	1013.3	140.45
1044.8692	3165.0245	1017.8	142.85
1044.9739	3165.9834	1011.6	138.3
1045.0785	3166.9416	1011.5	138.5
1045.1831	3167.8993	1018.85	144.15
1045.2877	3168.8563	1016.5	142.15
1045.3922	3169.8127	1013.2	140.35
1045.4966	3170.7684	1012.45	136.35
1045.6011	3171.7236	1012.45	138.95
1045.7054	3172.6782	1008.3	133.85
1045.8098	3173.6321	1008.55	133.8
1045.914	3174.5854	1012.8	134.85
1046.0183	3175.5381	1003	129.85
1046.1224	3176.4902	1002.6	130.15
1046.2266	3177.4417	1004	131.8
1046.3307	3178.3926	1004.9	134.95
1046.4347	3179.3428	1005.15	131.85
1046.5387	3180.2924	1001.55	128.05
1046.6427	3181.2415	999.7	125.75
1046.7466	3182.1899	1005.45	130.2
1046.8504	3183.1377	998.55	126.05
1046.9542	3184.0848	1001.4	124.45
1047.058	3185.0314	996.6	122.05
1047.1617	3185.9773	999.95	126.7
1047.2654	3186.9227	996.6	123.55
1047.369	3187.8674	991.7	120.65
1047.4726	3188.8115	997.3	121.2
1047.5761	3189.755	993.95	119.7
1047.6796	3190.6979	992.75	121.8
1047.783	3191.6402	992.05	118.6
1047.8864	3192.5818	991.6	117.65
1047.9898	3193.5229	999.05	119.45
1048.0931	3194.4633	992.8	119.15
1048.1963	3195.4031	991.85	118.7
1048.2995	3196.3423	987.05	113.9
1048.4027	3197.2809	989.25	116.85
1048.5058	3198.2189	988.2	115.6
1048.6089	3199.1563	1004.6	116.35
1048.7119	3200.0931	986.4	115.35
1048.8148	3201.0292	983.9	111.75
1048.9178	3201.9648	987.25	114.75
1049.0206	3202.8997	988.55	111.65
1049.1235	3203.834	982.1	107.15
1049.2262	3204.7677	978.85	106.95
1049.329	3205.7008	984.75	110.5
1049.4317	3206.6333	978.85	106.65
1049.5343	3207.5652	983	108.75
1049.6369	3208.4964	982	108.7
1049.7394	3209.4271	978.85	106.45
1049.8419	3210.3571	980.6	107.2
1049.9444	3211.2865	978.8	105.3
1050.0468	3212.2154	979	105.7
1050.1491	3213.1436	980.45	105.65
1050.2514	3214.0712	981.15	102.2
1050.3537	3214.9982	978.1	107.25
1050.4559	3215.9246	976.65	104.8
1050.5581	3216.8503	975.45	101.85
1050.6602	3217.7755	978.3	106.2
1050.7623	3218.7001	975.65	101.95
1050.8643	3219.624	974.45	101.35
1050.9663	3220.5473	974.7	100.7
1051.0682	3221.4701	978.4	105.45
1051.1701	3222.3922	972.75	99.3
1051.2719	3223.3137	972.6	99.35
1051.3737	3224.2346	966.5	93.2
1051.4754	3225.1549	970	98.75
1051.5771	3226.0746	972.2	101.3
1051.6788	3226.9937	971.8	98.5
1051.7804	3227.9121	969.2	97.35
1051.8819	3228.83	970.4	99.2
1051.9834	3229.7473	970.1	96.3
1052.0849	3230.6639	969.95	96.35
1052.1863	3231.5799	968.3	95.35
1052.2876	3232.4954	966.8	93.9
1052.3889	3233.4102	966.1	94.4
1052.4902	3234.3244	962.7	89
1052.5914	3235.238	963.65	92.9
1052.6926	3236.151	976.25	92.6
1052.7937	3237.0634	962.45	90.9
1052.8948	3237.9752	960.95	89.75
1052.9958	3238.8864	961.65	90.2
1053.0968	3239.797	957.6	85.3
1053.1977	3240.7069	962.45	89
1053.2986	3241.6163	963.95	92
1053.3994	3242.5251	961.3	89.7
1053.5002	3243.4332	960.7	88.4
1053.6009	3244.3408	958.6	85.85
1053.7016	3245.2477	960.3	89.85
1053.8022	3246.154	957.75	83.5
1053.9028	3247.0598	955.2	81.25
1054.0034	3247.9649	957.15	85.55
1054.1039	3248.8694	955.85	84.55
1054.2043	3249.7733	955.55	83.5
1054.3047	3250.6766	953.45	81.9
1054.4051	3251.5793	952.95	81.3
1054.5054	3252.4814	951.1	79
1054.6056	3253.3829	949.85	78.45
1054.7058	3254.2838	951.8	80.55
1054.806	3255.1841	949.8	77.9
1054.9061	3256.0838	948.7	76.8
1055.0061	3256.9829	948.95	78.7
1055.1062	3257.8814	952.85	77.7
1055.2061	3258.7792	952.9	80.3
1055.306	3259.6765	945.5	71.1
1055.4059	3260.5731	942.25	69.65
1055.5057	3261.4692	946.85	74.7
1055.6055	3262.3647	943.25	70.3
1055.7052	3263.2595	943.8	73.2
1055.8049	3264.1538	940.95	68.15
1055.9045	3265.0474	942.95	70.15
1056.0041	3265.9404	940.45	70.2
1056.1036	3266.8329	938.7	67.3
1056.2031	3267.7247	948.35	66.1
1056.3025	3268.616	936.4	66
1056.4019	3269.5066	936.65	66.15
1056.5013	3270.3966	933.25	59.7
1056.6005	3271.286	930.05	59.65
