Software Version:	3.9.2.0
Unit SN:	10000200
Spectrometer SN:	6960
Date:	3/8/2024 12:40:48 PM
Data Line Index:	25
Spectral Points:	2048
Integration time (ms):	125
Averages:	20
Delay (ms):	30000
Sequence Number:	1
Processing:	dark subtract
Laser Power (mW):	300
Laser Current (mA):	823
Laser Diode Temp (C):	25
Laser Case Temp (C):	26.1
System Temp (C):	26
Spectrometer Temp (C):	23.9
CCD Temp (C):	0.007
Secondary Temp (C):	20.006
Heatsink Temp (C):	21.092
CCDPCB Temp (C):	35.773
SecondaryPCB Temp (C):	29.07

Wavelength	RamanShift	Raw Counts	Dark Subtracted
787.061	30.1047	456.8	47.3
787.2016	32.3739	456.9	48.6
787.3422	34.6426	463.15	51.75
787.4828	36.9109	470.85	60.25
787.6235	39.1787	478.95	61.8
787.7642	41.4461	488.05	69.25
787.9049	43.7131	494.15	71.1
788.0456	45.9796	503.8	78.2
788.1863	48.2456	514.3	85.95
788.3271	50.5112	521.9	89.15
788.4679	52.7764	527.1	92.1
788.6087	55.0411	540.15	98.55
788.7496	57.3054	552.7	106.15
788.8904	59.5692	562.8	114.65
789.0313	61.8326	575.7	125.95
789.1722	64.0955	584.9	132.15
789.3132	66.3579	604.1	146.1
789.4541	68.6199	621.85	156.4
789.5951	70.8815	661.2	193.15
789.7361	73.1426	747.4	276.15
789.8771	75.4032	967.7	493.1
790.0181	77.6634	1521.6	1039.35
790.1592	79.9231	2792.9	2302.15
790.3003	82.1824	5566.05	5055.45
790.4414	84.4412	10494.5	9949.25
790.5825	86.6995	17210.6	16616.6
790.7237	88.9574	23590.5	22956.65
790.8648	91.2148	27947.4	27288.4
791.006	93.4717	29815.3	29140.2
791.1472	95.7282	30016.6	29329.65
791.2885	97.9842	29683.3	28991.4
791.4297	100.2398	28856.1	28162.25
791.571	102.4949	27970.15	27280.4
791.7123	104.7495	26942.4	26246.3
791.8536	107.0036	25975.55	25274.8
791.9949	109.2573	25098.05	24403.4
792.1363	111.5105	24333.95	23632.05
792.2777	113.7632	23614.3	22912.45
792.4191	116.0154	23044.4	22327.6
792.5605	118.2672	22632.6	21926.05
792.7019	120.5185	22218.5	21508.3
792.8434	122.7693	21917.15	21203.25
792.9849	125.0197	21664.2	20947.55
793.1264	127.2696	21379.1	20658.25
793.2679	129.519	21193.05	20473.75
793.4094	131.7679	20850.35	20123.55
793.551	134.0163	20550.4	19821.6
793.6926	136.2642	20204.8	19473.6
793.8342	138.5117	19828.15	19082.6
793.9758	140.7587	19405.1	18667.15
794.1175	143.0052	19036.95	18295.7
794.2591	145.2512	18656.3	17914.5
794.4008	147.4967	18345.55	17602.8
794.5425	149.7417	18067.7	17325.95
794.6842	151.9863	17862	17118
794.826	154.2304	17786.25	17034.55
794.9677	156.4739	17562	16803.35
795.1095	158.717	17447.1	16685.95
795.2513	160.9596	17263.2	16506.1
795.3931	163.2017	16985.5	16222.5
795.535	165.4433	16687.7	15920.7
795.6768	167.6844	16371.5	15606
795.8187	169.925	16059.55	15289.55
795.9606	172.1651	15668.7	14896.85
796.1025	174.4047	15392	14622
796.2445	176.6439	15173.8	14404.25
796.3864	178.8825	14933.95	14157.75
796.5284	181.1206	14786.4	14003.25
796.6704	183.3582	14652.15	13865.35
796.8124	185.5954	14554.25	13763.85
796.9544	187.832	14492.95	13701.7
797.0965	190.0681	14465.65	13671.9
797.2386	192.3037	14478.1	13679.35
797.3806	194.5388	14454.65	13651
797.5228	196.7734	14496.2	13685.8
797.6649	199.0075	14570.6	13763.5
797.807	201.2411	14702.65	13895.25
797.9492	203.4742	14760.2	13950.3
798.0914	205.7068	14942.65	14129.45
798.2336	207.9389	15058.45	14242.3
798.3758	210.1704	15213.1	14403.45
798.518	212.4015	15360	14558.25
798.6603	214.632	15527.6	14737.65
798.8025	216.862	15641.4	14852
798.9448	219.0915	15747.1	14954.85
799.0871	221.3205	15826.15	15026.1
799.2294	223.549	15927.7	15136.95
799.3718	225.777	16003.85	15213.4
799.5141	228.0044	16102.1	15304.1
799.6565	230.2314	16206.9	15407.8
799.7989	232.4578	16250.05	15451.8
799.9413	234.6837	16355.65	15544.3
800.0837	236.909	16467.4	15657.95
800.2262	239.1339	16467.4	15627.65
800.3687	241.3582	16401.5	15580.5
800.5111	243.582	16312.7	15459.05
800.6536	245.8053	16276.85	15439.6
800.7961	248.0281	16213.45	15379.05
800.9387	250.2503	16203.95	15363.95
801.0812	252.472	16279.9	15437.4
801.2238	254.6932	16424.65	15585.95
801.3664	256.9139	16563.4	15722.1
801.509	259.134	16778.5	15927.1
801.6516	261.3536	17032.35	16186.4
801.7942	263.5727	17391.75	16545.35
801.9369	265.7912	17693.65	16848.6
802.0795	268.0092	18051.7	17205
802.2222	270.2267	18271.45	17428.75
802.3649	272.4436	18384.55	17539.1
802.5076	274.6601	18453	17600.75
802.6504	276.8759	18305.95	17457.7
802.7931	279.0913	18248.65	17397.3
802.9359	281.3061	18098.9	17247.55
803.0787	283.5204	18047.45	17190.3
803.2215	285.7341	18003.25	17135.9
803.3643	287.9473	18031.65	17163.5
803.5071	290.16	18118.05	17256.4
803.6499	292.3721	18170.05	17313.7
803.7928	294.5837	18357.5	17497.15
803.9357	296.7947	18537.5	17671.85
804.0786	299.0052	18692.3	17832.75
804.2215	301.2152	18706.1	17845
804.3644	303.4246	18573.5	17718.6
804.5074	305.6334	18217.25	17359.5
804.6503	307.8418	17818.85	16961.55
804.7933	310.0495	17398	16535.8
804.9363	312.2568	16941.55	16078.15
805.0793	314.4635	16526.4	15659.75
805.2223	316.6696	16172.5	15302.35
805.3653	318.8752	15892.35	15018.9
805.5084	321.0802	15807.9	14935.15
805.6514	323.2847	15828.2	14956.5
805.7945	325.4887	15862.3	14990.85
805.9376	327.692	15868.6	14994.95
806.0807	329.8949	15826.75	14949.5
806.2238	332.0972	15644.15	14771.2
806.367	334.2989	15445.05	14561.7
806.5101	336.5001	15182.2	14303.9
806.6533	338.7007	14961.15	14080
806.7965	340.9008	14822.4	13944.15
806.9397	343.1003	14616.15	13734.35
807.0829	345.2992	14510	13627.2
807.2261	347.4976	14393.25	13507.05
807.3693	349.6955	14271.3	13383.3
807.5126	351.8927	14285.1	13391.8
807.6559	354.0895	14210.8	13309.9
807.7991	356.2856	14176.3	13285.15
807.9424	358.4812	14097.3	13208.95
808.0857	360.6763	14088.25	13193.2
808.2291	362.8707	14069.1	13172.95
808.3724	365.0646	14133.45	13234.5
808.5158	367.258	14159.2	13261.15
808.6591	369.4508	14264.85	13362.3
808.8025	371.643	14383.55	13477.65
808.9459	373.8346	14471.3	13566.65
809.0893	376.0257	14590.65	13679.65
809.2327	378.2162	14624.45	13720.15
809.3762	380.4062	14610	13707.6
809.5196	382.5956	14495.85	13596.4
809.6631	384.7844	14373.2	13476.6
809.8066	386.9726	14205.8	13312.55
809.9501	389.1603	14119.35	13227.45
810.0936	391.3474	14081.45	13154.35
810.2371	393.5339	14050.95	13152.65
810.3806	395.7199	13994.95	13101.3
810.5241	397.9052	14079.1	13184.2
810.6677	400.09	14133.6	13241.8
810.8113	402.2743	14315.4	13421.65
810.9548	404.4579	14494.5	13602.4
811.0984	406.641	14746.45	13847.5
811.2421	408.8235	14923.15	14022.5
811.3857	411.0054	15036.4	14134
811.5293	413.1868	15172.9	14265.05
811.673	415.3675	15235.3	14321.8
811.8166	417.5477	15178.3	14276.1
811.9603	419.7273	15157.1	14253.1
812.104	421.9064	15051.35	14137.6
812.2477	424.0848	14982.8	14071.9
812.3914	426.2627	14830.45	13919.95
812.5351	428.4399	14611.15	13705.75
812.6788	430.6166	14278	13364.55
812.8226	432.7928	13932.5	13019.8
812.9663	434.9683	13636.75	12719.25
813.1101	437.1432	13410.15	12502.25
813.2539	439.3176	13229	12321.75
813.3977	441.4914	13082.45	12182.4
813.5415	443.6645	13054.45	12151.95
813.6853	445.8371	12995.7	12087.05
813.8291	448.0091	12948.55	12040
813.973	450.1806	12923.15	12016.75
814.1168	452.3514	12945.55	12040.9
814.2607	454.5216	12990.55	12072.55
814.4046	456.6913	12940.25	12029
814.5485	458.8603	12976.15	12067.45
814.6924	461.0288	13027.05	12125.75
814.8363	463.1967	13010.95	12115.45
814.9802	465.3639	13046	12138.4
815.1241	467.5306	13029.05	12120.1
815.2681	469.6967	13052.05	12148.3
815.412	471.8622	13011.15	12109.45
815.556	474.0271	13062.8	12158.6
815.7	476.1914	13061.4	12150.7
815.844	478.3551	13083.9	12168.45
815.988	480.5182	13183.9	12279.65
816.132	482.6807	13269.35	12372
816.276	484.8426	13450.35	12559.95
816.4201	487.0039	13766.75	12868.6
816.5641	489.1647	14206.65	13292.65
816.7082	491.3248	14541.15	13629
816.8522	493.4843	14622.4	13720.7
816.9963	495.6432	14577.75	13672.6
817.1404	497.8015	14440.65	13523.35
817.2845	499.9592	14318.95	13394.8
817.4286	502.1163	14058.4	13135.7
817.5727	504.2728	13750.6	12841.7
817.7168	506.4287	13471.3	12570
817.861	508.5839	13153.9	12257.15
818.0051	510.7386	12976.4	12069.75
818.1493	512.8927	12861.85	11940.25
818.2935	515.0461	12856	11942.9
818.4377	517.199	12943.55	12022.65
818.5818	519.3512	13140.65	12222.85
818.726	521.5029	13448.45	12527.2
818.8703	523.6539	13747.9	12829.5
819.0145	525.8043	13863.35	12945.1
819.1587	527.9541	13773.8	12851.6
819.303	530.1033	13570.85	12649.7
819.4472	532.2519	13373.35	12455.15
819.5915	534.3999	13285.7	12363.05
819.7357	536.5472	13323.8	12407.45
819.88	538.694	13527.35	12612.7
820.0243	540.8401	13761.45	12837.85
820.1686	542.9856	13971.2	13040.85
820.3129	545.1305	13989.3	13049.35
820.4572	547.2748	13948.5	13005.65
820.6016	549.4185	13776.3	12832.3
820.7459	551.5615	13643.15	12704.45
820.8902	553.704	13668.95	12733.7
821.0346	555.8458	13745.55	12809.95
821.1789	557.987	13958.8	13028.05
821.3233	560.1276	14174.7	13238.25
821.4677	562.2675	14649.5	13717.25
821.6121	564.4069	15223.25	14289.4
821.7565	566.5456	15729.55	14802.6
821.9009	568.6837	15920.15	14991.25
822.0453	570.8212	15477.25	14548.45
822.1897	572.958	14736.8	13804.85
822.3342	575.0942	14047.75	13123.75
822.4786	577.2299	13548.55	12631.3
822.6231	579.3648	13300.25	12398.15
822.7675	581.4992	13232.35	12334.7
822.912	583.6329	13305.25	12408.55
823.0565	585.766	13482.2	12580.5
823.201	587.8985	13602.1	12695.1
823.3454	590.0304	13704.7	12759.1
823.4899	592.1616	13674	12741.5
823.6345	594.2922	13533.35	12598.45
823.779	596.4222	13326.2	12389.45
823.9235	598.5515	13129.15	12195.15
824.068	600.6802	12931.6	11991
824.2126	602.8083	12737.65	11804.15
824.3571	604.9358	12762.65	11827.3
824.5017	607.0626	12784.6	11847.9
824.6462	609.1888	12895.6	11951.4
824.7908	611.3144	13077.75	12140.3
824.9354	613.4393	13217.8	12276.95
825.08	615.5636	13386.75	12445.3
825.2246	617.6873	13411.05	12469.35
825.3692	619.8103	13345.35	12399.35
825.5138	621.9327	13111.7	12170.5
825.6584	624.0544	12875.6	11944.15
825.803	626.1756	12673.95	11736.5
825.9477	628.2961	12499.85	11560.55
826.0923	630.4159	12398.95	11456.9
826.237	632.5351	12364.2	11420.1
826.3816	634.6537	12378.05	11434.35
826.5263	636.7716	12394.1	11447.25
826.6709	638.8889	12397.5	11448.3
826.8156	641.0056	12420.25	11468.8
826.9603	643.1216	12373.5	11423.2
827.105	645.237	12376	11431
827.2497	647.3518	12262.55	11329.6
827.3944	649.4659	12187.75	11251.3
827.5391	651.5793	12146.95	11213.15
827.6838	653.6922	12058.95	11123.35
827.8285	655.8043	12032.7	11098.65
827.9733	657.9159	12071.5	11133.8
828.118	660.0268	12026.3	11089.95
828.2627	662.137	12031.8	11090.4
828.4075	664.2466	12047.2	11099.65
828.5522	666.3556	12045.95	11099
828.697	668.4639	11985.5	11044
828.8418	670.5716	11935.8	11000
828.9865	672.6786	11899	10953.65
829.1313	674.785	11836.1	10884.65
829.2761	676.8907	11792.5	10848.05
829.4209	678.9958	11805.2	10866
829.5657	681.1002	11738.55	10792.8
829.7105	683.204	11745.1	10789.3
829.8553	685.3072	11733.6	10782.95
830.0001	687.4097	11702.55	10756.1
830.1449	689.5115	11692.75	10742.85
830.2898	691.6127	11725.4	10782.05
830.4346	693.7132	11687	10746.9
830.5794	695.8131	11738.9	10770.9
830.7243	697.9123	11769.25	10818.3
830.8691	700.0109	11773.15	10819.55
831.014	702.1089	11826.6	10875.3
831.1588	704.2061	11891.2	10939.85
831.3037	706.3028	11947.6	10994.35
831.4486	708.3987	12038	11087.4
831.5935	710.4941	12038.55	11088.9
831.7383	712.5887	12043.15	11097.9
831.8832	714.6827	12108.8	11158.95
832.0281	716.7761	12241.4	11299.8
832.173	718.8688	12404.1	11453.4
832.3179	720.9608	12536.15	11580.85
832.4628	723.0522	12653.05	11691.65
832.6077	725.1429	12751.25	11796.2
832.7527	727.233	12867.65	11914.7
832.8976	729.3224	12962.35	12008.45
833.0425	731.4112	12911.55	11956.5
833.1874	733.4993	12763	11808.7
833.3324	735.5867	12491.8	11539.85
833.4773	737.6735	12267.05	11310.3
833.6222	739.7596	12065.1	11110.9
833.7672	741.845	11907.2	10954.35
833.9122	743.9298	11800	10850.4
834.0571	746.014	11764.95	10812.95
834.2021	748.0974	11742.35	10784.15
834.347	750.1802	11744.4	10787.9
834.492	752.2624	11783.35	10823.1
834.637	754.3439	11844.15	10885.6
834.782	756.4247	11953.6	10984.6
834.9269	758.5048	12083.65	11125.75
835.0719	760.5843	12396.45	11435.65
835.2169	762.6631	12845.45	11887.7
835.3619	764.7413	13453.85	12493.3
835.5069	766.8188	14199.5	13238.25
835.6519	768.8956	14807.1	13850.55
835.7969	770.9718	15236.2	14277.95
835.9419	773.0473	15167.6	14208.9
836.0869	775.1221	14949.15	13992.7
836.232	777.1962	14655.05	13696.95
836.377	779.2697	14564.45	13604.2
836.522	781.3426	14675.5	13702.8
836.667	783.4147	14781.45	13825.2
836.8121	785.4862	14815.95	13857.55
836.9571	787.557	14584.9	13621.7
837.1021	789.6271	14063.65	13100.7
837.2472	791.6966	13405.2	12444.3
837.3922	793.7654	12741.1	11781.15
837.5373	795.8335	12302.5	11342.55
837.6823	797.901	11998.85	11041.85
837.8274	799.9678	11804.55	10842.2
837.9724	802.0339	11698.05	10736.45
838.1175	804.0993	11684.35	10710.6
838.2626	806.1641	11594.85	10631.3
838.4076	808.2282	11512	10553.35
838.5527	810.2916	11432.05	10466.45
838.6978	812.3544	11346.25	10389.35
838.8428	814.4164	11295.45	10338.6
838.9879	816.4778	11348.05	10377.75
839.133	818.5385	11384.7	10417.1
839.2781	820.5986	11545.85	10582.4
839.4232	822.658	11808.3	10845.5
839.5682	824.7166	12168.4	11205.45
839.7133	826.7747	12764.95	11802.8
839.8584	828.832	13331.75	12364.2
840.0035	830.8886	13743.65	12775.15
840.1486	832.9446	13987.55	13018.8
840.2937	834.9999	13830.2	12867.5
840.4388	837.0545	13504.2	12536.6
840.5839	839.1085	13071.8	12104.35
840.729	841.1618	12717	11751.3
840.8741	843.2143	12403.95	11440.3
841.0192	845.2662	12157.6	11192
841.1643	847.3175	12029.6	11062
841.3095	849.368	11928.65	10963.15
841.4546	851.4179	11805.35	10838.6
841.5997	853.467	11731.35	10763.65
841.7448	855.5155	11676.2	10706.85
841.8899	857.5633	11583.05	10615.55
842.0351	859.6105	11470.8	10502.7
842.1802	861.6569	11382.3	10420.05
842.3253	863.7027	11311.75	10344.15
842.4704	865.7478	11279.75	10311
842.6156	867.7922	11228.35	10260.85
842.7607	869.8359	11164.2	10196.65
842.9058	871.8789	11204.6	10234.7
843.0509	873.9212	11281.05	10280
843.1961	875.9629	11340.4	10368.9
843.3412	878.0039	11465.8	10498.3
843.4863	880.0441	11558.4	10596.55
843.6315	882.0837	11635.55	10667.4
843.7766	884.1226	11656.25	10688.65
843.9218	886.1609	11747.45	10777.75
844.0669	888.1984	11872.85	10904.5
844.212	890.2352	12018.85	11053.55
844.3572	892.2714	12037	11061
844.5023	894.3069	11976.35	11006.85
844.6475	896.3416	11808.45	10836.25
844.7926	898.3757	11656.7	10687.6
844.9377	900.4091	11549.5	10575.6
845.0829	902.4418	11548.4	10575.5
845.228	904.4739	11536.55	10562.6
845.3732	906.5052	11596.9	10620.25
845.5183	908.5358	11562.05	10589.5
845.6635	910.5658	11458.2	10482.15
845.8086	912.595	11231.35	10263.55
845.9538	914.6236	11006.3	10035.55
846.0989	916.6515	10861.9	9888.65
846.2441	918.6786	10744	9771.95
846.3892	920.7051	10693.55	9720.9
846.5344	922.7309	10753.05	9779.95
846.6795	924.756	10806.8	9836.9
846.8246	926.7804	10844.4	9872.7
846.9698	928.8041	10829.5	9860
847.1149	930.8272	10910.65	9940.95
847.2601	932.8495	10875.15	9906.45
847.4052	934.8711	10889.75	9916
847.5504	936.892	10861.35	9889.95
847.6955	938.9123	10867.5	9896.2
847.8407	940.9318	10901.75	9932.6
847.9858	942.9506	10930.4	9961.65
848.131	944.9688	10830.5	9864.15
848.2761	946.9862	10742.7	9769.55
848.4213	949.003	10572.7	9603.55
848.5664	951.019	10471.35	9501.4
848.7115	953.0344	10389.05	9418.5
848.8567	955.0491	10368.45	9396.9
849.0018	957.063	10409.45	9440.25
849.147	959.0763	10472.95	9506.7
849.2921	961.0888	10506.75	9536.55
849.4373	963.1007	10534.25	9566.15
849.5824	965.1119	10568.4	9612.9
849.7275	967.1223	10548.45	9599.1
849.8727	969.1321	10526.85	9577.6
850.0178	971.1412	10526.9	9567.35
850.1629	973.1495	10508.6	9544.95
850.3081	975.1572	10539.25	9525.75
850.4532	977.1641	10542.9	9573.45
850.5983	979.1704	10529.85	9556.75
850.7435	981.1759	10483.25	9507.9
850.8886	983.1808	10489.2	9515.8
851.0337	985.1849	10472.8	9492.45
851.1788	987.1884	10541.2	9572.35
851.324	989.1911	10632.3	9665.35
851.4691	991.1932	10670.95	9702.45
851.6142	993.1945	10689.3	9722.95
851.7593	995.1951	10626.15	9655.2
851.9045	997.1951	10641.5	9667.65
852.0496	999.1943	10595.55	9628.1
852.1947	1001.1928	10601.35	9631.25
852.3398	1003.1906	10650.45	9680.05
852.4849	1005.1877	10781.35	9811.05
852.63	1007.1841	10867.1	9897.5
852.7751	1009.1798	10889.05	9915.75
852.9202	1011.1748	10855.3	9888
853.0653	1013.1691	10681.5	9711.65
853.2104	1015.1627	10485.6	9514.65
853.3555	1017.1556	10246.6	9279.45
853.5006	1019.1477	10125.95	9162.05
853.6457	1021.1392	9983.45	9026.1
853.7908	1023.1299	9982.5	9027.4
853.9359	1025.12	9972.35	9027
854.081	1027.1093	10027.5	9094.7
854.2261	1029.0979	10154.15	9218.6
854.3712	1031.0859	10260.3	9317.8
854.5163	1033.0731	10279.4	9332.3
854.6613	1035.0596	10238.3	9278.7
854.8064	1037.0454	10133.55	9171.9
854.9515	1039.0304	10067.4	9102.3
855.0965	1041.0148	9919.5	8952.55
855.2416	1042.9985	9816.2	8848.4
855.3867	1044.9814	9798.95	8835.2
855.5317	1046.9636	9699.55	8734.55
855.6768	1048.9452	9686.3	8726.05
855.8219	1050.926	9739.15	8773.3
855.9669	1052.9061	9782.9	8820.8
856.112	1054.8855	9791.6	8822.8
856.257	1056.8642	9852	8882.5
856.4021	1058.8421	9903.1	8932.95
856.5471	1060.8194	9952.35	8983.05
856.6921	1062.7959	9959.7	8993.7
856.8372	1064.7717	10032	9068.5
856.9822	1066.7469	10119.25	9152.15
857.1272	1068.7213	10205.05	9232.65
857.2723	1070.695	10296.85	9330.6
857.4173	1072.6679	10362.1	9394.4
857.5623	1074.6402	10386.15	9421.55
857.7073	1076.6117	10346.8	9376.05
857.8523	1078.5826	10210.2	9240.35
857.9973	1080.5527	10070.65	9105.1
858.1423	1082.5221	9936.55	8969.05
858.2873	1084.4908	9896.05	8930.95
858.4323	1086.4587	9883.6	8914.15
858.5773	1088.426	9918.2	8949.9
858.7223	1090.3925	9923.95	8953.7
858.8673	1092.3584	9944.8	8982.8
859.0123	1094.3235	10001.8	9038.7
859.1573	1096.2879	10098.95	9133
859.3022	1098.2515	10232.45	9264.9
859.4472	1100.2145	10421.35	9460.25
859.5922	1102.1767	10613.25	9647.45
859.7371	1104.1382	10878.5	9916.55
859.8821	1106.099	11148.5	10178.3
860.027	1108.0591	11369.35	10402.95
860.172	1110.0185	11520.05	10552.45
860.3169	1111.9771	11626.45	10658.05
860.4619	1113.9351	11532.6	10571.15
860.6068	1115.8923	11430.25	10465
860.7517	1117.8488	11311.35	10345.45
860.8967	1119.8045	11087.65	10124.45
861.0416	1121.7596	10940.6	9980.95
861.1865	1123.7139	10802.85	9841.25
861.3314	1125.6675	10735.7	9775.5
861.4763	1127.6204	10780.45	9817.35
861.6212	1129.5726	10711	9745.25
861.7661	1131.524	10595.45	9633.7
861.911	1133.4748	10478.15	9515.9
862.0559	1135.4248	10237.6	9274.5
862.2008	1137.3741	10078.6	9115.9
862.3457	1139.3226	9965.6	9000.7
862.4905	1141.2705	9883.6	8921.4
862.6354	1143.2176	9814.7	8842.85
862.7803	1145.164	9770.6	8804.9
862.9251	1147.1097	9678.45	8715.75
863.07	1149.0546	9571	8605.25
863.2148	1150.9989	9469.05	8504.35
863.3597	1152.9424	9379.25	8418.9
863.5045	1154.8852	9281	8318.2
863.6493	1156.8272	9278.75	8319.8
863.7942	1158.7686	9286.5	8316.8
863.939	1160.7092	9298.2	8335.1
864.0838	1162.6491	9326	8359.8
864.2286	1164.5883	9438.4	8474.5
864.3734	1166.5267	9575.45	8612.65
864.5182	1168.4644	9743.45	8779.25
864.663	1170.4014	9952.95	8987.95
864.8078	1172.3377	10200.2	9242.55
864.9526	1174.2732	10539.7	9579.8
865.0974	1176.2081	11009.4	10047.35
865.2421	1178.1421	11560.75	10596
865.3869	1180.0755	12163.6	11201.95
865.5317	1182.0082	12572.9	11613.8
865.6764	1183.9401	12762.35	11804.75
865.8212	1185.8713	12584	11632.6
865.9659	1187.8017	12225.55	11280.15
866.1106	1189.7315	11790.25	10853.2
866.2554	1191.6605	11367.2	10432.25
866.4001	1193.5888	11013.7	10072.05
866.5448	1195.5163	10867	9914.75
866.6895	1197.4432	10723.4	9765.85
866.8342	1199.3693	10699.9	9740.4
866.9789	1201.2947	10661.15	9697.75
867.1236	1203.2193	10614.15	9658.1
867.2683	1205.1432	10584.7	9626.35
867.413	1207.0664	10531.2	9574.8
867.5576	1208.9889	10509.85	9550.05
867.7023	1210.9106	10505.5	9549.7
867.847	1212.8316	10487.25	9531.1
867.9916	1214.7519	10539.45	9571.9
868.1363	1216.6715	10550.45	9593.95
868.2809	1218.5903	10625.75	9667.15
868.4255	1220.5084	10736.5	9775.95
868.5701	1222.4257	10840.15	9883.45
868.7148	1224.3424	10926.15	9974.65
868.8594	1226.2583	11074.7	10117.25
869.004	1228.1735	11235.55	10278.15
869.1486	1230.0879	11406.65	10444.75
869.2932	1232.0016	11629.9	10673.05
869.4377	1233.9146	11772.85	10813.6
869.5823	1235.8269	11859.9	10902.8
869.7269	1237.7384	11839.15	10881.15
869.8715	1239.6492	11695.3	10739.9
870.016	1241.5592	11699.4	10744.25
870.1606	1243.4686	11767.25	10811.7
870.3051	1245.3772	11981	11020.15
870.4496	1247.285	12288.05	11329.8
870.5941	1249.1922	12529.6	11575.9
870.7387	1251.0986	12720.4	11765.55
870.8832	1253.0042	12821.9	11867.25
871.0277	1254.9092	12948.4	11995.2
871.1722	1256.8134	13066.25	12116.35
871.3167	1258.7169	13227.65	12271.45
871.4611	1260.6196	13361.4	12407.3
871.6056	1262.5216	13587.35	12630.7
871.7501	1264.4229	13799.85	12845.5
871.8945	1266.3234	14010.25	13058.4
872.039	1268.2232	14160.5	13199.25
872.1834	1270.1223	14254.95	13295.75
872.3278	1272.0207	14277.15	13318.9
872.4723	1273.9183	14300.4	13338.65
872.6167	1275.8151	14233.65	13279.05
872.7611	1277.7113	14217	13262.35
872.9055	1279.6067	14320.9	13369.2
873.0499	1281.5014	14645.7	13690.45
873.1943	1283.3953	15140.6	14185
873.3386	1285.2885	15770.8	14817.15
873.483	1287.181	16423.3	15472.75
873.6274	1289.0727	17066	16119.3
873.7717	1290.9637	17461.85	16510.85
873.9161	1292.854	17731.8	16777.25
874.0604	1294.7435	17700.95	16743.9
874.2047	1296.6323	17546.8	16591.45
874.349	1298.5204	17273.95	16316.25
874.4933	1300.4077	16978.1	16022.5
874.6376	1302.2943	16642.75	15691.85
874.7819	1304.1802	16263.85	15308.15
874.9262	1306.0653	15678.75	14725.6
875.0705	1307.9497	15088.65	14135.95
875.2147	1309.8333	14608.35	13656.85
875.359	1311.7162	14213.4	13260.6
875.5032	1313.5984	13956.75	13001.25
875.6475	1315.4798	13767.35	12803.65
875.7917	1317.3605	13640.85	12679
875.9359	1319.2405	13510.1	12555.55
876.0801	1321.1197	13229.95	12273.7
876.2243	1322.9982	12851.35	11892.9
876.3685	1324.876	12518.9	11566.4
876.5127	1326.753	12150.2	11195.15
876.6569	1328.6293	11898.2	10943.05
876.801	1330.5048	11681.3	10725.9
876.9452	1332.3796	11512.25	10556.5
877.0893	1334.2537	11359.8	10376.85
877.2335	1336.127	11247.2	10293.5
877.3776	1337.9996	11207.25	10256.4
877.5217	1339.8714	11173.25	10221.3
877.6658	1341.7426	11217.5	10216.55
877.8099	1343.6129	11198.85	10243.9
877.954	1345.4826	11195.7	10241.2
878.0981	1347.3515	11217.05	10258.3
878.2422	1349.2196	11181.75	10225.15
878.3862	1351.087	11250.55	10294
878.5303	1352.9537	11288.8	10333.9
878.6743	1354.8197	11388.2	10434.2
878.8184	1356.6849	11569.75	10617.35
878.9624	1358.5493	11744.8	10792.05
879.1064	1360.4131	11941.9	10988.95
879.2504	1362.276	12109.45	11154.9
879.3944	1364.1383	12140.3	11189.55
879.5384	1365.9998	11984.45	11026
879.6823	1367.8606	11650.55	10696.4
879.8263	1369.7206	11260.3	10304.35
879.9702	1371.5799	10930.05	9973
880.1142	1373.4384	10611.95	9655.6
880.2581	1375.2962	10349.1	9394.7
880.402	1377.1533	9995.1	9043.35
880.5459	1379.0096	9605.65	8662.15
880.6898	1380.8652	9268.75	8326.6
880.8337	1382.7201	8951.65	8005.2
880.9776	1384.5742	8703.7	7753.15
881.1215	1386.4275	8507.15	7553.7
881.2653	1388.2802	8365.4	7413.1
881.4092	1390.132	8217.55	7266.1
881.553	1391.9832	8166.9	7212.6
881.6968	1393.8336	8067.1	7116.35
881.8406	1395.6832	8014.95	7063.9
881.9844	1397.5322	7972.65	7021.8
882.1282	1399.3803	7934.4	6977.8
882.272	1401.2278	7905.95	6954.25
882.4158	1403.0745	7898.15	6946.9
882.5595	1404.9204	7852.35	6905.2
882.7033	1406.7656	7847.7	6899.05
882.847	1408.6101	7891.5	6941.6
882.9908	1410.4538	7903.4	6951.45
883.1345	1412.2968	7947.8	6996.3
883.2782	1414.139	8003.9	7051.1
883.4219	1415.9805	8061.55	7111.05
883.5656	1417.8213	8114.1	7157.15
883.7092	1419.6613	8240.8	7293.7
883.8529	1421.5006	8377.9	7429.8
883.9965	1423.3391	8586.7	7637.7
884.1402	1425.1769	8862.7	7914.05
884.2838	1427.0139	9319.25	8367.75
884.4274	1428.8502	9847.35	8896.4
884.571	1430.6858	10386.6	9438.45
884.7146	1432.5206	10775.25	9827.9
884.8582	1434.3547	11002.65	10052.9
885.0018	1436.188	11036.55	10088.45
885.1453	1438.0206	10940	9986.65
885.2889	1439.8524	10783.6	9836.35
885.4324	1441.6835	10659.05	9710.1
885.5759	1443.5139	10575.3	9623.95
885.7194	1445.3435	10513.65	9563.6
885.8629	1447.1724	10475.05	9529.7
886.0064	1449.0005	10434.15	9489.5
886.1499	1450.8279	10388.8	9442.3
886.2933	1452.6545	10372.15	9427.05
886.4368	1454.4804	10377	9435.85
886.5802	1456.3056	10396.25	9441.8
886.7237	1458.13	10299.4	9357.8
886.8671	1459.9536	10152.1	9207.1
887.0105	1461.7766	9869.95	8924.2
887.1539	1463.5987	9558.55	8610.7
887.2972	1465.4202	9218.05	8268.9
887.4406	1467.2409	8876.45	7930.5
887.584	1469.0608	8598.3	7653.9
887.7273	1470.88	8318.4	7375.9
887.8706	1472.6984	8086.95	7145.1
888.0139	1474.5161	7906.15	6959.1
888.1572	1476.3331	7748.4	6802.75
888.3005	1478.1493	7625.15	6678
888.4438	1479.9648	7537.95	6593.35
888.5871	1481.7795	7461.65	6515.6
888.7303	1483.5935	7400.8	6455.65
888.8736	1485.4067	7347.35	6401.3
889.0168	1487.2192	7323.65	6377.35
889.16	1489.031	7285.3	6338.85
889.3032	1490.842	7227.9	6277.85
889.4464	1492.6522	7216.2	6271.95
889.5896	1494.4618	7164.65	6218.6
889.7327	1496.2705	7129.7	6183.9
889.8759	1498.0785	7105.45	6161.3
890.019	1499.8858	7038.65	6094.35
890.1622	1501.6924	6994.6	6054.75
890.3053	1503.4981	6955.4	6009.4
890.4484	1505.3032	6902.25	5961.55
890.5914	1507.1075	6844.7	5899.9
890.7345	1508.911	6811.25	5866.6
890.8776	1510.7138	6775	5828.8
891.0206	1512.5159	6715.55	5774.35
891.1637	1514.3172	6667	5725.8
891.3067	1516.1178	6640.2	5700.1
891.4497	1517.9176	6614.1	5669.9
891.5927	1519.7166	6547.7	5604.95
891.7357	1521.515	6553.2	5606.6
891.8786	1523.3126	6515.95	5575.2
892.0216	1525.1094	6476.85	5536.15
892.1645	1526.9055	6464.2	5525.3
892.3074	1528.7008	6434.85	5494.1
892.4503	1530.4954	6403.6	5461
892.5932	1532.2893	6382.15	5445.6
892.7361	1534.0824	6358.15	5419
892.879	1535.8747	6360.85	5427.05
893.0218	1537.6663	6341.95	5408.05
893.1647	1539.4572	6328.55	5393.7
893.3075	1541.2473	6363.65	5429.4
893.4503	1543.0367	6356.15	5420.25
893.5931	1544.8253	6374.45	5432.25
893.7359	1546.6132	6429.25	5490.05
893.8787	1548.4003	6429.2	5485.45
894.0214	1550.1867	6490.5	5543.8
894.1642	1551.9723	6562.2	5623.15
894.3069	1553.7572	6678.9	5743.35
894.4496	1555.5414	6805.15	5875.75
894.5923	1557.3247	6963.8	6032.5
894.735	1559.1074	7158.6	6227.7
894.8777	1560.8893	7341.3	6411.7
895.0204	1562.6705	7517.1	6587.6
895.163	1564.4509	7662.4	6735.95
895.3056	1566.2305	7731.65	6811.05
895.4482	1568.0094	7794.5	6869.9
895.5908	1569.7876	7784.4	6860.55
895.7334	1571.565	7770.15	6839.95
895.876	1573.3417	7763.5	6837.25
896.0186	1575.1176	7747.45	6818.95
896.1611	1576.8928	7761.05	6840.55
896.3036	1578.6672	7788.7	6868.6
896.4461	1580.4409	7804.45	6887.55
896.5886	1582.2138	7872.65	6950.2
896.7311	1583.986	7948.4	7026.15
896.8736	1585.7575	8057	7131.6
897.0161	1587.5282	8192.85	7271.25
897.1585	1589.2981	8332.4	7412.45
897.3009	1591.0673	8427.1	7506.85
897.4433	1592.8358	8589.95	7670.95
897.5857	1594.6035	8717	7793.75
897.7281	1596.3704	8820.8	7896.85
897.8705	1598.1366	8911.2	7988.65
898.0128	1599.9021	9031.1	8111.7
898.1551	1601.6668	9125.1	8201.8
898.2975	1603.4308	9282.45	8357.25
898.4398	1605.194	9458.75	8534.4
898.5821	1606.9564	9680.85	8765.9
898.7243	1608.7182	9944.3	9035.4
898.8666	1610.4791	10258.75	9354.3
899.0088	1612.2394	10619.8	9716.1
899.1511	1613.9988	10993.65	10086.25
899.2933	1615.7576	11319	10405.5
899.4355	1617.5156	11561.25	10634.8
899.5776	1619.2728	11643.45	10719.25
899.7198	1621.0293	11492.1	10570.75
899.862	1622.785	11214.85	10295.65
900.0041	1624.54	10799.1	9883.35
900.1462	1626.2942	10339.3	9427.85
900.2883	1628.0477	9855.15	8939.3
900.4304	1629.8005	9415.85	8497.25
900.5725	1631.5525	9051	8139.65
900.7145	1633.3037	8698.35	7787.25
900.8566	1635.0542	8435.9	7524.8
900.9986	1636.804	8233.4	7319.35
901.1406	1638.553	8168.2	7162.95
901.2826	1640.3013	8002.85	7090.15
901.4245	1642.0488	7936.3	7019.3
901.5665	1643.7955	7939.4	7030.9
901.7085	1645.5416	7979.35	7069.75
901.8504	1647.2868	8093.5	7183.45
901.9923	1649.0313	8195.75	7280.2
902.1342	1650.7751	8335.6	7417.8
902.2761	1652.5181	8469.4	7558.15
902.4179	1654.2604	8661.2	7754.55
902.5598	1656.0019	8877.3	7966.25
902.7016	1657.7427	9144.25	8230.1
902.8434	1659.4828	9416	8500.55
902.9852	1661.222	9560.1	8645.35
903.127	1662.9606	9575.95	8662.7
903.2687	1664.6984	9336.85	8422
903.4105	1666.4354	8885.5	7966.25
903.5522	1668.1717	8329.7	7411.65
903.6939	1669.9072	7739.5	6818.95
903.8356	1671.642	7270.35	6350.6
903.9773	1673.3761	6831.55	5913.8
904.119	1675.1094	6508.4	5593.85
904.2606	1676.8419	6237.75	5323.75
904.4022	1678.5737	6032.95	5116.25
904.5439	1680.3048	5849.5	4932.55
904.6855	1682.0351	5700.35	4787.5
904.827	1683.7646	5600.2	4682.6
904.9686	1685.4934	5500.85	4586.2
905.1101	1687.2215	5423.9	4514.45
905.2517	1688.9488	5305.6	4394.3
905.3932	1690.6754	5268.95	4355.45
905.5347	1692.4012	5214.2	4300.4
905.6761	1694.1263	5169.8	4255.75
905.8176	1695.8506	5109.45	4195.6
905.9591	1697.5742	5062.4	4148.85
906.1005	1699.297	5018.9	4112.15
906.2419	1701.0191	4963.4	4058.4
906.3833	1702.7404	4946.65	4038.8
906.5246	1704.461	4896.9	3984.4
906.666	1706.1808	4859.7	3948.6
906.8073	1707.8999	4844.65	3935.75
906.9487	1709.6182	4805.15	3899.1
907.09	1711.3358	4785.7	3882.2
907.2313	1713.0527	4744.6	3843.5
907.3725	1714.7688	4712.6	3801.45
907.5138	1716.4841	4708.6	3797
907.655	1718.1987	4690.85	3778.7
907.7962	1719.9126	4661.25	3758.7
907.9374	1721.6257	4629.2	3723.65
908.0786	1723.338	4636.8	3735.15
908.2198	1725.0496	4609.5	3705.8
908.3609	1726.7605	4610.35	3703.95
908.502	1728.4706	4576.6	3672.65
908.6431	1730.18	4566.8	3660.35
908.7842	1731.8886	4566.3	3662.4
908.9253	1733.5964	4553.5	3628.2
909.0664	1735.3036	4534.35	3628.3
909.2074	1737.0099	4492.9	3587.9
909.3484	1738.7156	4490.1	3587.45
909.4894	1740.4204	4439	3531.65
909.6304	1742.1246	4428.8	3521.55
909.7714	1743.8279	4410.7	3505.8
909.9123	1745.5306	4400.05	3497.25
910.0532	1747.2325	4355.05	3451.85
910.1941	1748.9336	4343	3439.45
910.335	1750.634	4315.95	3407.1
910.4759	1752.3336	4311	3405.25
910.6168	1754.0325	4311.85	3411.65
910.7576	1755.7307	4274.8	3372.8
910.8984	1757.4281	4288.35	3384.7
911.0392	1759.1247	4293.85	3378.55
911.18	1760.8206	4283.2	3367.7
911.3208	1762.5158	4267.2	3354.7
911.4615	1764.2102	4255.95	3348.45
911.6022	1765.9039	4225.75	3322.75
911.7429	1767.5968	4210.05	3309.35
911.8836	1769.289	4203.9	3301.55
912.0243	1770.9804	4200.55	3294.9
912.1649	1772.6711	4191.05	3281.55
912.3056	1774.361	4180.6	3272.8
912.4462	1776.0502	4166.9	3259.65
912.5868	1777.7386	4157.95	3249.9
912.7274	1779.4263	4148.95	3245.35
912.8679	1781.1132	4151.95	3251.65
913.0084	1782.7994	4135	3234.05
913.149	1784.4849	4135.05	3236.55
913.2895	1786.1696	4122.9	3203.35
913.4299	1787.8535	4113.4	3213.7
913.5704	1789.5367	4084.9	3187.75
913.7108	1791.2192	4094.9	3197.7
913.8513	1792.9009	4089.1	3160.85
913.9917	1794.5818	4070.1	3164.2
914.132	1796.2621	4070.15	3165.95
914.2724	1797.9415	4059.7	3154.2
914.4128	1799.6202	4024.15	3117.15
914.5531	1801.2982	4034.1	3129.4
914.6934	1802.9755	4030.05	3122.35
914.8337	1804.6519	4008.35	3103.35
914.9739	1806.3277	4000.25	3096.65
915.1142	1808.0027	3982.15	3084
915.2544	1809.6769	3988.55	3091.9
915.3946	1811.3504	3997.7	3100.45
915.5348	1813.0231	3962.3	3062
915.675	1814.6951	3975.45	3074.85
915.8151	1816.3664	3975.55	3070.75
915.9553	1818.0369	3973.85	3069.35
916.0954	1819.7067	3941.6	3039.8
916.2355	1821.3757	3930.5	3023.6
916.3755	1823.044	3920.05	3013.2
916.5156	1824.7115	3924.6	3019.45
916.6556	1826.3783	3912.5	3010
916.7956	1828.0443	3890.9	2986.65
916.9356	1829.7096	3899.15	2996.7
917.0756	1831.3741	3904.15	2997.65
917.2155	1833.0379	3894.25	2994.35
917.3555	1834.701	3869.4	2970.7
917.4954	1836.3633	3858	2960.25
917.6353	1838.0248	3863.25	2962
917.7751	1839.6856	3860.25	2959.6
917.915	1841.3457	3858.35	2956.25
918.0548	1843.005	3837.2	2935.5
918.1946	1844.6636	3839.9	2938.9
918.3344	1846.3214	3836.05	2933.95
918.4742	1847.9785	3822.1	2917.25
918.6139	1849.6349	3830.7	2925.9
918.7537	1851.2904	3819.55	2904.15
918.8934	1852.9453	3812.95	2907.35
919.0331	1854.5994	3810.85	2901.9
919.1727	1856.2528	3822	2914.25
919.3124	1857.9054	3799.9	2896.7
919.452	1859.5572	3782.4	2881.7
919.5916	1861.2083	3783.85	2881.15
919.7312	1862.8587	3778.1	2873.6
919.8708	1864.5084	3777.95	2873.4
920.0103	1866.1572	3757.2	2852.95
920.1498	1867.8054	3742.6	2835.65
920.2893	1869.4528	3744.3	2840.1
920.4288	1871.0994	3737.25	2830.95
920.5683	1872.7453	3734.9	2828.6
920.7077	1874.3905	3731.2	2822.15
920.8471	1876.0349	3722.45	2818.6
920.9865	1877.6786	3702.7	2797.6
921.1259	1879.3215	3708.7	2805.1
921.2653	1880.9637	3695.55	2791.6
921.4046	1882.6051	3710.25	2809.95
921.5439	1884.2458	3689.35	2786.2
921.6832	1885.8858	3675.15	2774.5
921.8225	1887.525	3673.05	2770.45
921.9617	1889.1634	3658.95	2755.8
922.101	1890.8011	3640.75	2738.25
922.2402	1892.4381	3638.65	2734.15
922.3794	1894.0743	3641.9	2739.6
922.5185	1895.7098	3627.1	2723.95
922.6577	1897.3446	3626	2721.15
922.7968	1898.9786	3616	2707.05
922.9359	1900.6118	3607.4	2707.85
923.075	1902.2443	3592.7	2689.4
923.214	1903.8761	3586.5	2683.45
923.3531	1905.5071	3571.2	2669.2
923.4921	1907.1374	3569.8	2667.6
923.6311	1908.7669	3563.15	2662.95
923.77	1910.3957	3549.5	2648.15
923.909	1912.0237	3530.6	2631.6
924.0479	1913.651	3538.1	2634.75
924.1868	1915.2776	3513.15	2612.6
924.3257	1916.9034	3508.1	2609.65
924.4646	1918.5285	3499.7	2601.75
924.6034	1920.1528	3492.8	2591.95
924.7422	1921.7764	3491.15	2589.4
924.881	1923.3992	3482.45	2581.55
925.0198	1925.0213	3452.5	2549.8
925.1586	1926.6427	3454.1	2553.25
925.2973	1928.2633	3518.85	2534.8
925.436	1929.8832	3440.55	2534.9
925.5747	1931.5023	3410.2	2510.45
925.7134	1933.1207	3428.8	2528.25
925.852	1934.7383	3416.8	2516.5
925.9906	1936.3552	3404.6	2504.15
926.1292	1937.9714	3399.4	2497.6
926.2678	1939.5868	3394.5	2491.75
926.4064	1941.2015	3375.6	2473.25
926.5449	1942.8154	3378.5	2472.15
926.6834	1944.4286	3361.55	2458.45
926.8219	1946.041	3373.15	2446.4
926.9604	1947.6528	3341.5	2437.35
927.0988	1949.2637	3322.25	2423.85
927.2372	1950.8739	3326.9	2424.55
927.3756	1952.4834	3315.8	2413.95
927.514	1954.0921	3306.7	2406.65
927.6523	1955.7001	3315.75	2414.3
927.7907	1957.3074	3302.5	2404.5
927.929	1958.9139	3275.7	2380.5
928.0673	1960.5197	3287.75	2391.05
928.2055	1962.1247	3267.1	2370.4
928.3438	1963.729	3260.5	2366.05
928.482	1965.3325	3249.95	2350.05
928.6202	1966.9353	3231.8	2337.95
928.7584	1968.5374	3229.35	2331.35
928.8965	1970.1387	3224	2328.95
929.0346	1971.7393	3209.45	2310.55
929.1727	1973.3392	3207	2311.25
929.3108	1974.9383	3197	2303.35
929.4489	1976.5366	3176.85	2283.4
929.5869	1978.1342	3185.1	2293.3
929.7249	1979.7311	3182.3	2286.15
929.8629	1981.3273	3165.35	2273.05
930.0009	1982.9227	3151.2	2258
930.1388	1984.5173	3142.9	2250.8
930.2767	1986.1112	3153.1	2261
930.4146	1987.7044	3134.05	2241.55
930.5525	1989.2968	3135.7	2242.25
930.6904	1990.8885	3141	2244.6
930.8282	1992.4795	3125.95	2233.3
930.966	1994.0697	3113.7	2223.45
931.1038	1995.6592	3100.85	2205.6
931.2415	1997.2479	3101	2207.55
931.3793	1998.8359	3094.2	2203
931.517	2000.4232	3081.7	2195.35
931.6547	2002.0097	3064.9	2181
931.7923	2003.5955	3063.25	2175.8
931.93	2005.1805	3064.8	2176.55
932.0676	2006.7648	3058.75	2169.85
932.2052	2008.3484	3055.55	2167.45
932.3427	2009.9312	3066.3	2178.7
932.4803	2011.5133	3035.8	2151.3
932.6178	2013.0946	3024.8	2139.75
932.7553	2014.6752	3022.85	2135.55
932.8928	2016.2551	3032.25	2142.5
933.0302	2017.8342	3015.6	2126.65
933.1676	2019.4126	3006.45	2119.4
933.305	2020.9902	2988.45	2105.4
933.4424	2022.5672	2991.55	2106.45
933.5798	2024.1433	3001.5	2113.15
933.7171	2025.7188	2973.45	2091.3
933.8544	2027.2935	2978.5	2094
933.9917	2028.8674	2968.75	2085.05
934.129	2030.4406	2964.05	2080.5
934.2662	2032.0131	2940.05	2058.3
934.4034	2033.5849	2954.75	2070.95
934.5406	2035.1559	2936.3	2055
934.6778	2036.7261	2938.75	2052.2
934.8149	2038.2957	2938.85	2048.45
934.952	2039.8645	2944	2052.6
935.0891	2041.4325	2941.5	2048.25
935.2262	2042.9998	2915.6	2027.55
935.3632	2044.5664	2899.95	2013.05
935.5002	2046.1323	2900	2015.05
935.6372	2047.6974	2896.4	2012
935.7742	2049.2617	2898.55	2013.85
935.9111	2050.8254	2891.95	2001.55
936.048	2052.3883	2893.9	2004.5
936.1849	2053.9504	2878.25	1988.7
936.3218	2055.5118	2876.2	1986.1
936.4586	2057.0725	2862.75	1973.25
936.5955	2058.6325	2863.05	1978.75
936.7323	2060.1917	2856.4	1971.7
936.869	2061.7502	2847.05	1960.45
937.0058	2063.3079	2842.4	1959.95
937.1425	2064.8649	2824.3	1939
937.2792	2066.4212	2836.55	1950.05
937.4159	2067.9767	2840.4	1951.4
937.5525	2069.5315	2816.45	1929.15
937.6891	2071.0856	2819.05	1932.95
937.8257	2072.6389	2806.4	1919.8
937.9623	2074.1915	2795.6	1914.1
938.0989	2075.7433	2777.65	1891.75
938.2354	2077.2945	2788.6	1903.25
938.3719	2078.8448	2777.5	1887.5
938.5084	2080.3945	2767	1876.4
938.6448	2081.9434	2773.7	1880.85
938.7812	2083.4916	2774	1882.45
938.9176	2085.039	2771	1874.55
939.054	2086.5857	2758.35	1861.05
939.1903	2088.1317	2758.45	1861.05
939.3267	2089.677	2754.95	1856.5
939.463	2091.2215	2748.75	1852.1
939.5992	2092.7652	2743.5	1843.5
939.7355	2094.3083	2732.95	1837.2
939.8717	2095.8506	2734.45	1840.95
940.0079	2097.3921	2724.1	1833.3
940.1441	2098.933	2712.85	1820.9
940.2802	2100.4731	2722.3	1828.45
940.4163	2102.0124	2742.8	1832.8
940.5524	2103.5511	2725.5	1829.65
940.6885	2105.089	2702.95	1808.95
940.8245	2106.6261	2695.1	1803.6
940.9606	2108.1626	2700.1	1808.5
941.0965	2109.6983	2722.3	1803.3
941.2325	2111.2332	2695.95	1803.45
941.3684	2112.7675	2687.85	1794.95
941.5044	2114.301	2676.5	1779.8
941.6403	2115.8337	2677.75	1783.7
941.7761	2117.3657	2670.9	1775.8
941.912	2118.897	2658.25	1762.45
942.0478	2120.4276	2662.2	1761.85
942.1835	2121.9575	2665.4	1771.4
942.3193	2123.4866	2666.45	1769.35
942.455	2125.0149	2649.1	1752.25
942.5907	2126.5426	2636	1748.45
942.7264	2128.0695	2628.55	1738.1
942.8621	2129.5956	2640	1755.15
942.9977	2131.1211	2631.95	1738.85
943.1333	2132.6458	2623.75	1732.75
943.2689	2134.1698	2622.5	1728.95
943.4044	2135.693	2615.05	1714.6
943.54	2137.2155	2615.9	1717.5
943.6755	2138.7373	2602.6	1710.55
943.8109	2140.2584	2583.05	1693.9
943.9464	2141.7787	2584.15	1693.2
944.0818	2143.2983	2587.35	1703.45
944.2172	2144.8171	2558.8	1676.15
944.3526	2146.3353	2569.95	1680.65
944.4879	2147.8527	2561.8	1672.6
944.6232	2149.3693	2578.8	1685.9
944.7585	2150.8853	2567.4	1673.25
944.8938	2152.4005	2553.6	1658.7
945.029	2153.9149	2553.5	1656.3
945.1642	2155.4287	2551.2	1656.65
945.2994	2156.9417	2543.55	1651.2
945.4346	2158.454	2556.6	1665.6
945.5697	2159.9655	2533.75	1646.9
945.7048	2161.4764	2522.1	1634.4
945.8399	2162.9865	2524.8	1637.8
945.9749	2164.4958	2528.75	1639.35
946.1099	2166.0045	2508.85	1615.95
946.2449	2167.5124	2513	1621.9
946.3799	2169.0195	2508.35	1617.4
946.5148	2170.526	2511.3	1618.3
946.6498	2172.0317	2506.05	1615.65
946.7846	2173.5367	2492.3	1601.8
946.9195	2175.0409	2507	1617.95
947.0543	2176.5445	2492.25	1599.7
947.1891	2178.0473	2481.9	1587.1
947.3239	2179.5494	2479.1	1579.35
947.4587	2181.0507	2473.45	1579.2
947.5934	2182.5513	2475.1	1583.2
947.7281	2184.0512	2469.8	1574.25
947.8628	2185.5504	2468.3	1578.25
947.9974	2187.0488	2453.05	1565.6
948.132	2188.5465	2444.55	1558
948.2666	2190.0435	2444.4	1553.8
948.4012	2191.5397	2449.15	1555.65
948.5357	2193.0353	2441.9	1547.85
948.6702	2194.5301	2430.95	1534.05
948.8047	2196.0241	2434.25	1534.8
948.9392	2197.5175	2429.1	1530.95
949.0736	2199.0101	2418.5	1518.1
949.208	2200.502	2402	1510.85
949.3424	2201.9931	2398.2	1508.95
949.4767	2203.4835	2389.05	1499.9
949.611	2204.9733	2408	1503.8
949.7453	2206.4622	2388.8	1499.75
949.8796	2207.9505	2378.75	1489.4
950.0138	2209.438	2378.95	1494.55
950.148	2210.9248	2377.2	1489.15
950.2822	2212.4109	2377.5	1488.3
950.4164	2213.8962	2382.7	1484.3
950.5505	2215.3809	2373.35	1476.15
950.6846	2216.8648	2361.3	1462.6
950.8186	2218.3479	2365.4	1463.85
950.9527	2219.8304	2364.55	1461.55
951.0867	2221.3121	2352.4	1451.25
951.2207	2222.7931	2342.75	1446.3
951.3546	2224.2733	2342.2	1448.1
951.4886	2225.7529	2326.25	1431.2
951.6225	2227.2317	2330.5	1435.65
951.7563	2228.7098	2318	1430.2
951.8902	2230.1872	2313.2	1424.6
952.024	2231.6638	2309.9	1422.1
952.1578	2233.1397	2301.3	1408.6
952.2916	2234.6149	2304.6	1415.5
952.4253	2236.0894	2301.8	1410.4
952.559	2237.5632	2310.35	1408.35
952.6927	2239.0362	2290.55	1397.3
952.8263	2240.5085	2280.95	1390.65
952.9599	2241.9801	2276.9	1382.5
953.0935	2243.4509	2284.3	1389.5
953.2271	2244.921	2268.2	1372.4
953.3606	2246.3904	2262.6	1363.65
953.4941	2247.8591	2256.25	1359.5
953.6276	2249.3271	2260.95	1364.7
953.7611	2250.7943	2250	1354.35
953.8945	2252.2608	2234.45	1338.45
954.0279	2253.7266	2248.1	1353.8
954.1612	2255.1917	2241.15	1348.2
954.2946	2256.656	2236.95	1345.45
954.4279	2258.1197	2227.6	1336.15
954.5612	2259.5826	2216.5	1323.35
954.6944	2261.0447	2234.35	1339.25
954.8276	2262.5062	2234.95	1341.25
954.9608	2263.9669	2215.4	1317.8
955.094	2265.4269	2215.4	1323.65
955.2271	2266.8862	2204.2	1313.7
955.3602	2268.3448	2199.8	1307.75
955.4933	2269.8026	2194.45	1305.7
955.6264	2271.2598	2198.45	1308.75
955.7594	2272.7162	2196.35	1306.4
955.8924	2274.1719	2190.75	1296.95
956.0253	2275.6268	2192.6	1296.7
956.1583	2277.0811	2203	1307.25
956.2912	2278.5346	2188.05	1296.75
956.4241	2279.9874	2186.65	1296.85
956.5569	2281.4395	2176.65	1288
956.6897	2282.8908	2167.95	1272.5
956.8225	2284.3414	2177.45	1283.8
956.9553	2285.7914	2168.4	1276.35
957.088	2287.2406	2165.75	1271.25
957.2207	2288.689	2164.2	1268.4
957.3534	2290.1368	2159.5	1259.5
957.486	2291.5838	2166.4	1265.8
957.6186	2293.0302	2158.85	1257.5
957.7512	2294.4758	2151.4	1255.45
957.8838	2295.9206	2151.2	1256.5
958.0163	2297.3648	2150.15	1259.1
958.1488	2298.8082	2142.6	1249.3
958.2813	2300.251	2144.2	1250.55
958.4137	2301.693	2134	1234.95
958.5461	2303.1343	2137.65	1242.1
958.6785	2304.5748	2120.35	1226.2
958.8108	2306.0147	2123.9	1233.7
958.9432	2307.4538	2123.8	1232.9
959.0754	2308.8922	2114.95	1227.85
959.2077	2310.3299	2111.9	1221.8
959.3399	2311.7669	2104.8	1211.9
959.4721	2313.2031	2107.5	1214.4
959.6043	2314.6387	2101.8	1207
959.7365	2316.0735	2102.35	1207.05
959.8686	2317.5076	2092.8	1197.85
960.0006	2318.941	2091.65	1195.95
960.1327	2320.3737	2100.8	1203.55
960.2647	2321.8056	2096.6	1196.65
960.3967	2323.2369	2091.1	1197.25
960.5287	2324.6674	2077.45	1181.8
960.6606	2326.0972	2075.4	1179.9
960.7925	2327.5263	2070.1	1176.45
960.9244	2328.9547	2076.2	1179.65
961.0562	2330.3823	2077.85	1180.2
961.1881	2331.8092	2076.4	1174.7
961.3198	2333.2355	2067.15	1169.3
961.4516	2334.661	2058.9	1163.3
961.5833	2336.0858	2063.95	1166.55
961.715	2337.5098	2060.2	1165.2
961.8467	2338.9332	2054.1	1158.05
961.9783	2340.3558	2044.45	1148.05
962.1099	2341.7778	2042.7	1148.75
962.2415	2343.199	2042.6	1147.85
962.373	2344.6195	2035.15	1144.55
962.5045	2346.0393	2041.95	1149.8
962.636	2347.4583	2030.25	1137.8
962.7675	2348.8767	2029.55	1133.15
962.8989	2350.2943	2036	1140.35
963.0303	2351.7113	2032.3	1134.55
963.1617	2353.1275	2028.1	1127.9
963.293	2354.543	2027.15	1120.65
963.4243	2355.9578	2018.2	1119
963.5556	2357.3718	2014.45	1122.75
963.6868	2358.7852	2005.45	1109.6
963.818	2360.1978	1998.2	1105.05
963.9492	2361.6098	2007.4	1112.75
964.0803	2363.021	2003.65	1105
964.2114	2364.4315	1995.45	1100.05
964.3425	2365.8413	2012.65	1118.95
964.4736	2367.2504	1991.9	1099.85
964.6046	2368.6587	1982.1	1089.5
964.7356	2370.0664	1981.6	1088.5
964.8666	2371.4733	1974.6	1079.85
964.9975	2372.8795	1979.05	1082.8
965.1284	2374.285	1981	1084.4
965.2593	2375.6899	1979.8	1085.65
965.3901	2377.0939	1972	1077
965.5209	2378.4973	1963.95	1068.9
965.6517	2379.9	1961.15	1067.8
965.7825	2381.3019	1963.4	1069.1
965.9132	2382.7032	1956.55	1066.7
966.0439	2384.1037	1952.6	1062.85
966.1745	2385.5035	1953.35	1063.1
966.3051	2386.9027	1931.2	1043.7
966.4357	2388.3011	1942.95	1046.35
966.5663	2389.6987	1937.65	1048.6
966.6968	2391.0957	1936.25	1044.9
966.8273	2392.492	1921.6	1030.9
966.9578	2393.8876	1919.95	1027.65
967.0882	2395.2824	1917.15	1023.8
967.2186	2396.6765	1925.35	1031.05
967.349	2398.07	1908.25	1014.2
967.4793	2399.4627	1916.9	1022.95
967.6097	2400.8547	1907.25	1009.4
967.7399	2402.246	1910.45	1007.7
967.8702	2403.6366	1899.6	1006.2
968.0004	2405.0265	1893.45	999.7
968.1306	2406.4156	1896.9	998.7
968.2607	2407.8041	1897.35	1001.3
968.3909	2409.1918	1888.6	989.1
968.521	2410.5789	1888.15	992.8
968.651	2411.9652	1885.95	989.15
968.781	2413.3508	1879.15	982.15
968.911	2414.7358	1882.35	988.45
969.041	2416.12	1873.95	979.2
969.1709	2417.5035	1866.55	973.65
969.3008	2418.8863	1868.15	972.8
969.4307	2420.2684	1860	965.1
969.5606	2421.6497	1862.25	964.55
969.6904	2423.0304	1855.55	963.3
969.8201	2424.4104	1854.9	960.95
969.9499	2425.7896	1855	957
970.0796	2427.1682	1854.4	962.25
970.2093	2428.546	1853.5	955.45
970.3389	2429.9232	1848.3	950.9
970.4685	2431.2996	1848.95	954.1
970.5981	2432.6753	1848.65	953.15
970.7277	2434.0503	1839.8	943.6
970.8572	2435.4246	1834.1	940.8
970.9867	2436.7982	1831.75	935
971.1161	2438.1711	1829.95	936.5
971.2456	2439.5433	1833.7	936.3
971.375	2440.9148	1835.75	935.65
971.5043	2442.2856	1813.15	920.5
971.6336	2443.6557	1811.45	915.05
971.7629	2445.025	1817.1	922.2
971.8922	2446.3937	1801.6	906.4
972.0214	2447.7617	1812.2	915.55
972.1506	2449.1289	1807.6	913.55
972.2798	2450.4955	1817.2	919
972.4089	2451.8613	1800.15	906.85
972.538	2453.2265	1795	902.7
972.6671	2454.5909	1800.95	905.45
972.7961	2455.9546	1793.1	898.85
972.9251	2457.3177	1792.45	898.7
973.0541	2458.68	1781.15	885
973.1831	2460.0416	1788.55	892.65
973.312	2461.4025	1794.7	899.55
973.4408	2462.7627	1795.15	892.3
973.5697	2464.1222	1783.05	892.7
973.6985	2465.4811	1772.65	881.95
973.8273	2466.8392	1776.7	885.6
973.956	2468.1966	1781.8	884.25
974.0847	2469.5533	1780.3	882.7
974.2134	2470.9093	1774.1	881.15
974.3421	2472.2645	1779.9	885.35
974.4707	2473.6191	1771.75	879.1
974.5993	2474.973	1773.6	879.35
974.7278	2476.3262	1768.45	871.3
974.8563	2477.6787	1758.15	863.75
974.9848	2479.0305	1758.45	863.25
975.1132	2480.3816	1762	865.75
975.2417	2481.7319	1759.9	864.1
975.37	2483.0816	1753.1	860.35
975.4984	2484.4306	1750.9	857.9
975.6267	2485.7789	1747.75	858.3
975.755	2487.1264	1741.1	849.4
975.8833	2488.4733	1738.75	847.5
976.0115	2489.8195	1746.3	847.4
976.1397	2491.165	1745.8	852.5
976.2678	2492.5097	1736.95	842.45
976.3959	2493.8538	1727.3	835.2
976.524	2495.1972	1726.8	834.2
976.6521	2496.5398	1722.35	828.9
976.7801	2497.8818	1714.55	818.95
976.9081	2499.2231	1718.65	821.85
977.036	2500.5637	1714.15	816.7
977.164	2501.9035	1720.6	824.45
977.2918	2503.2427	1714.5	815.55
977.4197	2504.5812	1707.3	813.6
977.5475	2505.919	1708.35	811.6
977.6753	2507.256	1703	809.3
977.8031	2508.5924	1702.2	808.95
977.9308	2509.9281	1699.4	799.95
978.0585	2511.2631	1702.3	810.65
978.1861	2512.5974	1696.7	804.7
978.3137	2513.9309	1688.7	795.15
978.4413	2515.2638	1724.1	803.3
978.5689	2516.596	1697.05	802.7
978.6964	2517.9275	1683.6	787.75
978.8239	2519.2583	1690.6	795.3
978.9513	2520.5884	1679.55	783.6
979.0788	2521.9178	1673.3	779.75
979.2062	2523.2465	1677.85	785.8
979.3335	2524.5745	1671.65	781
979.4608	2525.9018	1676.25	783.6
979.5881	2527.2284	1668.35	776.8
979.7154	2528.5543	1670.2	778.75
979.8426	2529.8796	1667.5	774.45
979.9698	2531.2041	1662.8	768.3
980.0969	2532.5279	1665.65	772.95
980.224	2533.851	1667.3	774.05
980.3511	2535.1735	1669.25	776.65
980.4781	2536.4952	1668.7	775.5
980.6052	2537.8163	1662.3	767.5
980.7321	2539.1366	1662.9	767.8
980.8591	2540.4562	1660.05	762.65
980.986	2541.7752	1655.6	764.05
981.1129	2543.0935	1652.2	756.1
981.2397	2544.411	1659	763.25
981.3665	2545.7279	1656.2	762.55
981.4933	2547.0441	1656.1	759.7
981.62	2548.3596	1659.15	759.5
981.7467	2549.6744	1650.7	757.3
981.8734	2550.9885	1659.6	757.55
982.0001	2552.3019	1651.2	757.6
982.1267	2553.6146	1649.3	754.9
982.2532	2554.9266	1646.15	752.45
982.3798	2556.2379	1648.3	753.85
982.5063	2557.5485	1636.85	745.6
982.6327	2558.8585	1643.35	743.55
982.7592	2560.1677	1637.05	739.1
982.8856	2561.4762	1634.5	742.5
983.0119	2562.7841	1644.95	747.4
983.1383	2564.0913	1636.15	744.2
983.2646	2565.3977	1626.65	733
983.3908	2566.7035	1623.1	730.6
983.517	2568.0086	1637.25	740.1
983.6432	2569.313	1628.2	730.45
983.7694	2570.6167	1635.3	735.7
983.8955	2571.9197	1624.85	732.65
984.0216	2573.222	1625.55	727.45
984.1476	2574.5236	1624.9	731.45
984.2737	2575.8246	1618.55	723.1
984.3996	2577.1248	1621.4	726.35
984.5256	2578.4244	1624.4	729.4
984.6515	2579.7232	1615.4	723.1
984.7774	2581.0214	1645.65	725.35
984.9032	2582.3189	1611.85	717.3
985.029	2583.6157	1621.5	723.75
985.1548	2584.9118	1618.8	724.9
985.2806	2586.2072	1619.35	724.85
985.4063	2587.5019	1617.75	726.15
985.5319	2588.7959	1612.3	717.05
985.6576	2590.0893	1623.05	729.35
985.7832	2591.3819	1613.45	722.45
985.9087	2592.6739	1613.8	721.85
986.0343	2593.9652	1616.95	721.4
986.1597	2595.2557	1623.3	728.1
986.2852	2596.5456	1614.7	720.95
986.4106	2597.8348	1613.7	718.2
986.536	2599.1234	1614.45	723.75
986.6614	2600.4112	1612.05	719.75
986.7867	2601.6983	1609.5	715.35
986.912	2602.9848	1616.2	721.65
987.0372	2604.2705	1611	710.95
987.1624	2605.5556	1613.2	719.4
987.2876	2606.84	1608.65	715.1
987.4128	2608.1237	1608.45	717.25
987.5379	2609.4067	1595.4	703.15
987.6629	2610.689	1598.2	699.25
987.788	2611.9707	1595.9	699.45
987.913	2613.2516	1600.35	703.95
988.0379	2614.5319	1593	701.35
988.1629	2615.8115	1578	684.45
988.2878	2617.0903	1590.7	698.6
988.4126	2618.3685	1570.1	677
988.5375	2619.6461	1575.1	683.75
988.6622	2620.9229	1574.2	682.2
988.787	2622.199	1568.75	674.95
988.9117	2623.4745	1576	684.85
989.0364	2624.7493	1577.85	685
989.161	2626.0234	1574.45	685.25
989.2857	2627.2968	1570.1	679.95
989.4102	2628.5695	1563.65	669.9
989.5348	2629.8415	1558.15	668.35
989.6593	2631.1128	1565	671.45
989.7837	2632.3835	1567.95	677.7
989.9082	2633.6535	1556.2	664.8
990.0326	2634.9228	1562.55	672.2
990.1569	2636.1914	1554.75	665.15
990.2812	2637.4593	1552.95	658.85
990.4055	2638.7265	1559.7	667.8
990.5298	2639.9931	1554.65	663.8
990.654	2641.259	1554.05	661.25
990.7782	2642.5242	1553.1	662.85
990.9023	2643.7887	1543.35	651.7
991.0264	2645.0525	1539	649.3
991.1505	2646.3156	1541.95	651.35
991.2745	2647.5781	1536	645.05
991.3985	2648.8398	1533.95	643.6
991.5225	2650.1009	1563.75	636.05
991.6464	2651.3613	1534.85	644.85
991.7703	2652.6211	1536.05	645.25
991.8942	2653.8801	1524.2	634.1
992.018	2655.1385	1527.35	635.1
992.1418	2656.3961	1526.25	636.25
992.2655	2657.6531	1532.6	642.7
992.3892	2658.9094	1526.65	637.25
992.5129	2660.1651	1533.7	644.1
992.6366	2661.42	1533.5	646.15
992.7602	2662.6743	1533	642.2
992.8837	2663.9279	1529.65	640.55
993.0073	2665.1808	1531.8	643
993.1307	2666.433	1532.85	641.2
993.2542	2667.6846	1531.15	642.15
993.3776	2668.9354	1541.7	648.3
993.501	2670.1856	1539.5	648.35
993.6244	2671.4351	1545.2	656.45
993.7477	2672.6839	1546.95	656.1
993.8709	2673.9321	1544.25	654.5
993.9942	2675.1795	1551	658.75
994.1174	2676.4263	1547.7	657.8
994.2405	2677.6724	1546.75	659.6
994.3637	2678.9179	1552.85	661.85
994.4868	2680.1626	1545.45	655.25
994.6098	2681.4067	1546.05	654.65
994.7328	2682.6501	1546.85	656.9
994.8558	2683.8928	1542.95	652.3
994.9788	2685.1348	1532.1	641.65
995.1017	2686.3761	1529.85	640.45
995.2245	2687.6168	1525.25	635.95
995.3474	2688.8568	1529.15	639.9
995.4702	2690.0961	1514.1	626.45
995.5929	2691.3348	1515.85	625.4
995.7156	2692.5727	1513.3	623.95
995.8383	2693.81	1511.2	620.75
995.961	2695.0466	1508.2	619.9
996.0836	2696.2826	1513.8	621.85
996.2062	2697.5178	1525.1	630.85
996.3287	2698.7524	1513.25	622.85
996.4512	2699.9863	1523.2	632.85
996.5737	2701.2195	1515.3	623.6
996.6961	2702.452	1520.75	627.55
996.8185	2703.6839	1528.25	635.8
996.9408	2704.9151	1521.95	632.25
997.0631	2706.1456	1532.05	642.85
997.1854	2707.3755	1541.15	651.4
997.3077	2708.6046	1544.05	654.7
997.4299	2709.8331	1549	656.95
997.552	2711.0609	1551.8	660
997.6742	2712.2881	1559.5	670.55
997.7963	2713.5145	1571.65	679.5
997.9183	2714.7403	1582.3	693.05
998.0403	2715.9654	1588	699
998.1623	2717.1899	1609.3	704.15
998.2842	2718.4136	1600.3	709.45
998.4062	2719.6367	1615.5	726.05
998.528	2720.8591	1631.3	736.45
998.6498	2722.0809	1636.6	748.95
998.7716	2723.3019	1648.85	757.5
998.8934	2724.5223	1660.2	773
999.0151	2725.7421	1659.5	770.1
999.1368	2726.9611	1652.55	761.1
999.2584	2728.1795	1655.1	761.45
999.38	2729.3972	1650	762.2
999.5016	2730.6142	1653.2	751.55
999.6231	2731.8306	1620.6	729.6
999.7446	2733.0462	1608.7	717.95
999.8661	2734.2612	1589.45	694.8
999.9875	2735.4756	1577.7	685.65
1000.1089	2736.6892	1562.8	674.55
1000.2302	2737.9022	1546.95	659.25
1000.3515	2739.1145	1542.55	652.85
1000.4728	2740.3262	1532.45	636.4
1000.594	2741.5372	1510.35	621.55
1000.7152	2742.7475	1513.2	623.8
1000.8363	2743.9571	1500.2	610.9
1000.9575	2745.1661	1497.25	603.5
1001.0785	2746.3744	1476.85	588.8
1001.1996	2747.582	1473.1	584.4
1001.3206	2748.7889	1472.6	580.15
1001.4415	2749.9952	1452.5	564.05
1001.5625	2751.2008	1455.8	568.3
1001.6833	2752.4057	1447.85	556.6
1001.8042	2753.61	1435.4	546.6
1001.925	2754.8136	1439.2	548.45
1002.0458	2756.0165	1434.35	545.75
1002.1665	2757.2188	1435.6	548.65
1002.2872	2758.4204	1428.8	541.2
1002.4078	2759.6213	1431.25	542.15
1002.5285	2760.8215	1440.7	548.6
1002.649	2762.0211	1433.75	544.45
1002.7696	2763.22	1438.2	547.45
1002.8901	2764.4182	1430.25	541.8
1003.0106	2765.6158	1427.4	540.1
1003.131	2766.8127	1425.3	539.55
1003.2514	2768.009	1418.4	530.3
1003.3717	2769.2045	1412.75	523.4
1003.492	2770.3994	1414.3	525.55
1003.6123	2771.5936	1410.95	523.7
1003.7325	2772.7872	1413.65	526.85
1003.8527	2773.9801	1398.7	508.95
1003.9729	2775.1723	1419.1	513.9
1004.093	2776.3639	1403.45	516.5
1004.2131	2777.5548	1403.6	513.25
1004.3331	2778.745	1396.7	509.35
1004.4531	2779.9346	1402.2	517.05
1004.5731	2781.1235	1401.65	514.3
1004.693	2782.3117	1405.2	518.95
1004.8129	2783.4992	1402.85	514.5
1004.9328	2784.6861	1399.35	510.9
1005.0526	2785.8723	1405.8	516.05
1005.1723	2787.0579	1412.35	525
1005.2921	2788.2428	1411.25	524.15
1005.4118	2789.427	1423.7	538.3
1005.5314	2790.6106	1426.1	540.05
1005.651	2791.7935	1436.5	549.45
1005.7706	2792.9757	1431.6	543.9
1005.8902	2794.1573	1441.6	552.95
1006.0097	2795.3382	1447.95	560.55
1006.1291	2796.5184	1452.85	567.85
1006.2485	2797.698	1468.9	580.3
1006.3679	2798.8769	1486.35	598.75
1006.4873	2800.0551	1484.2	599.3
1006.6066	2801.2327	1501.45	611.9
1006.7258	2802.4096	1508.35	622.95
1006.8451	2803.5859	1524.1	637.75
1006.9642	2804.7615	1542.8	654.95
1007.0834	2805.9364	1554.45	669.55
1007.2025	2807.1106	1579.05	692.8
1007.3216	2808.2842	1597.4	707.8
1007.4406	2809.4572	1615.5	727.25
1007.5596	2810.6294	1652.25	763.6
1007.6785	2811.801	1684.95	799.9
1007.7975	2812.972	1722.85	838.3
1007.9163	2814.1423	1763.7	876.8
1008.0352	2815.3119	1800.05	913.15
1008.154	2816.4808	1853.75	968.45
1008.2727	2817.6491	1899.5	1013.95
1008.3914	2818.8167	1958.2	1073.85
1008.5101	2819.9837	2019	1127.7
1008.6288	2821.15	2064.85	1178.75
1008.7474	2822.3157	2120.2	1236.4
1008.8659	2823.4807	2179.9	1294.9
1008.9844	2824.645	2226.25	1336.1
1009.1029	2825.8086	2295.15	1412.2
1009.2214	2826.9716	2355.15	1469.7
1009.3398	2828.134	2415.65	1529.65
1009.4581	2829.2957	2454.5	1569.1
1009.5764	2830.4567	2493.35	1608.45
1009.6947	2831.617	2520.3	1633.2
1009.813	2832.7767	2534.35	1649.7
1009.9312	2833.9358	2524.5	1641.35
1010.0493	2835.0941	2524.65	1637
1010.1675	2836.2519	2504.75	1620.55
1010.2855	2837.4089	2491.4	1605.9
1010.4036	2838.5653	2467.35	1581.65
1010.5216	2839.7211	2453.4	1569.8
1010.6396	2840.8761	2463.35	1576.45
1010.7575	2842.0306	2460.15	1576.65
1010.8754	2843.1843	2482.2	1596
1010.9932	2844.3374	2512.65	1626.7
1011.111	2845.4899	2562.25	1677.95
1011.2288	2846.6417	2604.6	1721.15
1011.3465	2847.7928	2655.4	1769.9
1011.4642	2848.9433	2716.65	1831.75
1011.5818	2850.0931	2775.75	1890.1
1011.6995	2851.2422	2845.9	1959.2
1011.817	2852.3907	2888	2001.55
1011.9345	2853.5385	2944.8	2056.05
1012.052	2854.6857	3012.95	2100.7
1012.1695	2855.8323	3052.9	2168.9
1012.2869	2856.9781	3079.7	2193.3
1012.4042	2858.1233	3146.2	2262.85
1012.5216	2859.2679	3196.8	2313.4
1012.6389	2860.4118	3251.2	2364.95
1012.7561	2861.555	3294.25	2405.5
1012.8733	2862.6976	3332.85	2443.2
1012.9905	2863.8395	3365.1	2480.5
1013.1076	2864.9808	3403.55	2518.6
1013.2247	2866.1214	3431.55	2549.25
1013.3417	2867.2614	3431.1	2545.45
1013.4587	2868.4007	3463.45	2576.3
1013.5757	2869.5393	3472.5	2584.85
1013.6926	2870.6773	3489.7	2601.85
1013.8095	2871.8146	3512.75	2625.8
1013.9263	2872.9513	3500.5	2615.05
1014.0431	2874.0874	3492.3	2607.2
1014.1599	2875.2227	3465.8	2578.45
1014.2766	2876.3574	3466.1	2582.4
1014.3933	2877.4915	3434.3	2549.65
1014.51	2878.6249	3407	2521.95
1014.6266	2879.7577	3379	2492
1014.7431	2880.8898	3368.45	2471.75
1014.8596	2882.0212	3353.05	2469.65
1014.9761	2883.152	3336.75	2451.95
1015.0925	2884.2821	3319.05	2437.4
1015.2089	2885.4116	3331.55	2449.65
1015.3253	2886.5405	3327.6	2442.4
1015.4416	2887.6686	3335.35	2449.15
1015.5579	2888.7962	3337.3	2452.5
1015.6741	2889.923	3348.45	2463.7
1015.7903	2891.0493	3374.55	2488.65
1015.9065	2892.1748	3359.9	2475.05
1016.0226	2893.2997	3376.55	2491.45
1016.1387	2894.424	3381.7	2499.2
1016.2547	2895.5476	3383.8	2498.9
1016.3707	2896.6706	3427.05	2542.15
1016.4866	2897.7929	3455.8	2572.8
1016.6025	2898.9145	3464.6	2581.6
1016.7184	2900.0355	3493.85	2610.45
1016.8342	2901.1559	3516.55	2629.8
1016.95	2902.2756	3547.6	2659.9
1017.0658	2903.3946	3587.4	2704.3
1017.1815	2904.513	3611.4	2724.35
1017.2971	2905.6308	3630.7	2747.7
1017.4127	2906.7479	3659.15	2774.2
1017.5283	2907.8643	3686.2	2802.85
1017.6439	2908.9801	3698.15	2815.45
1017.7594	2910.0953	3700.55	2816.85
1017.8748	2911.2098	3702	2813.5
1017.9902	2912.3236	3697.05	2807.2
1018.1056	2913.4368	3681.9	2795.45
1018.2209	2914.5494	3656.35	2774.2
1018.3362	2915.6613	3638.75	2750.25
1018.4515	2916.7725	3592	2705.9
1018.5667	2917.8831	3572.55	2687.95
1018.6819	2918.9931	3546.4	2660.35
1018.797	2920.1024	3513.9	2630.8
1018.9121	2921.211	3483.3	2601
1019.0271	2922.319	3459.55	2578.65
1019.1421	2923.4264	3457.65	2574.15
1019.2571	2924.5331	3450.8	2569.6
1019.372	2925.6391	3447.25	2562.7
1019.4869	2926.7445	3452.65	2569.95
1019.6017	2927.8493	3458.2	2574.7
1019.7165	2928.9534	3463.85	2579.2
1019.8313	2930.0569	3460.45	2574.75
1019.946	2931.1597	3472.75	2587.55
1020.0606	2932.2619	3470.35	2586.45
1020.1753	2933.3634	3466.2	2583.7
1020.2899	2934.4643	3496.25	2605.15
1020.4044	2935.5645	3476.95	2586.95
1020.5189	2936.6641	3447.4	2558.1
1020.6334	2937.763	3419.85	2537.45
1020.7478	2938.8613	3385.8	2502.45
1020.8622	2939.959	3352.65	2462.65
1020.9765	2941.056	3292.85	2411.9
1021.0908	2942.1523	3220.05	2334.9
1021.2051	2943.248	3150.4	2267.6
1021.3193	2944.3431	3066.35	2184.4
1021.4334	2945.4375	2953.95	2071.7
1021.5476	2946.5313	2854.75	1973.8
1021.6617	2947.6244	2760.3	1877.1
1021.7757	2948.7169	2669.1	1785.7
1021.8897	2949.8087	2581.6	1697.85
1022.0037	2950.8999	2488.7	1604.7
1022.1176	2951.9904	2403.75	1521.1
1022.2315	2953.0803	2344.15	1459.05
1022.3453	2954.1696	2277.2	1395.05
1022.4591	2955.2582	2226.3	1343.1
1022.5728	2956.3462	2181.3	1298.85
1022.6865	2957.4335	2151.95	1268.75
1022.8002	2958.5202	2114.35	1228.95
1022.9138	2959.6062	2077.1	1192.55
1023.0274	2960.6916	2055.35	1173.75
1023.141	2961.7764	2042.65	1155.95
1023.2545	2962.8605	2026.45	1143.5
1023.3679	2963.9439	2017.2	1134.25
1023.4813	2965.0267	1999.5	1116.4
1023.5947	2966.1089	2010.65	1105.85
1023.708	2967.1905	1988.7	1105.55
1023.8213	2968.2714	1989.85	1107.7
1023.9346	2969.3516	1983.15	1101.8
1024.0478	2970.4312	1997.05	1105.8
1024.1609	2971.5102	1999.05	1117.15
1024.274	2972.5885	1989.8	1109.15
1024.3871	2973.6662	1997.4	1110.5
1024.5002	2974.7432	1994.95	1112.25
1024.6132	2975.8196	1998.35	1116.45
1024.7261	2976.8954	1988.35	1104.9
1024.839	2977.9705	1981.5	1100.15
1024.9519	2979.045	1964.25	1080.85
1025.0647	2980.1188	1953.65	1070.5
1025.1775	2981.192	1943.3	1060.3
1025.2902	2982.2645	1922.05	1038.65
1025.4029	2983.3364	1901.25	1019.05
1025.5156	2984.4077	1866.8	983.85
1025.6282	2985.4783	1849.1	961.2
1025.7407	2986.5483	1828.45	946.4
1025.8532	2987.6177	1784.25	902.35
1025.9657	2988.6864	1751	867.65
1026.0782	2989.7545	1720.45	838.7
1026.1906	2990.8219	1693.7	811.7
1026.3029	2991.8887	1653.5	770.75
1026.4152	2992.9548	1619	736.1
1026.5275	2994.0204	1594.35	714.95
1026.6397	2995.0852	1563.95	683.25
1026.7519	2996.1495	1538.45	655.3
1026.864	2997.2131	1504.95	622.85
1026.9761	2998.276	1495.85	614.25
1027.0882	2999.3383	1466.9	585.6
1027.2002	3000.4	1443.35	559.95
1027.3122	3001.4611	1426.65	545.55
1027.4241	3002.5215	1408	526.4
1027.536	3003.5812	1395.35	513.9
1027.6478	3004.6404	1380.35	497.95
1027.7596	3005.6989	1374.7	491.3
1027.8714	3006.7567	1351.65	467.65
1027.9831	3007.8139	1372.75	462.05
1028.0947	3008.8705	1334.85	453
1028.2064	3009.9264	1333.95	449.2
1028.3179	3010.9818	1311.55	431.15
1028.4295	3012.0364	1312.1	429.95
1028.541	3013.0905	1302.65	421.15
1028.6524	3014.1439	1297.15	415.25
1028.7638	3015.1966	1288.65	406.5
1028.8752	3016.2487	1288.4	407.2
1028.9865	3017.3002	1291.55	404.45
1029.0978	3018.3511	1279.25	400.95
1029.209	3019.4013	1273.7	392.3
1029.3202	3020.4509	1270.7	389.85
1029.4314	3021.4998	1274.6	392.4
1029.5425	3022.5481	1272.35	391.55
1029.6535	3023.5958	1264.5	382.7
1029.7645	3024.6428	1263.8	380.1
1029.8755	3025.6892	1268.9	387.55
1029.9864	3026.735	1266.6	382.65
1030.0973	3027.7802	1259.7	378.35
1030.2082	3028.8247	1263.4	383.05
1030.319	3029.8685	1262.4	379.75
1030.4297	3030.9118	1264.4	383.5
1030.5404	3031.9544	1269.8	388.5
1030.6511	3032.9963	1262.55	382.6
1030.7617	3034.0376	1264.45	383.15
1030.8723	3035.0783	1269.7	385.7
1030.9829	3036.1184	1273.6	390.4
1031.0934	3037.1578	1271.4	389.15
1031.2038	3038.1966	1272.4	391
1031.3142	3039.2348	1268.1	386.5
1031.4246	3040.2723	1284.45	393.25
1031.5349	3041.3092	1274.25	393.2
1031.6452	3042.3455	1278.25	398.65
1031.7554	3043.3811	1277.45	396.35
1031.8656	3044.4161	1275.7	393.5
1031.9758	3045.4505	1276.5	396.4
1032.0859	3046.4842	1275.4	393.65
1032.1959	3047.5173	1270	389.55
1032.3059	3048.5498	1267.4	386.55
1032.4159	3049.5816	1261.75	381.3
1032.5258	3050.6128	1262.2	380.1
1032.6357	3051.6434	1257	376.5
1032.7455	3052.6734	1255.35	373.65
1032.8553	3053.7027	1255.25	374.95
1032.9651	3054.7314	1247.65	366.8
1033.0748	3055.7594	1251.55	370.65
1033.1845	3056.7868	1255.7	374.1
1033.2941	3057.8136	1241.75	360.95
1033.4037	3058.8398	1236.35	356.85
1033.5132	3059.8653	1241.65	361.2
1033.6227	3060.8902	1242.85	361.65
1033.7321	3061.9145	1236.65	355.75
1033.8415	3062.9381	1231.35	349.6
1033.9509	3063.9612	1247.7	352.5
1034.0602	3064.9835	1232.25	351.6
1034.1694	3066.0053	1228.35	345.15
1034.2787	3067.0264	1228.1	348.2
1034.3878	3068.0469	1220.1	337.2
1034.497	3069.0668	1215.6	331.1
1034.6061	3070.086	1209.05	330.1
1034.7151	3071.1046	1204.8	322.7
1034.8241	3072.1226	1203.35	321.25
1034.9331	3073.1399	1202.55	322.7
1035.042	3074.1567	1189.85	308.8
1035.1508	3075.1727	1185.3	302.05
1035.2597	3076.1882	1176.8	295.5
1035.3684	3077.203	1169	288.4
1035.4772	3078.2173	1172.65	292.1
1035.5859	3079.2308	1164.45	279.85
1035.6945	3080.2438	1153.65	271.85
1035.8031	3081.2561	1147.65	265.8
1035.9117	3082.2678	1136.65	256.1
1036.0202	3083.2789	1131.5	251.85
1036.1286	3084.2893	1134.05	253.2
1036.2371	3085.2991	1125.35	243.55
1036.3454	3086.3083	1123.9	241.55
1036.4538	3087.3169	1116.95	234.75
1036.562	3088.3248	1109.2	227.5
1036.6703	3089.3321	1107.2	224.4
1036.7785	3090.3388	1099.5	220.3
1036.8866	3091.3449	1099.7	222.15
1036.9948	3092.3503	1099.2	213.9
1037.1028	3093.3551	1094.25	214.5
1037.2108	3094.3593	1089.05	210.15
1037.3188	3095.3629	1084.2	203.5
1037.4267	3096.3658	1080.25	197.8
1037.5346	3097.3681	1081.45	199.95
1037.6425	3098.3698	1077.45	196.6
1037.7503	3099.3708	1079.85	193.05
1037.858	3100.3713	1069	187.85
1037.9657	3101.3711	1066.35	185.4
1038.0734	3102.3702	1181.1	184.9
1038.181	3103.3688	1066.2	184.8
1038.2886	3104.3667	1059.15	178.15
1038.3961	3105.364	1057.75	179.1
1038.5036	3106.3607	1060.8	179.15
1038.611	3107.3568	1050.5	168.7
1038.7184	3108.3522	1053.2	174.5
1038.8257	3109.347	1049.55	168.5
1038.933	3110.3412	1055.05	169.5
1039.0403	3111.3348	1044.6	165.3
1039.1475	3112.3277	1041.95	163.25
1039.2547	3113.32	1041.35	161.55
1039.3618	3114.3117	1038.45	157.95
1039.4689	3115.3028	1040.35	159.85
1039.5759	3116.2932	1040.7	158
1039.6829	3117.2831	1038.25	153
1039.7898	3118.2723	1032.7	151.5
1039.8967	3119.2608	1032.35	152.1
1040.0035	3120.2488	1029.6	149.1
1040.1103	3121.2361	1029.1	149.6
1040.2171	3122.2229	1027.25	147.1
1040.3238	3123.209	1025.5	144.05
1040.4305	3124.1944	1025	145.1
1040.5371	3125.1793	1025.1	143.45
1040.6437	3126.1635	1015.65	138.35
1040.7502	3127.1471	1019.45	140.15
1040.8567	3128.1301	1022.25	144.95
1040.9631	3129.1125	1016.45	138.15
1041.0695	3130.0942	1017.7	136.05
1041.1759	3131.0753	1019.65	131.55
1041.2822	3132.0558	1019.35	135.65
1041.3884	3133.0357	1009.3	129.95
1041.4946	3134.015	1011.95	129.75
1041.6008	3134.9936	1012.1	130.85
1041.7069	3135.9716	1029.75	129.15
1041.813	3136.949	1006.75	126.35
1041.919	3137.9258	1028.6	131.3
1042.025	3138.902	1009.45	124.25
1042.1309	3139.8775	1008.2	128.65
1042.2368	3140.8524	1002.65	122.1
1042.3427	3141.8267	1005.3	123.85
1042.4485	3142.8004	1002.7	121.6
1042.5542	3143.7735	1004.95	119.6
1042.6599	3144.7459	1004.05	123.55
1042.7656	3145.7178	1000.9	118.55
1042.8712	3146.689	995.55	116.4
1042.9768	3147.6596	997.5	113.4
1043.0823	3148.6295	995.05	116.15
1043.1878	3149.5989	996.95	118
1043.2932	3150.5676	991.7	115
1043.3986	3151.5357	991.7	115.6
1043.5039	3152.5032	991.25	112.25
1043.6092	3153.4701	988.2	109.95
1043.7145	3154.4364	992.05	110.9
1043.8197	3155.402	986.85	108.4
1043.9248	3156.367	991.25	109.8
1044.03	3157.3315	1020.65	104.5
1044.135	3158.2952	986.7	107.05
1044.24	3159.2584	986.9	108.05
1044.345	3160.221	986.35	105.3
1044.4499	3161.1829	985.15	106.7
1044.5548	3162.1442	985.65	105.7
1044.6596	3163.105	983.6	104.55
1044.7644	3164.065	986.25	107.8
1044.8692	3165.0245	983.7	102.8
1044.9739	3165.9834	976.85	99.05
1045.0785	3166.9416	982.4	103.15
1045.1831	3167.8993	979.5	99.85
1045.2877	3168.8563	981.25	102.15
1045.3922	3169.8127	977.5	98.2
1045.4966	3170.7684	978.2	98.65
1045.6011	3171.7236	981.25	99.1
1045.7054	3172.6782	978.3	101.15
1045.8098	3173.6321	979.15	97.8
1045.914	3174.5854	979.2	95.6
1046.0183	3175.5381	976.35	96
1046.1224	3176.4902	973.2	94.75
1046.2266	3177.4417	972.85	94.9
1046.3307	3178.3926	972.35	93.6
1046.4347	3179.3428	971.65	91.45
1046.5387	3180.2924	972.55	94.15
1046.6427	3181.2415	971.05	90.3
1046.7466	3182.1899	972.9	91.15
1046.8504	3183.1377	969	90.2
1046.9542	3184.0848	976.85	95.15
1047.058	3185.0314	968.25	89.15
1047.1617	3185.9773	969.95	89.9
1047.2654	3186.9227	970.3	91
1047.369	3187.8674	966.4	88.3
1047.4726	3188.8115	971.35	86.8
1047.5761	3189.755	964.95	85.25
1047.6796	3190.6979	963.9	85.75
1047.783	3191.6402	962	84.8
1047.8864	3192.5818	961.9	82.4
1047.9898	3193.5229	968	82.95
1048.0931	3194.4633	961.6	83.85
1048.1963	3195.4031	965.65	86.3
1048.2995	3196.3423	959.95	80.3
1048.4027	3197.2809	960.7	83.05
1048.5058	3198.2189	960.8	79
1048.6089	3199.1563	979.75	82.15
1048.7119	3200.0931	961.2	81.85
1048.8148	3201.0292	958	79.5
1048.9178	3201.9648	956.45	78.45
1049.0206	3202.8997	960.65	77.55
1049.1235	3203.834	957.7	80.05
1049.2262	3204.7677	958.4	79.75
1049.329	3205.7008	955.85	73.45
1049.4317	3206.6333	955.25	78.25
1049.5343	3207.5652	959	77.75
1049.6369	3208.4964	955.1	76.85
1049.7394	3209.4271	956.35	78.65
1049.8419	3210.3571	955.1	76
1049.9444	3211.2865	953.15	74.7
1050.0468	3212.2154	953.5	73.7
1050.1491	3213.1436	954.45	76.7
1050.2514	3214.0712	960.6	75.6
1050.3537	3214.9982	954.85	77.2
1050.4559	3215.9246	953.15	73.4
1050.5581	3216.8503	949.25	71
1050.6602	3217.7755	952.85	73.9
1050.7623	3218.7001	949.15	69.15
1050.8643	3219.624	950.45	73.65
1050.9663	3220.5473	951.1	72.1
1051.0682	3221.4701	950.05	69.15
1051.1701	3222.3922	954.05	73.4
1051.2719	3223.3137	948.35	70.6
1051.3737	3224.2346	952.05	74.2
1051.4754	3225.1549	944.7	66.35
1051.5771	3226.0746	948.45	69.75
1051.6788	3226.9937	945.95	66.9
1051.7804	3227.9121	943.65	67.15
1051.8819	3228.83	947.15	67.9
1051.9834	3229.7473	947.65	70.7
1052.0849	3230.6639	944.8	65.8
1052.1863	3231.5799	943.7	65.9
1052.2876	3232.4954	944.55	66.5
1052.3889	3233.4102	942.1	64.65
1052.4902	3234.3244	943	64.35
1052.5914	3235.238	942.1	62.45
1052.6926	3236.151	968.05	64.8
1052.7937	3237.0634	939.75	62.4
1052.8948	3237.9752	943.25	64.75
1052.9958	3238.8864	940.8	62
1053.0968	3239.797	941.8	63.65
1053.1977	3240.7069	941.6	62.9
1053.2986	3241.6163	941.15	61.7
1053.3994	3242.5251	940.75	63.15
1053.5002	3243.4332	934.45	55.9
1053.6009	3244.3408	939	60.5
1053.7016	3245.2477	940.3	62.1
1053.8022	3246.154	938.6	58.85
1053.9028	3247.0598	936.25	54.9
1054.0034	3247.9649	934.8	55.5
1054.1039	3248.8694	937.6	58.4
1054.2043	3249.7733	933.2	56.15
1054.3047	3250.6766	932.7	52.7
1054.4051	3251.5793	936.9	57.15
1054.5054	3252.4814	932.25	55.65
1054.6056	3253.3829	933.2	57
1054.7058	3254.2838	934.7	57.4
1054.806	3255.1841	931	54.1
1054.9061	3256.0838	934.65	55.9
1055.0061	3256.9829	928.75	51.1
1055.1062	3257.8814	933	52.55
1055.2061	3258.7792	930.7	51.1
1055.306	3259.6765	930.35	50.05
1055.4059	3260.5731	928.85	50.75
1055.5057	3261.4692	928.7	50.15
1055.6055	3262.3647	926.2	46.9
1055.7052	3263.2595	931.2	52.65
1055.8049	3264.1538	926.05	47.7
1055.9045	3265.0474	927.85	49.2
1056.0041	3265.9404	924.6	47.15
1056.1036	3266.8329	922.15	43.6
1056.2031	3267.7247	933.6	43.9
1056.3025	3268.616	920.35	44.4
1056.4019	3269.5066	918.85	40.2
1056.5013	3270.3966	919.65	40.05
1056.6005	3271.286	916.35	40.15
