Software Version:	3.9.2.0
Unit SN:	10000200
Spectrometer SN:	6960
Date:	3/8/2024 12:49:28 PM
Data Line Index:	25
Spectral Points:	2048
Integration time (ms):	125
Averages:	20
Delay (ms):	30000
Sequence Number:	1
Processing:	dark subtract
Laser Power (mW):	300
Laser Current (mA):	823
Laser Diode Temp (C):	25
Laser Case Temp (C):	26.2
System Temp (C):	26.1
Spectrometer Temp (C):	24
CCD Temp (C):	0.007
Secondary Temp (C):	20.004
Heatsink Temp (C):	20.617
CCDPCB Temp (C):	36.329
SecondaryPCB Temp (C):	30.927

Wavelength	RamanShift	Raw Counts	Dark Subtracted
787.061	30.1047	452.3	42.7
787.2016	32.3739	454.5	47.45
787.3422	34.6426	456.6	46.2
787.4828	36.9109	464.4	54.5
787.6235	39.1787	472.65	57.05
787.7642	41.4461	480.3	61.9
787.9049	43.7131	488.6	66.4
788.0456	45.9796	497.85	73.2
788.1863	48.2456	507.7	78.85
788.3271	50.5112	513.65	79.25
788.4679	52.7764	525.4	89.45
788.6087	55.0411	534.55	94.95
788.7496	57.3054	546.85	101.25
788.8904	59.5692	555.55	108.5
789.0313	61.8326	564.75	115.6
789.1722	64.0955	574.05	120.15
789.3132	66.3579	595.15	136.35
789.4541	68.6199	612.05	149.3
789.5951	70.8815	644.4	177.3
789.7361	73.1426	730	258.95
789.8771	75.4032	938.1	462.05
790.0181	77.6634	1442.85	962.45
790.1592	79.9231	2648.45	2159.2
790.3003	82.1824	5242.75	4732.65
790.4414	84.4412	9864.6	9318.95
790.5825	86.6995	16174.25	15583.75
790.7237	88.9574	22275.05	21646
790.8648	91.2148	26395.75	25734.35
791.006	93.4717	28211.9	27535.25
791.1472	95.7282	28440.45	27753.65
791.2885	97.9842	28074.4	27387.45
791.4297	100.2398	27320.45	26628.8
791.571	102.4949	26462.9	25765.35
791.7123	104.7495	25494.65	24798.45
791.8536	107.0036	24507.95	23805.5
791.9949	109.2573	23680.1	22985.45
792.1363	111.5105	22928.2	22225.75
792.2777	113.7632	22168.75	21462.85
792.4191	116.0154	21578.1	20859.05
792.5605	118.2672	21142.5	20436.35
792.7019	120.5185	20695.35	19985.7
792.8434	122.7693	20397.6	19685.1
792.9849	125.0197	20097.9	19377.2
793.1264	127.2696	19825.3	19105.2
793.2679	129.519	19597.15	18874
793.4094	131.7679	19299.05	18573.4
793.551	134.0163	19024.05	18297.05
793.6926	136.2642	18667.4	17936.6
793.8342	138.5117	18338.6	17594.65
793.9758	140.7587	17926.95	17189
794.1175	143.0052	17600.15	16860.1
794.2591	145.2512	17258.9	16514
794.4008	147.4967	16963.9	16221.95
794.5425	149.7417	16701.8	15961.5
794.6842	151.9863	16527.9	15779.7
794.826	154.2304	16388.05	15634.45
794.9677	156.4739	16231.25	15476.25
795.1095	158.717	16118.05	15358.4
795.2513	160.9596	15915.85	15152.1
795.3931	163.2017	15663.65	14899.65
795.535	165.4433	15362	14594.45
795.6768	167.6844	15025.8	14257.45
795.8187	169.925	14684.35	13916.4
795.9606	172.1651	14313.75	13543.75
796.1025	174.4047	14073	13301.95
796.2445	176.6439	13813.3	13042
796.3864	178.8825	13582.15	12804.6
796.5284	181.1206	13455.65	12666.65
796.6704	183.3582	13287.25	12496.6
796.8124	185.5954	13214.1	12420.45
796.9544	187.832	13143.15	12350.8
797.0965	190.0681	13106.1	12309.1
797.2386	192.3037	13096.05	12296.25
797.3806	194.5388	13057	12256.05
797.5228	196.7734	13095.1	12291.25
797.6649	199.0075	13148	12337.4
797.807	201.2411	13287.3	12477.8
797.9492	203.4742	13358.05	12551.7
798.0914	205.7068	13547.05	12732.95
798.2336	207.9389	13633.7	12819.45
798.3758	210.1704	13793.85	12978.15
798.518	212.4015	13886.85	13084.15
798.6603	214.632	14056.3	13262.8
798.8025	216.862	14194	13402.8
798.9448	219.0915	14284.95	13493.9
799.0871	221.3205	14409.5	13610.75
799.2294	223.549	14513.6	13717.45
799.3718	225.777	14634.4	13840.85
799.5141	228.0044	14760.2	13963.3
799.6565	230.2314	14937.15	14135.7
799.7989	232.4578	15121.9	14322.5
799.9413	234.6837	15276.85	14469.2
800.0837	236.909	15351.55	14538.9
800.2262	239.1339	15352.45	14512.85
800.3687	241.3582	15294.55	14470.75
800.5111	243.582	15158.4	14305.15
800.6536	245.8053	15001.3	14161.05
800.7961	248.0281	14907.3	14076.6
800.9387	250.2503	14898.8	14059.25
801.0812	252.472	14896.45	14057
801.2238	254.6932	15035.85	14194.85
801.3664	256.9139	15098.65	14254.45
801.509	259.134	15296.45	14451.55
801.6516	261.3536	15505.8	14658.8
801.7942	263.5727	15795.55	14953.05
801.9369	265.7912	16006.35	15157.45
802.0795	268.0092	16295	15449.65
802.2222	270.2267	16465.8	15621.85
802.3649	272.4436	16596.2	15750.75
802.5076	274.6601	16626.55	15771.95
802.6504	276.8759	16523	15671.9
802.7931	279.0913	16419.95	15565.8
802.9359	281.3061	16296.45	15442.9
803.0787	283.5204	16223.3	15362.45
803.2215	285.7341	16204.6	15339.15
803.3643	287.9473	16244.2	15369.5
803.5071	290.16	16324.65	15459.3
803.6499	292.3721	16478.1	15622.45
803.7928	294.5837	16702.6	15836.2
803.9357	296.7947	16933.75	16071.95
804.0786	299.0052	17114.75	16256.95
804.2215	301.2152	17058.15	16193
804.3644	303.4246	16861.5	16001
804.5074	305.6334	16462.35	15604.3
804.6503	307.8418	16059.25	15198.25
804.7933	310.0495	15624.9	14763.5
804.9363	312.2568	15217.2	14349.95
805.0793	314.4635	14822.4	13956.95
805.2223	316.6696	14544.35	13671.35
805.3653	318.8752	14349.85	13473.75
805.5084	321.0802	14265.05	13391.75
805.6514	323.2847	14285.05	13413.1
805.7945	325.4887	14307.3	13433.55
805.9376	327.692	14316	13437.6
806.0807	329.8949	14223.8	13344.55
806.2238	332.0972	14069.4	13195.3
806.367	334.2989	13841.35	12957.25
806.5101	336.5001	13584.15	12704.25
806.6533	338.7007	13356.1	12475.4
806.7965	340.9008	13223.85	12335.25
806.9397	343.1003	13060.4	12178.7
807.0829	345.2992	12945.9	12060.15
807.2261	347.4976	12844.9	11957.6
807.3693	349.6955	12763.6	11871.2
807.5126	351.8927	12763.3	11872.2
807.6559	354.0895	12712.15	11812.75
807.7991	356.2856	12683.6	11792.75
807.9424	358.4812	12631.8	11743.25
808.0857	360.6763	12621.4	11727.6
808.2291	362.8707	12608.1	11709.3
808.3724	365.0646	12666.85	11770.05
808.5158	367.258	12699.05	11799.75
808.6591	369.4508	12755.55	11855.1
808.8025	371.643	12886.2	11984.4
808.9459	373.8346	12954.05	12047.5
809.0893	376.0257	13038.05	12129.9
809.2327	378.2162	13054.05	12147.8
809.3762	380.4062	13015.5	12109.4
809.5196	382.5956	12912.65	12006.85
809.6631	384.7844	12783	11889.65
809.8066	386.9726	12649.55	11751.45
809.9501	389.1603	12592.95	11699.8
810.0936	391.3474	12546.8	11626.45
810.2371	393.5339	12537.9	11634.3
810.3806	395.7199	12445.85	11549.85
810.5241	397.9052	12528.45	11633.9
810.6677	400.09	12585.7	11689.65
810.8113	402.2743	12734.45	11839.15
810.9548	404.4579	12866.9	11971.05
811.0984	406.641	13093.05	12190.45
811.2421	408.8235	13262.7	12364
811.3857	411.0054	13440.95	12537.6
811.5293	413.1868	13643.55	12732.8
811.673	415.3675	13742.4	12828.8
811.8166	417.5477	13792.8	12882.25
811.9603	419.7273	13729.15	12817.2
812.104	421.9064	13675	12759.95
812.2477	424.0848	13560.4	12648.5
812.3914	426.2627	13437.6	12527.3
812.5351	428.4399	13189	12273.5
812.6788	430.6166	12850.1	11935.3
812.8226	432.7928	12515.75	11599.85
812.9663	434.9683	12219.5	11304
813.1101	437.1432	11944.2	11030.45
813.2539	439.3176	11790.6	10885
813.3977	441.4914	11676.05	10778.65
813.5415	443.6645	11656.4	10751.7
813.6853	445.8371	11576.7	10667.1
813.8291	448.0091	11549.55	10636.9
813.973	450.1806	11542.6	10633.4
814.1168	452.3514	11523.55	10619.65
814.2607	454.5216	11587.2	10667
814.4046	456.6913	11560.45	10650.4
814.5485	458.8603	11577.9	10669
814.6924	461.0288	11620	10715.7
814.8363	463.1967	11612.3	10711
814.9802	465.3639	11665.15	10757.3
815.1241	467.5306	11655.6	10746.45
815.2681	469.6967	11672.95	10766.85
815.412	471.8622	11706.75	10805.2
815.556	474.0271	11774.7	10869.15
815.7	476.1914	11816.8	10902.95
815.844	478.3551	11829.15	10916.45
815.988	480.5182	11892.75	10985.65
816.132	482.6807	11969.1	11068.45
816.276	484.8426	12119.15	11230.4
816.4201	487.0039	12470.15	11571.7
816.5641	489.1647	12867.15	11959.05
816.7082	491.3248	13220.45	12308.6
816.8522	493.4843	13334.7	12429.5
816.9963	495.6432	13289.25	12384.9
817.1404	497.8015	13151.85	12237.05
817.2845	499.9592	13057.4	12132
817.4286	502.1163	12870.45	11948.65
817.5727	504.2728	12545.8	11630.05
817.7168	506.4287	12262.75	11363.35
817.861	508.5839	11933	11027.45
818.0051	510.7386	11731.85	10821.4
818.1493	512.8927	11590	10665.65
818.2935	515.0461	11596.5	10674.9
818.4377	517.199	11618	10695.4
818.5818	519.3512	11808.85	10886.9
818.726	521.5029	12080.75	11163.7
818.8703	523.6539	12288.35	11370.7
819.0145	525.8043	12399.85	11480.1
819.1587	527.9541	12302.3	11374
819.303	530.1033	12137.6	11216.25
819.4472	532.2519	12019.25	11099.05
819.5915	534.3999	11987.2	11063.3
819.7357	536.5472	12073.55	11151.7
819.88	538.694	12325.2	11410.25
820.0243	540.8401	12641.95	11716.85
820.1686	542.9856	12876.25	11945.75
820.3129	545.1305	12915.85	11979.1
820.4572	547.2748	12811.05	11867
820.6016	549.4185	12639.25	11697.8
820.7459	551.5615	12479.85	11535.65
820.8902	553.704	12473.3	11533.2
821.0346	555.8458	12491.4	11558.15
821.1789	557.987	12680.65	11748.2
821.3233	560.1276	12896.05	11965.3
821.4677	562.2675	13263.45	12333.6
821.6121	564.4069	13727.7	12796.5
821.7565	566.5456	14138.25	13208.05
821.9009	568.6837	14294.7	13365.55
822.0453	570.8212	13905.3	12976.45
822.1897	572.958	13237.75	12308.8
822.3342	575.0942	12641.05	11713.65
822.4786	577.2299	12202.75	11278.95
822.6231	579.3648	12001.85	11092.55
822.7675	581.4992	11946.25	11045.15
822.912	583.6329	12052.3	11152.8
823.0565	585.766	12218.1	11310.7
823.201	587.8985	12377.15	11462.65
823.3454	590.0304	12429.8	11487.1
823.4899	592.1616	12359.7	11427.9
823.6345	594.2922	12264.55	11328.3
823.779	596.4222	12072.2	11134.15
823.9235	598.5515	11886.1	10944.65
824.068	600.6802	11707.75	10768
824.2126	602.8083	11542.8	10611.45
824.3571	604.9358	11519.65	10585.45
824.5017	607.0626	11520	10578.15
824.6462	609.1888	11632.65	10683.35
824.7908	611.3144	11767.8	10824.55
824.9354	613.4393	11864.6	10921.75
825.08	615.5636	11959.15	11013.65
825.2246	617.6873	11976.1	11032.15
825.3692	619.8103	11879.7	10936.15
825.5138	621.9327	11704.05	10763.4
825.6584	624.0544	11544.9	10608.6
825.803	626.1756	11338.65	10404.3
825.9477	628.2961	11213.65	10269.45
826.0923	630.4159	11118.1	10175.05
826.237	632.5351	11074.05	10131.7
826.3816	634.6537	11057.9	10107.9
826.5263	636.7716	11086.25	10135
826.6709	638.8889	11071.15	10117.4
826.8156	641.0056	11085.6	10131.75
826.9603	643.1216	11064.05	10114.95
827.105	645.237	11051.3	10109.05
827.2497	647.3518	10943.85	10009.15
827.3944	649.4659	10944.8	10011.55
827.5391	651.5793	10905.85	9970.95
827.6838	653.6922	10827.45	9888.3
827.8285	655.8043	10839.2	9899.8
827.9733	657.9159	10813.8	9876.65
828.118	660.0268	10780.25	9838.3
828.2627	662.137	10778.65	9837.7
828.4075	664.2466	10813.85	9862.3
828.5522	666.3556	10793.3	9848.25
828.697	668.4639	10747.7	9805.25
828.8418	670.5716	10712.7	9773.4
828.9865	672.6786	10696.15	9749.25
829.1313	674.785	10646.15	9694.15
829.2761	676.8907	10629.35	9684.5
829.4209	678.9958	10648.1	9706.6
829.5657	681.1002	10633.1	9689.3
829.7105	683.204	10613.85	9653.55
829.8553	685.3072	10593.65	9637.6
830.0001	687.4097	10579.7	9631.65
830.1449	689.5115	10592.55	9640.45
830.2898	691.6127	10565.05	9621.2
830.4346	693.7132	10527.25	9585.55
830.5794	695.8131	10544.2	9584.55
830.7243	697.9123	10553.15	9600.4
830.8691	700.0109	10601.3	9644.45
831.014	702.1089	10620.55	9671.1
831.1588	704.2061	10663.2	9713.4
831.3037	706.3028	10719.6	9767.95
831.4486	708.3987	10752.25	9797.8
831.5935	710.4941	10779.15	9829.8
831.7383	712.5887	10841.85	9896.95
831.8832	714.6827	10967.2	10015.1
832.0281	716.7761	11111.15	10166.2
832.173	718.8688	11299.15	10351.4
832.3179	720.9608	11455.35	10496.75
832.4628	723.0522	11589.2	10626.45
832.6077	725.1429	11626.5	10668.9
832.7527	727.233	11664.15	10710.35
832.8976	729.3224	11715.1	10764.8
833.0425	731.4112	11596.05	10640.9
833.1874	733.4993	11429	10474.45
833.3324	735.5867	11237.9	10283.25
833.4773	737.6735	11017.8	10064.45
833.6222	739.7596	10830.45	9873.5
833.7672	741.845	10708	9753.25
833.9122	743.9298	10641.9	9684.7
834.0571	746.014	10600.65	9645.45
834.2021	748.0974	10598.9	9636.5
834.347	750.1802	10594.9	9630.05
834.492	752.2624	10618.25	9659
834.637	754.3439	10655.25	9696.15
834.782	756.4247	10758.85	9793.8
834.9269	758.5048	10947.85	9986.25
835.0719	760.5843	11254.2	10295.9
835.2169	762.6631	11648.2	10686.8
835.3619	764.7413	12230.2	11266.05
835.5069	766.8188	12922.75	11960.35
835.6519	768.8956	13515.65	12550.75
835.7969	770.9718	13892.25	12934.7
835.9419	773.0473	13845.65	12883.65
836.0869	775.1221	13554.25	12594.65
836.232	777.1962	13265.65	12303.5
836.377	779.2697	13172.55	12207.15
836.522	781.3426	13213.4	12244
836.667	783.4147	13340.4	12381.5
836.8121	785.4862	13457.1	12496.5
836.9571	787.557	13283.95	12321.55
837.1021	789.6271	12854.2	11890.15
837.2472	791.6966	12227.5	11262.8
837.3922	793.7654	11581.1	10618.8
837.5373	795.8335	11156.95	10198.65
837.6823	797.901	10865.15	9904.5
837.8274	799.9678	10712.25	9749.15
837.9724	802.0339	10615.65	9649.7
838.1175	804.0993	10586.55	9608.95
838.2626	806.1641	10548	9582.7
838.4076	808.2282	10455.3	9491.35
838.5527	810.2916	10379.8	9415.6
838.6978	812.3544	10306	9346.15
838.8428	814.4164	10262.95	9299.95
838.9879	816.4778	10291.1	9325.5
839.133	818.5385	10314.25	9344.15
839.2781	820.5986	10474.85	9506.1
839.4232	822.658	10716.7	9752.8
839.5682	824.7166	11020.55	10057.8
839.7133	826.7747	11505.3	10540.05
839.8584	828.832	12024.45	11055.6
840.0035	830.8886	12418.65	11453.25
840.1486	832.9446	12566.6	11595.8
840.2937	834.9999	12472.75	11508.05
840.4388	837.0545	12200.65	11233.7
840.5839	839.1085	11892	10924.4
840.729	841.1618	11571.75	10600.65
840.8741	843.2143	11336.25	10370.25
841.0192	845.2662	11133.55	10166.85
841.1643	847.3175	11021.85	10055.55
841.3095	849.368	10895.55	9926.3
841.4546	851.4179	10792.9	9826.55
841.5997	853.467	10687.05	9720.95
841.7448	855.5155	10623.7	9658.65
841.8899	857.5633	10534.45	9568.55
842.0351	859.6105	10460.15	9493.75
842.1802	861.6569	10359.9	9392.65
842.3253	863.7027	10310.95	9340.55
842.4704	865.7478	10255.4	9281.25
842.6156	867.7922	10184.9	9215.55
842.7607	869.8359	10181.35	9210.6
842.9058	871.8789	10252.85	9284.75
843.0509	873.9212	10360.6	9359.05
843.1961	875.9629	10411.6	9442
843.3412	878.0039	10541	9571.8
843.4863	880.0441	10659.45	9692.15
843.6315	882.0837	10707.35	9741.5
843.7766	884.1226	10717.15	9755.35
843.9218	886.1609	10754.6	9788.25
844.0669	888.1984	10862.85	9893.25
844.212	890.2352	10980.4	10008.95
844.3572	892.2714	10990.8	10015.65
844.5023	894.3069	10918.5	9946.75
844.6475	896.3416	10765.95	9799.25
844.7926	898.3757	10633.3	9661.25
844.9377	900.4091	10567.45	9595.85
845.0829	902.4418	10559.8	9581.7
845.228	904.4739	10576.2	9602.05
845.3732	906.5052	10618.55	9642.95
845.5183	908.5358	10583	9611.9
845.6635	910.5658	10456.95	9482
845.8086	912.595	10236.15	9265.1
845.9538	914.6236	10030.85	9058.95
846.0989	916.6515	9888	8911.8
846.2441	918.6786	9817.05	8841.2
846.3892	920.7051	9812.5	8835.8
846.5344	922.7309	9882	8910.7
846.6795	924.756	9899.55	8929.3
846.8246	926.7804	9996.75	9023.95
846.9698	928.8041	9968.15	8992.55
847.1149	930.8272	10021.65	9049.35
847.2601	932.8495	10005.3	9030.8
847.4052	934.8711	10015.45	9040.25
847.5504	936.892	9952.1	8980.5
847.6955	938.9123	9891.75	8919.9
847.8407	940.9318	9926.95	8954.15
847.9858	942.9506	9904.75	8932.1
848.131	944.9688	9865.2	8887.6
848.2761	946.9862	9756.45	8785
848.4213	949.003	9611.2	8635.3
848.5664	951.019	9530.8	8558.2
848.7115	953.0344	9471.15	8499.2
848.8567	955.0491	9477.35	8505.25
849.0018	957.063	9520.9	8547.85
849.147	959.0763	9615.7	8640.2
849.2921	961.0888	9624.2	8653.65
849.4373	963.1007	9693.85	8725.85
849.5824	965.1119	9715.9	8758.45
849.7275	967.1223	9713.95	8760.7
849.8727	969.1321	9668.15	8713.9
850.0178	971.1412	9696.1	8735.85
850.1629	973.1495	9679.85	8712
850.3081	975.1572	9740.05	8722.6
850.4532	977.1641	9716.05	8749.15
850.5983	979.1704	9696.8	8720.85
850.7435	981.1759	9674.95	8698.95
850.8886	983.1808	9693.9	8717.3
851.0337	985.1849	9721.1	8739.25
851.1788	987.1884	9793.45	8816.85
851.324	989.1911	9897.45	8923.85
851.4691	991.1932	9961.85	8990.1
851.6142	993.1945	9966.55	8996
851.7593	995.1951	9964.25	8995.2
851.9045	997.1951	9939.4	8959.5
852.0496	999.1943	9910.8	8939.9
852.1947	1001.1928	9886.85	8910.55
852.3398	1003.1906	9933.25	8959.65
852.4849	1005.1877	10048.5	9074.05
852.63	1007.1841	10125.75	9153.55
852.7751	1009.1798	10120.9	9151.6
852.9202	1011.1748	10039.75	9070.95
853.0653	1013.1691	9902.6	8933.15
853.2104	1015.1627	9698.8	8729.85
853.3555	1017.1556	9493.7	8526
853.5006	1019.1477	9360.15	8393.7
853.6457	1021.1392	9253.2	8292.9
853.7908	1023.1299	9243.45	8285.1
853.9359	1025.12	9240.85	8289.3
854.081	1027.1093	9309.55	8374.4
854.2261	1029.0979	9396.25	8466.6
854.3712	1031.0859	9494.5	8553.95
854.5163	1033.0731	9565.9	8613.95
854.6613	1035.0596	9481.8	8525
854.8064	1037.0454	9395.3	8436.15
854.9515	1039.0304	9295.65	8330.45
855.0965	1041.0148	9177.55	8209.05
855.2416	1042.9985	9084.5	8113.9
855.3867	1044.9814	9056.1	8090.75
855.5317	1046.9636	8974.2	8007.45
855.6768	1048.9452	8968.9	8006.75
855.8219	1050.926	9008.45	8045.65
855.9669	1052.9061	9038	8068.8
856.112	1054.8855	9053.4	8088.55
856.257	1056.8642	9117.75	8151.9
856.4021	1058.8421	9136.8	8161.25
856.5471	1060.8194	9192.9	8223.45
856.6921	1062.7959	9242.15	8275.6
856.8372	1064.7717	9304.1	8335.3
856.9822	1066.7469	9378.65	8409.9
857.1272	1068.7213	9438.65	8468.95
857.2723	1070.695	9490.45	8526.85
857.4173	1072.6679	9524.7	8559.45
857.5623	1074.6402	9553.45	8589.15
857.7073	1076.6117	9507.65	8534
857.8523	1078.5826	9420.7	8449.65
857.9973	1080.5527	9296.55	8327.6
858.1423	1082.5221	9209.1	8241.7
858.2873	1084.4908	9220.2	8253.65
858.4323	1086.4587	9252.55	8284.2
858.5773	1088.426	9298.85	8333.8
858.7223	1090.3925	9288.45	8315.9
858.8673	1092.3584	9315.55	8346.8
859.0123	1094.3235	9337.65	8373.8
859.1573	1096.2879	9400.35	8434.25
859.3022	1098.2515	9521.35	8554.65
859.4472	1100.2145	9689.85	8727.25
859.5922	1102.1767	9860.35	8894.15
859.7371	1104.1382	10101.95	9135.6
859.8821	1106.099	10362.95	9393.3
860.027	1108.0591	10570.6	9605.4
860.172	1110.0185	10744.45	9776.7
860.3169	1111.9771	10792.1	9821.9
860.4619	1113.9351	10714.8	9747
860.6068	1115.8923	10574.45	9609.9
860.7517	1117.8488	10410.9	9444.35
860.8967	1119.8045	10220.95	9253.75
861.0416	1121.7596	10079.9	9116.95
861.1865	1123.7139	9955.55	8993.6
861.3314	1125.6675	9936.45	8971.5
861.4763	1127.6204	9964.25	8996.35
861.6212	1129.5726	9930.85	8965.45
861.7661	1131.524	9828.55	8863.05
861.911	1133.4748	9689.7	8724.3
862.0559	1135.4248	9531.2	8564.55
862.2008	1137.3741	9380.6	8418.9
862.3457	1139.3226	9261.95	8296.7
862.4905	1141.2705	9192.5	8227.3
862.6354	1143.2176	9129	8157.5
862.7803	1145.164	9089.1	8121.25
862.9251	1147.1097	9018	8056.75
863.07	1149.0546	8943.6	7982.95
863.2148	1150.9989	8844.5	7882.4
863.3597	1152.9424	8754.1	7791
863.5045	1154.8852	8625.1	7662.45
863.6493	1156.8272	8590.5	7622.3
863.7942	1158.7686	8604.15	7631.25
863.939	1160.7092	8633.2	7667.1
864.0838	1162.6491	8674.9	7709.55
864.2286	1164.5883	8761.7	7797.6
864.3734	1166.5267	8892.15	7927.85
864.5182	1168.4644	9060.65	8096.75
864.663	1170.4014	9232.8	8266.95
864.8078	1172.3377	9495.8	8536.3
864.9526	1174.2732	9777.3	8816.3
865.0974	1176.2081	10230.5	9269.3
865.2421	1178.1421	10714.35	9746.1
865.3869	1180.0755	11235.3	10273.1
865.5317	1182.0082	11599.9	10639.35
865.6764	1183.9401	11741.7	10783.6
865.8212	1185.8713	11632.4	10678.6
865.9659	1187.8017	11307.75	10359.75
866.1106	1189.7315	10922.5	9985.75
866.2554	1191.6605	10502.25	9563.55
866.4001	1193.5888	10239.95	9296.45
866.5448	1195.5163	10078.9	9128.55
866.6895	1197.4432	9963.2	9010.25
866.8342	1199.3693	9932.75	8977.1
866.9789	1201.2947	9902.85	8935.45
867.1236	1203.2193	9879.6	8920.9
867.2683	1205.1432	9848.05	8888.3
867.413	1207.0664	9845.05	8889.15
867.5576	1208.9889	9830.6	8870.3
867.7023	1210.9106	9807.25	8845.3
867.847	1212.8316	9798.05	8839.7
867.9916	1214.7519	9879	8905.15
868.1363	1216.6715	9891.65	8933.75
868.2809	1218.5903	9960.65	8999.85
868.4255	1220.5084	10025.65	9068.95
868.5701	1222.4257	10103.85	9148.25
868.7148	1224.3424	10177.45	9222.1
868.8594	1226.2583	10296.15	9337.3
869.004	1228.1735	10410.2	9449.9
869.1486	1230.0879	10601.8	9641.05
869.2932	1232.0016	10768.15	9809.5
869.4377	1233.9146	10883.3	9926.75
869.5823	1235.8269	10916.3	9957.2
869.7269	1237.7384	10853.8	9897.15
869.8715	1239.6492	10743.25	9788.05
870.016	1241.5592	10720.95	9764.3
870.1606	1243.4686	10748.2	9790.3
870.3051	1245.3772	10933.95	9972.1
870.4496	1247.285	11119.05	10162.2
870.5941	1249.1922	11311.8	10354.1
870.7387	1251.0986	11434.25	10477.5
870.8832	1253.0042	11504.25	10547.1
871.0277	1254.9092	11638.3	10681.45
871.1722	1256.8134	11728.5	10777
871.3167	1258.7169	11888.65	10930.25
871.4611	1260.6196	12061.8	11104.3
871.6056	1262.5216	12287.15	11330.5
871.7501	1264.4229	12499.65	11542.95
871.8945	1266.3234	12683	11726.55
872.039	1268.2232	12827.6	11868.05
872.1834	1270.1223	12910.95	11954.25
872.3278	1272.0207	12902.85	11944.4
872.4723	1273.9183	12909.9	11947.85
872.6167	1275.8151	12846.45	11890.2
872.7611	1277.7113	12829.85	11873
872.9055	1279.6067	12901.5	11947.05
873.0499	1281.5014	13156.05	12197.2
873.1943	1283.3953	13494.1	12536.65
873.3386	1285.2885	13996.8	13042.2
873.483	1287.181	14520.65	13567.6
873.6274	1289.0727	14957.05	14006.3
873.7717	1290.9637	15282.85	14326.65
873.9161	1292.854	15506.25	14550.8
874.0604	1294.7435	15507.3	14552.15
874.2047	1296.6323	15439.25	14484.75
874.349	1298.5204	15293.6	14338.85
874.4933	1300.4077	15111.15	14153.95
874.6376	1302.2943	14862.85	13906.05
874.7819	1304.1802	14585.3	13629.9
874.9262	1306.0653	14137.95	13180.1
875.0705	1307.9497	13648.85	12694.6
875.2147	1309.8333	13233.8	12282.95
875.359	1311.7162	12907.25	11952.05
875.5032	1313.5984	12743.1	11783.6
875.6475	1315.4798	12604.8	11640.9
875.7917	1317.3605	12483.1	11523.55
875.9359	1319.2405	12392.7	11435.45
876.0801	1321.1197	12148.95	11190.6
876.2243	1322.9982	11847.9	10891.05
876.3685	1324.876	11553.5	10598.1
876.5127	1326.753	11298.5	10343.6
876.6569	1328.6293	11097.05	10141.25
876.801	1330.5048	10935.45	9974.35
876.9452	1332.3796	10745	9791.4
877.0893	1334.2537	10666.7	9686.45
877.2335	1336.127	10595.65	9643.05
877.3776	1337.9996	10551.25	9595.85
877.5217	1339.8714	10525.2	9569.3
877.6658	1341.7426	10548.45	9549.1
877.8099	1343.6129	10544	9583.7
877.954	1345.4826	10547.2	9591.95
878.0981	1347.3515	10534.4	9576.45
878.2422	1349.2196	10532.85	9571.9
878.3862	1351.087	10556.05	9598.3
878.5303	1352.9537	10631.85	9676.8
878.6743	1354.8197	10728.8	9775.65
878.8184	1356.6849	10916.25	9960.25
878.9624	1358.5493	11073.9	10119.4
879.1064	1360.4131	11244.05	10290.45
879.2504	1362.276	11361.15	10409.4
879.3944	1364.1383	11361.15	10410.15
879.5384	1365.9998	11211.35	10252.4
879.6823	1367.8606	10867.15	9912.1
879.8263	1369.7206	10493.1	9533.05
879.9702	1371.5799	10148.4	9189.65
880.1142	1373.4384	9897.65	8941.3
880.2581	1375.2962	9655.25	8700.5
880.402	1377.1533	9321.45	8371.15
880.5459	1379.0096	8975.6	8026.4
880.6898	1380.8652	8610.15	7661.25
880.8337	1382.7201	8317.35	7369.2
880.9776	1384.5742	8082	7130.1
881.1215	1386.4275	7889.45	6937.85
881.2653	1388.2802	7754.8	6801.65
881.4092	1390.132	7620.15	6664.9
881.553	1391.9832	7564.25	6612.4
881.6968	1393.8336	7457.35	6506
881.8406	1395.6832	7413.8	6459.9
881.9844	1397.5322	7375.6	6422.35
882.1282	1399.3803	7350.15	6393.55
882.272	1401.2278	7312.5	6361.55
882.4158	1403.0745	7317.4	6367.2
882.5595	1404.9204	7298.7	6351.15
882.7033	1406.7656	7296.2	6343.65
882.847	1408.6101	7306.75	6353.3
882.9908	1410.4538	7353.75	6402.6
883.1345	1412.2968	7395.8	6443.05
883.2782	1414.139	7460.1	6506.15
883.4219	1415.9805	7530.6	6576.8
883.5656	1417.8213	7613.15	6656.9
883.7092	1419.6613	7694.25	6745.95
883.8529	1421.5006	7864.6	6914.65
883.9965	1423.3391	8075.75	7125.75
884.1402	1425.1769	8372.25	7418.05
884.2838	1427.0139	8802.25	7852.9
884.4274	1428.8502	9334.5	8382.5
884.571	1430.6858	9890.45	8939.15
884.7146	1432.5206	10271	9322.3
884.8582	1434.3547	10516.8	9568.25
885.0018	1436.188	10531.7	9583.3
885.1453	1438.0206	10432.35	9485.8
885.2889	1439.8524	10293.95	9345.75
885.4324	1441.6835	10168.35	9219.75
885.5759	1443.5139	10057.9	9105.15
885.7194	1445.3435	10012.5	9064.15
885.8629	1447.1724	9959.4	9013.25
886.0064	1449.0005	9922.85	8976.4
886.1499	1450.8279	9888.4	8938.3
886.2933	1452.6545	9863.85	8918.3
886.4368	1454.4804	9895.9	8954.2
886.5802	1456.3056	9879.45	8926.6
886.7237	1458.13	9789	8844.75
886.8671	1459.9536	9627.35	8679.2
887.0105	1461.7766	9348.35	8402
887.1539	1463.5987	9041.75	8094.65
887.2972	1465.4202	8691.4	7743.3
887.4406	1467.2409	8330.4	7380.6
887.584	1469.0608	8089.75	7143.95
887.7273	1470.88	7796.55	6845.5
887.8706	1472.6984	7588	6637.7
888.0139	1474.5161	7378.55	6424.75
888.1572	1476.3331	7220.9	6276.1
888.3005	1478.1493	7112.1	6167.4
888.4438	1479.9648	7020.95	6070.05
888.5871	1481.7795	6927.1	5982.3
888.7303	1483.5935	6886.75	5940.3
888.8736	1485.4067	6833.85	5887.9
889.0168	1487.2192	6793.35	5842.1
889.16	1489.031	6775.85	5827.75
889.3032	1490.842	6712.9	5769.7
889.4464	1492.6522	6680.6	5734.8
889.5896	1494.4618	6639.6	5692.85
889.7327	1496.2705	6591.15	5648.95
889.8759	1498.0785	6575.6	5628.9
890.019	1499.8858	6529.05	5583
890.1622	1501.6924	6484.4	5538.5
890.3053	1503.4981	6453.15	5503.15
890.4484	1505.3032	6400.5	5455.35
890.5914	1507.1075	6374.15	5426.8
890.7345	1508.911	6322.05	5376.2
890.8776	1510.7138	6278.3	5333.6
891.0206	1512.5159	6214.8	5273.1
891.1637	1514.3172	6175.2	5234.65
891.3067	1516.1178	6142.2	5200.65
891.4497	1517.9176	6128.45	5184.1
891.5927	1519.7166	6075.25	5129.5
891.7357	1521.515	6074.3	5125.75
891.8786	1523.3126	6034.5	5091.4
892.0216	1525.1094	6008.6	5063.2
892.1645	1526.9055	5990.55	5050.2
892.3074	1528.7008	5955.15	5014.85
892.4503	1530.4954	5931.45	4992.3
892.5932	1532.2893	5926.2	4989.2
892.7361	1534.0824	5896.7	4956.35
892.879	1535.8747	5899.3	4958.7
893.0218	1537.6663	5885.95	4951.5
893.1647	1539.4572	5874.9	4935.3
893.3075	1541.2473	5897.8	4959.65
893.4503	1543.0367	5874.9	4935.9
893.5931	1544.8253	5919.35	4979.75
893.7359	1546.6132	5963.85	5022.95
893.8787	1548.4003	5986.3	5037.75
894.0214	1550.1867	6040.75	5096.35
894.1642	1551.9723	6094.8	5154.3
894.3069	1553.7572	6184.2	5248.55
894.4496	1555.5414	6272.35	5339.45
894.5923	1557.3247	6429.95	5499.7
894.735	1559.1074	6587.75	5658.05
894.8777	1560.8893	6766.15	5834.7
895.0204	1562.6705	6937.3	6008.55
895.163	1564.4509	7029.55	6099.45
895.3056	1566.2305	7114.3	6190.85
895.4482	1568.0094	7180.65	6256.95
895.5908	1569.7876	7157.45	6231.05
895.7334	1571.565	7159.55	6228.3
895.876	1573.3417	7137.9	6208.35
896.0186	1575.1176	7133.75	6206.65
896.1611	1576.8928	7116.1	6192.4
896.3036	1578.6672	7122.75	6203.2
896.4461	1580.4409	7116.5	6199
896.5886	1582.2138	7170.35	6249.2
896.7311	1583.986	7198.95	6273
896.8736	1585.7575	7299.95	6372.95
897.0161	1587.5282	7354.35	6434.75
897.1585	1589.2981	7478.75	6558.3
897.3009	1591.0673	7565.1	6648.4
897.4433	1592.8358	7647.7	6728.35
897.5857	1594.6035	7771.25	6849.3
897.7281	1596.3704	7848.6	6923
897.8705	1598.1366	7945.95	7025.15
898.0128	1599.9021	8044.95	7126.3
898.1551	1601.6668	8183.55	7262.25
898.2975	1603.4308	8296.85	7370.35
898.4398	1605.194	8474.65	7548.85
898.5821	1606.9564	8672.35	7757.55
898.7243	1608.7182	8968.35	8056.3
898.8666	1610.4791	9248.1	8341.8
899.0088	1612.2394	9543.75	8638.85
899.1511	1613.9988	9860.5	8953.75
899.2933	1615.7576	10142.35	9228.95
899.4355	1617.5156	10351.95	9427.6
899.5776	1619.2728	10456.6	9535.4
899.7198	1621.0293	10382.75	9461.05
899.862	1622.785	10158.5	9238.5
900.0041	1624.54	9849.95	8936.35
900.1462	1626.2942	9478.85	8564.6
900.2883	1628.0477	9055.5	8141
900.4304	1629.8005	8694.55	7778.65
900.5725	1631.5525	8351.05	7435.05
900.7145	1633.3037	8066	7153.6
900.8566	1635.0542	7851.15	6939.65
900.9986	1636.804	7664.6	6749.05
901.1406	1638.553	7639.45	6635.65
901.2826	1640.3013	7479.25	6564.6
901.4245	1642.0488	7460.7	6546.3
901.5665	1643.7955	7465.95	6556.45
901.7085	1645.5416	7528.5	6618.3
901.8504	1647.2868	7614.1	6700.15
901.9923	1649.0313	7732.05	6818.05
902.1342	1650.7751	7877.55	6962.85
902.2761	1652.5181	8031.2	7119.65
902.4179	1654.2604	8201.6	7290.3
902.5598	1656.0019	8439.75	7531.75
902.7016	1657.7427	8692.3	7780.05
902.8434	1659.4828	8996.45	8081.55
902.9852	1661.222	9132.5	8217.15
903.127	1662.9606	9109.4	8195.4
903.2687	1664.6984	8854.6	7934.9
903.4105	1666.4354	8443.1	7521.4
903.5522	1668.1717	7888.45	6971.85
903.6939	1669.9072	7307.65	6388.8
903.8356	1671.642	6835.35	5914.2
903.9773	1673.3761	6431.75	5516.3
904.119	1675.1094	6103.75	5188.8
904.2606	1676.8419	5854.7	4938.5
904.4022	1678.5737	5628.55	4711.45
904.5439	1680.3048	5471.65	4555.2
904.6855	1682.0351	5349	4434.95
904.827	1683.7646	5249.95	4332.05
904.9686	1685.4934	5148.1	4236.25
905.1101	1687.2215	5070.45	4159.15
905.2517	1688.9488	4986.35	4073.4
905.3932	1690.6754	4919.1	4007.4
905.5347	1692.4012	4874.2	3956.3
905.6761	1694.1263	4821.8	3904.8
905.8176	1695.8506	4798.7	3884.95
905.9591	1697.5742	4757.05	3846.5
906.1005	1699.297	4706.25	3799.7
906.2419	1701.0191	4671.05	3764.7
906.3833	1702.7404	4632.05	3725
906.5246	1704.461	4601.2	3688.75
906.666	1706.1808	4553	3637.5
906.8073	1707.8999	4521.55	3614.1
906.9487	1709.6182	4493.05	3589.65
907.09	1711.3358	4478.5	3574
907.2313	1713.0527	4463.35	3560.95
907.3725	1714.7688	4435.45	3523.05
907.5138	1716.4841	4411.85	3503.15
907.655	1718.1987	4400.45	3486.05
907.7962	1719.9126	4379.1	3480.8
907.9374	1721.6257	4362.6	3459.9
908.0786	1723.338	4328.4	3429.35
908.2198	1725.0496	4316.1	3412.7
908.3609	1726.7605	4325.2	3415.05
908.502	1728.4706	4293	3386.7
908.6431	1730.18	4269.55	3365.65
908.7842	1731.8886	4260.05	3358.15
908.9253	1733.5964	4261.65	3338
909.0664	1735.3036	4243.75	3334.75
909.2074	1737.0099	4218.25	3315.8
909.3484	1738.7156	4189	3287
909.4894	1740.4204	4161.25	3255.25
909.6304	1742.1246	4150.15	3243.75
909.7714	1743.8279	4140.85	3237.35
909.9123	1745.5306	4123.2	3217.05
910.0532	1747.2325	4097.5	3198
910.1941	1748.9336	4071.25	3168.3
910.335	1750.634	4050.5	3143.1
910.4759	1752.3336	4045.45	3140.15
910.6168	1754.0325	4025.4	3126.3
910.7576	1755.7307	4015.5	3113.65
910.8984	1757.4281	4016.8	3116.15
911.0392	1759.1247	4017.8	3102.4
911.18	1760.8206	3998.35	3085.9
911.3208	1762.5158	4011.35	3099.95
911.4615	1764.2102	3975.9	3070.9
911.6022	1765.9039	3969.5	3067.05
911.7429	1767.5968	3948.6	3048.25
911.8836	1769.289	3932.65	3030
912.0243	1770.9804	3928.7	3028.65
912.1649	1772.6711	3930.5	3018.7
912.3056	1774.361	3916.1	3011.05
912.4462	1776.0502	3892.4	2984.6
912.5868	1777.7386	3908.25	2999.3
912.7274	1779.4263	3886.85	2982.95
912.8679	1781.1132	3887.55	2987.3
913.0084	1782.7994	3861.6	2961.85
913.149	1784.4849	3856.55	2958.7
913.2895	1786.1696	3853.4	2937
913.4299	1787.8535	3844.65	2946.85
913.5704	1789.5367	3843.75	2946.35
913.7108	1791.2192	3831.6	2932.65
913.8513	1792.9009	3846.35	2918.7
913.9917	1794.5818	3823.55	2916.55
914.132	1796.2621	3812.55	2907.35
914.2724	1797.9415	3802.2	2896.65
914.4128	1799.6202	3792.85	2886.25
914.5531	1801.2982	3767.9	2863.55
914.6934	1802.9755	3774.95	2869.05
914.8337	1804.6519	3765.95	2860.05
914.9739	1806.3277	3745.85	2845.85
915.1142	1808.0027	3737.35	2839.05
915.2544	1809.6769	3735.4	2839.2
915.3946	1811.3504	3734.85	2838.4
915.5348	1813.0231	3721.15	2823.9
915.675	1814.6951	3712.05	2812.45
915.8151	1816.3664	3730.5	2827.2
915.9553	1818.0369	3718.45	2815.25
916.0954	1819.7067	3704.15	2804.8
916.2355	1821.3757	3716.45	2810.8
916.3755	1823.044	3674.9	2770.75
916.5156	1824.7115	3691.55	2785.8
916.6556	1826.3783	3673.55	2770.3
916.7956	1828.0443	3669.5	2767.6
916.9356	1829.7096	3670.55	2769.1
917.0756	1831.3741	3656.85	2751.05
917.2155	1833.0379	3628.7	2731.9
917.3555	1834.701	3621.2	2723.2
917.4954	1836.3633	3628.05	2730.75
917.6353	1838.0248	3616.4	2715.55
917.7751	1839.6856	3610.4	2711.85
917.915	1841.3457	3622.15	2721.65
918.0548	1843.005	3600.1	2698.15
918.1946	1844.6636	3607.85	2706.75
918.3344	1846.3214	3587.8	2686
918.4742	1847.9785	3589.15	2687.45
918.6139	1849.6349	3590.35	2686.55
918.7537	1851.2904	3587.1	2670.95
918.8934	1852.9453	3581.75	2676.15
919.0331	1854.5994	3571.55	2664.5
919.1727	1856.2528	3589.6	2678.25
919.3124	1857.9054	3572.4	2668.4
919.452	1859.5572	3546	2648
919.5916	1861.2083	3546.8	2644.8
919.7312	1862.8587	3559.35	2657.15
919.8708	1864.5084	3548.5	2643.15
920.0103	1866.1572	3535.75	2632.75
920.1498	1867.8054	3520.55	2612.1
920.2893	1869.4528	3508.4	2603.45
920.4288	1871.0994	3490.3	2587.85
920.5683	1872.7453	3486.9	2584
920.7077	1874.3905	3502.7	2594.8
920.8471	1876.0349	3493.05	2588.85
920.9865	1877.6786	3494.15	2589.2
921.1259	1879.3215	3484.55	2582.65
921.2653	1880.9637	3460.6	2558.6
921.4046	1882.6051	3469.45	2567.55
921.5439	1884.2458	3461.4	2556.95
921.6832	1885.8858	3455.35	2554.55
921.8225	1887.525	3450.7	2545.7
921.9617	1889.1634	3428.3	2525.2
922.101	1890.8011	3426.95	2522.5
922.2402	1892.4381	3417.65	2514.35
922.3794	1894.0743	3416.25	2513.6
922.5185	1895.7098	3405.55	2504.05
922.6577	1897.3446	3399.75	2499.05
922.7968	1898.9786	3392.95	2485.95
922.9359	1900.6118	3389.85	2490.45
923.075	1902.2443	3373.75	2473.8
923.214	1903.8761	3369.55	2469.6
923.3531	1905.5071	3350.45	2446.6
923.4921	1907.1374	3340.3	2436.3
923.6311	1908.7669	3354.6	2455.15
923.77	1910.3957	3352.35	2452.7
923.909	1912.0237	3315.45	2413.2
924.0479	1913.651	3317.4	2415.35
924.1868	1915.2776	3316.3	2416.95
924.3257	1916.9034	3296.75	2397.1
924.4646	1918.5285	3289.75	2389.9
924.6034	1920.1528	3274.35	2375.2
924.7422	1921.7764	3283.3	2382.35
924.881	1923.3992	3265.4	2363.2
925.0198	1925.0213	3262.9	2361.15
925.1586	1926.6427	3251.2	2353.7
925.2973	1928.2633	3306.35	2328.05
925.436	1929.8832	3259.6	2359.3
925.5747	1931.5023	3226.35	2325.9
925.7134	1933.1207	3217.85	2316.6
925.852	1934.7383	3214.5	2313.4
925.9906	1936.3552	3200.2	2299.6
926.1292	1937.9714	3196.2	2294.25
926.2678	1939.5868	3200.55	2295.65
926.4064	1941.2015	3180.3	2276.5
926.5449	1942.8154	3167.2	2266.3
926.6834	1944.4286	3164.2	2259.8
926.8219	1946.041	3163.9	2244.05
926.9604	1947.6528	3156.2	2247.75
927.0988	1949.2637	3138.2	2239.7
927.2372	1950.8739	3130.45	2230.35
927.3756	1952.4834	3123.35	2222.95
927.514	1954.0921	3118.7	2218.7
927.6523	1955.7001	3122.85	2222.6
927.7907	1957.3074	3099.75	2205.9
927.929	1958.9139	3101.3	2206.65
928.0673	1960.5197	3103.85	2206.45
928.2055	1962.1247	3084.1	2189.2
928.3438	1963.729	3062.15	2165.8
928.482	1965.3325	3061.35	2161
928.6202	1966.9353	3059.2	2163.3
928.7584	1968.5374	3045.3	2149.75
928.8965	1970.1387	3042.2	2147.05
929.0346	1971.7393	3038.35	2141.4
929.1727	1973.3392	3023.6	2130.45
929.3108	1974.9383	3009.55	2116.3
929.4489	1976.5366	3007.85	2115.1
929.5869	1978.1342	3009.6	2117.85
929.7249	1979.7311	2992.45	2098.35
929.8629	1981.3273	2995.85	2103.55
930.0009	1982.9227	2979	2089.6
930.1388	1984.5173	2977.85	2086.3
930.2767	1986.1112	2980.8	2089.2
930.4146	1987.7044	2972.1	2079.3
930.5525	1989.2968	2956	2061
930.6904	1990.8885	2943.95	2049.2
930.8282	1992.4795	2945.9	2055.9
930.966	1994.0697	2941.6	2051.75
931.1038	1995.6592	2926.35	2033.6
931.2415	1997.2479	2916.05	2023.15
931.3793	1998.8359	2928.55	2037.2
931.517	2000.4232	2906.95	2020.4
931.6547	2002.0097	2904.75	2020.9
931.7923	2003.5955	2897.2	2013.1
931.93	2005.1805	2890.85	2000.9
932.0676	2006.7648	2890.8	2002.3
932.2052	2008.3484	2876.3	1989.2
932.3427	2009.9312	2888.5	2002.8
932.4803	2011.5133	2851.55	1968.05
932.6178	2013.0946	2863.25	1976.9
932.7553	2014.6752	2859.15	1971.45
932.8928	2016.2551	2857.8	1967.8
933.0302	2017.8342	2863.25	1974.5
933.1676	2019.4126	2832.9	1949.5
933.305	2020.9902	2834.2	1951.35
933.4424	2022.5672	2835.2	1950.85
933.5798	2024.1433	2824.95	1936.1
933.7171	2025.7188	2810.75	1929.55
933.8544	2027.2935	2812.35	1928.45
933.9917	2028.8674	2804.55	1923.2
934.129	2030.4406	2805.7	1922.9
934.2662	2032.0131	2784.1	1902.8
934.4034	2033.5849	2775.35	1889.15
934.5406	2035.1559	2784.3	1901.7
934.6778	2036.7261	2778.75	1893.85
934.8149	2038.2957	2788.15	1897.85
934.952	2039.8645	2773.6	1883.2
935.0891	2041.4325	2774.65	1881.95
935.2262	2042.9998	2755.9	1867
935.3632	2044.5664	2769.35	1882.85
935.5002	2046.1323	2749.2	1866.1
935.6372	2047.6974	2739.3	1857.6
935.7742	2049.2617	2728.05	1845.15
935.9111	2050.8254	2749.2	1860.45
936.048	2052.3883	2744.15	1855.1
936.1849	2053.9504	2718.85	1828.85
936.3218	2055.5118	2724.9	1833.9
936.4586	2057.0725	2722.7	1831.05
936.5955	2058.6325	2716.05	1832.75
936.7323	2060.1917	2713.8	1831.05
936.869	2061.7502	2705.25	1818.55
937.0058	2063.3079	2691.2	1808.05
937.1425	2064.8649	2681.5	1794
937.2792	2066.4212	2691.4	1805.05
937.4159	2067.9767	2694.55	1808
937.5525	2069.5315	2681.5	1792.45
937.6891	2071.0856	2659.7	1775
937.8257	2072.6389	2658.5	1775.4
937.9623	2074.1915	2646.3	1765.4
938.0989	2075.7433	2641.3	1755.1
938.2354	2077.2945	2638.5	1752.3
938.3719	2078.8448	2630.3	1742.65
938.5084	2080.3945	2627.3	1738.85
938.6448	2081.9434	2635.05	1744.5
938.7812	2083.4916	2624.2	1732.05
938.9176	2085.039	2620.65	1725.5
939.054	2086.5857	2617.2	1721.25
939.1903	2088.1317	2613.95	1715.05
939.3267	2089.677	2614.75	1714.75
939.463	2091.2215	2602.7	1705.5
939.5992	2092.7652	2594.8	1697.4
939.7355	2094.3083	2598.4	1702.9
939.8717	2095.8506	2591.3	1697.3
940.0079	2097.3921	2586.8	1693.2
940.1441	2098.933	2577.55	1685.4
940.2802	2100.4731	2578.25	1686.35
940.4163	2102.0124	2589.65	1679.8
940.5524	2103.5511	2575.6	1680.75
940.6885	2105.089	2570.9	1677.6
940.8245	2106.6261	2560	1665.15
940.9606	2108.1626	2557.95	1667.75
941.0965	2109.6983	2583.95	1663.6
941.2325	2111.2332	2560.9	1668.8
941.3684	2112.7675	2539.9	1646.95
941.5044	2114.301	2540.6	1646.45
941.6403	2115.8337	2545.2	1653.95
941.7761	2117.3657	2528.05	1634.75
941.912	2118.897	2528.85	1633.25
942.0478	2120.4276	2535.15	1632.7
942.1835	2121.9575	2525.25	1632
942.3193	2123.4866	2509.45	1613.2
942.455	2125.0149	2518.3	1622.75
942.5907	2126.5426	2502.75	1614.3
942.7264	2128.0695	2508.95	1621.3
942.8621	2129.5956	2495.55	1611.9
942.9977	2131.1211	2490.65	1600.15
943.1333	2132.6458	2480.4	1591.5
943.2689	2134.1698	2489.45	1594.05
943.4044	2135.693	2481.5	1581.1
943.54	2137.2155	2470.65	1573.25
943.6755	2138.7373	2472.7	1581.25
943.8109	2140.2584	2453.8	1567.7
943.9464	2141.7787	2460.35	1572.6
944.0818	2143.2983	2445.3	1561.15
944.2172	2144.8171	2446.1	1562.85
944.3526	2146.3353	2446.15	1559.2
944.4879	2147.8527	2431.05	1542.3
944.6232	2149.3693	2433.2	1542.6
944.7585	2150.8853	2433.35	1536.55
944.8938	2152.4005	2428.1	1532.2
945.029	2153.9149	2428.25	1532.5
945.1642	2155.4287	2427.3	1533.7
945.2994	2156.9417	2420.8	1527.45
945.4346	2158.454	2400.25	1509.95
945.5697	2159.9655	2401.75	1513.9
945.7048	2161.4764	2408.7	1518.8
945.8399	2162.9865	2403.5	1514.6
945.9749	2164.4958	2390.65	1503.8
946.1099	2166.0045	2380.75	1489.1
946.2449	2167.5124	2391.5	1500.9
946.3799	2169.0195	2393.15	1500.95
946.5148	2170.526	2395.1	1500.55
946.6498	2172.0317	2377.5	1483.05
946.7846	2173.5367	2376	1486.15
946.9195	2175.0409	2363.85	1473.75
947.0543	2176.5445	2370.35	1477.35
947.1891	2178.0473	2352.75	1457.65
947.3239	2179.5494	2368.1	1470.95
947.4587	2181.0507	2347.85	1456.05
947.5934	2182.5513	2350.4	1458.65
947.7281	2184.0512	2350.2	1457
947.8628	2185.5504	2347.35	1456.7
947.9974	2187.0488	2333.45	1442.05
948.132	2188.5465	2324.3	1436.3
948.2666	2190.0435	2326.1	1438.15
948.4012	2191.5397	2321.3	1428.4
948.5357	2193.0353	2321.55	1426.9
948.6702	2194.5301	2311.85	1413
948.8047	2196.0241	2311.4	1411.9
948.9392	2197.5175	2318.95	1418.45
949.0736	2199.0101	2315.7	1412.55
949.208	2200.502	2305.55	1412.75
949.3424	2201.9931	2303.15	1413.3
949.4767	2203.4835	2282.45	1394.2
949.611	2204.9733	2303.5	1399.05
949.7453	2206.4622	2281.8	1396.35
949.8796	2207.9505	2274.1	1384.85
950.0138	2209.438	2257.15	1372.05
950.148	2210.9248	2260.85	1373.65
950.2822	2212.4109	2262.4	1371
950.4164	2213.8962	2257.9	1360.2
950.5505	2215.3809	2264.7	1364.9
950.6846	2216.8648	2255.7	1356.35
950.8186	2218.3479	2255	1351.85
950.9527	2219.8304	2255.9	1356.05
951.0867	2221.3121	2239.85	1338.95
951.2207	2222.7931	2232.25	1335.05
951.3546	2224.2733	2212.85	1315.6
951.4886	2225.7529	2224.35	1332.4
951.6225	2227.2317	2228.2	1335.5
951.7563	2228.7098	2221.4	1332.9
951.8902	2230.1872	2209.75	1320.4
952.024	2231.6638	2209.6	1322.6
952.1578	2233.1397	2193.35	1303.5
952.2916	2234.6149	2200.9	1313.45
952.4253	2236.0894	2196.75	1305.15
952.559	2237.5632	2194.2	1292.25
952.6927	2239.0362	2182.65	1291.15
952.8263	2240.5085	2177.8	1284.2
952.9599	2241.9801	2176.1	1284.05
953.0935	2243.4509	2173.8	1279.65
953.2271	2244.921	2169.55	1273.45
953.3606	2246.3904	2165.9	1267.95
953.4941	2247.8591	2158.95	1264.95
953.6276	2249.3271	2156.8	1262.9
953.7611	2250.7943	2145.9	1248.5
953.8945	2252.2608	2152.75	1258.55
954.0279	2253.7266	2141.85	1246.95
954.1612	2255.1917	2138.15	1246.75
954.2946	2256.656	2134	1242.6
954.4279	2258.1197	2125.7	1233.85
954.5612	2259.5826	2126.8	1236.5
954.6944	2261.0447	2133.8	1240.1
954.8276	2262.5062	2127.6	1233.65
954.9608	2263.9669	2119	1221.7
955.094	2265.4269	2118.6	1227.5
955.2271	2266.8862	2111.85	1220.25
955.3602	2268.3448	2115.65	1224.25
955.4933	2269.8026	2102.15	1214.1
955.6264	2271.2598	2102.8	1212.6
955.7594	2272.7162	2098.2	1206.4
955.8924	2274.1719	2102.05	1206.25
956.0253	2275.6268	2105.05	1208.1
956.1583	2277.0811	2098.25	1201.25
956.2912	2278.5346	2089.1	1200.2
956.4241	2279.9874	2077.75	1188.05
956.5569	2281.4395	2088.65	1199.7
956.6897	2282.8908	2080.25	1185.5
956.8225	2284.3414	2091.2	1196.2
956.9553	2285.7914	2078	1185.5
957.088	2287.2406	2079.2	1180.35
957.2207	2288.689	2072.35	1176.1
957.3534	2290.1368	2066.55	1166
957.486	2291.5838	2064.25	1161.1
957.6186	2293.0302	2065.35	1164.6
957.7512	2294.4758	2055.3	1157.5
957.8838	2295.9206	2049.85	1152.65
958.0163	2297.3648	2047.2	1155.25
958.1488	2298.8082	2058.75	1163.75
958.2813	2300.251	2055.6	1161.35
958.4137	2301.693	2053.2	1151.9
958.5461	2303.1343	2037.55	1141.55
958.6785	2304.5748	2032.8	1141.15
958.8108	2306.0147	2023.4	1133
958.9432	2307.4538	2033.8	1142.1
959.0754	2308.8922	2025.1	1138.05
959.2077	2310.3299	2019.25	1130.65
959.3399	2311.7669	2016.4	1126.2
959.4721	2313.2031	2016.7	1122
959.6043	2314.6387	2006.35	1111.35
959.7365	2316.0735	2013	1118.3
959.8686	2317.5076	2007.95	1114.15
960.0006	2318.941	2005.85	1110.05
960.1327	2320.3737	2012.55	1116.6
960.2647	2321.8056	1995.95	1097.45
960.3967	2323.2369	1992.7	1096.8
960.5287	2324.6674	1991.9	1097.3
960.6606	2326.0972	1984.7	1092.55
960.7925	2327.5263	1983.2	1090.25
960.9244	2328.9547	1983.7	1088.2
961.0562	2330.3823	1970.5	1072.55
961.1881	2331.8092	1981	1078.3
961.3198	2333.2355	1979	1080.95
961.4516	2334.661	1977.2	1079.1
961.5833	2336.0858	1968.55	1073.25
961.715	2337.5098	1972.1	1077.3
961.8467	2338.9332	1956.25	1059.55
961.9783	2340.3558	1955.85	1059.6
962.1099	2341.7778	1951.65	1061.75
962.2415	2343.199	1955.65	1063.65
962.373	2344.6195	1956.45	1064.6
962.5045	2346.0393	1952.4	1061.05
962.636	2347.4583	1963.15	1068.35
962.7675	2348.8767	1939.45	1043.05
962.8989	2350.2943	1937.6	1040.8
963.0303	2351.7113	1945.2	1045.65
963.1617	2353.1275	1937.85	1038.8
963.293	2354.543	1946.55	1040.6
963.4243	2355.9578	1937.85	1041.9
963.5556	2357.3718	1926.15	1034.4
963.6868	2358.7852	1930.35	1037.95
963.818	2360.1978	1932.5	1040.85
963.9492	2361.6098	1915.6	1022.35
964.0803	2363.021	1916.25	1018.5
964.2114	2364.4315	1924.1	1029.25
964.3425	2365.8413	1918.15	1024.7
964.4736	2367.2504	1906.75	1015.3
964.6046	2368.6587	1905.85	1016.15
964.7356	2370.0664	1894.35	1001
964.8666	2371.4733	1897.55	1004.35
964.9975	2372.8795	1893.95	999.85
965.1284	2374.285	1893.7	999.75
965.2593	2375.6899	1886.35	995.25
965.3901	2377.0939	1881.4	988.55
965.5209	2378.4973	1883.55	993.8
965.6517	2379.9	1874.95	979.95
965.7825	2381.3019	1883.45	991.25
965.9132	2382.7032	1866.2	977.75
966.0439	2384.1037	1865.65	977.25
966.1745	2385.5035	1865.4	976.4
966.3051	2386.9027	1861.05	974.5
966.4357	2388.3011	1868.2	976.2
966.5663	2389.6987	1860.35	966.85
966.6968	2391.0957	1855.95	967.3
966.8273	2392.492	1861.45	970.85
966.9578	2393.8876	1846	954.35
967.0882	2395.2824	1836.15	942.7
967.2186	2396.6765	1840.3	948.2
967.349	2398.07	1835.95	943.35
967.4793	2399.4627	1832.45	937.5
967.6097	2400.8547	1828.5	935.65
967.7399	2402.246	1837.8	938.85
967.8702	2403.6366	1824.15	930.85
968.0004	2405.0265	1820	929.25
968.1306	2406.4156	1819.8	924.4
968.2607	2407.8041	1819.3	923.05
968.3909	2409.1918	1812.8	917.45
968.521	2410.5789	1811.95	917.35
968.651	2411.9652	1816.75	920.2
968.781	2413.3508	1796.45	902.2
968.911	2414.7358	1801.5	906.35
969.041	2416.12	1804.4	912.8
969.1709	2417.5035	1799.4	908
969.3008	2418.8863	1798.55	904.35
969.4307	2420.2684	1793.85	899
969.5606	2421.6497	1780.75	886.55
969.6904	2423.0304	1779.6	886.55
969.8201	2424.4104	1791.1	897.2
969.9499	2425.7896	1787.1	889.65
970.0796	2427.1682	1781.5	891.4
970.2093	2428.546	1775.9	883.05
970.3389	2429.9232	1775.8	880.85
970.4685	2431.2996	1775.9	884.65
970.5981	2432.6753	1768.55	874.6
970.7277	2434.0503	1768.1	873.5
970.8572	2435.4246	1761.75	868.25
970.9867	2436.7982	1768.4	871.75
971.1161	2438.1711	1759.55	865.8
971.2456	2439.5433	1752.55	856.8
971.375	2440.9148	1760.05	861
971.5043	2442.2856	1750.65	857.65
971.6336	2443.6557	1746	849.5
971.7629	2445.025	1740.25	845.9
971.8922	2446.3937	1742.3	846.7
972.0214	2447.7617	1736.85	841.95
972.1506	2449.1289	1734.65	842.4
972.2798	2450.4955	1736.55	839.4
972.4089	2451.8613	1732.95	840.55
972.538	2453.2265	1733.45	840.25
972.6671	2454.5909	1726.45	832.45
972.7961	2455.9546	1723.9	831.1
972.9251	2457.3177	1729.95	835.95
973.0541	2458.68	1725.15	831.05
973.1831	2460.0416	1723.6	828.85
973.312	2461.4025	1722.2	828.45
973.4408	2462.7627	1726.2	823.45
973.5697	2464.1222	1711.35	820.1
973.6985	2465.4811	1719.9	827.65
973.8273	2466.8392	1706.95	814.85
973.956	2468.1966	1709.9	813.85
974.0847	2469.5533	1708.85	813.4
974.2134	2470.9093	1710.9	818.35
974.3421	2472.2645	1709	815.4
974.4707	2473.6191	1703.85	813.7
974.5993	2474.973	1707.2	813.9
974.7278	2476.3262	1703.9	808.7
974.8563	2477.6787	1690.9	796.8
974.9848	2479.0305	1690.35	798.8
975.1132	2480.3816	1692.35	797
975.2417	2481.7319	1696.4	805.4
975.37	2483.0816	1680.4	786.7
975.4984	2484.4306	1688.5	794.6
975.6267	2485.7789	1685.5	795.4
975.755	2487.1264	1683.3	788.25
975.8833	2488.4733	1676.8	785.85
976.0115	2489.8195	1681.7	784.65
976.1397	2491.165	1674.1	779.9
976.2678	2492.5097	1679.6	786
976.3959	2493.8538	1668.25	777.3
976.524	2495.1972	1662.35	770.1
976.6521	2496.5398	1662.55	765.65
976.7801	2497.8818	1665.55	770.25
976.9081	2499.2231	1660.35	764
977.036	2500.5637	1657.45	761.75
977.164	2501.9035	1647.85	753.55
977.2918	2503.2427	1652.9	756.25
977.4197	2504.5812	1650	757.1
977.5475	2505.919	1648.3	754.9
977.6753	2507.256	1639.7	747.35
977.8031	2508.5924	1639.15	745.3
977.9308	2509.9281	1647.45	748.25
978.0585	2511.2631	1631.25	738.4
978.1861	2512.5974	1634.25	743.15
978.3137	2513.9309	1637.25	747.2
978.4413	2515.2638	1655.8	735.85
978.5689	2516.596	1630.3	737.55
978.6964	2517.9275	1632.3	738.65
978.8239	2519.2583	1625.6	730.1
978.9513	2520.5884	1629.9	736.3
979.0788	2521.9178	1624.55	730.95
979.2062	2523.2465	1623.65	732.3
979.3335	2524.5745	1615.55	723.35
979.4608	2525.9018	1616.1	724.2
979.5881	2527.2284	1607.9	718.2
979.7154	2528.5543	1617.45	725.4
979.8426	2529.8796	1609	718
979.9698	2531.2041	1612.85	720.45
980.0969	2532.5279	1609.25	719.65
980.224	2533.851	1608.6	716.05
980.3511	2535.1735	1610.15	717.9
980.4781	2536.4952	1607.3	715.4
980.6052	2537.8163	1606.05	711.4
980.7321	2539.1366	1601.9	707.9
980.8591	2540.4562	1606.35	708.45
980.986	2541.7752	1593.15	699.45
981.1129	2543.0935	1601.95	709.25
981.2397	2544.411	1604	709.35
981.3665	2545.7279	1592.2	697.05
981.4933	2547.0441	1604.4	710.35
981.62	2548.3596	1607.8	709.35
981.7467	2549.6744	1605.6	714.1
981.8734	2550.9885	1593.9	700.95
982.0001	2552.3019	1593.65	701.6
982.1267	2553.6146	1586.65	693.4
982.2532	2554.9266	1586.2	694
982.3798	2556.2379	1587.05	692.55
982.5063	2557.5485	1589.4	697.95
982.6327	2558.8585	1582.8	681.75
982.7592	2560.1677	1578.05	680.15
982.8856	2561.4762	1582.2	687.05
983.0119	2562.7841	1581.95	685.05
983.1383	2564.0913	1581.7	690.65
983.2646	2565.3977	1576.25	683.65
983.3908	2566.7035	1571.8	677.25
983.517	2568.0086	1583	688.05
983.6432	2569.313	1571	676.6
983.7694	2570.6167	1572.85	675.7
983.8955	2571.9197	1572.65	679.45
984.0216	2573.222	1571.2	675.5
984.1476	2574.5236	1570.2	676.3
984.2737	2575.8246	1572.55	676.2
984.3996	2577.1248	1574.4	679.35
984.5256	2578.4244	1570.65	679.55
984.6515	2579.7232	1562.4	670.3
984.7774	2581.0214	1600.65	682
984.9032	2582.3189	1562.7	668
985.029	2583.6157	1567.9	669.65
985.1548	2584.9118	1572.25	679
985.2806	2586.2072	1569.9	677.75
985.4063	2587.5019	1567.35	673.05
985.5319	2588.7959	1564	672.4
985.6576	2590.0893	1571.6	677.05
985.7832	2591.3819	1562.3	671.45
985.9087	2592.6739	1562.55	674
986.0343	2593.9652	1569.1	675.5
986.1597	2595.2557	1566.3	672.6
986.2852	2596.5456	1563.9	669.15
986.4106	2597.8348	1561.3	670.15
986.536	2599.1234	1560.05	669.1
986.6614	2600.4112	1563.65	670.35
986.7867	2601.6983	1559.4	663.4
986.912	2602.9848	1559.5	669
987.0372	2604.2705	1569.3	669.6
987.1624	2605.5556	1565.1	672.25
987.2876	2606.84	1558.25	665.35
987.4128	2608.1237	1559.75	667.25
987.5379	2609.4067	1550.5	658.85
987.6629	2610.689	1558.45	658.95
987.788	2611.9707	1543.85	647.9
987.913	2613.2516	1549.1	653.7
988.0379	2614.5319	1532.3	641.65
988.1629	2615.8115	1543.4	651.15
988.2878	2617.0903	1533.75	643
988.4126	2618.3685	1538.6	645.2
988.5375	2619.6461	1520.2	628.65
988.6622	2620.9229	1534.1	641.55
988.787	2622.199	1536.8	644.7
988.9117	2623.4745	1521.5	630.3
989.0364	2624.7493	1522.65	630.7
989.161	2626.0234	1522.3	630.5
989.2857	2627.2968	1523.25	632.85
989.4102	2628.5695	1524.65	632.75
989.5348	2629.8415	1514.15	622.7
989.6593	2631.1128	1518.1	625.4
989.7837	2632.3835	1512.15	620.55
989.9082	2633.6535	1509.2	617.95
990.0326	2634.9228	1511.3	621.95
990.1569	2636.1914	1516.15	625.95
990.2812	2637.4593	1515.95	625.05
990.4055	2638.7265	1513.75	623.55
990.5298	2639.9931	1511.3	618.8
990.654	2641.259	1505.85	612.65
990.7782	2642.5242	1509.2	618.4
990.9023	2643.7887	1504.2	612.25
991.0264	2645.0525	1504.25	614.85
991.1505	2646.3156	1508.35	616.7
991.2745	2647.5781	1501.2	613.2
991.3985	2648.8398	1490.5	600.05
991.5225	2650.1009	1529.55	602.95
991.6464	2651.3613	1493.05	603.35
991.7703	2652.6211	1495.7	606.4
991.8942	2653.8801	1489	600.5
992.018	2655.1385	1485.95	593.7
992.1418	2656.3961	1489.3	599.7
992.2655	2657.6531	1495.7	605.6
992.3892	2658.9094	1490.6	600.4
992.5129	2660.1651	1488	602.7
992.6366	2661.42	1484.45	592.85
992.7602	2662.6743	1496.8	603.45
992.8837	2663.9279	1491.25	602.15
993.0073	2665.1808	1495.15	604.15
993.1307	2666.433	1502.15	610.05
993.2542	2667.6846	1493.85	603.3
993.3776	2668.9354	1505.05	613.45
993.501	2670.1856	1506.65	617.6
993.6244	2671.4351	1501.85	611.85
993.7477	2672.6839	1510	619.35
993.8709	2673.9321	1507.6	620.8
993.9942	2675.1795	1513.9	624.45
994.1174	2676.4263	1509.6	619.85
994.2405	2677.6724	1510.05	622.4
994.3637	2678.9179	1517.25	625.55
994.4868	2680.1626	1509.2	618.4
994.6098	2681.4067	1514.7	623.65
994.7328	2682.6501	1501.8	613.25
994.8558	2683.8928	1504.85	615.55
994.9788	2685.1348	1494.5	606.05
995.1017	2686.3761	1490.05	601.7
995.2245	2687.6168	1492.2	604.55
995.3474	2688.8568	1487.05	597.75
995.4702	2690.0961	1478.5	590.65
995.5929	2691.3348	1484.8	593.05
995.7156	2692.5727	1480.35	592.25
995.8383	2693.81	1481	594.25
995.961	2695.0466	1465.4	577.1
996.0836	2696.2826	1481.25	590.65
996.2062	2697.5178	1482.45	590.65
996.3287	2698.7524	1481.7	592.85
996.4512	2699.9863	1478.05	587.2
996.5737	2701.2195	1483.6	596.15
996.6961	2702.452	1485.3	593.95
996.8185	2703.6839	1495.05	606.55
996.9408	2704.9151	1491.8	604.75
997.0631	2706.1456	1494.4	605.25
997.1854	2707.3755	1501.45	612.15
997.3077	2708.6046	1509.95	617.35
997.4299	2709.8331	1507.8	618.35
997.552	2711.0609	1519.35	632.65
997.6742	2712.2881	1519.6	630.45
997.7963	2713.5145	1536.1	647.75
997.9183	2714.7403	1546.7	658.35
998.0403	2715.9654	1547.3	658.4
998.1623	2717.1899	1572.5	668.8
998.2842	2718.4136	1575.15	687.6
998.4062	2719.6367	1578.85	690.95
998.528	2720.8591	1600.35	703.05
998.6498	2722.0809	1600.95	709.85
998.7716	2723.3019	1607.85	715.65
998.8934	2724.5223	1621.5	729.75
999.0151	2725.7421	1623.9	735.85
999.1368	2726.9611	1643.5	753.2
999.2584	2728.1795	1628.15	734.6
999.38	2729.3972	1610.35	723.2
999.5016	2730.6142	1620.15	719.3
999.6231	2731.8306	1593.8	702.75
999.7446	2733.0462	1577.4	686.1
999.8661	2734.2612	1569.8	677.1
999.9875	2735.4756	1553.15	662.1
1000.1089	2736.6892	1534.15	645.05
1000.2302	2737.9022	1515.2	630.05
1000.3515	2739.1145	1501.15	613.95
1000.4728	2740.3262	1502.6	605.25
1000.594	2741.5372	1478.6	590.65
1000.7152	2742.7475	1471.25	583.7
1000.8363	2743.9571	1469.25	578
1000.9575	2745.1661	1466.7	574.35
1001.0785	2746.3744	1448.8	558.75
1001.1996	2747.582	1451.4	564.75
1001.3206	2748.7889	1432.25	541.25
1001.4415	2749.9952	1429.75	543.2
1001.5625	2751.2008	1422.3	533.55
1001.6833	2752.4057	1416.45	524.75
1001.8042	2753.61	1415.95	527.35
1001.925	2754.8136	1413.75	522.35
1002.0458	2756.0165	1404.6	515.95
1002.1665	2757.2188	1405.3	519.65
1002.2872	2758.4204	1405.95	518.15
1002.4078	2759.6213	1403.1	513.75
1002.5285	2760.8215	1410.3	519.25
1002.649	2762.0211	1406.65	518.3
1002.7696	2763.22	1405.55	514.8
1002.8901	2764.4182	1394.3	503.45
1003.0106	2765.6158	1402.75	515.45
1003.131	2766.8127	1386.95	500.15
1003.2514	2768.009	1390.35	502.05
1003.3717	2769.2045	1392.95	504
1003.492	2770.3994	1389.95	499.85
1003.6123	2771.5936	1388.45	502.05
1003.7325	2772.7872	1382.15	498.15
1003.8527	2773.9801	1377.5	486.6
1003.9729	2775.1723	1395.8	491.05
1004.093	2776.3639	1373.05	485.85
1004.2131	2777.5548	1376.55	488.6
1004.3331	2778.745	1375.3	487.65
1004.4531	2779.9346	1370.35	485.05
1004.5731	2781.1235	1382.35	495.25
1004.693	2782.3117	1377.05	489.95
1004.8129	2783.4992	1375.2	489.5
1004.9328	2784.6861	1383.1	498.55
1005.0526	2785.8723	1383.3	495.25
1005.1723	2787.0579	1389.7	501.8
1005.2921	2788.2428	1400.95	513.7
1005.4118	2789.427	1399.7	513.95
1005.5314	2790.6106	1402.25	516.65
1005.651	2791.7935	1406.6	516.7
1005.7706	2792.9757	1413.65	528.95
1005.8902	2794.1573	1421.05	531.15
1006.0097	2795.3382	1425.35	537.4
1006.1291	2796.5184	1438.45	554.6
1006.2485	2797.698	1451.9	563.2
1006.3679	2798.8769	1464.65	577.3
1006.4873	2800.0551	1472.2	586.3
1006.6066	2801.2327	1489.85	601.6
1006.7258	2802.4096	1491.45	607.9
1006.8451	2803.5859	1512.95	626.55
1006.9642	2804.7615	1529	641.1
1007.0834	2805.9364	1548.4	663.8
1007.2025	2807.1106	1567.4	680.4
1007.3216	2808.2842	1599.6	711.1
1007.4406	2809.4572	1614.3	727.4
1007.5596	2810.6294	1655.95	770.2
1007.6785	2811.801	1679.1	794.6
1007.7975	2812.972	1722.35	836.1
1007.9163	2814.1423	1760.25	876.7
1008.0352	2815.3119	1804	919.15
1008.154	2816.4808	1849.15	964.7
1008.2727	2817.6491	1902.95	1017.85
1008.3914	2818.8167	1942.85	1058
1008.5101	2819.9837	1998.4	1109.2
1008.6288	2821.15	2048.2	1162.8
1008.7474	2822.3157	2111.25	1227.85
1008.8659	2823.4807	2161.3	1276.4
1008.9844	2824.645	2220.85	1332.65
1009.1029	2825.8086	2271	1386.2
1009.2214	2826.9716	2330	1443.4
1009.3398	2828.134	2388.3	1502.45
1009.4581	2829.2957	2425.65	1539.95
1009.5764	2830.4567	2461.25	1575.8
1009.6947	2831.617	2501.65	1616.1
1009.813	2832.7767	2512.45	1630.05
1009.9312	2833.9358	2508.45	1623.6
1010.0493	2835.0941	2502.8	1614.8
1010.1675	2836.2519	2490.2	1606.1
1010.2855	2837.4089	2473.8	1588.85
1010.4036	2838.5653	2453.55	1569.4
1010.5216	2839.7211	2445.45	1561.4
1010.6396	2840.8761	2449.25	1562.15
1010.7575	2842.0306	2452	1568.6
1010.8754	2843.1843	2466.35	1580
1010.9932	2844.3374	2501.55	1616.9
1011.111	2845.4899	2542.85	1656.4
1011.2288	2846.6417	2601.75	1717.6
1011.3465	2847.7928	2665.2	1780.35
1011.4642	2848.9433	2719.95	1834.7
1011.5818	2850.0931	2772.45	1888.9
1011.6995	2851.2422	2837.65	1949.9
1011.817	2852.3907	2895.65	2010.35
1011.9345	2853.5385	2955.45	2070.75
1012.052	2854.6857	3024.25	2115.65
1012.1695	2855.8323	3055.8	2173.2
1012.2869	2856.9781	3112.25	2227.6
1012.4042	2858.1233	3150.55	2265.5
1012.5216	2859.2679	3210.1	2325.15
1012.6389	2860.4118	3251.3	2366.85
1012.7561	2861.555	3290.65	2401.3
1012.8733	2862.6976	3340.3	2454.85
1012.9905	2863.8395	3374.45	2490.1
1013.1076	2864.9808	3402.15	2517.95
1013.2247	2866.1214	3423.85	2540.65
1013.3417	2867.2614	3435.45	2549.05
1013.4587	2868.4007	3445.95	2559.65
1013.5757	2869.5393	3464.7	2578.45
1013.6926	2870.6773	3486.45	2598.1
1013.8095	2871.8146	3497.7	2607.9
1013.9263	2872.9513	3507.6	2618.65
1014.0431	2874.0874	3490.1	2603.15
1014.1599	2875.2227	3497.5	2611.75
1014.2766	2876.3574	3452.25	2566.45
1014.3933	2877.4915	3430.55	2544.6
1014.51	2878.6249	3410.7	2528.65
1014.6266	2879.7577	3399.8	2515.25
1014.7431	2880.8898	3381.05	2487
1014.8596	2882.0212	3353.95	2471
1014.9761	2883.152	3352.5	2466.85
1015.0925	2884.2821	3325.4	2442.2
1015.2089	2885.4116	3318.15	2436.25
1015.3253	2886.5405	3324.2	2442.8
1015.4416	2887.6686	3347.2	2458.45
1015.5579	2888.7962	3346.85	2465.55
1015.6741	2889.923	3350.6	2467.3
1015.7903	2891.0493	3366.4	2483.45
1015.9065	2892.1748	3358.4	2475.05
1016.0226	2893.2997	3367.65	2483.05
1016.1387	2894.424	3399.25	2517.1
1016.2547	2895.5476	3399.85	2516.85
1016.3707	2896.6706	3437.3	2553.25
1016.4866	2897.7929	3432.45	2547.7
1016.6025	2898.9145	3472.4	2587.95
1016.7184	2900.0355	3506.8	2623.75
1016.8342	2901.1559	3529.85	2643.6
1016.95	2902.2756	3559.5	2671.15
1017.0658	2903.3946	3583.9	2701.8
1017.1815	2904.513	3608.05	2720.45
1017.2971	2905.6308	3648.45	2764.9
1017.4127	2906.7479	3675.65	2792.5
1017.5283	2907.8643	3693.35	2808.35
1017.6439	2908.9801	3701	2818.45
1017.7594	2910.0953	3716.25	2835.45
1017.8748	2911.2098	3715.45	2828.9
1017.9902	2912.3236	3706.85	2816.7
1018.1056	2913.4368	3686.85	2800.55
1018.2209	2914.5494	3669.65	2785.3
1018.3362	2915.6613	3640.95	2752.7
1018.4515	2916.7725	3619.8	2733.85
1018.5667	2917.8831	3593.2	2708.45
1018.6819	2918.9931	3577.3	2692.5
1018.797	2920.1024	3527.35	2644.35
1018.9121	2921.211	3508.25	2625.3
1019.0271	2922.319	3492.4	2610.15
1019.1421	2923.4264	3476.45	2595.6
1019.2571	2924.5331	3470.75	2591
1019.372	2925.6391	3468.85	2583.4
1019.4869	2926.7445	3464.9	2585.15
1019.6017	2927.8493	3473.7	2593.3
1019.7165	2928.9534	3466.15	2584.2
1019.8313	2930.0569	3465.45	2580.65
1019.946	2931.1597	3478.3	2593.85
1020.0606	2932.2619	3480.1	2597.75
1020.1753	2933.3634	3477.65	2593.4
1020.2899	2934.4643	3485.6	2598.85
1020.4044	2935.5645	3466.95	2576.25
1020.5189	2936.6641	3453.8	2565.1
1020.6334	2937.763	3425.7	2543.75
1020.7478	2938.8613	3378.05	2494.85
1020.8622	2939.959	3339.85	2452.8
1020.9765	2941.056	3271.7	2390.75
1021.0908	2942.1523	3200.7	2316.5
1021.2051	2943.248	3141.25	2259.45
1021.3193	2944.3431	3047.3	2165.5
1021.4334	2945.4375	2960.45	2076.7
1021.5476	2946.5313	2859.35	1978.2
1021.6617	2947.6244	2747.7	1864.1
1021.7757	2948.7169	2661	1776.35
1021.8897	2949.8087	2568.15	1685.5
1022.0037	2950.8999	2483.35	1601
1022.1176	2951.9904	2402.15	1519.15
1022.2315	2953.0803	2331.85	1449.1
1022.3453	2954.1696	2277.3	1394.4
1022.4591	2955.2582	2222.4	1340.7
1022.5728	2956.3462	2173.15	1290.65
1022.6865	2957.4335	2132.9	1248.85
1022.8002	2958.5202	2102.4	1218.5
1022.9138	2959.6062	2080.25	1199.75
1023.0274	2960.6916	2042.6	1159.95
1023.141	2961.7764	2027.85	1145.6
1023.2545	2962.8605	2008.45	1125.05
1023.3679	2963.9439	2000.55	1119
1023.4813	2965.0267	1983.25	1100.1
1023.5947	2966.1089	1994.5	1090.6
1023.708	2967.1905	1969.45	1088.2
1023.8213	2968.2714	1973.95	1092.7
1023.9346	2969.3516	1980.35	1099.3
1024.0478	2970.4312	1983.9	1095.55
1024.1609	2971.5102	1965.1	1083.85
1024.274	2972.5885	1966.85	1084.95
1024.3871	2973.6662	1983.55	1097.2
1024.5002	2974.7432	1981.85	1100.65
1024.6132	2975.8196	1972.75	1090.85
1024.7261	2976.8954	1965.75	1083.95
1024.839	2977.9705	1950.6	1068.2
1024.9519	2979.045	1954.6	1073.65
1025.0647	2980.1188	1923.75	1041.65
1025.1775	2981.192	1916.95	1036.45
1025.2902	2982.2645	1900.6	1017.8
1025.4029	2983.3364	1881.55	1000.2
1025.5156	2984.4077	1856.9	975.15
1025.6282	2985.4783	1832.95	944.95
1025.7407	2986.5483	1805	923.45
1025.8532	2987.6177	1773.85	893.4
1025.9657	2988.6864	1741.05	858.6
1026.0782	2989.7545	1698.4	817.95
1026.1906	2990.8219	1660.15	778.8
1026.3029	2991.8887	1635.15	750.95
1026.4152	2992.9548	1600.45	718.8
1026.5275	2994.0204	1577.05	695.75
1026.6397	2995.0852	1543.6	664.7
1026.7519	2996.1495	1526.25	643.75
1026.864	2997.2131	1498.7	616.8
1026.9761	2998.276	1471.6	589.25
1027.0882	2999.3383	1453.45	573
1027.2002	3000.4	1436.05	553.2
1027.3122	3001.4611	1415.3	534.05
1027.4241	3002.5215	1401.35	519.85
1027.536	3003.5812	1384.25	502
1027.6478	3004.6404	1367.4	485.3
1027.7596	3005.6989	1356.8	471.95
1027.8714	3006.7567	1339.45	458.35
1027.9831	3007.8139	1362.35	447.4
1028.0947	3008.8705	1323.05	440.35
1028.2064	3009.9264	1315.9	430.65
1028.3179	3010.9818	1315.5	436.3
1028.4295	3012.0364	1296	413.5
1028.541	3013.0905	1301.05	418.55
1028.6524	3014.1439	1288.75	409.95
1028.7638	3015.1966	1286.8	408
1028.8752	3016.2487	1281.95	402.55
1028.9865	3017.3002	1280.8	391.5
1029.0978	3018.3511	1263.9	384.45
1029.209	3019.4013	1265.8	384.65
1029.3202	3020.4509	1265.9	386.15
1029.4314	3021.4998	1269.45	387.9
1029.5425	3022.5481	1269.15	387.6
1029.6535	3023.5958	1260.8	381.9
1029.7645	3024.6428	1256.8	375.1
1029.8755	3025.6892	1262.8	383
1029.9864	3026.735	1256.3	376.25
1030.0973	3027.7802	1263.15	381.4
1030.2082	3028.8247	1265.35	383.8
1030.319	3029.8685	1264.55	385.9
1030.4297	3030.9118	1267.8	386.7
1030.5404	3031.9544	1273.45	392.65
1030.6511	3032.9963	1269.95	389.85
1030.7617	3034.0376	1269.25	386.9
1030.8723	3035.0783	1274.4	391.7
1030.9829	3036.1184	1273.6	389.15
1031.0934	3037.1578	1275.55	395.35
1031.2038	3038.1966	1278.35	394.85
1031.3142	3039.2348	1279.25	398.5
1031.4246	3040.2723	1289.6	400.8
1031.5349	3041.3092	1285.3	405.3
1031.6452	3042.3455	1281.2	402.05
1031.7554	3043.3811	1276.3	395.4
1031.8656	3044.4161	1275.45	393.4
1031.9758	3045.4505	1267.5	387.7
1032.0859	3046.4842	1270.55	389.7
1032.1959	3047.5173	1265.45	386.6
1032.3059	3048.5498	1263.05	382.3
1032.4159	3049.5816	1264.15	383.6
1032.5258	3050.6128	1256.95	376.2
1032.6357	3051.6434	1257.65	375.25
1032.7455	3052.6734	1254.35	371.8
1032.8553	3053.7027	1257	377.45
1032.9651	3054.7314	1240.5	358.15
1033.0748	3055.7594	1247.65	368.35
1033.1845	3056.7868	1238.4	359.4
1033.2941	3057.8136	1235.45	357.1
1033.4037	3058.8398	1238.2	358.8
1033.5132	3059.8653	1232.65	351.2
1033.6227	3060.8902	1230.35	350.6
1033.7321	3061.9145	1234.15	353.95
1033.8415	3062.9381	1230.15	348.6
1033.9509	3063.9612	1240.25	344.95
1034.0602	3064.9835	1219.25	337.85
1034.1694	3066.0053	1218.4	336.7
1034.2787	3067.0264	1213.3	332.95
1034.3878	3068.0469	1210.2	329.2
1034.497	3069.0668	1208.6	324.95
1034.6061	3070.086	1202.85	324.4
1034.7151	3071.1046	1196.95	316.75
1034.8241	3072.1226	1194.2	313.9
1034.9331	3073.1399	1185.8	305.55
1035.042	3074.1567	1179.05	297.85
1035.1508	3075.1727	1175.15	293.9
1035.2597	3076.1882	1158.6	279.1
1035.3684	3077.203	1161.45	282.1
1035.4772	3078.2173	1146.75	267.7
1035.5859	3079.2308	1152	268
1035.6945	3080.2438	1139.2	258.6
1035.8031	3081.2561	1135.4	255.05
1035.9117	3082.2678	1123.95	244.4
1036.0202	3083.2789	1120.95	239.95
1036.1286	3084.2893	1113.35	234.2
1036.2371	3085.2991	1108.9	227.6
1036.3454	3086.3083	1108.4	223.4
1036.4538	3087.3169	1099.5	220.35
1036.562	3088.3248	1098.7	217.75
1036.6703	3089.3321	1092.65	211.5
1036.7785	3090.3388	1090.95	212.05
1036.8866	3091.3449	1083.45	203.4
1036.9948	3092.3503	1084.35	201.55
1037.1028	3093.3551	1075.1	198
1037.2108	3094.3593	1074.5	195
1037.3188	3095.3629	1073.1	194.95
1037.4267	3096.3658	1071.3	190.7
1037.5346	3097.3681	1070.05	191.75
1037.6425	3098.3698	1067.05	185.7
1037.7503	3099.3708	1064.4	178.15
1037.858	3100.3713	1059.55	177.85
1037.9657	3101.3711	1059.25	178.6
1038.0734	3102.3702	1164.5	169.9
1038.181	3103.3688	1049.1	167.45
1038.2886	3104.3667	1046.35	169.55
1038.3961	3105.364	1042.55	163.95
1038.5036	3106.3607	1047.05	167
1038.611	3107.3568	1042.75	161.7
1038.7184	3108.3522	1040.3	161.85
1038.8257	3109.347	1036.05	154
1038.933	3110.3412	1042.5	158.1
1039.0403	3111.3348	1033.85	154.8
1039.1475	3112.3277	1030.95	151.9
1039.2547	3113.32	1025.65	147.1
1039.3618	3114.3117	1025.05	144.65
1039.4689	3115.3028	1027.45	148.7
1039.5759	3116.2932	1027.15	144.45
1039.6829	3117.2831	1034.6	150.85
1039.7898	3118.2723	1019.35	139.2
1039.8967	3119.2608	1016.85	137.75
1040.0035	3120.2488	1019.85	138.65
1040.1103	3121.2361	1015.4	135.35
1040.2171	3122.2229	1016.6	136.4
1040.3238	3123.209	1014.7	132.6
1040.4305	3124.1944	1014.5	135.8
1040.5371	3125.1793	1016.8	137.2
1040.6437	3126.1635	1009.55	130.65
1040.7502	3127.1471	1006.5	126.55
1040.8567	3128.1301	1004.75	125.1
1040.9631	3129.1125	1008.1	130.1
1041.0695	3130.0942	1006.2	127.25
1041.1759	3131.0753	1012.35	126.45
1041.2822	3132.0558	1005.75	124.5
1041.3884	3133.0357	1008.8	129.5
1041.4946	3134.015	1004.95	124.4
1041.6008	3134.9936	1004.65	124.95
1041.7069	3135.9716	1021.55	121.6
1041.813	3136.949	999.5	120.45
1041.919	3137.9258	1017.95	121.9
1042.025	3138.902	1001.2	117.5
1042.1309	3139.8775	992.65	114.05
1042.2368	3140.8524	994.25	114
1042.3427	3141.8267	997.5	115.9
1042.4485	3142.8004	993.75	116.15
1042.5542	3143.7735	996.55	113.05
1042.6599	3144.7459	993.8	112.05
1042.7656	3145.7178	988.75	108.6
1042.8712	3146.689	984.95	105.95
1042.9768	3147.6596	988.95	107.35
1043.0823	3148.6295	988.35	110.1
1043.1878	3149.5989	990.4	112.95
1043.2932	3150.5676	985.35	104
1043.3986	3151.5357	981.95	105.3
1043.5039	3152.5032	984.75	106.5
1043.6092	3153.4701	982.45	104.9
1043.7145	3154.4364	983.55	103.8
1043.8197	3155.402	980.7	102.2
1043.9248	3156.367	981.8	102.75
1044.03	3157.3315	1011.35	94.35
1044.135	3158.2952	982.2	103.55
1044.24	3159.2584	976.95	98.25
1044.345	3160.221	975.25	94.9
1044.4499	3161.1829	977.35	99.35
1044.5548	3162.1442	976.9	97.95
1044.6596	3163.105	972.5	95.95
1044.7644	3164.065	970.5	90.4
1044.8692	3165.0245	976.75	95.05
1044.9739	3165.9834	969.15	92.4
1045.0785	3166.9416	974.8	95.6
1045.1831	3167.8993	974.15	94.75
1045.2877	3168.8563	973.7	95.1
1045.3922	3169.8127	970.2	91.75
1045.4966	3170.7684	968.15	89.25
1045.6011	3171.7236	970.1	90.45
1045.7054	3172.6782	970.7	91.45
1045.8098	3173.6321	967.4	90.2
1045.914	3174.5854	971.8	89.3
1046.0183	3175.5381	968.2	90.15
1046.1224	3176.4902	966.05	87.05
1046.2266	3177.4417	963.1	85.95
1046.3307	3178.3926	965.4	86.75
1046.4347	3179.3428	962.95	86.35
1046.5387	3180.2924	962.75	84.05
1046.6427	3181.2415	963.85	85.8
1046.7466	3182.1899	965.75	84.25
1046.8504	3183.1377	963.7	86.05
1046.9542	3184.0848	965.65	83.45
1047.058	3185.0314	960.9	83
1047.1617	3185.9773	959.65	80.2
1047.2654	3186.9227	959.6	79.5
1047.369	3187.8674	961.9	84.3
1047.4726	3188.8115	963.5	78.55
1047.5761	3189.755	960.65	83.7
1047.6796	3190.6979	960	81.7
1047.783	3191.6402	956.6	79.75
1047.8864	3192.5818	953.15	74.9
1047.9898	3193.5229	960.95	74.55
1048.0931	3194.4633	957.6	80
1048.1963	3195.4031	954.35	73.8
1048.2995	3196.3423	958.65	81.6
1048.4027	3197.2809	957.4	78
1048.5058	3198.2189	954.85	76.25
1048.6089	3199.1563	973.9	79.05
1048.7119	3200.0931	952.15	75.95
1048.8148	3201.0292	954.1	77.45
1048.9178	3201.9648	951.6	72.65
1049.0206	3202.8997	957.7	74.95
1049.1235	3203.834	950.35	71.2
1049.2262	3204.7677	948.15	71
1049.329	3205.7008	951.5	68.6
1049.4317	3206.6333	950.55	73.45
1049.5343	3207.5652	949.25	70.35
1049.6369	3208.4964	947.1	68.1
1049.7394	3209.4271	948.7	72.5
1049.8419	3210.3571	946.95	67.55
1049.9444	3211.2865	949.55	69.5
1050.0468	3212.2154	948	68.1
1050.1491	3213.1436	950.85	69.6
1050.2514	3214.0712	953.15	68.5
1050.3537	3214.9982	948.6	68.95
1050.4559	3215.9246	946.1	66.7
1050.5581	3216.8503	944.5	66.55
1050.6602	3217.7755	944.55	65.9
1050.7623	3218.7001	944.2	68.05
1050.8643	3219.624	944.7	65.7
1050.9663	3220.5473	947.15	68.3
1051.0682	3221.4701	948.65	69.1
1051.1701	3222.3922	945.45	65.45
1051.2719	3223.3137	943.35	64.35
1051.3737	3224.2346	943.5	63.7
1051.4754	3225.1549	941.75	63.85
1051.5771	3226.0746	942.7	64.25
1051.6788	3226.9937	943.3	64.3
1051.7804	3227.9121	940.8	63.35
1051.8819	3228.83	939.1	62.85
1051.9834	3229.7473	941	62.65
1052.0849	3230.6639	937.85	60.8
1052.1863	3231.5799	941.75	62.95
1052.2876	3232.4954	936.45	56.75
1052.3889	3233.4102	938.2	60.75
1052.4902	3234.3244	939.4	61.5
1052.5914	3235.238	938.7	59.55
1052.6926	3236.151	962.85	61.1
1052.7937	3237.0634	934.1	58.95
1052.8948	3237.9752	935	57.85
1052.9958	3238.8864	937.15	58
1053.0968	3239.797	936.45	60.15
1053.1977	3240.7069	935.55	56.65
1053.2986	3241.6163	935.7	56.95
1053.3994	3242.5251	931.75	53.15
1053.5002	3243.4332	932.6	56.5
1053.6009	3244.3408	931.7	52.4
1053.7016	3245.2477	932.65	57.4
1053.8022	3246.154	933.85	55.15
1053.9028	3247.0598	935.25	56.8
1054.0034	3247.9649	930.9	53.85
1054.1039	3248.8694	929.2	51.1
1054.2043	3249.7733	930.95	53.55
1054.3047	3250.6766	928.9	53.1
1054.4051	3251.5793	929.95	50.75
1054.5054	3252.4814	929.9	51.25
1054.6056	3253.3829	928.15	50.9
1054.7058	3254.2838	930.35	52.6
1054.806	3255.1841	927.4	52.9
1054.9061	3256.0838	925.6	49.35
1055.0061	3256.9829	926.6	51.25
1055.1062	3257.8814	927.8	45.05
1055.2061	3258.7792	927.75	48.25
1055.306	3259.6765	927.2	49.25
1055.4059	3260.5731	924.25	47
1055.5057	3261.4692	925	48.15
1055.6055	3262.3647	925.05	47.3
1055.7052	3263.2595	924.9	45.75
1055.8049	3264.1538	921.45	44.25
1055.9045	3265.0474	921.15	43.85
1056.0041	3265.9404	921.2	46.35
1056.1036	3266.8329	920.05	44.5
1056.2031	3267.7247	927.6	42.35
1056.3025	3268.616	916.95	41
1056.4019	3269.5066	916.9	39.4
1056.5013	3270.3966	919.75	37.8
1056.6005	3271.286	911.3	36
