Software Version:	3.9.2.0
Unit SN:	10000200
Spectrometer SN:	6960
Date:	3/8/2024 2:09:05 PM
Data Line Index:	25
Spectral Points:	2048
Integration time (ms):	125
Averages:	20
Delay (ms):	30000
Sequence Number:	1
Processing:	dark subtract
Laser Power (mW):	305
Laser Current (mA):	824
Laser Diode Temp (C):	25
Laser Case Temp (C):	26.3
System Temp (C):	26.3
Spectrometer Temp (C):	24
CCD Temp (C):	0.004
Secondary Temp (C):	20.014
Heatsink Temp (C):	21.404
CCDPCB Temp (C):	36.207
SecondaryPCB Temp (C):	30.871

Wavelength	RamanShift	Raw Counts	Dark Subtracted
787.061	30.1047	466.65	58.4
787.2016	32.3739	468.55	63.45
787.3422	34.6426	475.3	69.85
787.4828	36.9109	480.7	71.95
787.6235	39.1787	490	77.9
787.7642	41.4461	500.3	81.1
787.9049	43.7131	505.8	85.5
788.0456	45.9796	513.75	92.45
788.1863	48.2456	529.65	103.65
788.3271	50.5112	534.85	104.85
788.4679	52.7764	548.8	114.3
788.6087	55.0411	560.05	120.3
788.7496	57.3054	571	127.05
788.8904	59.5692	577.4	131.2
789.0313	61.8326	593.1	144.3
789.1722	64.0955	603.9	153.4
789.3132	66.3579	618.3	160.15
789.4541	68.6199	641.35	179.55
789.5951	70.8815	684.05	216.55
789.7361	73.1426	766	294.9
789.8771	75.4032	980.75	504.95
790.0181	77.6634	1511.35	1032.95
790.1592	79.9231	2780.45	2292.7
790.3003	82.1824	5523.25	5020.15
790.4414	84.4412	10446.7	9912.75
790.5825	86.6995	17250.35	16679
790.7237	88.9574	23886.55	23276.5
790.8648	91.2148	28459.75	27832.4
791.006	93.4717	30618	29973.25
791.1472	95.7282	31130.55	30479.9
791.2885	97.9842	31119.3	30464.1
791.4297	100.2398	30690.35	30033.85
791.571	102.4949	30143	29478.9
791.7123	104.7495	29415.35	28753.55
791.8536	107.0036	28629.35	27964.6
791.9949	109.2573	27913.2	27253.25
792.1363	111.5105	27243.25	26578.4
792.2777	113.7632	26535.3	25870.3
792.4191	116.0154	25964.9	25285.55
792.5605	118.2672	25526.15	24850.8
792.7019	120.5185	25048.3	24375.7
792.8434	122.7693	24736.55	24061.6
792.9849	125.0197	24478.4	23799.55
793.1264	127.2696	24211.85	23527.95
793.2679	129.519	24078.25	23390.9
793.4094	131.7679	23912.3	23222.4
793.551	134.0163	23770.5	23072.4
793.6926	136.2642	23600	22896.95
793.8342	138.5117	23446.55	22736.8
793.9758	140.7587	23240.4	22536.7
794.1175	143.0052	23089.35	22382.75
794.2591	145.2512	22855.65	22150.8
794.4008	147.4967	22643.75	21938.65
794.5425	149.7417	22520.15	21813.45
794.6842	151.9863	22430.95	21715.3
794.826	154.2304	22371.35	21652.55
794.9677	156.4739	22263.85	21540.3
795.1095	158.717	22204.6	21483.85
795.2513	160.9596	22034.15	21304.7
795.3931	163.2017	21803.45	21073.8
795.535	165.4433	21559.55	20829.3
795.6768	167.6844	21268.85	20540.45
795.8187	169.925	20991.75	20256.3
795.9606	172.1651	20563.5	19827
796.1025	174.4047	20325.6	19587.45
796.2445	176.6439	20102.6	19360.85
796.3864	178.8825	19900.25	19155.85
796.5284	181.1206	19734.45	18982.55
796.6704	183.3582	19580.8	18826.45
796.8124	185.5954	19516.2	18761.9
796.9544	187.832	19422.35	18662
797.0965	190.0681	19422.6	18657.7
797.2386	192.3037	19430.85	18664.85
797.3806	194.5388	19434.25	18665.75
797.5228	196.7734	19526.05	18757
797.6649	199.0075	19632.5	18858.55
797.807	201.2411	19777.85	19004.2
797.9492	203.4742	19839.95	19064.6
798.0914	205.7068	20026.9	19242.6
798.2336	207.9389	20158.75	19375.4
798.3758	210.1704	20315	19538.15
798.518	212.4015	20451.3	19686.9
798.6603	214.632	20616.6	19855.25
798.8025	216.862	20856.85	20097.05
798.9448	219.0915	21024.15	20259.45
799.0871	221.3205	21257.75	20497.05
799.2294	223.549	21557.25	20801.9
799.3718	225.777	21869.35	21109.6
799.5141	228.0044	22261.2	21493.75
799.6565	230.2314	22722.65	21955.3
799.7989	232.4578	23141.75	22375.15
799.9413	234.6837	23544	22768.15
800.0837	236.909	23752.25	22972.75
800.2262	239.1339	23806.3	22996.3
800.3687	241.3582	23598.3	22803.35
800.5111	243.582	23255.75	22434.25
800.6536	245.8053	22934.8	22123.05
800.7961	248.0281	22609	21807.15
800.9387	250.2503	22394	21585.95
801.0812	252.472	22240.3	21433.95
801.2238	254.6932	22202.7	21397.35
801.3664	256.9139	22128.75	21322.5
801.509	259.134	22128.15	21316.05
801.6516	261.3536	22121.05	21312
801.7942	263.5727	22199.1	21385.3
801.9369	265.7912	22121.5	21306.05
802.0795	268.0092	22157.3	21346.4
802.2222	270.2267	22126.6	21315
802.3649	272.4436	22103.45	21290.4
802.5076	274.6601	22105.9	21278.85
802.6504	276.8759	22043.95	21227.65
802.7931	279.0913	22017.8	21198.25
802.9359	281.3061	21964.45	21143.65
803.0787	283.5204	22117.9	21290
803.2215	285.7341	22231.1	21398.85
803.3643	287.9473	22444.05	21608.75
803.5071	290.16	22637.8	21803.5
803.6499	292.3721	22965.65	22140
803.7928	294.5837	23384.65	22556.45
803.9357	296.7947	23772	22940.4
804.0786	299.0052	23974.65	23146.85
804.2215	301.2152	23854.25	23019.9
804.3644	303.4246	23535.3	22709.45
804.5074	305.6334	22974.25	22150.45
804.6503	307.8418	22504.9	21675
804.7933	310.0495	22078.55	21245.95
804.9363	312.2568	21813.25	20979.35
805.0793	314.4635	21602.05	20766.15
805.2223	316.6696	21527.15	20688.9
805.3653	318.8752	21512.95	20666.55
805.5084	321.0802	21567.1	20727.7
805.6514	323.2847	21688.45	20848.4
805.7945	325.4887	21741.55	20901
805.9376	327.692	21734.45	20889.35
806.0807	329.8949	21673.05	20827
806.2238	332.0972	21388.65	20541.85
806.367	334.2989	21115.1	20262.85
806.5101	336.5001	20851.95	20004.75
806.6533	338.7007	20670.3	19819.4
806.7965	340.9008	20583.95	19733.6
806.9397	343.1003	20502.85	19650.05
807.0829	345.2992	20464.55	19612.45
807.2261	347.4976	20425.35	19566.85
807.3693	349.6955	20445.35	19586.75
807.5126	351.8927	20553.35	19695.5
807.6559	354.0895	20537.25	19670.15
807.7991	356.2856	20603.3	19735
807.9424	358.4812	20622	19757.85
808.0857	360.6763	20661.6	19802.4
808.2291	362.8707	20649.3	19785.1
808.3724	365.0646	20715.4	19846.4
808.5158	367.258	20730.9	19864.7
808.6591	369.4508	20753.2	19881.85
808.8025	371.643	20830.2	19955.65
808.9459	373.8346	20825.6	19948.2
809.0893	376.0257	20827.65	19952.8
809.2327	378.2162	20727.15	19853.25
809.3762	380.4062	20698.55	19823.7
809.5196	382.5956	20565.1	19695
809.6631	384.7844	20486.5	19622.65
809.8066	386.9726	20347.85	19481.3
809.9501	389.1603	20324.95	19462.15
810.0936	391.3474	20301.25	19409.8
810.2371	393.5339	20327.7	19457.4
810.3806	395.7199	20252.25	19386.4
810.5241	397.9052	20282.2	19415.75
810.6677	400.09	20322.85	19459.35
810.8113	402.2743	20399.55	19531.45
810.9548	404.4579	20485.05	19620.05
811.0984	406.641	20668.95	19796.7
811.2421	408.8235	20876.35	20011
811.3857	411.0054	21230.4	20356.25
811.5293	413.1868	21692	20816.15
811.673	415.3675	22060	21178.05
811.8166	417.5477	22268.3	21386.25
811.9603	419.7273	22284.15	21401.65
812.104	421.9064	22188.65	21299.4
812.2477	424.0848	22060.25	21182.15
812.3914	426.2627	21859.15	20977.2
812.5351	428.4399	21560.95	20677.5
812.6788	430.6166	21229.4	20341.55
812.8226	432.7928	20854.15	19968
812.9663	434.9683	20573.9	19691.05
813.1101	437.1432	20378.95	19499.2
813.2539	439.3176	20194.6	19315.4
813.3977	441.4914	20119.35	19244.15
813.5415	443.6645	20071.3	19194.55
813.6853	445.8371	20019.95	19134.05
813.8291	448.0091	19974.65	19091.25
813.973	450.1806	19955.5	19076.5
814.1168	452.3514	19877.9	18997.4
814.2607	454.5216	19933.85	19046.75
814.4046	456.6913	19844.8	18957.55
814.5485	458.8603	19919	19035.4
814.6924	461.0288	19963.3	19085.45
814.8363	463.1967	19976.5	19101.65
814.9802	465.3639	20130.9	19251
815.1241	467.5306	20235.05	19355.05
815.2681	469.6967	20378.05	19502
815.412	471.8622	20541.7	19670.45
815.556	474.0271	20695.05	19814.95
815.7	476.1914	20820.6	19931.5
815.844	478.3551	20800.9	19913.25
815.988	480.5182	20807.7	19928.35
816.132	482.6807	20840.15	19966.85
816.276	484.8426	20910.85	20044.5
816.4201	487.0039	21239.55	20366.55
816.5641	489.1647	21674.35	20793
816.7082	491.3248	22113.8	21231.9
816.8522	493.4843	22283.2	21403.2
816.9963	495.6432	22326.7	21447.45
817.1404	497.8015	22200.5	21312.3
817.2845	499.9592	22269.6	21371.1
817.4286	502.1163	22231.35	21332.85
817.5727	504.2728	21981.2	21093.95
817.7168	506.4287	21704.95	20828.45
817.861	508.5839	21293.55	20413.3
818.0051	510.7386	20994.4	20110.9
818.1493	512.8927	20817	19926.1
818.2935	515.0461	20741.8	19851.65
818.4377	517.199	20672.25	19778.1
818.5818	519.3512	20698	19799.55
818.726	521.5029	20791.1	19890.7
818.8703	523.6539	20876.55	19983.25
819.0145	525.8043	20892.6	20001.25
819.1587	527.9541	20964.7	20066.7
819.303	530.1033	20949.8	20054.4
819.4472	532.2519	20993.5	20098.65
819.5915	534.3999	21152.1	20255.95
819.7357	536.5472	21393.8	20497.8
819.88	538.694	21897.45	21004.85
820.0243	540.8401	22521.25	21624.65
820.1686	542.9856	23049.8	22140.7
820.3129	545.1305	23244.35	22328.05
820.4572	547.2748	23117.75	22201.85
820.6016	549.4185	22755.1	21840.7
820.7459	551.5615	22395.9	21481.6
820.8902	553.704	22278.7	21369.05
821.0346	555.8458	22191.05	21281.35
821.1789	557.987	22244.85	21340.25
821.3233	560.1276	22228.65	21320.55
821.4677	562.2675	22282.45	21371.65
821.6121	564.4069	22319	21410.95
821.7565	566.5456	22290.85	21386.9
821.9009	568.6837	22198.65	21297.55
822.0453	570.8212	21929.5	21026.75
822.1897	572.958	21632.25	20725.55
822.3342	575.0942	21383.7	20485.25
822.4786	577.2299	21219.7	20318.85
822.6231	579.3648	21165.25	20281.75
822.7675	581.4992	21232.75	20352.7
822.912	583.6329	21424.15	20551.7
823.0565	585.766	21668.85	20788
823.201	587.8985	21814.15	20927.75
823.3454	590.0304	21822.15	20911.55
823.4899	592.1616	21770.2	20860.8
823.6345	594.2922	21715.85	20805.05
823.779	596.4222	21545.85	20635
823.9235	598.5515	21412.55	20495.7
824.068	600.6802	21239.85	20327.85
824.2126	602.8083	21040.5	20133.85
824.3571	604.9358	21039.9	20131.25
824.5017	607.0626	20975.35	20061.95
824.6462	609.1888	20998.5	20073.95
824.7908	611.3144	20919.25	19999.15
824.9354	613.4393	20838	19917.4
825.08	615.5636	20736.7	19817.2
825.2246	617.6873	20652.8	19733.8
825.3692	619.8103	20623.95	19703.55
825.5138	621.9327	20538.95	19624.75
825.6584	624.0544	20505.7	19595.2
825.803	626.1756	20510.9	19600.8
825.9477	628.2961	20466.4	19552
826.0923	630.4159	20435.7	19514.15
826.237	632.5351	20430.7	19511.6
826.3816	634.6537	20371.2	19453.2
826.5263	636.7716	20353.2	19430.3
826.6709	638.8889	20382.85	19455.9
826.8156	641.0056	20457.5	19533.55
826.9603	643.1216	20468.45	19545.6
827.105	645.237	20517.3	19596.95
827.2497	647.3518	20479.95	19564.6
827.3944	649.4659	20550.4	19641.9
827.5391	651.5793	20539.3	19632.55
827.6838	653.6922	20500.45	19588.6
827.8285	655.8043	20531.1	19618.8
827.9733	657.9159	20564.2	19649.15
828.118	660.0268	20480.3	19564.7
828.2627	662.137	20412.1	19494.7
828.4075	664.2466	20457.2	19531.7
828.5522	666.3556	20448.35	19524.05
828.697	668.4639	20447.5	19529.2
828.8418	670.5716	20491.1	19575.7
828.9865	672.6786	20567.75	19645.65
829.1313	674.785	20660.25	19737.9
829.2761	676.8907	20718.6	19794.55
829.4209	678.9958	20811.05	19895.3
829.5657	681.1002	20816.85	19896.2
829.7105	683.204	20791.3	19857.05
829.8553	685.3072	20735.85	19807.55
830.0001	687.4097	20722.8	19802.4
830.1449	689.5115	20658.25	19728.8
830.2898	691.6127	20649.7	19727.2
830.4346	693.7132	20567.45	19648.1
830.5794	695.8131	20572.25	19626
830.7243	697.9123	20572	19639.9
830.8691	700.0109	20522.25	19587.5
831.014	702.1089	20521.5	19591.95
831.1588	704.2061	20574.9	19646.55
831.3037	706.3028	20632.05	19702.65
831.4486	708.3987	20704.95	19774.6
831.5935	710.4941	20796.25	19865.85
831.7383	712.5887	20975.4	20050.7
831.8832	714.6827	21274	20345.1
832.0281	716.7761	21634	20707.85
832.173	718.8688	22026.2	21103.8
832.3179	720.9608	22254.4	21314.85
832.4628	723.0522	22332.45	21392.85
832.6077	725.1429	22099.25	21163.15
832.7527	727.233	21857.5	20924.55
832.8976	729.3224	21618.85	20686.7
833.0425	731.4112	21338.75	20405.55
833.1874	733.4993	21120.15	20186.1
833.3324	735.5867	20990.5	20058.65
833.4773	737.6735	20895.85	19964.3
833.6222	739.7596	20870.2	19937.25
833.7672	741.845	20833.8	19903.1
833.9122	743.9298	20820.1	19885.55
834.0571	746.014	20842.75	19910.55
834.2021	748.0974	20862.45	19925.5
834.347	750.1802	20843.75	19909
834.492	752.2624	20837.65	19899.75
834.637	754.3439	20884.85	19945.65
834.782	756.4247	20950.85	20005.85
834.9269	758.5048	21080.2	20140.45
835.0719	760.5843	21302	20363.25
835.2169	762.6631	21568.25	20630.05
835.3619	764.7413	22035.95	21098.2
835.5069	766.8188	22617.75	21677.85
835.6519	768.8956	23035.65	22096.2
835.7969	770.9718	23360.9	22423.75
835.9419	773.0473	23224.15	22286.75
836.0869	775.1221	22915.35	21976.8
836.232	777.1962	22556.85	21619.4
836.377	779.2697	22401.85	21459.65
836.522	781.3426	22420.05	21461.45
836.667	783.4147	22708.6	21768.5
836.8121	785.4862	23018.2	22080.7
836.9571	787.557	23069.1	22126
837.1021	789.6271	22745.25	21802.75
837.2472	791.6966	22193.2	21252.8
837.3922	793.7654	21669.55	20727.05
837.5373	795.8335	21399.15	20462.35
837.6823	797.901	21227.85	20286.3
837.8274	799.9678	21199.85	20255.7
837.9724	802.0339	21188.65	20244.85
838.1175	804.0993	21265.15	20310.6
838.2626	806.1641	21269.8	20325.9
838.4076	808.2282	21179.35	20240.1
838.5527	810.2916	21119.45	20174.7
838.6978	812.3544	21055.3	20117.3
838.8428	814.4164	20958.8	20017.15
838.9879	816.4778	20959.75	20015.25
839.133	818.5385	20979.65	20032.5
839.2781	820.5986	21086.6	20144.6
839.4232	822.658	21181.15	20234.9
839.5682	824.7166	21326.85	20384.55
839.7133	826.7747	21547.9	20604.45
839.8584	828.832	21735.4	20789.9
840.0035	830.8886	21814.3	20865.95
840.1486	832.9446	22002.05	21055.9
840.2937	834.9999	22037.4	21094.45
840.4388	837.0545	22065.6	21119.5
840.5839	839.1085	22097.25	21151.6
840.729	841.1618	22104.5	21155.6
840.8741	843.2143	22024.7	21076.8
841.0192	845.2662	21956.9	21013.95
841.1643	847.3175	21932.65	20986.6
841.3095	849.368	21829.1	20885.05
841.4546	851.4179	21723.6	20777.15
841.5997	853.467	21555.05	20612.55
841.7448	855.5155	21483.85	20538.7
841.8899	857.5633	21402.95	20454.65
842.0351	859.6105	21305.5	20357.95
842.1802	861.6569	21248.7	20301.75
842.3253	863.7027	21206.75	20254.8
842.4704	865.7478	21243.6	20295.8
842.6156	867.7922	21295.05	20345.05
842.7607	869.8359	21312.85	20365.8
842.9058	871.8789	21440.35	20491.3
843.0509	873.9212	21658.75	20676.8
843.1961	875.9629	21746.25	20796.05
843.3412	878.0039	21959.3	21010.55
843.4863	880.0441	22126.95	21177.85
843.6315	882.0837	22155.25	21209.95
843.7766	884.1226	22044.85	21096
843.9218	886.1609	21942.6	20994.45
844.0669	888.1984	21874.65	20928.5
844.212	890.2352	21919.25	20971.1
844.3572	892.2714	21879.75	20927.35
844.5023	894.3069	21873.35	20922.35
844.6475	896.3416	21802.95	20853.5
844.7926	898.3757	21792.65	20840.85
844.9377	900.4091	21793.7	20843.55
845.0829	902.4418	21796.15	20838.25
845.228	904.4739	21806.3	20850.95
845.3732	906.5052	21837.2	20881.4
845.5183	908.5358	21730.75	20779.55
845.6635	910.5658	21563.6	20608.65
845.8086	912.595	21434.55	20479.95
845.9538	914.6236	21320.9	20367.75
846.0989	916.6515	21288.2	20336
846.2441	918.6786	21270.55	20316.9
846.3892	920.7051	21354.4	20400.85
846.5344	922.7309	21484.85	20531.9
846.6795	924.756	21534.15	20583.65
846.8246	926.7804	21659.05	20705.2
846.9698	928.8041	21540.85	20589.65
847.1149	930.8272	21625.7	20672.65
847.2601	932.8495	21560.45	20609.9
847.4052	934.8711	21488.25	20535.05
847.5504	936.892	21324.35	20370.1
847.6955	938.9123	21171.4	20218.55
847.8407	940.9318	21056.3	20102.3
847.9858	942.9506	20954.85	20004.45
848.131	944.9688	20873.9	19919.25
848.2761	946.9862	20863.75	19911.75
848.4213	949.003	20749.85	19793.8
848.5664	951.019	20737.7	19785.3
848.7115	953.0344	20766.95	19814.8
848.8567	955.0491	20788.45	19836.15
849.0018	957.063	20927.35	19973.05
849.147	959.0763	21057	20101.3
849.2921	961.0888	21090.45	20138.75
849.4373	963.1007	21219.35	20270.45
849.5824	965.1119	21255	20315.9
849.7275	967.1223	21273.1	20335.65
849.8727	969.1321	21315.4	20378.45
850.0178	971.1412	21400	20455.75
850.1629	973.1495	21362.15	20417.75
850.3081	975.1572	21441.25	20440.8
850.4532	977.1641	21493.95	20542.3
850.5983	979.1704	21478.7	20525.6
850.7435	981.1759	21460.25	20506.4
850.8886	983.1808	21505.1	20548.3
851.0337	985.1849	21594.7	20632.8
851.1788	987.1884	21727.65	20772.55
851.324	989.1911	21907	20952
851.4691	991.1932	22055.55	21103.85
851.6142	993.1945	22081.95	21134.1
851.7593	995.1951	22054.5	21103.15
851.9045	997.1951	22033.35	21071.9
852.0496	999.1943	21916.15	20962.85
852.1947	1001.1928	21876.45	20922.7
852.3398	1003.1906	21850.75	20897.7
852.4849	1005.1877	21891.3	20938.9
852.63	1007.1841	21846.7	20897.1
852.7751	1009.1798	21779.5	20828.85
852.9202	1011.1748	21563.45	20609.8
853.0653	1013.1691	21398.9	20448.85
853.2104	1015.1627	21188.2	20239.45
853.3555	1017.1556	20938.8	19991.6
853.5006	1019.1477	20859.9	19912.3
853.6457	1021.1392	20756.25	19813.3
853.7908	1023.1299	20691.4	19753.1
853.9359	1025.12	20733.15	19800.1
854.081	1027.1093	20743.7	19820.4
854.2261	1029.0979	20836.75	19922.2
854.3712	1031.0859	20846.7	19920.75
854.5163	1033.0731	20919.1	19984.45
854.6613	1035.0596	20834.15	19892.8
854.8064	1037.0454	20684	19737.8
854.9515	1039.0304	20553.05	19605.45
855.0965	1041.0148	20412.95	19462.9
855.2416	1042.9985	20316.5	19370.3
855.3867	1044.9814	20284.7	19335.9
855.5317	1046.9636	20248.95	19300.6
855.6768	1048.9452	20214.45	19268.95
855.8219	1050.926	20240.25	19291.8
855.9669	1052.9061	20217.2	19269.45
856.112	1054.8855	20207.75	19258.55
856.257	1056.8642	20254.75	19305.5
856.4021	1058.8421	20340.55	19385.95
856.5471	1060.8194	20374.6	19419.85
856.6921	1062.7959	20384.1	19436.85
856.8372	1064.7717	20392.15	19438.05
856.9822	1066.7469	20416.6	19465.3
857.1272	1068.7213	20426.05	19474.7
857.2723	1070.695	20420.9	19471.9
857.4173	1072.6679	20310.2	19357.35
857.5623	1074.6402	20294.45	19343.3
857.7073	1076.6117	20289.85	19331.1
857.8523	1078.5826	20298.75	19348.9
857.9973	1080.5527	20283.25	19331.85
858.1423	1082.5221	20411.35	19459.8
858.2873	1084.4908	20583.95	19631.65
858.4323	1086.4587	20749.55	19797.45
858.5773	1088.426	20897	19945.3
858.7223	1090.3925	20863.45	19908.7
858.8673	1092.3584	20858.9	19908.3
859.0123	1094.3235	20643.7	19696.4
859.1573	1096.2879	20607.65	19657.4
859.3022	1098.2515	20577.55	19627.75
859.4472	1100.2145	20671.65	19720
859.5922	1102.1767	20752.85	19801.95
859.7371	1104.1382	20915.95	19967.45
859.8821	1106.099	21106.2	20155.35
860.027	1108.0591	21290.9	20342.55
860.172	1110.0185	21457.05	20507.8
860.3169	1111.9771	21463.75	20515.35
860.4619	1113.9351	21231.15	20281.6
860.6068	1115.8923	20952.6	20004.9
860.7517	1117.8488	20633.35	19682.6
860.8967	1119.8045	20345.1	19396.85
861.0416	1121.7596	20260.05	19313.7
861.1865	1123.7139	20136.95	19191.1
861.3314	1125.6675	20141.1	19195.25
861.4763	1127.6204	20257.2	19310.75
861.6212	1129.5726	20219.55	19269.05
861.7661	1131.524	20263.65	19316.75
861.911	1133.4748	20242.8	19295.95
862.0559	1135.4248	20199.65	19249.1
862.2008	1137.3741	20164.55	19216.9
862.3457	1139.3226	20166.55	19216.55
862.4905	1141.2705	20151.1	19203.15
862.6354	1143.2176	20020.05	19063.1
862.7803	1145.164	19995.45	19042.55
862.9251	1147.1097	20040.4	19087.7
863.07	1149.0546	20031.05	19084.8
863.2148	1150.9989	19974.25	19025.1
863.3597	1152.9424	19829.15	18882.3
863.5045	1154.8852	19643.25	18694.2
863.6493	1156.8272	19560.6	18613.35
863.7942	1158.7686	19526.6	18569.2
863.939	1160.7092	19477.3	18529.8
864.0838	1162.6491	19396.15	18444.55
864.2286	1164.5883	19497.45	18546.7
864.3734	1166.5267	19583.25	18631.9
864.5182	1168.4644	19745.9	18795.6
864.663	1170.4014	19917.2	18964.1
864.8078	1172.3377	20146.85	19204.05
864.9526	1174.2732	20405.55	19458.2
865.0974	1176.2081	20654.8	19707.55
865.2421	1178.1421	20856.8	19904.1
865.3869	1180.0755	21043.65	20100.4
865.5317	1182.0082	21112	20165.7
865.6764	1183.9401	21146	20201.8
865.8212	1185.8713	20960.9	20023.3
865.9659	1187.8017	20711.2	19777.95
866.1106	1189.7315	20469.2	19547.05
866.2554	1191.6605	20152.8	19229.65
866.4001	1193.5888	19939.2	19009.45
866.5448	1195.5163	19841.1	18903.95
866.6895	1197.4432	19776.9	18836.4
866.8342	1199.3693	19724.1	18780.95
866.9789	1201.2947	19628.1	18676.45
867.1236	1203.2193	19581.65	18636.9
867.2683	1205.1432	19612.65	18668.95
867.413	1207.0664	19604.5	18658.65
867.5576	1208.9889	19649.5	18703.2
867.7023	1210.9106	19685.25	18744.1
867.847	1212.8316	19688.25	18748.4
867.9916	1214.7519	19756.1	18802.1
868.1363	1216.6715	19778.85	18836.8
868.2809	1218.5903	19762.35	18816.5
868.4255	1220.5084	19710.9	18766.95
868.5701	1222.4257	19702.8	18758.25
868.7148	1224.3424	19620.6	18681.6
868.8594	1226.2583	19701.35	18755.35
869.004	1228.1735	19772.2	18828.3
869.1486	1230.0879	19795.65	18852.1
869.2932	1232.0016	19939	18997.3
869.4377	1233.9146	19941.75	18995.85
869.5823	1235.8269	19856.6	18914.65
869.7269	1237.7384	19780.95	18838.9
869.8715	1239.6492	19533.2	18592.25
870.016	1241.5592	19466.05	18522.35
870.1606	1243.4686	19343.75	18403.1
870.3051	1245.3772	19328.2	18387.45
870.4496	1247.285	19298.2	18356.15
870.5941	1249.1922	19260	18321.05
870.7387	1251.0986	19285.95	18344.3
870.8832	1253.0042	19233.9	18294
871.0277	1254.9092	19281.35	18341.65
871.1722	1256.8134	19329.9	18390.1
871.3167	1258.7169	19510.2	18569.9
871.4611	1260.6196	19630.75	18688.35
871.6056	1262.5216	19813	18868.3
871.7501	1264.4229	19951.8	19012.45
871.8945	1266.3234	20123.65	19180.85
872.039	1268.2232	20189.2	19245.4
872.1834	1270.1223	20187.45	19245.2
872.3278	1272.0207	20151.7	19208.5
872.4723	1273.9183	20104.1	19155.3
872.6167	1275.8151	20001.4	19059.8
872.7611	1277.7113	19909.45	18967.15
872.9055	1279.6067	19788.85	18847.7
873.0499	1281.5014	19685.3	18738.45
873.1943	1283.3953	19642.6	18699.45
873.3386	1285.2885	19681.2	18742.45
873.483	1287.181	19666.55	18728.1
873.6274	1289.0727	19749.75	18814.85
873.7717	1290.9637	19809.8	18871.15
873.9161	1292.854	19972.35	19033.05
874.0604	1294.7435	20099.25	19157.05
874.2047	1296.6323	20273.45	19333.95
874.349	1298.5204	20467.25	19523.65
874.4933	1300.4077	20689.65	19749.7
874.6376	1302.2943	20836	19897.3
874.7819	1304.1802	20899.35	19960.1
874.9262	1306.0653	20740.4	19800
875.0705	1307.9497	20541.15	19600.9
875.2147	1309.8333	20399.7	19462.25
875.359	1311.7162	20316.3	19376.95
875.5032	1313.5984	20330.05	19389.55
875.6475	1315.4798	20330.45	19380
875.7917	1317.3605	20394.9	19438.2
875.9359	1319.2405	20483.5	19540.7
876.0801	1321.1197	20447.45	19502.9
876.2243	1322.9982	20320.2	19377.35
876.3685	1324.876	20253.4	19314.65
876.5127	1326.753	20113.2	19175.35
876.6569	1328.6293	20115.85	19173.75
876.801	1330.5048	20125.55	19182.7
876.9452	1332.3796	20080.3	19143.95
877.0893	1334.2537	20069.95	19103.25
877.2335	1336.127	19985.15	19044.5
877.3776	1337.9996	19888.5	18945.35
877.5217	1339.8714	19873.75	18933.55
877.6658	1341.7426	19801.1	18814.6
877.8099	1343.6129	19769.4	18830
877.954	1345.4826	19693.6	18753.3
878.0981	1347.3515	19703	18756.4
878.2422	1349.2196	19661.05	18716.85
878.3862	1351.087	19617	18675.35
878.5303	1352.9537	19667.65	18722.2
878.6743	1354.8197	19778.7	18837.95
878.8184	1356.6849	19943.05	19003.15
878.9624	1358.5493	20009.95	19071.75
879.1064	1360.4131	20046.75	19105.85
879.2504	1362.276	19979.25	19040.35
879.3944	1364.1383	19844.6	18905.7
879.5384	1365.9998	19575.65	18631.3
879.6823	1367.8606	19228.15	18285.95
879.8263	1369.7206	18935.3	17994.15
879.9702	1371.5799	18714.5	17770.45
880.1142	1373.4384	18562.65	17622.4
880.2581	1375.2962	18420	17477.35
880.402	1377.1533	18102.6	17164.6
880.5459	1379.0096	17775.85	16841.1
880.6898	1380.8652	17473.3	16539.1
880.8337	1382.7201	17207.85	16273.3
880.9776	1384.5742	16983.55	16041.5
881.1215	1386.4275	16774.95	15836.8
881.2653	1388.2802	16669.85	15732.65
881.4092	1390.132	16525.75	15584.6
881.553	1391.9832	16479.45	15535.25
881.6968	1393.8336	16342.85	15403.15
881.8406	1395.6832	16269.4	15326.95
881.9844	1397.5322	16248.5	15310.25
882.1282	1399.3803	16211.85	15268.05
882.272	1401.2278	16134.1	15195.75
882.4158	1403.0745	16129.3	15192.95
882.5595	1404.9204	16060.5	15126.55
882.7033	1406.7656	16074.75	15135.2
882.847	1408.6101	16054.5	15114.6
882.9908	1410.4538	16026.7	15087.3
883.1345	1412.2968	16057.9	15120.15
883.2782	1414.139	16070.25	15129.6
883.4219	1415.9805	16159.55	15222.15
883.5656	1417.8213	16207.8	15264
883.7092	1419.6613	16291.2	15357.9
883.8529	1421.5006	16433.1	15495.75
883.9965	1423.3391	16655.9	15719.8
884.1402	1425.1769	16994.85	16053.9
884.2838	1427.0139	17427.35	16491.1
884.4274	1428.8502	18005.5	17064
884.571	1430.6858	18527	17590.2
884.7146	1432.5206	18913.4	17977.2
884.8582	1434.3547	19167.05	18227
885.0018	1436.188	19192	18257.25
885.1453	1438.0206	19105.8	18167.3
885.2889	1439.8524	18889.85	17952.7
885.4324	1441.6835	18778.3	17839.85
885.5759	1443.5139	18698.45	17763
885.7194	1445.3435	18616.8	17683.4
885.8629	1447.1724	18572.5	17638
886.0064	1449.0005	18499.4	17563.05
886.1499	1450.8279	18363.45	17426.3
886.2933	1452.6545	18342.5	17408.85
886.4368	1454.4804	18377.3	17443.15
886.5802	1456.3056	18320.55	17380.9
886.7237	1458.13	18180.35	17250.1
886.8671	1459.9536	18034.1	17101.2
887.0105	1461.7766	17665.4	16730.05
887.1539	1463.5987	17228.25	16292.05
887.2972	1465.4202	16835.25	15897
887.4406	1467.2409	16451.1	15515.6
887.584	1469.0608	16182.5	15244.9
887.7273	1470.88	15940.5	15004.45
887.8706	1472.6984	15702.35	14771.45
888.0139	1474.5161	15462.45	14522.65
888.1572	1476.3331	15284.9	14349.6
888.3005	1478.1493	15131.25	14195.55
888.4438	1479.9648	15066.75	14131.75
888.5871	1481.7795	14969.15	14032.35
888.7303	1483.5935	14893.1	13955.65
888.8736	1485.4067	14823.1	13885.35
889.0168	1487.2192	14745.35	13810.35
889.16	1489.031	14689.05	13749.05
889.3032	1490.842	14660.1	13726.3
889.4464	1492.6522	14601.55	13667.1
889.5896	1494.4618	14550	13615.85
889.7327	1496.2705	14522.55	13589.35
889.8759	1498.0785	14481.2	13553.3
890.019	1499.8858	14433.25	13499.25
890.1622	1501.6924	14383.4	13450.05
890.3053	1503.4981	14344.2	13411.5
890.4484	1505.3032	14308.55	13374.45
890.5914	1507.1075	14233.95	13298.2
890.7345	1508.911	14225.15	13289.45
890.8776	1510.7138	14218	13286.3
891.0206	1512.5159	14152.15	13219.65
891.1637	1514.3172	14068.8	13138.15
891.3067	1516.1178	13978.2	13048.35
891.4497	1517.9176	13958.05	13023.35
891.5927	1519.7166	13887.25	12960.2
891.7357	1521.515	13856.8	12916.25
891.8786	1523.3126	13824.4	12894.8
892.0216	1525.1094	13762.5	12830.95
892.1645	1526.9055	13703.5	12774
892.3074	1528.7008	13651.9	12721.35
892.4503	1530.4954	13591.5	12659.35
892.5932	1532.2893	13582.85	12658
892.7361	1534.0824	13513.6	12584.1
892.879	1535.8747	13459.65	12534.3
893.0218	1537.6663	13455.6	12533.1
893.1647	1539.4572	13439.8	12513.3
893.3075	1541.2473	13428.6	12501.8
893.4503	1543.0367	13355.85	12428
893.5931	1544.8253	13337.05	12403.75
893.7359	1546.6132	13356.15	12423.8
893.8787	1548.4003	13294.55	12356.2
894.0214	1550.1867	13314.15	12379.75
894.1642	1551.9723	13307.05	12379.25
894.3069	1553.7572	13337.45	12412.8
894.4496	1555.5414	13369.8	12446.75
894.5923	1557.3247	13371.85	12449.55
894.735	1559.1074	13452.4	12533.8
894.8777	1560.8893	13494.9	12577.05
895.0204	1562.6705	13526.9	12606.85
895.163	1564.4509	13598.7	12678.25
895.3056	1566.2305	13627.95	12716
895.4482	1568.0094	13716.3	12802.5
895.5908	1569.7876	13724.3	12805.45
895.7334	1571.565	13754.2	12835.8
895.876	1573.3417	13725.85	12807
896.0186	1575.1176	13701.4	12783.95
896.1611	1576.8928	13655	12741.9
896.3036	1578.6672	13541.8	12632.05
896.4461	1580.4409	13443.45	12535.5
896.5886	1582.2138	13293.1	12378.2
896.7311	1583.986	13187.1	12274.35
896.8736	1585.7575	13130.05	12216
897.0161	1587.5282	13044.75	12135
897.1585	1589.2981	12994.8	12085.2
897.3009	1591.0673	12951.3	12042.9
897.4433	1592.8358	12932.9	12023
897.5857	1594.6035	12945.4	12031.05
897.7281	1596.3704	12935.45	12020.4
897.8705	1598.1366	12952	12038
898.0128	1599.9021	12961.05	12051.45
898.1551	1601.6668	12994.1	12082.5
898.2975	1603.4308	13060.3	12145.65
898.4398	1605.194	13110.45	12195.3
898.5821	1606.9564	13211	12306.2
898.7243	1608.7182	13343.5	12438.9
898.8666	1610.4791	13476.6	12581.1
899.0088	1612.2394	13593.3	12699.05
899.1511	1613.9988	13725.9	12826.7
899.2933	1615.7576	13993.65	13089.1
899.4355	1617.5156	14181.15	13265.1
899.5776	1619.2728	14348.45	13432.7
899.7198	1621.0293	14468.1	13554.5
899.862	1622.785	14490.35	13577.45
900.0041	1624.54	14371.15	13464.75
900.1462	1626.2942	14215.95	13312.3
900.2883	1628.0477	13946.8	13040.65
900.4304	1629.8005	13678.4	12766.9
900.5725	1631.5525	13457.9	12555.8
900.7145	1633.3037	13267.55	12364.95
900.8566	1635.0542	13128.85	12227
900.9986	1636.804	12996.45	12089.6
901.1406	1638.553	12984.05	12000
901.2826	1640.3013	12865.65	11958.85
901.4245	1642.0488	12834.75	11929.5
901.5665	1643.7955	12840.95	11937.75
901.7085	1645.5416	12859.1	11958.35
901.8504	1647.2868	12938.75	12035.15
901.9923	1649.0313	13020.75	12112.3
902.1342	1650.7751	13160.75	12251.05
902.2761	1652.5181	13299.05	12395.45
902.4179	1654.2604	13482.5	12582.2
902.5598	1656.0019	13703.4	12802.9
902.7016	1657.7427	14015.9	13114.3
902.8434	1659.4828	14331.25	13426.4
902.9852	1661.222	14472.15	13565.85
903.127	1662.9606	14446.5	13542.1
903.2687	1664.6984	14250.15	13341.9
903.4105	1666.4354	13846.6	12935.6
903.5522	1668.1717	13357.95	12448.95
903.6939	1669.9072	12835.2	11922.9
903.8356	1671.642	12413.45	11503.1
903.9773	1673.3761	12053.9	11146.8
904.119	1675.1094	11776	10874.4
904.2606	1676.8419	11533.9	10628.25
904.4022	1678.5737	11370.15	10463.3
904.5439	1680.3048	11249.85	10342.15
904.6855	1682.0351	11123.5	10216.75
904.827	1683.7646	11002	10092.85
904.9686	1685.4934	10935.85	10031.1
905.1101	1687.2215	10837.2	9933.6
905.2517	1688.9488	10748.95	9846.85
905.3932	1690.6754	10691.3	9789.55
905.5347	1692.4012	10641.85	9737.35
905.6761	1694.1263	10598.05	9692.9
905.8176	1695.8506	10551.55	9645.35
905.9591	1697.5742	10493.7	9590.4
906.1005	1699.297	10423.9	9525
906.2419	1701.0191	10392.3	9496.5
906.3833	1702.7404	10352.85	9455
906.5246	1704.461	10263	9360.1
906.666	1706.1808	10223.6	9320.8
906.8073	1707.8999	10217.55	9318.1
906.9487	1709.6182	10153.05	9254.4
907.09	1711.3358	10135.7	9240.05
907.2313	1713.0527	10078.85	9184.3
907.3725	1714.7688	10059.7	9157.65
907.5138	1716.4841	10028.05	9126.7
907.655	1718.1987	9990.8	9086.1
907.7962	1719.9126	9954.25	9060.55
907.9374	1721.6257	9908.05	9011.65
908.0786	1723.338	9899.15	9005
908.2198	1725.0496	9825.9	8929.4
908.3609	1726.7605	9825.6	8927.9
908.502	1728.4706	9755.2	8856.8
908.6431	1730.18	9714.85	8816.6
908.7842	1731.8886	9687.85	8795.05
908.9253	1733.5964	9661.4	8760.95
909.0664	1735.3036	9644.15	8746
909.2074	1737.0099	9624.9	8729.75
909.3484	1738.7156	9578	8684.65
909.4894	1740.4204	9571.8	8674.05
909.6304	1742.1246	9537.65	8639.55
909.7714	1743.8279	9474.65	8582.45
909.9123	1745.5306	9464.3	8569.55
910.0532	1747.2325	9424.8	8532.25
910.1941	1748.9336	9372.1	8477
910.335	1750.634	9368.35	8469.2
910.4759	1752.3336	9338.8	8441.7
910.6168	1754.0325	9318.3	8426.2
910.7576	1755.7307	9275	8379.55
910.8984	1757.4281	9284.3	8389.7
911.0392	1759.1247	9284.45	8376.25
911.18	1760.8206	9277.75	8372.65
911.3208	1762.5158	9250.45	8347
911.4615	1764.2102	9191.5	8294
911.6022	1765.9039	9156.65	8262.4
911.7429	1767.5968	9141	8246.65
911.8836	1769.289	9095	8202.45
912.0243	1770.9804	9058.1	8162.1
912.1649	1772.6711	9065.4	8166.4
912.3056	1774.361	9045.95	8146.2
912.4462	1776.0502	9033.8	8135.65
912.5868	1777.7386	9008.25	8106.25
912.7274	1779.4263	8965.7	8068.2
912.8679	1781.1132	8964.2	8073.25
913.0084	1782.7994	8923.4	8030.75
913.149	1784.4849	8900.75	8011.5
913.2895	1786.1696	8852.1	7953.7
913.4299	1787.8535	8844.8	7953.05
913.5704	1789.5367	8845.15	7954.95
913.7108	1791.2192	8814.25	7921.5
913.8513	1792.9009	8819.75	7899.9
913.9917	1794.5818	8784.9	7886.15
914.132	1796.2621	8762.8	7867.65
914.2724	1797.9415	8716.95	7822.8
914.4128	1799.6202	8713.3	7816.5
914.5531	1801.2982	8712	7815.95
914.6934	1802.9755	8683.15	7785
914.8337	1804.6519	8668.95	7775.65
914.9739	1806.3277	8604.45	7711.3
915.1142	1808.0027	8577.7	7688.15
915.2544	1809.6769	8560.3	7670.3
915.3946	1811.3504	8527.6	7636.4
915.5348	1813.0231	8522.95	7633.15
915.675	1814.6951	8516.45	7626.4
915.8151	1816.3664	8502.1	7605.4
915.9553	1818.0369	8499.55	7604.05
916.0954	1819.7067	8487.45	7592.6
916.2355	1821.3757	8467.3	7565.75
916.3755	1823.044	8453.15	7556.25
916.5156	1824.7115	8414.1	7515.1
916.6556	1826.3783	8381.95	7486.15
916.7956	1828.0443	8361.05	7466.9
916.9356	1829.7096	8334.7	7437.8
917.0756	1831.3741	8325.5	7428.6
917.2155	1833.0379	8287.6	7396.5
917.3555	1834.701	8275.1	7386.55
917.4954	1836.3633	8279.35	7389.65
917.6353	1838.0248	8233.55	7339.85
917.7751	1839.6856	8227.55	7333.7
917.915	1841.3457	8214.1	7321.45
918.0548	1843.005	8176.8	7285.45
918.1946	1844.6636	8181.6	7288.25
918.3344	1846.3214	8164.8	7269.45
918.4742	1847.9785	8140.5	7249.35
918.6139	1849.6349	8163.25	7266.25
918.7537	1851.2904	8125.6	7217.75
918.8934	1852.9453	8083.25	7185.45
919.0331	1854.5994	8067.05	7168.45
919.1727	1856.2528	8069.45	7169.95
919.3124	1857.9054	8043.2	7146.65
919.452	1859.5572	8034.9	7143.85
919.5916	1861.2083	8011.85	7116.5
919.7312	1862.8587	8011.3	7115.3
919.8708	1864.5084	7978.65	7083.6
920.0103	1866.1572	7973.6	7076.4
920.1498	1867.8054	7947.3	7050.9
920.2893	1869.4528	7934.2	7035.7
920.4288	1871.0994	7892.2	6997.9
920.5683	1872.7453	7866	6968.3
920.7077	1874.3905	7879.05	6967.2
920.8471	1876.0349	7844.1	6950.5
920.9865	1877.6786	7828.15	6931.15
921.1259	1879.3215	7816.35	6920.35
921.2653	1880.9637	7821.9	6930.05
921.4046	1882.6051	7799.75	6907.7
921.5439	1884.2458	7773.35	6879.5
921.6832	1885.8858	7736.05	6844
921.8225	1887.525	7730.45	6837.1
921.9617	1889.1634	7689.9	6795
922.101	1890.8011	7667.9	6772.4
922.2402	1892.4381	7639.1	6746.15
922.3794	1894.0743	7641.1	6749.3
922.5185	1895.7098	7625.35	6729.95
922.6577	1897.3446	7595.55	6700.55
922.7968	1898.9786	7578.4	6682.5
922.9359	1900.6118	7578.35	6684.65
923.075	1902.2443	7525.8	6632.4
923.214	1903.8761	7518	6624.25
923.3531	1905.5071	7469.35	6575.45
923.4921	1907.1374	7450.5	6557.15
923.6311	1908.7669	7448.8	6556.6
923.77	1910.3957	7425.6	6531.25
923.909	1912.0237	7402.25	6507.5
924.0479	1913.651	7376.35	6482.8
924.1868	1915.2776	7350.55	6460.6
924.3257	1916.9034	7346.85	6456
924.4646	1918.5285	7308.4	6419.4
924.6034	1920.1528	7270.8	6377.1
924.7422	1921.7764	7267.9	6377.2
924.881	1923.3992	7214.55	6319.15
925.0198	1925.0213	7187.2	6295.2
925.1586	1926.6427	7151.6	6261.55
925.2973	1928.2633	7231.8	6236.05
925.436	1929.8832	7154.75	6260.45
925.5747	1931.5023	7115.25	6222.8
925.7134	1933.1207	7093.25	6201.05
925.852	1934.7383	7083.35	6191.65
925.9906	1936.3552	7048.05	6156.8
926.1292	1937.9714	7022.15	6130.85
926.2678	1939.5868	6999	6104.25
926.4064	1941.2015	6962.85	6069.15
926.5449	1942.8154	6956.85	6059.35
926.6834	1944.4286	6925.65	6031.35
926.8219	1946.041	6926.55	6006
926.9604	1947.6528	6873.1	5976.85
927.0988	1949.2637	6861.55	5968.6
927.2372	1950.8739	6835.6	5942.45
927.3756	1952.4834	6833.3	5941.45
927.514	1954.0921	6821.85	5931.85
927.6523	1955.7001	6798.2	5903.1
927.7907	1957.3074	6767	5878.65
927.929	1958.9139	6723.35	5837.1
928.0673	1960.5197	6716.8	5825.8
928.2055	1962.1247	6682.9	5794.7
928.3438	1963.729	6646.3	5760.55
928.482	1965.3325	6641.45	5749.15
928.6202	1966.9353	6612.65	5724.75
928.7584	1968.5374	6599.75	5712.15
928.8965	1970.1387	6586.75	5698.35
929.0346	1971.7393	6539.95	5650
929.1727	1973.3392	6534.15	5643.45
929.3108	1974.9383	6501.65	5614.35
929.4489	1976.5366	6490.65	5603.55
929.5869	1978.1342	6464.55	5576.55
929.7249	1979.7311	6468.2	5581.05
929.8629	1981.3273	6450.3	5564.6
930.0009	1982.9227	6404.15	5518.1
930.1388	1984.5173	6400.4	5515
930.2767	1986.1112	6378.4	5494.3
930.4146	1987.7044	6368.95	5485
930.5525	1989.2968	6316.8	5429.25
930.6904	1990.8885	6335.9	5446.35
930.8282	1992.4795	6326.35	5442.6
930.966	1994.0697	6287.55	5404.1
931.1038	1995.6592	6282.5	5398.65
931.2415	1997.2479	6255	5368.2
931.3793	1998.8359	6246.35	5361.1
931.517	2000.4232	6182.95	5303.05
931.6547	2002.0097	6181.05	5304.1
931.7923	2003.5955	6166.7	5284.75
931.93	2005.1805	6177.7	5296.65
932.0676	2006.7648	6144.35	5265.6
932.2052	2008.3484	6131.1	5248.65
932.3427	2009.9312	6127.15	5245.15
932.4803	2011.5133	6096.35	5218.95
932.6178	2013.0946	6085.05	5206.3
932.7553	2014.6752	6074.1	5193.8
932.8928	2016.2551	6064.3	5181.9
933.0302	2017.8342	6023.65	5141.45
933.1676	2019.4126	6007.4	5127.15
933.305	2020.9902	5991.6	5113.35
933.4424	2022.5672	5963.6	5083.5
933.5798	2024.1433	5968.8	5084.85
933.7171	2025.7188	5933.55	5057.7
933.8544	2027.2935	5940.95	5062.9
933.9917	2028.8674	5903	5024.75
934.129	2030.4406	5892.4	5016.6
934.2662	2032.0131	5866.8	4990.65
934.4034	2033.5849	5858.55	4977.95
934.5406	2035.1559	5837.3	4959.8
934.6778	2036.7261	5824.3	4945.8
934.8149	2038.2957	5829.75	4944.1
934.952	2039.8645	5797.75	4914.55
935.0891	2041.4325	5812.4	4925.4
935.2262	2042.9998	5779.7	4898.3
935.3632	2044.5664	5770.7	4889.3
935.5002	2046.1323	5745.5	4865.6
935.6372	2047.6974	5727.45	4850.15
935.7742	2049.2617	5720.35	4840.7
935.9111	2050.8254	5712.5	4826.9
936.048	2052.3883	5713.6	4832.05
936.1849	2053.9504	5692.15	4807.6
936.3218	2055.5118	5678.4	4794.65
936.4586	2057.0725	5649.4	4763.75
936.5955	2058.6325	5647.6	4766.4
936.7323	2060.1917	5617.95	4738.1
936.869	2061.7502	5625.35	4742.55
937.0058	2063.3079	5581.6	4705.8
937.1425	2064.8649	5555.8	4672.6
937.2792	2066.4212	5564.25	4682.75
937.4159	2067.9767	5552.85	4671.5
937.5525	2069.5315	5532.45	4651.7
937.6891	2071.0856	5519.7	4639
937.8257	2072.6389	5493.65	4612.75
937.9623	2074.1915	5464	4584.7
938.0989	2075.7433	5423.75	4542.1
938.2354	2077.2945	5441.25	4561.5
938.3719	2078.8448	5409.5	4525.1
938.5084	2080.3945	5398.6	4514.9
938.6448	2081.9434	5399.35	4514.35
938.7812	2083.4916	5383.4	4498.8
938.9176	2085.039	5368.25	4477.6
939.054	2086.5857	5342.75	4452.55
939.1903	2088.1317	5361.15	4471.4
939.3267	2089.677	5322.65	4430.05
939.463	2091.2215	5335.75	4445.2
939.5992	2092.7652	5296.15	4403.25
939.7355	2094.3083	5276.55	4385.15
939.8717	2095.8506	5274.05	4388.45
940.0079	2097.3921	5271.8	4386
940.1441	2098.933	5252.35	4366.4
940.2802	2100.4731	5229.75	4345.5
940.4163	2102.0124	5250.8	4347.6
940.5524	2103.5511	5219.65	4331.6
940.6885	2105.089	5215.05	4327.8
940.8245	2106.6261	5212.2	4328.1
940.9606	2108.1626	5188.85	4303.15
941.0965	2109.6983	5200.95	4288.1
941.2325	2111.2332	5167	4281.3
941.3684	2112.7675	5155.35	4266.95
941.5044	2114.301	5154.2	4266.65
941.6403	2115.8337	5141.6	4254.4
941.7761	2117.3657	5120.4	4235.95
941.912	2118.897	5097.85	4208.55
942.0478	2120.4276	5105.15	4213.15
942.1835	2121.9575	5056.1	4167.7
942.3193	2123.4866	5076	4173.5
942.455	2125.0149	5069.3	4181.7
942.5907	2126.5426	5026.2	4144.85
942.7264	2128.0695	5023.75	4136.6
942.8621	2129.5956	5008.15	4130.9
942.9977	2131.1211	5011.05	4124.25
943.1333	2132.6458	4983.95	4100.15
943.2689	2134.1698	4990.95	4101.4
943.4044	2135.693	4971.2	4080.35
943.54	2137.2155	4951.55	4057.8
943.6755	2138.7373	4957.75	4072.05
943.8109	2140.2584	4928.4	4044.65
943.9464	2141.7787	4921	4035.1
944.0818	2143.2983	4885.8	4008.85
944.2172	2144.8171	4870.55	3994.2
944.3526	2146.3353	4862.6	3979.9
944.4879	2147.8527	4856.65	3974.35
944.6232	2149.3693	4853.55	3966.65
944.7585	2150.8853	4840.1	3953.2
944.8938	2152.4005	4823.2	3935.1
945.029	2153.9149	4817.4	3928.65
945.1642	2155.4287	4800.4	3910.2
945.2994	2156.9417	4793.2	3903.3
945.4346	2158.454	4778.55	3893.7
945.5697	2159.9655	4747.55	3863.95
945.7048	2161.4764	4768.4	3883.65
945.8399	2162.9865	4741.45	3858.1
945.9749	2164.4958	4738.75	3855.35
946.1099	2166.0045	4706.05	3819.4
946.2449	2167.5124	4720.3	3835.55
946.3799	2169.0195	4696.6	3810.4
946.5148	2170.526	4714.15	3826.5
946.6498	2172.0317	4674.25	3788.75
946.7846	2173.5367	4661.3	3775.4
946.9195	2175.0409	4656.85	3772.5
947.0543	2176.5445	4655.75	3769.3
947.1891	2178.0473	4648.7	3760.7
947.3239	2179.5494	4631.6	3739.2
947.4587	2181.0507	4600.8	3713.8
947.5934	2182.5513	4584.8	3699.55
947.7281	2184.0512	4584.95	3696.85
947.8628	2185.5504	4579.8	3693.65
947.9974	2187.0488	4554.7	3671.3
948.132	2188.5465	4544.5	3661.05
948.2666	2190.0435	4523.95	3639.05
948.4012	2191.5397	4520	3630.65
948.5357	2193.0353	4509.8	3620.45
948.6702	2194.5301	4507.75	3617.9
948.8047	2196.0241	4487.95	3597.1
948.9392	2197.5175	4478.4	3590.05
949.0736	2199.0101	4473.8	3579.2
949.208	2200.502	4438.4	3550
949.3424	2201.9931	4403.7	3521.6
949.4767	2203.4835	4412.8	3528.45
949.611	2204.9733	4405.6	3518.3
949.7453	2206.4622	4401.95	3519
949.8796	2207.9505	4359.55	3474.95
950.0138	2209.438	4345.85	3464.2
950.148	2210.9248	4351.15	3467.3
950.2822	2212.4109	4333.7	3447.35
950.4164	2213.8962	4338.4	3447.1
950.5505	2215.3809	4329.3	3437.95
950.6846	2216.8648	4317.25	3426.95
950.8186	2218.3479	4303.9	3406.15
950.9527	2219.8304	4289.3	3391.65
951.0867	2221.3121	4264.15	3368.4
951.2207	2222.7931	4263.85	3372.75
951.3546	2224.2733	4243.8	3353.25
951.4886	2225.7529	4235.95	3348.25
951.6225	2227.2317	4228.05	3340.35
951.7563	2228.7098	4221	3339.5
951.8902	2230.1872	4186.55	3303.35
952.024	2231.6638	4194.85	3309.65
952.1578	2233.1397	4174.2	3287.55
952.2916	2234.6149	4158.35	3274.05
952.4253	2236.0894	4144.15	3259.25
952.559	2237.5632	4159.65	3265.2
952.6927	2239.0362	4124.2	3240.95
952.8263	2240.5085	4130.75	3246.15
952.9599	2241.9801	4117.3	3228.9
953.0935	2243.4509	4087.65	3197.9
953.2271	2244.921	4097.2	3204.6
953.3606	2246.3904	4084.25	3190.05
953.4941	2247.8591	4063.75	3175.3
953.6276	2249.3271	4048.6	3160.9
953.7611	2250.7943	4036.65	3146.65
953.8945	2252.2608	4050.1	3161.9
954.0279	2253.7266	4013.15	3124.15
954.1612	2255.1917	4007.75	3120.15
954.2946	2256.656	3999.5	3111.3
954.4279	2258.1197	3972.45	3088.2
954.5612	2259.5826	3962.1	3073.75
954.6944	2261.0447	3968.7	3080.3
954.8276	2262.5062	3960.55	3068.85
954.9608	2263.9669	3956	3061.55
955.094	2265.4269	3935.4	3046.7
955.2271	2266.8862	3937.35	3050.6
955.3602	2268.3448	3926.7	3043.5
955.4933	2269.8026	3927.3	3041.1
955.6264	2271.2598	3914	3028.6
955.7594	2272.7162	3893.2	3009.25
955.8924	2274.1719	3883.75	2993.95
956.0253	2275.6268	3882.85	2992.9
956.1583	2277.0811	3880.9	2990.95
956.2912	2278.5346	3866.35	2980.15
956.4241	2279.9874	3843.7	2958.15
956.5569	2281.4395	3853	2970.8
956.6897	2282.8908	3844.8	2952.4
956.8225	2284.3414	3837.35	2947.1
956.9553	2285.7914	3823.9	2937.6
957.088	2287.2406	3806.65	2915.4
957.2207	2288.689	3812.85	2921.95
957.3534	2290.1368	3808.35	2914.7
957.486	2291.5838	3792.75	2896.1
957.6186	2293.0302	3795	2901.05
957.7512	2294.4758	3769.9	2877.75
957.8838	2295.9206	3765.65	2875.5
958.0163	2297.3648	3745.5	2857.85
958.1488	2298.8082	3733.45	2845.65
958.2813	2300.251	3723.95	2837
958.4137	2301.693	3738.45	2843.5
958.5461	2303.1343	3725.8	2834.75
958.6785	2304.5748	3702	2815.05
958.8108	2306.0147	3693.6	2807.45
958.9432	2307.4538	3680.65	2793.3
959.0754	2308.8922	3662.45	2778.1
959.2077	2310.3299	3671.55	2788.2
959.3399	2311.7669	3663.4	2777.4
959.4721	2313.2031	3653.6	2768.4
959.6043	2314.6387	3641.1	2751.45
959.7365	2316.0735	3632.35	2743.1
959.8686	2317.5076	3630.8	2741.45
960.0006	2318.941	3629.25	2737.5
960.1327	2320.3737	3622.75	2732.15
960.2647	2321.8056	3605.75	2714.55
960.3967	2323.2369	3579.45	2690.7
960.5287	2324.6674	3574.75	2684.4
960.6606	2326.0972	3581.9	2691.75
960.7925	2327.5263	3561.4	2672.55
960.9244	2328.9547	3548.2	2658.45
961.0562	2330.3823	3547.7	2657.85
961.1881	2331.8092	3549.4	2653.95
961.3198	2333.2355	3519.1	2625.7
961.4516	2334.661	3520.85	2628.85
961.5833	2336.0858	3538.65	2646.7
961.715	2337.5098	3515.75	2626.55
961.8467	2338.9332	3506.35	2613.35
961.9783	2340.3558	3492.95	2600.7
962.1099	2341.7778	3479.25	2592.9
962.2415	2343.199	3473.3	2586.55
962.373	2344.6195	3472.9	2588.3
962.5045	2346.0393	3456.9	2569.7
962.636	2347.4583	3462.85	2575.95
962.7675	2348.8767	3444.15	2553.5
962.8989	2350.2943	3453.2	2561.35
963.0303	2351.7113	3452.3	2560.85
963.1617	2353.1275	3434.9	2544.1
963.293	2354.543	3429.1	2528.35
963.4243	2355.9578	3429.55	2540
963.5556	2357.3718	3403.85	2518.1
963.6868	2358.7852	3399.85	2513.65
963.818	2360.1978	3379.4	2491.2
963.9492	2361.6098	3366.2	2480.4
964.0803	2363.021	3358.65	2467.35
964.2114	2364.4315	3356.55	2469.3
964.3425	2365.8413	3344.9	2458.25
964.4736	2367.2504	3335.3	2451.6
964.6046	2368.6587	3340.6	2455.5
964.7356	2370.0664	3305.5	2417.85
964.8666	2371.4733	3309.7	2422.15
964.9975	2372.8795	3297.25	2412.15
965.1284	2374.285	3302.2	2415.6
965.2593	2375.6899	3282.85	2397.85
965.3901	2377.0939	3265.95	2379.5
965.5209	2378.4973	3260.95	2377.35
965.6517	2379.9	3241.85	2358.4
965.7825	2381.3019	3229.55	2346.85
965.9132	2382.7032	3223.05	2338.35
966.0439	2384.1037	3223.65	2343.4
966.1745	2385.5035	3207.75	2326.3
966.3051	2386.9027	3210.9	2331.15
966.4357	2388.3011	3212.65	2326.05
966.5663	2389.6987	3190.25	2307.85
966.6968	2391.0957	3181.45	2297.7
966.8273	2392.492	3177.65	2296.45
966.9578	2393.8876	3164.2	2280.15
967.0882	2395.2824	3147.75	2264.5
967.2186	2396.6765	3137.65	2254.1
967.349	2398.07	3132.1	2248.35
967.4793	2399.4627	3133.25	2246.15
967.6097	2400.8547	3126.35	2239.8
967.7399	2402.246	3127.55	2238.45
967.8702	2403.6366	3108.55	2224.05
968.0004	2405.0265	3074.35	2191.45
968.1306	2406.4156	3088.1	2199.8
968.2607	2407.8041	3087.05	2202.7
968.3909	2409.1918	3064.15	2178.8
968.521	2410.5789	3056.3	2172.75
968.651	2411.9652	3051.75	2161.3
968.781	2413.3508	3051	2167.7
968.911	2414.7358	3047.15	2163.2
969.041	2416.12	3031	2147.95
969.1709	2417.5035	3027.15	2145.7
969.3008	2418.8863	3015.6	2129.8
969.4307	2420.2684	3008.2	2124.4
969.5606	2421.6497	2996.35	2112.05
969.6904	2423.0304	2976.6	2092.25
969.8201	2424.4104	2985.95	2103.6
969.9499	2425.7896	2986.55	2100.65
970.0796	2427.1682	2971.4	2087.95
970.2093	2428.546	2969.85	2084.25
970.3389	2429.9232	2965.4	2078.45
970.4685	2431.2996	2948.8	2065.05
970.5981	2432.6753	2951.4	2068.6
970.7277	2434.0503	2939	2054.05
970.8572	2435.4246	2923.3	2035.75
970.9867	2436.7982	2924.05	2037
971.1161	2438.1711	2929.05	2047.6
971.2456	2439.5433	2901.15	2013.75
971.375	2440.9148	2913.15	2024.45
971.5043	2442.2856	2891.65	2008
971.6336	2443.6557	2891.95	2005.9
971.7629	2445.025	2888.05	2004.35
971.8922	2446.3937	2879.2	1992.85
972.0214	2447.7617	2877.7	1991.95
972.1506	2449.1289	2854	1969.5
972.2798	2450.4955	2861.85	1973.65
972.4089	2451.8613	2844.1	1960.7
972.538	2453.2265	2846.8	1963.95
972.6671	2454.5909	2844.65	1958.3
972.7961	2455.9546	2829.4	1944.4
972.9251	2457.3177	2823.1	1937.9
973.0541	2458.68	2826.8	1938.15
973.1831	2460.0416	2818.6	1933.1
973.312	2461.4025	2812.55	1924.25
973.4408	2462.7627	2817	1921.1
973.5697	2464.1222	2796.95	1916.8
973.6985	2465.4811	2792.05	1906.9
973.8273	2466.8392	2791.85	1907.1
973.956	2468.1966	2793.1	1907.45
974.0847	2469.5533	2794.3	1906.1
974.2134	2470.9093	2779.6	1893.15
974.3421	2472.2645	2764.15	1880.05
974.4707	2473.6191	2762.65	1878.55
974.5993	2474.973	2765.3	1879.85
974.7278	2476.3262	2751.55	1865.25
974.8563	2477.6787	2751.35	1867.1
974.9848	2479.0305	2732.7	1848.1
975.1132	2480.3816	2723.95	1837.35
975.2417	2481.7319	2714.15	1828.65
975.37	2483.0816	2714.1	1828.1
975.4984	2484.4306	2700.3	1813.85
975.6267	2485.7789	2704.05	1820.25
975.755	2487.1264	2701.2	1816.65
975.8833	2488.4733	2682.45	1799.5
976.0115	2489.8195	2686.1	1793.05
976.1397	2491.165	2680.7	1795.15
976.2678	2492.5097	2664.45	1778.6
976.3959	2493.8538	2647.6	1763.15
976.524	2495.1972	2646.25	1761.35
976.6521	2496.5398	2642.4	1755.7
976.7801	2497.8818	2636.7	1746.2
976.9081	2499.2231	2635.8	1749.75
977.036	2500.5637	2620.6	1732.6
977.164	2501.9035	2625.9	1735.2
977.2918	2503.2427	2622.35	1732.85
977.4197	2504.5812	2608.9	1724.1
977.5475	2505.919	2612.5	1724.95
977.6753	2507.256	2592.7	1705.9
977.8031	2508.5924	2605.6	1722.3
977.9308	2509.9281	2589.7	1698.95
978.0585	2511.2631	2575	1688.65
978.1861	2512.5974	2581.2	1697.7
978.3137	2513.9309	2566.8	1679.9
978.4413	2515.2638	2594.15	1674.55
978.5689	2516.596	2568.9	1683.2
978.6964	2517.9275	2554.8	1670.15
978.8239	2519.2583	2556.6	1669.75
978.9513	2520.5884	2539.95	1649.7
979.0788	2521.9178	2532.15	1646.85
979.2062	2523.2465	2514.25	1630.85
979.3335	2524.5745	2520.45	1635.15
979.4608	2525.9018	2526.1	1641.6
979.5881	2527.2284	2504.85	1619.4
979.7154	2528.5543	2500.45	1615.95
979.8426	2529.8796	2516.15	1631.95
979.9698	2531.2041	2498.6	1611.35
980.0969	2532.5279	2505.25	1620.35
980.224	2533.851	2496.5	1610.6
980.3511	2535.1735	2484.45	1600.6
980.4781	2536.4952	2477.35	1591
980.6052	2537.8163	2488.45	1599.3
980.7321	2539.1366	2481.15	1596
980.8591	2540.4562	2472.75	1584.85
980.986	2541.7752	2466.75	1581.25
981.1129	2543.0935	2468.6	1581.65
981.2397	2544.411	2461.35	1574.6
981.3665	2545.7279	2456.85	1571.75
981.4933	2547.0441	2453.55	1567.9
981.62	2548.3596	2446.85	1557.3
981.7467	2549.6744	2441.5	1554.6
981.8734	2550.9885	2444.45	1548.85
982.0001	2552.3019	2433.75	1546.95
982.1267	2553.6146	2425.4	1537.15
982.2532	2554.9266	2430.95	1544.95
982.3798	2556.2379	2411.15	1521.55
982.5063	2557.5485	2421.3	1535.85
982.6327	2558.8585	2417.9	1523.2
982.7592	2560.1677	2425.35	1537.55
982.8856	2561.4762	2410.3	1524.05
983.0119	2562.7841	2398.8	1507.15
983.1383	2564.0913	2404.7	1520.05
983.2646	2565.3977	2392.1	1505.95
983.3908	2566.7035	2382.25	1493.45
983.517	2568.0086	2377.85	1489.1
983.6432	2569.313	2373.4	1486.1
983.7694	2570.6167	2372.4	1482.6
983.8955	2571.9197	2381.65	1492.85
984.0216	2573.222	2371.1	1480.7
984.1476	2574.5236	2367.7	1479.85
984.2737	2575.8246	2365.6	1478.95
984.3996	2577.1248	2364.4	1475.85
984.5256	2578.4244	2360.95	1474.05
984.6515	2579.7232	2360.8	1475.65
984.7774	2581.0214	2370.5	1457.7
984.9032	2582.3189	2360.95	1474.3
985.029	2583.6157	2360.55	1469.8
985.1548	2584.9118	2358.95	1470.9
985.2806	2586.2072	2344.4	1459.6
985.4063	2587.5019	2334.55	1448.1
985.5319	2588.7959	2337.1	1450.35
985.6576	2590.0893	2337.75	1448.45
985.7832	2591.3819	2334.95	1449.15
985.9087	2592.6739	2334.25	1447.55
986.0343	2593.9652	2343.6	1456.15
986.1597	2595.2557	2322.05	1432.35
986.2852	2596.5456	2326.05	1439.6
986.4106	2597.8348	2314.8	1428.6
986.536	2599.1234	2311.35	1426.5
986.6614	2600.4112	2298.85	1411.8
986.7867	2601.6983	2309.75	1421
986.912	2602.9848	2298.15	1411.15
987.0372	2604.2705	2297.75	1406.4
987.1624	2605.5556	2292.4	1405.65
987.2876	2606.84	2294.75	1408.2
987.4128	2608.1237	2274	1385.5
987.5379	2609.4067	2275.95	1389.85
987.6629	2610.689	2276.6	1378.7
987.788	2611.9707	2261.8	1372.05
987.913	2613.2516	2277.8	1385.8
988.0379	2614.5319	2256.85	1371
988.1629	2615.8115	2256.6	1370.55
988.2878	2617.0903	2243.75	1355.95
988.4126	2618.3685	2246.15	1361.1
988.5375	2619.6461	2245.55	1356.3
988.6622	2620.9229	2243.55	1357
988.787	2622.199	2231.35	1344.4
988.9117	2623.4745	2228.75	1341.45
989.0364	2624.7493	2221.3	1334.3
989.161	2626.0234	2216.3	1329.4
989.2857	2627.2968	2211.9	1326.4
989.4102	2628.5695	2208.75	1320.35
989.5348	2629.8415	2197.25	1310.35
989.6593	2631.1128	2212.65	1325.8
989.7837	2632.3835	2196.4	1309.75
989.9082	2633.6535	2193.2	1304.9
990.0326	2634.9228	2199	1310.8
990.1569	2636.1914	2180.2	1294.8
990.2812	2637.4593	2179.75	1290.65
990.4055	2638.7265	2186.95	1298.65
990.5298	2639.9931	2180.7	1295.1
990.654	2641.259	2176.9	1291.8
990.7782	2642.5242	2176.1	1288.95
990.9023	2643.7887	2159.65	1273
991.0264	2645.0525	2165.55	1278.7
991.1505	2646.3156	2157.55	1270.45
991.2745	2647.5781	2152.45	1266.2
991.3985	2648.8398	2138.9	1251.6
991.5225	2650.1009	2143.7	1249.55
991.6464	2651.3613	2136	1251.7
991.7703	2652.6211	2134.2	1248.2
991.8942	2653.8801	2119.3	1233.5
992.018	2655.1385	2128.3	1238.4
992.1418	2656.3961	2131.2	1245.35
992.2655	2657.6531	2123.25	1238.6
992.3892	2658.9094	2113.75	1227.45
992.5129	2660.1651	2114.95	1230.5
992.6366	2661.42	2116.6	1229.8
992.7602	2662.6743	2129.25	1242.9
992.8837	2663.9279	2124.5	1239.5
993.0073	2665.1808	2113.25	1226.55
993.1307	2666.433	2108.8	1222.5
993.2542	2667.6846	2118.25	1232.05
993.3776	2668.9354	2106.4	1217.3
993.501	2670.1856	2098.85	1212.05
993.6244	2671.4351	2106.6	1219.15
993.7477	2672.6839	2110	1223.75
993.8709	2673.9321	2102.55	1216.45
993.9942	2675.1795	2108	1222.25
994.1174	2676.4263	2094.7	1207.55
994.2405	2677.6724	2094.35	1210.95
994.3637	2678.9179	2109	1223.6
994.4868	2680.1626	2102.85	1214.6
994.6098	2681.4067	2094.1	1208.05
994.7328	2682.6501	2091.6	1206.5
994.8558	2683.8928	2104.1	1220.7
994.9788	2685.1348	2084.75	1198.7
995.1017	2686.3761	2073.9	1188.5
995.2245	2687.6168	2067.05	1182.7
995.3474	2688.8568	2057.95	1173.15
995.4702	2690.0961	2063.45	1178.3
995.5929	2691.3348	2057.25	1170.7
995.7156	2692.5727	2049.45	1163.25
995.8383	2693.81	2044.25	1157.9
995.961	2695.0466	2030.35	1147.4
996.0836	2696.2826	2045.25	1158.25
996.2062	2697.5178	2044.2	1156
996.3287	2698.7524	2039.45	1154.25
996.4512	2699.9863	2043.4	1155.2
996.5737	2701.2195	2033.75	1151.15
996.6961	2702.452	2037.5	1149.3
996.8185	2703.6839	2040.2	1155.7
996.9408	2704.9151	2037.5	1151.25
997.0631	2706.1456	2040.6	1153.95
997.1854	2707.3755	2040.05	1155.2
997.3077	2708.6046	2059	1169.25
997.4299	2709.8331	2049.65	1161.5
997.552	2711.0609	2053.4	1168.35
997.6742	2712.2881	2059.95	1174.95
997.7963	2713.5145	2058.9	1172.45
997.9183	2714.7403	2072.65	1187.85
998.0403	2715.9654	2077.65	1191.55
998.1623	2717.1899	2101.6	1200.75
998.2842	2718.4136	2100.65	1215.5
998.4062	2719.6367	2103.55	1218
998.528	2720.8591	2119.15	1228.9
998.6498	2722.0809	2127.6	1241.35
998.7716	2723.3019	2123.15	1237.7
998.8934	2724.5223	2128.8	1243
999.0151	2725.7421	2125.85	1239.5
999.1368	2726.9611	2142.4	1252.95
999.2584	2728.1795	2134.7	1246.15
999.38	2729.3972	2116.85	1232.4
999.5016	2730.6142	2119.35	1225.9
999.6231	2731.8306	2089	1203.5
999.7446	2733.0462	2071.6	1185.8
999.8661	2734.2612	2054.2	1166.25
999.9875	2735.4756	2045.65	1157.95
1000.1089	2736.6892	2018.3	1132.15
1000.2302	2737.9022	1995.6	1112.5
1000.3515	2739.1145	1982	1097.4
1000.4728	2740.3262	1972.55	1079.15
1000.594	2741.5372	1952.55	1068.6
1000.7152	2742.7475	1941.1	1056.45
1000.8363	2743.9571	1941.1	1053.7
1000.9575	2745.1661	1926.3	1035.85
1001.0785	2746.3744	1906.45	1020.8
1001.1996	2747.582	1897.9	1014.55
1001.3206	2748.7889	1895.2	1009.35
1001.4415	2749.9952	1897.05	1010.65
1001.5625	2751.2008	1877.8	992.75
1001.6833	2752.4057	1879.25	992.8
1001.8042	2753.61	1861.3	976.9
1001.925	2754.8136	1860.25	974
1002.0458	2756.0165	1862	978.25
1002.1665	2757.2188	1855.55	973.2
1002.2872	2758.4204	1860.3	977.8
1002.4078	2759.6213	1842.35	955.7
1002.5285	2760.8215	1853.45	964.6
1002.649	2762.0211	1840.95	954.3
1002.7696	2763.22	1840.25	952.95
1002.8901	2764.4182	1838.75	951.5
1003.0106	2765.6158	1832.95	947.35
1003.131	2766.8127	1828.3	944.75
1003.2514	2768.009	1827.9	945.85
1003.3717	2769.2045	1821.55	936.8
1003.492	2770.3994	1818.2	930.85
1003.6123	2771.5936	1818.1	931.65
1003.7325	2772.7872	1800	916.4
1003.8527	2773.9801	1804.6	920.5
1003.9729	2775.1723	1810.8	910
1004.093	2776.3639	1791.45	906.2
1004.2131	2777.5548	1796.4	909
1004.3331	2778.745	1791.75	908.15
1004.4531	2779.9346	1791.45	910.65
1004.5731	2781.1235	1793.85	907.45
1004.693	2782.3117	1796.9	912.75
1004.8129	2783.4992	1796.65	912.8
1004.9328	2784.6861	1799.9	917.7
1005.0526	2785.8723	1802.85	918.55
1005.1723	2787.0579	1813.45	928.85
1005.2921	2788.2428	1814.8	931.25
1005.4118	2789.427	1814.75	931.45
1005.5314	2790.6106	1830.3	946.55
1005.651	2791.7935	1828.2	943.45
1005.7706	2792.9757	1835.9	953.7
1005.8902	2794.1573	1850	964.05
1006.0097	2795.3382	1853.3	969.5
1006.1291	2796.5184	1870.1	987.35
1006.2485	2797.698	1881.25	993.95
1006.3679	2798.8769	1893.9	1011.9
1006.4873	2800.0551	1909.15	1026.3
1006.6066	2801.2327	1928.35	1041.65
1006.7258	2802.4096	1944.6	1063.55
1006.8451	2803.5859	1948.85	1064.6
1006.9642	2804.7615	1978.25	1093.45
1007.0834	2805.9364	1986.85	1103.8
1007.2025	2807.1106	2011.85	1130.5
1007.3216	2808.2842	2049.75	1164.75
1007.4406	2809.4572	2074.4	1190.3
1007.5596	2810.6294	2112.35	1229.7
1007.6785	2811.801	2143.75	1260.35
1007.7975	2812.972	2188.6	1307.15
1007.9163	2814.1423	2227.1	1344.65
1008.0352	2815.3119	2283.5	1400.4
1008.154	2816.4808	2317.35	1435.2
1008.2727	2817.6491	2362.7	1477.15
1008.3914	2818.8167	2410.35	1528.1
1008.5101	2819.9837	2454.85	1566
1008.6288	2821.15	2501	1618.85
1008.7474	2822.3157	2549.5	1668.35
1008.8659	2823.4807	2594.7	1713.3
1008.9844	2824.645	2641.6	1757
1009.1029	2825.8086	2683.15	1801.85
1009.2214	2826.9716	2718.9	1835.65
1009.3398	2828.134	2758.55	1876.85
1009.4581	2829.2957	2805.15	1921.5
1009.5764	2830.4567	2837.75	1956.05
1009.6947	2831.617	2855.35	1969.6
1009.813	2832.7767	2856.6	1972.75
1009.9312	2833.9358	2851.15	1968.9
1010.0493	2835.0941	2862.3	1977.4
1010.1675	2836.2519	2841.5	1958.95
1010.2855	2837.4089	2828.65	1946.8
1010.4036	2838.5653	2816.5	1933.95
1010.5216	2839.7211	2808.95	1925.1
1010.6396	2840.8761	2823.3	1937.9
1010.7575	2842.0306	2849	1970.05
1010.8754	2843.1843	2879.35	1995.4
1010.9932	2844.3374	2929.8	2046.3
1011.111	2845.4899	2986.35	2102.95
1011.2288	2846.6417	3048.5	2168.55
1011.3465	2847.7928	3109.9	2229.25
1011.4642	2848.9433	3211.7	2331.2
1011.5818	2850.0931	3272.3	2390
1011.6995	2851.2422	3342.2	2458
1011.817	2852.3907	3407.9	2523
1011.9345	2853.5385	3478.25	2595.65
1012.052	2854.6857	3551.9	2644.35
1012.1695	2855.8323	3579.15	2699.15
1012.2869	2856.9781	3617.9	2736.2
1012.4042	2858.1233	3664.3	2782.9
1012.5216	2859.2679	3709.85	2830.15
1012.6389	2860.4118	3761.15	2879.35
1012.7561	2861.555	3783.05	2897.65
1012.8733	2862.6976	3828.05	2946.3
1012.9905	2863.8395	3866.4	2986.1
1013.1076	2864.9808	3882.9	3000.45
1013.2247	2866.1214	3890.35	3010.6
1013.3417	2867.2614	3920.8	3036.65
1013.4587	2868.4007	3922	3036.5
1013.5757	2869.5393	3932.05	3050
1013.6926	2870.6773	3953.3	3067.05
1013.8095	2871.8146	3959.7	3074.4
1013.9263	2872.9513	3962.5	3080.05
1014.0431	2874.0874	3947.5	3064.8
1014.1599	2875.2227	3950.6	3070.1
1014.2766	2876.3574	3919.2	3036.5
1014.3933	2877.4915	3886.8	3006.35
1014.51	2878.6249	3864.8	2984.1
1014.6266	2879.7577	3851.7	2969.05
1014.7431	2880.8898	3830.5	2940.7
1014.8596	2882.0212	3799.15	2917
1014.9761	2883.152	3812.15	2932.35
1015.0925	2884.2821	3777.15	2893.65
1015.2089	2885.4116	3765.95	2884.6
1015.3253	2886.5405	3768.55	2887.4
1015.4416	2887.6686	3781.55	2897.25
1015.5579	2888.7962	3799.45	2918.9
1015.6741	2889.923	3802	2920.5
1015.7903	2891.0493	3812.8	2933.2
1015.9065	2892.1748	3807.3	2924.7
1016.0226	2893.2997	3837.45	2956.85
1016.1387	2894.424	3834.2	2954.35
1016.2547	2895.5476	3855	2973.1
1016.3707	2896.6706	3882.5	3003.2
1016.4866	2897.7929	3907.05	3025
1016.6025	2898.9145	3926.2	3044.45
1016.7184	2900.0355	3965.45	3082.05
1016.8342	2901.1559	3999.75	3116.3
1016.95	2902.2756	4031.95	3151.2
1017.0658	2903.3946	4054.6	3173.75
1017.1815	2904.513	4072.15	3189.7
1017.2971	2905.6308	4101.25	3222.3
1017.4127	2906.7479	4134.6	3254.5
1017.5283	2907.8643	4133.85	3252.1
1017.6439	2908.9801	4157.95	3277.2
1017.7594	2910.0953	4161.5	3280.45
1017.8748	2911.2098	4163	3277.5
1017.9902	2912.3236	4174.2	3286.2
1018.1056	2913.4368	4147.4	3264.8
1018.2209	2914.5494	4133.2	3252.4
1018.3362	2915.6613	4104.3	3217.75
1018.4515	2916.7725	4077.35	3192.2
1018.5667	2917.8831	4041.65	3161.7
1018.6819	2918.9931	4008.4	3125.3
1018.797	2920.1024	3974.5	3093.5
1018.9121	2921.211	3949.25	3066.85
1019.0271	2922.319	3935.5	3055.3
1019.1421	2923.4264	3935	3052.85
1019.2571	2924.5331	3905.55	3024.7
1019.372	2925.6391	3897.8	3017.75
1019.4869	2926.7445	3878.8	2999.15
1019.6017	2927.8493	3876.6	2995.85
1019.7165	2928.9534	3876	2995.45
1019.8313	2930.0569	3874.8	2991.95
1019.946	2931.1597	3866.75	2986.05
1020.0606	2932.2619	3850.3	2969.2
1020.1753	2933.3634	3831.95	2950.85
1020.2899	2934.4643	3830.05	2945.4
1020.4044	2935.5645	3820.1	2936.35
1020.5189	2936.6641	3781.75	2897.75
1020.6334	2937.763	3727.75	2847.5
1020.7478	2938.8613	3680.8	2801.35
1020.8622	2939.959	3640.55	2752.6
1020.9765	2941.056	3569.15	2691.9
1021.0908	2942.1523	3473.75	2593.9
1021.2051	2943.248	3384.35	2504.05
1021.3193	2944.3431	3300	2421.55
1021.4334	2945.4375	3196.65	2315.95
1021.5476	2946.5313	3090.85	2212.3
1021.6617	2947.6244	2993.3	2111.15
1021.7757	2948.7169	2895.55	2015.15
1021.8897	2949.8087	2787.2	1905.35
1022.0037	2950.8999	2707.1	1827.3
1022.1176	2951.9904	2630.3	1749.55
1022.2315	2953.0803	2553.95	1673.85
1022.3453	2954.1696	2488.2	1608.5
1022.4591	2955.2582	2432.15	1554.5
1022.5728	2956.3462	2381.65	1502
1022.6865	2957.4335	2352.25	1470
1022.8002	2958.5202	2314.65	1433.7
1022.9138	2959.6062	2288.15	1408
1023.0274	2960.6916	2270	1390.65
1023.141	2961.7764	2249.05	1368.45
1023.2545	2962.8605	2231.15	1350.2
1023.3679	2963.9439	2215.95	1336.2
1023.4813	2965.0267	2200.6	1320.85
1023.5947	2966.1089	2209.7	1310.55
1023.708	2967.1905	2192.9	1315.7
1023.8213	2968.2714	2194.4	1316.25
1023.9346	2969.3516	2184.65	1305.55
1024.0478	2970.4312	2196.65	1311
1024.1609	2971.5102	2181.15	1300.9
1024.274	2972.5885	2171	1292.75
1024.3871	2973.6662	2186.35	1300.3
1024.5002	2974.7432	2182.65	1303.15
1024.6132	2975.8196	2170.15	1288.75
1024.7261	2976.8954	2150.8	1273.8
1024.839	2977.9705	2144.95	1265.25
1024.9519	2979.045	2145.65	1265.8
1025.0647	2980.1188	2114.2	1235.7
1025.1775	2981.192	2089.95	1212.7
1025.2902	2982.2645	2075.7	1196
1025.4029	2983.3364	2045.5	1166.6
1025.5156	2984.4077	2013.6	1134.2
1025.6282	2985.4783	1995.95	1111.6
1025.7407	2986.5483	1954.25	1075.5
1025.8532	2987.6177	1920.3	1040.9
1025.9657	2988.6864	1882.7	1002.6
1026.0782	2989.7545	1848.25	969.15
1026.1906	2990.8219	1824.75	948
1026.3029	2991.8887	1788.35	905.85
1026.4152	2992.9548	1747.5	866.3
1026.5275	2994.0204	1729.15	851.2
1026.6397	2995.0852	1689	812.45
1026.7519	2996.1495	1663.45	782.45
1026.864	2997.2131	1649.9	770.95
1026.9761	2998.276	1627	746.5
1027.0882	2999.3383	1600.15	720
1027.2002	3000.4	1586.95	705.75
1027.3122	3001.4611	1565.9	687.8
1027.4241	3002.5215	1555.1	675.85
1027.536	3003.5812	1530.25	651.25
1027.6478	3004.6404	1530.3	651.3
1027.7596	3005.6989	1526.25	646.65
1027.8714	3006.7567	1506.6	628.2
1027.9831	3007.8139	1536.3	625.35
1028.0947	3008.8705	1495.7	615.35
1028.2064	3009.9264	1487.65	604.05
1028.3179	3010.9818	1479.65	601.6
1028.4295	3012.0364	1471	591.7
1028.541	3013.0905	1470.2	589.85
1028.6524	3014.1439	1466.1	585.5
1028.7638	3015.1966	1465.25	588.5
1028.8752	3016.2487	1458.7	579.55
1028.9865	3017.3002	1459.75	579.3
1029.0978	3018.3511	1459.75	583.25
1029.209	3019.4013	1460.5	581.1
1029.3202	3020.4509	1453.55	575.1
1029.4314	3021.4998	1455.25	576.45
1029.5425	3022.5481	1452.75	573.8
1029.6535	3023.5958	1450.9	574.65
1029.7645	3024.6428	1457.65	577.9
1029.8755	3025.6892	1455.3	576.05
1029.9864	3026.735	1454.85	575.65
1030.0973	3027.7802	1445.95	566.55
1030.2082	3028.8247	1460.6	583.55
1030.319	3029.8685	1460.35	581.05
1030.4297	3030.9118	1460.75	579.8
1030.5404	3031.9544	1465.9	588.5
1030.6511	3032.9963	1462	583.6
1030.7617	3034.0376	1468.25	589.3
1030.8723	3035.0783	1474.4	592.3
1030.9829	3036.1184	1478.35	598.3
1031.0934	3037.1578	1481.7	603.7
1031.2038	3038.1966	1481.55	602.5
1031.3142	3039.2348	1475.9	597.2
1031.4246	3040.2723	1483.55	598.9
1031.5349	3041.3092	1483.7	605.35
1031.6452	3042.3455	1477.8	600.45
1031.7554	3043.3811	1478.15	600.15
1031.8656	3044.4161	1468.85	589.75
1031.9758	3045.4505	1463.9	585.75
1032.0859	3046.4842	1460.9	580.7
1032.1959	3047.5173	1454.05	578.05
1032.3059	3048.5498	1445.15	568.1
1032.4159	3049.5816	1442.95	565.2
1032.5258	3050.6128	1435.5	555.7
1032.6357	3051.6434	1431.3	550.55
1032.7455	3052.6734	1424.1	544.3
1032.8553	3053.7027	1414.65	537.05
1032.9651	3054.7314	1411.6	532.6
1033.0748	3055.7594	1409.3	531.6
1033.1845	3056.7868	1397.65	518.2
1033.2941	3057.8136	1400	522.15
1033.4037	3058.8398	1393.9	518.25
1033.5132	3059.8653	1372.4	493.55
1033.6227	3060.8902	1376.95	500.55
1033.7321	3061.9145	1370.4	491.45
1033.8415	3062.9381	1368	490.3
1033.9509	3063.9612	1373.6	479.7
1034.0602	3064.9835	1352.2	475.45
1034.1694	3066.0053	1351.95	473.1
1034.2787	3067.0264	1340.75	462.4
1034.3878	3068.0469	1333.8	454.15
1034.497	3069.0668	1325.6	443.75
1034.6061	3070.086	1321.35	444.85
1034.7151	3071.1046	1313.5	435.3
1034.8241	3072.1226	1297.95	419.95
1034.9331	3073.1399	1294	418.35
1035.042	3074.1567	1285.6	406.3
1035.1508	3075.1727	1282.3	403.65
1035.2597	3076.1882	1260.8	382.4
1035.3684	3077.203	1253.5	376.6
1035.4772	3078.2173	1250.95	373.2
1035.5859	3079.2308	1245.6	365.15
1035.6945	3080.2438	1239.85	360.25
1035.8031	3081.2561	1234.1	357.05
1035.9117	3082.2678	1228.45	350.95
1036.0202	3083.2789	1211.05	334.45
1036.1286	3084.2893	1201.65	324.5
1036.2371	3085.2991	1205.4	327.7
1036.3454	3086.3083	1200.75	319.4
1036.4538	3087.3169	1191.25	311.15
1036.562	3088.3248	1186.5	305.75
1036.6703	3089.3321	1182.5	305.05
1036.7785	3090.3388	1176.95	300.05
1036.8866	3091.3449	1172.95	293.8
1036.9948	3092.3503	1168.85	289.7
1037.1028	3093.3551	1157.25	280.45
1037.2108	3094.3593	1157.4	280.95
1037.3188	3095.3629	1162.8	286.6
1037.4267	3096.3658	1152.5	272.75
1037.5346	3097.3681	1150.95	272.45
1037.6425	3098.3698	1149.5	269.95
1037.7503	3099.3708	1148.1	264.55
1037.858	3100.3713	1140	263.85
1037.9657	3101.3711	1140.6	262.65
1038.0734	3102.3702	1272.8	257.25
1038.181	3103.3688	1134.25	257.5
1038.2886	3104.3667	1126.05	250.35
1038.3961	3105.364	1123.95	247.55
1038.5036	3106.3607	1127.25	247.5
1038.611	3107.3568	1127.85	250
1038.7184	3108.3522	1121.8	246.2
1038.8257	3109.347	1122.65	243.6
1038.933	3110.3412	1115.45	231.25
1039.0403	3111.3348	1111.95	235.9
1039.1475	3112.3277	1108.6	230.7
1039.2547	3113.32	1104.15	226.6
1039.3618	3114.3117	1106.85	229
1039.4689	3115.3028	1106.25	230.15
1039.5759	3116.2932	1105.85	227.4
1039.6829	3117.2831	1112.75	229.1
1039.7898	3118.2723	1101.45	225.6
1039.8967	3119.2608	1094.7	217.8
1040.0035	3120.2488	1094.35	217.65
1040.1103	3121.2361	1095.5	219.75
1040.2171	3122.2229	1095.65	219
1040.3238	3123.209	1094.9	216.3
1040.4305	3124.1944	1085.9	209.55
1040.5371	3125.1793	1086.9	206.8
1040.6437	3126.1635	1086.7	208.8
1040.7502	3127.1471	1086.3	208.65
1040.8567	3128.1301	1078.7	202.6
1040.9631	3129.1125	1084.65	209.25
1041.0695	3130.0942	1080.25	203.2
1041.1759	3131.0753	1088.9	204.05
1041.2822	3132.0558	1082.95	205.45
1041.3884	3133.0357	1078.6	200.6
1041.4946	3134.015	1071.5	194.85
1041.6008	3134.9936	1075.35	196.4
1041.7069	3135.9716	1089.2	189.65
1041.813	3136.949	1072.8	194.95
1041.919	3137.9258	1087	190.45
1042.025	3138.902	1073.25	192.85
1042.1309	3139.8775	1071	196
1042.2368	3140.8524	1063.5	187.5
1042.3427	3141.8267	1063.85	185.1
1042.4485	3142.8004	1064.05	187.55
1042.5542	3143.7735	1065.75	182.15
1042.6599	3144.7459	1068.4	189.3
1042.7656	3145.7178	1060.15	181.6
1042.8712	3146.689	1056.75	181.85
1042.9768	3147.6596	1058	177.85
1043.0823	3148.6295	1053.4	176.4
1043.1878	3149.5989	1051.3	176
1043.2932	3150.5676	1050.65	176.25
1043.3986	3151.5357	1049.15	174.65
1043.5039	3152.5032	1049.45	175.8
1043.6092	3153.4701	1051.75	176.3
1043.7145	3154.4364	1054.95	173.95
1043.8197	3155.402	1046	171.05
1043.9248	3156.367	1046.35	167.4
1044.03	3157.3315	1073.25	168.1
1044.135	3158.2952	1044.8	169.95
1044.24	3159.2584	1039.7	164
1044.345	3160.221	1037.3	159.8
1044.4499	3161.1829	1034.9	158.75
1044.5548	3162.1442	1037.5	162.4
1044.6596	3163.105	1038.15	160.65
1044.7644	3164.065	1034.4	154.55
1044.8692	3165.0245	1033.8	154.4
1044.9739	3165.9834	1031.1	157.75
1045.0785	3166.9416	1032.5	154.1
1045.1831	3167.8993	1027.85	150.8
1045.2877	3168.8563	1034.05	157.45
1045.3922	3169.8127	1023.3	147.1
1045.4966	3170.7684	1025.65	149.15
1045.6011	3171.7236	1028.4	150.5
1045.7054	3172.6782	1026.75	148.45
1045.8098	3173.6321	1024.3	148.25
1045.914	3174.5854	1027.85	148.25
1046.0183	3175.5381	1023.8	148.35
1046.1224	3176.4902	1020.55	144.05
1046.2266	3177.4417	1018.2	143.55
1046.3307	3178.3926	1019.5	141.95
1046.4347	3179.3428	1019.1	145.9
1046.5387	3180.2924	1019.5	142.75
1046.6427	3181.2415	1019.8	143.25
1046.7466	3182.1899	1016.1	138.75
1046.8504	3183.1377	1017.1	141.7
1046.9542	3184.0848	1015.35	136.65
1047.058	3185.0314	1016.1	141.5
1047.1617	3185.9773	1013.15	135.45
1047.2654	3186.9227	1007.9	132.4
1047.369	3187.8674	1011.55	136.7
1047.4726	3188.8115	1016.1	133.65
1047.5761	3189.755	1011.3	136.45
1047.6796	3190.6979	1008.35	131.35
1047.783	3191.6402	1008.35	134.7
1047.8864	3192.5818	1009.2	132.05
1047.9898	3193.5229	1013.4	130.3
1048.0931	3194.4633	1005.1	128.4
1048.1963	3195.4031	1004.85	127.7
1048.2995	3196.3423	1003.2	128.9
1048.4027	3197.2809	1003.5	127.4
1048.5058	3198.2189	1002.15	126.2
1048.6089	3199.1563	1019.1	126.05
1048.7119	3200.0931	1000.7	126.95
1048.8148	3201.0292	999.15	122.95
1048.9178	3201.9648	999.35	123.4
1049.0206	3202.8997	1004.75	125.7
1049.1235	3203.834	997.75	123.9
1049.2262	3204.7677	998.05	123.05
1049.329	3205.7008	998	118.8
1049.4317	3206.6333	995.95	120.75
1049.5343	3207.5652	1001.9	124.3
1049.6369	3208.4964	992.3	117.85
1049.7394	3209.4271	993.3	118.7
1049.8419	3210.3571	994.9	119.2
1049.9444	3211.2865	991.35	115.65
1050.0468	3212.2154	1000.75	124.25
1050.1491	3213.1436	996.2	119.15
1050.2514	3214.0712	998.15	113.95
1050.3537	3214.9982	989.45	113.9
1050.4559	3215.9246	988.4	114.1
1050.5581	3216.8503	988.45	115.95
1050.6602	3217.7755	986.7	110.95
1050.7623	3218.7001	987	110.45
1050.8643	3219.624	989.95	114.05
1050.9663	3220.5473	986.2	111.35
1051.0682	3221.4701	985.55	105.85
1051.1701	3222.3922	985.15	106.55
1051.2719	3223.3137	986.5	110.85
1051.3737	3224.2346	986.7	111.65
1051.4754	3225.1549	982.1	105.85
1051.5771	3226.0746	982.3	107.35
1051.6788	3226.9937	983.35	107.95
1051.7804	3227.9121	976.8	101.15
1051.8819	3228.83	985.3	111.85
1051.9834	3229.7473	981.9	107.25
1052.0849	3230.6639	979.9	102.65
1052.1863	3231.5799	975.55	98.3
1052.2876	3232.4954	981.65	105.95
1052.3889	3233.4102	980.05	103.85
1052.4902	3234.3244	977.1	101.05
1052.5914	3235.238	976.2	102.3
1052.6926	3236.151	989.45	97.85
1052.7937	3237.0634	968.6	95.15
1052.8948	3237.9752	976.9	103.55
1052.9958	3238.8864	975.05	97.75
1053.0968	3239.797	973.8	98.7
1053.1977	3240.7069	973.7	97.3
1053.2986	3241.6163	974.75	98.45
1053.3994	3242.5251	969.1	95.55
1053.5002	3243.4332	970.4	98.1
1053.6009	3244.3408	973.15	100.05
1053.7016	3245.2477	968.15	91.65
1053.8022	3246.154	971.1	96.05
1053.9028	3247.0598	969.25	94.1
1054.0034	3247.9649	970.3	94.35
1054.1039	3248.8694	970.65	96.15
1054.2043	3249.7733	967.55	93.45
1054.3047	3250.6766	965.35	90.75
1054.4051	3251.5793	964.05	88.45
1054.5054	3252.4814	963.4	88.65
1054.6056	3253.3829	962.85	89.25
1054.7058	3254.2838	964.5	90.35
1054.806	3255.1841	960.75	86.85
1054.9061	3256.0838	964.65	89.3
1055.0061	3256.9829	955.75	79.3
1055.1062	3257.8814	964.6	87.75
1055.2061	3258.7792	961.35	84.95
1055.306	3259.6765	958.45	83.9
1055.4059	3260.5731	961.75	88.25
1055.5057	3261.4692	954.35	81
1055.6055	3262.3647	951.9	76.6
1055.7052	3263.2595	952.35	77.5
1055.8049	3264.1538	952.1	76.4
1055.9045	3265.0474	949	75.15
1056.0041	3265.9404	952.2	77.35
1056.1036	3266.8329	948.35	74.15
1056.2031	3267.7247	957	71.3
1056.3025	3268.616	947.75	75.4
1056.4019	3269.5066	944.2	70.65
1056.5013	3270.3966	942.3	64.85
1056.6005	3271.286	936.5	60.1
