Software Version:	3.9.2.0
Unit SN:	10000200
Spectrometer SN:	6960
Date:	3/8/2024 1:57:15 PM
Data Line Index:	25
Spectral Points:	2048
Integration time (ms):	125
Averages:	20
Delay (ms):	30000
Sequence Number:	1
Processing:	dark subtract
Laser Power (mW):	305
Laser Current (mA):	823
Laser Diode Temp (C):	25
Laser Case Temp (C):	26.3
System Temp (C):	26.3
Spectrometer Temp (C):	24.1
CCD Temp (C):	0.004
Secondary Temp (C):	20.011
Heatsink Temp (C):	20.381
CCDPCB Temp (C):	36.218
SecondaryPCB Temp (C):	30.716

Wavelength	RamanShift	Raw Counts	Dark Subtracted
787.061	30.1047	465.1	58.05
787.2016	32.3739	471.05	66.4
787.3422	34.6426	474.05	66.4
787.4828	36.9109	481.7	73.2
787.6235	39.1787	488.55	74.25
787.7642	41.4461	498.75	81.95
787.9049	43.7131	508.5	88.5
788.0456	45.9796	518.1	96.25
788.1863	48.2456	523.9	97.2
788.3271	50.5112	540.95	110.45
788.4679	52.7764	547.2	114.4
788.6087	55.0411	561	121.95
788.7496	57.3054	568.85	125.2
788.8904	59.5692	579.35	133.6
789.0313	61.8326	591.5	142.4
789.1722	64.0955	604.8	153.3
789.3132	66.3579	626.15	168.75
789.4541	68.6199	641.7	179.8
789.5951	70.8815	689.15	223.6
789.7361	73.1426	773.95	305.7
789.8771	75.4032	982.35	510.7
790.0181	77.6634	1523.75	1046.7
790.1592	79.9231	2795.2	2310.05
790.3003	82.1824	5544.95	5043.75
790.4414	84.4412	10506.55	9974
790.5825	86.6995	17364.05	16794.85
790.7237	88.9574	24059	23454.05
790.8648	91.2148	28678.8	28053.2
791.006	93.4717	30897.3	30259.5
791.1472	95.7282	31433.15	30788.45
791.2885	97.9842	31405	30757.4
791.4297	100.2398	30894.9	30244.8
791.571	102.4949	30331.15	29678.4
791.7123	104.7495	29627.55	28970.1
791.8536	107.0036	28855.7	28197.25
791.9949	109.2573	28086.65	27428.4
792.1363	111.5105	27402.55	26741.2
792.2777	113.7632	26710.1	26047.45
792.4191	116.0154	26111.45	25437.55
792.5605	118.2672	25704.25	25036.55
792.7019	120.5185	25252.3	24580.65
792.8434	122.7693	24880.95	24206.75
792.9849	125.0197	24693.35	24019.05
793.1264	127.2696	24388.7	23707.65
793.2679	129.519	24279.45	23595.6
793.4094	131.7679	24074	23386
793.551	134.0163	23950.4	23262.55
793.6926	136.2642	23780.35	23084.35
793.8342	138.5117	23568.6	22868.1
793.9758	140.7587	23327.25	22627.55
794.1175	143.0052	23195.4	22491.85
794.2591	145.2512	22920.7	22221.5
794.4008	147.4967	22735.5	22036
794.5425	149.7417	22600.2	21895.6
794.6842	151.9863	22527.95	21816.2
794.826	154.2304	22497.35	21778.05
794.9677	156.4739	22319.9	21599.45
795.1095	158.717	22251.8	21532.3
795.2513	160.9596	22149	21423.25
795.3931	163.2017	21925.15	21199.3
795.535	165.4433	21650.1	20923.7
795.6768	167.6844	21315.95	20584.4
795.8187	169.925	21020	20290.2
795.9606	172.1651	20684.85	19952.8
796.1025	174.4047	20409.75	19675.15
796.2445	176.6439	20149.65	19414.85
796.3864	178.8825	19946.05	19203.7
796.5284	181.1206	19839.4	19094.2
796.6704	183.3582	19671.35	18917.9
796.8124	185.5954	19539.25	18786.2
796.9544	187.832	19511.3	18752.7
797.0965	190.0681	19477.4	18717
797.2386	192.3037	19504.85	18743.8
797.3806	194.5388	19527.1	18760.5
797.5228	196.7734	19578.8	18814.25
797.6649	199.0075	19678.9	18912.7
797.807	201.2411	19850.3	19083.7
797.9492	203.4742	19917.5	19144.7
798.0914	205.7068	20116	19340.8
798.2336	207.9389	20251.65	19474.85
798.3758	210.1704	20401.15	19627.25
798.518	212.4015	20520.15	19760.55
798.6603	214.632	20713.95	19961.35
798.8025	216.862	20908.25	20152.65
798.9448	219.0915	21071.85	20312.75
799.0871	221.3205	21330.95	20571.75
799.2294	223.549	21635.6	20882.25
799.3718	225.777	21920.65	21170.6
799.5141	228.0044	22286.2	21526.9
799.6565	230.2314	22778.7	22018.05
799.7989	232.4578	23184.5	22420.15
799.9413	234.6837	23565.3	22792.35
800.0837	236.909	23793.8	23020.4
800.2262	239.1339	23775.65	22972.25
800.3687	241.3582	23625.4	22836.05
800.5111	243.582	23329.5	22505.7
800.6536	245.8053	22999.35	22194.95
800.7961	248.0281	22669.8	21871.3
800.9387	250.2503	22467.6	21667.15
801.0812	252.472	22332.55	21527.2
801.2238	254.6932	22303.45	21500.2
801.3664	256.9139	22229.35	21424.2
801.509	259.134	22237.95	21425.9
801.6516	261.3536	22297.6	21489.6
801.7942	263.5727	22354.6	21545.75
801.9369	265.7912	22285.5	21478.1
802.0795	268.0092	22356.95	21548.6
802.2222	270.2267	22349.45	21538.7
802.3649	272.4436	22355.9	21547.2
802.5076	274.6601	22285.7	21466.05
802.6504	276.8759	22220.9	21408.7
802.7931	279.0913	22220.55	21408
802.9359	281.3061	22178	21359.9
803.0787	283.5204	22323.35	21499.8
803.2215	285.7341	22381.25	21556.7
803.3643	287.9473	22549.55	21712.9
803.5071	290.16	22822.6	21998.55
803.6499	292.3721	23102	22288.3
803.7928	294.5837	23550.35	22728.3
803.9357	296.7947	23897.6	23075.7
804.0786	299.0052	24142.25	23318.7
804.2215	301.2152	23993.15	23164.4
804.3644	303.4246	23649.9	22831.9
804.5074	305.6334	23178.3	22354.4
804.6503	307.8418	22613.25	21786.8
804.7933	310.0495	22255.85	21430.65
804.9363	312.2568	21959.5	21133.45
805.0793	314.4635	21746.6	20911.7
805.2223	316.6696	21648.6	20812.25
805.3653	318.8752	21621.55	20779.2
805.5084	321.0802	21676.35	20837.6
805.6514	323.2847	21823.95	20983.7
805.7945	325.4887	21883.55	21047.75
805.9376	327.692	21810.7	20973.15
806.0807	329.8949	21764.6	20925.45
806.2238	332.0972	21521.4	20679.85
806.367	334.2989	21225.65	20378.85
806.5101	336.5001	20968.45	20120.7
806.6533	338.7007	20754.15	19908.65
806.7965	340.9008	20724.75	19877.35
806.9397	343.1003	20641.3	19792.4
807.0829	345.2992	20579.95	19732.4
807.2261	347.4976	20555.2	19705.95
807.3693	349.6955	20546.8	19694.95
807.5126	351.8927	20668.75	19817
807.6559	354.0895	20652.55	19786.8
807.7991	356.2856	20732.4	19873
807.9424	358.4812	20700.55	19840.2
808.0857	360.6763	20762.9	19904.45
808.2291	362.8707	20727.6	19866.2
808.3724	365.0646	20858.4	19995.7
808.5158	367.258	20875.9	20010.65
808.6591	369.4508	20898.8	20032.5
808.8025	371.643	20994.65	20124.2
808.9459	373.8346	20983.35	20111.5
809.0893	376.0257	20976.75	20108.8
809.2327	378.2162	20897.15	20028.5
809.3762	380.4062	20825.35	19959.5
809.5196	382.5956	20669.25	19804.4
809.6631	384.7844	20584.35	19721.85
809.8066	386.9726	20521.35	19660.95
809.9501	389.1603	20471.7	19611
810.0936	391.3474	20431.4	19540.55
810.2371	393.5339	20451.9	19585.35
810.3806	395.7199	20385.85	19523.85
810.5241	397.9052	20419.55	19558.95
810.6677	400.09	20486.65	19626.2
810.8113	402.2743	20569.55	19708.95
810.9548	404.4579	20630.9	19764.6
811.0984	406.641	20803.15	19936.75
811.2421	408.8235	21049.85	20182.7
811.3857	411.0054	21388.7	20519.1
811.5293	413.1868	21869.35	20994.15
811.673	415.3675	22191	21313.5
811.8166	417.5477	22369.55	21495.1
811.9603	419.7273	22430.2	21551.55
812.104	421.9064	22322.6	21437.9
812.2477	424.0848	22228.7	21354
812.3914	426.2627	22014.4	21139.2
812.5351	428.4399	21734.65	20851.7
812.6788	430.6166	21434.1	20550.35
812.8226	432.7928	21034.7	20150.25
812.9663	434.9683	20763.75	19883.7
813.1101	437.1432	20526.9	19651.75
813.2539	439.3176	20335.65	19460.75
813.3977	441.4914	20218.85	19346.25
813.5415	443.6645	20232.9	19355.8
813.6853	445.8371	20183.4	19303.05
813.8291	448.0091	20110.6	19233.05
813.973	450.1806	20099.5	19219.4
814.1168	452.3514	20012.9	19135.25
814.2607	454.5216	20070.05	19182.65
814.4046	456.6913	19990.9	19109.75
814.5485	458.8603	20069.6	19189.3
814.6924	461.0288	20164.6	19293.5
814.8363	463.1967	20152.7	19285.3
814.9802	465.3639	20327.65	19450.1
815.1241	467.5306	20394.55	19514.9
815.2681	469.6967	20509.45	19635.6
815.412	471.8622	20664.35	19791.6
815.556	474.0271	20865.25	19986.95
815.7	476.1914	20980.3	20100
815.844	478.3551	20938.1	20059.6
815.988	480.5182	20941.45	20065.1
816.132	482.6807	20945.95	20079.15
816.276	484.8426	21094.65	20228.5
816.4201	487.0039	21378.05	20507.35
816.5641	489.1647	21822	20940.4
816.7082	491.3248	22301.5	21418.95
816.8522	493.4843	22457.35	21583.1
816.9963	495.6432	22490.45	21614.3
817.1404	497.8015	22396.8	21510.2
817.2845	499.9592	22395.25	21503.3
817.4286	502.1163	22382.95	21488.95
817.5727	504.2728	22114.55	21232.05
817.7168	506.4287	21854.3	20978.95
817.861	508.5839	21419.1	20547.9
818.0051	510.7386	21126.7	20246.45
818.1493	512.8927	21010.6	20122.8
818.2935	515.0461	20932.95	20043
818.4377	517.199	20869.85	19979.65
818.5818	519.3512	20887.8	19997.4
818.726	521.5029	20996.5	20100.15
818.8703	523.6539	21061.8	20170.6
819.0145	525.8043	21129.1	20237
819.1587	527.9541	21181	20283.15
819.303	530.1033	21141.95	20250.45
819.4472	532.2519	21188.2	20294.1
819.5915	534.3999	21338.35	20444.75
819.7357	536.5472	21610.35	20720.6
819.88	538.694	22027.45	21141.8
820.0243	540.8401	22667.65	21774
820.1686	542.9856	23174.5	22270.15
820.3129	545.1305	23352.05	22444.35
820.4572	547.2748	23257.6	22347.3
820.6016	549.4185	22892.95	21979.45
820.7459	551.5615	22564.35	21654.3
820.8902	553.704	22474.35	21565.25
821.0346	555.8458	22429.65	21526.45
821.1789	557.987	22461.9	21562.15
821.3233	560.1276	22440.6	21540.1
821.4677	562.2675	22494.35	21592
821.6121	564.4069	22546.1	21637.65
821.7565	566.5456	22566.4	21665.8
821.9009	568.6837	22525.15	21623.95
822.0453	570.8212	22246.45	21348.75
822.1897	572.958	21865.05	20967.25
822.3342	575.0942	21610	20714.45
822.4786	577.2299	21398.35	20507.7
822.6231	579.3648	21373.75	20492.8
822.7675	581.4992	21436.6	20565.7
822.912	583.6329	21651.75	20780.3
823.0565	585.766	21900.85	21020.7
823.201	587.8985	22023.75	21137.8
823.3454	590.0304	22030.7	21118.55
823.4899	592.1616	21993.35	21087.8
823.6345	594.2922	21905.4	20995.9
823.779	596.4222	21776.3	20865.1
823.9235	598.5515	21599.85	20692.75
824.068	600.6802	21453.7	20546.5
824.2126	602.8083	21263.7	20360.75
824.3571	604.9358	21242.05	20339.5
824.5017	607.0626	21196.35	20288.1
824.6462	609.1888	21130.4	20213
824.7908	611.3144	21131.55	20216.55
824.9354	613.4393	21065.95	20151.65
825.08	615.5636	20989.1	20075.35
825.2246	617.6873	20912.25	20000.05
825.3692	619.8103	20852.35	19936.75
825.5138	621.9327	20751.1	19842.2
825.6584	624.0544	20731.5	19828.75
825.803	626.1756	20743.7	19835.15
825.9477	628.2961	20709.55	19798.65
826.0923	630.4159	20670.8	19757.15
826.237	632.5351	20642.45	19726.25
826.3816	634.6537	20609.55	19692.45
826.5263	636.7716	20595.35	19674.35
826.6709	638.8889	20636.45	19711.1
826.8156	641.0056	20733.2	19811
826.9603	643.1216	20711.55	19789.85
827.105	645.237	20731.75	19814.85
827.2497	647.3518	20715.3	19804.05
827.3944	649.4659	20797.05	19892.05
827.5391	651.5793	20774.15	19870.6
827.6838	653.6922	20785.5	19877.1
827.8285	655.8043	20751.6	19844.2
827.9733	657.9159	20760.2	19846.15
828.118	660.0268	20732.45	19822.25
828.2627	662.137	20664.15	19749.1
828.4075	664.2466	20662.45	19739.2
828.5522	666.3556	20691.95	19771.95
828.697	668.4639	20677.3	19762.1
828.8418	670.5716	20747.15	19839.5
828.9865	672.6786	20816.85	19903
829.1313	674.785	20864.3	19941.25
829.2761	676.8907	20924.25	20006.3
829.4209	678.9958	21034.25	20125.35
829.5657	681.1002	20990.95	20072.7
829.7105	683.204	20997.25	20068.75
829.8553	685.3072	20965.25	20038.6
830.0001	687.4097	20899.6	19982.85
830.1449	689.5115	20893.7	19968.5
830.2898	691.6127	20886.95	19965.9
830.4346	693.7132	20777.15	19862.1
830.5794	695.8131	20811.25	19872.9
830.7243	697.9123	20826.65	19904
830.8691	700.0109	20788.8	19864.55
831.014	702.1089	20778.1	19854.85
831.1588	704.2061	20797.75	19872.25
831.3037	706.3028	20837.45	19911.65
831.4486	708.3987	20931.2	20007.65
831.5935	710.4941	21036.6	20115.3
831.7383	712.5887	21207.5	20286.55
831.8832	714.6827	21508.85	20584.6
832.0281	716.7761	21879.75	20957.15
832.173	718.8688	22220.2	21298.7
832.3179	720.9608	22424.9	21497.15
832.4628	723.0522	22499.55	21562.8
832.6077	725.1429	22360.8	21429.55
832.7527	727.233	22139.3	21213.5
832.8976	729.3224	21909.65	20982.9
833.0425	731.4112	21638.55	20710.2
833.1874	733.4993	21439.15	20512.65
833.3324	735.5867	21256.5	20331
833.4773	737.6735	21213.75	20286
833.6222	739.7596	21110.9	20179.35
833.7672	741.845	21092.5	20165.55
833.9122	743.9298	21074.75	20149.9
834.0571	746.014	21088.3	20161.2
834.2021	748.0974	21120.1	20188.35
834.347	750.1802	21113.8	20179.35
834.492	752.2624	21079.1	20147.2
834.637	754.3439	21151.8	20215.95
834.782	756.4247	21206.3	20267.9
834.9269	758.5048	21283.65	20351.65
835.0719	760.5843	21567	20631
835.2169	762.6631	21872.05	20938.9
835.3619	764.7413	22310	21382.7
835.5069	766.8188	22939.5	22003
835.6519	768.8956	23411.85	22479.8
835.7969	770.9718	23707.15	22775.8
835.9419	773.0473	23536.85	22604.2
836.0869	775.1221	23257.15	22322.75
836.232	777.1962	22834	21898.25
836.377	779.2697	22720.15	21786.3
836.522	781.3426	22748.85	21795.55
836.667	783.4147	22992.05	22056.2
836.8121	785.4862	23335.2	22404.1
836.9571	787.557	23372.9	22439.6
837.1021	789.6271	23030.15	22095.75
837.2472	791.6966	22470.45	21537.1
837.3922	793.7654	21951.8	21015.75
837.5373	795.8335	21693	20755
837.6823	797.901	21521.15	20586.15
837.8274	799.9678	21431.3	20491.45
837.9724	802.0339	21448.4	20511.45
838.1175	804.0993	21494.55	20547.15
838.2626	806.1641	21503.65	20567.9
838.4076	808.2282	21447.6	20512.15
838.5527	810.2916	21369.1	20429.3
838.6978	812.3544	21283.3	20352.55
838.8428	814.4164	21182.25	20249.85
838.9879	816.4778	21294.05	20352.6
839.133	818.5385	21248.95	20311.3
839.2781	820.5986	21335.1	20394.45
839.4232	822.658	21458.6	20517.45
839.5682	824.7166	21579.05	20642.4
839.7133	826.7747	21879.8	20943.8
839.8584	828.832	22058.9	21120.1
840.0035	830.8886	22201.85	21260.3
840.1486	832.9446	22367.35	21425.5
840.2937	834.9999	22374.15	21438.2
840.4388	837.0545	22423.55	21481
840.5839	839.1085	22387.85	21449.75
840.729	841.1618	22326.05	21385
840.8741	843.2143	22285.8	21342.4
841.0192	845.2662	22227.4	21287.85
841.1643	847.3175	22198.8	21260.55
841.3095	849.368	22092.35	21151.85
841.4546	851.4179	22012.75	21074.05
841.5997	853.467	21849.55	20909.1
841.7448	855.5155	21753.7	20812.05
841.8899	857.5633	21649.05	20705.3
842.0351	859.6105	21566.2	20623.5
842.1802	861.6569	21534.55	20591.8
842.3253	863.7027	21511.1	20567.4
842.4704	865.7478	21505.25	20559.5
842.6156	867.7922	21528.55	20587.35
842.7607	869.8359	21574.7	20633.55
842.9058	871.8789	21675.1	20734.4
843.0509	873.9212	21884.65	20911.55
843.1961	875.9629	22035.15	21092.35
843.3412	878.0039	22197.95	21256.45
843.4863	880.0441	22332.65	21395.6
843.6315	882.0837	22382.4	21442.5
843.7766	884.1226	22305.85	21358.85
843.9218	886.1609	22225.4	21284.3
844.0669	888.1984	22136.4	21197.1
844.212	890.2352	22186.05	21244.3
844.3572	892.2714	22155.6	21207.65
844.5023	894.3069	22165.1	21223.15
844.6475	896.3416	22047.3	21106.4
844.7926	898.3757	22073.75	21132.05
844.9377	900.4091	22090.75	21143.8
845.0829	902.4418	22113.45	21160.2
845.228	904.4739	22063.55	21115.8
845.3732	906.5052	22109.2	21159.85
845.5183	908.5358	22008.9	21060.95
845.6635	910.5658	21860.15	20915.4
845.8086	912.595	21689.3	20746.2
845.9538	914.6236	21577.9	20631.25
846.0989	916.6515	21548.2	20601
846.2441	918.6786	21503.55	20554.35
846.3892	920.7051	21636.4	20686.9
846.5344	922.7309	21814.65	20869.6
846.6795	924.756	21786.1	20839.65
846.8246	926.7804	21905.7	20960.45
846.9698	928.8041	21795.35	20847.85
847.1149	930.8272	21875.9	20926.8
847.2601	932.8495	21801.2	20853.65
847.4052	934.8711	21793.6	20839.9
847.5504	936.892	21646.4	20699.05
847.6955	938.9123	21498.25	20548.85
847.8407	940.9318	21410.7	20463.65
847.9858	942.9506	21309.75	20361.3
848.131	944.9688	21177.35	20234.05
848.2761	946.9862	21117.55	20170.5
848.4213	949.003	21033.15	20085.5
848.5664	951.019	21062.05	20114.4
848.7115	953.0344	21060.8	20111.4
848.8567	955.0491	21124.05	20176.3
849.0018	957.063	21181.45	20233.8
849.147	959.0763	21348.75	20403.3
849.2921	961.0888	21394.15	20447.95
849.4373	963.1007	21475.85	20534.95
849.5824	965.1119	21531	20594.85
849.7275	967.1223	21556.5	20624.7
849.8727	969.1321	21570.65	20638.55
850.0178	971.1412	21647.45	20709.7
850.1629	973.1495	21646.5	20705.65
850.3081	975.1572	21754.05	20765
850.4532	977.1641	21730.85	20783.1
850.5983	979.1704	21709.6	20762.5
850.7435	981.1759	21715.75	20762.45
850.8886	983.1808	21816.35	20867.75
851.0337	985.1849	21877.9	20923
851.1788	987.1884	22010.5	21061.9
851.324	989.1911	22179.45	21231.05
851.4691	991.1932	22345.05	21400.05
851.6142	993.1945	22329.25	21382.85
851.7593	995.1951	22299	21348.8
851.9045	997.1951	22283.65	21331.3
852.0496	999.1943	22157.3	21211.15
852.1947	1001.1928	22125.65	21179.5
852.3398	1003.1906	22088.45	21142.15
852.4849	1005.1877	22180.7	21233.7
852.63	1007.1841	22132.05	21187.05
852.7751	1009.1798	22076.1	21133.55
852.9202	1011.1748	21886.8	20940
853.0653	1013.1691	21684.4	20737.85
853.2104	1015.1627	21448.3	20505.95
853.3555	1017.1556	21251.45	20305.9
853.5006	1019.1477	21123.45	20182.1
853.6457	1021.1392	21024.9	20088.45
853.7908	1023.1299	20989.7	20056.35
853.9359	1025.12	21010.6	20082.55
854.081	1027.1093	21023.6	20107.85
854.2261	1029.0979	21135.7	20221.4
854.3712	1031.0859	21167.55	20247.65
854.5163	1033.0731	21211.05	20280.1
854.6613	1035.0596	21100.65	20164.75
854.8064	1037.0454	20918.15	19979.15
854.9515	1039.0304	20824.85	19878.15
855.0965	1041.0148	20661.1	19720.25
855.2416	1042.9985	20608.3	19661.05
855.3867	1044.9814	20594	19655.2
855.5317	1046.9636	20509.95	19565.05
855.6768	1048.9452	20481.5	19538.95
855.8219	1050.926	20511	19569.95
855.9669	1052.9061	20524.6	19579.6
856.112	1054.8855	20477.3	19532.7
856.257	1056.8642	20553.3	19608.35
856.4021	1058.8421	20591.95	19640.9
856.5471	1060.8194	20625.8	19681.25
856.6921	1062.7959	20645.8	19700.35
856.8372	1064.7717	20703.9	19757.35
856.9822	1066.7469	20720.1	19773.6
857.1272	1068.7213	20702.55	19757.25
857.2723	1070.695	20731.55	19785.6
857.4173	1072.6679	20609.25	19667.8
857.5623	1074.6402	20596.35	19651.85
857.7073	1076.6117	20583.9	19635.2
857.8523	1078.5826	20603.25	19655.05
857.9973	1080.5527	20602.85	19654.2
858.1423	1082.5221	20654.25	19709.7
858.2873	1084.4908	20854.85	19909.05
858.4323	1086.4587	21004.7	20057.5
858.5773	1088.426	21189.3	20244.75
858.7223	1090.3925	21172.65	20223.55
858.8673	1092.3584	21135.8	20190.05
859.0123	1094.3235	20971.9	20027.9
859.1573	1096.2879	20892.1	19951.15
859.3022	1098.2515	20892.3	19948.2
859.4472	1100.2145	21002.35	20056.95
859.5922	1102.1767	21067.4	20121.6
859.7371	1104.1382	21221.95	20279.65
859.8821	1106.099	21455.25	20507.65
860.027	1108.0591	21652.25	20708.45
860.172	1110.0185	21731.85	20788.5
860.3169	1111.9771	21786.4	20846.55
860.4619	1113.9351	21556.95	20613.85
860.6068	1115.8923	21283.65	20336.7
860.7517	1117.8488	20982.55	20039.05
860.8967	1119.8045	20701.9	19759.45
861.0416	1121.7596	20606.6	19667.9
861.1865	1123.7139	20514.35	19571.95
861.3314	1125.6675	20496.8	19554.65
861.4763	1127.6204	20577.1	19635.1
861.6212	1129.5726	20554.25	19610.25
861.7661	1131.524	20532.7	19593.5
861.911	1133.4748	20544.7	19601.65
862.0559	1135.4248	20521.6	19574.25
862.2008	1137.3741	20486.1	19543.55
862.3457	1139.3226	20438.3	19494.15
862.4905	1141.2705	20455.85	19513.85
862.6354	1143.2176	20306.4	19357.2
862.7803	1145.164	20332.85	19389.05
862.9251	1147.1097	20313.45	19370.15
863.07	1149.0546	20319.6	19376.15
863.2148	1150.9989	20235.65	19293.45
863.3597	1152.9424	20118.8	19173.85
863.5045	1154.8852	19958.05	19015.85
863.6493	1156.8272	19867.55	18926.45
863.7942	1158.7686	19815.2	18866.05
863.939	1160.7092	19745.6	18799.75
864.0838	1162.6491	19745.55	18800.8
864.2286	1164.5883	19826.25	18883.3
864.3734	1166.5267	19902.4	18962.5
864.5182	1168.4644	20031.9	19089.3
864.663	1170.4014	20226.15	19282.95
864.8078	1172.3377	20479.6	19541.65
864.9526	1174.2732	20662.35	19721.9
865.0974	1176.2081	20950.45	20006.1
865.2421	1178.1421	21185.55	20240.4
865.3869	1180.0755	21437.35	20498.1
865.5317	1182.0082	21498.9	20558.85
865.6764	1183.9401	21477.15	20537.15
865.8212	1185.8713	21345	20411.95
865.9659	1187.8017	21120.4	20190.4
866.1106	1189.7315	20847.15	19926.6
866.2554	1191.6605	20566.15	19649.75
866.4001	1193.5888	20337.85	19411.4
866.5448	1195.5163	20246.3	19319.1
866.6895	1197.4432	20124.4	19188.45
866.8342	1199.3693	20062.05	19122.85
866.9789	1201.2947	20014.8	19066.25
867.1236	1203.2193	19965.8	19025.35
867.2683	1205.1432	20000.45	19060.85
867.413	1207.0664	20005.8	19068.35
867.5576	1208.9889	19982.25	19040.8
867.7023	1210.9106	20041.55	19100.2
867.847	1212.8316	20036.65	19099.85
867.9916	1214.7519	20107.25	19159.65
868.1363	1216.6715	20073.3	19133.6
868.2809	1218.5903	20140.95	19203.9
868.4255	1220.5084	20104.5	19163.4
868.5701	1222.4257	20082.25	19146.85
868.7148	1224.3424	19999.95	19062.45
868.8594	1226.2583	20074.5	19133.15
869.004	1228.1735	20128.9	19192.4
869.1486	1230.0879	20206.5	19266.45
869.2932	1232.0016	20328.7	19392
869.4377	1233.9146	20350.7	19413
869.5823	1235.8269	20262	19325.45
869.7269	1237.7384	20149.7	19211.55
869.8715	1239.6492	19940.95	19003.6
870.016	1241.5592	19822.55	18885.25
870.1606	1243.4686	19731.45	18790.3
870.3051	1245.3772	19741.85	18804.55
870.4496	1247.285	19683.1	18748.05
870.5941	1249.1922	19641.85	18702.05
870.7387	1251.0986	19656.55	18719.9
870.8832	1253.0042	19657.3	18719.7
871.0277	1254.9092	19694.3	18761.45
871.1722	1256.8134	19726.5	18793.15
871.3167	1258.7169	19916.8	18982.95
871.4611	1260.6196	20004.15	19068.6
871.6056	1262.5216	20231	19290.3
871.7501	1264.4229	20361.25	19426.5
871.8945	1266.3234	20537.8	19602.65
872.039	1268.2232	20624	19686.65
872.1834	1270.1223	20595.05	19655.4
872.3278	1272.0207	20608.1	19668.85
872.4723	1273.9183	20532.1	19591
872.6167	1275.8151	20455.4	19519.7
872.7611	1277.7113	20379.25	19443.4
872.9055	1279.6067	20200.95	19266.1
873.0499	1281.5014	20137.55	19200.8
873.1943	1283.3953	20106.35	19168.1
873.3386	1285.2885	20137.95	19207.1
873.483	1287.181	20186.15	19250.95
873.6274	1289.0727	20318.8	19385.95
873.7717	1290.9637	20352.7	19416.65
873.9161	1292.854	20521.15	19585.55
874.0604	1294.7435	20613.75	19682.15
874.2047	1296.6323	20786.95	19850.8
874.349	1298.5204	21027.85	20091.45
874.4933	1300.4077	21175.95	20238
874.6376	1302.2943	21332.15	20398.1
874.7819	1304.1802	21358.5	20424.25
874.9262	1306.0653	21206.15	20267.65
875.0705	1307.9497	20990.65	20055.9
875.2147	1309.8333	20802.55	19866.6
875.359	1311.7162	20746.25	19811.65
875.5032	1313.5984	20691.2	19752.55
875.6475	1315.4798	20744.35	19797.9
875.7917	1317.3605	20789.9	19841.3
875.9359	1319.2405	20839.8	19900.85
876.0801	1321.1197	20818	19879.3
876.2243	1322.9982	20655.3	19716.2
876.3685	1324.876	20543.95	19608.95
876.5127	1326.753	20445.5	19511.75
876.6569	1328.6293	20439.15	19503.4
876.801	1330.5048	20414.4	19475.7
876.9452	1332.3796	20344.9	19410.3
877.0893	1334.2537	20363.7	19402.25
877.2335	1336.127	20265.65	19332.7
877.3776	1337.9996	20228.05	19291.45
877.5217	1339.8714	20200.4	19263.5
877.6658	1341.7426	20162.5	19181.65
877.8099	1343.6129	20117.75	19181.25
877.954	1345.4826	20038.65	19101.4
878.0981	1347.3515	20036.55	19098.35
878.2422	1349.2196	19929.85	18993.1
878.3862	1351.087	19948.55	19014.95
878.5303	1352.9537	20015.85	19078.7
878.6743	1354.8197	20176.6	19237.35
878.8184	1356.6849	20324.4	19389.15
878.9624	1358.5493	20355.4	19417.7
879.1064	1360.4131	20382.15	19448.35
879.2504	1362.276	20339.25	19405.65
879.3944	1364.1383	20190.6	19256.55
879.5384	1365.9998	19912.4	18972.6
879.6823	1367.8606	19580.75	18646.35
879.8263	1369.7206	19297.85	18359.85
879.9702	1371.5799	19036.65	18098.55
880.1142	1373.4384	18839.7	17903.3
880.2581	1375.2962	18698.1	17761
880.402	1377.1533	18403.4	17471.4
880.5459	1379.0096	18084.35	17153.5
880.6898	1380.8652	17782.35	16853.3
880.8337	1382.7201	17524.7	16592.6
880.9776	1384.5742	17281.65	16349.4
881.1215	1386.4275	17066.3	16133.35
881.2653	1388.2802	16939.15	16007.1
881.4092	1390.132	16797.95	15864.55
881.553	1391.9832	16745.65	15808.45
881.6968	1393.8336	16608.25	15675.6
881.8406	1395.6832	16569.7	15635.75
881.9844	1397.5322	16531.05	15597.6
882.1282	1399.3803	16469	15530.85
882.272	1401.2278	16403.6	15470.55
882.4158	1403.0745	16368.75	15437.85
882.5595	1404.9204	16275.5	15343.7
882.7033	1406.7656	16321.2	15388.5
882.847	1408.6101	16302.6	15367.35
882.9908	1410.4538	16294.5	15361.6
883.1345	1412.2968	16316.05	15380.7
883.2782	1414.139	16332.7	15399.8
883.4219	1415.9805	16409.25	15479.3
883.5656	1417.8213	16478.75	15541.3
883.7092	1419.6613	16572.4	15644.05
883.8529	1421.5006	16711.5	15780.4
883.9965	1423.3391	16912	15978.35
884.1402	1425.1769	17221	16285.45
884.2838	1427.0139	17685.75	16750.95
884.4274	1428.8502	18266.55	17335.65
884.571	1430.6858	18797.95	17866.45
884.7146	1432.5206	19182.6	18250.9
884.8582	1434.3547	19378.2	18445.35
885.0018	1436.188	19440.2	18508.2
885.1453	1438.0206	19323	18388.95
885.2889	1439.8524	19151.6	18218.75
885.4324	1441.6835	19053.8	18120.55
885.5759	1443.5139	18930.7	17996
885.7194	1445.3435	18867.75	17937.05
885.8629	1447.1724	18843.65	17916.15
886.0064	1449.0005	18751.4	17822.6
886.1499	1450.8279	18612.1	17680.8
886.2933	1452.6545	18586.45	17655.75
886.4368	1454.4804	18594.85	17666.2
886.5802	1456.3056	18568.2	17633.95
886.7237	1458.13	18465.65	17534.85
886.8671	1459.9536	18250.9	17321.7
887.0105	1461.7766	17919	16993.5
887.1539	1463.5987	17490.85	16559.05
887.2972	1465.4202	17109.25	16176.45
887.4406	1467.2409	16695.75	15764.2
887.584	1469.0608	16451.1	15519.45
887.7273	1470.88	16163.7	15231.95
887.8706	1472.6984	15978.25	15050.2
888.0139	1474.5161	15710.1	14781.8
888.1572	1476.3331	15536.1	14608.2
888.3005	1478.1493	15406.6	14476.75
888.4438	1479.9648	15311.5	14383.25
888.5871	1481.7795	15197.15	14267.05
888.7303	1483.5935	15100.4	14169.65
888.8736	1485.4067	15025.45	14095.5
889.0168	1487.2192	14980.8	14051.65
889.16	1489.031	14960.5	14031.75
889.3032	1490.842	14854.45	13925.25
889.4464	1492.6522	14838.45	13909.15
889.5896	1494.4618	14818.35	13887.95
889.7327	1496.2705	14736.75	13808.1
889.8759	1498.0785	14670.45	13744.15
890.019	1499.8858	14649.15	13721.05
890.1622	1501.6924	14588	13661.35
890.3053	1503.4981	14578.8	13647.7
890.4484	1505.3032	14554.85	13624.65
890.5914	1507.1075	14503.25	13574.5
890.7345	1508.911	14436.8	13508.95
890.8776	1510.7138	14419.2	13489.05
891.0206	1512.5159	14284.25	13358.5
891.1637	1514.3172	14268	13340.1
891.3067	1516.1178	14166.05	13240.1
891.4497	1517.9176	14142.7	13211.5
891.5927	1519.7166	14100.65	13174.8
891.7357	1521.515	14058.45	13123.95
891.8786	1523.3126	14008.35	13082.4
892.0216	1525.1094	13977.05	13048.5
892.1645	1526.9055	13921.85	12994.95
892.3074	1528.7008	13863.35	12938.05
892.4503	1530.4954	13772.75	12845.5
892.5932	1532.2893	13749.3	12828.3
892.7361	1534.0824	13704.1	12778.15
892.879	1535.8747	13698.25	12776.45
893.0218	1537.6663	13669.3	12749.75
893.1647	1539.4572	13624.6	12700.95
893.3075	1541.2473	13618.1	12693.55
893.4503	1543.0367	13606.05	12684.6
893.5931	1544.8253	13544.05	12616.55
893.7359	1546.6132	13543.9	12618.2
893.8787	1548.4003	13522.2	12591.15
894.0214	1550.1867	13505.45	12575.75
894.1642	1551.9723	13513.8	12590.65
894.3069	1553.7572	13531.75	12610.5
894.4496	1555.5414	13565	12645.4
894.5923	1557.3247	13609.15	12690.6
894.735	1559.1074	13675.95	12762.65
894.8777	1560.8893	13735.65	12821.1
895.0204	1562.6705	13762.4	12845.65
895.163	1564.4509	13809.45	12889.9
895.3056	1566.2305	13846.75	12935.65
895.4482	1568.0094	13925.45	13013.5
895.5908	1569.7876	13965.55	13053.6
895.7334	1571.565	13955.4	13035.2
895.876	1573.3417	13954.25	13037.95
896.0186	1575.1176	13930.05	13017.45
896.1611	1576.8928	13887.15	12978.75
896.3036	1578.6672	13766.35	12859.3
896.4461	1580.4409	13631.75	12724.95
896.5886	1582.2138	13516.8	12606.2
896.7311	1583.986	13412.05	12500.75
896.8736	1585.7575	13350.5	12437.75
897.0161	1587.5282	13285.2	12376.75
897.1585	1589.2981	13259.85	12354
897.3009	1591.0673	13174.65	12269.5
897.4433	1592.8358	13203.45	12293.55
897.5857	1594.6035	13205.65	12292.15
897.7281	1596.3704	13172	12258.45
897.8705	1598.1366	13203.55	12292.55
898.0128	1599.9021	13212.55	12304.05
898.1551	1601.6668	13266.75	12351.3
898.2975	1603.4308	13317.8	12406.1
898.4398	1605.194	13411.2	12497.95
898.5821	1606.9564	13519.1	12616.6
898.7243	1608.7182	13645.45	12746.4
898.8666	1610.4791	13792.35	12897.9
899.0088	1612.2394	13944.95	13048.5
899.1511	1613.9988	14088.45	13190.8
899.2933	1615.7576	14300.3	13397.35
899.4355	1617.5156	14519.95	13604.8
899.5776	1619.2728	14706.75	13794.55
899.7198	1621.0293	14777.2	13867.65
899.862	1622.785	14738.35	13828.2
900.0041	1624.54	14648.35	13743.55
900.1462	1626.2942	14471.3	13568
900.2883	1628.0477	14179.9	13272.45
900.4304	1629.8005	13964.9	13058.75
900.5725	1631.5525	13758.1	12855.7
900.7145	1633.3037	13531.55	12632.1
900.8566	1635.0542	13385.35	12481.75
900.9986	1636.804	13286.55	12384.7
901.1406	1638.553	13259.1	12294.55
901.2826	1640.3013	13136.65	12234.05
901.4245	1642.0488	13102.95	12199.4
901.5665	1643.7955	13125.2	12226.65
901.7085	1645.5416	13138.75	12240.35
901.8504	1647.2868	13229	12326.5
901.9923	1649.0313	13285.05	12380.3
902.1342	1650.7751	13409.4	12505.85
902.2761	1652.5181	13593.7	12692.05
902.4179	1654.2604	13757.7	12858.35
902.5598	1656.0019	14000.25	13101.65
902.7016	1657.7427	14286.6	13384.8
902.8434	1659.4828	14561.9	13659.1
902.9852	1661.222	14729	13825.1
903.127	1662.9606	14719.6	13814.25
903.2687	1664.6984	14511.55	13607.3
903.4105	1666.4354	14112.35	13205
903.5522	1668.1717	13622.75	12714.5
903.6939	1669.9072	13088.8	12181.5
903.8356	1671.642	12646.6	11736.55
903.9773	1673.3761	12274.15	11369
904.119	1675.1094	11969.75	11068.35
904.2606	1676.8419	11741.85	10835.7
904.4022	1678.5737	11563.5	10662.3
904.5439	1680.3048	11416.15	10515.15
904.6855	1682.0351	11285.95	10378.8
904.827	1683.7646	11158.9	10254
904.9686	1685.4934	11076.75	10173.45
905.1101	1687.2215	10999.6	10098.45
905.2517	1688.9488	10917.95	10017.25
905.3932	1690.6754	10844.75	9942.35
905.5347	1692.4012	10803.55	9901.75
905.6761	1694.1263	10751.3	9848.6
905.8176	1695.8506	10696	9795.3
905.9591	1697.5742	10655.2	9755.15
906.1005	1699.297	10607.1	9708.1
906.2419	1701.0191	10532.8	9637
906.3833	1702.7404	10466.9	9568.65
906.5246	1704.461	10431.6	9532.05
906.666	1706.1808	10406.45	9505.95
906.8073	1707.8999	10332.6	9430.95
906.9487	1709.6182	10307.05	9413
907.09	1711.3358	10257.35	9363.1
907.2313	1713.0527	10229.55	9335.9
907.3725	1714.7688	10190.9	9289.7
907.5138	1716.4841	10140.85	9242.9
907.655	1718.1987	10141.05	9236.6
907.7962	1719.9126	10084.7	9190.55
907.9374	1721.6257	10034.2	9140.9
908.0786	1723.338	10019.15	9125.55
908.2198	1725.0496	9965.35	9069.75
908.3609	1726.7605	9929.65	9034.1
908.502	1728.4706	9884.75	8989.25
908.6431	1730.18	9836.4	8939.7
908.7842	1731.8886	9820.35	8927.2
908.9253	1733.5964	9824.35	8909
909.0664	1735.3036	9786.4	8889.35
909.2074	1737.0099	9751.25	8858.35
909.3484	1738.7156	9730	8838.45
909.4894	1740.4204	9645.95	8751.8
909.6304	1742.1246	9615.9	8719.35
909.7714	1743.8279	9593	8700
909.9123	1745.5306	9591.25	8696.8
910.0532	1747.2325	9580.35	8687.1
910.1941	1748.9336	9512.7	8618.65
910.335	1750.634	9504.95	8607.4
910.4759	1752.3336	9442.6	8550.4
910.6168	1754.0325	9443.2	8554.55
910.7576	1755.7307	9409.35	8519.25
910.8984	1757.4281	9390.45	8494.9
911.0392	1759.1247	9378.2	8474.55
911.18	1760.8206	9356.35	8454.9
911.3208	1762.5158	9369.65	8469.95
911.4615	1764.2102	9304.3	8407.2
911.6022	1765.9039	9270.25	8376.75
911.7429	1767.5968	9242.1	8350.95
911.8836	1769.289	9199.5	8307.25
912.0243	1770.9804	9181.05	8286.65
912.1649	1772.6711	9173.45	8275.85
912.3056	1774.361	9167.35	8268.15
912.4462	1776.0502	9151.4	8254.15
912.5868	1777.7386	9091.4	8191.25
912.7274	1779.4263	9081.1	8187.9
912.8679	1781.1132	9078.15	8187.9
913.0084	1782.7994	9025.15	8132.75
913.149	1784.4849	9002	8112.3
913.2895	1786.1696	9003.1	8106.2
913.4299	1787.8535	8957.9	8068
913.5704	1789.5367	8945.25	8058.45
913.7108	1791.2192	8946.2	8057.35
913.8513	1792.9009	8930.7	8013.95
913.9917	1794.5818	8875.1	7979.4
914.132	1796.2621	8880.1	7985.45
914.2724	1797.9415	8852.65	7956.85
914.4128	1799.6202	8810.35	7916.85
914.5531	1801.2982	8805.35	7911
914.6934	1802.9755	8784.25	7889.85
914.8337	1804.6519	8764.3	7869.95
914.9739	1806.3277	8716.9	7824.35
915.1142	1808.0027	8684.05	7796.1
915.2544	1809.6769	8661.7	7772.7
915.3946	1811.3504	8636.25	7749.7
915.5348	1813.0231	8638.2	7749.3
915.675	1814.6951	8639.55	7750.45
915.8151	1816.3664	8610.85	7716.8
915.9553	1818.0369	8601.15	7710.3
916.0954	1819.7067	8580.55	7687.75
916.2355	1821.3757	8548.9	7654.05
916.3755	1823.044	8542.85	7648.6
916.5156	1824.7115	8507.6	7610.9
916.6556	1826.3783	8476	7581.35
916.7956	1828.0443	8449.2	7559.3
916.9356	1829.7096	8435.65	7540.25
917.0756	1831.3741	8419.25	7527
917.2155	1833.0379	8385.85	7495.3
917.3555	1834.701	8344.7	7455.25
917.4954	1836.3633	8345.65	7456.55
917.6353	1838.0248	8328.35	7440.4
917.7751	1839.6856	8300.85	7408.25
917.915	1841.3457	8289.95	7398.3
918.0548	1843.005	8279.85	7388.35
918.1946	1844.6636	8275.95	7385.3
918.3344	1846.3214	8239.85	7347.3
918.4742	1847.9785	8237.9	7346.7
918.6139	1849.6349	8223.05	7327.75
918.7537	1851.2904	8226.8	7325.15
918.8934	1852.9453	8176.45	7282
919.0331	1854.5994	8159.05	7262.75
919.1727	1856.2528	8183.75	7287.45
919.3124	1857.9054	8148.35	7255.7
919.452	1859.5572	8143.5	7251.2
919.5916	1861.2083	8105.9	7212.35
919.7312	1862.8587	8107	7213.65
919.8708	1864.5084	8097.8	7199.9
920.0103	1866.1572	8057	7164.75
920.1498	1867.8054	8030.7	7136.7
920.2893	1869.4528	8005.6	7111
920.4288	1871.0994	7963.95	7070.5
920.5683	1872.7453	7971.55	7077.2
920.7077	1874.3905	7963.05	7050.7
920.8471	1876.0349	7933.75	7040.3
920.9865	1877.6786	7907.85	7012.85
921.1259	1879.3215	7897.05	7006.45
921.2653	1880.9637	7874.45	6982.85
921.4046	1882.6051	7856.5	6964.75
921.5439	1884.2458	7826.05	6933.2
921.6832	1885.8858	7821.25	6930.5
921.8225	1887.525	7804.15	6911.3
921.9617	1889.1634	7777.45	6886.8
922.101	1890.8011	7737.7	6842.6
922.2402	1892.4381	7749.2	6856.8
922.3794	1894.0743	7736.35	6844.45
922.5185	1895.7098	7687.25	6795.65
922.6577	1897.3446	7694	6800.5
922.7968	1898.9786	7674.35	6779.65
922.9359	1900.6118	7646.8	6756.7
923.075	1902.2443	7601.95	6708.6
923.214	1903.8761	7593.1	6701.65
923.3531	1905.5071	7542.5	6648.15
923.4921	1907.1374	7514	6621
923.6311	1908.7669	7525.1	6633.4
923.77	1910.3957	7530	6639.35
923.909	1912.0237	7456.3	6564.65
924.0479	1913.651	7444.15	6552.05
924.1868	1915.2776	7445.5	6554
924.3257	1916.9034	7421.95	6533.45
924.4646	1918.5285	7389.6	6496.85
924.6034	1920.1528	7341.2	6450.75
924.7422	1921.7764	7347.7	6457.35
924.881	1923.3992	7311.95	6419.65
925.0198	1925.0213	7285.5	6395.1
925.1586	1926.6427	7262.7	6372.5
925.2973	1928.2633	7326.1	6335.2
925.436	1929.8832	7237.15	6343.35
925.5747	1931.5023	7201.2	6309.65
925.7134	1933.1207	7186.35	6295.05
925.852	1934.7383	7164.55	6273.95
925.9906	1936.3552	7137.35	6246.75
926.1292	1937.9714	7122.7	6232.6
926.2678	1939.5868	7094.6	6201.4
926.4064	1941.2015	7049.7	6156.85
926.5449	1942.8154	7015.45	6121.5
926.6834	1944.4286	7007.2	6113.6
926.8219	1946.041	6991.9	6076.15
926.9604	1947.6528	6934.6	6038.6
927.0988	1949.2637	6917.35	6028.9
927.2372	1950.8739	6908.6	6018.1
927.3756	1952.4834	6906.8	6016.7
927.514	1954.0921	6887.1	5995.65
927.6523	1955.7001	6851.2	5956.45
927.7907	1957.3074	6831	5945.15
927.929	1958.9139	6798.05	5909.75
928.0673	1960.5197	6789.75	5903.2
928.2055	1962.1247	6768.3	5880.7
928.3438	1963.729	6712.7	5827.15
928.482	1965.3325	6713.55	5819.75
928.6202	1966.9353	6684.25	5799.35
928.7584	1968.5374	6653.1	5764.05
928.8965	1970.1387	6618.15	5729.65
929.0346	1971.7393	6610.95	5725.7
929.1727	1973.3392	6601.75	5715.5
929.3108	1974.9383	6564.8	5682.85
929.4489	1976.5366	6511.75	5628.25
929.5869	1978.1342	6539.2	5653.7
929.7249	1979.7311	6522.8	5638.25
929.8629	1981.3273	6503.3	5617.3
930.0009	1982.9227	6478.2	5592.65
930.1388	1984.5173	6464.35	5578.8
930.2767	1986.1112	6424.6	5539.75
930.4146	1987.7044	6423.2	5539
930.5525	1989.2968	6409.35	5522.7
930.6904	1990.8885	6399.55	5512.45
930.8282	1992.4795	6391.7	5506.6
930.966	1994.0697	6371	5488.6
931.1038	1995.6592	6341.95	5459.45
931.2415	1997.2479	6322.8	5439.2
931.3793	1998.8359	6286.65	5405
931.517	2000.4232	6263.6	5384.1
931.6547	2002.0097	6254.8	5378
931.7923	2003.5955	6229.45	5349.9
931.93	2005.1805	6228.1	5345.15
932.0676	2006.7648	6190.95	5310.2
932.2052	2008.3484	6209.55	5328.2
932.3427	2009.9312	6192.1	5310.65
932.4803	2011.5133	6162.25	5284.85
932.6178	2013.0946	6143	5262
932.7553	2014.6752	6116.05	5238.15
932.8928	2016.2551	6106.65	5220.6
933.0302	2017.8342	6076.1	5193.55
933.1676	2019.4126	6062.75	5180.3
933.305	2020.9902	6048.45	5168.55
933.4424	2022.5672	6035.05	5156.7
933.5798	2024.1433	6021.25	5138
933.7171	2025.7188	6002.55	5128.15
933.8544	2027.2935	5978.5	5099.25
933.9917	2028.8674	5949.5	5073.25
934.129	2030.4406	5939.9	5064.6
934.2662	2032.0131	5938.25	5062.5
934.4034	2033.5849	5920.75	5035.75
934.5406	2035.1559	5913.2	5036.25
934.6778	2036.7261	5907.7	5027.8
934.8149	2038.2957	5895.05	5011.7
934.952	2039.8645	5882.9	4998.15
935.0891	2041.4325	5876.95	4990.6
935.2262	2042.9998	5839.7	4959.65
935.3632	2044.5664	5838.75	4958.35
935.5002	2046.1323	5805.25	4926.5
935.6372	2047.6974	5795.15	4918.85
935.7742	2049.2617	5760	4882.95
935.9111	2050.8254	5767.7	4865.3
936.048	2052.3883	5767.65	4882.7
936.1849	2053.9504	5755.95	4872.35
936.3218	2055.5118	5748.25	4866.3
936.4586	2057.0725	5703.85	4820.25
936.5955	2058.6325	5691.05	4809.7
936.7323	2060.1917	5672.3	4794.25
936.869	2061.7502	5668.55	4786.05
937.0058	2063.3079	5642.1	4764.8
937.1425	2064.8649	5628.6	4748
937.2792	2066.4212	5606.25	4725.15
937.4159	2067.9767	5596.8	4717.35
937.5525	2069.5315	5567.15	4685.1
937.6891	2071.0856	5559.9	4681.45
937.8257	2072.6389	5543.55	4661.95
937.9623	2074.1915	5518.4	4643.5
938.0989	2075.7433	5493.15	4611.8
938.2354	2077.2945	5481.3	4601.35
938.3719	2078.8448	5465.65	4583.7
938.5084	2080.3945	5436	4553.4
938.6448	2081.9434	5438.1	4556.1
938.7812	2083.4916	5427.05	4542.15
938.9176	2085.039	5403.05	4513.05
939.054	2086.5857	5395.1	4505.05
939.1903	2088.1317	5387.85	4498.5
939.3267	2089.677	5372.05	4483.9
939.463	2091.2215	5366.35	4477.3
939.5992	2092.7652	5331.35	4439.65
939.7355	2094.3083	5338.4	4450.35
939.8717	2095.8506	5324.65	4438.35
940.0079	2097.3921	5326.35	4442.8
940.1441	2098.933	5293.7	4408.55
940.2802	2100.4731	5273.05	4388.75
940.4163	2102.0124	5303.1	4409.05
940.5524	2103.5511	5262.95	4377.55
940.6885	2105.089	5260.25	4372.35
940.8245	2106.6261	5258.85	4372.25
940.9606	2108.1626	5215.45	4329.6
941.0965	2109.6983	5237.25	4324.75
941.2325	2111.2332	5209.75	4321.45
941.3684	2112.7675	5200.3	4311.65
941.5044	2114.301	5197.55	4307.85
941.6403	2115.8337	5178.5	4293.4
941.7761	2117.3657	5183.2	4298.85
941.912	2118.897	5148.8	4259.15
942.0478	2120.4276	5154.35	4262.25
942.1835	2121.9575	5105.65	4216.4
942.3193	2123.4866	5131.6	4230.4
942.455	2125.0149	5090.4	4203.3
942.5907	2126.5426	5067.65	4184.4
942.7264	2128.0695	5065.95	4182.25
942.8621	2129.5956	5057.15	4178.3
942.9977	2131.1211	5040.1	4154.6
943.1333	2132.6458	5042.25	4158.2
943.2689	2134.1698	5022.05	4133.1
943.4044	2135.693	5019.45	4128.2
943.54	2137.2155	5000.3	4110.9
943.6755	2138.7373	4995.3	4109.3
943.8109	2140.2584	4958.9	4076.65
943.9464	2141.7787	4976.75	4091.1
944.0818	2143.2983	4938.8	4060.35
944.2172	2144.8171	4916.55	4038.3
944.3526	2146.3353	4897.45	4014.4
944.4879	2147.8527	4888.8	4007.3
944.6232	2149.3693	4889.05	4005.2
944.7585	2150.8853	4859.4	3972.75
944.8938	2152.4005	4850.4	3965.45
945.029	2153.9149	4835.6	3945.55
945.1642	2155.4287	4832.25	3945.25
945.2994	2156.9417	4836.95	3947.9
945.4346	2158.454	4823.65	3937.05
945.5697	2159.9655	4794.3	3912.15
945.7048	2161.4764	4813.55	3929.4
945.8399	2162.9865	4783.3	3900.8
945.9749	2164.4958	4776.6	3892.9
946.1099	2166.0045	4752.5	3868.25
946.2449	2167.5124	4731.4	3847.2
946.3799	2169.0195	4736.9	3851.3
946.5148	2170.526	4745.95	3859.9
946.6498	2172.0317	4720.3	3835.25
946.7846	2173.5367	4716.05	3830.9
946.9195	2175.0409	4704.05	3821.25
947.0543	2176.5445	4693.8	3806.9
947.1891	2178.0473	4675.9	3787.65
947.3239	2179.5494	4652.9	3760.85
947.4587	2181.0507	4642.55	3756.65
947.5934	2182.5513	4633.6	3747.45
947.7281	2184.0512	4634.75	3747.75
947.8628	2185.5504	4609.2	3722.75
947.9974	2187.0488	4580.4	3697
948.132	2188.5465	4575.35	3692.85
948.2666	2190.0435	4581.65	3697.25
948.4012	2191.5397	4574.85	3688.5
948.5357	2193.0353	4556	3669.3
948.6702	2194.5301	4521.3	3631.1
948.8047	2196.0241	4510.35	3620.6
948.9392	2197.5175	4505.95	3615.65
949.0736	2199.0101	4493.55	3600.35
949.208	2200.502	4472.15	3584.25
949.3424	2201.9931	4456.6	3573.6
949.4767	2203.4835	4429.5	3545.25
949.611	2204.9733	4443.15	3556.5
949.7453	2206.4622	4428.6	3545.35
949.8796	2207.9505	4411.4	3527.5
950.0138	2209.438	4388.25	3508.75
950.148	2210.9248	4369.3	3485.85
950.2822	2212.4109	4356.6	3470.75
950.4164	2213.8962	4371.55	3480.1
950.5505	2215.3809	4372.55	3480.15
950.6846	2216.8648	4344.45	3452.7
950.8186	2218.3479	4341.8	3445.05
950.9527	2219.8304	4327.15	3430.45
951.0867	2221.3121	4318.65	3425.75
951.2207	2222.7931	4302	3411.5
951.3546	2224.2733	4275.15	3385.9
951.4886	2225.7529	4267.5	3381.8
951.6225	2227.2317	4256.05	3371.2
951.7563	2228.7098	4249.15	3367.95
951.8902	2230.1872	4231.1	3348.85
952.024	2231.6638	4225.6	3343.5
952.1578	2233.1397	4209.05	3321.7
952.2916	2234.6149	4208.25	3324.8
952.4253	2236.0894	4183.65	3296.3
952.559	2237.5632	4179.7	3283.8
952.6927	2239.0362	4150.85	3266.75
952.8263	2240.5085	4164	3279.4
952.9599	2241.9801	4135.75	3249.5
953.0935	2243.4509	4141.85	3253.65
953.2271	2244.921	4115.05	3224.35
953.3606	2246.3904	4092.3	3198.1
953.4941	2247.8591	4088.95	3202.25
953.6276	2249.3271	4083.1	3196.85
953.7611	2250.7943	4068.05	3177.75
953.8945	2252.2608	4055.65	3167.4
954.0279	2253.7266	4044.45	3158.05
954.1612	2255.1917	4036.4	3148.7
954.2946	2256.656	4025.55	3138.2
954.4279	2258.1197	4017.7	3134.15
954.5612	2259.5826	4017.95	3133.4
954.6944	2261.0447	4010.55	3123.2
954.8276	2262.5062	3998.25	3108.25
954.9608	2263.9669	3994.2	3101.3
955.094	2265.4269	3966.75	3079.2
955.2271	2266.8862	3953.8	3066.15
955.3602	2268.3448	3954.85	3070.15
955.4933	2269.8026	3949.1	3064.95
955.6264	2271.2598	3943.75	3058.85
955.7594	2272.7162	3933.65	3047.95
955.8924	2274.1719	3934.15	3047.25
956.0253	2275.6268	3898.3	3010.05
956.1583	2277.0811	3891.85	3003.3
956.2912	2278.5346	3877.9	2992.2
956.4241	2279.9874	3878.2	2994.7
956.5569	2281.4395	3883.55	3000.3
956.6897	2282.8908	3848.45	2959.55
956.8225	2284.3414	3877.85	2988.5
956.9553	2285.7914	3853.5	2969.2
957.088	2287.2406	3842.5	2955.4
957.2207	2288.689	3832.25	2943.9
957.3534	2290.1368	3830.55	2936.6
957.486	2291.5838	3815.95	2920.65
957.6186	2293.0302	3815.65	2923.35
957.7512	2294.4758	3797.55	2907.85
957.8838	2295.9206	3789.2	2898.05
958.0163	2297.3648	3785.5	2899.75
958.1488	2298.8082	3784.15	2895.3
958.2813	2300.251	3753.1	2863.75
958.4137	2301.693	3746.25	2854.65
958.5461	2303.1343	3736.25	2846.95
958.6785	2304.5748	3727.05	2839.05
958.8108	2306.0147	3717.05	2832.2
958.9432	2307.4538	3707.35	2819.85
959.0754	2308.8922	3700	2817.05
959.2077	2310.3299	3689.75	2806.95
959.3399	2311.7669	3666.55	2781
959.4721	2313.2031	3666.3	2780.35
959.6043	2314.6387	3656.1	2768.3
959.7365	2316.0735	3648.65	2761.5
959.8686	2317.5076	3652.25	2762.4
960.0006	2318.941	3650.8	2763.45
960.1327	2320.3737	3638.95	2747.95
960.2647	2321.8056	3623.4	2730.95
960.3967	2323.2369	3623	2736.05
960.5287	2324.6674	3603.25	2709.8
960.6606	2326.0972	3601.55	2711.75
960.7925	2327.5263	3573.2	2686.15
960.9244	2328.9547	3582.3	2694.75
961.0562	2330.3823	3578.4	2686.15
961.1881	2331.8092	3573.75	2681.6
961.3198	2333.2355	3556	2663.75
961.4516	2334.661	3568.8	2677.9
961.5833	2336.0858	3543.15	2651
961.715	2337.5098	3550.65	2661.25
961.8467	2338.9332	3536.05	2649.55
961.9783	2340.3558	3514.05	2623.8
962.1099	2341.7778	3498.85	2613.75
962.2415	2343.199	3488.6	2600.6
962.373	2344.6195	3484.95	2598.5
962.5045	2346.0393	3491.05	2606.95
962.636	2347.4583	3484.45	2596.75
962.7675	2348.8767	3463.3	2575.8
962.8989	2350.2943	3480.5	2589.6
963.0303	2351.7113	3462.75	2572.65
963.1617	2353.1275	3445.2	2552.75
963.293	2354.543	3450.9	2552.45
963.4243	2355.9578	3440.25	2551.55
963.5556	2357.3718	3424.7	2539.4
963.6868	2358.7852	3410.9	2522.7
963.818	2360.1978	3403.3	2519.05
963.9492	2361.6098	3391.2	2504.8
964.0803	2363.021	3392.2	2503.35
964.2114	2364.4315	3377.85	2490.75
964.3425	2365.8413	3368.9	2480.7
964.4736	2367.2504	3360.5	2476.85
964.6046	2368.6587	3340.95	2456.4
964.7356	2370.0664	3340.7	2456.7
964.8666	2371.4733	3337.65	2450.05
964.9975	2372.8795	3314.5	2430
965.1284	2374.285	3311.85	2429.5
965.2593	2375.6899	3301.65	2418.5
965.3901	2377.0939	3286.95	2403.05
965.5209	2378.4973	3285.5	2403.85
965.6517	2379.9	3282.55	2397.75
965.7825	2381.3019	3268.9	2387.05
965.9132	2382.7032	3260.2	2380.35
966.0439	2384.1037	3256.25	2375.1
966.1745	2385.5035	3237.8	2355.25
966.3051	2386.9027	3226.15	2345.25
966.4357	2388.3011	3220.85	2336.45
966.5663	2389.6987	3219.9	2338.8
966.6968	2391.0957	3196.15	2315.35
966.8273	2392.492	3195.2	2315.9
966.9578	2393.8876	3181.2	2298
967.0882	2395.2824	3184.3	2301.7
967.2186	2396.6765	3151.95	2271.2
967.349	2398.07	3143.2	2259.6
967.4793	2399.4627	3145.9	2261.35
967.6097	2400.8547	3143.1	2257.4
967.7399	2402.246	3126.95	2237.9
967.8702	2403.6366	3127.4	2244.3
968.0004	2405.0265	3118.65	2236.75
968.1306	2406.4156	3112.85	2227.05
968.2607	2407.8041	3097.45	2209.7
968.3909	2409.1918	3085.7	2199.65
968.521	2410.5789	3067.6	2184.5
968.651	2411.9652	3080.9	2194.5
968.781	2413.3508	3064.8	2182.25
968.911	2414.7358	3060.6	2176.85
969.041	2416.12	3050.1	2166.95
969.1709	2417.5035	3047.4	2168.1
969.3008	2418.8863	3045.3	2160.75
969.4307	2420.2684	3030.55	2147.55
969.5606	2421.6497	3015.75	2132.75
969.6904	2423.0304	3003.45	2120.1
969.8201	2424.4104	3001.75	2118.9
969.9499	2425.7896	2988.7	2104.35
970.0796	2427.1682	2981.65	2100.25
970.2093	2428.546	2987.85	2103
970.3389	2429.9232	2976.35	2092.35
970.4685	2431.2996	2978.95	2095
970.5981	2432.6753	2977.25	2094.05
970.7277	2434.0503	2963.45	2080.25
970.8572	2435.4246	2944.7	2061.8
970.9867	2436.7982	2949.5	2059.95
971.1161	2438.1711	2929.3	2046.05
971.2456	2439.5433	2930.5	2044.6
971.375	2440.9148	2910.6	2023.55
971.5043	2442.2856	2895.25	2011.55
971.6336	2443.6557	2908.3	2024.55
971.7629	2445.025	2903.4	2018.35
971.8922	2446.3937	2896.05	2010.3
972.0214	2447.7617	2890.8	2005.6
972.1506	2449.1289	2880.7	1998.75
972.2798	2450.4955	2874.2	1989.25
972.4089	2451.8613	2869.4	1988
972.538	2453.2265	2862.9	1978.15
972.6671	2454.5909	2857.4	1974.25
972.7961	2455.9546	2848.7	1963.65
972.9251	2457.3177	2854.75	1969.45
973.0541	2458.68	2834.4	1948.25
973.1831	2460.0416	2826.9	1942.45
973.312	2461.4025	2827.6	1943.95
973.4408	2462.7627	2838.15	1941.35
973.5697	2464.1222	2820.05	1939.4
973.6985	2465.4811	2819.6	1938.25
973.8273	2466.8392	2801.5	1918.55
973.956	2468.1966	2805.15	1918.55
974.0847	2469.5533	2809.6	1922.75
974.2134	2470.9093	2796.7	1913.65
974.3421	2472.2645	2790.4	1905.5
974.4707	2473.6191	2792.75	1907.65
974.5993	2474.973	2770.75	1887.7
974.7278	2476.3262	2772.1	1885.7
974.8563	2477.6787	2766.65	1882.85
974.9848	2479.0305	2749.8	1869.5
975.1132	2480.3816	2755.7	1868.45
975.2417	2481.7319	2734.7	1851.55
975.37	2483.0816	2731.5	1844.8
975.4984	2484.4306	2717.3	1834.4
975.6267	2485.7789	2702.8	1821.95
975.755	2487.1264	2704.85	1818.95
975.8833	2488.4733	2707.2	1824.55
976.0115	2489.8195	2704.4	1814
976.1397	2491.165	2682.75	1798.15
976.2678	2492.5097	2687.55	1802.2
976.3959	2493.8538	2669.7	1786.3
976.524	2495.1972	2664.05	1780
976.6521	2496.5398	2661.2	1774.95
976.7801	2497.8818	2653.5	1767.85
976.9081	2499.2231	2654.95	1770.95
977.036	2500.5637	2649.2	1763.1
977.164	2501.9035	2639.2	1753.2
977.2918	2503.2427	2631.75	1741.6
977.4197	2504.5812	2627.8	1743.15
977.5475	2505.919	2615.9	1729.15
977.6753	2507.256	2608.2	1725.7
977.8031	2508.5924	2609.1	1726.4
977.9308	2509.9281	2605.9	1718.2
978.0585	2511.2631	2593.4	1710.45
978.1861	2512.5974	2599	1715.15
978.3137	2513.9309	2571.25	1686.4
978.4413	2515.2638	2600.2	1687.9
978.5689	2516.596	2583.05	1697.55
978.6964	2517.9275	2553	1667.05
978.8239	2519.2583	2555.8	1670.7
978.9513	2520.5884	2561.8	1675.95
979.0788	2521.9178	2541	1655.05
979.2062	2523.2465	2553.5	1670.5
979.3335	2524.5745	2535.95	1654.05
979.4608	2525.9018	2522.35	1636.6
979.5881	2527.2284	2529.95	1644.05
979.7154	2528.5543	2517.3	1632.95
979.8426	2529.8796	2508.6	1622.35
979.9698	2531.2041	2516.35	1630
980.0969	2532.5279	2516.6	1634.35
980.224	2533.851	2500	1613.35
980.3511	2535.1735	2502	1618.35
980.4781	2536.4952	2498.3	1613
980.6052	2537.8163	2493.7	1607.4
980.7321	2539.1366	2485.05	1601.75
980.8591	2540.4562	2491.4	1605.25
980.986	2541.7752	2482.7	1596.85
981.1129	2543.0935	2478.85	1592.35
981.2397	2544.411	2472.8	1585.2
981.3665	2545.7279	2460.9	1577.75
981.4933	2547.0441	2467.25	1582.35
981.62	2548.3596	2466.55	1579.05
981.7467	2549.6744	2458.5	1572.95
981.8734	2550.9885	2458.95	1564.35
982.0001	2552.3019	2441.5	1557.3
982.1267	2553.6146	2440.5	1554.8
982.2532	2554.9266	2439.55	1554.6
982.3798	2556.2379	2440.5	1553.75
982.5063	2557.5485	2423.9	1539.3
982.6327	2558.8585	2425.1	1534.25
982.7592	2560.1677	2423.15	1532.45
982.8856	2561.4762	2407.55	1519.85
983.0119	2562.7841	2414.65	1524.15
983.1383	2564.0913	2402.85	1519.85
983.2646	2565.3977	2410.65	1525.65
983.3908	2566.7035	2403.6	1519.2
983.517	2568.0086	2405.85	1518.85
983.6432	2569.313	2400.5	1514.25
983.7694	2570.6167	2399.2	1509.35
983.8955	2571.9197	2378.05	1490.75
984.0216	2573.222	2385.55	1495.1
984.1476	2574.5236	2379.35	1491.8
984.2737	2575.8246	2364.2	1477.5
984.3996	2577.1248	2368.6	1477.8
984.5256	2578.4244	2372.25	1487.85
984.6515	2579.7232	2375.85	1488.9
984.7774	2581.0214	2383.85	1470.5
984.9032	2582.3189	2358.2	1473.85
985.029	2583.6157	2353	1464.8
985.1548	2584.9118	2354.35	1468.85
985.2806	2586.2072	2362.25	1477.95
985.4063	2587.5019	2359	1474.4
985.5319	2588.7959	2338.85	1453.7
985.6576	2590.0893	2349.85	1459.95
985.7832	2591.3819	2355.1	1470.6
985.9087	2592.6739	2349.05	1463.75
986.0343	2593.9652	2348.15	1459.9
986.1597	2595.2557	2332.45	1446.8
986.2852	2596.5456	2330.1	1440.75
986.4106	2597.8348	2325.5	1442
986.536	2599.1234	2324.4	1439.1
986.6614	2600.4112	2319.4	1432.8
986.7867	2601.6983	2324.2	1432.45
986.912	2602.9848	2315.75	1429.95
987.0372	2604.2705	2320.75	1426.95
987.1624	2605.5556	2305.9	1420.45
987.2876	2606.84	2297.25	1413.75
987.4128	2608.1237	2285.25	1399.1
987.5379	2609.4067	2292.7	1406.5
987.6629	2610.689	2289.05	1394.4
987.788	2611.9707	2277.45	1388
987.913	2613.2516	2272.8	1383.55
988.0379	2614.5319	2259.15	1373.25
988.1629	2615.8115	2259.05	1373.5
988.2878	2617.0903	2252.35	1364.45
988.4126	2618.3685	2247.85	1362.5
988.5375	2619.6461	2255.95	1372.25
988.6622	2620.9229	2244.9	1360.65
988.787	2622.199	2237.95	1352.75
988.9117	2623.4745	2237.45	1351.75
989.0364	2624.7493	2236.15	1352.05
989.161	2626.0234	2235.25	1349.85
989.2857	2627.2968	2231.25	1348.3
989.4102	2628.5695	2222.35	1337.95
989.5348	2629.8415	2213.9	1327.4
989.6593	2631.1128	2216	1331.95
989.7837	2632.3835	2203.95	1319.35
989.9082	2633.6535	2214.95	1330.4
990.0326	2634.9228	2203.9	1320.95
990.1569	2636.1914	2203.2	1317.95
990.2812	2637.4593	2200.55	1314.15
990.4055	2638.7265	2190.9	1303.45
990.5298	2639.9931	2176.5	1292.7
990.654	2641.259	2187.45	1303.65
990.7782	2642.5242	2174.45	1288.55
990.9023	2643.7887	2175.4	1291.6
991.0264	2645.0525	2165.7	1281.2
991.1505	2646.3156	2160.55	1276.95
991.2745	2647.5781	2153.7	1269.95
991.3985	2648.8398	2158.85	1275.25
991.5225	2650.1009	2149.05	1257.2
991.6464	2651.3613	2140	1257.1
991.7703	2652.6211	2136.85	1251.75
991.8942	2653.8801	2134.1	1250.85
992.018	2655.1385	2133.1	1245.85
992.1418	2656.3961	2120.85	1235
992.2655	2657.6531	2128.5	1241.65
992.3892	2658.9094	2127.6	1241.1
992.5129	2660.1651	2134.3	1249.9
992.6366	2661.42	2124.15	1241.9
992.7602	2662.6743	2131.95	1246.25
992.8837	2663.9279	2127.5	1243.45
993.0073	2665.1808	2114.15	1228.3
993.1307	2666.433	2116.65	1231.55
993.2542	2667.6846	2116.55	1232.6
993.3776	2668.9354	2118.6	1230.15
993.501	2670.1856	2114.35	1229.45
993.6244	2671.4351	2114.9	1230.25
993.7477	2672.6839	2113.3	1228.7
993.8709	2673.9321	2119.4	1236.65
993.9942	2675.1795	2109.25	1225.05
994.1174	2676.4263	2120.25	1237.35
994.2405	2677.6724	2111.7	1229.9
994.3637	2678.9179	2105.05	1219.8
994.4868	2680.1626	2102.65	1218.2
994.6098	2681.4067	2111	1223.8
994.7328	2682.6501	2107.1	1222.45
994.8558	2683.8928	2101.15	1217.7
994.9788	2685.1348	2087.95	1204.35
995.1017	2686.3761	2072.15	1188.35
995.2245	2687.6168	2081	1197.8
995.3474	2688.8568	2079.9	1197.35
995.4702	2690.0961	2075.9	1192.9
995.5929	2691.3348	2067.15	1181.95
995.7156	2692.5727	2053.2	1168.65
995.8383	2693.81	2054.9	1168.85
995.961	2695.0466	2050.75	1167.6
996.0836	2696.2826	2050.75	1166.35
996.2062	2697.5178	2057.05	1170.15
996.3287	2698.7524	2044.35	1161
996.4512	2699.9863	2057.1	1169.65
996.5737	2701.2195	2043.2	1160.25
996.6961	2702.452	2046.7	1160.95
996.8185	2703.6839	2041	1155.25
996.9408	2704.9151	2042.85	1159.5
997.0631	2706.1456	2041	1155.55
997.1854	2707.3755	2047.9	1162.55
997.3077	2708.6046	2055.25	1169.9
997.4299	2709.8331	2052.3	1165.7
997.552	2711.0609	2055.6	1172.6
997.6742	2712.2881	2052.45	1169.35
997.7963	2713.5145	2073.8	1188.7
997.9183	2714.7403	2076.45	1194
998.0403	2715.9654	2070.7	1185.4
998.1623	2717.1899	2101.8	1201.25
998.2842	2718.4136	2095.9	1214.55
998.4062	2719.6367	2106.9	1222.25
998.528	2720.8591	2125.6	1236.65
998.6498	2722.0809	2132.5	1249.3
998.7716	2723.3019	2133.85	1247.7
998.8934	2724.5223	2141.95	1256.75
999.0151	2725.7421	2148.9	1264.75
999.1368	2726.9611	2145.65	1260.65
999.2584	2728.1795	2151.25	1263.65
999.38	2729.3972	2131.05	1248.15
999.5016	2730.6142	2130.7	1232.7
999.6231	2731.8306	2100.4	1215.9
999.7446	2733.0462	2082.35	1198.2
999.8661	2734.2612	2062.95	1177.8
999.9875	2735.4756	2041.5	1157.8
1000.1089	2736.6892	2033.3	1148.95
1000.2302	2737.9022	2001.35	1116.6
1000.3515	2739.1145	1995.1	1108.95
1000.4728	2740.3262	1977.05	1086.4
1000.594	2741.5372	1967.05	1083.25
1000.7152	2742.7475	1940.9	1059.05
1000.8363	2743.9571	1936.35	1051.2
1000.9575	2745.1661	1923.5	1035.55
1001.0785	2746.3744	1915.45	1031.4
1001.1996	2747.582	1904.45	1020.35
1001.3206	2748.7889	1900.35	1014.25
1001.4415	2749.9952	1892.55	1010.65
1001.5625	2751.2008	1878.3	995.15
1001.6833	2752.4057	1877.6	992.55
1001.8042	2753.61	1875.9	992.05
1001.925	2754.8136	1874	990.7
1002.0458	2756.0165	1861.4	978.9
1002.1665	2757.2188	1864.7	983.85
1002.2872	2758.4204	1855.9	971.8
1002.4078	2759.6213	1851	968.4
1002.5285	2760.8215	1856.55	966.8
1002.649	2762.0211	1851	966.4
1002.7696	2763.22	1851.8	966.85
1002.8901	2764.4182	1848.1	964.75
1003.0106	2765.6158	1837.45	954.2
1003.131	2766.8127	1827.4	945.1
1003.2514	2768.009	1831.45	946.65
1003.3717	2769.2045	1820.55	937.85
1003.492	2770.3994	1826.65	943.1
1003.6123	2771.5936	1818.6	934.9
1003.7325	2772.7872	1809.65	929.45
1003.8527	2773.9801	1805.55	922.6
1003.9729	2775.1723	1815.4	918.35
1004.093	2776.3639	1800.1	919.25
1004.2131	2777.5548	1799.2	914.25
1004.3331	2778.745	1803.95	919.45
1004.4531	2779.9346	1801.3	919.05
1004.5731	2781.1235	1801.85	919.75
1004.693	2782.3117	1804.55	922.15
1004.8129	2783.4992	1795.45	914.4
1004.9328	2784.6861	1800.55	916.45
1005.0526	2785.8723	1812.45	928.95
1005.1723	2787.0579	1800	917
1005.2921	2788.2428	1815	930.2
1005.4118	2789.427	1816.95	935.55
1005.5314	2790.6106	1829.75	948.15
1005.651	2791.7935	1825.95	942.8
1005.7706	2792.9757	1839.4	958.4
1005.8902	2794.1573	1851.85	966.5
1006.0097	2795.3382	1861.6	981.3
1006.1291	2796.5184	1860.8	979.9
1006.2485	2797.698	1893.05	1007.6
1006.3679	2798.8769	1899.65	1018.45
1006.4873	2800.0551	1911.1	1027.5
1006.6066	2801.2327	1926.35	1041.95
1006.7258	2802.4096	1943.7	1064.1
1006.8451	2803.5859	1957.75	1076.15
1006.9642	2804.7615	1985.35	1103.4
1007.0834	2805.9364	1997.05	1116.35
1007.2025	2807.1106	2029.8	1150.35
1007.3216	2808.2842	2045.2	1160.95
1007.4406	2809.4572	2072.5	1190.3
1007.5596	2810.6294	2113.25	1229.15
1007.6785	2811.801	2150.2	1271.45
1007.7975	2812.972	2187.45	1306.05
1007.9163	2814.1423	2232.4	1352.15
1008.0352	2815.3119	2263.55	1383.95
1008.154	2816.4808	2325.3	1444.8
1008.2727	2817.6491	2363.15	1481.45
1008.3914	2818.8167	2404.9	1523.65
1008.5101	2819.9837	2465.1	1577.25
1008.6288	2821.15	2505.2	1623.75
1008.7474	2822.3157	2542.85	1661.45
1008.8659	2823.4807	2593.1	1710.75
1008.9844	2824.645	2651	1767.25
1009.1029	2825.8086	2677.75	1796.45
1009.2214	2826.9716	2724.45	1842.9
1009.3398	2828.134	2781.45	1901.3
1009.4581	2829.2957	2822.4	1941.65
1009.5764	2830.4567	2847.45	1968.1
1009.6947	2831.617	2860.55	1981.05
1009.813	2832.7767	2869.4	1989.45
1009.9312	2833.9358	2875.95	1995.65
1010.0493	2835.0941	2872.4	1990.25
1010.1675	2836.2519	2852.2	1970.45
1010.2855	2837.4089	2838.6	1958.4
1010.4036	2838.5653	2820.55	1939.8
1010.5216	2839.7211	2822.6	1944.1
1010.6396	2840.8761	2844.35	1963.3
1010.7575	2842.0306	2854	1976.2
1010.8754	2843.1843	2878.1	1997.85
1010.9932	2844.3374	2935.2	2054.35
1011.111	2845.4899	2996.75	2115.15
1011.2288	2846.6417	3063.95	2181.35
1011.3465	2847.7928	3131.2	2251.9
1011.4642	2848.9433	3201.4	2320.4
1011.5818	2850.0931	3264.2	2384.55
1011.6995	2851.2422	3348.15	2465.2
1011.817	2852.3907	3410.95	2527.05
1011.9345	2853.5385	3478.9	2595.05
1012.052	2854.6857	3541.65	2635.05
1012.1695	2855.8323	3594.3	2715.55
1012.2869	2856.9781	3628.85	2749.25
1012.4042	2858.1233	3675.45	2795.25
1012.5216	2859.2679	3729.1	2849.9
1012.6389	2860.4118	3775.5	2893.85
1012.7561	2861.555	3814.5	2931.55
1012.8733	2862.6976	3845.85	2965
1012.9905	2863.8395	3893.35	3011.6
1013.1076	2864.9808	3899.8	3020.45
1013.2247	2866.1214	3911.7	3030
1013.3417	2867.2614	3925.2	3042.1
1013.4587	2868.4007	3940.75	3059.75
1013.5757	2869.5393	3934.85	3049.7
1013.6926	2870.6773	3957.4	3072.85
1013.8095	2871.8146	3966.15	3083.15
1013.9263	2872.9513	3976.65	3091.75
1014.0431	2874.0874	3969.3	3085.45
1014.1599	2875.2227	3965.15	3084.95
1014.2766	2876.3574	3926.65	3046.1
1014.3933	2877.4915	3901.95	3022.75
1014.51	2878.6249	3885.45	3003.4
1014.6266	2879.7577	3854.85	2973.5
1014.7431	2880.8898	3845	2954.35
1014.8596	2882.0212	3826.1	2944.3
1014.9761	2883.152	3798.9	2918.7
1015.0925	2884.2821	3781.1	2899.4
1015.2089	2885.4116	3789.5	2908.6
1015.3253	2886.5405	3787.2	2907.3
1015.4416	2887.6686	3804.7	2921.75
1015.5579	2888.7962	3780.15	2900.35
1015.6741	2889.923	3792.75	2914.3
1015.7903	2891.0493	3817.45	2938.8
1015.9065	2892.1748	3820.1	2939.15
1016.0226	2893.2997	3832.75	2951.75
1016.1387	2894.424	3836.45	2957.1
1016.2547	2895.5476	3854.5	2974.75
1016.3707	2896.6706	3891.45	3013.15
1016.4866	2897.7929	3911.15	3030.25
1016.6025	2898.9145	3950.5	3069.8
1016.7184	2900.0355	3982.05	3101.65
1016.8342	2901.1559	4000.6	3118.9
1016.95	2902.2756	4034.85	3153.6
1017.0658	2903.3946	4071.6	3194.05
1017.1815	2904.513	4096.05	3216.05
1017.2971	2905.6308	4114.9	3238.05
1017.4127	2906.7479	4144.65	3264.05
1017.5283	2907.8643	4155.25	3276.5
1017.6439	2908.9801	4165.55	3287.75
1017.7594	2910.0953	4182.05	3301.55
1017.8748	2911.2098	4187.25	3304.9
1017.9902	2912.3236	4175.75	3287.95
1018.1056	2913.4368	4165.35	3282.55
1018.2209	2914.5494	4139.6	3259.65
1018.3362	2915.6613	4121.5	3235.5
1018.4515	2916.7725	4084.7	3200.4
1018.5667	2917.8831	4051.55	3171.05
1018.6819	2918.9931	4025.95	3144.9
1018.797	2920.1024	3998.6	3118.05
1018.9121	2921.211	3966.1	3087.4
1019.0271	2922.319	3940	3060.45
1019.1421	2923.4264	3926.6	3048
1019.2571	2924.5331	3914.6	3035.3
1019.372	2925.6391	3897.3	3020.3
1019.4869	2926.7445	3898.85	3021.2
1019.6017	2927.8493	3878.25	2998.8
1019.7165	2928.9534	3877.1	2997.9
1019.8313	2930.0569	3862.6	2980.9
1019.946	2931.1597	3869.25	2987.5
1020.0606	2932.2619	3869.45	2988.75
1020.1753	2933.3634	3858.2	2981
1020.2899	2934.4643	3865.2	2979
1020.4044	2935.5645	3830.65	2945.55
1020.5189	2936.6641	3812.1	2930.15
1020.6334	2937.763	3772.7	2894.75
1020.7478	2938.8613	3708.05	2828.9
1020.8622	2939.959	3659.95	2774.7
1020.9765	2941.056	3586.85	2706.65
1021.0908	2942.1523	3493.35	2612.7
1021.2051	2943.248	3407.15	2527.2
1021.3193	2944.3431	3310.8	2433.4
1021.4334	2945.4375	3211.7	2332.9
1021.5476	2946.5313	3103.3	2225.85
1021.6617	2947.6244	2998.85	2119.9
1021.7757	2948.7169	2914.85	2033.6
1021.8897	2949.8087	2799.55	1921.85
1022.0037	2950.8999	2725.7	1846.75
1022.1176	2951.9904	2633.15	1756.7
1022.2315	2953.0803	2558.95	1679.2
1022.3453	2954.1696	2501.55	1621.3
1022.4591	2955.2582	2451.05	1573.15
1022.5728	2956.3462	2407	1526.35
1022.6865	2957.4335	2361.4	1480.6
1022.8002	2958.5202	2318	1437.6
1022.9138	2959.6062	2296.85	1417.75
1023.0274	2960.6916	2280.75	1401.1
1023.141	2961.7764	2263.25	1383.85
1023.2545	2962.8605	2243.75	1363.1
1023.3679	2963.9439	2222.8	1344.3
1023.4813	2965.0267	2206.85	1326.9
1023.5947	2966.1089	2218.2	1316.4
1023.708	2967.1905	2191.75	1312.35
1023.8213	2968.2714	2185.8	1307.35
1023.9346	2969.3516	2186.35	1306.8
1024.0478	2970.4312	2193.05	1307.55
1024.1609	2971.5102	2193.95	1316.9
1024.274	2972.5885	2187.15	1309.85
1024.3871	2973.6662	2191.4	1308
1024.5002	2974.7432	2181.7	1303.05
1024.6132	2975.8196	2179.7	1300.85
1024.7261	2976.8954	2163.65	1285.85
1024.839	2977.9705	2163.1	1284.85
1024.9519	2979.045	2142.85	1264.25
1025.0647	2980.1188	2120.85	1241.7
1025.1775	2981.192	2101.45	1223.2
1025.2902	2982.2645	2086.55	1206.8
1025.4029	2983.3364	2056.35	1177.6
1025.5156	2984.4077	2030.75	1150.9
1025.6282	2985.4783	2003.85	1119.5
1025.7407	2986.5483	1965.75	1088.9
1025.8532	2987.6177	1939	1060.35
1025.9657	2988.6864	1899.6	1020.3
1026.0782	2989.7545	1854.25	974.75
1026.1906	2990.8219	1818.95	941.4
1026.3029	2991.8887	1803.05	922.9
1026.4152	2992.9548	1760.6	881.5
1026.5275	2994.0204	1718.55	839.55
1026.6397	2995.0852	1699.45	820.95
1026.7519	2996.1495	1683.55	805
1026.864	2997.2131	1657.95	780.6
1026.9761	2998.276	1633.05	755.5
1027.0882	2999.3383	1613.45	735
1027.2002	3000.4	1592.5	713.95
1027.3122	3001.4611	1573.55	693.9
1027.4241	3002.5215	1555.95	677.45
1027.536	3003.5812	1547.85	671.65
1027.6478	3004.6404	1531.5	653.55
1027.7596	3005.6989	1520.35	639.3
1027.8714	3006.7567	1506.05	628.85
1027.9831	3007.8139	1533.75	623.1
1028.0947	3008.8705	1484.35	606.95
1028.2064	3009.9264	1493.4	610.8
1028.3179	3010.9818	1478.45	599
1028.4295	3012.0364	1476.35	597.25
1028.541	3013.0905	1472.55	592.6
1028.6524	3014.1439	1469.95	594.35
1028.7638	3015.1966	1460.25	583.05
1028.8752	3016.2487	1464.4	587.55
1028.9865	3017.3002	1458.65	577.9
1029.0978	3018.3511	1456.95	582.25
1029.209	3019.4013	1456.25	577.25
1029.3202	3020.4509	1458.15	582.2
1029.4314	3021.4998	1457.95	579.2
1029.5425	3022.5481	1456.45	577.9
1029.6535	3023.5958	1449.55	572.2
1029.7645	3024.6428	1460	582.15
1029.8755	3025.6892	1452.7	576.2
1029.9864	3026.735	1449.1	570.8
1030.0973	3027.7802	1458.55	580.25
1030.2082	3028.8247	1456.75	581
1030.319	3029.8685	1458.65	579.65
1030.4297	3030.9118	1464.9	588
1030.5404	3031.9544	1464.75	587.85
1030.6511	3032.9963	1464.75	588.1
1030.7617	3034.0376	1469.95	591.65
1030.8723	3035.0783	1481.25	601.55
1030.9829	3036.1184	1473	594.95
1031.0934	3037.1578	1478.75	604.35
1031.2038	3038.1966	1480.5	602.35
1031.3142	3039.2348	1479.4	602.4
1031.4246	3040.2723	1490.4	603.9
1031.5349	3041.3092	1472.05	596.35
1031.6452	3042.3455	1470.25	592.95
1031.7554	3043.3811	1471.4	591.55
1031.8656	3044.4161	1472.45	595.1
1031.9758	3045.4505	1465.55	588.6
1032.0859	3046.4842	1458.3	581.15
1032.1959	3047.5173	1451.15	574.2
1032.3059	3048.5498	1453.15	574.15
1032.4159	3049.5816	1442.85	566.65
1032.5258	3050.6128	1437.1	558.7
1032.6357	3051.6434	1432.05	553
1032.7455	3052.6734	1421.85	543.25
1032.8553	3053.7027	1407.1	531.35
1032.9651	3054.7314	1413.35	537.8
1033.0748	3055.7594	1402.75	526.95
1033.1845	3056.7868	1401.5	522.75
1033.2941	3057.8136	1385.9	506.75
1033.4037	3058.8398	1386.4	511.15
1033.5132	3059.8653	1382	503.6
1033.6227	3060.8902	1379.8	501.7
1033.7321	3061.9145	1378.55	500.9
1033.8415	3062.9381	1369.25	495.2
1033.9509	3063.9612	1379.65	487.75
1034.0602	3064.9835	1355.3	480.1
1034.1694	3066.0053	1346.05	467.4
1034.2787	3067.0264	1339.75	464.8
1034.3878	3068.0469	1336.45	456.7
1034.497	3069.0668	1330.7	450.35
1034.6061	3070.086	1314	439.4
1034.7151	3071.1046	1317.55	441.05
1034.8241	3072.1226	1301.75	422.4
1034.9331	3073.1399	1295.2	418.4
1035.042	3074.1567	1287.35	409
1035.1508	3075.1727	1281.8	404.1
1035.2597	3076.1882	1266.2	389.65
1035.3684	3077.203	1262.8	386.15
1035.4772	3078.2173	1250.65	370.95
1035.5859	3079.2308	1246.75	365.7
1035.6945	3080.2438	1236.7	358.65
1035.8031	3081.2561	1229.25	354.25
1035.9117	3082.2678	1226.45	348.05
1036.0202	3083.2789	1219.6	340.7
1036.1286	3084.2893	1208.65	333.45
1036.2371	3085.2991	1206.5	331.1
1036.3454	3086.3083	1201.2	318.65
1036.4538	3087.3169	1191.85	314.6
1036.562	3088.3248	1191.4	311.95
1036.6703	3089.3321	1185.65	308.5
1036.7785	3090.3388	1174.7	297.7
1036.8866	3091.3449	1174.3	299.5
1036.9948	3092.3503	1175.45	296.2
1037.1028	3093.3551	1165.9	291.5
1037.2108	3094.3593	1161.75	286.85
1037.3188	3095.3629	1150.2	275.85
1037.4267	3096.3658	1153.45	277.15
1037.5346	3097.3681	1150.45	272.75
1037.6425	3098.3698	1149.2	271.85
1037.7503	3099.3708	1147.05	263.8
1037.858	3100.3713	1141.2	266.5
1037.9657	3101.3711	1138.1	261.15
1038.0734	3102.3702	1271.35	249.2
1038.181	3103.3688	1136.6	256.85
1038.2886	3104.3667	1135.15	257.75
1038.3961	3105.364	1126.7	250.8
1038.5036	3106.3607	1125.75	246.9
1038.611	3107.3568	1119.7	240.4
1038.7184	3108.3522	1122.3	248.65
1038.8257	3109.347	1118.3	241.6
1038.933	3110.3412	1122.4	241.05
1039.0403	3111.3348	1115.9	239.35
1039.1475	3112.3277	1108.6	232.8
1039.2547	3113.32	1112.4	237.4
1039.3618	3114.3117	1113.8	237.5
1039.4689	3115.3028	1108.05	229.35
1039.5759	3116.2932	1104.45	224.9
1039.6829	3117.2831	1111.9	230.85
1039.7898	3118.2723	1102.2	225.15
1039.8967	3119.2608	1096	218.7
1040.0035	3120.2488	1100	224.05
1040.1103	3121.2361	1097.1	221.95
1040.2171	3122.2229	1098.25	223.3
1040.3238	3123.209	1095.8	217.95
1040.4305	3124.1944	1090.55	215.7
1040.5371	3125.1793	1089.15	210.85
1040.6437	3126.1635	1085.3	210
1040.7502	3127.1471	1089.3	213.7
1040.8567	3128.1301	1081.95	204.55
1040.9631	3129.1125	1082.45	206.85
1041.0695	3130.0942	1082.25	205.5
1041.1759	3131.0753	1092.4	208.65
1041.2822	3132.0558	1084.2	203.75
1041.3884	3133.0357	1079.75	201.6
1041.4946	3134.015	1075.95	199.2
1041.6008	3134.9936	1072	192.9
1041.7069	3135.9716	1091.3	195.75
1041.813	3136.949	1074.95	198.15
1041.919	3137.9258	1089.1	194.55
1042.025	3138.902	1078.9	197.6
1042.1309	3139.8775	1065.5	188.2
1042.2368	3140.8524	1065.55	190
1042.3427	3141.8267	1066.8	190.6
1042.4485	3142.8004	1061.9	186.45
1042.5542	3143.7735	1067.6	183.7
1042.6599	3144.7459	1065.9	188.45
1042.7656	3145.7178	1060.6	183.4
1042.8712	3146.689	1059.85	184.55
1042.9768	3147.6596	1057.6	178.7
1043.0823	3148.6295	1056.8	179.55
1043.1878	3149.5989	1053.7	177.05
1043.2932	3150.5676	1051.7	176.4
1043.3986	3151.5357	1047.75	173.65
1043.5039	3152.5032	1050.8	173.35
1043.6092	3153.4701	1047.15	172.95
1043.7145	3154.4364	1048.55	171.45
1043.8197	3155.402	1045.2	170.05
1043.9248	3156.367	1046.4	168.7
1044.03	3157.3315	1065.4	161.2
1044.135	3158.2952	1043.9	168.6
1044.24	3159.2584	1039	164.5
1044.345	3160.221	1044.55	168.7
1044.4499	3161.1829	1040.95	164.55
1044.5548	3162.1442	1038.7	163.2
1044.6596	3163.105	1034.25	159.7
1044.7644	3164.065	1035.2	158.05
1044.8692	3165.0245	1035.3	156.65
1044.9739	3165.9834	1030.7	156.1
1045.0785	3166.9416	1032.25	154.75
1045.1831	3167.8993	1028.3	151.6
1045.2877	3168.8563	1031.05	152.95
1045.3922	3169.8127	1030.3	155.5
1045.4966	3170.7684	1030.2	154.9
1045.6011	3171.7236	1029.75	153.25
1045.7054	3172.6782	1030.4	155.4
1045.8098	3173.6321	1027.5	152.7
1045.914	3174.5854	1028.95	149.85
1046.0183	3175.5381	1024.4	149.05
1046.1224	3176.4902	1023.4	147.4
1046.2266	3177.4417	1019.05	145.3
1046.3307	3178.3926	1020.75	146.15
1046.4347	3179.3428	1019	144.55
1046.5387	3180.2924	1020.7	145.6
1046.6427	3181.2415	1021.35	145.1
1046.7466	3182.1899	1018.7	140.1
1046.8504	3183.1377	1017.35	143.5
1046.9542	3184.0848	1019.9	141.25
1047.058	3185.0314	1014.95	138.9
1047.1617	3185.9773	1012.15	136.85
1047.2654	3186.9227	1014.95	137.7
1047.369	3187.8674	1014.4	139.4
1047.4726	3188.8115	1014.3	129.9
1047.5761	3189.755	1010.45	136.5
1047.6796	3190.6979	1011.65	136.3
1047.783	3191.6402	1009.45	135.75
1047.8864	3192.5818	1007.85	132.25
1047.9898	3193.5229	1014.9	133.6
1048.0931	3194.4633	1010.7	136.6
1048.1963	3195.4031	1004.8	128.6
1048.2995	3196.3423	1003.65	127.95
1048.4027	3197.2809	1001.45	126.5
1048.5058	3198.2189	1003.15	127.65
1048.6089	3199.1563	1019.05	128.55
1048.7119	3200.0931	1003.05	129.4
1048.8148	3201.0292	999.8	125.5
1048.9178	3201.9648	1005.25	131.2
1049.0206	3202.8997	1003.5	127.7
1049.1235	3203.834	1002.25	127.4
1049.2262	3204.7677	995.45	121.05
1049.329	3205.7008	998.7	120.25
1049.4317	3206.6333	991.85	117.65
1049.5343	3207.5652	997.75	122.3
1049.6369	3208.4964	992.55	116.15
1049.7394	3209.4271	994.9	122.3
1049.8419	3210.3571	994.15	120
1049.9444	3211.2865	995.35	118.95
1050.0468	3212.2154	995.35	120.3
1050.1491	3213.1436	994.9	116.85
1050.2514	3214.0712	998.85	117.1
1050.3537	3214.9982	991.85	116.7
1050.4559	3215.9246	993	118.05
1050.5581	3216.8503	989.25	115.3
1050.6602	3217.7755	989.6	114.5
1050.7623	3218.7001	989.35	113.35
1050.8643	3219.624	990.95	116.2
1050.9663	3220.5473	988.05	112.35
1051.0682	3221.4701	989.05	113.5
1051.1701	3222.3922	989.2	113
1051.2719	3223.3137	987.85	113.05
1051.3737	3224.2346	986	111.15
1051.4754	3225.1549	982.55	109.05
1051.5771	3226.0746	988.8	113.9
1051.6788	3226.9937	982.15	106.5
1051.7804	3227.9121	983.85	110.3
1051.8819	3228.83	983.7	109.6
1051.9834	3229.7473	983.2	107.1
1052.0849	3230.6639	981	105.95
1052.1863	3231.5799	980.7	105.5
1052.2876	3232.4954	979.3	104.05
1052.3889	3233.4102	977.3	103.25
1052.4902	3234.3244	978.5	102.05
1052.5914	3235.238	975.15	99.95
1052.6926	3236.151	998.5	98.65
1052.7937	3237.0634	975.2	101.1
1052.8948	3237.9752	975.3	100.15
1052.9958	3238.8864	976.55	101.5
1053.0968	3239.797	975.25	98.55
1053.1977	3240.7069	973	97
1053.2986	3241.6163	973.7	98.45
1053.3994	3242.5251	970.05	96.55
1053.5002	3243.4332	967.65	92.85
1053.6009	3244.3408	970	97.45
1053.7016	3245.2477	968.55	95.6
1053.8022	3246.154	971.5	95.15
1053.9028	3247.0598	969.2	93.15
1054.0034	3247.9649	963.65	87.85
1054.1039	3248.8694	967.6	94.35
1054.2043	3249.7733	969.6	94.05
1054.3047	3250.6766	964.1	89.95
1054.4051	3251.5793	966.95	91.85
1054.5054	3252.4814	962.35	89.45
1054.6056	3253.3829	963.5	90.3
1054.7058	3254.2838	963.8	89.6
1054.806	3255.1841	961.65	88.3
1054.9061	3256.0838	961.9	86.7
1055.0061	3256.9829	956.5	82.6
1055.1062	3257.8814	961.95	85.9
1055.2061	3258.7792	958.45	81.1
1055.306	3259.6765	959.35	85
1055.4059	3260.5731	955.2	78.35
1055.5057	3261.4692	955.35	80.65
1055.6055	3262.3647	955.3	81.25
1055.7052	3263.2595	955.85	81.75
1055.8049	3264.1538	948.35	73.85
1055.9045	3265.0474	952.45	76.6
1056.0041	3265.9404	950.95	77.4
1056.1036	3266.8329	947.9	74
1056.2031	3267.7247	962.2	77.9
1056.3025	3268.616	946.1	74.8
1056.4019	3269.5066	942.2	68.6
1056.5013	3270.3966	945.75	70.9
1056.6005	3271.286	935.05	63
