Software Version:	3.9.2.0
Unit SN:	10000200
Spectrometer SN:	6960
Date:	3/8/2024 11:39:40 AM
Data Line Index:	25
Spectral Points:	2048
Integration time (ms):	125
Averages:	20
Delay (ms):	30000
Sequence Number:	1
Processing:	dark subtract
Laser Power (mW):	305
Laser Current (mA):	823
Laser Diode Temp (C):	25
Laser Case Temp (C):	25.2
System Temp (C):	25.2
Spectrometer Temp (C):	23.1
CCD Temp (C):	0.001
Secondary Temp (C):	20.011
Heatsink Temp (C):	19.923
CCDPCB Temp (C):	34.884
SecondaryPCB Temp (C):	27.359

Wavelength	RamanShift	Raw Counts	Dark Subtracted
787.061	30.1047	415.05	3.65
787.2016	32.3739	412.05	4.35
787.3422	34.6426	414.55	4.65
787.4828	36.9109	417.5	6.35
787.6235	39.1787	421.75	7.9
787.7642	41.4461	426.5	6.9
787.9049	43.7131	427.7	5.1
788.0456	45.9796	434.6	8.6
788.1863	48.2456	436.85	8.4
788.3271	50.5112	442.35	11.2
788.4679	52.7764	447.3	9.85
788.6087	55.0411	451.4	11.7
788.7496	57.3054	457.85	11.25
788.8904	59.5692	460.7	13.6
789.0313	61.8326	464.25	16.3
789.1722	64.0955	468.65	17.25
789.3132	66.3579	475.8	20
789.4541	68.6199	481.2	21.35
789.5951	70.8815	489	21.75
789.7361	73.1426	509.7	39.05
789.8771	75.4032	542.8	68.35
790.0181	77.6634	613.2	136.35
790.1592	79.9231	780.5	299.85
790.3003	82.1824	1123.1	634.6
790.4414	84.4412	1695.85	1194.05
790.5825	86.6995	2441.3	1921.9
790.7237	88.9574	3095.4	2562.05
790.8648	91.2148	3559.8	3015.85
791.006	93.4717	3749.2	3198.7
791.1472	95.7282	3784.95	3230.2
791.2885	97.9842	3769.55	3214.5
791.4297	100.2398	3726.3	3167.35
791.571	102.4949	3672.95	3109.1
791.7123	104.7495	3626.9	3061.4
791.8536	107.0036	3581.6	3017.75
791.9949	109.2573	3500.25	2937.35
792.1363	111.5105	3417.05	2849.1
792.2777	113.7632	3312.9	2740.15
792.4191	116.0154	3209.3	2626.9
792.5605	118.2672	3117.5	2544
792.7019	120.5185	3011.15	2432.45
792.8434	122.7693	2916.3	2336.5
792.9849	125.0197	2826.05	2244
793.1264	127.2696	2761.95	2173.15
793.2679	129.519	2707.2	2117.8
793.4094	131.7679	2683.05	2089.4
793.551	134.0163	2659.05	2061.4
793.6926	136.2642	2653	2054.15
793.8342	138.5117	2654.25	2047.05
793.9758	140.7587	2610.45	2008.7
794.1175	143.0052	2567.35	1960.75
794.2591	145.2512	2522.55	1918.45
794.4008	147.4967	2464.4	1857.35
794.5425	149.7417	2430.65	1820.9
794.6842	151.9863	2407.75	1793.1
794.826	154.2304	2408	1787.1
794.9677	156.4739	2395.9	1770.75
795.1095	158.717	2400.35	1777
795.2513	160.9596	2437.9	1807.1
795.3931	163.2017	2451.1	1817.7
795.535	165.4433	2458.8	1828.2
795.6768	167.6844	2452.9	1816.65
795.8187	169.925	2427.35	1789.65
795.9606	172.1651	2372.25	1731.35
796.1025	174.4047	2331.1	1686.9
796.2445	176.6439	2291.25	1645.65
796.3864	178.8825	2262.25	1612
796.5284	181.1206	2245.7	1592.2
796.6704	183.3582	2238.65	1581.4
796.8124	185.5954	2240.65	1579.95
796.9544	187.832	2244.05	1583
797.0965	190.0681	2239.1	1572.2
797.2386	192.3037	2245.05	1575.8
797.3806	194.5388	2261.3	1589.6
797.5228	196.7734	2259	1588.75
797.6649	199.0075	2275.6	1602.9
797.807	201.2411	2299.9	1624
797.9492	203.4742	2306.8	1630
798.0914	205.7068	2338.9	1657.5
798.2336	207.9389	2371.75	1688.45
798.3758	210.1704	2388.55	1712.05
798.518	212.4015	2362.65	1698.8
798.6603	214.632	2374.8	1716.35
798.8025	216.862	2367.7	1709.65
798.9448	219.0915	2390.95	1729
799.0871	221.3205	2399.25	1734.45
799.2294	223.549	2396.7	1735.15
799.3718	225.777	2407.35	1744.4
799.5141	228.0044	2396.05	1727.95
799.6565	230.2314	2401.15	1726.45
799.7989	232.4578	2383.05	1709.5
799.9413	234.6837	2381.15	1696.8
800.0837	236.909	2358.5	1672.95
800.2262	239.1339	2368.6	1659.7
800.3687	241.3582	2352.65	1657.9
800.5111	243.582	2379.6	1656.05
800.6536	245.8053	2372.5	1660.45
800.7961	248.0281	2374.65	1669.75
800.9387	250.2503	2378.5	1666.4
801.0812	252.472	2392	1681.7
801.2238	254.6932	2404.2	1693.35
801.3664	256.9139	2394.35	1678.2
801.509	259.134	2428.15	1708.4
801.6516	261.3536	2447.15	1733.1
801.7942	263.5727	2489.55	1773.05
801.9369	265.7912	2539.35	1820.85
802.0795	268.0092	2584.8	1867.15
802.2222	270.2267	2656.9	1938.6
802.3649	272.4436	2683.6	1967
802.5076	274.6601	2729.55	1998.4
802.6504	276.8759	2751.95	2025.7
802.7931	279.0913	2785.9	2057.2
802.9359	281.3061	2791.35	2064.85
803.0787	283.5204	2810.95	2079.65
803.2215	285.7341	2828.7	2094.05
803.3643	287.9473	2856.5	2122.2
803.5071	290.16	2849.65	2114.9
803.6499	292.3721	2807.05	2077.1
803.7928	294.5837	2767.9	2036.2
803.9357	296.7947	2753.35	2021.4
804.0786	299.0052	2743.7	2010.25
804.2215	301.2152	2708.4	1970.75
804.3644	303.4246	2722.65	1985.8
804.5074	305.6334	2684.9	1952.8
804.6503	307.8418	2661.4	1924.75
804.7933	310.0495	2644.8	1905.05
804.9363	312.2568	2609.4	1870.25
805.0793	314.4635	2559.4	1818.05
805.2223	316.6696	2522.65	1780.7
805.3653	318.8752	2487	1732.3
805.5084	321.0802	2437.7	1689.75
805.6514	323.2847	2445.95	1700.55
805.7945	325.4887	2460.15	1712.9
805.9376	327.692	2468.3	1718.25
806.0807	329.8949	2507.5	1753.85
806.2238	332.0972	2551.85	1801.1
806.367	334.2989	2579.2	1821.3
806.5101	336.5001	2573.65	1817.6
806.6533	338.7007	2540.95	1784
806.7965	340.9008	2484.15	1727.5
806.9397	343.1003	2440.45	1678.85
807.0829	345.2992	2384.85	1624.3
807.2261	347.4976	2353	1588.35
807.3693	349.6955	2329.9	1562.15
807.5126	351.8927	2324.8	1557.35
807.6559	354.0895	2296.1	1520
807.7991	356.2856	2284.65	1517.6
807.9424	358.4812	2269.95	1500.75
808.0857	360.6763	2281.5	1508.95
808.2291	362.8707	2263.25	1490.35
808.3724	365.0646	2269.55	1491.6
808.5158	367.258	2273.65	1497.2
808.6591	369.4508	2280.4	1499.45
808.8025	371.643	2324.15	1542.5
808.9459	373.8346	2350.1	1566.65
809.0893	376.0257	2389.3	1603.75
809.2327	378.2162	2408.45	1623.9
809.3762	380.4062	2410.8	1623.85
809.5196	382.5956	2390	1607.85
809.6631	384.7844	2349.3	1569.8
809.8066	386.9726	2311.65	1533.9
809.9501	389.1603	2278.75	1502.75
810.0936	391.3474	2296.35	1486.45
810.2371	393.5339	2265	1488.4
810.3806	395.7199	2276.2	1501.2
810.5241	397.9052	2310.4	1533.3
810.6677	400.09	2342.8	1562.8
810.8113	402.2743	2396.6	1617.2
810.9548	404.4579	2427.7	1647.1
811.0984	406.641	2472.75	1690.65
811.2421	408.8235	2516.35	1730.75
811.3857	411.0054	2559.85	1770.9
811.5293	413.1868	2626.65	1836.25
811.673	415.3675	2690	1898.9
811.8166	417.5477	2676.05	1881.15
811.9603	419.7273	2628.85	1832.9
812.104	421.9064	2539.45	1736.7
812.2477	424.0848	2470.85	1673.95
812.3914	426.2627	2416.55	1619.55
812.5351	428.4399	2360.6	1561.55
812.6788	430.6166	2308.35	1503.2
812.8226	432.7928	2245.65	1440.15
812.9663	434.9683	2221	1416.3
813.1101	437.1432	2186.4	1380.95
813.2539	439.3176	2164.45	1363.75
813.3977	441.4914	2148.25	1348.25
813.5415	443.6645	2154.2	1352.1
813.6853	445.8371	2157	1353.8
813.8291	448.0091	2159.7	1354.5
813.973	450.1806	2149.95	1345.4
814.1168	452.3514	2144.95	1336.8
814.2607	454.5216	2151.6	1337.25
814.4046	456.6913	2140.95	1329.75
814.5485	458.8603	2147	1340.4
814.6924	461.0288	2160.5	1354.15
814.8363	463.1967	2147	1341.3
814.9802	465.3639	2157.05	1353
815.1241	467.5306	2144.6	1334
815.2681	469.6967	2136.3	1327.25
815.412	471.8622	2139.9	1332.65
815.556	474.0271	2117.9	1309.35
815.7	476.1914	2132.9	1319.55
815.844	478.3551	2115.4	1304
815.988	480.5182	2124.25	1313.5
816.132	482.6807	2116.75	1308.55
816.276	484.8426	2135.35	1327.3
816.4201	487.0039	2185.15	1376.7
816.5641	489.1647	2235.9	1424.2
816.7082	491.3248	2284.95	1471.95
816.8522	493.4843	2298.35	1484.05
816.9963	495.6432	2288.8	1477
817.1404	497.8015	2261.15	1441.9
817.2845	499.9592	2224.4	1404.7
817.4286	502.1163	2172.5	1351.85
817.5727	504.2728	2127.95	1310.2
817.7168	506.4287	2102.2	1286.15
817.861	508.5839	2077.45	1260.65
818.0051	510.7386	2074.45	1256.3
818.1493	512.8927	2084.4	1257.8
818.2935	515.0461	2086.35	1265.95
818.4377	517.199	2105.6	1282.5
818.5818	519.3512	2156.4	1333.3
818.726	521.5029	2218.65	1391.3
818.8703	523.6539	2280.15	1452.95
819.0145	525.8043	2276.25	1451.3
819.1587	527.9541	2231.4	1401.8
819.303	530.1033	2157.65	1330.2
819.4472	532.2519	2113.3	1287.8
819.5915	534.3999	2091.75	1263.95
819.7357	536.5472	2069.7	1241.9
819.88	538.694	2078.95	1253.1
820.0243	540.8401	2091.4	1260.95
820.1686	542.9856	2113.4	1280.6
820.3129	545.1305	2126.55	1293.45
820.4572	547.2748	2152.45	1319.1
820.6016	549.4185	2152.1	1313.1
820.7459	551.5615	2149.2	1315
820.8902	553.704	2180.6	1347.05
821.0346	555.8458	2191.35	1356
821.1789	557.987	2219.95	1387.15
821.3233	560.1276	2246.65	1412.55
821.4677	562.2675	2299.95	1469.95
821.6121	564.4069	2356.05	1522.95
821.7565	566.5456	2397.05	1563.3
821.9009	568.6837	2379.8	1547.75
822.0453	570.8212	2299.5	1466.25
822.1897	572.958	2238.85	1404.8
822.3342	575.0942	2175.45	1342.95
822.4786	577.2299	2149.75	1316
822.6231	579.3648	2116.25	1285.35
822.7675	581.4992	2090.2	1263.6
822.912	583.6329	2105.3	1276.05
823.0565	585.766	2140.75	1310.85
823.201	587.8985	2181.45	1349.15
823.3454	590.0304	2234.05	1387.7
823.4899	592.1616	2250.6	1410.65
823.6345	594.2922	2264	1424.7
823.779	596.4222	2208.75	1367.35
823.9235	598.5515	2152.35	1310.3
824.068	600.6802	2111.6	1269.9
824.2126	602.8083	2069.6	1230.15
824.3571	604.9358	2052.5	1209.5
824.5017	607.0626	2050.05	1206.65
824.6462	609.1888	2062.1	1217.95
824.7908	611.3144	2088.05	1245
824.9354	613.4393	2121.2	1277.4
825.08	615.5636	2175.2	1329.1
825.2246	617.6873	2223.2	1376.7
825.3692	619.8103	2259.2	1412
825.5138	621.9327	2254	1405
825.6584	624.0544	2210.6	1366.55
825.803	626.1756	2151.65	1307.9
825.9477	628.2961	2103.8	1257.45
826.0923	630.4159	2081.1	1235
826.237	632.5351	2081.7	1230.75
826.3816	634.6537	2071.85	1222.35
826.5263	636.7716	2067.4	1214.8
826.6709	638.8889	2051.25	1201.8
826.8156	641.0056	2057.1	1203.35
826.9603	643.1216	2067.95	1214.95
827.105	645.237	2071	1218.9
827.2497	647.3518	2052.9	1204.1
827.3944	649.4659	2027.15	1180
827.5391	651.5793	2009.85	1159.25
827.6838	653.6922	1996.5	1147.65
827.8285	655.8043	1982.7	1134.8
827.9733	657.9159	1979.65	1129.75
828.118	660.0268	1965.1	1111.9
828.2627	662.137	1961.3	1109.15
828.4075	664.2466	1966.5	1110
828.5522	666.3556	1967.85	1116.5
828.697	668.4639	1966.6	1111.05
828.8418	670.5716	1952.4	1102.3
828.9865	672.6786	1944.65	1092.7
829.1313	674.785	1942.2	1083.9
829.2761	676.8907	1937.2	1080.65
829.4209	678.9958	1939.5	1087.35
829.5657	681.1002	1937.6	1081.75
829.7105	683.204	1943	1080.65
829.8553	685.3072	1942.65	1083.45
830.0001	687.4097	1927.1	1073.45
830.1449	689.5115	1929.35	1068.95
830.2898	691.6127	1931.7	1074.65
830.4346	693.7132	1924.8	1066.2
830.5794	695.8131	1948.6	1077.15
830.7243	697.9123	1942	1085.3
830.8691	700.0109	1934.25	1074.1
831.014	702.1089	1953.4	1095.3
831.1588	704.2061	1956.3	1095.35
831.3037	706.3028	1996	1134.55
831.4486	708.3987	2009.15	1147.8
831.5935	710.4941	2016.55	1154.8
831.7383	712.5887	2029.45	1168.55
831.8832	714.6827	2023.9	1159.85
832.0281	716.7761	2008.75	1147.7
832.173	718.8688	2009.75	1146.85
832.3179	720.9608	2010.05	1143.1
832.4628	723.0522	2029.45	1163.55
832.6077	725.1429	2046	1180
832.7527	727.233	2082.5	1219.8
832.8976	729.3224	2144.95	1279.9
833.0425	731.4112	2208.9	1345.75
833.1874	733.4993	2209.25	1342.6
833.3324	735.5867	2150.7	1284.3
833.4773	737.6735	2086.6	1217.1
833.6222	739.7596	2030.65	1164.3
833.7672	741.845	2005.7	1138.25
833.9122	743.9298	2002.35	1134.5
834.0571	746.014	1996.7	1130.3
834.2021	748.0974	2013.9	1144.9
834.347	750.1802	2025.3	1158.2
834.492	752.2624	2005	1135.4
834.637	754.3439	1993.6	1121.4
834.782	756.4247	2000.4	1122.65
834.9269	758.5048	1990.35	1122.95
835.0719	760.5843	2014	1142
835.2169	762.6631	2041	1168.5
835.3619	764.7413	2096.5	1229.85
835.5069	766.8188	2184	1315.75
835.6519	768.8956	2266.95	1397.5
835.7969	770.9718	2325.15	1455.45
835.9419	773.0473	2317.55	1447.7
836.0869	775.1221	2284.85	1413.7
836.232	777.1962	2272.55	1403.4
836.377	779.2697	2323.4	1449.4
836.522	781.3426	2436.6	1546.2
836.667	783.4147	2493.7	1622.6
836.8121	785.4862	2476.45	1606.05
836.9571	787.557	2374.35	1500.15
837.1021	789.6271	2254.1	1378.7
837.2472	791.6966	2125.2	1253
837.3922	793.7654	2026.95	1152.8
837.5373	795.8335	1981.1	1109.65
837.6823	797.901	1953.95	1082.75
837.8274	799.9678	1940.85	1065.2
837.9724	802.0339	1938.75	1068.65
838.1175	804.0993	1955.25	1071.15
838.2626	806.1641	1940.05	1063.75
838.4076	808.2282	1918.2	1043.6
838.5527	810.2916	1900.2	1025.3
838.6978	812.3544	1889.05	1016.6
838.8428	814.4164	1881.4	1008.1
838.9879	816.4778	1895.95	1018.9
839.133	818.5385	1905.85	1031.45
839.2781	820.5986	1935.8	1061.35
839.4232	822.658	1987.55	1111.8
839.5682	824.7166	2048.65	1174.35
839.7133	826.7747	2140.3	1265.65
839.8584	828.832	2225.1	1349.85
840.0035	830.8886	2272.25	1392.95
840.1486	832.9446	2292.85	1414.65
840.2937	834.9999	2260.3	1384.5
840.4388	837.0545	2190.05	1307.35
840.5839	839.1085	2105.1	1227
840.729	841.1618	2019.5	1135.7
840.8741	843.2143	1968.45	1094.65
841.0192	845.2662	1945.45	1068.05
841.1643	847.3175	1931.05	1055.45
841.3095	849.368	1922.3	1045.25
841.4546	851.4179	1912.25	1033.8
841.5997	853.467	1905.2	1026.7
841.7448	855.5155	1923	1045.6
841.8899	857.5633	1923.1	1042.7
842.0351	859.6105	1918.55	1037.95
842.1802	861.6569	1908.85	1031
842.3253	863.7027	1895	1011.6
842.4704	865.7478	1883.2	1004.15
842.6156	867.7922	1872.6	993.5
842.7607	869.8359	1861	980.75
842.9058	871.8789	1859	977.05
843.0509	873.9212	1898.9	988.5
843.1961	875.9629	1861.2	979.25
843.3412	878.0039	1869.45	987.65
843.4863	880.0441	1890.35	1011.95
843.6315	882.0837	1909.9	1029.8
843.7766	884.1226	1932.9	1050.2
843.9218	886.1609	1971.6	1093.3
844.0669	888.1984	2022.65	1143.9
844.212	890.2352	2076.65	1195.85
844.3572	892.2714	2079.1	1196.3
844.5023	894.3069	2053.35	1169.75
844.6475	896.3416	1991.7	1111.2
844.7926	898.3757	1950.3	1065.95
844.9377	900.4091	1939.4	1056.35
845.0829	902.4418	1948.1	1062.5
845.228	904.4739	1953.95	1067.2
845.3732	906.5052	1972.7	1086.4
845.5183	908.5358	1964.05	1080.55
845.6635	910.5658	1948.6	1063.9
845.8086	912.595	1900.7	1019.55
845.9538	914.6236	1861.7	978
846.0989	916.6515	1839.5	958.5
846.2441	918.6786	1825.25	940.1
846.3892	920.7051	1812.9	928.1
846.5344	922.7309	1814.5	931.35
846.6795	924.756	1806.8	920.65
846.8246	926.7804	1829.75	945.45
846.9698	928.8041	1828.25	941.8
847.1149	930.8272	1849.9	963.65
847.2601	932.8495	1852.3	966
847.4052	934.8711	1863.45	979.15
847.5504	936.892	1877.5	987.95
847.6955	938.9123	1890.6	1006.7
847.8407	940.9318	1921	1035.6
847.9858	942.9506	1925.95	1040.85
848.131	944.9688	1917.05	1033.2
848.2761	946.9862	1894.95	1010.8
848.4213	949.003	1857.1	970.3
848.5664	951.019	1838.45	953.35
848.7115	953.0344	1820.6	936.45
848.8567	955.0491	1809.95	925.15
849.0018	957.063	1804.1	920.3
849.147	959.0763	1797.35	914.35
849.2921	961.0888	1802.5	912.95
849.4373	963.1007	1801	914.9
849.5824	965.1119	1791.55	909.3
849.7275	967.1223	1778.65	896.65
849.8727	969.1321	1768.7	888.75
850.0178	971.1412	1773.4	889.85
850.1629	973.1495	1763.15	880.05
850.3081	975.1572	1803.6	886.4
850.4532	977.1641	1761.8	874.6
850.5983	979.1704	1777.3	886.7
850.7435	981.1759	1770.15	881.8
850.8886	983.1808	1767.35	877.65
851.0337	985.1849	1763.2	864.5
851.1788	987.1884	1751.85	862.05
851.324	989.1911	1762.55	871.9
851.4691	991.1932	1768.75	881.85
851.6142	993.1945	1764.15	878.2
851.7593	995.1951	1757.5	872.55
851.9045	997.1951	1766.5	870.55
852.0496	999.1943	1760.65	874.2
852.1947	1001.1928	1769.3	878.4
852.3398	1003.1906	1774.1	885.45
852.4849	1005.1877	1796.4	906.3
852.63	1007.1841	1804.15	914.5
852.7751	1009.1798	1826.95	938.2
852.9202	1011.1748	1810.7	925.25
853.0653	1013.1691	1793.35	903.55
853.2104	1015.1627	1764.65	876.6
853.3555	1017.1556	1738.15	851.2
853.5006	1019.1477	1719.5	834.4
853.6457	1021.1392	1699.25	814.3
853.7908	1023.1299	1687.9	802.5
853.9359	1025.12	1693.05	807
854.081	1027.1093	1696.4	815.4
854.2261	1029.0979	1712.45	835.2
854.3712	1031.0859	1727	845.55
854.5163	1033.0731	1750.6	866.4
854.6613	1035.0596	1749.55	864.9
854.8064	1037.0454	1751.35	864.75
854.9515	1039.0304	1733.7	845.05
855.0965	1041.0148	1711.05	823.25
855.2416	1042.9985	1684.85	794.65
855.3867	1044.9814	1670.95	785.15
855.5317	1046.9636	1680.8	787.95
855.6768	1048.9452	1687.6	799.95
855.8219	1050.926	1711.55	822.8
855.9669	1052.9061	1710.95	824.35
856.112	1054.8855	1713	824.15
856.257	1056.8642	1714.75	823.85
856.4021	1058.8421	1718.7	826.5
856.5471	1060.8194	1712.05	822.6
856.6921	1062.7959	1713.2	821.05
856.8372	1064.7717	1714.65	822.95
856.9822	1066.7469	1706.5	814.45
857.1272	1068.7213	1713.1	819.5
857.2723	1070.695	1728.75	838.65
857.4173	1072.6679	1751.3	862.05
857.5623	1074.6402	1770.95	882.15
857.7073	1076.6117	1776.65	884.15
857.8523	1078.5826	1757.35	866.05
857.9973	1080.5527	1721.25	827.7
858.1423	1082.5221	1688.3	798.8
858.2873	1084.4908	1659.2	769.1
858.4323	1086.4587	1641.7	748.6
858.5773	1088.426	1640.35	750.8
858.7223	1090.3925	1641	746.55
858.8673	1092.3584	1648.8	759.3
859.0123	1094.3235	1661.8	770.05
859.1573	1096.2879	1677	787.05
859.3022	1098.2515	1694.5	803.9
859.4472	1100.2145	1723.5	833.2
859.5922	1102.1767	1752.05	861.15
859.7371	1104.1382	1797	907
859.8821	1106.099	1848.05	954.8
860.027	1108.0591	1897.05	1007.8
860.172	1110.0185	1938.5	1047.5
860.3169	1111.9771	1965.2	1076.9
860.4619	1113.9351	2016.65	1125.7
860.6068	1115.8923	2083.15	1191.7
860.7517	1117.8488	2089.7	1197.1
860.8967	1119.8045	2039.3	1150.85
861.0416	1121.7596	1945.25	1053.25
861.1865	1123.7139	1855.55	967.7
861.3314	1125.6675	1803.35	911.35
861.4763	1127.6204	1805.45	912.9
861.6212	1129.5726	1819.85	926.65
861.7661	1131.524	1818.6	928.45
861.911	1133.4748	1784.65	895.5
862.0559	1135.4248	1732.45	839.45
862.2008	1137.3741	1675	782.8
862.3457	1139.3226	1658.05	764.05
862.4905	1141.2705	1660.5	769.15
862.6354	1143.2176	1662.85	767.1
862.7803	1145.164	1678.05	782.55
862.9251	1147.1097	1665.8	772.9
863.07	1149.0546	1651.65	759.7
863.2148	1150.9989	1626.3	734.55
863.3597	1152.9424	1602.6	710.15
863.5045	1154.8852	1597.55	702.9
863.6493	1156.8272	1579.15	688.95
863.7942	1158.7686	1586	688.65
863.939	1160.7092	1589.8	697.8
864.0838	1162.6491	1587.5	692.95
864.2286	1164.5883	1605.55	715.3
864.3734	1166.5267	1618.9	726.25
864.5182	1168.4644	1651.05	757.8
864.663	1170.4014	1673.3	776.35
864.8078	1172.3377	1710.2	818.8
864.9526	1174.2732	1764.1	873.65
865.0974	1176.2081	1852.3	959.4
865.2421	1178.1421	1974.35	1078.15
865.3869	1180.0755	2078.95	1188.8
865.5317	1182.0082	2140.65	1248.95
865.6764	1183.9401	2116.2	1224.25
865.8212	1185.8713	2006	1117
865.9659	1187.8017	1894.75	1005.55
866.1106	1189.7315	1781.1	896.65
866.2554	1191.6605	1739.8	824.85
866.4001	1193.5888	1676.8	787.2
866.5448	1195.5163	1647.2	757.4
866.6895	1197.4432	1639.1	748.6
866.8342	1199.3693	1613.55	724.85
866.9789	1201.2947	1604.9	710.6
867.1236	1203.2193	1585.2	691
867.2683	1205.1432	1591.5	699.6
867.413	1207.0664	1593.85	703.1
867.5576	1208.9889	1595.45	701.5
867.7023	1210.9106	1589.95	698.65
867.847	1212.8316	1595	705
867.9916	1214.7519	1615.8	715.9
868.1363	1216.6715	1619.9	727.45
868.2809	1218.5903	1631.1	736.75
868.4255	1220.5084	1642.9	752.75
868.5701	1222.4257	1659.85	768.65
868.7148	1224.3424	1664.25	772.25
868.8594	1226.2583	1685.45	789
869.004	1228.1735	1710.8	816.6
869.1486	1230.0879	1753.1	861.55
869.2932	1232.0016	1788.35	896.65
869.4377	1233.9146	1821.15	926.45
869.5823	1235.8269	1844.4	951.4
869.7269	1237.7384	1852	959
869.8715	1239.6492	1844.75	952.6
870.016	1241.5592	1871.45	979.5
870.1606	1243.4686	1913.65	1021.35
870.3051	1245.3772	1978.3	1083.75
870.4496	1247.285	2063.05	1170.3
870.5941	1249.1922	2149.55	1256.85
870.7387	1251.0986	2211.45	1320.4
870.8832	1253.0042	2281.45	1388.9
871.0277	1254.9092	2374.25	1482.95
871.1722	1256.8134	2439.45	1545.55
871.3167	1258.7169	2510.35	1616.25
871.4611	1260.6196	2548.1	1657.7
871.6056	1262.5216	2550.1	1653.45
871.7501	1264.4229	2520.15	1630.1
871.8945	1266.3234	2493.85	1599.2
872.039	1268.2232	2448.25	1553
872.1834	1270.1223	2403.45	1508.7
872.3278	1272.0207	2365.2	1470
872.4723	1273.9183	2358.2	1456
872.6167	1275.8151	2348.4	1455.4
872.7611	1277.7113	2394.9	1498.85
872.9055	1279.6067	2474.45	1583.55
873.0499	1281.5014	2616.1	1721.55
873.1943	1283.3953	2780.15	1887.7
873.3386	1285.2885	2948.2	2055.1
873.483	1287.181	3072.7	2177.45
873.6274	1289.0727	3121.6	2230.05
873.7717	1290.9637	3087.3	2193.65
873.9161	1292.854	3000.6	2107.8
874.0604	1294.7435	2880.15	1986.85
874.2047	1296.6323	2776.6	1883.9
874.349	1298.5204	2687.85	1789.15
874.4933	1300.4077	2609.8	1714.35
874.6376	1302.2943	2576.95	1681.45
874.7819	1304.1802	2539.55	1648
874.9262	1306.0653	2513.75	1619.6
875.0705	1307.9497	2473.65	1579.85
875.2147	1309.8333	2446.75	1553.45
875.359	1311.7162	2411.2	1517.3
875.5032	1313.5984	2382.15	1485.1
875.6475	1315.4798	2364.8	1452.9
875.7917	1317.3605	2346.05	1445.95
875.9359	1319.2405	2338.2	1440.05
876.0801	1321.1197	2325.35	1430.6
876.2243	1322.9982	2272.55	1378.05
876.3685	1324.876	2195.55	1301.75
876.5127	1326.753	2117.55	1223.35
876.6569	1328.6293	2027.55	1133.2
876.801	1330.5048	1947.75	1051.1
876.9452	1332.3796	1883.3	989.05
877.0893	1334.2537	1854.4	934.9
877.2335	1336.127	1797.75	901.6
877.3776	1337.9996	1764.6	871.05
877.5217	1339.8714	1750.55	856.7
877.6658	1341.7426	1770.05	830.7
877.8099	1343.6129	1729.45	833.05
877.954	1345.4826	1708.05	813.7
878.0981	1347.3515	1697.7	801.2
878.2422	1349.2196	1676.95	781.2
878.3862	1351.087	1673.3	776.55
878.5303	1352.9537	1677.1	781.85
878.6743	1354.8197	1669.15	774.65
878.8184	1356.6849	1689.75	797.05
878.9624	1358.5493	1691.4	796.15
879.1064	1360.4131	1706	812.25
879.2504	1362.276	1751.75	859.35
879.3944	1364.1383	1792.8	900.05
879.5384	1365.9998	1800.55	900.6
879.6823	1367.8606	1786.55	891.7
879.8263	1369.7206	1779.15	885.4
879.9702	1371.5799	1781.85	884.45
880.1142	1373.4384	1773.35	879
880.2581	1375.2962	1745.65	850.95
880.402	1377.1533	1692.65	796.45
880.5459	1379.0096	1648.9	757.55
880.6898	1380.8652	1615.35	724.45
880.8337	1382.7201	1590.5	698.45
880.9776	1384.5742	1569.75	676.6
881.1215	1386.4275	1548.45	650.3
881.2653	1388.2802	1538.1	643.1
881.4092	1390.132	1523.7	628.45
881.553	1391.9832	1514.6	619.45
881.6968	1393.8336	1502.2	607.55
881.8406	1395.6832	1491.7	596.8
881.9844	1397.5322	1493.6	602.6
882.1282	1399.3803	1483.05	582.65
882.272	1401.2278	1469.25	574.8
882.4158	1403.0745	1461.05	566.1
882.5595	1404.9204	1450.7	558.65
882.7033	1406.7656	1452.3	558.5
882.847	1408.6101	1455.7	561.25
882.9908	1410.4538	1450.5	554.15
883.1345	1412.2968	1453	558.2
883.2782	1414.139	1450.35	557.15
883.4219	1415.9805	1455.8	560.75
883.5656	1417.8213	1470.4	571.6
883.7092	1419.6613	1486.2	590.7
883.8529	1421.5006	1510.8	614.8
883.9965	1423.3391	1547.45	653.75
884.1402	1425.1769	1598.85	703.7
884.2838	1427.0139	1657.95	763.6
884.4274	1428.8502	1750.15	856.85
884.571	1430.6858	1803.25	910.3
884.7146	1432.5206	1817.95	924.6
884.8582	1434.3547	1829.95	934.25
885.0018	1436.188	1803.8	909.35
885.1453	1438.0206	1791.7	896.9
885.2889	1439.8524	1776.95	879.3
885.4324	1441.6835	1777	880.8
885.5759	1443.5139	1776	877.3
885.7194	1445.3435	1777.25	884
885.8629	1447.1724	1781.75	887.65
886.0064	1449.0005	1777.85	884.2
886.1499	1450.8279	1776.7	882
886.2933	1452.6545	1766.3	872
886.4368	1454.4804	1765.3	873.2
886.5802	1456.3056	1756.8	857.4
886.7237	1458.13	1745	851.4
886.8671	1459.9536	1715.75	822.25
887.0105	1461.7766	1682.55	790.05
887.1539	1463.5987	1645.1	749.8
887.2972	1465.4202	1604.9	709.6
887.4406	1467.2409	1575.75	682.2
887.584	1469.0608	1541.75	650
887.7273	1470.88	1509.65	613.8
887.8706	1472.6984	1488.35	595.25
888.0139	1474.5161	1475.75	576.2
888.1572	1476.3331	1451.15	558.2
888.3005	1478.1493	1442.8	548.9
888.4438	1479.9648	1443.9	549.2
888.5871	1481.7795	1442.8	550.15
888.7303	1483.5935	1437.2	544.4
888.8736	1485.4067	1442	547.5
889.0168	1487.2192	1448.6	553.85
889.16	1489.031	1451.35	555.5
889.3032	1490.842	1443.45	547.25
889.4464	1492.6522	1442.75	550.15
889.5896	1494.4618	1444.35	548.35
889.7327	1496.2705	1430.65	536.9
889.8759	1498.0785	1433.9	539.6
890.019	1499.8858	1427.65	533.7
890.1622	1501.6924	1415.55	521.7
890.3053	1503.4981	1417.4	524.45
890.4484	1505.3032	1403.05	510.35
890.5914	1507.1075	1399.25	505.2
890.7345	1508.911	1384.05	490.45
890.8776	1510.7138	1393.6	498.55
891.0206	1512.5159	1386.75	492.3
891.1637	1514.3172	1375.85	485.15
891.3067	1516.1178	1368.05	475
891.4497	1517.9176	1363.45	465.6
891.5927	1519.7166	1353.75	461
891.7357	1521.515	1361	458.75
891.8786	1523.3126	1346.05	450.25
892.0216	1525.1094	1344	448.15
892.1645	1526.9055	1340.5	448.1
892.3074	1528.7008	1342.05	448.3
892.4503	1530.4954	1339.5	441.9
892.5932	1532.2893	1330.5	440.9
892.7361	1534.0824	1336.75	441.05
892.879	1535.8747	1334.2	443.55
893.0218	1537.6663	1333.7	442.1
893.1647	1539.4572	1324.35	428.2
893.3075	1541.2473	1331.15	438.25
893.4503	1543.0367	1325.4	430.75
893.5931	1544.8253	1337.95	441.3
893.7359	1546.6132	1332.55	436.75
893.8787	1548.4003	1351.15	450.2
894.0214	1550.1867	1346.2	442.35
894.1642	1551.9723	1359.4	461.7
894.3069	1553.7572	1362.65	469.55
894.4496	1555.5414	1383.05	492.05
894.5923	1557.3247	1406.2	514.25
894.735	1559.1074	1444.65	553.15
894.8777	1560.8893	1476.25	585.5
895.0204	1562.6705	1506.75	615.7
895.163	1564.4509	1527.35	634.2
895.3056	1566.2305	1531.8	641.8
895.4482	1568.0094	1536.8	645.75
895.5908	1569.7876	1534.35	644.9
895.7334	1571.565	1529.35	639.65
895.876	1573.3417	1535.55	645.9
896.0186	1575.1176	1531.75	640.3
896.1611	1576.8928	1546.15	655.15
896.3036	1578.6672	1559	671.7
896.4461	1580.4409	1593.85	705.75
896.5886	1582.2138	1618.45	727.6
896.7311	1583.986	1651.65	761.5
896.8736	1585.7575	1687.35	799.05
897.0161	1587.5282	1708.1	820.1
897.1585	1589.2981	1733.25	845.1
897.3009	1591.0673	1747.95	861.2
897.4433	1592.8358	1759.1	872.45
897.5857	1594.6035	1757.55	865.55
897.7281	1596.3704	1744.65	854.6
897.8705	1598.1366	1734.25	843.6
898.0128	1599.9021	1710.85	824.3
898.1551	1601.6668	1684.15	793.1
898.2975	1603.4308	1677.5	787.3
898.4398	1605.194	1690.1	795.75
898.5821	1606.9564	1707.95	822.6
898.7243	1608.7182	1767.3	878.45
898.8666	1610.4791	1833.8	950.6
899.0088	1612.2394	1918.8	1034.5
899.1511	1613.9988	2001.25	1115.95
899.2933	1615.7576	2063.75	1177.35
899.4355	1617.5156	2103.7	1207
899.5776	1619.2728	2053.1	1163
899.7198	1621.0293	1981.65	1093.95
899.862	1622.785	1876.9	982.55
900.0041	1624.54	1763.3	874.55
900.1462	1626.2942	1665.05	777.15
900.2883	1628.0477	1581.8	690.8
900.4304	1629.8005	1511.85	620.8
900.5725	1631.5525	1459.1	568.9
900.7145	1633.3037	1406.25	516.65
900.8566	1635.0542	1373.3	486.85
900.9986	1636.804	1344.8	456.25
901.1406	1638.553	1384.1	434.1
901.2826	1640.3013	1305.95	416.9
901.4245	1642.0488	1291	403.15
901.5665	1643.7955	1276.25	389.9
901.7085	1645.5416	1262.45	373.5
901.8504	1647.2868	1254.6	366.9
901.9923	1649.0313	1258	369.5
902.1342	1650.7751	1253.05	360.4
902.2761	1652.5181	1247.85	363.55
902.4179	1654.2604	1244.15	355.65
902.5598	1656.0019	1250.25	363.75
902.7016	1657.7427	1260.95	373.1
902.8434	1659.4828	1278.75	389.65
902.9852	1661.222	1307.05	418.1
903.127	1662.9606	1329.9	442.05
903.2687	1664.6984	1358.6	468.65
903.4105	1666.4354	1356.55	464.75
903.5522	1668.1717	1342.05	451.35
903.6939	1669.9072	1301.5	412.2
903.8356	1671.642	1268.8	377.15
903.9773	1673.3761	1231.5	342.05
904.119	1675.1094	1210.35	323.95
904.2606	1676.8419	1195.3	307.25
904.4022	1678.5737	1186.2	298.25
904.5439	1680.3048	1176.9	286.95
904.6855	1682.0351	1163.95	273.7
904.827	1683.7646	1165.35	274.15
904.9686	1685.4934	1158.15	268.3
905.1101	1687.2215	1150.7	260.75
905.2517	1688.9488	1150.95	263.7
905.3932	1690.6754	1142.6	254.75
905.5347	1692.4012	1144.35	255.35
905.6761	1694.1263	1137.3	247.1
905.8176	1695.8506	1134.3	244.55
905.9591	1697.5742	1133.55	247.15
906.1005	1699.297	1135.7	248.05
906.2419	1701.0191	1133	246.2
906.3833	1702.7404	1126.25	238.75
906.5246	1704.461	1130.85	240.1
906.666	1706.1808	1122.6	233.35
906.8073	1707.8999	1119.2	231.05
906.9487	1709.6182	1118.65	232.2
907.09	1711.3358	1122.95	236.95
907.2313	1713.0527	1118.55	233.9
907.3725	1714.7688	1121.6	229.45
907.5138	1716.4841	1115.4	224.8
907.655	1718.1987	1120.6	227.45
907.7962	1719.9126	1108.25	222.35
907.9374	1721.6257	1114.75	226.4
908.0786	1723.338	1110.75	225.7
908.2198	1725.0496	1106	219.05
908.3609	1726.7605	1107.15	218.8
908.502	1728.4706	1111.05	224.3
908.6431	1730.18	1106.35	216.6
908.7842	1731.8886	1104.15	219.3
908.9253	1733.5964	1124.85	218.45
909.0664	1735.3036	1107.7	218.85
909.2074	1737.0099	1103.8	217.4
909.3484	1738.7156	1102.55	217.35
909.4894	1740.4204	1108.6	219.35
909.6304	1742.1246	1107.1	220.05
909.7714	1743.8279	1099.75	214.45
909.9123	1745.5306	1099.85	214.75
910.0532	1747.2325	1098.7	213.8
910.1941	1748.9336	1099.95	214.4
910.335	1750.634	1100.1	208.55
910.4759	1752.3336	1098.35	211.15
910.6168	1754.0325	1094.75	208.8
910.7576	1755.7307	1092.3	207.4
910.8984	1757.4281	1100.85	212.95
911.0392	1759.1247	1104.5	205.85
911.18	1760.8206	1094.25	200.25
911.3208	1762.5158	1099.1	208.3
911.4615	1764.2102	1092.1	207
911.6022	1765.9039	1090.65	204.45
911.7429	1767.5968	1091.9	205.8
911.8836	1769.289	1094.4	207.9
912.0243	1770.9804	1093	204.7
912.1649	1772.6711	1095	206.3
912.3056	1774.361	1092.2	204.5
912.4462	1776.0502	1090	200.95
912.5868	1777.7386	1090.75	198.9
912.7274	1779.4263	1094	206.65
912.8679	1781.1132	1091.6	206.15
913.0084	1782.7994	1088	198.95
913.149	1784.4849	1081.65	196.55
913.2895	1786.1696	1108.15	203.5
913.4299	1787.8535	1086.3	201.8
913.5704	1789.5367	1083.25	198.45
913.7108	1791.2192	1086.1	202.3
913.8513	1792.9009	1105.6	190.2
913.9917	1794.5818	1086.55	199.25
914.132	1796.2621	1078.45	192.9
914.2724	1797.9415	1079	192.35
914.4128	1799.6202	1077.2	191.6
914.5531	1801.2982	1081.4	194.6
914.6934	1802.9755	1078.6	190
914.8337	1804.6519	1075.5	187.9
914.9739	1806.3277	1078.6	192.85
915.1142	1808.0027	1075.6	191.3
915.2544	1809.6769	1074.05	187.6
915.3946	1811.3504	1075.8	192.05
915.5348	1813.0231	1072.35	188.4
915.675	1814.6951	1073.65	187.95
915.8151	1816.3664	1077.75	189.05
915.9553	1818.0369	1080	193.1
916.0954	1819.7067	1071.2	185.05
916.2355	1821.3757	1079.95	191.15
916.3755	1823.044	1071.2	184.8
916.5156	1824.7115	1075.7	187.25
916.6556	1826.3783	1072.05	187.95
916.7956	1828.0443	1071.7	186.3
916.9356	1829.7096	1070.6	182.6
917.0756	1831.3741	1074.2	183.9
917.2155	1833.0379	1066.25	179.85
917.3555	1834.701	1069.25	183.35
917.4954	1836.3633	1066.8	179.25
917.6353	1838.0248	1066.35	179.45
917.7751	1839.6856	1066.35	180.7
917.915	1841.3457	1066.7	180.35
918.0548	1843.005	1066.3	178.9
918.1946	1844.6636	1065.4	179.55
918.3344	1846.3214	1068.95	181.95
918.4742	1847.9785	1064.05	178.6
918.6139	1849.6349	1062.7	172.65
918.7537	1851.2904	1073.75	176.1
918.8934	1852.9453	1067.65	179.45
919.0331	1854.5994	1068.5	179.7
919.1727	1856.2528	1067.55	174.35
919.3124	1857.9054	1060.75	173.65
919.452	1859.5572	1058.75	173.1
919.5916	1861.2083	1066.25	177.3
919.7312	1862.8587	1063.1	177.4
919.8708	1864.5084	1061.5	173.4
920.0103	1866.1572	1055.8	169.1
920.1498	1867.8054	1061.45	173.1
920.2893	1869.4528	1065.2	178.45
920.4288	1871.0994	1061.2	173.15
920.5683	1872.7453	1061.9	172.5
920.7077	1874.3905	1066.4	174
920.8471	1876.0349	1056.4	170.4
920.9865	1877.6786	1059.3	171.55
921.1259	1879.3215	1058.7	172.15
921.2653	1880.9637	1056.3	167.75
921.4046	1882.6051	1056.9	170.05
921.5439	1884.2458	1061.45	171.6
921.6832	1885.8858	1054.3	168.55
921.8225	1887.525	1055.4	169.4
921.9617	1889.1634	1055.45	168.15
922.101	1890.8011	1054.35	166.6
922.2402	1892.4381	1051.45	164.85
922.3794	1894.0743	1051.8	164.5
922.5185	1895.7098	1055.15	167.65
922.6577	1897.3446	1053.4	164.25
922.7968	1898.9786	1060.1	168.25
922.9359	1900.6118	1052.7	166.2
923.075	1902.2443	1051.9	165.45
923.214	1903.8761	1050	163.1
923.3531	1905.5071	1049.85	160.55
923.4921	1907.1374	1047.15	159.85
923.6311	1908.7669	1043.9	159.7
923.77	1910.3957	1046.3	161.8
923.909	1912.0237	1045.1	156.55
924.0479	1913.651	1049.95	162.4
924.1868	1915.2776	1044.7	160.75
924.3257	1916.9034	1046.55	162.35
924.4646	1918.5285	1044.65	159.4
924.6034	1920.1528	1045.45	157.25
924.7422	1921.7764	1042.85	156.7
924.881	1923.3992	1043.75	157.2
925.0198	1925.0213	1043.6	157.1
925.1586	1926.6427	1035.85	152.05
925.2973	1928.2633	1256.1	161.8
925.436	1929.8832	1049	157.5
925.5747	1931.5023	1039.9	151.8
925.7134	1933.1207	1040.95	153.95
925.852	1934.7383	1040.75	155.65
925.9906	1936.3552	1039.85	154.25
926.1292	1937.9714	1039.55	152.55
926.2678	1939.5868	1043.55	153.9
926.4064	1941.2015	1040.6	152.4
926.5449	1942.8154	1036.75	148.6
926.6834	1944.4286	1038.55	150.3
926.8219	1946.041	1063.65	153.35
926.9604	1947.6528	1039.75	147.3
927.0988	1949.2637	1033.15	146.85
927.2372	1950.8739	1037.7	150.8
927.3756	1952.4834	1031.25	143.45
927.514	1954.0921	1032.9	145.85
927.6523	1955.7001	1038	145.85
927.7907	1957.3074	1028.05	142.35
927.929	1958.9139	1033.2	149.35
928.0673	1960.5197	1034.15	148.65
928.2055	1962.1247	1033.45	148.55
928.3438	1963.729	1028.75	142.95
928.482	1965.3325	1038.65	145.1
928.6202	1966.9353	1027.05	143.35
928.7584	1968.5374	1031.5	145.55
928.8965	1970.1387	1030.45	146.05
929.0346	1971.7393	1029.1	144.45
929.1727	1973.3392	1024.85	140.85
929.3108	1974.9383	1027.6	144.05
929.4489	1976.5366	1025.45	141.5
929.5869	1978.1342	1024.85	139.55
929.7249	1979.7311	1025.9	139.6
929.8629	1981.3273	1026.25	142.45
930.0009	1982.9227	1024.85	136.85
930.1388	1984.5173	1026.15	143.9
930.2767	1986.1112	1021.3	138.45
930.4146	1987.7044	1021.15	140.45
930.5525	1989.2968	1022.05	139.6
930.6904	1990.8885	1028.2	138.9
930.8282	1992.4795	1023.75	140.25
930.966	1994.0697	1022.05	140.5
931.1038	1995.6592	1018.95	136.75
931.2415	1997.2479	1020.85	136.65
931.3793	1998.8359	1022.65	142.7
931.517	2000.4232	1015	134.35
931.6547	2002.0097	1015.15	137.05
931.7923	2003.5955	1017.35	136.2
931.93	2005.1805	1022.35	137.7
932.0676	2006.7648	1020.1	139.45
932.2052	2008.3484	1025.65	142.9
932.3427	2009.9312	1023.25	141.1
932.4803	2011.5133	1017.75	137.95
932.6178	2013.0946	1018.2	136.35
932.7553	2014.6752	1014.25	135.4
932.8928	2016.2551	1018.55	137.3
933.0302	2017.8342	1017.6	136.2
933.1676	2019.4126	1016.95	136.25
933.305	2020.9902	1013.7	134.65
933.4424	2022.5672	1015.35	133.5
933.5798	2024.1433	1020.55	134.9
933.7171	2025.7188	1011.8	131.75
933.8544	2027.2935	1017.7	137.3
933.9917	2028.8674	1013.7	132.65
934.129	2030.4406	1011.9	132.7
934.2662	2032.0131	1010.85	129.8
934.4034	2033.5849	1016.75	132.85
934.5406	2035.1559	1013.25	134.6
934.6778	2036.7261	1011.5	132.15
934.8149	2038.2957	1014.35	133.05
934.952	2039.8645	1016.75	134.2
935.0891	2041.4325	1018.35	131.9
935.2262	2042.9998	1012.4	133.55
935.3632	2044.5664	1012.25	129.15
935.5002	2046.1323	1012.3	131.5
935.6372	2047.6974	1007.6	127.5
935.7742	2049.2617	1010.95	132.15
935.9111	2050.8254	1037.15	132.75
936.048	2052.3883	1013.35	130.3
936.1849	2053.9504	1015.8	133.9
936.3218	2055.5118	1013.8	131.5
936.4586	2057.0725	1013.75	128.45
936.5955	2058.6325	1013.85	133.4
936.7323	2060.1917	1012.8	131.2
936.869	2061.7502	1014.4	130.55
937.0058	2063.3079	1008.55	130.05
937.1425	2064.8649	1009.5	126.75
937.2792	2066.4212	1009.35	127.5
937.4159	2067.9767	1013.5	132.55
937.5525	2069.5315	1009.7	129.55
937.6891	2071.0856	1009.05	127.15
937.8257	2072.6389	1009.45	129.15
937.9623	2074.1915	1004.9	126.6
938.0989	2075.7433	1010.9	128.65
938.2354	2077.2945	1001.3	122.35
938.3719	2078.8448	1010.55	129.45
938.5084	2080.3945	1005.4	121.65
938.6448	2081.9434	1010.35	129.45
938.7812	2083.4916	1010.95	128.8
938.9176	2085.039	1008.85	125
939.054	2086.5857	1012.3	127.05
939.1903	2088.1317	1009.85	125
939.3267	2089.677	1010.25	124.75
939.463	2091.2215	1014	127.45
939.5992	2092.7652	1012	126.85
939.7355	2094.3083	1008.4	123.45
939.8717	2095.8506	1007.05	123.4
940.0079	2097.3921	1009.55	126.65
940.1441	2098.933	1008.35	127
940.2802	2100.4731	1006.5	126
940.4163	2102.0124	1027.2	128.1
940.5524	2103.5511	1005.05	123.2
940.6885	2105.089	1008.9	127.15
940.8245	2106.6261	1008.75	127.15
940.9606	2108.1626	1007.6	123.7
941.0965	2109.6983	1036.15	126.25
941.2325	2111.2332	1009	125.6
941.3684	2112.7675	1006.1	122.15
941.5044	2114.301	1012.6	126.65
941.6403	2115.8337	1011.05	129
941.7761	2117.3657	1007.35	125.7
941.912	2118.897	1008.2	126.6
942.0478	2120.4276	1013.1	124.25
942.1835	2121.9575	1006.95	122.65
942.3193	2123.4866	1021.6	123.25
942.455	2125.0149	1007.9	123.85
942.5907	2126.5426	1005.35	124.3
942.7264	2128.0695	1006.3	120.25
942.8621	2129.5956	1001.15	123.75
942.9977	2131.1211	1009.15	122.4
943.1333	2132.6458	1003.8	122.4
943.2689	2134.1698	1007.25	122.6
943.4044	2135.693	1006.3	119.6
943.54	2137.2155	1009.55	126.1
943.6755	2138.7373	1004.35	121.25
943.8109	2140.2584	1002.45	122.1
943.9464	2141.7787	1006.8	121.65
944.0818	2143.2983	1003.55	123.5
944.2172	2144.8171	1001.1	122.35
944.3526	2146.3353	1003.15	119.9
944.4879	2147.8527	1002.15	121.65
944.6232	2149.3693	1003.85	123.45
944.7585	2150.8853	1004.05	120.85
944.8938	2152.4005	1005.4	121
945.029	2153.9149	1003.9	117.95
945.1642	2155.4287	1002.8	119
945.2994	2156.9417	1003.95	121.2
945.4346	2158.454	1002.45	119.45
945.5697	2159.9655	1000.65	120.2
945.7048	2161.4764	996.75	114.1
945.8399	2162.9865	998.1	116.8
945.9749	2164.4958	1000	117.5
946.1099	2166.0045	1001.3	115.4
946.2449	2167.5124	1002.5	119.7
946.3799	2169.0195	1002.25	119.2
946.5148	2170.526	1000.25	118.2
946.6498	2172.0317	1004.2	122.45
946.7846	2173.5367	1003.95	119.55
946.9195	2175.0409	997.05	116.9
947.0543	2176.5445	1000.65	118.4
947.1891	2178.0473	998.5	116.9
947.3239	2179.5494	1002.55	116.15
947.4587	2181.0507	997.65	117.1
947.5934	2182.5513	1000.35	118.2
947.7281	2184.0512	1001.3	118.75
947.8628	2185.5504	998.9	117.7
947.9974	2187.0488	996.45	115.65
948.132	2188.5465	993.8	112.9
948.2666	2190.0435	998.05	116.35
948.4012	2191.5397	994.45	113.85
948.5357	2193.0353	996.45	115.3
948.6702	2194.5301	998	114.95
948.8047	2196.0241	997.6	114.75
948.9392	2197.5175	1000.5	115.8
949.0736	2199.0101	999.9	112.9
949.208	2200.502	994.3	112.45
949.3424	2201.9931	997.45	114.25
949.4767	2203.4835	995.85	113.75
949.611	2204.9733	1011.9	117.15
949.7453	2206.4622	996.95	117.2
949.8796	2207.9505	997.4	114.8
950.0138	2209.438	995.1	116.4
950.148	2210.9248	990.15	106
950.2822	2212.4109	991.1	110.7
950.4164	2213.8962	993.9	107.45
950.5505	2215.3809	994.25	109.05
950.6846	2216.8648	995	110.8
950.8186	2218.3479	997.05	108.4
950.9527	2219.8304	1000.95	114.95
951.0867	2221.3121	995.05	109.65
951.2207	2222.7931	991	108.7
951.3546	2224.2733	990.55	107.85
951.4886	2225.7529	992.45	111.95
951.6225	2227.2317	991.65	109.8
951.7563	2228.7098	989.35	108.7
951.8902	2230.1872	989.9	111.05
952.024	2231.6638	987.4	106.25
952.1578	2233.1397	992.75	105.75
952.2916	2234.6149	985.15	105.4
952.4253	2236.0894	990.25	110.15
952.559	2237.5632	997	104.3
952.6927	2239.0362	988.7	107.8
952.8263	2240.5085	986.6	107.3
952.9599	2241.9801	988.8	105.9
953.0935	2243.4509	988.95	108.4
953.2271	2244.921	986.55	101.3
953.3606	2246.3904	989.15	104.45
953.4941	2247.8591	984.55	102.2
953.6276	2249.3271	988.6	105.85
953.7611	2250.7943	990.45	107.15
953.8945	2252.2608	984.5	102.3
954.0279	2253.7266	984.15	103.1
954.1612	2255.1917	981.3	100
954.2946	2256.656	988.05	105.4
954.4279	2258.1197	983.55	104.35
954.5612	2259.5826	985.4	104.2
954.6944	2261.0447	984	102.45
954.8276	2262.5062	988.6	103.65
954.9608	2263.9669	982.9	99.5
955.094	2265.4269	985.65	102.1
955.2271	2266.8862	985.2	103.3
955.3602	2268.3448	985.6	103.75
955.4933	2269.8026	982.2	99.25
955.6264	2271.2598	984.05	102.15
955.7594	2272.7162	981.25	101.3
955.8924	2274.1719	981.5	100.15
956.0253	2275.6268	983.7	100.75
956.1583	2277.0811	984.25	102.95
956.2912	2278.5346	982.15	101.5
956.4241	2279.9874	984.05	100.65
956.5569	2281.4395	978.3	96.9
956.6897	2282.8908	984.3	97.55
956.8225	2284.3414	979.85	96.95
956.9553	2285.7914	978.3	98.3
957.088	2287.2406	983	99.15
957.2207	2288.689	980.3	100.65
957.3534	2290.1368	980.55	95.7
957.486	2291.5838	982.4	96.1
957.6186	2293.0302	983.9	97.45
957.7512	2294.4758	979.45	96.7
957.8838	2295.9206	984.2	99.5
958.0163	2297.3648	978.85	97
958.1488	2298.8082	978.1	94.9
958.2813	2300.251	978.6	95.95
958.4137	2301.693	983.25	98.1
958.5461	2303.1343	979.65	96.05
958.6785	2304.5748	977.3	95.7
958.8108	2306.0147	978.35	95.7
958.9432	2307.4538	980.75	96.7
959.0754	2308.8922	973.35	92.8
959.2077	2310.3299	973.15	92.2
959.3399	2311.7669	973.85	92.55
959.4721	2313.2031	977.2	95.3
959.6043	2314.6387	978.8	97
959.7365	2316.0735	977.35	97.1
959.8686	2317.5076	976.7	93.85
960.0006	2318.941	977.25	93.45
960.1327	2320.3737	977.4	94.15
960.2647	2321.8056	979.75	94.75
960.3967	2323.2369	981.1	96.8
960.5287	2324.6674	981	95.45
960.6606	2326.0972	986	101.1
960.7925	2327.5263	985.15	103.55
960.9244	2328.9547	984.95	100.7
961.0562	2330.3823	982.4	98.4
961.1881	2331.8092	983.4	97.7
961.3198	2333.2355	976.95	92.85
961.4516	2334.661	974.75	91.2
961.5833	2336.0858	975	89
961.715	2337.5098	973.75	90.8
961.8467	2338.9332	973.45	91.45
961.9783	2340.3558	974.35	88.1
962.1099	2341.7778	972.1	92.95
962.2415	2343.199	975.2	89.25
962.373	2344.6195	972.25	91.25
962.5045	2346.0393	972.35	91.1
962.636	2347.4583	975.2	92.25
962.7675	2348.8767	972.9	89.35
962.8989	2350.2943	973.45	89.75
963.0303	2351.7113	975.05	89.4
963.1617	2353.1275	971.55	86.05
963.293	2354.543	993.65	84.8
963.4243	2355.9578	971.95	87.95
963.5556	2357.3718	970.15	88.65
963.6868	2358.7852	974.05	91.15
963.818	2360.1978	972.85	89.45
963.9492	2361.6098	971.25	87
964.0803	2363.021	975	87.95
964.2114	2364.4315	972.55	88.45
964.3425	2365.8413	975.4	87.1
964.4736	2367.2504	964.9	80.55
964.6046	2368.6587	969.2	86.7
964.7356	2370.0664	968.4	85.8
964.8666	2371.4733	968.35	81.25
964.9975	2372.8795	968.65	85
965.1284	2374.285	971.85	89.15
965.2593	2375.6899	967.4	82.6
965.3901	2377.0939	968.2	86
965.5209	2378.4973	970.65	89.35
965.6517	2379.9	970.15	87.3
965.7825	2381.3019	970.55	86.85
965.9132	2382.7032	968.35	85.6
966.0439	2384.1037	965.65	84.45
966.1745	2385.5035	965.4	83.4
966.3051	2386.9027	965.15	83.35
966.4357	2388.3011	969.15	83.95
966.5663	2389.6987	967.15	81.7
966.6968	2391.0957	963.5	79.65
966.8273	2392.492	966.25	83.5
966.9578	2393.8876	964.05	80.8
967.0882	2395.2824	963.7	80.35
967.2186	2396.6765	962.4	78.7
967.349	2398.07	962.65	80.95
967.4793	2399.4627	962.65	77.6
967.6097	2400.8547	964.05	77.2
967.7399	2402.246	967.85	77.3
967.8702	2403.6366	962.1	77.8
968.0004	2405.0265	965.55	83.75
968.1306	2406.4156	968.7	79.3
968.2607	2407.8041	967.2	80.05
968.3909	2409.1918	965.7	79.95
968.521	2410.5789	964	78.5
968.651	2411.9652	965.65	77.25
968.781	2413.3508	964.35	78.9
968.911	2414.7358	960.95	74.95
969.041	2416.12	963.3	79.35
969.1709	2417.5035	962.6	79.3
969.3008	2418.8863	965.55	78.8
969.4307	2420.2684	961.6	76.05
969.5606	2421.6497	962.65	78.6
969.6904	2423.0304	960.45	77.4
969.8201	2424.4104	959.55	75.15
969.9499	2425.7896	969.1	78.05
970.0796	2427.1682	963.35	80.55
970.2093	2428.546	958.15	73.3
970.3389	2429.9232	959.4	73.4
970.4685	2431.2996	960.75	77.1
970.5981	2432.6753	959.6	76.15
970.7277	2434.0503	961	77.7
970.8572	2435.4246	958.2	75.6
970.9867	2436.7982	965	77
971.1161	2438.1711	958	74.25
971.2456	2439.5433	962.6	76.3
971.375	2440.9148	958.95	73.75
971.5043	2442.2856	955.85	71.5
971.6336	2443.6557	959.5	73.05
971.7629	2445.025	958.95	72.6
971.8922	2446.3937	958.55	73.5
972.0214	2447.7617	957.15	70.7
972.1506	2449.1289	957.8	73.55
972.2798	2450.4955	959.7	72.6
972.4089	2451.8613	954.45	71.25
972.538	2453.2265	952.85	69.45
972.6671	2454.5909	958	74.8
972.7961	2455.9546	955.9	73.3
972.9251	2457.3177	954.65	72.65
973.0541	2458.68	956.8	72.8
973.1831	2460.0416	950.85	66.7
973.312	2461.4025	957.4	71.95
973.4408	2462.7627	960.1	64.6
973.5697	2464.1222	950.65	69
973.6985	2465.4811	954.1	69.85
973.8273	2466.8392	953.6	69.95
973.956	2468.1966	953.95	67.8
974.0847	2469.5533	956.6	71.05
974.2134	2470.9093	952.6	69.55
974.3421	2472.2645	957.05	73.1
974.4707	2473.6191	955.4	72.9
974.5993	2474.973	951.9	68
974.7278	2476.3262	958.6	72.75
974.8563	2477.6787	950.4	67.7
974.9848	2479.0305	957.35	72.35
975.1132	2480.3816	952.45	66.95
975.2417	2481.7319	953.3	68.65
975.37	2483.0816	952.35	66.95
975.4984	2484.4306	953.55	69.55
975.6267	2485.7789	952.15	70.45
975.755	2487.1264	954.85	70.05
975.8833	2488.4733	950.7	70.4
976.0115	2489.8195	962.05	69.95
976.1397	2491.165	953.95	66.75
976.2678	2492.5097	952.45	66.5
976.3959	2493.8538	951.35	68.25
976.524	2495.1972	950.25	65.9
976.6521	2496.5398	953	66.75
976.7801	2497.8818	953.85	68.35
976.9081	2499.2231	950.15	66.3
977.036	2500.5637	953.55	66.65
977.164	2501.9035	954.25	68.7
977.2918	2503.2427	955.55	67.85
977.4197	2504.5812	949.55	66.55
977.5475	2505.919	947.75	64.2
977.6753	2507.256	948.35	63.8
977.8031	2508.5924	947.75	66.2
977.9308	2509.9281	956.2	66.9
978.0585	2511.2631	949.8	66.1
978.1861	2512.5974	947.75	65.35
978.3137	2513.9309	949.5	65.25
978.4413	2515.2638	973.2	61.9
978.5689	2516.596	946.7	64.55
978.6964	2517.9275	948.85	63.85
978.8239	2519.2583	948.2	65.35
978.9513	2520.5884	948.1	64.05
979.0788	2521.9178	946.9	64.55
979.2062	2523.2465	947.65	64.8
979.3335	2524.5745	945	60.85
979.4608	2525.9018	948.5	66.35
979.5881	2527.2284	945.8	65.95
979.7154	2528.5543	945.05	60.85
979.8426	2529.8796	947.1	61.45
979.9698	2531.2041	947.3	64.8
980.0969	2532.5279	945.5	63.15
980.224	2533.851	944.5	60.4
980.3511	2535.1735	946.3	62.75
980.4781	2536.4952	945.85	64.9
980.6052	2537.8163	945.8	62.85
980.7321	2539.1366	945.25	63.7
980.8591	2540.4562	947	62.4
980.986	2541.7752	944.75	59.3
981.1129	2543.0935	949.85	65.55
981.2397	2544.411	946.55	60.4
981.3665	2545.7279	944.4	61.95
981.4933	2547.0441	944.35	61.1
981.62	2548.3596	948.85	63.3
981.7467	2549.6744	942.6	59.6
981.8734	2550.9885	949.45	57.3
982.0001	2552.3019	944.8	62.45
982.1267	2553.6146	944.95	61.4
982.2532	2554.9266	942.65	60.3
982.3798	2556.2379	943.9	59.85
982.5063	2557.5485	939.75	57.5
982.6327	2558.8585	948.75	56.35
982.7592	2560.1677	947.7	61.85
982.8856	2561.4762	945.75	62.85
983.0119	2562.7841	945.45	58.1
983.1383	2564.0913	939.1	56.7
983.2646	2565.3977	939.85	56.3
983.3908	2566.7035	940.4	58.4
983.517	2568.0086	944.45	59.6
983.6432	2569.313	943.9	59.85
983.7694	2570.6167	945.9	58.5
983.8955	2571.9197	942.5	62.45
984.0216	2573.222	947.25	60.1
984.1476	2574.5236	942.35	59.65
984.2737	2575.8246	943.7	56.25
984.3996	2577.1248	943.75	57.3
984.5256	2578.4244	939	56.7
984.6515	2579.7232	939.15	58.05
984.7774	2581.0214	966.15	56.6
984.9032	2582.3189	941.75	59.45
985.029	2583.6157	945.6	59
985.1548	2584.9118	941.35	58.4
985.2806	2586.2072	942.5	59.95
985.4063	2587.5019	941	59.25
985.5319	2588.7959	939.5	56.3
985.6576	2590.0893	943.55	59
985.7832	2591.3819	937.8	55.6
985.9087	2592.6739	939.95	58.65
986.0343	2593.9652	945.9	61.25
986.1597	2595.2557	942.65	60.65
986.2852	2596.5456	945.8	60.25
986.4106	2597.8348	941.9	57.5
986.536	2599.1234	940.35	58.45
986.6614	2600.4112	940.35	57.45
986.7867	2601.6983	945.3	59.8
986.912	2602.9848	940.15	55.6
987.0372	2604.2705	951.2	61.95
987.1624	2605.5556	941.3	57.1
987.2876	2606.84	942.55	59.45
987.4128	2608.1237	941.55	56.25
987.5379	2609.4067	940.95	58.85
987.6629	2610.689	948.3	55.95
987.788	2611.9707	939.35	51.55
987.913	2613.2516	944.55	57.4
988.0379	2614.5319	938.4	56.8
988.1629	2615.8115	938.6	55.35
988.2878	2617.0903	937	49.75
988.4126	2618.3685	937.75	53.2
988.5375	2619.6461	939.9	57
988.6622	2620.9229	935.05	52.6
988.787	2622.199	938.2	51.7
988.9117	2623.4745	939	56.65
989.0364	2624.7493	938.7	55.65
989.161	2626.0234	938.2	58.15
989.2857	2627.2968	937	55.45
989.4102	2628.5695	937.25	53.65
989.5348	2629.8415	935.95	54.75
989.6593	2631.1128	940.2	55.65
989.7837	2632.3835	933.45	51
989.9082	2633.6535	936.35	54.45
990.0326	2634.9228	932.45	50.25
990.1569	2636.1914	934.65	53.9
990.2812	2637.4593	938.5	50.25
990.4055	2638.7265	935.9	52.65
990.5298	2639.9931	934.25	51.35
990.654	2641.259	934.75	50.4
990.7782	2642.5242	937.55	54.25
990.9023	2643.7887	935.3	51.5
991.0264	2645.0525	931.8	50.05
991.1505	2646.3156	931.95	48.65
991.2745	2647.5781	933.05	51.8
991.3985	2648.8398	931.65	48.2
991.5225	2650.1009	939.65	47.6
991.6464	2651.3613	933.85	51.6
991.7703	2652.6211	933.4	52.2
991.8942	2653.8801	930	46.75
992.018	2655.1385	935.35	50.1
992.1418	2656.3961	930.85	47.3
992.2655	2657.6531	933.95	52.25
992.3892	2658.9094	930.15	48.2
992.5129	2660.1651	929.7	47.45
992.6366	2661.42	933.7	51.35
992.7602	2662.6743	929.55	45.75
992.8837	2663.9279	930.8	49.5
993.0073	2665.1808	932.55	46.4
993.1307	2666.433	931.9	47.55
993.2542	2667.6846	930.95	51
993.3776	2668.9354	936.7	51.3
993.501	2670.1856	933.55	51.3
993.6244	2671.4351	935.85	55
993.7477	2672.6839	934.7	50.35
993.8709	2673.9321	931.75	50
993.9942	2675.1795	934.3	52.75
994.1174	2676.4263	931	48.15
994.2405	2677.6724	931.35	48.7
994.3637	2678.9179	932.4	49.8
994.4868	2680.1626	934.2	51.95
994.6098	2681.4067	932.1	49.6
994.7328	2682.6501	934.65	51.6
994.8558	2683.8928	930.95	49.05
994.9788	2685.1348	931.55	50.45
995.1017	2686.3761	930.8	49.95
995.2245	2687.6168	930.95	49.7
995.3474	2688.8568	927.85	45.6
995.4702	2690.0961	929.6	48.85
995.5929	2691.3348	929.35	45.95
995.7156	2692.5727	928.3	46.8
995.8383	2693.81	928.35	47.65
995.961	2695.0466	925.85	44.8
996.0836	2696.2826	926.6	42.8
996.2062	2697.5178	946.25	44.15
996.3287	2698.7524	929.35	47.55
996.4512	2699.9863	932.15	47.3
996.5737	2701.2195	924.3	44
996.6961	2702.452	930.65	48.25
996.8185	2703.6839	928.15	45.6
996.9408	2704.9151	926.55	45.35
997.0631	2706.1456	930.4	49.05
997.1854	2707.3755	928.75	46.15
997.3077	2708.6046	933.55	50.2
997.4299	2709.8331	931	47.75
997.552	2711.0609	932.5	49.15
997.6742	2712.2881	932.2	51.2
997.7963	2713.5145	932.4	49
997.9183	2714.7403	932.85	49.75
998.0403	2715.9654	932.35	50
998.1623	2717.1899	947.95	53.4
998.2842	2718.4136	936.15	54.25
998.4062	2719.6367	934.85	50.75
998.528	2720.8591	943.55	54.8
998.6498	2722.0809	938.65	55.75
998.7716	2723.3019	940.35	54.2
998.8934	2724.5223	941.45	58.15
999.0151	2725.7421	939	56.8
999.1368	2726.9611	938.1	54.3
999.2584	2728.1795	939.7	51.1
999.38	2729.3972	935.8	54.6
999.5016	2730.6142	943.4	52.85
999.6231	2731.8306	932.15	49.95
999.7446	2733.0462	935.75	51.25
999.8661	2734.2612	938.4	51.7
999.9875	2735.4756	933.9	50.45
1000.1089	2736.6892	928	45.8
1000.2302	2737.9022	927.55	47.05
1000.3515	2739.1145	927.5	44.9
1000.4728	2740.3262	936.35	46.45
1000.594	2741.5372	929.1	46.75
1000.7152	2742.7475	928.35	47.15
1000.8363	2743.9571	928.5	43.4
1000.9575	2745.1661	930.75	44.5
1001.0785	2746.3744	921.8	39.5
1001.1996	2747.582	922.15	39.35
1001.3206	2748.7889	924.65	41.15
1001.4415	2749.9952	923.75	41.25
1001.5625	2751.2008	921.65	39.75
1001.6833	2752.4057	923.95	39.8
1001.8042	2753.61	923.65	43.15
1001.925	2754.8136	925.8	43.65
1002.0458	2756.0165	921.55	40.5
1002.1665	2757.2188	922.9	39.95
1002.2872	2758.4204	922.2	38.95
1002.4078	2759.6213	922	37.2
1002.5285	2760.8215	926.2	41.45
1002.649	2762.0211	924.15	41.95
1002.7696	2763.22	922.05	36.75
1002.8901	2764.4182	923.85	41.2
1003.0106	2765.6158	920.15	37.4
1003.131	2766.8127	921	41.3
1003.2514	2768.009	918.45	35.6
1003.3717	2769.2045	918.1	37.55
1003.492	2770.3994	921.6	38.25
1003.6123	2771.5936	919.2	36.5
1003.7325	2772.7872	916.15	36.7
1003.8527	2773.9801	920.25	35.75
1003.9729	2775.1723	934.75	35.3
1004.093	2776.3639	918.15	38.6
1004.2131	2777.5548	919.4	35.2
1004.3331	2778.745	917.5	36
1004.4531	2779.9346	918.5	37.45
1004.5731	2781.1235	920.4	40.05
1004.693	2782.3117	916.3	36.3
1004.8129	2783.4992	917.35	36.6
1004.9328	2784.6861	916.45	37.6
1005.0526	2785.8723	917.15	33.55
1005.1723	2787.0579	917.3	33.45
1005.2921	2788.2428	917.7	36
1005.4118	2789.427	919.3	38
1005.5314	2790.6106	916.9	36.7
1005.651	2791.7935	917.95	36.85
1005.7706	2792.9757	915.25	34.45
1005.8902	2794.1573	918.9	34.15
1006.0097	2795.3382	916.6	36.7
1006.1291	2796.5184	916.75	38.85
1006.2485	2797.698	919.7	36.55
1006.3679	2798.8769	918.9	37.9
1006.4873	2800.0551	921	39.55
1006.6066	2801.2327	922	38.75
1006.7258	2802.4096	919.7	39.35
1006.8451	2803.5859	920.4	40.1
1006.9642	2804.7615	923.7	41.15
1007.0834	2805.9364	918.15	38.15
1007.2025	2807.1106	922.3	42.3
1007.3216	2808.2842	922.95	42.9
1007.4406	2809.4572	922.45	41.2
1007.5596	2810.6294	927.55	46.65
1007.6785	2811.801	928.25	50.35
1007.7975	2812.972	925.65	45.15
1007.9163	2814.1423	929.3	47.9
1008.0352	2815.3119	933.6	52.6
1008.154	2816.4808	932.7	52.6
1008.2727	2817.6491	935.9	54.15
1008.3914	2818.8167	937.75	55.85
1008.5101	2819.9837	948.1	60.6
1008.6288	2821.15	945.65	64.7
1008.7474	2822.3157	951.25	71.7
1008.8659	2823.4807	956.8	75.25
1008.9844	2824.645	964.65	81.75
1009.1029	2825.8086	965.5	87.05
1009.2214	2826.9716	976.9	96.8
1009.3398	2828.134	981.65	102.35
1009.4581	2829.2957	990	110.6
1009.5764	2830.4567	994.8	113.55
1009.6947	2831.617	995.45	114.25
1009.813	2832.7767	999.75	118.7
1009.9312	2833.9358	999.2	119.55
1010.0493	2835.0941	999.7	115.2
1010.1675	2836.2519	996.9	116.95
1010.2855	2837.4089	998.35	116.25
1010.4036	2838.5653	987.65	107.9
1010.5216	2839.7211	985.4	105.85
1010.6396	2840.8761	982.7	103.15
1010.7575	2842.0306	981.4	102.4
1010.8754	2843.1843	982.7	100.85
1010.9932	2844.3374	984.1	103.45
1011.111	2845.4899	987.4	106.95
1011.2288	2846.6417	985.4	105.3
1011.3465	2847.7928	988.8	108.55
1011.4642	2848.9433	993.75	113.2
1011.5818	2850.0931	994.2	112.65
1011.6995	2851.2422	992.7	111.05
1011.817	2852.3907	995.1	113.1
1011.9345	2853.5385	996	113.45
1012.052	2854.6857	1017.35	109.9
1012.1695	2855.8323	996.45	114.75
1012.2869	2856.9781	999.5	121.2
1012.4042	2858.1233	1003.75	122.45
1012.5216	2859.2679	1006.1	125.55
1012.6389	2860.4118	1009.8	129
1012.7561	2861.555	1014.5	131.9
1012.8733	2862.6976	1014.4	130.95
1012.9905	2863.8395	1014.7	134.05
1013.1076	2864.9808	1016.8	136.8
1013.2247	2866.1214	1017.65	138.45
1013.3417	2867.2614	1018.4	137.9
1013.4587	2868.4007	1018.8	139.5
1013.5757	2869.5393	1023.9	140.95
1013.6926	2870.6773	1025.85	140.7
1013.8095	2871.8146	1030.1	146.45
1013.9263	2872.9513	1027.4	143.25
1014.0431	2874.0874	1027.3	145.25
1014.1599	2875.2227	1028.05	144.95
1014.2766	2876.3574	1035.05	156.55
1014.3933	2877.4915	1032.4	150
1014.51	2878.6249	1038.05	158.25
1014.6266	2879.7577	1038.95	157.55
1014.7431	2880.8898	1046.1	155.7
1014.8596	2882.0212	1038.05	157.85
1014.9761	2883.152	1042.6	161.1
1015.0925	2884.2821	1044.4	165.3
1015.2089	2885.4116	1040.6	160.55
1015.3253	2886.5405	1046.85	167.7
1015.4416	2887.6686	1052.65	169.45
1015.5579	2888.7962	1047.1	169
1015.6741	2889.923	1050.9	172.25
1015.7903	2891.0493	1045.95	167.4
1015.9065	2892.1748	1044.85	166.55
1016.0226	2893.2997	1045.55	164.75
1016.1387	2894.424	1046.15	168.45
1016.2547	2895.5476	1050.75	170.1
1016.3707	2896.6706	1047.55	167.65
1016.4866	2897.7929	1049.6	166.95
1016.6025	2898.9145	1050.7	170.15
1016.7184	2900.0355	1049.05	167.45
1016.8342	2901.1559	1049.1	167.6
1016.95	2902.2756	1053.25	166.15
1017.0658	2903.3946	1046.55	166.15
1017.1815	2904.513	1051.2	166.1
1017.2971	2905.6308	1042	162.25
1017.4127	2906.7479	1043.75	162.25
1017.5283	2907.8643	1047.4	165.45
1017.6439	2908.9801	1047.4	166.6
1017.7594	2910.0953	1044.3	165.05
1017.8748	2911.2098	1047.5	166.2
1017.9902	2912.3236	1051.2	162.15
1018.1056	2913.4368	1051.25	168.5
1018.2209	2914.5494	1043.8	162.8
1018.3362	2915.6613	1046.7	159.65
1018.4515	2916.7725	1039.1	154.6
1018.5667	2917.8831	1034.9	153.3
1018.6819	2918.9931	1037.9	154.95
1018.797	2920.1024	1035.45	154.1
1018.9121	2921.211	1029.25	150.2
1019.0271	2922.319	1029.8	149.55
1019.1421	2923.4264	1026.65	147.25
1019.2571	2924.5331	1021.7	142.7
1019.372	2925.6391	1025.5	146.05
1019.4869	2926.7445	1025.1	148.2
1019.6017	2927.8493	1029.15	149.45
1019.7165	2928.9534	1026.6	146.85
1019.8313	2930.0569	1029.2	146.05
1019.946	2931.1597	1032.4	149.75
1020.0606	2932.2619	1027.4	147.3
1020.1753	2933.3634	1035.45	155.1
1020.2899	2934.4643	1041.5	153.75
1020.4044	2935.5645	1041.85	157.85
1020.5189	2936.6641	1039.25	155.5
1020.6334	2937.763	1031.9	153.4
1020.7478	2938.8613	1034.55	155.5
1020.8622	2939.959	1038.95	152.65
1020.9765	2941.056	1029.7	150.9
1021.0908	2942.1523	1025	144.7
1021.2051	2943.248	1018.05	135.1
1021.3193	2944.3431	1011.3	132.7
1021.4334	2945.4375	1001.2	121
1021.5476	2946.5313	995.1	116.55
1021.6617	2947.6244	994.7	116.25
1021.7757	2948.7169	985.35	104.3
1021.8897	2949.8087	976.3	94.7
1022.0037	2950.8999	973.1	92.65
1022.1176	2951.9904	970.75	91.65
1022.2315	2953.0803	962.85	85.1
1022.3453	2954.1696	962.3	81
1022.4591	2955.2582	960.75	80.55
1022.5728	2956.3462	959	79
1022.6865	2957.4335	959.2	78.65
1022.8002	2958.5202	956.65	74.45
1022.9138	2959.6062	954.5	75.45
1023.0274	2960.6916	955.15	74.85
1023.141	2961.7764	956.05	74.75
1023.2545	2962.8605	955.05	76.3
1023.3679	2963.9439	952.5	73.55
1023.4813	2965.0267	950.95	69.15
1023.5947	2966.1089	978.7	75.55
1023.708	2967.1905	953.15	74.05
1023.8213	2968.2714	949.85	71.55
1023.9346	2969.3516	951.85	71.15
1024.0478	2970.4312	961.05	72.3
1024.1609	2971.5102	952.05	73.6
1024.274	2972.5885	950.45	72.55
1024.3871	2973.6662	957.9	73.95
1024.5002	2974.7432	950.1	71.5
1024.6132	2975.8196	950.7	73.6
1024.7261	2976.8954	950.8	72.65
1024.839	2977.9705	954.5	75.15
1024.9519	2979.045	952.1	73.55
1025.0647	2980.1188	951.4	74.15
1025.1775	2981.192	951.55	73.1
1025.2902	2982.2645	948.9	68.4
1025.4029	2983.3364	948.15	68
1025.5156	2984.4077	948.75	68.65
1025.6282	2985.4783	951.4	66.55
1025.7407	2986.5483	943.15	64.2
1025.8532	2987.6177	937.5	58.25
1025.9657	2988.6864	936.1	56.4
1026.0782	2989.7545	939.45	56.9
1026.1906	2990.8219	936.6	57.05
1026.3029	2991.8887	932	50.95
1026.4152	2992.9548	931.15	51.45
1026.5275	2994.0204	926.75	47.8
1026.6397	2995.0852	924.3	47.3
1026.7519	2996.1495	925.9	44.05
1026.864	2997.2131	924.3	44.45
1026.9761	2998.276	917.45	37.55
1027.0882	2999.3383	918.6	40
1027.2002	3000.4	915.75	35.5
1027.3122	3001.4611	912.25	34
1027.4241	3002.5215	912.25	31.45
1027.536	3003.5812	911.05	31.05
1027.6478	3004.6404	911.1	30.35
1027.7596	3005.6989	912.6	31.5
1027.8714	3006.7567	909.2	30.65
1027.9831	3007.8139	938.2	27.85
1028.0947	3008.8705	907.9	29.25
1028.2064	3009.9264	909.85	25.95
1028.3179	3010.9818	907.55	27.85
1028.4295	3012.0364	909	30
1028.541	3013.0905	906.85	29.2
1028.6524	3014.1439	902.5	22.25
1028.7638	3015.1966	904.35	28.5
1028.8752	3016.2487	905.7	26.8
1028.9865	3017.3002	908.55	25.65
1029.0978	3018.3511	903.9	26.55
1029.209	3019.4013	900.6	20.3
1029.3202	3020.4509	904.75	25.05
1029.4314	3021.4998	901.7	22.1
1029.5425	3022.5481	900.4	21.35
1029.6535	3023.5958	902.9	22.2
1029.7645	3024.6428	903.35	24.1
1029.8755	3025.6892	901.9	22.25
1029.9864	3026.735	903.5	24.6
1030.0973	3027.7802	903.5	22.5
1030.2082	3028.8247	903.6	25.25
1030.319	3029.8685	901.35	21.6
1030.4297	3030.9118	903.2	23.05
1030.5404	3031.9544	900.5	20.35
1030.6511	3032.9963	902.95	23.85
1030.7617	3034.0376	902.15	23.1
1030.8723	3035.0783	904.35	21.95
1030.9829	3036.1184	901.5	21.4
1031.0934	3037.1578	900.2	23.6
1031.2038	3038.1966	902.4	21.45
1031.3142	3039.2348	903.2	24.9
1031.4246	3040.2723	908.25	20.45
1031.5349	3041.3092	900.85	21.65
1031.6452	3042.3455	901.25	21.75
1031.7554	3043.3811	901.85	21.75
1031.8656	3044.4161	904.4	25.75
1031.9758	3045.4505	899.9	23.15
1032.0859	3046.4842	902.5	22.45
1032.1959	3047.5173	902.3	25.15
1032.3059	3048.5498	903.45	24.3
1032.4159	3049.5816	903.05	21.85
1032.5258	3050.6128	905.25	24.8
1032.6357	3051.6434	906.15	26.3
1032.7455	3052.6734	904.1	24.6
1032.8553	3053.7027	903.15	25.3
1032.9651	3054.7314	904.8	26.85
1033.0748	3055.7594	903.85	26
1033.1845	3056.7868	902.95	22.8
1033.2941	3057.8136	903.7	26.4
1033.4037	3058.8398	899.75	20.15
1033.5132	3059.8653	904.9	26.85
1033.6227	3060.8902	904.5	25.8
1033.7321	3061.9145	904.15	25.85
1033.8415	3062.9381	905.2	27.7
1033.9509	3063.9612	920.45	25.95
1034.0602	3064.9835	906.1	25.9
1034.1694	3066.0053	906.65	23.95
1034.2787	3067.0264	904	26.05
1034.3878	3068.0469	905.3	24.1
1034.497	3069.0668	907.35	25.55
1034.6061	3070.086	903.7	24.7
1034.7151	3071.1046	902.45	24.85
1034.8241	3072.1226	905.55	25.3
1034.9331	3073.1399	903.85	24.4
1035.042	3074.1567	902.4	23.5
1035.1508	3075.1727	904.45	23.75
1035.2597	3076.1882	900.9	23.6
1035.3684	3077.203	900.85	21.9
1035.4772	3078.2173	899.25	18.55
1035.5859	3079.2308	903	21.6
1035.6945	3080.2438	903.8	23.3
1035.8031	3081.2561	900.35	21.35
1035.9117	3082.2678	898	19.6
1036.0202	3083.2789	897.6	16.75
1036.1286	3084.2893	897.6	19.55
1036.2371	3085.2991	897.95	19.75
1036.3454	3086.3083	903.35	19
1036.4538	3087.3169	896.15	14.8
1036.562	3088.3248	900.15	23.15
1036.6703	3089.3321	898.85	19.55
1036.7785	3090.3388	895.35	17.5
1036.8866	3091.3449	898.1	17.45
1036.9948	3092.3503	896.9	15.05
1037.1028	3093.3551	894.3	17.5
1037.2108	3094.3593	894.9	17.3
1037.3188	3095.3629	892.9	15.45
1037.4267	3096.3658	897.3	16.5
1037.5346	3097.3681	893.25	15.05
1037.6425	3098.3698	896.55	14.35
1037.7503	3099.3708	895.15	15.35
1037.858	3100.3713	897.15	17.65
1037.9657	3101.3711	896.1	16.45
1038.0734	3102.3702	1031.35	15.25
1038.181	3103.3688	894.75	12.65
1038.2886	3104.3667	891.7	15.15
1038.3961	3105.364	893.5	13.65
1038.5036	3106.3607	894.15	15.3
1038.611	3107.3568	893.7	13.55
1038.7184	3108.3522	891.7	15.15
1038.8257	3109.347	897	17.45
1038.933	3110.3412	895.4	11.35
1039.0403	3111.3348	892.95	15.75
1039.1475	3112.3277	892.35	14.4
1039.2547	3113.32	888.35	10.45
1039.3618	3114.3117	892.35	14.95
1039.4689	3115.3028	892.2	14
1039.5759	3116.2932	896.35	16.1
1039.6829	3117.2831	895.9	13.5
1039.7898	3118.2723	891.3	12.5
1039.8967	3119.2608	890.6	11.55
1040.0035	3120.2488	888.5	8.45
1040.1103	3121.2361	890.85	13.45
1040.2171	3122.2229	891.85	12.6
1040.3238	3123.209	889.8	10.4
1040.4305	3124.1944	891.7	13.7
1040.5371	3125.1793	891.4	11.55
1040.6437	3126.1635	892	14.95
1040.7502	3127.1471	890.4	12.05
1040.8567	3128.1301	888.6	10.6
1040.9631	3129.1125	891.45	14.25
1041.0695	3130.0942	888.65	10.35
1041.1759	3131.0753	897.45	10.5
1041.2822	3132.0558	891.3	9.55
1041.3884	3133.0357	888.1	8.75
1041.4946	3134.015	890.8	11.9
1041.6008	3134.9936	890.6	10.3
1041.7069	3135.9716	907	8.35
1041.813	3136.949	890.5	12.95
1041.919	3137.9258	907.9	11.35
1042.025	3138.902	896.4	13
1042.1309	3139.8775	885.25	8.5
1042.2368	3140.8524	887.8	6.05
1042.3427	3141.8267	888.8	7.6
1042.4485	3142.8004	888.7	10.05
1042.5542	3143.7735	897.45	13.5
1042.6599	3144.7459	892.6	12.05
1042.7656	3145.7178	888.45	8.15
1042.8712	3146.689	886.7	9.55
1042.9768	3147.6596	889.55	8.4
1043.0823	3148.6295	889.8	14
1043.1878	3149.5989	888.25	8.65
1043.2932	3150.5676	885.8	8.85
1043.3986	3151.5357	884.45	8.1
1043.5039	3152.5032	886.45	8.95
1043.6092	3153.4701	886.45	8.55
1043.7145	3154.4364	891.05	8.05
1043.8197	3155.402	886.6	9.45
1043.9248	3156.367	889.55	7.3
1044.03	3157.3315	921.8	8.8
1044.135	3158.2952	886.95	9.45
1044.24	3159.2584	888.1	10.65
1044.345	3160.221	889.5	11.4
1044.4499	3161.1829	887.45	7.15
1044.5548	3162.1442	887.55	9.8
1044.6596	3163.105	889.2	11.25
1044.7644	3164.065	887.75	10.9
1044.8692	3165.0245	887.05	5.7
1044.9739	3165.9834	886.1	9.85
1045.0785	3166.9416	884.1	7.35
1045.1831	3167.8993	886.5	7.25
1045.2877	3168.8563	887.95	9.55
1045.3922	3169.8127	886.9	8.05
1045.4966	3170.7684	886.75	7.65
1045.6011	3171.7236	887.9	8.3
1045.7054	3172.6782	885.75	7.5
1045.8098	3173.6321	886.55	6
1045.914	3174.5854	891.95	10.85
1046.0183	3175.5381	887	7.1
1046.1224	3176.4902	886.15	7.6
1046.2266	3177.4417	886.5	9.1
1046.3307	3178.3926	887.55	10.6
1046.4347	3179.3428	883.8	6.15
1046.5387	3180.2924	884.75	7
1046.6427	3181.2415	886.35	7.7
1046.7466	3182.1899	887.9	7.2
1046.8504	3183.1377	885.95	8.8
1046.9542	3184.0848	890	6.7
1047.058	3185.0314	886.1	7.4
1047.1617	3185.9773	886.45	7.15
1047.2654	3186.9227	886.75	8.3
1047.369	3187.8674	887.35	8.6
1047.4726	3188.8115	889.65	6.1
1047.5761	3189.755	885.25	6.6
1047.6796	3190.6979	885.8	7.45
1047.783	3191.6402	885.2	7.4
1047.8864	3192.5818	886.85	7.3
1047.9898	3193.5229	908.7	3.45
1048.0931	3194.4633	884.55	5.45
1048.1963	3195.4031	884.3	5.4
1048.2995	3196.3423	885.5	8.6
1048.4027	3197.2809	885	5.55
1048.5058	3198.2189	886.25	7.8
1048.6089	3199.1563	891.85	5.85
1048.7119	3200.0931	885.1	8.2
1048.8148	3201.0292	883.75	5.45
1048.9178	3201.9648	885.35	7.6
1049.0206	3202.8997	889.45	6.45
1049.1235	3203.834	884.1	7
1049.2262	3204.7677	884.5	4.35
1049.329	3205.7008	887.9	7.9
1049.4317	3206.6333	883.1	9.75
1049.5343	3207.5652	886.95	7.3
1049.6369	3208.4964	885.25	6.65
1049.7394	3209.4271	886.25	8.65
1049.8419	3210.3571	883.6	4.6
1049.9444	3211.2865	885.3	7.15
1050.0468	3212.2154	882.3	2.75
1050.1491	3213.1436	886.25	4.8
1050.2514	3214.0712	891.3	7.8
1050.3537	3214.9982	885.25	6.05
1050.4559	3215.9246	885.7	5.85
1050.5581	3216.8503	883.75	6.95
1050.6602	3217.7755	884.2	5.7
1050.7623	3218.7001	883.8	5.85
1050.8643	3219.624	884.05	5.75
1050.9663	3220.5473	884.5	5.8
1051.0682	3221.4701	885.1	4.95
1051.1701	3222.3922	886.75	7.4
1051.2719	3223.3137	886.9	8.5
1051.3737	3224.2346	884.9	8.15
1051.4754	3225.1549	882.8	4.35
1051.5771	3226.0746	882.3	6.4
1051.6788	3226.9937	887.1	8.35
1051.7804	3227.9121	883.9	7.6
1051.8819	3228.83	884.15	7.25
1051.9834	3229.7473	884.2	6.25
1052.0849	3230.6639	882.85	5.55
1052.1863	3231.5799	882.9	5.75
1052.2876	3232.4954	883.15	2.95
1052.3889	3233.4102	883.85	6.25
1052.4902	3234.3244	884.7	6.15
1052.5914	3235.238	883.35	4.6
1052.6926	3236.151	907.4	4.95
1052.7937	3237.0634	884.15	8.7
1052.8948	3237.9752	885.65	8.15
1052.9958	3238.8864	884.5	5.75
1053.0968	3239.797	882.2	3.45
1053.1977	3240.7069	882.6	3.15
1053.2986	3241.6163	883	2.85
1053.3994	3242.5251	882	3.75
1053.5002	3243.4332	880.75	3.95
1053.6009	3244.3408	883.8	4.2
1053.7016	3245.2477	881.95	3.65
1053.8022	3246.154	884.1	5.05
1053.9028	3247.0598	883.9	5.65
1054.0034	3247.9649	883	4.9
1054.1039	3248.8694	884.45	4.85
1054.2043	3249.7733	882.75	6.8
1054.3047	3250.6766	882.2	3.2
1054.4051	3251.5793	883.1	2.85
1054.5054	3252.4814	882.65	4.65
1054.6056	3253.3829	883.25	6.4
1054.7058	3254.2838	881.95	2.95
1054.806	3255.1841	883.2	4.4
1054.9061	3256.0838	882.35	3.9
1055.0061	3256.9829	882.25	5.3
1055.1062	3257.8814	884.35	5.2
1055.2061	3258.7792	884.4	5.8
1055.306	3259.6765	883.75	5
1055.4059	3260.5731	881	2.7
1055.5057	3261.4692	882.15	2.25
1055.6055	3262.3647	885.4	5.95
1055.7052	3263.2595	883	4.15
1055.8049	3264.1538	882	3.85
1055.9045	3265.0474	882.8	5.25
1056.0041	3265.9404	882.3	4.4
1056.1036	3266.8329	881	3.65
1056.2031	3267.7247	892.25	2.8
1056.3025	3268.616	879.9	3.65
1056.4019	3269.5066	881.95	2.15
1056.5013	3270.3966	884.15	5.4
1056.6005	3271.286	879.9	2.4
