Software Version:	3.9.2.0
Unit SN:	10000200
Spectrometer SN:	6960
Date:	3/8/2024 2:05:55 PM
Data Line Index:	25
Spectral Points:	2048
Integration time (ms):	125
Averages:	20
Delay (ms):	30000
Sequence Number:	1
Processing:	dark subtract
Laser Power (mW):	305
Laser Current (mA):	823
Laser Diode Temp (C):	25.1
Laser Case Temp (C):	26.2
System Temp (C):	26.2
Spectrometer Temp (C):	24
CCD Temp (C):	0.008
Secondary Temp (C):	20.008
Heatsink Temp (C):	21.283
CCDPCB Temp (C):	35.907
SecondaryPCB Temp (C):	30.082

Wavelength	RamanShift	Raw Counts	Dark Subtracted
787.061	30.1047	463.4	54.75
787.2016	32.3739	465.75	61.9
787.3422	34.6426	473.65	67.1
787.4828	36.9109	480.45	70.7
787.6235	39.1787	485.9	73.75
787.7642	41.4461	497.05	78.55
787.9049	43.7131	506.35	85.05
788.0456	45.9796	512.6	90.2
788.1863	48.2456	523.7	96
788.3271	50.5112	536.85	103.5
788.4679	52.7764	541.95	107.15
788.6087	55.0411	555.3	116.8
788.7496	57.3054	565.35	120.8
788.8904	59.5692	576.5	131.05
789.0313	61.8326	587.65	139.65
789.1722	64.0955	603.95	152.4
789.3132	66.3579	620.15	163.95
789.4541	68.6199	642.4	181.7
789.5951	70.8815	678.15	213.55
789.7361	73.1426	761.1	292.5
789.8771	75.4032	975.8	502.9
790.0181	77.6634	1501.05	1024.65
790.1592	79.9231	2733.05	2250.4
790.3003	82.1824	5463.2	4967.7
790.4414	84.4412	10323.65	9803.25
790.5825	86.6995	17032.3	16484.55
790.7237	88.9574	23525.15	22950
790.8648	91.2148	28056.75	27464.4
791.006	93.4717	30191.45	29594.55
791.1472	95.7282	30706.8	30104
791.2885	97.9842	30647.55	30038.9
791.4297	100.2398	30193.25	29580
791.571	102.4949	29622.95	29006.15
791.7123	104.7495	28910.15	28292.95
791.8536	107.0036	28152.4	27535.5
791.9949	109.2573	27404.5	26788.6
792.1363	111.5105	26758.65	26137.7
792.2777	113.7632	25993.15	25370.55
792.4191	116.0154	25434	24801.05
792.5605	118.2672	24973.05	24346.85
792.7019	120.5185	24533.75	23903.7
792.8434	122.7693	24183.5	23547.95
792.9849	125.0197	23900.95	23261.3
793.1264	127.2696	23683.3	23042.7
793.2679	129.519	23528.85	22882.8
793.4094	131.7679	23376.7	22728.85
793.551	134.0163	23247.35	22602.2
793.6926	136.2642	23070.55	22417.35
793.8342	138.5117	22853.55	22196.85
793.9758	140.7587	22655.55	22000.35
794.1175	143.0052	22469.5	21809.1
794.2591	145.2512	22256.1	21597.7
794.4008	147.4967	22049.05	21386.85
794.5425	149.7417	21921.1	21258.05
794.6842	151.9863	21808.35	21139.9
794.826	154.2304	21773.95	21096.75
794.9677	156.4739	21631.4	20953.9
795.1095	158.717	21584	20902.4
795.2513	160.9596	21452.6	20768.3
795.3931	163.2017	21180	20497.2
795.535	165.4433	20958.2	20274.35
795.6768	167.6844	20585.55	19897
795.8187	169.925	20312.15	19619.2
795.9606	172.1651	19964.55	19275.75
796.1025	174.4047	19692.45	18996.15
796.2445	176.6439	19482.6	18785.95
796.3864	178.8825	19223.15	18520.3
796.5284	181.1206	19077.5	18368.65
796.6704	183.3582	18936.75	18222.9
796.8124	185.5954	18854.25	18138.35
796.9544	187.832	18749.3	18034.55
797.0965	190.0681	18771.3	18054.05
797.2386	192.3037	18790.2	18069.1
797.3806	194.5388	18797.05	18075.6
797.5228	196.7734	18857.55	18137.15
797.6649	199.0075	18922.85	18195.1
797.807	201.2411	19083.65	18354.45
797.9492	203.4742	19154.3	18422.4
798.0914	205.7068	19350.55	18614.1
798.2336	207.9389	19456.15	18721.95
798.3758	210.1704	19642.85	18920.4
798.518	212.4015	19778.75	19062.65
798.6603	214.632	19951.2	19240.5
798.8025	216.862	20170.3	19458.6
798.9448	219.0915	20347.5	19639
799.0871	221.3205	20576.35	19862.8
799.2294	223.549	20845.55	20139.5
799.3718	225.777	21158.6	20443.9
799.5141	228.0044	21514.85	20794.3
799.6565	230.2314	21989.9	21267.4
799.7989	232.4578	22447.55	21721.6
799.9413	234.6837	22822.65	22090.4
800.0837	236.909	23102	22367.2
800.2262	239.1339	23085.65	22325.35
800.3687	241.3582	22854.7	22112.9
800.5111	243.582	22515.1	21738.6
800.6536	245.8053	22212.35	21450.55
800.7961	248.0281	21889.75	21131.7
800.9387	250.2503	21641.95	20880.85
801.0812	252.472	21488.3	20723.85
801.2238	254.6932	21479.4	20717.9
801.3664	256.9139	21396.4	20633.25
801.509	259.134	21441.65	20676.3
801.6516	261.3536	21409.2	20642.55
801.7942	263.5727	21465.45	20695.95
801.9369	265.7912	21416.7	20648.85
802.0795	268.0092	21462	20696.2
802.2222	270.2267	21423.55	20656.95
802.3649	272.4436	21420.75	20650.25
802.5076	274.6601	21364.35	20586.35
802.6504	276.8759	21264.65	20492.25
802.7931	279.0913	21283.6	20511.35
802.9359	281.3061	21277.95	20503.85
803.0787	283.5204	21370.2	20592.65
803.2215	285.7341	21417.15	20632.45
803.3643	287.9473	21627.65	20835.85
803.5071	290.16	21852.7	21066.65
803.6499	292.3721	22181.5	21402.7
803.7928	294.5837	22631.25	21851.25
803.9357	296.7947	22992.7	22213.9
804.0786	299.0052	23211.5	22429.95
804.2215	301.2152	23091.55	22311.8
804.3644	303.4246	22759.35	21976.9
804.5074	305.6334	22212.65	21432.15
804.6503	307.8418	21744.4	20960.4
804.7933	310.0495	21361.05	20574.1
804.9363	312.2568	21020.95	20234.15
805.0793	314.4635	20844.35	20056.1
805.2223	316.6696	20745.25	19951.05
805.3653	318.8752	20697.1	19898.7
805.5084	321.0802	20738.9	19942.75
805.6514	323.2847	20890	20096.4
805.7945	325.4887	20950.5	20155.45
805.9376	327.692	20920.4	20120.45
806.0807	329.8949	20814.1	20015.75
806.2238	332.0972	20557.4	19756.2
806.367	334.2989	20282.65	19480.45
806.5101	336.5001	20026.05	19224.4
806.6533	338.7007	19884.7	19079.2
806.7965	340.9008	19740.55	18935.45
806.9397	343.1003	19643.8	18839.5
807.0829	345.2992	19626.1	18818.5
807.2261	347.4976	19604.4	18795.4
807.3693	349.6955	19593.45	18780.15
807.5126	351.8927	19699.1	18883.6
807.6559	354.0895	19704.25	18875.35
807.7991	356.2856	19764	18949.1
807.9424	358.4812	19755.9	18938.15
808.0857	360.6763	19795	18976.65
808.2291	362.8707	19803.1	18981.45
808.3724	365.0646	19864.85	19042.25
808.5158	367.258	19845.65	19025.45
808.6591	369.4508	19863.85	19038.85
808.8025	371.643	20011.5	19184.1
808.9459	373.8346	19972	19144.75
809.0893	376.0257	19974	19142.35
809.2327	378.2162	19882	19052.1
809.3762	380.4062	19813.6	18982.95
809.5196	382.5956	19685.5	18859.65
809.6631	384.7844	19593.55	18772.3
809.8066	386.9726	19520.75	18703.35
809.9501	389.1603	19485.1	18666.85
810.0936	391.3474	19431.45	18585.8
810.2371	393.5339	19410.6	18588.25
810.3806	395.7199	19388.9	18569.85
810.5241	397.9052	19425.35	18608.6
810.6677	400.09	19423.65	18604.5
810.8113	402.2743	19549.95	18725.1
810.9548	404.4579	19599.3	18778.05
811.0984	406.641	19792.55	18967.5
811.2421	408.8235	20067.15	19241.3
811.3857	411.0054	20349.5	19522.8
811.5293	413.1868	20816.85	19983.95
811.673	415.3675	21150.15	20317.65
811.8166	417.5477	21352.3	20515
811.9603	419.7273	21408.35	20568.45
812.104	421.9064	21295.35	20451.4
812.2477	424.0848	21163.9	20326.15
812.3914	426.2627	20966.4	20126.35
812.5351	428.4399	20664.45	19827.35
812.6788	430.6166	20323.45	19479.75
812.8226	432.7928	19983.5	19137.3
812.9663	434.9683	19663.05	18817.15
813.1101	437.1432	19496.15	18657.55
813.2539	439.3176	19335.3	18498.5
813.3977	441.4914	19189.45	18351.9
813.5415	443.6645	19166.15	18329.65
813.6853	445.8371	19100	18256.65
813.8291	448.0091	19045.25	18203.2
813.973	450.1806	19029.55	18188.2
814.1168	452.3514	18973.65	18132.05
814.2607	454.5216	18999.85	18146.65
814.4046	456.6913	18926.55	18080.3
814.5485	458.8603	19016.8	18174.2
814.6924	461.0288	19076.2	18238.7
814.8363	463.1967	19105.2	18268.05
814.9802	465.3639	19221.2	18379.9
815.1241	467.5306	19334.85	18491.65
815.2681	469.6967	19480.05	18639.1
815.412	471.8622	19626.55	18789
815.556	474.0271	19785.7	18945.75
815.7	476.1914	19898.8	19051.8
815.844	478.3551	19879.05	19032.85
815.988	480.5182	19880.9	19038.45
816.132	482.6807	19876.3	19036.2
816.276	484.8426	19997.45	19163.6
816.4201	487.0039	20285.6	19445.65
816.5641	489.1647	20720.45	19874.75
816.7082	491.3248	21162.85	20316.3
816.8522	493.4843	21355.9	20509.4
816.9963	495.6432	21377	20532.4
817.1404	497.8015	21272.35	20418.1
817.2845	499.9592	21280.55	20422.05
817.4286	502.1163	21250.3	20396.1
817.5727	504.2728	21014.05	20162
817.7168	506.4287	20729.95	19887.3
817.861	508.5839	20347.85	19503.6
818.0051	510.7386	20043.6	19195.35
818.1493	512.8927	19845	18990.4
818.2935	515.0461	19744.45	18886.85
818.4377	517.199	19677.7	18822.45
818.5818	519.3512	19706	18853.2
818.726	521.5029	19808.85	18948.35
818.8703	523.6539	19922.25	19068.2
819.0145	525.8043	19924.55	19066.7
819.1587	527.9541	19963.15	19101.05
819.303	530.1033	19970.2	19110.1
819.4472	532.2519	20000.75	19143.85
819.5915	534.3999	20148.9	19288.7
819.7357	536.5472	20400	19543.65
819.88	538.694	20904.4	20049
820.0243	540.8401	21528.4	20664
820.1686	542.9856	22008.35	21143.75
820.3129	545.1305	22177.6	21307.75
820.4572	547.2748	22065.2	21193.1
820.6016	549.4185	21721.25	20853.55
820.7459	551.5615	21371.85	20502.25
820.8902	553.704	21250.75	20382.6
821.0346	555.8458	21163.3	20296.9
821.1789	557.987	21207.2	20338.9
821.3233	560.1276	21205.6	20336.3
821.4677	562.2675	21242.9	20374.8
821.6121	564.4069	21283.85	20415.6
821.7565	566.5456	21292.75	20430.6
821.9009	568.6837	21199	20333.55
822.0453	570.8212	20937.2	20071.85
822.1897	572.958	20637.3	19768.2
822.3342	575.0942	20365.5	19500.5
822.4786	577.2299	20157.25	19298.5
822.6231	579.3648	20150.25	19295.05
822.7675	581.4992	20226.15	19375.7
822.912	583.6329	20436.9	19586.65
823.0565	585.766	20685.7	19834.1
823.201	587.8985	20838.05	19983.45
823.3454	590.0304	20847.95	19973.05
823.4899	592.1616	20765.7	19894.4
823.6345	594.2922	20661.1	19793.45
823.779	596.4222	20497.5	19625.7
823.9235	598.5515	20373.2	19500
824.068	600.6802	20224.4	19350.6
824.2126	602.8083	20051.8	19180.75
824.3571	604.9358	20018.4	19146.6
824.5017	607.0626	19938.15	19064.4
824.6462	609.1888	19902.5	19024.7
824.7908	611.3144	19888.6	19012.6
824.9354	613.4393	19774.4	18897.1
825.08	615.5636	19707.95	18831.05
825.2246	617.6873	19601.65	18726.55
825.3692	619.8103	19574.5	18695.4
825.5138	621.9327	19439.6	18560.6
825.6584	624.0544	19414.4	18542.65
825.803	626.1756	19441.05	18568.9
825.9477	628.2961	19418	18541
826.0923	630.4159	19369.45	18491.35
826.237	632.5351	19332	18454.2
826.3816	634.6537	19303.9	18425.4
826.5263	636.7716	19281.05	18395.65
826.6709	638.8889	19303.3	18416.65
826.8156	641.0056	19363.15	18478.95
826.9603	643.1216	19367.8	18484.6
827.105	645.237	19429.75	18549.4
827.2497	647.3518	19402.15	18525.1
827.3944	649.4659	19475.6	18600.15
827.5391	651.5793	19464.6	18587.55
827.6838	653.6922	19462.2	18586.1
827.8285	655.8043	19478.05	18599
827.9733	657.9159	19464.35	18585.8
828.118	660.0268	19392.05	18509.7
828.2627	662.137	19348.5	18466.15
828.4075	664.2466	19319.55	18436.1
828.5522	666.3556	19325.3	18441.95
828.697	668.4639	19300.1	18417.6
828.8418	670.5716	19374.7	18497.15
828.9865	672.6786	19471.6	18589.65
829.1313	674.785	19519.65	18634.85
829.2761	676.8907	19607.6	18723.85
829.4209	678.9958	19687.85	18806.2
829.5657	681.1002	19683.55	18800.35
829.7105	683.204	19695	18803
829.8553	685.3072	19635.05	18745.05
830.0001	687.4097	19568.4	18683.3
830.1449	689.5115	19522.15	18632.3
830.2898	691.6127	19520.1	18631.8
830.4346	693.7132	19477.8	18596.55
830.5794	695.8131	19426.15	18521.8
830.7243	697.9123	19462.15	18572.55
830.8691	700.0109	19414.55	18525.45
831.014	702.1089	19424.4	18535.95
831.1588	704.2061	19436.7	18550.7
831.3037	706.3028	19490.55	18598.05
831.4486	708.3987	19570.95	18679.55
831.5935	710.4941	19620.1	18731
831.7383	712.5887	19829.5	18938.45
831.8832	714.6827	20153.05	19258.75
832.0281	716.7761	20487.1	19601.1
832.173	718.8688	20886.1	19997.2
832.3179	720.9608	21022.65	20127.3
832.4628	723.0522	21126.25	20230
832.6077	725.1429	20949.7	20058.2
832.7527	727.233	20706.4	19812.8
832.8976	729.3224	20468.7	19578.35
833.0425	731.4112	20188.65	19297.4
833.1874	733.4993	19981.4	19087.65
833.3324	735.5867	19808.1	18916.3
833.4773	737.6735	19727.3	18834.1
833.6222	739.7596	19667.2	18772.9
833.7672	741.845	19696.35	18801
833.9122	743.9298	19671.05	18776.45
834.0571	746.014	19690.65	18797.85
834.2021	748.0974	19662	18762.25
834.347	750.1802	19670.65	18774.3
834.492	752.2624	19661.95	18765.8
834.637	754.3439	19724.3	18825.85
834.782	756.4247	19791.25	18882.85
834.9269	758.5048	19922.4	19025.55
835.0719	760.5843	20133.05	19232.55
835.2169	762.6631	20430.95	19534.1
835.3619	764.7413	20876.6	19982
835.5069	766.8188	21454.25	20557
835.6519	768.8956	21899.4	20999.05
835.7969	770.9718	22213.85	21317.55
835.9419	773.0473	22078.5	21181.85
836.0869	775.1221	21762.35	20866.7
836.232	777.1962	21402.55	20508.4
836.377	779.2697	21188.15	20291.4
836.522	781.3426	21283.6	20366.6
836.667	783.4147	21513.55	20612.55
836.8121	785.4862	21875.25	20976.7
836.9571	787.557	21890.15	20993.3
837.1021	789.6271	21550.55	20650.85
837.2472	791.6966	21027.45	20128.9
837.3922	793.7654	20497.2	19600.65
837.5373	795.8335	20195.75	19296.85
837.6823	797.901	20028.15	19129
837.8274	799.9678	19962.45	19060.85
837.9724	802.0339	19998	19098.2
838.1175	804.0993	20066.85	19156.65
838.2626	806.1641	20017.05	19113.85
838.4076	808.2282	19956.4	19055.85
838.5527	810.2916	19912.7	19008.55
838.6978	812.3544	19815.7	18917.85
838.8428	814.4164	19755.8	18855.8
838.9879	816.4778	19784.35	18881.15
839.133	818.5385	19790.1	18883.85
839.2781	820.5986	19852.8	18949
839.4232	822.658	20001.3	19095.7
839.5682	824.7166	20079.75	19177.55
839.7133	826.7747	20319	19416.05
839.8584	828.832	20515.95	19612.35
840.0035	830.8886	20645	19740.7
840.1486	832.9446	20819.3	19915.2
840.2937	834.9999	20855.35	19953.3
840.4388	837.0545	20875.2	19966.45
840.5839	839.1085	20875.7	19971.95
840.729	841.1618	20826.65	19919.2
840.8741	843.2143	20823.15	19917.55
841.0192	845.2662	20747.25	19841.75
841.1643	847.3175	20708.25	19800.05
841.3095	849.368	20585.1	19679.5
841.4546	851.4179	20485.85	19582.15
841.5997	853.467	20358.1	19454.55
841.7448	855.5155	20280.75	19374.25
841.8899	857.5633	20203.4	19300.05
842.0351	859.6105	20086.1	19180.55
842.1802	861.6569	20018.45	19113.4
842.3253	863.7027	19960.3	19051.7
842.4704	865.7478	20007.65	19102.55
842.6156	867.7922	20034.25	19127.6
842.7607	869.8359	20058.2	19152.65
842.9058	871.8789	20214.1	19308.95
843.0509	873.9212	20399.5	19461.4
843.1961	875.9629	20503.75	19596.85
843.3412	878.0039	20685	19778.65
843.4863	880.0441	20817.45	19908.7
843.6315	882.0837	20850.55	19944.8
843.7766	884.1226	20793.2	19885.7
843.9218	886.1609	20686.1	19779.8
844.0669	888.1984	20607.45	19702
844.212	890.2352	20641	19731.65
844.3572	892.2714	20550.65	19637.75
844.5023	894.3069	20571.95	19664.45
844.6475	896.3416	20505.55	19597.15
844.7926	898.3757	20496.4	19586.65
844.9377	900.4091	20529.05	19618.45
845.0829	902.4418	20542.05	19626.2
845.228	904.4739	20545.5	19630.9
845.3732	906.5052	20558.3	19644.2
845.5183	908.5358	20446.95	19536.25
845.6635	910.5658	20323	19409.8
845.8086	912.595	20155.4	19246.6
845.9538	914.6236	20013.05	19102.05
846.0989	916.6515	19964.4	19051.35
846.2441	918.6786	19981.1	19070.55
846.3892	920.7051	20041.15	19130.6
846.5344	922.7309	20206.2	19293.6
846.6795	924.756	20267.7	19356.85
846.8246	926.7804	20352.7	19439.95
846.9698	928.8041	20288.25	19375
847.1149	930.8272	20343.9	19434.8
847.2601	932.8495	20236	19323.95
847.4052	934.8711	20220.8	19307.05
847.5504	936.892	20055.85	19147.15
847.6955	938.9123	19897.75	18985.25
847.8407	940.9318	19804.2	18892.1
847.9858	942.9506	19661.3	18751.45
848.131	944.9688	19574.1	18663.25
848.2761	946.9862	19545.05	18632.95
848.4213	949.003	19464.5	18552.8
848.5664	951.019	19466.15	18555.5
848.7115	953.0344	19487.9	18575.45
848.8567	955.0491	19536.65	18625.45
849.0018	957.063	19628.85	18716.2
849.147	959.0763	19731.85	18822.75
849.2921	961.0888	19832.3	18920.25
849.4373	963.1007	19889.45	18978.5
849.5824	965.1119	19964.25	19056.45
849.7275	967.1223	19993.55	19089.75
849.8727	969.1321	20032.3	19128.75
850.0178	971.1412	20065.5	19158.8
850.1629	973.1495	20089.15	19181.35
850.3081	975.1572	20198.6	19235.25
850.4532	977.1641	20202.35	19292.7
850.5983	979.1704	20173.35	19258.35
850.7435	981.1759	20141.85	19226.25
850.8886	983.1808	20208	19295.2
851.0337	985.1849	20322	19398.75
851.1788	987.1884	20447.2	19535.65
851.324	989.1911	20612.5	19699.6
851.4691	991.1932	20741.2	19830.75
851.6142	993.1945	20777.55	19868.45
851.7593	995.1951	20673.75	19761.2
851.9045	997.1951	20690.75	19771.65
852.0496	999.1943	20612.85	19700.15
852.1947	1001.1928	20574.9	19660.25
852.3398	1003.1906	20546.75	19632.1
852.4849	1005.1877	20601.2	19686.9
852.63	1007.1841	20596.85	19685.15
852.7751	1009.1798	20490.65	19580.6
852.9202	1011.1748	20280.2	19367.95
853.0653	1013.1691	20101.75	19186.55
853.2104	1015.1627	19896.65	18983.35
853.3555	1017.1556	19646.65	18736.05
853.5006	1019.1477	19540.2	18629.1
853.6457	1021.1392	19471.6	18567.25
853.7908	1023.1299	19455.5	18550.55
853.9359	1025.12	19463.7	18561
854.081	1027.1093	19474.35	18577.15
854.2261	1029.0979	19593.55	18701.7
854.3712	1031.0859	19631.85	18735.45
854.5163	1033.0731	19586.85	18681.25
854.6613	1035.0596	19535.9	18629.05
854.8064	1037.0454	19355.1	18448
854.9515	1039.0304	19279.55	18366.3
855.0965	1041.0148	19156.1	18245.2
855.2416	1042.9985	19065.5	18152.45
855.3867	1044.9814	19059.65	18149.6
855.5317	1046.9636	18972.2	18059.5
855.6768	1048.9452	18935.5	18027.1
855.8219	1050.926	18967.6	18059
855.9669	1052.9061	18971.15	18060.7
856.112	1054.8855	18949.6	18039.15
856.257	1056.8642	19019.75	18107.25
856.4021	1058.8421	19084.95	18170.25
856.5471	1060.8194	19118.8	18207.35
856.6921	1062.7959	19142.7	18231.75
856.8372	1064.7717	19122.8	18209
856.9822	1066.7469	19155.9	18241.7
857.1272	1068.7213	19173	18256.35
857.2723	1070.695	19149.25	18236.7
857.4173	1072.6679	19112.65	18197.55
857.5623	1074.6402	19066.75	18153.9
857.7073	1076.6117	19069.4	18150.25
857.8523	1078.5826	19066.5	18152.1
857.9973	1080.5527	19048.25	18133.1
858.1423	1082.5221	19148.15	18239.6
858.2873	1084.4908	19345.6	18433.1
858.4323	1086.4587	19535.25	18623.3
858.5773	1088.426	19648.7	18736.5
858.7223	1090.3925	19646.65	18731.05
858.8673	1092.3584	19589.25	18679.5
859.0123	1094.3235	19438.1	18526.2
859.1573	1096.2879	19331.65	18420.8
859.3022	1098.2515	19363.65	18448
859.4472	1100.2145	19432.3	18523.25
859.5922	1102.1767	19489.9	18577.75
859.7371	1104.1382	19663	18748.2
859.8821	1106.099	19841.4	18928.45
860.027	1108.0591	20087.9	19177
860.172	1110.0185	20217.35	19304.8
860.3169	1111.9771	20244.45	19332.25
860.4619	1113.9351	19994.4	19082.55
860.6068	1115.8923	19707.2	18793.4
860.7517	1117.8488	19413.95	18501.75
860.8967	1119.8045	19126.8	18217.45
861.0416	1121.7596	18986.35	18076.8
861.1865	1123.7139	18915.95	18007.35
861.3314	1125.6675	18926.85	18014.1
861.4763	1127.6204	19025.4	18113.8
861.6212	1129.5726	19011.8	18097.8
861.7661	1131.524	18987.05	18074.7
861.911	1133.4748	18966.35	18055.4
862.0559	1135.4248	18988.05	18074.45
862.2008	1137.3741	18936.75	18023.9
862.3457	1139.3226	18908.25	17994
862.4905	1141.2705	18893.25	17980.7
862.6354	1143.2176	18753.8	17833.8
862.7803	1145.164	18765.95	17850.85
862.9251	1147.1097	18813.35	17900.65
863.07	1149.0546	18778.4	17867.85
863.2148	1150.9989	18721.4	17808.15
863.3597	1152.9424	18588.6	17674.85
863.5045	1154.8852	18420.85	17508.9
863.6493	1156.8272	18292.8	17384.95
863.7942	1158.7686	18277.05	17355.1
863.939	1160.7092	18219.75	17304.9
864.0838	1162.6491	18194.5	17278.05
864.2286	1164.5883	18286.55	17373
864.3734	1166.5267	18369.6	17453.9
864.5182	1168.4644	18521.95	17607.3
864.663	1170.4014	18675.35	17760.85
864.8078	1172.3377	18935.4	18024.1
864.9526	1174.2732	19167.4	18259
865.0974	1176.2081	19418.45	18507.55
865.2421	1178.1421	19606.65	18687.1
865.3869	1180.0755	19836.1	18924.3
865.5317	1182.0082	19895.55	18982.85
865.6764	1183.9401	19904.4	18992.9
865.8212	1185.8713	19706.85	18801
865.9659	1187.8017	19501.45	18597.6
866.1106	1189.7315	19268.45	18373.35
866.2554	1191.6605	18951.6	18053.15
866.4001	1193.5888	18728.6	17828.05
866.5448	1195.5163	18643.1	17736.3
866.6895	1197.4432	18551	17639
866.8342	1199.3693	18483	17573.3
866.9789	1201.2947	18443.15	17526.15
867.1236	1203.2193	18376.1	17464.35
867.2683	1205.1432	18425.1	17513.4
867.413	1207.0664	18426.1	17515.2
867.5576	1208.9889	18474.8	17559.45
867.7023	1210.9106	18437.85	17525.65
867.847	1212.8316	18516.95	17607.8
867.9916	1214.7519	18615.1	17694.95
868.1363	1216.6715	18562.25	17652.05
868.2809	1218.5903	18596.6	17687.05
868.4255	1220.5084	18510.1	17600.45
868.5701	1222.4257	18535.2	17624.15
868.7148	1224.3424	18475	17570.3
868.8594	1226.2583	18513.4	17596.55
869.004	1228.1735	18587.5	17675.05
869.1486	1230.0879	18697.75	17786.2
869.2932	1232.0016	18771.25	17860
869.4377	1233.9146	18807.15	17897
869.5823	1235.8269	18715.5	17806.65
869.7269	1237.7384	18644.2	17732.5
869.8715	1239.6492	18403.9	17492.85
870.016	1241.5592	18298.35	17388.4
870.1606	1243.4686	18205	17299.25
870.3051	1245.3772	18171.45	17262.9
870.4496	1247.285	18151.6	17239.85
870.5941	1249.1922	18107.35	17197.1
870.7387	1251.0986	18109.3	17198.85
870.8832	1253.0042	18092.2	17182.9
871.0277	1254.9092	18131.1	17222.25
871.1722	1256.8134	18211.15	17302.5
871.3167	1258.7169	18315.05	17403.5
871.4611	1260.6196	18448.3	17541.1
871.6056	1262.5216	18722.8	17811.4
871.7501	1264.4229	18843.2	17935.85
871.8945	1266.3234	18983.65	18076.1
872.039	1268.2232	19073.9	18165.55
872.1834	1270.1223	19044.6	18131.75
872.3278	1272.0207	19027.15	18116.55
872.4723	1273.9183	18988.95	18073.6
872.6167	1275.8151	18911.2	18001.9
872.7611	1277.7113	18839.25	17930.7
872.9055	1279.6067	18671.25	17760.2
873.0499	1281.5014	18570.9	17657.25
873.1943	1283.3953	18528.85	17618.05
873.3386	1285.2885	18540.6	17632.35
873.483	1287.181	18548.5	17639.15
873.6274	1289.0727	18673.15	17765.95
873.7717	1290.9637	18744.6	17837.25
873.9161	1292.854	18873.4	17963.6
874.0604	1294.7435	19008.15	18100.5
874.2047	1296.6323	19181.15	18271
874.349	1298.5204	19390.8	18478.9
874.4933	1300.4077	19602.2	18692.1
874.6376	1302.2943	19745.2	18833.65
874.7819	1304.1802	19820.7	18913.8
874.9262	1306.0653	19680.35	18769.9
875.0705	1307.9497	19446.45	18536.05
875.2147	1309.8333	19278.15	18368.25
875.359	1311.7162	19202.85	18290.65
875.5032	1313.5984	19191.45	18280
875.6475	1315.4798	19239	18316.4
875.7917	1317.3605	19289.8	18367.8
875.9359	1319.2405	19388.25	18476.45
876.0801	1321.1197	19331.65	18418.05
876.2243	1322.9982	19164.6	18250.95
876.3685	1324.876	19139	18231.7
876.5127	1326.753	19023.05	18113.05
876.6569	1328.6293	18990.05	18079.95
876.801	1330.5048	18969.4	18058.5
876.9452	1332.3796	18948.3	18040.45
877.0893	1334.2537	18895.1	17963.1
877.2335	1336.127	18804.2	17894.2
877.3776	1337.9996	18754.15	17845.05
877.5217	1339.8714	18740.6	17831.8
877.6658	1341.7426	18718.4	17764.9
877.8099	1343.6129	18678.1	17766.95
877.954	1345.4826	18614.45	17702.9
878.0981	1347.3515	18600.2	17689.15
878.2422	1349.2196	18524.75	17612
878.3862	1351.087	18509.9	17600.8
878.5303	1352.9537	18583.65	17674.1
878.6743	1354.8197	18686.35	17778.25
878.8184	1356.6849	18848.15	17940.1
878.9624	1358.5493	18884.85	17975.8
879.1064	1360.4131	18916	18007.25
879.2504	1362.276	18813.3	17905.5
879.3944	1364.1383	18672.95	17764
879.5384	1365.9998	18464.8	17549.8
879.6823	1367.8606	18137.3	17224.35
879.8263	1369.7206	17876.4	16968.4
879.9702	1371.5799	17641.7	16731.7
880.1142	1373.4384	17439.9	16530
880.2581	1375.2962	17314.9	16403.75
880.402	1377.1533	17009.55	16102.5
880.5459	1379.0096	16688.2	15779.65
880.6898	1380.8652	16391.15	15483.75
880.8337	1382.7201	16153	15246.75
880.9776	1384.5742	15919.8	15009.9
881.1215	1386.4275	15715.5	14803.65
881.2653	1388.2802	15575.4	14664.4
881.4092	1390.132	15449.2	14539.4
881.553	1391.9832	15393.7	14480.65
881.6968	1393.8336	15288.45	14378.75
881.8406	1395.6832	15245.05	14333.2
881.9844	1397.5322	15200.65	14293.4
882.1282	1399.3803	15149.45	14236
882.272	1401.2278	15052.25	14145.7
882.4158	1403.0745	15062.8	14154.7
882.5595	1404.9204	15039.5	14133.05
882.7033	1406.7656	15031.55	14117.5
882.847	1408.6101	15020.85	14110.9
882.9908	1410.4538	15026.85	14116.25
883.1345	1412.2968	15026.35	14116.8
883.2782	1414.139	15056.6	14148.85
883.4219	1415.9805	15121.85	14212.35
883.5656	1417.8213	15173.1	14261.35
883.7092	1419.6613	15240.6	14336.6
883.8529	1421.5006	15410.05	14501.4
883.9965	1423.3391	15644.85	14736
884.1402	1425.1769	15948.8	15039.3
884.2838	1427.0139	16430.25	15520.65
884.4274	1428.8502	16999.6	16091.8
884.571	1430.6858	17548.5	16640.2
884.7146	1432.5206	17928.45	17020.4
884.8582	1434.3547	18147.45	17238.25
885.0018	1436.188	18171.9	17263.9
885.1453	1438.0206	18120.7	17212.2
885.2889	1439.8524	17917.85	17010.45
885.4324	1441.6835	17817.7	16911.6
885.5759	1443.5139	17716.1	16805.9
885.7194	1445.3435	17628.1	16725.2
885.8629	1447.1724	17549.9	16642.65
886.0064	1449.0005	17467.65	16561.85
886.1499	1450.8279	17367.25	16459.4
886.2933	1452.6545	17351.9	16444
886.4368	1454.4804	17373.55	16467.15
886.5802	1456.3056	17314.8	16403.85
886.7237	1458.13	17216.15	16309.55
886.8671	1459.9536	16987.95	16081.4
887.0105	1461.7766	16640.4	15735.7
887.1539	1463.5987	16223.55	15317.05
887.2972	1465.4202	15868.65	14961.4
887.4406	1467.2409	15483.65	14574.25
887.584	1469.0608	15241.6	14335.5
887.7273	1470.88	14975.05	14069.3
887.8706	1472.6984	14746.75	13841.6
888.0139	1474.5161	14501.1	13592.55
888.1572	1476.3331	14310.05	13403.1
888.3005	1478.1493	14193.55	13287.4
888.4438	1479.9648	14102.85	13196.05
888.5871	1481.7795	13999.05	13092.05
888.7303	1483.5935	13916.55	13007.45
888.8736	1485.4067	13860.5	12956
889.0168	1487.2192	13781.85	12873.1
889.16	1489.031	13729.3	12822.9
889.3032	1490.842	13701.55	12794.1
889.4464	1492.6522	13659.55	12753.3
889.5896	1494.4618	13579.55	12669.2
889.7327	1496.2705	13544.45	12636.3
889.8759	1498.0785	13524.55	12619.25
890.019	1499.8858	13496.75	12589.25
890.1622	1501.6924	13458.4	12549.95
890.3053	1503.4981	13402.55	12496.75
890.4484	1505.3032	13368.6	12458.8
890.5914	1507.1075	13342.6	12437.7
890.7345	1508.911	13280	12375.75
890.8776	1510.7138	13236.95	12329.45
891.0206	1512.5159	13156.3	12253.2
891.1637	1514.3172	13109.25	12201
891.3067	1516.1178	13012.25	12108.8
891.4497	1517.9176	12999.6	12090.9
891.5927	1519.7166	12945.4	12040.9
891.7357	1521.515	12918.65	12006.85
891.8786	1523.3126	12874.5	11967.1
892.0216	1525.1094	12844.3	11938.75
892.1645	1526.9055	12814.7	11912.05
892.3074	1528.7008	12716	11811.6
892.4503	1530.4954	12657.95	11755.4
892.5932	1532.2893	12633.3	11729.9
892.7361	1534.0824	12577.7	11669.65
892.879	1535.8747	12583.6	11682.35
893.0218	1537.6663	12573.5	11671.1
893.1647	1539.4572	12522.95	11618.05
893.3075	1541.2473	12521	11618.3
893.4503	1543.0367	12481.75	11580.85
893.5931	1544.8253	12429.25	11524.85
893.7359	1546.6132	12444.7	11538.9
893.8787	1548.4003	12438.05	11525.55
894.0214	1550.1867	12450.25	11540.7
894.1642	1551.9723	12448.75	11544.9
894.3069	1553.7572	12494.8	11594.9
894.4496	1555.5414	12516.75	11615.5
894.5923	1557.3247	12524.2	11623.4
894.735	1559.1074	12561.4	11661.15
894.8777	1560.8893	12615.4	11716.4
895.0204	1562.6705	12662.05	11763.5
895.163	1564.4509	12745.85	11849.8
895.3056	1566.2305	12759.45	11863.05
895.4482	1568.0094	12849.35	11955.55
895.5908	1569.7876	12881.85	11985.75
895.7334	1571.565	12879.65	11983.2
895.876	1573.3417	12902.65	12004.05
896.0186	1575.1176	12865.2	11968.25
896.1611	1576.8928	12811.5	11915.4
896.3036	1578.6672	12730.85	11836.7
896.4461	1580.4409	12576.55	11685.85
896.5886	1582.2138	12471.1	11573.35
896.7311	1583.986	12346.55	11451.25
896.8736	1585.7575	12301.2	11407.35
897.0161	1587.5282	12197.95	11305.75
897.1585	1589.2981	12178.35	11287.35
897.3009	1591.0673	12111.35	11217.9
897.4433	1592.8358	12121.15	11228
897.5857	1594.6035	12144.55	11248.75
897.7281	1596.3704	12117.4	11222.5
897.8705	1598.1366	12116.3	11221.9
898.0128	1599.9021	12191.7	11298.15
898.1551	1601.6668	12207.15	11312.5
898.2975	1603.4308	12264.8	11368.25
898.4398	1605.194	12379.9	11479.35
898.5821	1606.9564	12459.85	11569.75
898.7243	1608.7182	12568.4	11677.9
898.8666	1610.4791	12698.2	11815.75
899.0088	1612.2394	12870.9	11985.05
899.1511	1613.9988	13003.45	12116.55
899.2933	1615.7576	13225.4	12335.8
899.4355	1617.5156	13413.6	12515.5
899.5776	1619.2728	13614.65	12721.5
899.7198	1621.0293	13719.3	12825.15
899.862	1622.785	13721.7	12827.85
900.0041	1624.54	13607.05	12712.8
900.1462	1626.2942	13446.2	12555.7
900.2883	1628.0477	13186.85	12294.55
900.4304	1629.8005	12931.45	12039.85
900.5725	1631.5525	12705.25	11817.2
900.7145	1633.3037	12506.8	11617.45
900.8566	1635.0542	12383.25	11494.4
900.9986	1636.804	12239.05	11349.05
901.1406	1638.553	12250.3	11278.25
901.2826	1640.3013	12114.7	11224.2
901.4245	1642.0488	12083.9	11193.4
901.5665	1643.7955	12103.65	11218.7
901.7085	1645.5416	12148.7	11261.8
901.8504	1647.2868	12200.3	11311
901.9923	1649.0313	12328.65	11438.5
902.1342	1650.7751	12442.05	11548.8
902.2761	1652.5181	12593.6	11704.65
902.4179	1654.2604	12739.3	11849.95
902.5598	1656.0019	12999.3	12114.2
902.7016	1657.7427	13315.35	12423.6
902.8434	1659.4828	13602.75	12715.25
902.9852	1661.222	13747.65	12854.95
903.127	1662.9606	13741.75	12853.55
903.2687	1664.6984	13525	12632.7
903.4105	1666.4354	13159.45	12268.05
903.5522	1668.1717	12629.15	11733.95
903.6939	1669.9072	12137.6	11244.2
903.8356	1671.642	11713	10822.95
903.9773	1673.3761	11352.05	10462.85
904.119	1675.1094	11055.25	10162.6
904.2606	1676.8419	10832.9	9943.4
904.4022	1678.5737	10665.05	9775.5
904.5439	1680.3048	10525.75	9634.05
904.6855	1682.0351	10401.85	9511.2
904.827	1683.7646	10309.65	9415.45
904.9686	1685.4934	10215.95	9324.85
905.1101	1687.2215	10162.25	9274.2
905.2517	1688.9488	10027.45	9139.05
905.3932	1690.6754	9975.55	9087.7
905.5347	1692.4012	9955.95	9064.75
905.6761	1694.1263	9896.55	9005.8
905.8176	1695.8506	9872.45	8981.5
905.9591	1697.5742	9814.6	8926.35
906.1005	1699.297	9770.55	8882.35
906.2419	1701.0191	9711.2	8826.9
906.3833	1702.7404	9661.05	8774.7
906.5246	1704.461	9618.35	8730.7
906.666	1706.1808	9541.8	8650.25
906.8073	1707.8999	9523.8	8637.55
906.9487	1709.6182	9506.05	8621.1
907.09	1711.3358	9468.45	8584.2
907.2313	1713.0527	9421.55	8538.7
907.3725	1714.7688	9371.75	8480.05
907.5138	1716.4841	9304.45	8415.85
907.655	1718.1987	9302.75	8410.65
907.7962	1719.9126	9267.15	8383.25
907.9374	1721.6257	9256.05	8370.35
908.0786	1723.338	9229.55	8344.15
908.2198	1725.0496	9180.45	8293.05
908.3609	1726.7605	9162.7	8275.45
908.502	1728.4706	9125.65	8238.25
908.6431	1730.18	9087.05	8201.25
908.7842	1731.8886	9051.2	8169.05
908.9253	1733.5964	9038.15	8131.85
909.0664	1735.3036	9036	8146.4
909.2074	1737.0099	8976.45	8092.9
909.3484	1738.7156	8944.15	8061.5
909.4894	1740.4204	8894.5	8008.2
909.6304	1742.1246	8880.45	7994.15
909.7714	1743.8279	8867.75	7983.2
909.9123	1745.5306	8823.75	7940.6
910.0532	1747.2325	8799.3	7914.3
910.1941	1748.9336	8789.7	7905.1
910.335	1750.634	8730.25	7843.2
910.4759	1752.3336	8722.8	7840.4
910.6168	1754.0325	8724.65	7844.1
910.7576	1755.7307	8691.95	7809.2
910.8984	1757.4281	8662.95	7777.6
911.0392	1759.1247	8656	7760
911.18	1760.8206	8626.55	7735
911.3208	1762.5158	8616.6	7724.6
911.4615	1764.2102	8569.1	7685.95
911.6022	1765.9039	8532.9	7649.85
911.7429	1767.5968	8527.75	7644.95
911.8836	1769.289	8492.55	7609.2
912.0243	1770.9804	8486.65	7600.7
912.1649	1772.6711	8480.1	7592
912.3056	1774.361	8417.25	7529.5
912.4462	1776.0502	8441.65	7556.55
912.5868	1777.7386	8403.4	7513.6
912.7274	1779.4263	8355.3	7471.45
912.8679	1781.1132	8369.7	7488.2
913.0084	1782.7994	8328.25	7444.2
913.149	1784.4849	8308.65	7429.7
913.2895	1786.1696	8295.55	7407.7
913.4299	1787.8535	8282.65	7401.2
913.5704	1789.5367	8260.15	7380.05
913.7108	1791.2192	8262.1	7378.4
913.8513	1792.9009	8241.55	7332.1
913.9917	1794.5818	8210.6	7325.2
914.132	1796.2621	8183.3	7299.4
914.2724	1797.9415	8181.1	7296.45
914.4128	1799.6202	8136.25	7251.45
914.5531	1801.2982	8114	7228.55
914.6934	1802.9755	8100.05	7213.7
914.8337	1804.6519	8106	7222.25
914.9739	1806.3277	8027.65	7147.4
915.1142	1808.0027	8005.75	7124.8
915.2544	1809.6769	8017.55	7136.2
915.3946	1811.3504	7994.35	7113.45
915.5348	1813.0231	7980.65	7097.4
915.675	1814.6951	7960.75	7077.9
915.8151	1816.3664	7980.05	7093.55
915.9553	1818.0369	7923.8	7039
916.0954	1819.7067	7912.15	7030.7
916.2355	1821.3757	7909.2	7022.55
916.3755	1823.044	7887.55	7004.15
916.5156	1824.7115	7875.3	6989.45
916.6556	1826.3783	7831.7	6949.75
916.7956	1828.0443	7799.55	6918.35
916.9356	1829.7096	7795.75	6910.45
917.0756	1831.3741	7783.2	6898.8
917.2155	1833.0379	7778.35	6896.65
917.3555	1834.701	7740.35	6859.2
917.4954	1836.3633	7712.3	6831.75
917.6353	1838.0248	7669.45	6786
917.7751	1839.6856	7668.05	6784.35
917.915	1841.3457	7677.05	6794.3
918.0548	1843.005	7663.9	6782.25
918.1946	1844.6636	7656.65	6774.3
918.3344	1846.3214	7626	6743.25
918.4742	1847.9785	7622.5	6743
918.6139	1849.6349	7589.95	6703.25
918.7537	1851.2904	7588.65	6694.55
918.8934	1852.9453	7566.95	6682.85
919.0331	1854.5994	7542.9	6655.55
919.1727	1856.2528	7561.85	6673.4
919.3124	1857.9054	7544.6	6660.05
919.452	1859.5572	7510.8	6627.95
919.5916	1861.2083	7504.8	6623.2
919.7312	1862.8587	7511.25	6624.8
919.8708	1864.5084	7478.3	6593.65
920.0103	1866.1572	7454.5	6568.6
920.1498	1867.8054	7434.8	6550.6
920.2893	1869.4528	7392.95	6508.8
920.4288	1871.0994	7378.1	6494.35
920.5683	1872.7453	7347.05	6463.95
920.7077	1874.3905	7381.55	6480.85
920.8471	1876.0349	7337.2	6453.1
920.9865	1877.6786	7322.65	6435.2
921.1259	1879.3215	7295.6	6412.75
921.2653	1880.9637	7270.45	6386.3
921.4046	1882.6051	7268.15	6385.3
921.5439	1884.2458	7264.5	6380
921.6832	1885.8858	7228.2	6344.7
921.8225	1887.525	7224.85	6341.8
921.9617	1889.1634	7183.4	6296.3
922.101	1890.8011	7185.2	6301.05
922.2402	1892.4381	7151.05	6268.75
922.3794	1894.0743	7151.25	6268.55
922.5185	1895.7098	7108.5	6223.65
922.6577	1897.3446	7093.9	6210.15
922.7968	1898.9786	7091.3	6205.2
922.9359	1900.6118	7064.35	6182.3
923.075	1902.2443	7052.55	6169.1
923.214	1903.8761	7029.7	6147.85
923.3531	1905.5071	6989.35	6105.6
923.4921	1907.1374	6962.8	6080.85
923.6311	1908.7669	6955.45	6071.8
923.77	1910.3957	6943.2	6061.3
923.909	1912.0237	6894.05	6011.8
924.0479	1913.651	6897.55	6013.1
924.1868	1915.2776	6879.6	5997.45
924.3257	1916.9034	6855.2	5973.35
924.4646	1918.5285	6831.2	5950.85
924.6034	1920.1528	6797.7	5913.6
924.7422	1921.7764	6824.95	5942
924.881	1923.3992	6774.15	5891.45
925.0198	1925.0213	6723	5840.8
925.1586	1926.6427	6729.1	5848
925.2973	1928.2633	6786.6	5804.05
925.436	1929.8832	6706.8	5822.05
925.5747	1931.5023	6664.85	5782.35
925.7134	1933.1207	6641.3	5756.2
925.852	1934.7383	6615.1	5732.8
925.9906	1936.3552	6611.45	5728.1
926.1292	1937.9714	6600.6	5716.5
926.2678	1939.5868	6570.95	5688.05
926.4064	1941.2015	6519.45	5635.35
926.5449	1942.8154	6499.1	5617.45
926.6834	1944.4286	6478.2	5593.4
926.8219	1946.041	6469.95	5560.4
926.9604	1947.6528	6412.7	5525.35
927.0988	1949.2637	6423.05	5539.25
927.2372	1950.8739	6407.7	5525.5
927.3756	1952.4834	6379.45	5496.65
927.514	1954.0921	6382.55	5500.3
927.6523	1955.7001	6345.3	5461.75
927.7907	1957.3074	6324.35	5446.4
927.929	1958.9139	6330.9	5451.5
928.0673	1960.5197	6297.25	5414.45
928.2055	1962.1247	6257.45	5376.65
928.3438	1963.729	6239.25	5358.5
928.482	1965.3325	6217.8	5332.6
928.6202	1966.9353	6187.7	5309.05
928.7584	1968.5374	6175.15	5294.35
928.8965	1970.1387	6162.55	5282.55
929.0346	1971.7393	6131.7	5250.3
929.1727	1973.3392	6126.05	5246.5
929.3108	1974.9383	6096.3	5219.45
929.4489	1976.5366	6073.15	5195.05
929.5869	1978.1342	6063.1	5185
929.7249	1979.7311	6067.65	5187.3
929.8629	1981.3273	6037.75	5160.25
930.0009	1982.9227	6019.7	5140.25
930.1388	1984.5173	5986.2	5107.45
930.2767	1986.1112	5969.5	5092.35
930.4146	1987.7044	5970.35	5091.7
930.5525	1989.2968	5954.05	5075.25
930.6904	1990.8885	5934.75	5052.6
930.8282	1992.4795	5908.2	5031.1
930.966	1994.0697	5897.4	5020.05
931.1038	1995.6592	5905.7	5027.95
931.2415	1997.2479	5854.15	4978.15
931.3793	1998.8359	5844.75	4966.3
931.517	2000.4232	5820.2	4944.1
931.6547	2002.0097	5792.9	4917.95
931.7923	2003.5955	5780.9	4903.75
931.93	2005.1805	5763.65	4885.05
932.0676	2006.7648	5750.8	4874.3
932.2052	2008.3484	5746.85	4870.55
932.3427	2009.9312	5729.8	4853.7
932.4803	2011.5133	5719.1	4846.9
932.6178	2013.0946	5695.15	4822.25
932.7553	2014.6752	5680.55	4806.15
932.8928	2016.2551	5664.85	4788.45
933.0302	2017.8342	5655.35	4777.95
933.1676	2019.4126	5638.2	4762.3
933.305	2020.9902	5621.45	4747
933.4424	2022.5672	5601.65	4724
933.5798	2024.1433	5592.15	4713.05
933.7171	2025.7188	5586.75	4712.7
933.8544	2027.2935	5569.45	4694.75
933.9917	2028.8674	5546.75	4672
934.129	2030.4406	5524.35	4652.1
934.2662	2032.0131	5501.9	4626.75
934.4034	2033.5849	5496.1	4615.2
934.5406	2035.1559	5490	4616.1
934.6778	2036.7261	5491.65	4615.25
934.8149	2038.2957	5468.4	4591.3
934.952	2039.8645	5450.95	4573.1
935.0891	2041.4325	5450	4570.55
935.2262	2042.9998	5425.7	4547.95
935.3632	2044.5664	5420.15	4541
935.5002	2046.1323	5402.15	4527.95
935.6372	2047.6974	5408.5	4533.15
935.7742	2049.2617	5382	4506.7
935.9111	2050.8254	5361.9	4481.2
936.048	2052.3883	5372.75	4494.8
936.1849	2053.9504	5351.1	4475.15
936.3218	2055.5118	5333	4455.35
936.4586	2057.0725	5304.2	4423.7
936.5955	2058.6325	5299.5	4424.05
936.7323	2060.1917	5267.8	4393.55
936.869	2061.7502	5270.55	4393
937.0058	2063.3079	5256.05	4379.8
937.1425	2064.8649	5227.9	4348.75
937.2792	2066.4212	5225.9	4348.5
937.4159	2067.9767	5215.9	4339.25
937.5525	2069.5315	5206.65	4330.05
937.6891	2071.0856	5173.9	4297.25
937.8257	2072.6389	5146.4	4272
937.9623	2074.1915	5130.35	4255.55
938.0989	2075.7433	5094.85	4218.1
938.2354	2077.2945	5088.75	4213.95
938.3719	2078.8448	5102.65	4224.2
938.5084	2080.3945	5076.9	4198.15
938.6448	2081.9434	5079.45	4201.1
938.7812	2083.4916	5049.2	4169.5
938.9176	2085.039	5032.4	4150.4
939.054	2086.5857	5066.05	4183.25
939.1903	2088.1317	5021.15	4139.25
939.3267	2089.677	5006.35	4124.95
939.463	2091.2215	4998.85	4116.6
939.5992	2092.7652	4969.75	4086.6
939.7355	2094.3083	4969.15	4088.65
939.8717	2095.8506	4959.8	4079.7
940.0079	2097.3921	4947	4069.6
940.1441	2098.933	4927.7	4048.05
940.2802	2100.4731	4926.25	4048.3
940.4163	2102.0124	4927.65	4031
940.5524	2103.5511	4921.55	4043.05
940.6885	2105.089	4891.3	4010.95
940.8245	2106.6261	4890.35	4011.7
940.9606	2108.1626	4872.65	3991.65
941.0965	2109.6983	4890.15	3984.85
941.2325	2111.2332	4861.15	3982.55
941.3684	2112.7675	4846.4	3967.05
941.5044	2114.301	4826.9	3944.35
941.6403	2115.8337	4813.1	3935.45
941.7761	2117.3657	4810.25	3932.2
941.912	2118.897	4811.95	3931.2
942.0478	2120.4276	4791.95	3907.85
942.1835	2121.9575	4770.15	3889.85
942.3193	2123.4866	4770.8	3874.15
942.455	2125.0149	4757.05	3873.45
942.5907	2126.5426	4731.55	3854.95
942.7264	2128.0695	4726.15	3845.7
942.8621	2129.5956	4714.2	3840.15
942.9977	2131.1211	4701.65	3820.6
943.1333	2132.6458	4699.5	3822.95
943.2689	2134.1698	4681.1	3801
943.4044	2135.693	4676.1	3794.05
943.54	2137.2155	4650.65	3767.85
943.6755	2138.7373	4639	3761.2
943.8109	2140.2584	4640.55	3762.8
943.9464	2141.7787	4632.1	3751.3
944.0818	2143.2983	4607.85	3732.3
944.2172	2144.8171	4580.3	3706.45
944.3526	2146.3353	4599.05	3721.15
944.4879	2147.8527	4575.45	3698.25
944.6232	2149.3693	4569.75	3688.85
944.7585	2150.8853	4554.75	3674.05
944.8938	2152.4005	4544.5	3663.25
945.029	2153.9149	4526.2	3646.7
945.1642	2155.4287	4511.45	3633.15
945.2994	2156.9417	4517.75	3636.1
945.4346	2158.454	4485.65	3606.4
945.5697	2159.9655	4482.1	3604.55
945.7048	2161.4764	4475.05	3596.6
945.8399	2162.9865	4477.2	3598.7
945.9749	2164.4958	4455.1	3576.15
946.1099	2166.0045	4447.45	3568.15
946.2449	2167.5124	4436.1	3557.7
946.3799	2169.0195	4426.85	3548.45
946.5148	2170.526	4414.25	3532.15
946.6498	2172.0317	4398.3	3518.45
946.7846	2173.5367	4390.2	3509.6
946.9195	2175.0409	4395.05	3518.15
947.0543	2176.5445	4394.05	3516.6
947.1891	2178.0473	4358.75	3478.05
947.3239	2179.5494	4341.85	3458.7
947.4587	2181.0507	4330.2	3451
947.5934	2182.5513	4317	3438.5
947.7281	2184.0512	4320.8	3439.5
947.8628	2185.5504	4299.2	3420.25
947.9974	2187.0488	4297.8	3419.7
948.132	2188.5465	4270.65	3393.75
948.2666	2190.0435	4274.95	3394.7
948.4012	2191.5397	4259	3380.55
948.5357	2193.0353	4241.8	3362.35
948.6702	2194.5301	4219	3336.35
948.8047	2196.0241	4225.05	3342.45
948.9392	2197.5175	4214.1	3331.7
949.0736	2199.0101	4180.4	3294.95
949.208	2200.502	4168.6	3289.9
949.3424	2201.9931	4162.8	3284.45
949.4767	2203.4835	4171.15	3292.15
949.611	2204.9733	4151.45	3266.8
949.7453	2206.4622	4138.75	3264.1
949.8796	2207.9505	4117.1	3237.6
950.0138	2209.438	4112.25	3239.85
950.148	2210.9248	4094.4	3215.65
950.2822	2212.4109	4097.75	3220.8
950.4164	2213.8962	4079.75	3195.55
950.5505	2215.3809	4064.6	3179.4
950.6846	2216.8648	4073.4	3189.9
950.8186	2218.3479	4047	3159.25
950.9527	2219.8304	4056.55	3170.4
951.0867	2221.3121	4025.55	3140.75
951.2207	2222.7931	4018.05	3135.3
951.3546	2224.2733	4009.4	3127.35
951.4886	2225.7529	4004.5	3123.05
951.6225	2227.2317	3992.25	3110
951.7563	2228.7098	3969.85	3091.95
951.8902	2230.1872	3953.6	3075.5
952.024	2231.6638	3954	3077.15
952.1578	2233.1397	3935.65	3054.55
952.2916	2234.6149	3934.95	3057.6
952.4253	2236.0894	3906.8	3027.05
952.559	2237.5632	3913.8	3025.1
952.6927	2239.0362	3891.45	3012.5
952.8263	2240.5085	3882.85	3003
952.9599	2241.9801	3866.35	2984.8
953.0935	2243.4509	3862.9	2983.45
953.2271	2244.921	3850.85	2967.35
953.3606	2246.3904	3844.7	2959.85
953.4941	2247.8591	3837.45	2955.65
953.6276	2249.3271	3817.6	2936.5
953.7611	2250.7943	3818.25	2935.6
953.8945	2252.2608	3804.05	2920.95
954.0279	2253.7266	3807.25	2928.15
954.1612	2255.1917	3777.35	2897.5
954.2946	2256.656	3773.15	2891.35
954.4279	2258.1197	3744.7	2865.3
954.5612	2259.5826	3756.55	2879
954.6944	2261.0447	3745.7	2867.6
954.8276	2262.5062	3747.65	2863.35
954.9608	2263.9669	3733.5	2852.15
955.094	2265.4269	3708.65	2828
955.2271	2266.8862	3716.25	2837.75
955.3602	2268.3448	3717.3	2838.1
955.4933	2269.8026	3699.95	2820.75
955.6264	2271.2598	3684	2805.65
955.7594	2272.7162	3674.85	2797.2
955.8924	2274.1719	3666.45	2784.9
956.0253	2275.6268	3654.55	2772.75
956.1583	2277.0811	3654.2	2771.4
956.2912	2278.5346	3654.25	2774.35
956.4241	2279.9874	3649.2	2768.95
956.5569	2281.4395	3639.3	2763.15
956.6897	2282.8908	3621.75	2737.05
956.8225	2284.3414	3619.8	2738.1
956.9553	2285.7914	3600.2	2723.1
957.088	2287.2406	3606.8	2723.55
957.2207	2288.689	3600.1	2719.65
957.3534	2290.1368	3599.4	2712.85
957.486	2291.5838	3575.3	2688.45
957.6186	2293.0302	3575.65	2689.55
957.7512	2294.4758	3570.5	2687.35
957.8838	2295.9206	3558.75	2675.65
958.0163	2297.3648	3537.25	2658.1
958.1488	2298.8082	3528.95	2646.8
958.2813	2300.251	3513.95	2633
958.4137	2301.693	3507.4	2622
958.5461	2303.1343	3514.8	2634
958.6785	2304.5748	3500	2619.55
958.8108	2306.0147	3492.55	2613.2
958.9432	2307.4538	3491.5	2611.45
959.0754	2308.8922	3489.45	2614.5
959.2077	2310.3299	3462.15	2580.75
959.3399	2311.7669	3466.7	2589.1
959.4721	2313.2031	3457.6	2577.45
959.6043	2314.6387	3442.05	2560.4
959.7365	2316.0735	3436.4	2557.5
959.8686	2317.5076	3420.95	2539.85
960.0006	2318.941	3418.95	2538.1
960.1327	2320.3737	3411.95	2528.55
960.2647	2321.8056	3400.3	2516.9
960.3967	2323.2369	3395.55	2513.95
960.5287	2324.6674	3389.55	2507.05
960.6606	2326.0972	3382.55	2499.75
960.7925	2327.5263	3360.9	2479.55
960.9244	2328.9547	3353.65	2473.8
961.0562	2330.3823	3348.15	2465.25
961.1881	2331.8092	3371.15	2484.25
961.3198	2333.2355	3334.8	2452.05
961.4516	2334.661	3345.6	2462.7
961.5833	2336.0858	3323.7	2441.7
961.715	2337.5098	3330.5	2448.55
961.8467	2338.9332	3318.75	2436.35
961.9783	2340.3558	3313.45	2429.5
962.1099	2341.7778	3300.95	2419.6
962.2415	2343.199	3282.35	2399.55
962.373	2344.6195	3283.5	2402.85
962.5045	2346.0393	3279.7	2400.5
962.636	2347.4583	3279.85	2398.75
962.7675	2348.8767	3272.2	2388.55
962.8989	2350.2943	3253.25	2370.5
963.0303	2351.7113	3259.45	2374.95
963.1617	2353.1275	3247.4	2363.1
963.293	2354.543	3249.15	2360
963.4243	2355.9578	3240	2360.85
963.5556	2357.3718	3220.15	2340.8
963.6868	2358.7852	3219.1	2338.2
963.818	2360.1978	3207.55	2326.75
963.9492	2361.6098	3202.95	2324.75
964.0803	2363.021	3198.5	2314.8
964.2114	2364.4315	3182.35	2303.8
964.3425	2365.8413	3154.8	2274.45
964.4736	2367.2504	3149.6	2270.6
964.6046	2368.6587	3140.25	2262.6
964.7356	2370.0664	3138.95	2259.8
964.8666	2371.4733	3136.6	2256
964.9975	2372.8795	3128.2	2249.2
965.1284	2374.285	3115	2235.05
965.2593	2375.6899	3106.45	2230.55
965.3901	2377.0939	3096.4	2216.8
965.5209	2378.4973	3080.8	2203.2
965.6517	2379.9	3091.6	2212.85
965.7825	2381.3019	3072.6	2194.8
965.9132	2382.7032	3061.6	2183.6
966.0439	2384.1037	3061.35	2186
966.1745	2385.5035	3051.35	2174.3
966.3051	2386.9027	3040.35	2164.1
966.4357	2388.3011	3047.25	2167.15
966.5663	2389.6987	3022.1	2144.95
966.6968	2391.0957	3020.55	2144.45
966.8273	2392.492	3014.1	2138.9
966.9578	2393.8876	2991.35	2112.8
967.0882	2395.2824	2979.95	2102.9
967.2186	2396.6765	2976.7	2101.2
967.349	2398.07	2974.4	2097.6
967.4793	2399.4627	2964.7	2084.5
967.6097	2400.8547	2969.5	2089.9
967.7399	2402.246	2962.95	2078.85
967.8702	2403.6366	2945.5	2067.85
968.0004	2405.0265	2929.85	2054
968.1306	2406.4156	2928	2047.4
968.2607	2407.8041	2921.45	2040.2
968.3909	2409.1918	2912	2032.35
968.521	2410.5789	2909.85	2031.25
968.651	2411.9652	2905.4	2025.2
968.781	2413.3508	2902.8	2026.1
968.911	2414.7358	2888.7	2009.3
969.041	2416.12	2881.55	2004.75
969.1709	2417.5035	2869.3	1992.25
969.3008	2418.8863	2858.65	1981.2
969.4307	2420.2684	2865.95	1987.9
969.5606	2421.6497	2852.4	1973.15
969.6904	2423.0304	2849.15	1971.8
969.8201	2424.4104	2857.35	1978.25
969.9499	2425.7896	2834.55	1954.35
970.0796	2427.1682	2816.65	1939.9
970.2093	2428.546	2819.2	1940.55
970.3389	2429.9232	2802.4	1921.05
970.4685	2431.2996	2801.1	1923.2
970.5981	2432.6753	2801.55	1922.45
970.7277	2434.0503	2790.65	1911.7
970.8572	2435.4246	2776.65	1899.15
970.9867	2436.7982	2777.8	1896.95
971.1161	2438.1711	2766.45	1890
971.2456	2439.5433	2767.75	1888.75
971.375	2440.9148	2767.15	1883.35
971.5043	2442.2856	2751.65	1874.95
971.6336	2443.6557	2752.9	1873.25
971.7629	2445.025	2737.25	1857.2
971.8922	2446.3937	2734.1	1853.65
972.0214	2447.7617	2725.85	1846.05
972.1506	2449.1289	2733.05	1856.3
972.2798	2450.4955	2716.65	1835.65
972.4089	2451.8613	2701.5	1823.65
972.538	2453.2265	2701.1	1822.85
972.6671	2454.5909	2704.6	1825.55
972.7961	2455.9546	2701.85	1823.55
972.9251	2457.3177	2683.95	1806.05
973.0541	2458.68	2677.45	1797.05
973.1831	2460.0416	2682.25	1804.1
973.312	2461.4025	2684.35	1805.45
973.4408	2462.7627	2680.5	1789.95
973.5697	2464.1222	2663.45	1787.75
973.6985	2465.4811	2661.9	1779.15
973.8273	2466.8392	2664.55	1786.8
973.956	2468.1966	2659.15	1776.8
974.0847	2469.5533	2659.95	1781.7
974.2134	2470.9093	2655.55	1776.2
974.3421	2472.2645	2643.25	1763.25
974.4707	2473.6191	2641.2	1763.4
974.5993	2474.973	2620.65	1742.95
974.7278	2476.3262	2629.05	1749.1
974.8563	2477.6787	2617.1	1739.9
974.9848	2479.0305	2607.05	1727.2
975.1132	2480.3816	2610.75	1729.6
975.2417	2481.7319	2601.25	1722.25
975.37	2483.0816	2583.3	1704.95
975.4984	2484.4306	2590.45	1711.5
975.6267	2485.7789	2574.2	1696.25
975.755	2487.1264	2572.8	1691.05
975.8833	2488.4733	2569.3	1691.65
976.0115	2489.8195	2560.2	1674.5
976.1397	2491.165	2550.1	1668.25
976.2678	2492.5097	2540.5	1661.05
976.3959	2493.8538	2523.05	1645.05
976.524	2495.1972	2529.9	1651.75
976.6521	2496.5398	2514.75	1634
976.7801	2497.8818	2511	1630.7
976.9081	2499.2231	2516.55	1636.55
977.036	2500.5637	2508.45	1627.85
977.164	2501.9035	2495.65	1613.3
977.2918	2503.2427	2506.55	1623.75
977.4197	2504.5812	2493.25	1615.45
977.5475	2505.919	2481.9	1602.7
977.6753	2507.256	2485.8	1607.15
977.8031	2508.5924	2473.9	1593.15
977.9308	2509.9281	2469.4	1584.5
978.0585	2511.2631	2456.8	1578.75
978.1861	2512.5974	2446.35	1568.85
978.3137	2513.9309	2453.25	1573
978.4413	2515.2638	2470.2	1561.05
978.5689	2516.596	2444.45	1565.9
978.6964	2517.9275	2424.7	1541.55
978.8239	2519.2583	2430.75	1551.3
978.9513	2520.5884	2427.55	1543.7
979.0788	2521.9178	2409.75	1531.65
979.2062	2523.2465	2413.35	1535.75
979.3335	2524.5745	2414.25	1536.7
979.4608	2525.9018	2395.1	1515.85
979.5881	2527.2284	2399.9	1524.25
979.7154	2528.5543	2383.85	1505.55
979.8426	2529.8796	2391.05	1512.65
979.9698	2531.2041	2388.6	1508.85
980.0969	2532.5279	2369.35	1491.65
980.224	2533.851	2372.15	1492.95
980.3511	2535.1735	2383.1	1505.8
980.4781	2536.4952	2364.9	1486.4
980.6052	2537.8163	2370.3	1488.9
980.7321	2539.1366	2360.35	1482.55
980.8591	2540.4562	2361.5	1481.45
980.986	2541.7752	2356.95	1476.5
981.1129	2543.0935	2346.75	1467.3
981.2397	2544.411	2350.9	1469.25
981.3665	2545.7279	2343.55	1464
981.4933	2547.0441	2346.85	1467.3
981.62	2548.3596	2338.6	1455.35
981.7467	2549.6744	2335.45	1454.65
981.8734	2550.9885	2340.25	1454
982.0001	2552.3019	2315.55	1437.65
982.1267	2553.6146	2319.4	1440.8
982.2532	2554.9266	2312.35	1431.85
982.3798	2556.2379	2307	1425.3
982.5063	2557.5485	2305.2	1425.55
982.6327	2558.8585	2307.7	1421.6
982.7592	2560.1677	2306.5	1424.4
982.8856	2561.4762	2298.6	1416.15
983.0119	2562.7841	2304.4	1419.95
983.1383	2564.0913	2282.05	1401.75
983.2646	2565.3977	2279.7	1399
983.3908	2566.7035	2288.8	1408.55
983.517	2568.0086	2290.15	1410.4
983.6432	2569.313	2273.85	1393.2
983.7694	2570.6167	2263.5	1379.1
983.8955	2571.9197	2266.7	1386.45
984.0216	2573.222	2269.8	1387.25
984.1476	2574.5236	2262.65	1382
984.2737	2575.8246	2259.1	1377.7
984.3996	2577.1248	2266.4	1382.6
984.5256	2578.4244	2247.8	1367.25
984.6515	2579.7232	2270.05	1389.9
984.7774	2581.0214	2277.75	1367.5
984.9032	2582.3189	2250	1369.25
985.029	2583.6157	2263.35	1380.65
985.1548	2584.9118	2248.5	1367.4
985.2806	2586.2072	2251.25	1372.25
985.4063	2587.5019	2229.5	1351.05
985.5319	2588.7959	2241.3	1361.6
985.6576	2590.0893	2241.85	1361.1
985.7832	2591.3819	2242.5	1364.1
985.9087	2592.6739	2236.15	1358.2
986.0343	2593.9652	2236.35	1353.05
986.1597	2595.2557	2229.9	1351.7
986.2852	2596.5456	2225.65	1344
986.4106	2597.8348	2222.5	1344.8
986.536	2599.1234	2207.6	1329.4
986.6614	2600.4112	2208.1	1329.75
986.7867	2601.6983	2207.9	1323.6
986.912	2602.9848	2207.75	1326.8
987.0372	2604.2705	2207.9	1321.2
987.1624	2605.5556	2197.15	1317.45
987.2876	2606.84	2197.9	1319.95
987.4128	2608.1237	2185.7	1304.65
987.5379	2609.4067	2181.85	1302.2
987.6629	2610.689	2192.7	1302
987.788	2611.9707	2183	1302.25
987.913	2613.2516	2175.2	1291.25
988.0379	2614.5319	2158.55	1278.95
988.1629	2615.8115	2156.35	1276
988.2878	2617.0903	2157.9	1277.25
988.4126	2618.3685	2155.15	1273.1
988.5375	2619.6461	2153.3	1274.45
988.6622	2620.9229	2135.75	1254.1
988.787	2622.199	2145.45	1267.7
988.9117	2623.4745	2135.65	1254.45
989.0364	2624.7493	2129.6	1250.4
989.161	2626.0234	2132.3	1254.15
989.2857	2627.2968	2130.55	1250.5
989.4102	2628.5695	2121.25	1240.55
989.5348	2629.8415	2121.45	1241.65
989.6593	2631.1128	2117.55	1234.8
989.7837	2632.3835	2112.75	1234.25
989.9082	2633.6535	2105.4	1226.45
990.0326	2634.9228	2098.1	1221.2
990.1569	2636.1914	2098.25	1218.5
990.2812	2637.4593	2092.8	1211.85
990.4055	2638.7265	2087.55	1207.75
990.5298	2639.9931	2096.35	1216.6
990.654	2641.259	2092.3	1210.5
990.7782	2642.5242	2080.2	1201.45
990.9023	2643.7887	2072.8	1194.6
991.0264	2645.0525	2073.1	1193.15
991.1505	2646.3156	2059.9	1179.45
991.2745	2647.5781	2063.45	1183.8
991.3985	2648.8398	2053.6	1176.5
991.5225	2650.1009	2057.7	1168.3
991.6464	2651.3613	2048	1168
991.7703	2652.6211	2043.05	1162.3
991.8942	2653.8801	2051	1170.95
992.018	2655.1385	2038.1	1157.5
992.1418	2656.3961	2042.1	1162.9
992.2655	2657.6531	2040.55	1160.55
992.3892	2658.9094	2036.7	1158.5
992.5129	2660.1651	2040.7	1161.55
992.6366	2661.42	2033.55	1154.8
992.7602	2662.6743	2040.1	1160.5
992.8837	2663.9279	2041.95	1163.5
993.0073	2665.1808	2026.05	1146.85
993.1307	2666.433	2030.45	1150.6
993.2542	2667.6846	2032.75	1157.6
993.3776	2668.9354	2028.05	1143.2
993.501	2670.1856	2033.45	1151.85
993.6244	2671.4351	2017.6	1136.6
993.7477	2672.6839	2028.85	1148.4
993.8709	2673.9321	2020.9	1142.8
993.9942	2675.1795	2022.15	1141.75
994.1174	2676.4263	2009.25	1130.2
994.2405	2677.6724	2030.9	1152.55
994.3637	2678.9179	2018.85	1140.05
994.4868	2680.1626	2024.05	1144.75
994.6098	2681.4067	2024	1143.85
994.7328	2682.6501	2008.55	1129.45
994.8558	2683.8928	2011.3	1132.15
994.9788	2685.1348	2004.1	1126.1
995.1017	2686.3761	2001.3	1122
995.2245	2687.6168	1997.35	1118.55
995.3474	2688.8568	1994.85	1114.1
995.4702	2690.0961	1976.75	1098.2
995.5929	2691.3348	1988.45	1108.65
995.7156	2692.5727	1980.4	1099.9
995.8383	2693.81	1974.55	1096.65
995.961	2695.0466	1969.6	1090.45
996.0836	2696.2826	1974.95	1096.75
996.2062	2697.5178	1970.65	1086.05
996.3287	2698.7524	1957.1	1078.95
996.4512	2699.9863	1959.3	1078.4
996.5737	2701.2195	1960.6	1081
996.6961	2702.452	1968.4	1087
996.8185	2703.6839	1966.85	1085.2
996.9408	2704.9151	1952.7	1074.05
997.0631	2706.1456	1968.4	1091.25
997.1854	2707.3755	1968.75	1086.9
997.3077	2708.6046	1968.35	1086.7
997.4299	2709.8331	1975.25	1094.1
997.552	2711.0609	1980.5	1099.35
997.6742	2712.2881	1991.75	1111.95
997.7963	2713.5145	2001	1119.7
997.9183	2714.7403	2002	1122.2
998.0403	2715.9654	2011.5	1132.45
998.1623	2717.1899	2033.45	1139.7
998.2842	2718.4136	2027.3	1150.65
998.4062	2719.6367	2039.4	1160.55
998.528	2720.8591	2049.95	1164.25
998.6498	2722.0809	2046.75	1166.2
998.7716	2723.3019	2066.5	1183.95
998.8934	2724.5223	2078.5	1197.3
999.0151	2725.7421	2065.6	1181.9
999.1368	2726.9611	2076.65	1196.25
999.2584	2728.1795	2074	1190.8
999.38	2729.3972	2059.25	1179.15
999.5016	2730.6142	2051.65	1163.5
999.6231	2731.8306	2019.55	1139.4
999.7446	2733.0462	2017	1135.4
999.8661	2734.2612	1988.05	1104.5
999.9875	2735.4756	1973.65	1095.2
1000.1089	2736.6892	1953.5	1073.8
1000.2302	2737.9022	1930.5	1054.25
1000.3515	2739.1145	1916.15	1036.4
1000.4728	2740.3262	1916.4	1029.8
1000.594	2741.5372	1896.15	1018.8
1000.7152	2742.7475	1877.95	998.85
1000.8363	2743.9571	1873.45	994.05
1000.9575	2745.1661	1866.05	982.35
1001.0785	2746.3744	1854.8	978
1001.1996	2747.582	1838.55	960.75
1001.3206	2748.7889	1825.85	945.7
1001.4415	2749.9952	1812.5	934.1
1001.5625	2751.2008	1810.2	931.65
1001.6833	2752.4057	1815.1	934.25
1001.8042	2753.61	1796.15	915.35
1001.925	2754.8136	1803.75	922.05
1002.0458	2756.0165	1791.2	913.85
1002.1665	2757.2188	1796.95	919.8
1002.2872	2758.4204	1788.05	911.6
1002.4078	2759.6213	1786.85	907.35
1002.5285	2760.8215	1784.5	902.2
1002.649	2762.0211	1784.8	904.45
1002.7696	2763.22	1786.7	902.85
1002.8901	2764.4182	1776.6	897.55
1003.0106	2765.6158	1770.35	890.3
1003.131	2766.8127	1773.5	893.7
1003.2514	2768.009	1758.25	878.8
1003.3717	2769.2045	1756.55	876.75
1003.492	2770.3994	1762.8	882.35
1003.6123	2771.5936	1751.4	872.3
1003.7325	2772.7872	1747.55	869.05
1003.8527	2773.9801	1737.35	858.7
1003.9729	2775.1723	1746.9	853.05
1004.093	2776.3639	1730.1	853.4
1004.2131	2777.5548	1733.1	853.35
1004.3331	2778.745	1730.4	849.6
1004.4531	2779.9346	1741.7	864.55
1004.5731	2781.1235	1752.9	876
1004.693	2782.3117	1743.1	866.55
1004.8129	2783.4992	1737.45	858.95
1004.9328	2784.6861	1744.7	867.05
1005.0526	2785.8723	1744.2	864.1
1005.1723	2787.0579	1751.45	873.75
1005.2921	2788.2428	1757.1	878.95
1005.4118	2789.427	1756.1	880.7
1005.5314	2790.6106	1768.65	891.2
1005.651	2791.7935	1778.25	899.35
1005.7706	2792.9757	1790.75	913.2
1005.8902	2794.1573	1794.05	915.15
1006.0097	2795.3382	1806.05	928.2
1006.1291	2796.5184	1817.1	940.7
1006.2485	2797.698	1814.65	937.05
1006.3679	2798.8769	1842.3	963.3
1006.4873	2800.0551	1864.1	985.9
1006.6066	2801.2327	1872.5	992.2
1006.7258	2802.4096	1881.85	1003.2
1006.8451	2803.5859	1900.15	1021.25
1006.9642	2804.7615	1924.2	1047.5
1007.0834	2805.9364	1952.95	1073.55
1007.2025	2807.1106	1966.7	1090.55
1007.3216	2808.2842	2006.45	1129.25
1007.4406	2809.4572	2033.65	1159.3
1007.5596	2810.6294	2066.35	1188.25
1007.6785	2811.801	2096.7	1218.9
1007.7975	2812.972	2137.15	1259.85
1007.9163	2814.1423	2175.6	1296.75
1008.0352	2815.3119	2226.2	1349.8
1008.154	2816.4808	2267.9	1394.2
1008.2727	2817.6491	2320.3	1442.6
1008.3914	2818.8167	2356.15	1480.65
1008.5101	2819.9837	2417.6	1535.4
1008.6288	2821.15	2460.45	1582.15
1008.7474	2822.3157	2495.65	1620.75
1008.8659	2823.4807	2558.7	1678.65
1008.9844	2824.645	2589	1708.95
1009.1029	2825.8086	2631.5	1755.55
1009.2214	2826.9716	2672.9	1797.65
1009.3398	2828.134	2725.55	1848.6
1009.4581	2829.2957	2759.35	1880.75
1009.5764	2830.4567	2777.4	1901.2
1009.6947	2831.617	2802.6	1923.85
1009.813	2832.7767	2827.8	1951.6
1009.9312	2833.9358	2815.2	1940
1010.0493	2835.0941	2809.3	1930.2
1010.1675	2836.2519	2790.2	1911.7
1010.2855	2837.4089	2785.85	1906.35
1010.4036	2838.5653	2769.7	1892.3
1010.5216	2839.7211	2776.75	1900.5
1010.6396	2840.8761	2787.9	1907.5
1010.7575	2842.0306	2795.65	1917.4
1010.8754	2843.1843	2842.1	1964.75
1010.9932	2844.3374	2884.3	2006.5
1011.111	2845.4899	2936.8	2059.85
1011.2288	2846.6417	3018.75	2139.95
1011.3465	2847.7928	3071.2	2193.7
1011.4642	2848.9433	3146.4	2271.25
1011.5818	2850.0931	3228.7	2351.3
1011.6995	2851.2422	3304.95	2426.95
1011.817	2852.3907	3375.3	2497
1011.9345	2853.5385	3434.35	2554.05
1012.052	2854.6857	3505	2599.8
1012.1695	2855.8323	3537.85	2662.3
1012.2869	2856.9781	3592.25	2713.95
1012.4042	2858.1233	3638.7	2762.6
1012.5216	2859.2679	3677.5	2800.95
1012.6389	2860.4118	3723.1	2843.15
1012.7561	2861.555	3772.3	2890.65
1012.8733	2862.6976	3805.8	2927.9
1012.9905	2863.8395	3825.65	2950.35
1013.1076	2864.9808	3840.6	2963.6
1013.2247	2866.1214	3850.9	2975.45
1013.3417	2867.2614	3864.8	2985.35
1013.4587	2868.4007	3886.55	3008.85
1013.5757	2869.5393	3896.05	3015.75
1013.6926	2870.6773	3905.7	3024.3
1013.8095	2871.8146	3918.4	3036.65
1013.9263	2872.9513	3907.35	3028.1
1014.0431	2874.0874	3925.25	3048.3
1014.1599	2875.2227	3901.75	3024.1
1014.2766	2876.3574	3878.75	3001.2
1014.3933	2877.4915	3853.05	2974.55
1014.51	2878.6249	3828.75	2954
1014.6266	2879.7577	3792.55	2914.65
1014.7431	2880.8898	3795.45	2909.95
1014.8596	2882.0212	3769.9	2894.1
1014.9761	2883.152	3770	2894.35
1015.0925	2884.2821	3734.9	2857.5
1015.2089	2885.4116	3754.1	2878
1015.3253	2886.5405	3745.9	2868.75
1015.4416	2887.6686	3746.8	2865.55
1015.5579	2888.7962	3736.2	2860.1
1015.6741	2889.923	3755.15	2879.55
1015.7903	2891.0493	3771.95	2896.95
1015.9065	2892.1748	3764.1	2889.6
1016.0226	2893.2997	3772.7	2896.1
1016.1387	2894.424	3801.3	2925.55
1016.2547	2895.5476	3813.65	2937.9
1016.3707	2896.6706	3847.6	2971.8
1016.4866	2897.7929	3863.6	2987.35
1016.6025	2898.9145	3891.7	3015.9
1016.7184	2900.0355	3922.3	3042.6
1016.8342	2901.1559	3954.65	3076.85
1016.95	2902.2756	3988.75	3112.1
1017.0658	2903.3946	4014.75	3138.45
1017.1815	2904.513	4053.8	3174.5
1017.2971	2905.6308	4061.75	3185.1
1017.4127	2906.7479	4094.7	3216.8
1017.5283	2907.8643	4117.05	3238.9
1017.6439	2908.9801	4133.4	3256.5
1017.7594	2910.0953	4137.3	3263.5
1017.8748	2911.2098	4137.15	3257.2
1017.9902	2912.3236	4122.35	3237.7
1018.1056	2913.4368	4113.55	3235.6
1018.2209	2914.5494	4090.4	3213.65
1018.3362	2915.6613	4082.95	3202.95
1018.4515	2916.7725	4042.15	3161.5
1018.5667	2917.8831	4011.25	3134.35
1018.6819	2918.9931	3983.6	3104.7
1018.797	2920.1024	3949.8	3073.65
1018.9121	2921.211	3926.35	3048.75
1019.0271	2922.319	3910.35	3033.4
1019.1421	2923.4264	3893.4	3017.95
1019.2571	2924.5331	3865.7	2993.2
1019.372	2925.6391	3851.55	2975.45
1019.4869	2926.7445	3835.5	2960.4
1019.6017	2927.8493	3840.7	2964.95
1019.7165	2928.9534	3836.05	2959.65
1019.8313	2930.0569	3833.25	2953.5
1019.946	2931.1597	3827.9	2951.3
1020.0606	2932.2619	3835.95	2958.8
1020.1753	2933.3634	3812.9	2937.55
1020.2899	2934.4643	3808.9	2926.05
1020.4044	2935.5645	3784.9	2903.4
1020.5189	2936.6641	3751.7	2870.75
1020.6334	2937.763	3700.85	2827.4
1020.7478	2938.8613	3669.1	2790.45
1020.8622	2939.959	3620.3	2738.75
1020.9765	2941.056	3519.85	2645.3
1021.0908	2942.1523	3448.65	2570.4
1021.2051	2943.248	3361.85	2484.7
1021.3193	2944.3431	3265.5	2389.65
1021.4334	2945.4375	3157.65	2280.95
1021.5476	2946.5313	3057.65	2184.65
1021.6617	2947.6244	2960.95	2083.3
1021.7757	2948.7169	2866.15	1989.7
1021.8897	2949.8087	2765.75	1891.3
1022.0037	2950.8999	2673.25	1795.3
1022.1176	2951.9904	2596.7	1721.95
1022.2315	2953.0803	2530.45	1652.9
1022.3453	2954.1696	2464.9	1590.25
1022.4591	2955.2582	2411.1	1535.2
1022.5728	2956.3462	2360.85	1483.35
1022.6865	2957.4335	2329.65	1453.65
1022.8002	2958.5202	2285.2	1407.15
1022.9138	2959.6062	2268.3	1393.55
1023.0274	2960.6916	2234.8	1357.7
1023.141	2961.7764	2220.85	1343.4
1023.2545	2962.8605	2202.85	1325.15
1023.3679	2963.9439	2194.65	1320.8
1023.4813	2965.0267	2179.1	1300.8
1023.5947	2966.1089	2179.6	1282.05
1023.708	2967.1905	2159.75	1284.55
1023.8213	2968.2714	2159.7	1283.35
1023.9346	2969.3516	2155.45	1279.9
1024.0478	2970.4312	2166.8	1282.9
1024.1609	2971.5102	2155.25	1282.55
1024.274	2972.5885	2155.6	1279.25
1024.3871	2973.6662	2172.35	1294.65
1024.5002	2974.7432	2148.05	1273.7
1024.6132	2975.8196	2141.6	1266.6
1024.7261	2976.8954	2131	1256.1
1024.839	2977.9705	2126.9	1252.7
1024.9519	2979.045	2107.45	1231.8
1025.0647	2980.1188	2074.95	1200.8
1025.1775	2981.192	2067.2	1192.4
1025.2902	2982.2645	2039.85	1163.65
1025.4029	2983.3364	2025.5	1150.8
1025.5156	2984.4077	1990.05	1114.85
1025.6282	2985.4783	1968.95	1089.8
1025.7407	2986.5483	1937.9	1062.75
1025.8532	2987.6177	1890	1017.1
1025.9657	2988.6864	1865.1	991.8
1026.0782	2989.7545	1830.3	954.4
1026.1906	2990.8219	1791.9	918.65
1026.3029	2991.8887	1763.4	888.05
1026.4152	2992.9548	1733.9	857.45
1026.5275	2994.0204	1704.35	830.65
1026.6397	2995.0852	1680.8	804.85
1026.7519	2996.1495	1646.45	770.15
1026.864	2997.2131	1620.15	743.85
1026.9761	2998.276	1598.55	722.75
1027.0882	2999.3383	1582.7	705.95
1027.2002	3000.4	1558.65	680.4
1027.3122	3001.4611	1540.45	667.7
1027.4241	3002.5215	1535.3	661
1027.536	3003.5812	1512.9	638.85
1027.6478	3004.6404	1503	628.1
1027.7596	3005.6989	1492.95	614.9
1027.8714	3006.7567	1484.3	608.65
1027.9831	3007.8139	1505.65	599.8
1028.0947	3008.8705	1470.3	594.15
1028.2064	3009.9264	1461.6	581.8
1028.3179	3010.9818	1469.55	595.75
1028.4295	3012.0364	1455.8	580.2
1028.541	3013.0905	1441.65	567.3
1028.6524	3014.1439	1448.85	574.3
1028.7638	3015.1966	1438.9	565.75
1028.8752	3016.2487	1435.4	561.8
1028.9865	3017.3002	1443.2	562.55
1029.0978	3018.3511	1434.95	560.5
1029.209	3019.4013	1429.1	551.85
1029.3202	3020.4509	1430.8	556.55
1029.4314	3021.4998	1439.8	563.65
1029.5425	3022.5481	1435.8	561.45
1029.6535	3023.5958	1435	559.1
1029.7645	3024.6428	1431.35	556.95
1029.8755	3025.6892	1432.85	557.7
1029.9864	3026.735	1434.8	559.75
1030.0973	3027.7802	1432.2	557.25
1030.2082	3028.8247	1435.05	559.85
1030.319	3029.8685	1441.1	566.6
1030.4297	3030.9118	1440.25	562.6
1030.5404	3031.9544	1441.1	566.9
1030.6511	3032.9963	1444.3	569.85
1030.7617	3034.0376	1453.5	581.6
1030.8723	3035.0783	1461.3	583.85
1030.9829	3036.1184	1461.45	584.95
1031.0934	3037.1578	1459.05	584.95
1031.2038	3038.1966	1450.45	575.95
1031.3142	3039.2348	1463.35	590.8
1031.4246	3040.2723	1470.75	587.05
1031.5349	3041.3092	1457.85	581.65
1031.6452	3042.3455	1454.7	581.15
1031.7554	3043.3811	1449.6	574.65
1031.8656	3044.4161	1451.7	576.65
1031.9758	3045.4505	1440.8	566.1
1032.0859	3046.4842	1437.6	562.6
1032.1959	3047.5173	1431.4	557.25
1032.3059	3048.5498	1427.8	554.1
1032.4159	3049.5816	1430.35	556.5
1032.5258	3050.6128	1415.45	541.25
1032.6357	3051.6434	1414.4	538.95
1032.7455	3052.6734	1401.05	524.45
1032.8553	3053.7027	1398.2	521.15
1032.9651	3054.7314	1390.45	515.65
1033.0748	3055.7594	1382.2	506.5
1033.1845	3056.7868	1381.5	504.55
1033.2941	3057.8136	1374.45	500.6
1033.4037	3058.8398	1363.7	490.65
1033.5132	3059.8653	1359.55	485.35
1033.6227	3060.8902	1354.45	480
1033.7321	3061.9145	1350.6	477.25
1033.8415	3062.9381	1342.2	467.5
1033.9509	3063.9612	1355.5	466.2
1034.0602	3064.9835	1330.65	456.85
1034.1694	3066.0053	1328.45	449.8
1034.2787	3067.0264	1322.25	448.9
1034.3878	3068.0469	1318.05	441.45
1034.497	3069.0668	1311.85	434.25
1034.6061	3070.086	1295.95	425.05
1034.7151	3071.1046	1291.75	417.6
1034.8241	3072.1226	1283.35	407.8
1034.9331	3073.1399	1272.85	397.9
1035.042	3074.1567	1266.6	391.3
1035.1508	3075.1727	1260.1	382.3
1035.2597	3076.1882	1246.6	371.15
1035.3684	3077.203	1243.15	369.6
1035.4772	3078.2173	1231.85	352.65
1035.5859	3079.2308	1229	351.6
1035.6945	3080.2438	1218	341.25
1035.8031	3081.2561	1211.45	337.45
1035.9117	3082.2678	1199.95	324.9
1036.0202	3083.2789	1194.8	320.45
1036.1286	3084.2893	1187.75	315
1036.2371	3085.2991	1187.2	312.25
1036.3454	3086.3083	1183.45	307.95
1036.4538	3087.3169	1177.65	302.95
1036.562	3088.3248	1168.55	292.1
1036.6703	3089.3321	1157.15	281.55
1036.7785	3090.3388	1153.2	280.2
1036.8866	3091.3449	1150.95	278.9
1036.9948	3092.3503	1147.55	270.75
1037.1028	3093.3551	1145.35	272.2
1037.2108	3094.3593	1144.9	272.9
1037.3188	3095.3629	1140.5	267.15
1037.4267	3096.3658	1139.05	262.9
1037.5346	3097.3681	1132.55	259.15
1037.6425	3098.3698	1131.45	255.1
1037.7503	3099.3708	1131.85	251.6
1037.858	3100.3713	1124.15	249.7
1037.9657	3101.3711	1121.45	247.6
1038.0734	3102.3702	1258.35	246.25
1038.181	3103.3688	1119.3	244.95
1038.2886	3104.3667	1115.3	241.4
1038.3961	3105.364	1114.8	241.25
1038.5036	3106.3607	1112.95	238.95
1038.611	3107.3568	1104.6	230.65
1038.7184	3108.3522	1105.15	232.85
1038.8257	3109.347	1102.7	229.75
1038.933	3110.3412	1106.6	228.65
1039.0403	3111.3348	1101.85	231.45
1039.1475	3112.3277	1095.8	223.5
1039.2547	3113.32	1091.4	219.75
1039.3618	3114.3117	1092.75	219.3
1039.4689	3115.3028	1090.6	216.75
1039.5759	3116.2932	1093.05	220.95
1039.6829	3117.2831	1089.9	208.55
1039.7898	3118.2723	1083.55	211.1
1039.8967	3119.2608	1084.75	209.9
1040.0035	3120.2488	1082.4	207.4
1040.1103	3121.2361	1074.65	197.9
1040.2171	3122.2229	1078	203.6
1040.3238	3123.209	1079.35	205.25
1040.4305	3124.1944	1074.55	200.3
1040.5371	3125.1793	1075.1	201.75
1040.6437	3126.1635	1071.4	199.35
1040.7502	3127.1471	1073.2	200.25
1040.8567	3128.1301	1070.45	197.75
1040.9631	3129.1125	1069.4	196.45
1041.0695	3130.0942	1068.05	197.45
1041.1759	3131.0753	1077.95	196.65
1041.2822	3132.0558	1065.95	189.65
1041.3884	3133.0357	1069.5	193.8
1041.4946	3134.015	1061.9	185.55
1041.6008	3134.9936	1060.05	184.75
1041.7069	3135.9716	1083.95	188.95
1041.813	3136.949	1059.95	188.45
1041.919	3137.9258	1073.45	181.85
1042.025	3138.902	1061.45	185.35
1042.1309	3139.8775	1048.45	173
1042.2368	3140.8524	1052.5	177.3
1042.3427	3141.8267	1055.6	179.25
1042.4485	3142.8004	1047.8	173.9
1042.5542	3143.7735	1051.1	171.9
1042.6599	3144.7459	1049.05	174.8
1042.7656	3145.7178	1051.85	174.85
1042.8712	3146.689	1043.8	170.5
1042.9768	3147.6596	1040.65	166.55
1043.0823	3148.6295	1039.25	164.6
1043.1878	3149.5989	1037.5	163.65
1043.2932	3150.5676	1038.3	164.3
1043.3986	3151.5357	1032.35	160.65
1043.5039	3152.5032	1034.9	162.9
1043.6092	3153.4701	1035.35	162.85
1043.7145	3154.4364	1036.95	160.65
1043.8197	3155.402	1029.5	154.75
1043.9248	3156.367	1035.85	160.55
1044.03	3157.3315	1055.85	155.8
1044.135	3158.2952	1030.5	158.45
1044.24	3159.2584	1027.8	155.35
1044.345	3160.221	1029.5	154.75
1044.4499	3161.1829	1027.2	153.75
1044.5548	3162.1442	1026.3	152.65
1044.6596	3163.105	1026.15	154.6
1044.7644	3164.065	1022.3	149.05
1044.8692	3165.0245	1023.35	147.65
1044.9739	3165.9834	1022.85	150.65
1045.0785	3166.9416	1016.5	144.3
1045.1831	3167.8993	1018.55	145.1
1045.2877	3168.8563	1016.7	142.1
1045.3922	3169.8127	1018.1	145.25
1045.4966	3170.7684	1017.25	143.85
1045.6011	3171.7236	1015.85	142.45
1045.7054	3172.6782	1015.25	139.8
1045.8098	3173.6321	1012.6	137.35
1045.914	3174.5854	1016.6	140.2
1046.0183	3175.5381	1010.5	137.7
1046.1224	3176.4902	1009.85	138.1
1046.2266	3177.4417	1011.75	138.95
1046.3307	3178.3926	1005.55	132.3
1046.4347	3179.3428	1008.2	133.35
1046.5387	3180.2924	1003.5	129.4
1046.6427	3181.2415	1005.2	132.15
1046.7466	3182.1899	1004.85	129
1046.8504	3183.1377	1005.8	132.45
1046.9542	3184.0848	1005.55	127.55
1047.058	3185.0314	1000	125.65
1047.1617	3185.9773	1000.95	127.35
1047.2654	3186.9227	1002.05	128.9
1047.369	3187.8674	1004.55	131.45
1047.4726	3188.8115	1001.95	124.9
1047.5761	3189.755	998.4	125.05
1047.6796	3190.6979	999.35	124.2
1047.783	3191.6402	993.2	122.8
1047.8864	3192.5818	995.05	122.75
1047.9898	3193.5229	999.4	122.25
1048.0931	3194.4633	996.45	125.2
1048.1963	3195.4031	994.85	119.65
1048.2995	3196.3423	993.9	120.45
1048.4027	3197.2809	995.85	122.05
1048.5058	3198.2189	993.2	119.9
1048.6089	3199.1563	1006.1	118.55
1048.7119	3200.0931	990.25	118.85
1048.8148	3201.0292	989.9	118.75
1048.9178	3201.9648	992.2	118.4
1049.0206	3202.8997	989.35	112.85
1049.1235	3203.834	990.25	117.35
1049.2262	3204.7677	986.55	113.8
1049.329	3205.7008	988.85	113.5
1049.4317	3206.6333	991.1	120.5
1049.5343	3207.5652	988.75	114.2
1049.6369	3208.4964	988.8	115.6
1049.7394	3209.4271	986.65	113.1
1049.8419	3210.3571	984.5	113.6
1049.9444	3211.2865	982.9	109.85
1050.0468	3212.2154	978.75	105.5
1050.1491	3213.1436	986.25	109.95
1050.2514	3214.0712	988.25	108.45
1050.3537	3214.9982	983.5	110.6
1050.4559	3215.9246	982.2	109.1
1050.5581	3216.8503	974.8	102.55
1050.6602	3217.7755	982.55	110
1050.7623	3218.7001	980.9	108.55
1050.8643	3219.624	977.2	104.55
1050.9663	3220.5473	982.1	110.85
1051.0682	3221.4701	979.2	103.9
1051.1701	3222.3922	977	101.7
1051.2719	3223.3137	976.6	105
1051.3737	3224.2346	978.05	106.6
1051.4754	3225.1549	971.9	99.15
1051.5771	3226.0746	973.65	101.25
1051.6788	3226.9937	975.45	102.6
1051.7804	3227.9121	974.55	101.6
1051.8819	3228.83	972.05	99.9
1051.9834	3229.7473	972.4	98.4
1052.0849	3230.6639	977.3	105.65
1052.1863	3231.5799	974.8	102.25
1052.2876	3232.4954	973.25	100.2
1052.3889	3233.4102	970	98.1
1052.4902	3234.3244	969.85	97.55
1052.5914	3235.238	969.7	96.2
1052.6926	3236.151	990.7	97.25
1052.7937	3237.0634	968.35	95.8
1052.8948	3237.9752	963.5	90.15
1052.9958	3238.8864	968.35	93.95
1053.0968	3239.797	966.5	92
1053.1977	3240.7069	968.25	96.65
1053.2986	3241.6163	968.25	96.25
1053.3994	3242.5251	962.75	91.15
1053.5002	3243.4332	960.95	89.2
1053.6009	3244.3408	960.15	87.9
1053.7016	3245.2477	961	89.15
1053.8022	3246.154	961.5	87.4
1053.9028	3247.0598	963.25	86.7
1054.0034	3247.9649	964.75	92.5
1054.1039	3248.8694	961	88.35
1054.2043	3249.7733	955.05	82.05
1054.3047	3250.6766	959.8	86.25
1054.4051	3251.5793	961.1	87.05
1054.5054	3252.4814	955	83.3
1054.6056	3253.3829	956.15	81.3
1054.7058	3254.2838	952.5	80.35
1054.806	3255.1841	952	79.35
1054.9061	3256.0838	950.9	78.6
1055.0061	3256.9829	949.05	79.1
1055.1062	3257.8814	953	78.55
1055.2061	3258.7792	951.3	77.45
1055.306	3259.6765	955.45	81
1055.4059	3260.5731	951.1	79.55
1055.5057	3261.4692	951.9	81.25
1055.6055	3262.3647	948.45	75.8
1055.7052	3263.2595	947.15	74.1
1055.8049	3264.1538	945.95	75.25
1055.9045	3265.0474	945.9	72.9
1056.0041	3265.9404	940.95	70.6
1056.1036	3266.8329	939.9	67.65
1056.2031	3267.7247	952.1	69.25
1056.3025	3268.616	937.65	69.45
1056.4019	3269.5066	936.25	63.05
1056.5013	3270.3966	936.6	63.75
1056.6005	3271.286	930	59.1
