Software Version:	3.9.2.0
Unit SN:	10000200
Spectrometer SN:	6960
Date:	3/8/2024 2:04:20 PM
Data Line Index:	25
Spectral Points:	2048
Integration time (ms):	125
Averages:	20
Delay (ms):	30000
Sequence Number:	1
Processing:	dark subtract
Laser Power (mW):	305
Laser Current (mA):	823
Laser Diode Temp (C):	25.1
Laser Case Temp (C):	26.2
System Temp (C):	26.2
Spectrometer Temp (C):	24.1
CCD Temp (C):	0.01
Secondary Temp (C):	20.011
Heatsink Temp (C):	21.057
CCDPCB Temp (C):	36.174
SecondaryPCB Temp (C):	29.426

Wavelength	RamanShift	Raw Counts	Dark Subtracted
787.061	30.1047	462.25	54.7
787.2016	32.3739	461.35	56.9
787.3422	34.6426	468.5	62.3
787.4828	36.9109	474.4	65.5
787.6235	39.1787	485.35	72.6
787.7642	41.4461	491.5	75.7
787.9049	43.7131	504	84.4
788.0456	45.9796	511.8	90.15
788.1863	48.2456	520	93.85
788.3271	50.5112	528.9	97.8
788.4679	52.7764	538.55	102.75
788.6087	55.0411	555.05	116.5
788.7496	57.3054	561.7	117.2
788.8904	59.5692	573.35	127.5
789.0313	61.8326	582.55	136.15
789.1722	64.0955	593.45	139.9
789.3132	66.3579	615.2	159.1
789.4541	68.6199	636.2	176.6
789.5951	70.8815	670.4	204.65
789.7361	73.1426	754.55	285.7
789.8771	75.4032	967.55	494.85
790.0181	77.6634	1481.5	1002.9
790.1592	79.9231	2707.15	2222.45
790.3003	82.1824	5365.15	4863.05
790.4414	84.4412	10172.45	9647.95
790.5825	86.6995	16739.25	16182.2
790.7237	88.9574	23130.1	22541.1
790.8648	91.2148	27577.95	26969.85
791.006	93.4717	29626.45	29006.75
791.1472	95.7282	30103.3	29477.4
791.2885	97.9842	30091.2	29458.15
791.4297	100.2398	29585.3	28951.6
791.571	102.4949	29020.8	28383.3
791.7123	104.7495	28279.5	27639.15
791.8536	107.0036	27483.7	26840.05
791.9949	109.2573	26763.9	26123.75
792.1363	111.5105	26041.55	25400.45
792.2777	113.7632	25346.15	24701.45
792.4191	116.0154	24716.2	24061
792.5605	118.2672	24321.4	23673.8
792.7019	120.5185	23845.45	23196.95
792.8434	122.7693	23498.45	22839.9
792.9849	125.0197	23224.1	22566.65
793.1264	127.2696	22921.6	22262.4
793.2679	129.519	22783.45	22121
793.4094	131.7679	22625.15	21956.2
793.551	134.0163	22504.15	21834.35
793.6926	136.2642	22307.35	21632.4
793.8342	138.5117	22090.8	21414.1
793.9758	140.7587	21888.4	21208.4
794.1175	143.0052	21701.75	21020.1
794.2591	145.2512	21513	20830.45
794.4008	147.4967	21310.3	20628.9
794.5425	149.7417	21149.2	20467.35
794.6842	151.9863	21045.3	20359.95
794.826	154.2304	20981.7	20287.55
794.9677	156.4739	20838.25	20139.35
795.1095	158.717	20803.55	20104.1
795.2513	160.9596	20690.15	19987.45
795.3931	163.2017	20449.15	19745.45
795.535	165.4433	20141.75	19435.05
795.6768	167.6844	19815.55	19105.45
795.8187	169.925	19530.15	18818
795.9606	172.1651	19170.45	18452.95
796.1025	174.4047	18929.6	18216.5
796.2445	176.6439	18635.5	17917.3
796.3864	178.8825	18423.95	17699.25
796.5284	181.1206	18262.7	17530.15
796.6704	183.3582	18104.95	17370.4
796.8124	185.5954	18035.3	17305.75
796.9544	187.832	17970.95	17235.2
797.0965	190.0681	17933.75	17194.7
797.2386	192.3037	17953.8	17210.8
797.3806	194.5388	17943.9	17199.9
797.5228	196.7734	18009.9	17262.4
797.6649	199.0075	18096.85	17343.15
797.807	201.2411	18263.65	17509.65
797.9492	203.4742	18324.25	17577.55
798.0914	205.7068	18492.25	17736.4
798.2336	207.9389	18586.45	17829.45
798.3758	210.1704	18775.05	18021.85
798.518	212.4015	18892.5	18155.35
798.6603	214.632	19086.8	18354.2
798.8025	216.862	19275.9	18545.35
798.9448	219.0915	19462.15	18727.2
799.0871	221.3205	19678.85	18937.85
799.2294	223.549	19941.3	19207.65
799.3718	225.777	20292.75	19557.85
799.5141	228.0044	20651	19909.4
799.6565	230.2314	21139.65	20398.4
799.7989	232.4578	21524.4	20779.85
799.9413	234.6837	21914.95	21166.05
800.0837	236.909	22175.95	21418.15
800.2262	239.1339	22158.35	21373.65
800.3687	241.3582	21942.65	21173.95
800.5111	243.582	21632.4	20839.05
800.6536	245.8053	21294.2	20512.8
800.7961	248.0281	20957.6	20179.2
800.9387	250.2503	20739.25	19956.9
801.0812	252.472	20602.3	19818.6
801.2238	254.6932	20541.3	19764.55
801.3664	256.9139	20432.6	19647.55
801.509	259.134	20486.1	19696.8
801.6516	261.3536	20456.95	19671.4
801.7942	263.5727	20517.35	19727
801.9369	265.7912	20481.1	19695.3
802.0795	268.0092	20536.3	19753.35
802.2222	270.2267	20497	19710.25
802.3649	272.4436	20425.85	19640.85
802.5076	274.6601	20396.4	19595
802.6504	276.8759	20351.7	19559.75
802.7931	279.0913	20325.25	19531.25
802.9359	281.3061	20313.7	19516.75
803.0787	283.5204	20383.55	19582.45
803.2215	285.7341	20501.75	19694.25
803.3643	287.9473	20649.7	19837.85
803.5071	290.16	20904.05	20097.25
803.6499	292.3721	21253.95	20455.6
803.7928	294.5837	21644.15	20844.1
803.9357	296.7947	22008.55	21206.3
804.0786	299.0052	22242.25	21435.9
804.2215	301.2152	22068.35	21259.95
804.3644	303.4246	21767.45	20968.55
804.5074	305.6334	21242.2	20444.6
804.6503	307.8418	20760.2	19953.25
804.7933	310.0495	20330.3	19522.9
804.9363	312.2568	20031.8	19223.65
805.0793	314.4635	19806.3	18995.75
805.2223	316.6696	19746.25	18926.15
805.3653	318.8752	19700.05	18878.2
805.5084	321.0802	19752.3	18937.7
805.6514	323.2847	19886.2	19071.65
805.7945	325.4887	19954.5	19139.7
805.9376	327.692	19894.15	19076.5
806.0807	329.8949	19844.45	19021.85
806.2238	332.0972	19534.5	18713.8
806.367	334.2989	19298.85	18475.1
806.5101	336.5001	19005.4	18181.95
806.6533	338.7007	18831.75	18005.25
806.7965	340.9008	18711.4	17888.2
806.9397	343.1003	18628	17800.8
807.0829	345.2992	18577.7	17750.75
807.2261	347.4976	18543.8	17713.45
807.3693	349.6955	18563.2	17729.2
807.5126	351.8927	18667.85	17835.7
807.6559	354.0895	18637.5	17791.65
807.7991	356.2856	18721.65	17886.1
807.9424	358.4812	18696.25	17856.45
808.0857	360.6763	18749.35	17910.35
808.2291	362.8707	18753.4	17912.95
808.3724	365.0646	18802.65	17960.15
808.5158	367.258	18780.7	17939.15
808.6591	369.4508	18848.55	18002.05
808.8025	371.643	18928.65	18083.1
808.9459	373.8346	18934.6	18086.35
809.0893	376.0257	18921.15	18071.75
809.2327	378.2162	18822.5	17975.35
809.3762	380.4062	18765.55	17917.9
809.5196	382.5956	18564.4	17720.35
809.6631	384.7844	18515.4	17675.75
809.8066	386.9726	18414.7	17575.3
809.9501	389.1603	18363.05	17524.85
810.0936	391.3474	18357.15	17492.2
810.2371	393.5339	18381.05	17540.1
810.3806	395.7199	18300.2	17459.1
810.5241	397.9052	18310.8	17470.8
810.6677	400.09	18335	17493.4
810.8113	402.2743	18441.9	17599.7
810.9548	404.4579	18527.35	17685.25
811.0984	406.641	18708.9	17862.3
811.2421	408.8235	18926.95	18081.2
811.3857	411.0054	19260.05	18410.7
811.5293	413.1868	19699.05	18849.9
811.673	415.3675	20005.05	19150.65
811.8166	417.5477	20236.55	19383.95
811.9603	419.7273	20289.95	19436.85
812.104	421.9064	20173.25	19311.4
812.2477	424.0848	20019.6	19165.45
812.3914	426.2627	19831.6	18973.75
812.5351	428.4399	19574.75	18716.6
812.6788	430.6166	19214.1	18348.7
812.8226	432.7928	18860.7	17998.2
812.9663	434.9683	18541.95	17681.35
813.1101	437.1432	18336.5	17478.75
813.2539	439.3176	18185.5	17332.25
813.3977	441.4914	18055.85	17197.5
813.5415	443.6645	18067.2	17210.1
813.6853	445.8371	18015.95	17157.55
813.8291	448.0091	17918.7	17060.15
813.973	450.1806	17920.5	17063.85
814.1168	452.3514	17906.45	17047.1
814.2607	454.5216	17888	17016.05
814.4046	456.6913	17808.15	16947.5
814.5485	458.8603	17858.85	16998.75
814.6924	461.0288	17933.25	17078.15
814.8363	463.1967	17965.9	17112.2
814.9802	465.3639	18096.05	17238.65
815.1241	467.5306	18175.6	17316.8
815.2681	469.6967	18354.85	17499.45
815.412	471.8622	18528.3	17673.3
815.556	474.0271	18656.3	17797.75
815.7	476.1914	18728.9	17863.1
815.844	478.3551	18740.2	17880.45
815.988	480.5182	18728.65	17870
816.132	482.6807	18756.7	17902.45
816.276	484.8426	18854.6	18005.4
816.4201	487.0039	19157.2	18300.75
816.5641	489.1647	19552.95	18690.9
816.7082	491.3248	20006.05	19143.45
816.8522	493.4843	20190.15	19328.3
816.9963	495.6432	20215.65	19355.35
817.1404	497.8015	20101.55	19233.35
817.2845	499.9592	20131.55	19264.15
817.4286	502.1163	20110.05	19238.2
817.5727	504.2728	19882.15	19014.95
817.7168	506.4287	19594.95	18734.85
817.861	508.5839	19189.15	18329.55
818.0051	510.7386	18839.65	17973.05
818.1493	512.8927	18654.85	17780.9
818.2935	515.0461	18593.5	17722.05
818.4377	517.199	18558.25	17685.4
818.5818	519.3512	18556.25	17683.15
818.726	521.5029	18640.35	17764.15
818.8703	523.6539	18701.6	17829.25
819.0145	525.8043	18750.3	17874.05
819.1587	527.9541	18770.8	17896.35
819.303	530.1033	18762.25	17885.55
819.4472	532.2519	18832.25	17956.35
819.5915	534.3999	18952.1	18072.2
819.7357	536.5472	19262.45	18386
819.88	538.694	19747.3	18876.55
820.0243	540.8401	20355.8	19479.85
820.1686	542.9856	20832	19951.2
820.3129	545.1305	20985.8	20094.95
820.4572	547.2748	20890.35	19997.95
820.6016	549.4185	20512.35	19617.8
820.7459	551.5615	20158.7	19267.1
820.8902	553.704	20063.85	19175.3
821.0346	555.8458	20007.15	19123.15
821.1789	557.987	20036.05	19152.65
821.3233	560.1276	20011.05	19128.95
821.4677	562.2675	20046.95	19160.7
821.6121	564.4069	20050.65	19166.2
821.7565	566.5456	20062.3	19180.5
821.9009	568.6837	19994.1	19112.85
822.0453	570.8212	19733.35	18857.7
822.1897	572.958	19406.85	18522.95
822.3342	575.0942	19131.8	18252.7
822.4786	577.2299	18946.85	18069.95
822.6231	579.3648	18949.7	18081.15
822.7675	581.4992	19027	18163.35
822.912	583.6329	19229	18370.15
823.0565	585.766	19439.25	18572.8
823.201	587.8985	19598.25	18729.6
823.3454	590.0304	19612.35	18718.75
823.4899	592.1616	19555.85	18673.55
823.6345	594.2922	19500.55	18613.7
823.779	596.4222	19309.55	18418.45
823.9235	598.5515	19151.3	18259.7
824.068	600.6802	19003.05	18110.25
824.2126	602.8083	18824.45	17938.35
824.3571	604.9358	18793.45	17904.25
824.5017	607.0626	18720.15	17826.95
824.6462	609.1888	18695	17799.1
824.7908	611.3144	18676.65	17779.6
824.9354	613.4393	18580.5	17684.2
825.08	615.5636	18446.25	17554.7
825.2246	617.6873	18369.4	17476.2
825.3692	619.8103	18348.3	17453.6
825.5138	621.9327	18265.95	17375.65
825.6584	624.0544	18194.7	17305.9
825.803	626.1756	18214.65	17324.5
825.9477	628.2961	18155.95	17263.05
826.0923	630.4159	18128.45	17232.4
826.237	632.5351	18112.55	17219.4
826.3816	634.6537	18094.55	17198.65
826.5263	636.7716	18071.45	17170.45
826.6709	638.8889	18072.3	17171.5
826.8156	641.0056	18164.55	17259.1
826.9603	643.1216	18147.9	17249.3
827.105	645.237	18169.05	17273.55
827.2497	647.3518	18168.3	17279
827.3944	649.4659	18224.5	17335.6
827.5391	651.5793	18186.75	17298.55
827.6838	653.6922	18164.4	17272.25
827.8285	655.8043	18202.55	17313
827.9733	657.9159	18239.35	17345.2
828.118	660.0268	18116.65	17222.8
828.2627	662.137	18053.95	17157.6
828.4075	664.2466	18078.4	17175.2
828.5522	666.3556	18076.15	17177.2
828.697	668.4639	18070.6	17172.2
828.8418	670.5716	18133.95	17239.4
828.9865	672.6786	18213.35	17314.6
829.1313	674.785	18273.7	17373.3
829.2761	676.8907	18367.8	17469.6
829.4209	678.9958	18437.75	17541.25
829.5657	681.1002	18408.25	17508.95
829.7105	683.204	18412.85	17505.8
829.8553	685.3072	18393.7	17486.65
830.0001	687.4097	18327.35	17427.25
830.1449	689.5115	18297.1	17394.2
830.2898	691.6127	18242.65	17345.65
830.4346	693.7132	18170.55	17273.5
830.5794	695.8131	18164.3	17242.45
830.7243	697.9123	18163.95	17259.2
830.8691	700.0109	18144.45	17236.85
831.014	702.1089	18140.15	17234.65
831.1588	704.2061	18151.9	17249.6
831.3037	706.3028	18197.2	17287.75
831.4486	708.3987	18291.3	17385.4
831.5935	710.4941	18335.95	17429.85
831.7383	712.5887	18541.95	17638
831.8832	714.6827	18829.55	17923.5
832.0281	716.7761	19201.2	18296.4
832.173	718.8688	19573.3	18669.45
832.3179	720.9608	19727.2	18819.65
832.4628	723.0522	19854.2	18942.8
832.6077	725.1429	19651.4	18740.55
832.7527	727.233	19404.45	18497.9
832.8976	729.3224	19169.35	18264.1
833.0425	731.4112	18906.25	17998.95
833.1874	733.4993	18669.45	17760.6
833.3324	735.5867	18508.9	17602.85
833.4773	737.6735	18428.6	17518.5
833.6222	739.7596	18388.1	17476.5
833.7672	741.845	18369.25	17459.15
833.9122	743.9298	18321.35	17410.5
834.0571	746.014	18349.35	17442.5
834.2021	748.0974	18381.25	17466.3
834.347	750.1802	18366.05	17449
834.492	752.2624	18408.45	17497.75
834.637	754.3439	18415.2	17497.8
834.782	756.4247	18482.45	17560.5
834.9269	758.5048	18604.9	17693.95
835.0719	760.5843	18818.25	17909.05
835.2169	762.6631	19116.95	18204.25
835.3619	764.7413	19560.65	18648.65
835.5069	766.8188	20146.35	19232
835.6519	768.8956	20589.95	19674.15
835.7969	770.9718	20935.5	20022.8
835.9419	773.0473	20803.5	19892.3
836.0869	775.1221	20512.35	19603.85
836.232	777.1962	20078.85	19168.05
836.377	779.2697	19879.9	18964.65
836.522	781.3426	19993.8	19060.65
836.667	783.4147	20250.7	19335.25
836.8121	785.4862	20569.85	19654.8
836.9571	787.557	20591.1	19675.85
837.1021	789.6271	20269.9	19352.55
837.2472	791.6966	19730.7	18815.05
837.3922	793.7654	19188.5	18274.9
837.5373	795.8335	18891.75	17975.05
837.6823	797.901	18717.6	17802.5
837.8274	799.9678	18683.05	17763
837.9724	802.0339	18667.55	17749.35
838.1175	804.0993	18737.65	17812.35
838.2626	806.1641	18721.05	17801.2
838.4076	808.2282	18683.45	17766.3
838.5527	810.2916	18641.1	17728
838.6978	812.3544	18562.9	17648.15
838.8428	814.4164	18466.7	17552.2
838.9879	816.4778	18499.95	17582.05
839.133	818.5385	18500.75	17582.4
839.2781	820.5986	18552.95	17632
839.4232	822.658	18673.65	17752.7
839.5682	824.7166	18772.6	17853.9
839.7133	826.7747	19009.15	18091.5
839.8584	828.832	19220.45	18299.15
840.0035	830.8886	19350.5	18430.55
840.1486	832.9446	19464.45	18539.75
840.2937	834.9999	19548.45	18630.45
840.4388	837.0545	19580.45	18656
840.5839	839.1085	19590.05	18670
840.729	841.1618	19561.8	18640.35
840.8741	843.2143	19531.8	18611
841.0192	845.2662	19426.4	18503.7
841.1643	847.3175	19394.9	18476.05
841.3095	849.368	19256.35	18334.35
841.4546	851.4179	19161.35	18243
841.5997	853.467	19009.6	18087.9
841.7448	855.5155	18941.55	18020.8
841.8899	857.5633	18843.35	17924.25
842.0351	859.6105	18732.4	17811.1
842.1802	861.6569	18672.15	17750.05
842.3253	863.7027	18656.6	17729.45
842.4704	865.7478	18672.9	17748.35
842.6156	867.7922	18667.15	17744.4
842.7607	869.8359	18708.75	17785.1
842.9058	871.8789	18883.6	17961.85
843.0509	873.9212	19050.1	18095.05
843.1961	875.9629	19170.5	18246.65
843.3412	878.0039	19338.95	18414.35
843.4863	880.0441	19476.65	18557.5
843.6315	882.0837	19514.95	18593.75
843.7766	884.1226	19419.2	18499.6
843.9218	886.1609	19323.15	18404.55
844.0669	888.1984	19268.5	18348.35
844.212	890.2352	19287.2	18362
844.3572	892.2714	19250.85	18321.4
844.5023	894.3069	19219.55	18297.1
844.6475	896.3416	19162.1	18241.1
844.7926	898.3757	19164.35	18241.8
844.9377	900.4091	19146.8	18218.5
845.0829	902.4418	19189.95	18256.4
845.228	904.4739	19195.35	18267.05
845.3732	906.5052	19230.05	18305.65
845.5183	908.5358	19088.55	18164.15
845.6635	910.5658	18979.15	18050.7
845.8086	912.595	18795.05	17870.95
845.9538	914.6236	18682.4	17756.9
846.0989	916.6515	18623.25	17696.65
846.2441	918.6786	18615.2	17687.4
846.3892	920.7051	18718.6	17793.1
846.5344	922.7309	18867.15	17942.8
846.6795	924.756	18889.85	17965.65
846.8246	926.7804	18990.25	18061.85
846.9698	928.8041	18942.3	18015.5
847.1149	930.8272	19011.15	18082.45
847.2601	932.8495	18890.25	17962.35
847.4052	934.8711	18878.9	17948.5
847.5504	936.892	18677.6	17745.5
847.6955	938.9123	18537.95	17610.45
847.8407	940.9318	18462.8	17533.1
847.9858	942.9506	18363.9	17437.9
848.131	944.9688	18263	17334.5
848.2761	946.9862	18230.65	17302.85
848.4213	949.003	18126.4	17197.1
848.5664	951.019	18144.85	17217.85
848.7115	953.0344	18177.2	17249.7
848.8567	955.0491	18216.85	17290.5
849.0018	957.063	18320.95	17393.85
849.147	959.0763	18465.5	17541.25
849.2921	961.0888	18467.5	17541.5
849.4373	963.1007	18565.75	17640.15
849.5824	965.1119	18616.45	17698.15
849.7275	967.1223	18641.55	17726
849.8727	969.1321	18673.25	17757.8
850.0178	971.1412	18717.2	17798.05
850.1629	973.1495	18741.55	17817.1
850.3081	975.1572	18827.8	17853.85
850.4532	977.1641	18860.25	17932.1
850.5983	979.1704	18825.6	17898.1
850.7435	981.1759	18825.75	17896.45
850.8886	983.1808	18851.55	17921.4
851.0337	985.1849	18955.05	18016.45
851.1788	987.1884	19105.4	18176.45
851.324	989.1911	19277.25	18349.4
851.4691	991.1932	19403.65	18480.45
851.6142	993.1945	19442.95	18517.75
851.7593	995.1951	19384.4	18459.2
851.9045	997.1951	19363.5	18429.7
852.0496	999.1943	19267.95	18345
852.1947	1001.1928	19221.95	18291.8
852.3398	1003.1906	19218.2	18290.6
852.4849	1005.1877	19292.9	18366.9
852.63	1007.1841	19263.4	18334.35
852.7751	1009.1798	19168.95	18243.35
852.9202	1011.1748	18966.5	18040.25
853.0653	1013.1691	18783.2	17852.9
853.2104	1015.1627	18580.6	17653.25
853.3555	1017.1556	18351.4	17426.2
853.5006	1019.1477	18253.35	17325.8
853.6457	1021.1392	18155.65	17235.9
853.7908	1023.1299	18164.05	17246
853.9359	1025.12	18150.8	17234.8
854.081	1027.1093	18203.9	17296.4
854.2261	1029.0979	18301.65	17399.25
854.3712	1031.0859	18347.05	17438.7
854.5163	1033.0731	18370.85	17457.05
854.6613	1035.0596	18280.9	17359.55
854.8064	1037.0454	18132.2	17208.35
854.9515	1039.0304	18005.1	17080.3
855.0965	1041.0148	17882.55	16958.3
855.2416	1042.9985	17779.1	16852.35
855.3867	1044.9814	17758.2	16835.25
855.5317	1046.9636	17691.9	16769.1
855.6768	1048.9452	17688.1	16764.3
855.8219	1050.926	17734.05	16810.9
855.9669	1052.9061	17717.95	16792.15
856.112	1054.8855	17674	16747.9
856.257	1056.8642	17709.05	16782.3
856.4021	1058.8421	17781.7	16848.75
856.5471	1060.8194	17805.2	16877.85
856.6921	1062.7959	17852	16927.45
856.8372	1064.7717	17915.55	16989.45
856.9822	1066.7469	17921.5	16995.5
857.1272	1068.7213	17902.55	16972.55
857.2723	1070.695	17865.35	16939.15
857.4173	1072.6679	17798.5	16872.65
857.5623	1074.6402	17795.3	16868.95
857.7073	1076.6117	17791.25	16857.55
857.8523	1078.5826	17780.6	16851.7
857.9973	1080.5527	17792.2	16862.25
858.1423	1082.5221	17855.95	16933.3
858.2873	1084.4908	18048.85	17120.85
858.4323	1086.4587	18223.5	17300.8
858.5773	1088.426	18365.85	17436.9
858.7223	1090.3925	18373.3	17442.65
858.8673	1092.3584	18324.35	17397.1
859.0123	1094.3235	18177.9	17254.2
859.1573	1096.2879	18102.95	17178.1
859.3022	1098.2515	18079.3	17151.05
859.4472	1100.2145	18185.3	17263.55
859.5922	1102.1767	18252.75	17323.05
859.7371	1104.1382	18379.55	17455.95
859.8821	1106.099	18603	17674.7
860.027	1108.0591	18794.7	17871.55
860.172	1110.0185	18929.85	18002.85
860.3169	1111.9771	18979.2	18053.9
860.4619	1113.9351	18786.5	17858.95
860.6068	1115.8923	18444.65	17520.6
860.7517	1117.8488	18185.5	17259.75
860.8967	1119.8045	17902.95	16979.7
861.0416	1121.7596	17771.45	16846.95
861.1865	1123.7139	17666.7	16742.45
861.3314	1125.6675	17711.2	16787.15
861.4763	1127.6204	17786.5	16859.85
861.6212	1129.5726	17749.45	16822.8
861.7661	1131.524	17775.05	16849.25
861.911	1133.4748	17761.45	16834.95
862.0559	1135.4248	17730.25	16804.5
862.2008	1137.3741	17713	16788.4
862.3457	1139.3226	17674.15	16749.7
862.4905	1141.2705	17662.4	16735.95
862.6354	1143.2176	17529.05	16598.2
862.7803	1145.164	17541.9	16613.3
862.9251	1147.1097	17555.95	16632
863.07	1149.0546	17547.6	16621.85
863.2148	1150.9989	17469.35	16543.1
863.3597	1152.9424	17349.85	16425.15
863.5045	1154.8852	17188.8	16262.55
863.6493	1156.8272	17075.5	16149.7
863.7942	1158.7686	17026.3	16094.55
863.939	1160.7092	16962.95	16037.15
864.0838	1162.6491	16972.95	16042.9
864.2286	1164.5883	17067.05	16141.35
864.3734	1166.5267	17113.4	16186.65
864.5182	1168.4644	17292.5	16365.3
864.663	1170.4014	17464.65	16539.5
864.8078	1172.3377	17710.3	16788.55
864.9526	1174.2732	17919.3	16996.85
865.0974	1176.2081	18154.9	17229.85
865.2421	1178.1421	18388.95	17462.5
865.3869	1180.0755	18635.55	17713
865.5317	1182.0082	18669.95	17750
865.6764	1183.9401	18706.4	17784.6
865.8212	1185.8713	18532.1	17610.5
865.9659	1187.8017	18305.95	17392.45
866.1106	1189.7315	18056.8	17150.65
866.2554	1191.6605	17767.65	16861.7
866.4001	1193.5888	17507.2	16596.55
866.5448	1195.5163	17380.85	16459.05
866.6895	1197.4432	17294.3	16370.25
866.8342	1199.3693	17269.05	16347.15
866.9789	1201.2947	17210.1	16281.6
867.1236	1203.2193	17201.1	16277.4
867.2683	1205.1432	17256.75	16333.1
867.413	1207.0664	17221	16298.05
867.5576	1208.9889	17254.35	16328.1
867.7023	1210.9106	17290.6	16369
867.847	1212.8316	17317.4	16399.55
867.9916	1214.7519	17421.85	16491.3
868.1363	1216.6715	17371.15	16447.05
868.2809	1218.5903	17375.35	16451
868.4255	1220.5084	17339.5	16417
868.5701	1222.4257	17346.55	16425.55
868.7148	1224.3424	17249.1	16331.5
868.8594	1226.2583	17327.2	16402.95
869.004	1228.1735	17420.4	16501.35
869.1486	1230.0879	17513	16588.45
869.2932	1232.0016	17607.05	16683.15
869.4377	1233.9146	17650.6	16727.8
869.5823	1235.8269	17536.05	16614.85
869.7269	1237.7384	17410.3	16487.75
869.8715	1239.6492	17238.6	16316.4
870.016	1241.5592	17115.4	16191.95
870.1606	1243.4686	17054.2	16133.45
870.3051	1245.3772	17015.9	16092.4
870.4496	1247.285	16977.1	16054.85
870.5941	1249.1922	16951.6	16031.85
870.7387	1251.0986	16938.8	16020.15
870.8832	1253.0042	16934.5	16013.25
871.0277	1254.9092	16991.45	16072.45
871.1722	1256.8134	17069.85	16153.75
871.3167	1258.7169	17209.55	16287.05
871.4611	1260.6196	17328.85	16409.8
871.6056	1262.5216	17578	16655.7
871.7501	1264.4229	17684.65	16765.4
871.8945	1266.3234	17830.9	16910.6
872.039	1268.2232	17913.35	16994.1
872.1834	1270.1223	17939.55	17016.8
872.3278	1272.0207	17888.1	16966.6
872.4723	1273.9183	17875.05	16949.4
872.6167	1275.8151	17749.05	16829.7
872.7611	1277.7113	17665.2	16746.65
872.9055	1279.6067	17556.2	16639.45
873.0499	1281.5014	17471.35	16547.65
873.1943	1283.3953	17424.65	16502.75
873.3386	1285.2885	17432.6	16515
873.483	1287.181	17476.75	16556.55
873.6274	1289.0727	17565.2	16646.65
873.7717	1290.9637	17617.75	16700.3
873.9161	1292.854	17774.75	16854.85
874.0604	1294.7435	17870.5	16950.15
874.2047	1296.6323	18077.85	17155.95
874.349	1298.5204	18317.4	17393.1
874.4933	1300.4077	18507.85	17586.85
874.6376	1302.2943	18645.4	17725.55
874.7819	1304.1802	18677.8	17760.35
874.9262	1306.0653	18521.05	17600.1
875.0705	1307.9497	18350	17428.7
875.2147	1309.8333	18202.5	17283.45
875.359	1311.7162	18099.35	17178.7
875.5032	1313.5984	18061.95	17138.8
875.6475	1315.4798	18122.85	17189.3
875.7917	1317.3605	18203.8	17266.95
875.9359	1319.2405	18250.2	17327.65
876.0801	1321.1197	18206.9	17282.65
876.2243	1322.9982	18092.35	17169.4
876.3685	1324.876	18005.3	17083.3
876.5127	1326.753	17883.65	16965.25
876.6569	1328.6293	17911.15	16991.6
876.801	1330.5048	17879	16951.65
876.9452	1332.3796	17804.55	16886.55
877.0893	1334.2537	17784.7	16839.7
877.2335	1336.127	17680.25	16758.55
877.3776	1337.9996	17644.35	16724.25
877.5217	1339.8714	17592.15	16672.85
877.6658	1341.7426	17616.95	16653.45
877.8099	1343.6129	17565.8	16644.15
877.954	1345.4826	17490.3	16571.1
878.0981	1347.3515	17478.45	16554.6
878.2422	1349.2196	17422.3	16498.95
878.3862	1351.087	17387.4	16468.45
878.5303	1352.9537	17448.15	16525.1
878.6743	1354.8197	17582.75	16659.6
878.8184	1356.6849	17762.9	16840.6
878.9624	1358.5493	17819.05	16897.7
879.1064	1360.4131	17870.35	16951.35
879.2504	1362.276	17779.4	16863.75
879.3944	1364.1383	17645.25	16724.8
879.5384	1365.9998	17414.35	16489.9
879.6823	1367.8606	17030.6	16109.3
879.8263	1369.7206	16791.75	15869.1
879.9702	1371.5799	16535.55	15611.9
880.1142	1373.4384	16383.2	15463.5
880.2581	1375.2962	16239.85	15318.7
880.402	1377.1533	15925.2	15008.55
880.5459	1379.0096	15593.35	14676.25
880.6898	1380.8652	15307.8	14391.9
880.8337	1382.7201	15053.75	14140.45
880.9776	1384.5742	14811.1	13891.7
881.1215	1386.4275	14639.9	13719.1
881.2653	1388.2802	14514.9	13593.55
881.4092	1390.132	14418.6	13496.55
881.553	1391.9832	14342.7	13422.8
881.6968	1393.8336	14221.9	13297.7
881.8406	1395.6832	14159.5	13237.85
881.9844	1397.5322	14123.35	13203.8
882.1282	1399.3803	14099.3	13176.75
882.272	1401.2278	14029.75	13110.7
882.4158	1403.0745	14040.05	13121
882.5595	1404.9204	13985.95	13069.65
882.7033	1406.7656	14004.95	13086.9
882.847	1408.6101	13960.4	13041.2
882.9908	1410.4538	13985.75	13068.55
883.1345	1412.2968	14015.75	13095.9
883.2782	1414.139	14025.4	13106.25
883.4219	1415.9805	14102.75	13184.05
883.5656	1417.8213	14164.1	13239.9
883.7092	1419.6613	14268.35	13352.45
883.8529	1421.5006	14430.75	13511.6
883.9965	1423.3391	14648.05	13729
884.1402	1425.1769	14956.8	14036.6
884.2838	1427.0139	15425.2	14505.55
884.4274	1428.8502	15984.85	15066.3
884.571	1430.6858	16555.15	15638.25
884.7146	1432.5206	16939.65	16020.65
884.8582	1434.3547	17211.2	16292.9
885.0018	1436.188	17194.65	16276.7
885.1453	1438.0206	17121.6	16207.3
885.2889	1439.8524	16926.45	16008.5
885.4324	1441.6835	16799.3	15884.25
885.5759	1443.5139	16726.85	15807.9
885.7194	1445.3435	16644.5	15729.6
885.8629	1447.1724	16570.3	15655.1
886.0064	1449.0005	16508.85	15593.9
886.1499	1450.8279	16383.5	15466.85
886.2933	1452.6545	16369.6	15451.75
886.4368	1454.4804	16388.15	15472.2
886.5802	1456.3056	16356.6	15437.45
886.7237	1458.13	16252.65	15339.85
886.8671	1459.9536	16034.25	15118.6
887.0105	1461.7766	15705.6	14789.1
887.1539	1463.5987	15286.7	14368.15
887.2972	1465.4202	14902.95	13987.25
887.4406	1467.2409	14551	13634.75
887.584	1469.0608	14277.6	13362.1
887.7273	1470.88	13992.3	13077.8
887.8706	1472.6984	13746.3	12830.1
888.0139	1474.5161	13529.75	12612.15
888.1572	1476.3331	13344.45	12429.05
888.3005	1478.1493	13216.75	12299.75
888.4438	1479.9648	13147.75	12231
888.5871	1481.7795	13032.85	12117.6
888.7303	1483.5935	12950.75	12034.8
888.8736	1485.4067	12877.95	11962.7
889.0168	1487.2192	12833.3	11916.6
889.16	1489.031	12780.7	11860.65
889.3032	1490.842	12736.65	11822.6
889.4464	1492.6522	12688.45	11774.75
889.5896	1494.4618	12615.65	11700.45
889.7327	1496.2705	12618.25	11701.95
889.8759	1498.0785	12591.8	11674.6
890.019	1499.8858	12528.9	11612.95
890.1622	1501.6924	12479	11564.55
890.3053	1503.4981	12455.45	11542.35
890.4484	1505.3032	12424.3	11506.5
890.5914	1507.1075	12394.8	11481.4
890.7345	1508.911	12359.9	11444.3
890.8776	1510.7138	12300.15	11385.55
891.0206	1512.5159	12259.1	11341.65
891.1637	1514.3172	12204.85	11291.05
891.3067	1516.1178	12117.15	11204.8
891.4497	1517.9176	12089.25	11170.55
891.5927	1519.7166	12043.85	11130.3
891.7357	1521.515	11994	11077.75
891.8786	1523.3126	11948.8	11037.85
892.0216	1525.1094	11914.6	10999.85
892.1645	1526.9055	11862.85	10949.9
892.3074	1528.7008	11838.85	10926.05
892.4503	1530.4954	11741.15	10826.3
892.5932	1532.2893	11747.4	10839.1
892.7361	1534.0824	11688.1	10774.85
892.879	1535.8747	11686.9	10776.65
893.0218	1537.6663	11647.3	10737.9
893.1647	1539.4572	11609	10695.85
893.3075	1541.2473	11623	10713.05
893.4503	1543.0367	11601.4	10690.35
893.5931	1544.8253	11562.25	10646.95
893.7359	1546.6132	11570.9	10656.95
893.8787	1548.4003	11594	10671.95
894.0214	1550.1867	11552.4	10633.65
894.1642	1551.9723	11567.85	10653.25
894.3069	1553.7572	11579.3	10669.3
894.4496	1555.5414	11606.05	10699.8
894.5923	1557.3247	11661.65	10754.9
894.735	1559.1074	11696.55	10789.95
894.8777	1560.8893	11772.95	10866.8
895.0204	1562.6705	11792.1	10887.8
895.163	1564.4509	11874.95	10970.7
895.3056	1566.2305	11929.15	11027
895.4482	1568.0094	12016.25	11114.4
895.5908	1569.7876	12046.45	11143.85
895.7334	1571.565	12050.6	11146.95
895.876	1573.3417	12050.2	11144.35
896.0186	1575.1176	12026.4	11122.05
896.1611	1576.8928	11985.15	11080.5
896.3036	1578.6672	11850.65	10953.1
896.4461	1580.4409	11782	10885.15
896.5886	1582.2138	11637.6	10737.9
896.7311	1583.986	11522.55	10621.5
896.8736	1585.7575	11467.35	10565.5
897.0161	1587.5282	11406.45	10508.15
897.1585	1589.2981	11349.15	10452.95
897.3009	1591.0673	11318	10421.9
897.4433	1592.8358	11306.75	10408.3
897.5857	1594.6035	11328.25	10425.85
897.7281	1596.3704	11305.25	10403.25
897.8705	1598.1366	11348.3	10447.75
898.0128	1599.9021	11359.8	10462.1
898.1551	1601.6668	11374.5	10473.25
898.2975	1603.4308	11455.35	10554.1
898.4398	1605.194	11557.7	10654.1
898.5821	1606.9564	11639.9	10744.6
898.7243	1608.7182	11761.4	10865.75
898.8666	1610.4791	11922.05	11034.45
899.0088	1612.2394	12055.15	11168.2
899.1511	1613.9988	12215.8	11325.75
899.2933	1615.7576	12430.75	11538.7
899.4355	1617.5156	12654.75	11748.8
899.5776	1619.2728	12836.85	11936.4
899.7198	1621.0293	12951.1	12052.1
899.862	1622.785	12939.55	12040.4
900.0041	1624.54	12840.75	11944.25
900.1462	1626.2942	12670.5	11775.05
900.2883	1628.0477	12413.75	11517
900.4304	1629.8005	12166.8	11268.95
900.5725	1631.5525	11951.6	11056.3
900.7145	1633.3037	11751.15	10859.25
900.8566	1635.0542	11622.45	10729.9
900.9986	1636.804	11514.2	10619.9
901.1406	1638.553	11468.2	10493.55
901.2826	1640.3013	11360.15	10461.95
901.4245	1642.0488	11337.75	10438.05
901.5665	1643.7955	11344	10452.6
901.7085	1645.5416	11371.1	10480.7
901.8504	1647.2868	11465.95	10573.5
901.9923	1649.0313	11533.15	10638.85
902.1342	1650.7751	11689.5	10790.55
902.2761	1652.5181	11838.6	10945.25
902.4179	1654.2604	12021.55	11128.8
902.5598	1656.0019	12259.8	11366.75
902.7016	1657.7427	12561.95	11667.3
902.8434	1659.4828	12852.85	11957.75
902.9852	1661.222	13027.15	12127.7
903.127	1662.9606	13029.55	12136.2
903.2687	1664.6984	12807.75	11912.7
903.4105	1666.4354	12411.9	11516.35
903.5522	1668.1717	11913.9	11015.7
903.6939	1669.9072	11401.25	10504
903.8356	1671.642	10999.7	10102
903.9773	1673.3761	10667.5	9770.7
904.119	1675.1094	10342.3	9447.05
904.2606	1676.8419	10109.2	9214.55
904.4022	1678.5737	9932.3	9038
904.5439	1680.3048	9827.65	8929.15
904.6855	1682.0351	9691.8	8798.1
904.827	1683.7646	9569.3	8669.9
904.9686	1685.4934	9505.5	8610.95
905.1101	1687.2215	9425.7	8530.65
905.2517	1688.9488	9352.5	8459.05
905.3932	1690.6754	9307.8	8413.15
905.5347	1692.4012	9225.9	8332
905.6761	1694.1263	9200.35	8302.45
905.8176	1695.8506	9171.65	8276.55
905.9591	1697.5742	9109.15	8215.3
906.1005	1699.297	9051.95	8164.05
906.2419	1701.0191	8987.4	8096.45
906.3833	1702.7404	8953.1	8063.7
906.5246	1704.461	8908.15	8013.6
906.666	1706.1808	8858.3	7966.1
906.8073	1707.8999	8830.35	7940
906.9487	1709.6182	8803.3	7916.75
907.09	1711.3358	8795.2	7907.5
907.2313	1713.0527	8731.15	7845.9
907.3725	1714.7688	8721.7	7827.2
907.5138	1716.4841	8676.25	7783.6
907.655	1718.1987	8652.25	7756
907.7962	1719.9126	8617.3	7730.4
907.9374	1721.6257	8577	7688.3
908.0786	1723.338	8577.4	7689.85
908.2198	1725.0496	8515.6	7625.6
908.3609	1726.7605	8481.25	7591.2
908.502	1728.4706	8464.75	7575.5
908.6431	1730.18	8411.45	7523.15
908.7842	1731.8886	8403.95	7516.5
908.9253	1733.5964	8402.95	7495.45
909.0664	1735.3036	8360.05	7470
909.2074	1737.0099	8343.95	7454.65
909.3484	1738.7156	8307.3	7422.1
909.4894	1740.4204	8275.15	7386.35
909.6304	1742.1246	8246.35	7355.55
909.7714	1743.8279	8220.25	7329
909.9123	1745.5306	8186.75	7298.8
910.0532	1747.2325	8180.45	7291.6
910.1941	1748.9336	8131.25	7243.65
910.335	1750.634	8120.8	7230.35
910.4759	1752.3336	8065.3	7178.05
910.6168	1754.0325	8072.1	7187.75
910.7576	1755.7307	8043.75	7157.1
910.8984	1757.4281	8016.75	7129.35
911.0392	1759.1247	8041.95	7141.9
911.18	1760.8206	7989.55	7095.1
911.3208	1762.5158	7982.1	7088.4
911.4615	1764.2102	7941.95	7052.7
911.6022	1765.9039	7915.45	7029.8
911.7429	1767.5968	7914.85	7029.5
911.8836	1769.289	7872.45	6986.25
912.0243	1770.9804	7859.45	6971.8
912.1649	1772.6711	7848.7	6959.9
912.3056	1774.361	7812.05	6921.45
912.4462	1776.0502	7810.9	6920.55
912.5868	1777.7386	7773.85	6882.7
912.7274	1779.4263	7764.85	6878.75
912.8679	1781.1132	7745.3	6861.65
913.0084	1782.7994	7729.3	6843.85
913.149	1784.4849	7724.8	6840.1
913.2895	1786.1696	7689.25	6796.7
913.4299	1787.8535	7675.35	6791.3
913.5704	1789.5367	7632.4	6749.7
913.7108	1791.2192	7637.4	6752
913.8513	1792.9009	7630.75	6717.5
913.9917	1794.5818	7616.35	6727.05
914.132	1796.2621	7575.4	6687.55
914.2724	1797.9415	7573.25	6686.6
914.4128	1799.6202	7551.8	6664.45
914.5531	1801.2982	7531.25	6642.7
914.6934	1802.9755	7502.65	6615.45
914.8337	1804.6519	7488.05	6599.3
914.9739	1806.3277	7440.55	6555.3
915.1142	1808.0027	7439.6	6557.05
915.2544	1809.6769	7420.95	6538.7
915.3946	1811.3504	7402.85	6517.35
915.5348	1813.0231	7389.3	6505.5
915.675	1814.6951	7384.2	6499.45
915.8151	1816.3664	7389.65	6501.75
915.9553	1818.0369	7364.55	6478.2
916.0954	1819.7067	7349.05	6462.25
916.2355	1821.3757	7318.1	6429.55
916.3755	1823.044	7297.55	6409.85
916.5156	1824.7115	7257.9	6366.45
916.6556	1826.3783	7242.25	6356.9
916.7956	1828.0443	7228.85	6343.6
916.9356	1829.7096	7223.15	6336.3
917.0756	1831.3741	7218.5	6330.95
917.2155	1833.0379	7196	6312.7
917.3555	1834.701	7180.8	6297.3
917.4954	1836.3633	7146.15	6263.05
917.6353	1838.0248	7125.15	6239.65
917.7751	1839.6856	7101.55	6217.55
917.915	1841.3457	7099.3	6214.7
918.0548	1843.005	7107.2	6222.8
918.1946	1844.6636	7093.55	6210.55
918.3344	1846.3214	7070.15	6183.5
918.4742	1847.9785	7083.8	6199.85
918.6139	1849.6349	7052.8	6163.35
918.7537	1851.2904	7034	6137
918.8934	1852.9453	7011.6	6122.3
919.0331	1854.5994	7000.65	6109.9
919.1727	1856.2528	7018.65	6126.3
919.3124	1857.9054	6991.85	6106.4
919.452	1859.5572	6985.5	6100.05
919.5916	1861.2083	6962.1	6075.8
919.7312	1862.8587	6953.8	6065.65
919.8708	1864.5084	6921.3	6030.9
920.0103	1866.1572	6915.15	6027.35
920.1498	1867.8054	6876.9	5986.6
920.2893	1869.4528	6862.55	5973.1
920.4288	1871.0994	6844.4	5955
920.5683	1872.7453	6840.3	5952.95
920.7077	1874.3905	6835.5	5931.1
920.8471	1876.0349	6811.65	5920.95
920.9865	1877.6786	6785.2	5896.2
921.1259	1879.3215	6805.9	5919.9
921.2653	1880.9637	6765.65	5879.15
921.4046	1882.6051	6761.6	5876.35
921.5439	1884.2458	6761.65	5873.45
921.6832	1885.8858	6712.4	5828.25
921.8225	1887.525	6702.45	5815.2
921.9617	1889.1634	6672.2	5787.4
922.101	1890.8011	6638	5751.05
922.2402	1892.4381	6622.95	5734.95
922.3794	1894.0743	6642	5755.3
922.5185	1895.7098	6602	5715.2
922.6577	1897.3446	6595.8	5711.15
922.7968	1898.9786	6585	5695.15
922.9359	1900.6118	6572.35	5687.4
923.075	1902.2443	6516.5	5629.4
923.214	1903.8761	6546.55	5661.05
923.3531	1905.5071	6485.55	5599.4
923.4921	1907.1374	6483.9	5598.8
923.6311	1908.7669	6470.05	5584.7
923.77	1910.3957	6453.55	5566.35
923.909	1912.0237	6410.35	5524.65
924.0479	1913.651	6401.2	5513.3
924.1868	1915.2776	6386.05	5503.85
924.3257	1916.9034	6370.95	5488.8
924.4646	1918.5285	6343.25	5460.7
924.6034	1920.1528	6332.75	5447.25
924.7422	1921.7764	6316.35	5429.8
924.881	1923.3992	6289.4	5404.9
925.0198	1925.0213	6261	5374.35
925.1586	1926.6427	6233.55	5350.1
925.2973	1928.2633	6295.8	5310.55
925.436	1929.8832	6215.7	5328.65
925.5747	1931.5023	6201	5316.7
925.7134	1933.1207	6175.15	5289.3
925.852	1934.7383	6155.4	5270.85
925.9906	1936.3552	6115.55	5232.1
926.1292	1937.9714	6133.25	5248.55
926.2678	1939.5868	6086.15	5198.65
926.4064	1941.2015	6058.05	5172.7
926.5449	1942.8154	6052.1	5165.9
926.6834	1944.4286	6023.75	5137.05
926.8219	1946.041	6023.7	5111.6
926.9604	1947.6528	5981.1	5090.65
927.0988	1949.2637	5953.45	5069.4
927.2372	1950.8739	5925.1	5039.35
927.3756	1952.4834	5919.65	5037.05
927.514	1954.0921	5901.5	5017.35
927.6523	1955.7001	5916.1	5027.35
927.7907	1957.3074	5883.6	5004.25
927.929	1958.9139	5863	4980.3
928.0673	1960.5197	5830.9	4945.65
928.2055	1962.1247	5802.9	4919.95
928.3438	1963.729	5780.95	4896.3
928.482	1965.3325	5786.65	4900.1
928.6202	1966.9353	5757.05	4874.85
928.7584	1968.5374	5741.7	4859.05
928.8965	1970.1387	5718.4	4834.9
929.0346	1971.7393	5705.2	4822.7
929.1727	1973.3392	5689.6	4805.5
929.3108	1974.9383	5665.2	4786.95
929.4489	1976.5366	5643.7	4763.25
929.5869	1978.1342	5625.3	4745.65
929.7249	1979.7311	5614.95	4734.35
929.8629	1981.3273	5612.6	4733.25
930.0009	1982.9227	5595.5	4714.1
930.1388	1984.5173	5565.55	4685.65
930.2767	1986.1112	5549.25	4671.05
930.4146	1987.7044	5532.8	4653.25
930.5525	1989.2968	5516.6	4635.55
930.6904	1990.8885	5513.9	4632.1
930.8282	1992.4795	5499.25	4619.4
930.966	1994.0697	5480.4	4603.6
931.1038	1995.6592	5462.5	4581.9
931.2415	1997.2479	5445.6	4567.9
931.3793	1998.8359	5430.9	4553
931.517	2000.4232	5402.85	4527.95
931.6547	2002.0097	5385.65	4511.1
931.7923	2003.5955	5381.75	4502.75
931.93	2005.1805	5382.5	4504.6
932.0676	2006.7648	5368.9	4493.75
932.2052	2008.3484	5333.35	4455.55
932.3427	2009.9312	5353.25	4475.95
932.4803	2011.5133	5311.25	4438.55
932.6178	2013.0946	5308.35	4433.55
932.7553	2014.6752	5285.35	4410.35
932.8928	2016.2551	5284.75	4407.8
933.0302	2017.8342	5264.1	4387.9
933.1676	2019.4126	5243.05	4367.4
933.305	2020.9902	5229.05	4354.7
933.4424	2022.5672	5228.05	4352.7
933.5798	2024.1433	5223.4	4344.15
933.7171	2025.7188	5183	4310.9
933.8544	2027.2935	5181.55	4306.15
933.9917	2028.8674	5153.55	4278.6
934.129	2030.4406	5137.25	4261.65
934.2662	2032.0131	5131.7	4256.7
934.4034	2033.5849	5107.1	4227.7
934.5406	2035.1559	5106.25	4231.8
934.6778	2036.7261	5112.15	4237.9
934.8149	2038.2957	5089.5	4212.25
934.952	2039.8645	5081.7	4201.75
935.0891	2041.4325	5058.1	4174.9
935.2262	2042.9998	5058.2	4182
935.3632	2044.5664	5044.95	4164.2
935.5002	2046.1323	5030.6	4155.9
935.6372	2047.6974	5032.25	4158.65
935.7742	2049.2617	4991.45	4116.95
935.9111	2050.8254	4980.6	4102.25
936.048	2052.3883	4971.8	4096.3
936.1849	2053.9504	4981	4103.4
936.3218	2055.5118	4948.1	4068.4
936.4586	2057.0725	4938.75	4059.05
936.5955	2058.6325	4918.6	4043
936.7323	2060.1917	4893.25	4017.6
936.869	2061.7502	4905.4	4027.6
937.0058	2063.3079	4887.2	4013.45
937.1425	2064.8649	4875.7	3996.95
937.2792	2066.4212	4867.1	3989
937.4159	2067.9767	4850.65	3975.25
937.5525	2069.5315	4823.6	3948.15
937.6891	2071.0856	4820	3945.35
937.8257	2072.6389	4782.35	3904.7
937.9623	2074.1915	4769.2	3893.9
938.0989	2075.7433	4748.75	3870.4
938.2354	2077.2945	4749.1	3873.1
938.3719	2078.8448	4743.95	3863.55
938.5084	2080.3945	4720.7	3842.45
938.6448	2081.9434	4727.8	3848.9
938.7812	2083.4916	4718.35	3840.5
938.9176	2085.039	4686.45	3804.15
939.054	2086.5857	4684.5	3799.95
939.1903	2088.1317	4662.5	3779.7
939.3267	2089.677	4649.9	3768.4
939.463	2091.2215	4654	3768.75
939.5992	2092.7652	4648.95	3764.2
939.7355	2094.3083	4633.5	3749.5
939.8717	2095.8506	4630.25	3748.8
940.0079	2097.3921	4622.35	3742.85
940.1441	2098.933	4610.3	3728.3
940.2802	2100.4731	4582.25	3705.05
940.4163	2102.0124	4607.35	3709.55
940.5524	2103.5511	4576.5	3695.3
940.6885	2105.089	4573.6	3691.1
940.8245	2106.6261	4575.6	3694.35
940.9606	2108.1626	4549.85	3669.45
941.0965	2109.6983	4541	3632.3
941.2325	2111.2332	4518.7	3639.4
941.3684	2112.7675	4506.65	3625.35
941.5044	2114.301	4498.95	3616.7
941.6403	2115.8337	4493.2	3614.45
941.7761	2117.3657	4504.65	3624.2
941.912	2118.897	4480.5	3598.3
942.0478	2120.4276	4466.15	3579.95
942.1835	2121.9575	4449.65	3567.35
942.3193	2123.4866	4463.55	3568.4
942.455	2125.0149	4444	3560.05
942.5907	2126.5426	4405.95	3527.15
942.7264	2128.0695	4394.3	3514.15
942.8621	2129.5956	4386	3512.6
942.9977	2131.1211	4385.5	3502.95
943.1333	2132.6458	4372.2	3494.4
943.2689	2134.1698	4364.1	3481.9
943.4044	2135.693	4354.8	3471
943.54	2137.2155	4352.65	3467.35
943.6755	2138.7373	4343.85	3464.9
943.8109	2140.2584	4338.25	3459.1
943.9464	2141.7787	4330.8	3447.1
944.0818	2143.2983	4296.3	3420.4
944.2172	2144.8171	4276.75	3402.85
944.3526	2146.3353	4275.9	3397.1
944.4879	2147.8527	4253.85	3376.55
944.6232	2149.3693	4254.55	3375.25
944.7585	2150.8853	4262.05	3378.9
944.8938	2152.4005	4239.1	3359.25
945.029	2153.9149	4229	3345.25
945.1642	2155.4287	4208.95	3328.85
945.2994	2156.9417	4205.8	3323
945.4346	2158.454	4204.45	3321.15
945.5697	2159.9655	4188.85	3311.45
945.7048	2161.4764	4173.95	3295.65
945.8399	2162.9865	4159.25	3280.4
945.9749	2164.4958	4152	3275.4
946.1099	2166.0045	4137.95	3257.5
946.2449	2167.5124	4138.7	3261.8
946.3799	2169.0195	4137.35	3254.3
946.5148	2170.526	4119.7	3239.05
946.6498	2172.0317	4115.9	3234.85
946.7846	2173.5367	4108.65	3227.5
946.9195	2175.0409	4075.3	3197.8
947.0543	2176.5445	4091.8	3212.35
947.1891	2178.0473	4093.5	3212.2
947.3239	2179.5494	4062	3178.75
947.4587	2181.0507	4045.75	3165.25
947.5934	2182.5513	4040.3	3160.5
947.7281	2184.0512	4033.1	3151.65
947.8628	2185.5504	4016.15	3134.25
947.9974	2187.0488	4005.3	3127.95
948.132	2188.5465	3997.75	3119.75
948.2666	2190.0435	3991.7	3113.65
948.4012	2191.5397	3971.05	3089.35
948.5357	2193.0353	3974.55	3094.1
948.6702	2194.5301	3965.65	3081.9
948.8047	2196.0241	3943.95	3058.6
948.9392	2197.5175	3929.9	3046.25
949.0736	2199.0101	3935.65	3049.6
949.208	2200.502	3910.5	3028.8
949.3424	2201.9931	3888.4	3009.5
949.4767	2203.4835	3868.3	2987.65
949.611	2204.9733	3874.35	2990.3
949.7453	2206.4622	3875.05	3000.55
949.8796	2207.9505	3847.75	2967.75
950.0138	2209.438	3832.6	2959.15
950.148	2210.9248	3843.05	2963.45
950.2822	2212.4109	3803.8	2924.7
950.4164	2213.8962	3811.5	2925.95
950.5505	2215.3809	3812.45	2926.75
950.6846	2216.8648	3809.25	2924.4
950.8186	2218.3479	3805.8	2915.3
950.9527	2219.8304	3784.45	2896.1
951.0867	2221.3121	3776.15	2888.95
951.2207	2222.7931	3753.75	2870.35
951.3546	2224.2733	3731	2849.3
951.4886	2225.7529	3720.1	2838.55
951.6225	2227.2317	3723.1	2838.5
951.7563	2228.7098	3712.6	2834.3
951.8902	2230.1872	3703.05	2826.4
952.024	2231.6638	3684.8	2808.25
952.1578	2233.1397	3682.4	2799.65
952.2916	2234.6149	3689.05	2813.45
952.4253	2236.0894	3671.3	2791.25
952.559	2237.5632	3676	2786.95
952.6927	2239.0362	3657.35	2775.9
952.8263	2240.5085	3645.65	2767.15
952.9599	2241.9801	3622.8	2740.45
953.0935	2243.4509	3623.5	2741.05
953.2271	2244.921	3605.9	2722.9
953.3606	2246.3904	3605.75	2717.75
953.4941	2247.8591	3596.45	2715.3
953.6276	2249.3271	3572.25	2690.15
953.7611	2250.7943	3580.4	2696.95
953.8945	2252.2608	3562.7	2680.6
954.0279	2253.7266	3551.85	2670.55
954.1612	2255.1917	3551.85	2670.85
954.2946	2256.656	3533.65	2652.35
954.4279	2258.1197	3523.55	2646.65
954.5612	2259.5826	3509.4	2629.75
954.6944	2261.0447	3522.05	2640.55
954.8276	2262.5062	3486.35	2603.1
954.9608	2263.9669	3492.7	2609.95
955.094	2265.4269	3479	2598
955.2271	2266.8862	3478.75	2598.3
955.3602	2268.3448	3476.85	2596.75
955.4933	2269.8026	3458.85	2580.55
955.6264	2271.2598	3457.2	2578.25
955.7594	2272.7162	3456.15	2579
955.8924	2274.1719	3450.4	2569.05
956.0253	2275.6268	3444.2	2560.75
956.1583	2277.0811	3433.85	2551.25
956.2912	2278.5346	3434.9	2555.4
956.4241	2279.9874	3428.3	2549.85
956.5569	2281.4395	3414.9	2536.45
956.6897	2282.8908	3400.8	2516.2
956.8225	2284.3414	3400.4	2516.3
956.9553	2285.7914	3391.5	2512.85
957.088	2287.2406	3374.5	2491.3
957.2207	2288.689	3379.15	2495.75
957.3534	2290.1368	3369.85	2484.05
957.486	2291.5838	3366.45	2478.1
957.6186	2293.0302	3362.95	2475.85
957.7512	2294.4758	3342.4	2457.9
957.8838	2295.9206	3339.2	2453.45
958.0163	2297.3648	3334.45	2453.95
958.1488	2298.8082	3320.2	2435.75
958.2813	2300.251	3303.75	2420.1
958.4137	2301.693	3305.8	2420.1
958.5461	2303.1343	3300.2	2415.45
958.6785	2304.5748	3280.15	2399
958.8108	2306.0147	3279.45	2399.95
958.9432	2307.4538	3275.95	2394.3
959.0754	2308.8922	3268.55	2392.35
959.2077	2310.3299	3252.8	2373.6
959.3399	2311.7669	3222.4	2343.4
959.4721	2313.2031	3233.7	2353.25
959.6043	2314.6387	3216.55	2334.05
959.7365	2316.0735	3221.05	2342.25
959.8686	2317.5076	3205.6	2324.6
960.0006	2318.941	3203.8	2320.8
960.1327	2320.3737	3194.1	2310.45
960.2647	2321.8056	3189.8	2305.4
960.3967	2323.2369	3182.6	2301.05
960.5287	2324.6674	3187.4	2302.75
960.6606	2326.0972	3172.85	2290
960.7925	2327.5263	3169.45	2286.3
960.9244	2328.9547	3148.85	2266.35
961.0562	2330.3823	3158.15	2271.9
961.1881	2331.8092	3158.4	2270.3
961.3198	2333.2355	3143.1	2257.4
961.4516	2334.661	3137.1	2253.5
961.5833	2336.0858	3135.75	2251.8
961.715	2337.5098	3128.7	2245.35
961.8467	2338.9332	3116.65	2232.9
961.9783	2340.3558	3110.05	2225.05
962.1099	2341.7778	3104.1	2224.15
962.2415	2343.199	3088.55	2207.3
962.373	2344.6195	3083.05	2202.5
962.5045	2346.0393	3070.05	2190.15
962.636	2347.4583	3076.7	2193.2
962.7675	2348.8767	3075.35	2192.4
962.8989	2350.2943	3069.35	2184.05
963.0303	2351.7113	3075.4	2189.5
963.1617	2353.1275	3060.2	2175.55
963.293	2354.543	3053.4	2159.55
963.4243	2355.9578	3041.7	2158.8
963.5556	2357.3718	3031.75	2154.75
963.6868	2358.7852	3021.35	2138.9
963.818	2360.1978	3011.1	2131.15
963.9492	2361.6098	3014.75	2134.45
964.0803	2363.021	3007.5	2124.35
964.2114	2364.4315	2995.7	2112.8
964.3425	2365.8413	2994.75	2112.5
964.4736	2367.2504	2970.15	2091.35
964.6046	2368.6587	2956.65	2076
964.7356	2370.0664	2961.3	2083.1
964.8666	2371.4733	2959.1	2077.55
964.9975	2372.8795	2952.4	2071.85
965.1284	2374.285	2939.25	2059.55
965.2593	2375.6899	2925.15	2045.15
965.3901	2377.0939	2918.6	2039.85
965.5209	2378.4973	2918.2	2040.15
965.6517	2379.9	2904.65	2023.25
965.7825	2381.3019	2894.1	2015.85
965.9132	2382.7032	2881.45	2003.45
966.0439	2384.1037	2867.1	1990.25
966.1745	2385.5035	2876.95	1999.1
966.3051	2386.9027	2869.5	1992.6
966.4357	2388.3011	2869.4	1990.95
966.5663	2389.6987	2855.45	1977.75
966.6968	2391.0957	2845.8	1969.75
966.8273	2392.492	2849.75	1972.8
966.9578	2393.8876	2822.55	1944.15
967.0882	2395.2824	2833.8	1955.35
967.2186	2396.6765	2803	1922.8
967.349	2398.07	2801.3	1923.4
967.4793	2399.4627	2807.9	1929.25
967.6097	2400.8547	2801.3	1923.75
967.7399	2402.246	2791.9	1907.75
967.8702	2403.6366	2777.65	1900.2
968.0004	2405.0265	2770.65	1892.3
968.1306	2406.4156	2776.65	1894.4
968.2607	2407.8041	2755.65	1874.25
968.3909	2409.1918	2748.7	1867.7
968.521	2410.5789	2743.75	1866.25
968.651	2411.9652	2746.6	1864.15
968.781	2413.3508	2721.55	1841.75
968.911	2414.7358	2730.05	1851.3
969.041	2416.12	2719.8	1842.25
969.1709	2417.5035	2710.65	1833.15
969.3008	2418.8863	2710.05	1829.45
969.4307	2420.2684	2694.45	1816.55
969.5606	2421.6497	2691.35	1811.95
969.6904	2423.0304	2672.2	1793.75
969.8201	2424.4104	2686.6	1805.8
969.9499	2425.7896	2672.85	1791.75
970.0796	2427.1682	2677.6	1800.05
970.2093	2428.546	2668.3	1788.4
970.3389	2429.9232	2668.1	1789.55
970.4685	2431.2996	2653.95	1774.4
970.5981	2432.6753	2649.8	1771.7
970.7277	2434.0503	2642.5	1764.75
970.8572	2435.4246	2650.85	1771.4
970.9867	2436.7982	2629.1	1747.75
971.1161	2438.1711	2636.45	1758.65
971.2456	2439.5433	2619.3	1737.05
971.375	2440.9148	2612.2	1727.6
971.5043	2442.2856	2603.8	1725.9
971.6336	2443.6557	2593.75	1714.6
971.7629	2445.025	2582.85	1703.6
971.8922	2446.3937	2591.5	1709.4
972.0214	2447.7617	2581.15	1699.05
972.1506	2449.1289	2578.7	1700.65
972.2798	2450.4955	2573.35	1690.95
972.4089	2451.8613	2566.65	1689.25
972.538	2453.2265	2562.2	1683.85
972.6671	2454.5909	2547.6	1668.75
972.7961	2455.9546	2543.65	1663.6
972.9251	2457.3177	2533.25	1654.3
973.0541	2458.68	2548.2	1667.25
973.1831	2460.0416	2543.35	1662.65
973.312	2461.4025	2538.2	1656.9
973.4408	2462.7627	2533.25	1641.3
973.5697	2464.1222	2530.35	1653.05
973.6985	2465.4811	2521.5	1641.65
973.8273	2466.8392	2509.65	1628.95
973.956	2468.1966	2525.45	1643.95
974.0847	2469.5533	2509.5	1628.1
974.2134	2470.9093	2503.45	1623.15
974.3421	2472.2645	2493.1	1614.5
974.4707	2473.6191	2497.4	1618.35
974.5993	2474.973	2493.2	1613.6
974.7278	2476.3262	2485.95	1604.35
974.8563	2477.6787	2470.7	1591.85
974.9848	2479.0305	2474.45	1596.8
975.1132	2480.3816	2466.65	1585.05
975.2417	2481.7319	2464.25	1583
975.37	2483.0816	2451.1	1571.4
975.4984	2484.4306	2450.55	1568.6
975.6267	2485.7789	2446.2	1569.6
975.755	2487.1264	2435.6	1553.8
975.8833	2488.4733	2429.5	1551.4
976.0115	2489.8195	2433.55	1548.05
976.1397	2491.165	2424.35	1542.1
976.2678	2492.5097	2422.9	1542.75
976.3959	2493.8538	2404.1	1524.7
976.524	2495.1972	2395	1514.35
976.6521	2496.5398	2393.3	1516.35
976.7801	2497.8818	2394.9	1512.1
976.9081	2499.2231	2382.7	1503.35
977.036	2500.5637	2382.25	1498.95
977.164	2501.9035	2378.2	1496.1
977.2918	2503.2427	2363.35	1479.05
977.4197	2504.5812	2359.75	1480
977.5475	2505.919	2354.15	1471.9
977.6753	2507.256	2352.2	1472.75
977.8031	2508.5924	2340.55	1460.3
977.9308	2509.9281	2360.8	1477
978.0585	2511.2631	2341.25	1462.1
978.1861	2512.5974	2328.75	1452.7
978.3137	2513.9309	2330.5	1451.85
978.4413	2515.2638	2340.85	1431.15
978.5689	2516.596	2331.7	1452.2
978.6964	2517.9275	2303.75	1424.35
978.8239	2519.2583	2316.6	1435.75
978.9513	2520.5884	2301.5	1419.55
979.0788	2521.9178	2306.2	1427.7
979.2062	2523.2465	2294.75	1416.9
979.3335	2524.5745	2283.45	1404.2
979.4608	2525.9018	2285.8	1405.2
979.5881	2527.2284	2275.35	1397.25
979.7154	2528.5543	2278.15	1398.65
979.8426	2529.8796	2278.35	1400.75
979.9698	2531.2041	2280.9	1399.3
980.0969	2532.5279	2259.25	1380.2
980.224	2533.851	2274.55	1395.55
980.3511	2535.1735	2259.9	1379.7
980.4781	2536.4952	2256.45	1375.5
980.6052	2537.8163	2255	1373.4
980.7321	2539.1366	2255.45	1376.95
980.8591	2540.4562	2249.3	1367.2
980.986	2541.7752	2246.6	1365.8
981.1129	2543.0935	2245.7	1365.35
981.2397	2544.411	2232.85	1351.35
981.3665	2545.7279	2220.05	1340.5
981.4933	2547.0441	2222.3	1344.2
981.62	2548.3596	2239.85	1354.45
981.7467	2549.6744	2223.5	1345.3
981.8734	2550.9885	2228.25	1338.7
982.0001	2552.3019	2213.2	1335.5
982.1267	2553.6146	2203.3	1320.85
982.2532	2554.9266	2205.05	1324.3
982.3798	2556.2379	2196	1314.15
982.5063	2557.5485	2206.35	1326.8
982.6327	2558.8585	2195.65	1306.65
982.7592	2560.1677	2205.25	1322.35
982.8856	2561.4762	2189.25	1307.7
983.0119	2562.7841	2179.35	1294.15
983.1383	2564.0913	2174.8	1296.05
983.2646	2565.3977	2173.5	1295
983.3908	2566.7035	2180.05	1298.95
983.517	2568.0086	2177.4	1295.6
983.6432	2569.313	2165.95	1284.7
983.7694	2570.6167	2161.85	1277.3
983.8955	2571.9197	2156.3	1276.4
984.0216	2573.222	2172.5	1288.5
984.1476	2574.5236	2159.95	1277.65
984.2737	2575.8246	2153	1270.55
984.3996	2577.1248	2158.1	1276.5
984.5256	2578.4244	2151.75	1270.55
984.6515	2579.7232	2161.55	1281.65
984.7774	2581.0214	2177.75	1269.3
984.9032	2582.3189	2153.4	1275.15
985.029	2583.6157	2155.65	1272.35
985.1548	2584.9118	2142.65	1261.95
985.2806	2586.2072	2127.55	1244.95
985.4063	2587.5019	2132.65	1251
985.5319	2588.7959	2133.2	1252.5
985.6576	2590.0893	2150.4	1268.7
985.7832	2591.3819	2139.55	1257.6
985.9087	2592.6739	2125.6	1243.85
986.0343	2593.9652	2123.6	1241.75
986.1597	2595.2557	2119.5	1239.9
986.2852	2596.5456	2126.8	1244.65
986.4106	2597.8348	2122.1	1239.25
986.536	2599.1234	2116.75	1239.4
986.6614	2600.4112	2118.15	1238.1
986.7867	2601.6983	2113.3	1229.2
986.912	2602.9848	2115.4	1233.8
987.0372	2604.2705	2104.45	1216.6
987.1624	2605.5556	2105.05	1224.65
987.2876	2606.84	2101.5	1221.75
987.4128	2608.1237	2091.6	1211.6
987.5379	2609.4067	2096.8	1216.2
987.6629	2610.689	2090.85	1197.15
987.788	2611.9707	2084.15	1200.5
987.913	2613.2516	2086.25	1201.15
988.0379	2614.5319	2069.9	1190
988.1629	2615.8115	2059.5	1180.6
988.2878	2617.0903	2062.05	1180.25
988.4126	2618.3685	2046.55	1164.25
988.5375	2619.6461	2053.8	1176
988.6622	2620.9229	2051.4	1170.4
988.787	2622.199	2045.35	1162.6
988.9117	2623.4745	2045.95	1164.7
989.0364	2624.7493	2043.35	1164.4
989.161	2626.0234	2050.2	1173.4
989.2857	2627.2968	2034	1153.85
989.4102	2628.5695	2028.45	1146.5
989.5348	2629.8415	2031.55	1151.05
989.6593	2631.1128	2026.85	1145.1
989.7837	2632.3835	2023.55	1143.8
989.9082	2633.6535	2013.45	1134.35
990.0326	2634.9228	2011.55	1132.15
990.1569	2636.1914	2019	1140.9
990.2812	2637.4593	2007.95	1127.7
990.4055	2638.7265	2008.85	1127
990.5298	2639.9931	2014.75	1134.2
990.654	2641.259	2008.2	1128.8
990.7782	2642.5242	2002.3	1121.85
990.9023	2643.7887	1992	1109.8
991.0264	2645.0525	1990.15	1109.15
991.1505	2646.3156	1986.85	1107.7
991.2745	2647.5781	1979.35	1099.75
991.3985	2648.8398	1966.4	1086.75
991.5225	2650.1009	1979	1092.15
991.6464	2651.3613	1969.25	1089.65
991.7703	2652.6211	1974.35	1094.15
991.8942	2653.8801	1954.25	1076.55
992.018	2655.1385	1965	1081.35
992.1418	2656.3961	1951.55	1072.6
992.2655	2657.6531	1964.9	1085.1
992.3892	2658.9094	1953.4	1074.75
992.5129	2660.1651	1950.45	1072.6
992.6366	2661.42	1961.15	1079.7
992.7602	2662.6743	1950.35	1069
992.8837	2663.9279	1960.35	1082.2
993.0073	2665.1808	1960.6	1078.95
993.1307	2666.433	1943.6	1063.75
993.2542	2667.6846	1943.1	1065.9
993.3776	2668.9354	1953.8	1071.25
993.501	2670.1856	1952.35	1072.2
993.6244	2671.4351	1953.4	1075.35
993.7477	2672.6839	1946.95	1065.8
993.8709	2673.9321	1949.1	1070.4
993.9942	2675.1795	1944.3	1063
994.1174	2676.4263	1948.05	1070.6
994.2405	2677.6724	1941.35	1060.25
994.3637	2678.9179	1939.9	1063.8
994.4868	2680.1626	1945.8	1065.65
994.6098	2681.4067	1946.6	1068.65
994.7328	2682.6501	1940.9	1058.4
994.8558	2683.8928	1943.05	1062.9
994.9788	2685.1348	1936.3	1057
995.1017	2686.3761	1914.3	1035.6
995.2245	2687.6168	1931.1	1051.9
995.3474	2688.8568	1911.95	1033.75
995.4702	2690.0961	1912.05	1034.65
995.5929	2691.3348	1898.5	1017.85
995.7156	2692.5727	1897.15	1019.45
995.8383	2693.81	1893.15	1012.7
995.961	2695.0466	1890.15	1012.4
996.0836	2696.2826	1891.8	1012.65
996.2062	2697.5178	1887.4	1003.5
996.3287	2698.7524	1898.75	1021.05
996.4512	2699.9863	1895.65	1012.6
996.5737	2701.2195	1880.3	1003.6
996.6961	2702.452	1894.1	1013.65
996.8185	2703.6839	1896.35	1016.35
996.9408	2704.9151	1891.65	1013.05
997.0631	2706.1456	1900.45	1021.9
997.1854	2707.3755	1896.25	1015.55
997.3077	2708.6046	1902.45	1021
997.4299	2709.8331	1912.4	1030.55
997.552	2711.0609	1915.65	1037.75
997.6742	2712.2881	1926.15	1048.45
997.7963	2713.5145	1923.15	1042
997.9183	2714.7403	1933.5	1054
998.0403	2715.9654	1950.1	1067.65
998.1623	2717.1899	1967.7	1075.15
998.2842	2718.4136	1965.35	1086.4
998.4062	2719.6367	1973.85	1094.55
998.528	2720.8591	1991.1	1104.75
998.6498	2722.0809	1990.6	1111.3
998.7716	2723.3019	2006.55	1126.5
998.8934	2724.5223	2009	1130.25
999.0151	2725.7421	1999.25	1118.95
999.1368	2726.9611	2010.4	1127.5
999.2584	2728.1795	2003.1	1118.4
999.38	2729.3972	1991.1	1113.05
999.5016	2730.6142	1989.85	1100.1
999.6231	2731.8306	1961.15	1081.65
999.7446	2733.0462	1944.5	1062.15
999.8661	2734.2612	1928.6	1044.85
999.9875	2735.4756	1907.7	1025.05
1000.1089	2736.6892	1891.95	1009.65
1000.2302	2737.9022	1869.25	990.85
1000.3515	2739.1145	1858.9	979.15
1000.4728	2740.3262	1849.95	963.05
1000.594	2741.5372	1831.3	953.95
1000.7152	2742.7475	1818.4	937.3
1000.8363	2743.9571	1816.9	934.45
1000.9575	2745.1661	1800.1	916.45
1001.0785	2746.3744	1784.8	904.95
1001.1996	2747.582	1786.7	909.3
1001.3206	2748.7889	1775.4	895.4
1001.4415	2749.9952	1768.9	887.85
1001.5625	2751.2008	1759.9	879.5
1001.6833	2752.4057	1748.9	866.8
1001.8042	2753.61	1746.2	869.8
1001.925	2754.8136	1745.55	863.9
1002.0458	2756.0165	1740.25	862.25
1002.1665	2757.2188	1734.75	856.5
1002.2872	2758.4204	1735.45	854.65
1002.4078	2759.6213	1737.15	856.55
1002.5285	2760.8215	1732.55	851.4
1002.649	2762.0211	1733.4	852.15
1002.7696	2763.22	1722.3	840.7
1002.8901	2764.4182	1727	846.6
1003.0106	2765.6158	1718.5	839
1003.131	2766.8127	1706.35	826
1003.2514	2768.009	1709.65	829.55
1003.3717	2769.2045	1712.95	834.8
1003.492	2770.3994	1709.4	825.15
1003.6123	2771.5936	1691.25	812.7
1003.7325	2772.7872	1691.9	815.35
1003.8527	2773.9801	1686.8	806.7
1003.9729	2775.1723	1701.6	805.9
1004.093	2776.3639	1683.1	803.25
1004.2131	2777.5548	1675.1	794.85
1004.3331	2778.745	1676.25	796.55
1004.4531	2779.9346	1676.2	796.15
1004.5731	2781.1235	1678.2	799.7
1004.693	2782.3117	1685.3	807.2
1004.8129	2783.4992	1687.5	810.1
1004.9328	2784.6861	1690.75	812.9
1005.0526	2785.8723	1690.65	809.2
1005.1723	2787.0579	1705.3	827.75
1005.2921	2788.2428	1705.8	827
1005.4118	2789.427	1705.95	828.7
1005.5314	2790.6106	1715.8	837.25
1005.651	2791.7935	1730.6	853
1005.7706	2792.9757	1727.15	851.4
1005.8902	2794.1573	1751.3	870.7
1006.0097	2795.3382	1753.4	874.8
1006.1291	2796.5184	1766.7	891.25
1006.2485	2797.698	1777.45	896.55
1006.3679	2798.8769	1786.35	910.95
1006.4873	2800.0551	1807.7	929.4
1006.6066	2801.2327	1822.9	941.35
1006.7258	2802.4096	1835.6	959.45
1006.8451	2803.5859	1855.85	976.95
1006.9642	2804.7615	1877.45	999.7
1007.0834	2805.9364	1901.35	1023.4
1007.2025	2807.1106	1915.8	1038.65
1007.3216	2808.2842	1948.45	1068.2
1007.4406	2809.4572	1973.5	1095.3
1007.5596	2810.6294	2019.5	1140.85
1007.6785	2811.801	2051.1	1174.95
1007.7975	2812.972	2082.55	1204.6
1007.9163	2814.1423	2134.4	1256.65
1008.0352	2815.3119	2180.4	1302.7
1008.154	2816.4808	2218.45	1342.3
1008.2727	2817.6491	2265.75	1388.2
1008.3914	2818.8167	2312.65	1435.55
1008.5101	2819.9837	2362.1	1478.4
1008.6288	2821.15	2405.45	1528.15
1008.7474	2822.3157	2458.15	1581.25
1008.8659	2823.4807	2509.6	1633.3
1008.9844	2824.645	2562.3	1682.8
1009.1029	2825.8086	2591.95	1715.55
1009.2214	2826.9716	2632.65	1754.45
1009.3398	2828.134	2685.25	1808.7
1009.4581	2829.2957	2708.9	1830.7
1009.5764	2830.4567	2749.4	1872.6
1009.6947	2831.617	2765.3	1889.85
1009.813	2832.7767	2788.15	1912
1009.9312	2833.9358	2782.7	1906.9
1010.0493	2835.0941	2764.15	1885.1
1010.1675	2836.2519	2754.65	1876
1010.2855	2837.4089	2742.6	1864.75
1010.4036	2838.5653	2728.5	1852.4
1010.5216	2839.7211	2721.95	1847.1
1010.6396	2840.8761	2726.7	1848.9
1010.7575	2842.0306	2769.1	1891.75
1010.8754	2843.1843	2806.15	1930.55
1010.9932	2844.3374	2848.25	1970.5
1011.111	2845.4899	2901	2024.3
1011.2288	2846.6417	2966.2	2089.7
1011.3465	2847.7928	3045.9	2167.85
1011.4642	2848.9433	3118.2	2242.45
1011.5818	2850.0931	3196.15	2321
1011.6995	2851.2422	3266.1	2385.55
1011.817	2852.3907	3334.45	2458.1
1011.9345	2853.5385	3396.1	2516.25
1012.052	2854.6857	3465.1	2562.65
1012.1695	2855.8323	3484.95	2606.75
1012.2869	2856.9781	3537.35	2658.75
1012.4042	2858.1233	3578.3	2700.1
1012.5216	2859.2679	3636.7	2757.95
1012.6389	2860.4118	3691.35	2814.15
1012.7561	2861.555	3721.65	2840.55
1012.8733	2862.6976	3758.95	2879.35
1012.9905	2863.8395	3785.15	2909.75
1013.1076	2864.9808	3806.95	2930.6
1013.2247	2866.1214	3829.8	2954.15
1013.3417	2867.2614	3849	2972.5
1013.4587	2868.4007	3848.55	2969.6
1013.5757	2869.5393	3849.65	2970.15
1013.6926	2870.6773	3875.15	2996.4
1013.8095	2871.8146	3899.05	3019.75
1013.9263	2872.9513	3881.3	3001.95
1014.0431	2874.0874	3868.2	2988.45
1014.1599	2875.2227	3868.25	2989.35
1014.2766	2876.3574	3851.1	2973.4
1014.3933	2877.4915	3822.5	2945.5
1014.51	2878.6249	3782.95	2906.05
1014.6266	2879.7577	3779.75	2901.3
1014.7431	2880.8898	3763.15	2876.2
1014.8596	2882.0212	3729.8	2857.2
1014.9761	2883.152	3728.45	2852.95
1015.0925	2884.2821	3722.85	2846.7
1015.2089	2885.4116	3697.15	2820.95
1015.3253	2886.5405	3709.7	2833.2
1015.4416	2887.6686	3719.9	2840.15
1015.5579	2888.7962	3702.6	2826.5
1015.6741	2889.923	3719.25	2842.65
1015.7903	2891.0493	3723.95	2848.4
1015.9065	2892.1748	3736.05	2858.45
1016.0226	2893.2997	3751.9	2874.45
1016.1387	2894.424	3766.35	2891.05
1016.2547	2895.5476	3791.75	2913.35
1016.3707	2896.6706	3821.65	2946.8
1016.4866	2897.7929	3828.25	2951.5
1016.6025	2898.9145	3856.45	2978.5
1016.7184	2900.0355	3889.95	3011.55
1016.8342	2901.1559	3909.3	3032.75
1016.95	2902.2756	3968.2	3092.9
1017.0658	2903.3946	3992.4	3117.5
1017.1815	2904.513	4013.4	3133.15
1017.2971	2905.6308	4028.95	3154.45
1017.4127	2906.7479	4063.25	3188.25
1017.5283	2907.8643	4094.75	3218.55
1017.6439	2908.9801	4095.95	3221.75
1017.7594	2910.0953	4101.8	3227.45
1017.8748	2911.2098	4113.25	3233.55
1017.9902	2912.3236	4103.15	3221.1
1018.1056	2913.4368	4085.85	3207.8
1018.2209	2914.5494	4075.95	3200.3
1018.3362	2915.6613	4041.1	3159
1018.4515	2916.7725	4003.75	3123.2
1018.5667	2917.8831	3975.3	3099.85
1018.6819	2918.9931	3949.05	3070.45
1018.797	2920.1024	3905.05	3027.7
1018.9121	2921.211	3896.95	3021.05
1019.0271	2922.319	3873.2	2997.05
1019.1421	2923.4264	3857.85	2982.4
1019.2571	2924.5331	3837.5	2963.3
1019.372	2925.6391	3829.1	2953.85
1019.4869	2926.7445	3823.35	2949.65
1019.6017	2927.8493	3808.75	2932.2
1019.7165	2928.9534	3815	2939.4
1019.8313	2930.0569	3813.7	2935.45
1019.946	2931.1597	3800.2	2923.6
1020.0606	2932.2619	3787.75	2912.1
1020.1753	2933.3634	3786.75	2909.6
1020.2899	2934.4643	3780.75	2897.35
1020.4044	2935.5645	3755.7	2874
1020.5189	2936.6641	3736	2855.2
1020.6334	2937.763	3681.35	2807.15
1020.7478	2938.8613	3632.6	2755.85
1020.8622	2939.959	3566.15	2685.25
1020.9765	2941.056	3495.35	2622.6
1021.0908	2942.1523	3412.65	2534.95
1021.2051	2943.248	3337.15	2460.8
1021.3193	2944.3431	3237.3	2361.2
1021.4334	2945.4375	3143.85	2267.8
1021.5476	2946.5313	3025.9	2150.85
1021.6617	2947.6244	2935.5	2058.3
1021.7757	2948.7169	2839	1964.95
1021.8897	2949.8087	2744.65	1870.2
1022.0037	2950.8999	2646.8	1770.85
1022.1176	2951.9904	2579.15	1705.05
1022.2315	2953.0803	2498.85	1621.5
1022.3453	2954.1696	2428.05	1554.05
1022.4591	2955.2582	2373.9	1499.85
1022.5728	2956.3462	2328.8	1453.8
1022.6865	2957.4335	2304.2	1429.2
1022.8002	2958.5202	2258.3	1382
1022.9138	2959.6062	2227.1	1352.25
1023.0274	2960.6916	2213.3	1339.4
1023.141	2961.7764	2187.85	1311.85
1023.2545	2962.8605	2180.9	1304.75
1023.3679	2963.9439	2162.25	1287
1023.4813	2965.0267	2141.9	1266.35
1023.5947	2966.1089	2162.75	1265.05
1023.708	2967.1905	2138.2	1263.65
1023.8213	2968.2714	2135.1	1260.1
1023.9346	2969.3516	2133.8	1258.1
1024.0478	2970.4312	2138.25	1256.35
1024.1609	2971.5102	2136.6	1261.95
1024.274	2972.5885	2128.7	1253.9
1024.3871	2973.6662	2133.7	1253.45
1024.5002	2974.7432	2121.8	1249.9
1024.6132	2975.8196	2123.3	1246.55
1024.7261	2976.8954	2104.3	1228.85
1024.839	2977.9705	2093.2	1217.3
1024.9519	2979.045	2068.15	1192.7
1025.0647	2980.1188	2060.3	1186.65
1025.1775	2981.192	2036.85	1163.2
1025.2902	2982.2645	2027.85	1151.55
1025.4029	2983.3364	2000.1	1124.3
1025.5156	2984.4077	1970.85	1096.95
1025.6282	2985.4783	1953	1071.2
1025.7407	2986.5483	1912.65	1039.35
1025.8532	2987.6177	1877.85	1004.15
1025.9657	2988.6864	1842.45	966.8
1026.0782	2989.7545	1804.2	928.1
1026.1906	2990.8219	1773.45	897.35
1026.3029	2991.8887	1740.75	862.9
1026.4152	2992.9548	1714.65	840.15
1026.5275	2994.0204	1677.55	803.35
1026.6397	2995.0852	1655	782.55
1026.7519	2996.1495	1629.2	753.25
1026.864	2997.2131	1599.2	724.2
1026.9761	2998.276	1582	706.85
1027.0882	2999.3383	1559.05	683.8
1027.2002	3000.4	1539.05	661.6
1027.3122	3001.4611	1526.8	653.5
1027.4241	3002.5215	1499.6	624.5
1027.536	3003.5812	1495.3	620.6
1027.6478	3004.6404	1477.7	602.35
1027.7596	3005.6989	1477.35	599.05
1027.8714	3006.7567	1461.6	587.5
1027.9831	3007.8139	1483.2	577.5
1028.0947	3008.8705	1445.3	570.8
1028.2064	3009.9264	1445.65	567.05
1028.3179	3010.9818	1434.55	558.65
1028.4295	3012.0364	1431.4	556
1028.541	3013.0905	1419.95	545.25
1028.6524	3014.1439	1423.65	547.85
1028.7638	3015.1966	1418.35	545.05
1028.8752	3016.2487	1416.9	542.45
1028.9865	3017.3002	1412.9	535.35
1029.0978	3018.3511	1414.15	538.95
1029.209	3019.4013	1415.35	540.1
1029.3202	3020.4509	1409.6	535.25
1029.4314	3021.4998	1406	531.7
1029.5425	3022.5481	1410.5	537.15
1029.6535	3023.5958	1413.9	539.6
1029.7645	3024.6428	1409.65	533.85
1029.8755	3025.6892	1411.85	536.8
1029.9864	3026.735	1412.7	538.5
1030.0973	3027.7802	1415.55	542.5
1030.2082	3028.8247	1413.7	538.35
1030.319	3029.8685	1421.7	546.7
1030.4297	3030.9118	1422.65	547.3
1030.5404	3031.9544	1421.05	546.85
1030.6511	3032.9963	1428.35	553.25
1030.7617	3034.0376	1420.5	547.6
1030.8723	3035.0783	1438.4	562.05
1030.9829	3036.1184	1436.75	562.35
1031.0934	3037.1578	1442.25	568.1
1031.2038	3038.1966	1435.6	561.25
1031.3142	3039.2348	1438.2	563.55
1031.4246	3040.2723	1452	567.35
1031.5349	3041.3092	1441	568.05
1031.6452	3042.3455	1435.7	559.4
1031.7554	3043.3811	1428	552.5
1031.8656	3044.4161	1428.15	551.85
1031.9758	3045.4505	1424.55	552.3
1032.0859	3046.4842	1415.9	542.4
1032.1959	3047.5173	1417.15	543.7
1032.3059	3048.5498	1404.3	529.1
1032.4159	3049.5816	1399.1	526.25
1032.5258	3050.6128	1397.25	521.25
1032.6357	3051.6434	1394.7	518.85
1032.7455	3052.6734	1385.05	508.3
1032.8553	3053.7027	1374.4	500.1
1032.9651	3054.7314	1364.05	490.45
1033.0748	3055.7594	1367.25	493.75
1033.1845	3056.7868	1356.5	480.65
1033.2941	3057.8136	1353.7	478.75
1033.4037	3058.8398	1350.3	477.8
1033.5132	3059.8653	1343.65	469.45
1033.6227	3060.8902	1342.1	467.9
1033.7321	3061.9145	1331.15	456.85
1033.8415	3062.9381	1333.55	459.15
1033.9509	3063.9612	1338.75	448.85
1034.0602	3064.9835	1317.45	444.05
1034.1694	3066.0053	1312.2	438
1034.2787	3067.0264	1313	440.8
1034.3878	3068.0469	1299.2	423.05
1034.497	3069.0668	1299.85	424.3
1034.6061	3070.086	1289.1	417.6
1034.7151	3071.1046	1274	401.65
1034.8241	3072.1226	1271.6	398.2
1034.9331	3073.1399	1265.7	392.3
1035.042	3074.1567	1250.9	376.35
1035.1508	3075.1727	1249.35	373.75
1035.2597	3076.1882	1229.15	354
1035.3684	3077.203	1223.1	348.9
1035.4772	3078.2173	1217.8	341.65
1035.5859	3079.2308	1213.6	337.6
1035.6945	3080.2438	1203.15	325.75
1035.8031	3081.2561	1196.1	321.75
1035.9117	3082.2678	1185.65	311.05
1036.0202	3083.2789	1178.3	303.3
1036.1286	3084.2893	1173.75	300.5
1036.2371	3085.2991	1169.6	296.4
1036.3454	3086.3083	1168.4	289.1
1036.4538	3087.3169	1157.35	282.75
1036.562	3088.3248	1152.25	275.8
1036.6703	3089.3321	1149.75	275.5
1036.7785	3090.3388	1138.1	265.05
1036.8866	3091.3449	1135.4	262.75
1036.9948	3092.3503	1138.25	263.4
1037.1028	3093.3551	1127.05	254.2
1037.2108	3094.3593	1130.2	256.65
1037.3188	3095.3629	1121.05	249.05
1037.4267	3096.3658	1127.25	251.1
1037.5346	3097.3681	1123.75	248.85
1037.6425	3098.3698	1113.5	236.45
1037.7503	3099.3708	1113.3	234.45
1037.858	3100.3713	1106	233.05
1037.9657	3101.3711	1105.95	229.45
1038.0734	3102.3702	1246.7	231.3
1038.181	3103.3688	1102.9	227.35
1038.2886	3104.3667	1100.1	227.3
1038.3961	3105.364	1097.75	224.6
1038.5036	3106.3607	1096.5	219.6
1038.611	3107.3568	1097.8	222.95
1038.7184	3108.3522	1087.9	214.5
1038.8257	3109.347	1086.8	210.55
1038.933	3110.3412	1094	216.9
1039.0403	3111.3348	1080.5	205.15
1039.1475	3112.3277	1081.1	209.5
1039.2547	3113.32	1076.1	202.6
1039.3618	3114.3117	1082.55	208.2
1039.4689	3115.3028	1079.9	205.65
1039.5759	3116.2932	1081.35	202.8
1039.6829	3117.2831	1076.95	197.3
1039.7898	3118.2723	1071.1	196.5
1039.8967	3119.2608	1070.7	196.1
1040.0035	3120.2488	1068.25	194.75
1040.1103	3121.2361	1067.4	192.9
1040.2171	3122.2229	1065.65	191.05
1040.3238	3123.209	1069	195.4
1040.4305	3124.1944	1062.55	187.7
1040.5371	3125.1793	1065.4	192.55
1040.6437	3126.1635	1058.5	186.2
1040.7502	3127.1471	1057.45	185.7
1040.8567	3128.1301	1056.5	183.8
1040.9631	3129.1125	1052.95	180.3
1041.0695	3130.0942	1053.2	179.7
1041.1759	3131.0753	1063.4	180.6
1041.2822	3132.0558	1056.65	179.75
1041.3884	3133.0357	1052.45	178.25
1041.4946	3134.015	1050	177.45
1041.6008	3134.9936	1053	177.2
1041.7069	3135.9716	1071.8	176.7
1041.813	3136.949	1044.95	171.75
1041.919	3137.9258	1063.75	171.55
1042.025	3138.902	1044.85	165.75
1042.1309	3139.8775	1041.25	167.65
1042.2368	3140.8524	1040.55	168.75
1042.3427	3141.8267	1041.1	164.95
1042.4485	3142.8004	1038.1	164.3
1042.5542	3143.7735	1045.2	167.25
1042.6599	3144.7459	1036.1	160.2
1042.7656	3145.7178	1036.6	162.1
1042.8712	3146.689	1034.8	162.4
1042.9768	3147.6596	1037.05	162.1
1043.0823	3148.6295	1028.45	153.25
1043.1878	3149.5989	1025.2	153.55
1043.2932	3150.5676	1027.6	154.25
1043.3986	3151.5357	1025.15	154.95
1043.5039	3152.5032	1023.15	151.9
1043.6092	3153.4701	1023.2	148.95
1043.7145	3154.4364	1027.35	151.8
1043.8197	3155.402	1023.3	151.05
1043.9248	3156.367	1018.35	144.85
1044.03	3157.3315	1044.1	145.5
1044.135	3158.2952	1021.2	147.95
1044.24	3159.2584	1016.05	141
1044.345	3160.221	1016.7	142.95
1044.4499	3161.1829	1014.35	139.3
1044.5548	3162.1442	1011.9	139.95
1044.6596	3163.105	1015.25	139.9
1044.7644	3164.065	1014.95	143.45
1044.8692	3165.0245	1017.35	143.1
1044.9739	3165.9834	1007.25	136.5
1045.0785	3166.9416	1009.5	135.9
1045.1831	3167.8993	1011.05	137.3
1045.2877	3168.8563	1009.05	135.45
1045.3922	3169.8127	1006.8	135.35
1045.4966	3170.7684	1007.7	134.3
1045.6011	3171.7236	1009.45	136.05
1045.7054	3172.6782	1007.25	135.7
1045.8098	3173.6321	1007.45	135.2
1045.914	3174.5854	1005.25	128.75
1046.0183	3175.5381	1000.65	126.75
1046.1224	3176.4902	1002	130.75
1046.2266	3177.4417	997.9	125.45
1046.3307	3178.3926	997.5	124.6
1046.4347	3179.3428	998.75	126.35
1046.5387	3180.2924	998.75	127.05
1046.6427	3181.2415	1001.95	129.35
1046.7466	3182.1899	996.6	123.25
1046.8504	3183.1377	998.75	126.7
1046.9542	3184.0848	1001	123.3
1047.058	3185.0314	991.95	115.55
1047.1617	3185.9773	993.7	120.3
1047.2654	3186.9227	988.95	116.15
1047.369	3187.8674	991.8	119.5
1047.4726	3188.8115	994.5	116.7
1047.5761	3189.755	992.85	120
1047.6796	3190.6979	988.5	117.4
1047.783	3191.6402	993.45	120.85
1047.8864	3192.5818	988.5	116.55
1047.9898	3193.5229	994.15	113.85
1048.0931	3194.4633	987.2	115.4
1048.1963	3195.4031	987.95	116.4
1048.2995	3196.3423	987.75	114.05
1048.4027	3197.2809	985.85	112.9
1048.5058	3198.2189	984.8	111.65
1048.6089	3199.1563	999.2	110.5
1048.7119	3200.0931	986.55	117.05
1048.8148	3201.0292	980.5	108.7
1048.9178	3201.9648	979.95	107.15
1049.0206	3202.8997	983.65	107.85
1049.1235	3203.834	980.6	107.05
1049.2262	3204.7677	977.7	106
1049.329	3205.7008	981.7	108.5
1049.4317	3206.6333	980.9	109.05
1049.5343	3207.5652	977.55	104.35
1049.6369	3208.4964	979.95	107.2
1049.7394	3209.4271	976	104.1
1049.8419	3210.3571	979.2	105.5
1049.9444	3211.2865	972.45	97.7
1050.0468	3212.2154	976.2	102.4
1050.1491	3213.1436	977.4	101.25
1050.2514	3214.0712	980.6	100.75
1050.3537	3214.9982	975.8	104.5
1050.4559	3215.9246	976.2	102.9
1050.5581	3216.8503	974.2	102.75
1050.6602	3217.7755	972.9	98.65
1050.7623	3218.7001	972.85	100.25
1050.8643	3219.624	973.55	99.6
1050.9663	3220.5473	974.3	100.55
1051.0682	3221.4701	972.35	99.5
1051.1701	3222.3922	971.8	98.1
1051.2719	3223.3137	969.55	98
1051.3737	3224.2346	964.6	92.6
1051.4754	3225.1549	963.6	91
1051.5771	3226.0746	966.3	95
1051.6788	3226.9937	968.25	96.5
1051.7804	3227.9121	966.65	97
1051.8819	3228.83	966.2	94.95
1051.9834	3229.7473	961.9	90
1052.0849	3230.6639	964.9	93.05
1052.1863	3231.5799	966.15	93.05
1052.2876	3232.4954	963.15	89.15
1052.3889	3233.4102	962.7	90.95
1052.4902	3234.3244	964	90.3
1052.5914	3235.238	963	92.35
1052.6926	3236.151	983.2	88.55
1052.7937	3237.0634	961.7	91.7
1052.8948	3237.9752	961.45	89.2
1052.9958	3238.8864	960.7	88.65
1053.0968	3239.797	959.8	88.75
1053.1977	3240.7069	959.35	87.1
1053.2986	3241.6163	959.45	85.05
1053.3994	3242.5251	958.4	86.45
1053.5002	3243.4332	953.25	83
1053.6009	3244.3408	958.25	86.35
1053.7016	3245.2477	954.15	82.65
1053.8022	3246.154	955.55	82.4
1053.9028	3247.0598	955.7	83.8
1054.0034	3247.9649	953.8	80.4
1054.1039	3248.8694	952.25	80.55
1054.2043	3249.7733	952.05	79.9
1054.3047	3250.6766	950.55	78.9
1054.4051	3251.5793	951.5	77.5
1054.5054	3252.4814	947.4	75
1054.6056	3253.3829	949.5	78.5
1054.7058	3254.2838	949.35	77.65
1054.806	3255.1841	949	76.25
1054.9061	3256.0838	947.85	75.75
1055.0061	3256.9829	945.55	75.05
1055.1062	3257.8814	947.4	72.3
1055.2061	3258.7792	949.7	76.6
1055.306	3259.6765	946.6	73.65
1055.4059	3260.5731	945.8	77.1
1055.5057	3261.4692	941.25	71.15
1055.6055	3262.3647	939.65	66.15
1055.7052	3263.2595	940.55	69.15
1055.8049	3264.1538	939.3	68
1055.9045	3265.0474	938.35	65.9
1056.0041	3265.9404	936.9	66.1
1056.1036	3266.8329	932.4	61
1056.2031	3267.7247	945.3	65.75
1056.3025	3268.616	935	65.45
1056.4019	3269.5066	932.5	60.8
1056.5013	3270.3966	932.1	58.55
1056.6005	3271.286	927.1	55.4
