Software Version:	3.9.2.0
Unit SN:	10000200
Spectrometer SN:	6960
Date:	3/8/2024 11:21:25 AM
Data Line Index:	25
Spectral Points:	2048
Integration time (ms):	125
Averages:	20
Delay (ms):	30000
Sequence Number:	1
Processing:	dark subtract
Laser Power (mW):	300
Laser Current (mA):	823
Laser Diode Temp (C):	25.1
Laser Case Temp (C):	24.9
System Temp (C):	24.8
Spectrometer Temp (C):	22.6
CCD Temp (C):	0.005
Secondary Temp (C):	20.007
Heatsink Temp (C):	19.677
CCDPCB Temp (C):	33.239
SecondaryPCB Temp (C):	26.736

Wavelength	RamanShift	Raw Counts	Dark Subtracted
787.061	30.1047	418.25	7.1
787.2016	32.3739	417.45	10.6
787.3422	34.6426	419.45	10.9
787.4828	36.9109	419.65	8.7
787.6235	39.1787	424.2	6.05
787.7642	41.4461	429.35	10.65
787.9049	43.7131	433.65	9.95
788.0456	45.9796	437.8	12.75
788.1863	48.2456	442.75	13.7
788.3271	50.5112	446.05	11.65
788.4679	52.7764	449	14
788.6087	55.0411	456.25	15.1
788.7496	57.3054	458.6	13.35
788.8904	59.5692	462.15	14.1
789.0313	61.8326	468.8	18.7
789.1722	64.0955	471.15	17.25
789.3132	66.3579	481.4	23.8
789.4541	68.6199	485.85	23.85
789.5951	70.8815	496.5	29.6
789.7361	73.1426	517.15	47.8
789.8771	75.4032	558.15	85.2
790.0181	77.6634	649.95	172.6
790.1592	79.9231	866.3	386.9
790.3003	82.1824	1305.55	818.75
790.4414	84.4412	2039.25	1537.55
790.5825	86.6995	2966.2	2450.9
790.7237	88.9574	3868.3	3339.5
790.8648	91.2148	4469.45	3934.25
791.006	93.4717	4751.9	4208.7
791.1472	95.7282	4794.1	4245.8
791.2885	97.9842	4785.2	4238.7
791.4297	100.2398	4729.85	4178.05
791.571	102.4949	4661.6	4103.85
791.7123	104.7495	4618.55	4060.9
791.8536	107.0036	4567.25	4009.2
791.9949	109.2573	4487.95	3928.5
792.1363	111.5105	4379.05	3819
792.2777	113.7632	4262.05	3697.85
792.4191	116.0154	4153.85	3579
792.5605	118.2672	4022.6	3455.1
792.7019	120.5185	3883.4	3314.6
792.8434	122.7693	3766.9	3195.5
792.9849	125.0197	3663.45	3084.4
793.1264	127.2696	3560.9	2980.6
793.2679	129.519	3510.3	2926.35
793.4094	131.7679	3458.9	2874.9
793.551	134.0163	3452.55	2862.15
793.6926	136.2642	3427.6	2833.05
793.8342	138.5117	3435.75	2842.25
793.9758	140.7587	3395.5	2800.9
794.1175	143.0052	3349.1	2749.5
794.2591	145.2512	3287.8	2690.25
794.4008	147.4967	3222.65	2621.8
794.5425	149.7417	3169.4	2565.55
794.6842	151.9863	3121.55	2510.5
794.826	154.2304	3107.45	2492.55
794.9677	156.4739	3083.35	2466.6
795.1095	158.717	3093.7	2473.8
795.2513	160.9596	3134.05	2515.35
795.3931	163.2017	3174.2	2550.15
795.535	165.4433	3200.8	2575.3
795.6768	167.6844	3197.35	2571.9
795.8187	169.925	3164.15	2530.5
795.9606	172.1651	3097.1	2463
796.1025	174.4047	3037.35	2400.4
796.2445	176.6439	2984.1	2346.95
796.3864	178.8825	2942.65	2301.55
796.5284	181.1206	2933.35	2287.55
796.6704	183.3582	2913.5	2263.75
796.8124	185.5954	2914	2262.05
796.9544	187.832	2907.9	2251.75
797.0965	190.0681	2910.7	2251.55
797.2386	192.3037	2931.8	2269
797.3806	194.5388	2928.2	2263.45
797.5228	196.7734	2942	2275.9
797.6649	199.0075	2946.25	2278.9
797.807	201.2411	2983.45	2316.15
797.9492	203.4742	3022.05	2352.2
798.0914	205.7068	3057.65	2381
798.2336	207.9389	3080.55	2404.8
798.3758	210.1704	3100.4	2432.55
798.518	212.4015	3074.05	2411.25
798.6603	214.632	3083.65	2428.05
798.8025	216.862	3087.85	2432.7
798.9448	219.0915	3101.2	2450.85
799.0871	221.3205	3122	2463.25
799.2294	223.549	3130.2	2479
799.3718	225.777	3135.4	2484.75
799.5141	228.0044	3128	2464.85
799.6565	230.2314	3133.1	2471
799.7989	232.4578	3102.35	2434.05
799.9413	234.6837	3092.15	2416.6
800.0837	236.909	3092.2	2413.55
800.2262	239.1339	3074.65	2371.4
800.3687	241.3582	3063.5	2377.4
800.5111	243.582	3090.3	2373.5
800.6536	245.8053	3090.3	2384.1
800.7961	248.0281	3093.4	2393.5
800.9387	250.2503	3099.5	2396.2
801.0812	252.472	3105.6	2397.6
801.2238	254.6932	3107.65	2403.1
801.3664	256.9139	3127.8	2420.3
801.509	259.134	3140.75	2430.2
801.6516	261.3536	3160.3	2453.5
801.7942	263.5727	3204.5	2493.3
801.9369	265.7912	3261.45	2552.35
802.0795	268.0092	3346	2637.85
802.2222	270.2267	3421.35	2706.7
802.3649	272.4436	3483.55	2769.75
802.5076	274.6601	3527.6	2803.25
802.6504	276.8759	3553.9	2835.2
802.7931	279.0913	3593.35	2873.65
802.9359	281.3061	3605	2884.1
803.0787	283.5204	3624.5	2897.85
803.2215	285.7341	3663.05	2935.75
803.3643	287.9473	3702.5	2976.8
803.5071	290.16	3704.8	2974.55
803.6499	292.3721	3647	2923.9
803.7928	294.5837	3590.2	2863.65
803.9357	296.7947	3548.55	2824.7
804.0786	299.0052	3520.4	2793.05
804.2215	301.2152	3504.7	2777
804.3644	303.4246	3497.55	2773.35
804.5074	305.6334	3470.7	2741.5
804.6503	307.8418	3456.5	2725.45
804.7933	310.0495	3431.35	2700.8
804.9363	312.2568	3392.1	2661.25
805.0793	314.4635	3327.2	2593.85
805.2223	316.6696	3267.9	2530.95
805.3653	318.8752	3202.15	2455.2
805.5084	321.0802	3162.85	2422.15
805.6514	323.2847	3153	2413.55
805.7945	325.4887	3151.45	2410.05
805.9376	327.692	3175.1	2431.7
806.0807	329.8949	3226.8	2480.05
806.2238	332.0972	3293.55	2546.05
806.367	334.2989	3345.45	2598.2
806.5101	336.5001	3350.15	2602
806.6533	338.7007	3320.15	2569.45
806.7965	340.9008	3251.4	2498.55
806.9397	343.1003	3176.35	2419.65
807.0829	345.2992	3111.8	2355.2
807.2261	347.4976	3046.85	2289.95
807.3693	349.6955	3009.4	2250.1
807.5126	351.8927	2973.1	2210.9
807.6559	354.0895	2971.95	2201.05
807.7991	356.2856	2941.6	2177.45
807.9424	358.4812	2933.6	2170.7
808.0857	360.6763	2918.15	2150.7
808.2291	362.8707	2923.1	2157.15
808.3724	365.0646	2935.95	2166.2
808.5158	367.258	2937.85	2164.35
808.6591	369.4508	2946.7	2173.3
808.8025	371.643	2996.25	2220.3
808.9459	373.8346	3028.4	2252
809.0893	376.0257	3060.75	2279.1
809.2327	378.2162	3108.75	2331.9
809.3762	380.4062	3116.9	2341.65
809.5196	382.5956	3091.95	2317.05
809.6631	384.7844	3052.55	2281.5
809.8066	386.9726	2982.95	2212.15
809.9501	389.1603	2933.25	2163.95
810.0936	391.3474	2937.55	2134.4
810.2371	393.5339	2912.85	2140.25
810.3806	395.7199	2912.35	2139.9
810.5241	397.9052	2946.4	2175.45
810.6677	400.09	3002.65	2230.25
810.8113	402.2743	3066.95	2294.15
810.9548	404.4579	3110.75	2335.85
811.0984	406.641	3165.35	2387.85
811.2421	408.8235	3221.1	2441.85
811.3857	411.0054	3281.55	2501.45
811.5293	413.1868	3349.25	2565.2
811.673	415.3675	3407.45	2620.8
811.8166	417.5477	3397.7	2607.95
811.9603	419.7273	3338.15	2549.95
812.104	421.9064	3253.85	2457.15
812.2477	424.0848	3179.85	2388.35
812.3914	426.2627	3101.05	2311.5
812.5351	428.4399	3011.1	2217.3
812.6788	430.6166	2941.55	2141.8
812.8226	432.7928	2881.05	2083.5
812.9663	434.9683	2832.05	2034.6
813.1101	437.1432	2796.75	1998.7
813.2539	439.3176	2770.8	1973.45
813.3977	441.4914	2747.6	1951.45
813.5415	443.6645	2740.5	1937.95
813.6853	445.8371	2743.25	1945.35
813.8291	448.0091	2757.4	1958.45
813.973	450.1806	2733.5	1934.05
814.1168	452.3514	2724.2	1921.4
814.2607	454.5216	2745.9	1934.55
814.4046	456.6913	2709.2	1905.3
814.5485	458.8603	2730.45	1929.05
814.6924	461.0288	2749.9	1950.5
814.8363	463.1967	2741.45	1940.3
814.9802	465.3639	2742.5	1938.8
815.1241	467.5306	2734.85	1929.75
815.2681	469.6967	2717.2	1912.95
815.412	471.8622	2704.45	1900.4
815.556	474.0271	2703.55	1900.3
815.7	476.1914	2706.3	1899.45
815.844	478.3551	2690.5	1884.55
815.988	480.5182	2691.95	1886.65
816.132	482.6807	2705.25	1899.5
816.276	484.8426	2707.35	1902.35
816.4201	487.0039	2775.55	1969.55
816.5641	489.1647	2853.05	2046.15
816.7082	491.3248	2913.65	2104.7
816.8522	493.4843	2927.7	2120
816.9963	495.6432	2920.3	2110.55
817.1404	497.8015	2876.1	2062.7
817.2845	499.9592	2832.2	2020.2
817.4286	502.1163	2758.4	1944.55
817.5727	504.2728	2702.15	1888.7
817.7168	506.4287	2652.7	1840.55
817.861	508.5839	2630.45	1817.9
818.0051	510.7386	2623.25	1810.3
818.1493	512.8927	2642.25	1818.95
818.2935	515.0461	2641.4	1826.3
818.4377	517.199	2658.8	1840.45
818.5818	519.3512	2715.45	1898.05
818.726	521.5029	2808.5	1985.45
818.8703	523.6539	2886.7	2066.85
819.0145	525.8043	2910	2088.15
819.1587	527.9541	2833.55	2010.1
819.303	530.1033	2733.8	1912.85
819.4472	532.2519	2665.8	1844.35
819.5915	534.3999	2647.4	1822.4
819.7357	536.5472	2631.7	1808.9
819.88	538.694	2624.25	1800.45
820.0243	540.8401	2637.45	1812.3
820.1686	542.9856	2663.75	1838.3
820.3129	545.1305	2696.4	1870.5
820.4572	547.2748	2708.05	1879.4
820.6016	549.4185	2719.1	1890.65
820.7459	551.5615	2714.25	1883.45
820.8902	553.704	2743.95	1917.55
821.0346	555.8458	2772.35	1944.75
821.1789	557.987	2796.9	1969.85
821.3233	560.1276	2829.15	2002.1
821.4677	562.2675	2915.85	2086.6
821.6121	564.4069	3003	2172.15
821.7565	566.5456	3067.4	2237.35
821.9009	568.6837	3037.6	2206.7
822.0453	570.8212	2930.95	2103.8
822.1897	572.958	2808.8	1979.65
822.3342	575.0942	2731.45	1900.55
822.4786	577.2299	2678.9	1847.6
822.6231	579.3648	2639.8	1810.65
822.7675	581.4992	2622.1	1797.35
822.912	583.6329	2638.3	1812.85
823.0565	585.766	2665	1839.05
823.201	587.8985	2723.1	1894.35
823.3454	590.0304	2807.75	1966.2
823.4899	592.1616	2854.9	2019.65
823.6345	594.2922	2852.85	2017.9
823.779	596.4222	2811.8	1975.1
823.9235	598.5515	2737.55	1901.7
824.068	600.6802	2652.85	1818.15
824.2126	602.8083	2589.55	1753.2
824.3571	604.9358	2551.25	1712.1
824.5017	607.0626	2559	1722.25
824.6462	609.1888	2570.9	1730.1
824.7908	611.3144	2602.3	1762.35
824.9354	613.4393	2654.4	1811.25
825.08	615.5636	2723.9	1882.85
825.2246	617.6873	2794.1	1956.65
825.3692	619.8103	2846	2005.45
825.5138	621.9327	2845.5	2002.65
825.6584	624.0544	2795.55	1958
825.803	626.1756	2715.6	1875
825.9477	628.2961	2643.4	1800.15
826.0923	630.4159	2611.6	1767.7
826.237	632.5351	2595.7	1750.25
826.3816	634.6537	2580.95	1735.6
826.5263	636.7716	2569.75	1724.5
826.6709	638.8889	2553.9	1706.4
826.8156	641.0056	2564.1	1716.8
826.9603	643.1216	2589.15	1741.5
827.105	645.237	2597.25	1750.75
827.2497	647.3518	2570.2	1724.9
827.3944	649.4659	2536.85	1692.75
827.5391	651.5793	2508.9	1664.35
827.6838	653.6922	2486.05	1642.1
827.8285	655.8043	2468.25	1624.35
827.9733	657.9159	2450.85	1600.75
828.118	660.0268	2443.4	1592.65
828.2627	662.137	2447.9	1597.8
828.4075	664.2466	2441.05	1589
828.5522	666.3556	2443.35	1592.95
828.697	668.4639	2437.75	1586.15
828.8418	670.5716	2431.15	1582.7
828.9865	672.6786	2429.55	1581.2
829.1313	674.785	2405.1	1553.75
829.2761	676.8907	2395.7	1545.75
829.4209	678.9958	2391	1543.4
829.5657	681.1002	2396.85	1542.05
829.7105	683.204	2400.85	1542.35
829.8553	685.3072	2390.75	1537.85
830.0001	687.4097	2387.4	1536.5
830.1449	689.5115	2394.85	1540.15
830.2898	691.6127	2389.1	1537
830.4346	693.7132	2377.7	1526.65
830.5794	695.8131	2397.8	1531.2
830.7243	697.9123	2394.85	1538.45
830.8691	700.0109	2401.4	1543.55
831.014	702.1089	2404.75	1552.8
831.1588	704.2061	2423.3	1567.35
831.3037	706.3028	2450.1	1592
831.4486	708.3987	2478.1	1618.85
831.5935	710.4941	2509.3	1654.25
831.7383	712.5887	2515.9	1659.75
831.8832	714.6827	2496.05	1637.45
832.0281	716.7761	2487.1	1632.45
832.173	718.8688	2483.1	1628.2
832.3179	720.9608	2483.15	1618.45
832.4628	723.0522	2510.35	1646.2
832.6077	725.1429	2531.35	1670.85
832.7527	727.233	2579.55	1719.05
832.8976	729.3224	2655.4	1795.9
833.0425	731.4112	2734.2	1872.45
833.1874	733.4993	2756.3	1891.9
833.3324	735.5867	2697.2	1834.9
833.4773	737.6735	2592.6	1731.65
833.6222	739.7596	2509.85	1645.95
833.7672	741.845	2464.15	1602.05
833.9122	743.9298	2437.45	1573.8
834.0571	746.014	2449.9	1588.65
834.2021	748.0974	2465.35	1600.5
834.347	750.1802	2471	1606.65
834.492	752.2624	2459.4	1595.7
834.637	754.3439	2440.4	1577.6
834.782	756.4247	2448.45	1572.45
834.9269	758.5048	2444.35	1580.25
835.0719	760.5843	2465.15	1597.3
835.2169	762.6631	2510.1	1645.15
835.3619	764.7413	2579.45	1712.8
835.5069	766.8188	2684.6	1816.35
835.6519	768.8956	2804.85	1938.2
835.7969	770.9718	2882.85	2014.7
835.9419	773.0473	2869.65	2004.65
836.0869	775.1221	2820.85	1955.8
836.232	777.1962	2796.25	1928.05
836.377	779.2697	2877	2007.95
836.522	781.3426	3023.85	2137.65
836.667	783.4147	3121.15	2249.65
836.8121	785.4862	3124	2258.05
836.9571	787.557	3005.6	2134.3
837.1021	789.6271	2836.75	1966.85
837.2472	791.6966	2648.95	1780.05
837.3922	793.7654	2512.6	1644.75
837.5373	795.8335	2440.75	1573.05
837.6823	797.901	2390.1	1521.05
837.8274	799.9678	2379.65	1508.4
837.9724	802.0339	2375.6	1506.9
838.1175	804.0993	2385.65	1504.9
838.2626	806.1641	2374.6	1505
838.4076	808.2282	2350.7	1477.45
838.5527	810.2916	2323.95	1454.4
838.6978	812.3544	2296.35	1428.5
838.8428	814.4164	2302.3	1435
838.9879	816.4778	2310.15	1439.15
839.133	818.5385	2319.3	1448.95
839.2781	820.5986	2358.3	1489.45
839.4232	822.658	2427	1552.85
839.5682	824.7166	2516.8	1645.95
839.7133	826.7747	2642.3	1770.45
839.8584	828.832	2739.65	1865.8
840.0035	830.8886	2823.5	1948.45
840.1486	832.9446	2852.95	1978.95
840.2937	834.9999	2812.2	1939.65
840.4388	837.0545	2735.7	1861.15
840.5839	839.1085	2619.9	1744.1
840.729	841.1618	2509.2	1633.95
840.8741	843.2143	2432.7	1560.05
841.0192	845.2662	2384.1	1510.1
841.1643	847.3175	2365.65	1492.4
841.3095	849.368	2344.7	1472.35
841.4546	851.4179	2338.95	1466.1
841.5997	853.467	2338.55	1464.35
841.7448	855.5155	2346.9	1471.1
841.8899	857.5633	2360.95	1486.65
842.0351	859.6105	2347.15	1471.8
842.1802	861.6569	2341.1	1467.85
842.3253	863.7027	2311.75	1437.4
842.4704	865.7478	2296.85	1419.55
842.6156	867.7922	2269.95	1396.25
842.7607	869.8359	2271.55	1393.6
842.9058	871.8789	2273.45	1396.2
843.0509	873.9212	2286.15	1377.4
843.1961	875.9629	2267.05	1391.05
843.3412	878.0039	2286.25	1407.5
843.4863	880.0441	2292.6	1417.35
843.6315	882.0837	2325.9	1447.8
843.7766	884.1226	2339.45	1461.25
843.9218	886.1609	2389.5	1514.35
844.0669	888.1984	2461.75	1585.05
844.212	890.2352	2533.45	1657.8
844.3572	892.2714	2550.85	1670.2
844.5023	894.3069	2521.9	1645.25
844.6475	896.3416	2439.4	1560.45
844.7926	898.3757	2378.5	1501.45
844.9377	900.4091	2346.95	1467.7
845.0829	902.4418	2358.4	1475.75
845.228	904.4739	2384.3	1502.35
845.3732	906.5052	2397.55	1517.75
845.5183	908.5358	2410.25	1532.6
845.6635	910.5658	2376.15	1495.3
845.8086	912.595	2330.95	1451.45
845.9538	914.6236	2285.65	1405.8
846.0989	916.6515	2232.8	1353.75
846.2441	918.6786	2213.65	1329.8
846.3892	920.7051	2193.75	1312.7
846.5344	922.7309	2206.65	1325.6
846.6795	924.756	2196.6	1313.85
846.8246	926.7804	2223.4	1342.7
846.9698	928.8041	2231.15	1350.8
847.1149	930.8272	2255.45	1375.55
847.2601	932.8495	2253.4	1370.5
847.4052	934.8711	2278	1395.45
847.5504	936.892	2277.15	1397.6
847.6955	938.9123	2310.55	1427.2
847.8407	940.9318	2339.7	1457.5
847.9858	942.9506	2357.25	1473.5
848.131	944.9688	2349.7	1467.2
848.2761	946.9862	2329.95	1447.55
848.4213	949.003	2287.35	1403.55
848.5664	951.019	2249.5	1368.75
848.7115	953.0344	2216	1332.8
848.8567	955.0491	2203.5	1319.35
849.0018	957.063	2190.25	1308.6
849.147	959.0763	2183.25	1301.9
849.2921	961.0888	2173.95	1290.75
849.4373	963.1007	2179.6	1297.05
849.5824	965.1119	2170.4	1291.75
849.7275	967.1223	2151.45	1272.05
849.8727	969.1321	2147.8	1268.1
850.0178	971.1412	2138.3	1260.7
850.1629	973.1495	2140.9	1260
850.3081	975.1572	2171.7	1257.55
850.4532	977.1641	2146.55	1262.15
850.5983	979.1704	2147.2	1263.25
850.7435	981.1759	2144.05	1257.95
850.8886	983.1808	2135.15	1251.5
851.0337	985.1849	2121	1221.8
851.1788	987.1884	2118.85	1232.9
851.324	989.1911	2117.45	1230.7
851.4691	991.1932	2130.05	1247.15
851.6142	993.1945	2145.4	1264.25
851.7593	995.1951	2133.2	1247.55
851.9045	997.1951	2128.35	1238.85
852.0496	999.1943	2114.9	1230.8
852.1947	1001.1928	2124.35	1241.95
852.3398	1003.1906	2135.7	1251.5
852.4849	1005.1877	2180.6	1298.25
852.63	1007.1841	2208.1	1321.1
852.7751	1009.1798	2235.3	1351.1
852.9202	1011.1748	2221.25	1336.95
853.0653	1013.1691	2185.9	1301.8
853.2104	1015.1627	2135.05	1249.05
853.3555	1017.1556	2096.1	1209.85
853.5006	1019.1477	2069.8	1184.7
853.6457	1021.1392	2046.1	1163.4
853.7908	1023.1299	2041	1160
853.9359	1025.12	2040.8	1157.3
854.081	1027.1093	2045.75	1166.85
854.2261	1029.0979	2067.7	1192.9
854.3712	1031.0859	2101.95	1224.25
854.5163	1033.0731	2118.75	1236.9
854.6613	1035.0596	2119.25	1234.05
854.8064	1037.0454	2114.5	1229.15
854.9515	1039.0304	2089.55	1202.25
855.0965	1041.0148	2068.25	1183.5
855.2416	1042.9985	2031.05	1145.25
855.3867	1044.9814	2024.55	1136.85
855.5317	1046.9636	2007.3	1119.1
855.6768	1048.9452	2023.8	1138.05
855.8219	1050.926	2045.5	1160
855.9669	1052.9061	2068.55	1185.25
856.112	1054.8855	2082.75	1195.85
856.257	1056.8642	2068.2	1181.25
856.4021	1058.8421	2077.35	1186.3
856.5471	1060.8194	2071.15	1180.35
856.6921	1062.7959	2066.3	1179.15
856.8372	1064.7717	2060.7	1173.2
856.9822	1066.7469	2059.95	1172.25
857.1272	1068.7213	2057.65	1168
857.2723	1070.695	2082.25	1198.1
857.4173	1072.6679	2102.6	1216.05
857.5623	1074.6402	2140.85	1254.3
857.7073	1076.6117	2170.85	1276.75
857.8523	1078.5826	2133.35	1247.25
857.9973	1080.5527	2092.05	1201
858.1423	1082.5221	2034.65	1147.6
858.2873	1084.4908	1996.9	1110
858.4323	1086.4587	1982.6	1093.45
858.5773	1088.426	1969.55	1082.25
858.7223	1090.3925	1968.05	1074.5
858.8673	1092.3584	1976.7	1088.2
859.0123	1094.3235	1982.55	1097.4
859.1573	1096.2879	2004.1	1114.75
859.3022	1098.2515	2037.65	1150.9
859.4472	1100.2145	2067.35	1180.15
859.5922	1102.1767	2113.35	1221.2
859.7371	1104.1382	2171.95	1282.7
859.8821	1106.099	2235.3	1344.35
860.027	1108.0591	2301.7	1415.7
860.172	1110.0185	2358.55	1469.1
860.3169	1111.9771	2405	1518.45
860.4619	1113.9351	2473.9	1585.15
860.6068	1115.8923	2559.9	1671.3
860.7517	1117.8488	2604.25	1713.85
860.8967	1119.8045	2556	1667.5
861.0416	1121.7596	2432.35	1541.55
861.1865	1123.7139	2288.15	1400.25
861.3314	1125.6675	2195.2	1306
861.4763	1127.6204	2199.4	1312.25
861.6212	1129.5726	2212.65	1325.9
861.7661	1131.524	2228.5	1341.6
861.911	1133.4748	2178.35	1288.55
862.0559	1135.4248	2097.1	1206.25
862.2008	1137.3741	2025.3	1137.55
862.3457	1139.3226	1993.9	1102.95
862.4905	1141.2705	1980.15	1091.55
862.6354	1143.2176	2008.6	1113.5
862.7803	1145.164	2022.2	1132.9
862.9251	1147.1097	2019.05	1127.15
863.07	1149.0546	1992.8	1104.25
863.2148	1150.9989	1952.75	1063.95
863.3597	1152.9424	1926.45	1035.35
863.5045	1154.8852	1911	1021.8
863.6493	1156.8272	1905.05	1016.8
863.7942	1158.7686	1894.7	998.25
863.939	1160.7092	1901.1	1007.5
864.0838	1162.6491	1898.05	1007.15
864.2286	1164.5883	1908.8	1019.95
864.3734	1166.5267	1935.75	1045
864.5182	1168.4644	1969.5	1080.05
864.663	1170.4014	1991.8	1099.25
864.8078	1172.3377	2049.8	1162.55
864.9526	1174.2732	2111.9	1222.8
865.0974	1176.2081	2225.1	1338.8
865.2421	1178.1421	2393.15	1503
865.3869	1180.0755	2555.65	1667.5
865.5317	1182.0082	2662.75	1776
865.6764	1183.9401	2666.25	1777.6
865.8212	1185.8713	2537.6	1650
865.9659	1187.8017	2359.4	1474.7
866.1106	1189.7315	2193.3	1308.2
866.2554	1191.6605	2112.1	1200.7
866.4001	1193.5888	2027.8	1142.6
866.5448	1195.5163	1988.4	1100.9
866.6895	1197.4432	1962.6	1071
866.8342	1199.3693	1934.25	1048
866.9789	1201.2947	1914.75	1021.65
867.1236	1203.2193	1901.6	1010.55
867.2683	1205.1432	1905.4	1016.1
867.413	1207.0664	1904.35	1013.7
867.5576	1208.9889	1909.45	1015.65
867.7023	1210.9106	1891.1	1001.6
867.847	1212.8316	1901.8	1013.65
867.9916	1214.7519	1924.55	1026.5
868.1363	1216.6715	1931.6	1041.75
868.2809	1218.5903	1942.9	1051.75
868.4255	1220.5084	1956.6	1066.75
868.5701	1222.4257	1983.3	1095.25
868.7148	1224.3424	1999.85	1112.55
868.8594	1226.2583	2018.85	1122.75
869.004	1228.1735	2055.25	1164.2
869.1486	1230.0879	2105.15	1215.05
869.2932	1232.0016	2157.85	1269.05
869.4377	1233.9146	2198.4	1306.5
869.5823	1235.8269	2225.75	1334.7
869.7269	1237.7384	2231.75	1342.95
869.8715	1239.6492	2232.2	1341.55
870.016	1241.5592	2260.2	1366.95
870.1606	1243.4686	2299.1	1411.65
870.3051	1245.3772	2392.25	1504.1
870.4496	1247.285	2505.65	1614.05
870.5941	1249.1922	2622.1	1731.5
870.7387	1251.0986	2713.15	1823.45
870.8832	1253.0042	2812.3	1921.3
871.0277	1254.9092	2929	2038.45
871.1722	1256.8134	3035.5	2145.55
871.3167	1258.7169	3184	2292.75
871.4611	1260.6196	3256.45	2365.5
871.6056	1262.5216	3300.9	2410.1
871.7501	1264.4229	3283.9	2394.7
871.8945	1266.3234	3244.35	2355.65
872.039	1268.2232	3171.9	2281
872.1834	1270.1223	3085.15	2193.8
872.3278	1272.0207	3037.35	2145.45
872.4723	1273.9183	3008.75	2110.4
872.6167	1275.8151	3019.6	2127.35
872.7611	1277.7113	3044.25	2150.8
872.9055	1279.6067	3150.75	2259.15
873.0499	1281.5014	3331.35	2437.25
873.1943	1283.3953	3583.7	2690.15
873.3386	1285.2885	3850.8	2958.3
873.483	1287.181	4055.65	3162.7
873.6274	1289.0727	4172.6	3283.55
873.7717	1290.9637	4094.85	3205.1
873.9161	1292.854	3956.25	3063.45
874.0604	1294.7435	3784.7	2890.65
874.2047	1296.6323	3603.85	2712.15
874.349	1298.5204	3453.35	2558.4
874.4933	1300.4077	3330.45	2436.9
874.6376	1302.2943	3268.6	2378.7
874.7819	1304.1802	3220.3	2329.3
874.9262	1306.0653	3167.25	2276.75
875.0705	1307.9497	3124.7	2232.65
875.2147	1309.8333	3086.1	2194.65
875.359	1311.7162	3048.3	2157.2
875.5032	1313.5984	3013.8	2119.9
875.6475	1315.4798	2982.2	2073.75
875.7917	1317.3605	2977.9	2082.65
875.9359	1319.2405	3000.45	2107.25
876.0801	1321.1197	2984.2	2089.95
876.2243	1322.9982	2938.15	2042.05
876.3685	1324.876	2851.25	1959.7
876.5127	1326.753	2726.1	1834.2
876.6569	1328.6293	2611.45	1718.65
876.801	1330.5048	2486	1593.65
876.9452	1332.3796	2363.2	1471.15
877.0893	1334.2537	2312.35	1396.6
877.2335	1336.127	2207.9	1316.45
877.3776	1337.9996	2170.35	1276.65
877.5217	1339.8714	2145.45	1251.15
877.6658	1341.7426	2161.15	1225
877.8099	1343.6129	2112.1	1219.3
877.954	1345.4826	2079.85	1186.55
878.0981	1347.3515	2060.15	1166.5
878.2422	1349.2196	2040.8	1147.65
878.3862	1351.087	2030.7	1137.3
878.5303	1352.9537	2022.1	1128.15
878.6743	1354.8197	2029.8	1136.85
878.8184	1356.6849	2040.9	1147.05
878.9624	1358.5493	2045.1	1152.35
879.1064	1360.4131	2091.65	1200.6
879.2504	1362.276	2127.15	1236.95
879.3944	1364.1383	2186.3	1296.4
879.5384	1365.9998	2212.95	1313.6
879.6823	1367.8606	2190.75	1299.5
879.8263	1369.7206	2181.25	1286.9
879.9702	1371.5799	2187	1291.25
880.1142	1373.4384	2173.45	1281.05
880.2581	1375.2962	2140.35	1245
880.402	1377.1533	2079.35	1185
880.5459	1379.0096	2006.6	1115.85
880.6898	1380.8652	1957.25	1065.9
880.8337	1382.7201	1923.45	1030.8
880.9776	1384.5742	1896.35	1003
881.1215	1386.4275	1865.85	972.45
881.2653	1388.2802	1837.05	945
881.4092	1390.132	1819.5	924.05
881.553	1391.9832	1810.35	915.45
881.6968	1393.8336	1798.05	906.1
881.8406	1395.6832	1786.05	893.85
881.9844	1397.5322	1778.15	886.3
882.1282	1399.3803	1775.9	877.35
882.272	1401.2278	1761.4	869.9
882.4158	1403.0745	1748.6	857.1
882.5595	1404.9204	1734.35	843.25
882.7033	1406.7656	1728.2	835.45
882.847	1408.6101	1722.95	829.95
882.9908	1410.4538	1714.9	824.3
883.1345	1412.2968	1718.8	825
883.2782	1414.139	1714.65	820.2
883.4219	1415.9805	1724.3	832.8
883.5656	1417.8213	1750.6	850.7
883.7092	1419.6613	1756.55	862.85
883.8529	1421.5006	1797.1	904.75
883.9965	1423.3391	1861.15	966.55
884.1402	1425.1769	1926.85	1034.35
884.2838	1427.0139	2022.2	1129.5
884.4274	1428.8502	2139.05	1245.45
884.571	1430.6858	2232.8	1339.65
884.7146	1432.5206	2275.9	1382.35
884.8582	1434.3547	2271.8	1380.55
885.0018	1436.188	2238	1345.6
885.1453	1438.0206	2213.75	1320.35
885.2889	1439.8524	2188.1	1297.4
885.4324	1441.6835	2199.9	1307.35
885.5759	1443.5139	2201.95	1307.35
885.7194	1445.3435	2204.1	1313.25
885.8629	1447.1724	2210.05	1318.45
886.0064	1449.0005	2197.55	1304.75
886.1499	1450.8279	2186.6	1294.25
886.2933	1452.6545	2183.85	1292.7
886.4368	1454.4804	2188.1	1295.25
886.5802	1456.3056	2169.5	1273.4
886.7237	1458.13	2154.2	1264.7
886.8671	1459.9536	2123.9	1232
887.0105	1461.7766	2077.9	1186.05
887.1539	1463.5987	2006.95	1112.25
887.2972	1465.4202	1961.8	1069.65
887.4406	1467.2409	1915.35	1023.85
887.584	1469.0608	1875.3	982.3
887.7273	1470.88	1833.7	940.3
887.8706	1472.6984	1790	896.1
888.0139	1474.5161	1753.15	858.7
888.1572	1476.3331	1742.65	852.8
888.3005	1478.1493	1726.05	833
888.4438	1479.9648	1721.2	830.1
888.5871	1481.7795	1729.75	836.05
888.7303	1483.5935	1711.5	819.4
888.8736	1485.4067	1720.5	825
889.0168	1487.2192	1716.15	823.75
889.16	1489.031	1724.3	829
889.3032	1490.842	1723.35	833.6
889.4464	1492.6522	1728	836.65
889.5896	1494.4618	1721.95	829.5
889.7327	1496.2705	1708.55	816.4
889.8759	1498.0785	1714.15	821.1
890.019	1499.8858	1696.1	803.4
890.1622	1501.6924	1687	793.35
890.3053	1503.4981	1680.2	789.45
890.4484	1505.3032	1674.7	782.1
890.5914	1507.1075	1664.4	772.85
890.7345	1508.911	1662.5	770.2
890.8776	1510.7138	1653.75	760.5
891.0206	1512.5159	1641.15	750.3
891.1637	1514.3172	1633.6	744.7
891.3067	1516.1178	1626.25	736.1
891.4497	1517.9176	1618.85	725.8
891.5927	1519.7166	1607.65	716.3
891.7357	1521.515	1600.05	699.4
891.8786	1523.3126	1584.9	692.1
892.0216	1525.1094	1587.15	691.8
892.1645	1526.9055	1575.15	684.25
892.3074	1528.7008	1577.1	684.3
892.4503	1530.4954	1574.85	678.1
892.5932	1532.2893	1577.15	687.85
892.7361	1534.0824	1571.45	674.75
892.879	1535.8747	1564.15	671.3
893.0218	1537.6663	1571	680.35
893.1647	1539.4572	1572.35	679.55
893.3075	1541.2473	1568.15	677.3
893.4503	1543.0367	1572.1	682.85
893.5931	1544.8253	1571.65	675.95
893.7359	1546.6132	1574.9	679.35
893.8787	1548.4003	1585.6	683.2
894.0214	1550.1867	1588.85	686.3
894.1642	1551.9723	1607.8	712.9
894.3069	1553.7572	1612.7	721.6
894.4496	1555.5414	1639.25	748.5
894.5923	1557.3247	1671.5	780.8
894.735	1559.1074	1715.7	829.25
894.8777	1560.8893	1762.6	871.95
895.0204	1562.6705	1826.8	935.95
895.163	1564.4509	1853.95	963.95
895.3056	1566.2305	1885.75	998.75
895.4482	1568.0094	1886.35	994.5
895.5908	1569.7876	1882	992.05
895.7334	1571.565	1868.9	978.45
895.876	1573.3417	1877.2	987.95
896.0186	1575.1176	1881.1	993
896.1611	1576.8928	1904.5	1015.35
896.3036	1578.6672	1926.75	1041.85
896.4461	1580.4409	1967.1	1082.1
896.5886	1582.2138	2019.5	1130.05
896.7311	1583.986	2080.35	1189.55
896.8736	1585.7575	2120.1	1230.05
897.0161	1587.5282	2166.65	1280.25
897.1585	1589.2981	2203.95	1317.15
897.3009	1591.0673	2220.7	1333.35
897.4433	1592.8358	2236.55	1349.65
897.5857	1594.6035	2238.6	1348
897.7281	1596.3704	2227.95	1337.85
897.8705	1598.1366	2199.1	1309.5
898.0128	1599.9021	2154.9	1269.3
898.1551	1601.6668	2125.1	1234.7
898.2975	1603.4308	2105.05	1213
898.4398	1605.194	2095.5	1201.15
898.5821	1606.9564	2124.4	1237.15
898.7243	1608.7182	2192.7	1304
898.8666	1610.4791	2303.9	1419.9
899.0088	1612.2394	2444.05	1557.5
899.1511	1613.9988	2575.4	1689.3
899.2933	1615.7576	2695.95	1808.05
899.4355	1617.5156	2775.15	1881.25
899.5776	1619.2728	2741.7	1852.85
899.7198	1621.0293	2629.65	1740.7
899.862	1622.785	2479.9	1589.7
900.0041	1624.54	2299.45	1410.5
900.1462	1626.2942	2152.35	1262.8
900.2883	1628.0477	2005.15	1114.25
900.4304	1629.8005	1891.65	999.9
900.5725	1631.5525	1798	911.8
900.7145	1633.3037	1723.5	836.55
900.8566	1635.0542	1667.6	780.7
900.9986	1636.804	1618.75	731.05
901.1406	1638.553	1642.55	693.65
901.2826	1640.3013	1557.6	670.35
901.4245	1642.0488	1536.3	647.9
901.5665	1643.7955	1513.75	628.25
901.7085	1645.5416	1494.85	608.05
901.8504	1647.2868	1484.35	598.65
901.9923	1649.0313	1476.45	589.45
902.1342	1650.7751	1469.75	581.3
902.2761	1652.5181	1466.8	578.5
902.4179	1654.2604	1461.25	571.7
902.5598	1656.0019	1464.9	577.15
902.7016	1657.7427	1481.3	596.6
902.8434	1659.4828	1508.55	619.05
902.9852	1661.222	1544.95	656.15
903.127	1662.9606	1595.55	709.05
903.2687	1664.6984	1647.3	760.15
903.4105	1666.4354	1662.55	774.65
903.5522	1668.1717	1640	751.85
903.6939	1669.9072	1593.05	704.75
903.8356	1671.642	1525.35	636.05
903.9773	1673.3761	1474.1	586.1
904.119	1675.1094	1426.4	538.05
904.2606	1676.8419	1404.7	515.5
904.4022	1678.5737	1376.75	488.15
904.5439	1680.3048	1374.65	485.95
904.6855	1682.0351	1353.15	465.65
904.827	1683.7646	1344.75	451.5
904.9686	1685.4934	1342.25	457.2
905.1101	1687.2215	1335.85	446.4
905.2517	1688.9488	1321.3	433.9
905.3932	1690.6754	1328.35	440.65
905.5347	1692.4012	1320.7	431.3
905.6761	1694.1263	1314.15	424.4
905.8176	1695.8506	1320.55	431.7
905.9591	1697.5742	1310.7	423.1
906.1005	1699.297	1298.95	410.4
906.2419	1701.0191	1300.6	412.25
906.3833	1702.7404	1295.4	409.3
906.5246	1704.461	1296.75	405.9
906.666	1706.1808	1295.4	406.95
906.8073	1707.8999	1291.15	402.4
906.9487	1709.6182	1280.9	395
907.09	1711.3358	1280.35	393.3
907.2313	1713.0527	1278.95	394.4
907.3725	1714.7688	1285.15	393.3
907.5138	1716.4841	1273.05	384.4
907.655	1718.1987	1278.2	386.35
907.7962	1719.9126	1270.4	385.6
907.9374	1721.6257	1267.25	379.15
908.0786	1723.338	1268.9	382.9
908.2198	1725.0496	1264.45	378.1
908.3609	1726.7605	1267	381.15
908.502	1728.4706	1272.55	387.15
908.6431	1730.18	1264.7	376.45
908.7842	1731.8886	1263.9	376.6
908.9253	1733.5964	1277.5	369.75
909.0664	1735.3036	1262.45	370.75
909.2074	1737.0099	1250.55	361.8
909.3484	1738.7156	1253.45	369.9
909.4894	1740.4204	1251.15	361.75
909.6304	1742.1246	1256.15	367.55
909.7714	1743.8279	1255.55	371.4
909.9123	1745.5306	1249.85	361.6
910.0532	1747.2325	1247.45	363.4
910.1941	1748.9336	1246.5	359.65
910.335	1750.634	1243	354.1
910.4759	1752.3336	1244.4	357.75
910.6168	1754.0325	1248.45	364.05
910.7576	1755.7307	1248.8	362.2
910.8984	1757.4281	1242.15	354.75
911.0392	1759.1247	1253.5	358.7
911.18	1760.8206	1244.1	350.4
911.3208	1762.5158	1245.35	352.35
911.4615	1764.2102	1239.6	352.6
911.6022	1765.9039	1237.5	350.75
911.7429	1767.5968	1238.6	352.3
911.8836	1769.289	1236.45	350.25
912.0243	1770.9804	1234.8	347.3
912.1649	1772.6711	1233.55	345.5
912.3056	1774.361	1235.45	347.95
912.4462	1776.0502	1233.3	345.85
912.5868	1777.7386	1232.95	343.1
912.7274	1779.4263	1229.4	343.15
912.8679	1781.1132	1232.8	349.45
913.0084	1782.7994	1228.9	340.35
913.149	1784.4849	1222.35	336.2
913.2895	1786.1696	1242.85	337.7
913.4299	1787.8535	1224.45	338.3
913.5704	1789.5367	1218.7	334.35
913.7108	1791.2192	1221.3	337.45
913.8513	1792.9009	1237.75	336.2
913.9917	1794.5818	1224.45	337.05
914.132	1796.2621	1221.9	336.2
914.2724	1797.9415	1225	339.65
914.4128	1799.6202	1212.5	325.9
914.5531	1801.2982	1222.8	335.25
914.6934	1802.9755	1222.35	336.15
914.8337	1804.6519	1215.1	327
914.9739	1806.3277	1212.3	327.1
915.1142	1808.0027	1205	320.6
915.2544	1809.6769	1204.35	316.85
915.3946	1811.3504	1208.3	321.1
915.5348	1813.0231	1207.55	319.45
915.675	1814.6951	1203.6	318.7
915.8151	1816.3664	1209.35	320
915.9553	1818.0369	1207.8	321.5
916.0954	1819.7067	1204.45	318.95
916.2355	1821.3757	1208.3	319.7
916.3755	1823.044	1207.75	321.25
916.5156	1824.7115	1212.9	325.25
916.6556	1826.3783	1210.15	325.4
916.7956	1828.0443	1204.9	319.6
916.9356	1829.7096	1204.6	318
917.0756	1831.3741	1203.9	314.3
917.2155	1833.0379	1201.45	315.45
917.3555	1834.701	1198.35	313.15
917.4954	1836.3633	1198.2	311.75
917.6353	1838.0248	1196.05	308.45
917.7751	1839.6856	1197.2	309.85
917.915	1841.3457	1189.4	305.1
918.0548	1843.005	1195.05	306.35
918.1946	1844.6636	1198.15	313.7
918.3344	1846.3214	1194.4	308.7
918.4742	1847.9785	1189.45	303.6
918.6139	1849.6349	1187.9	299.85
918.7537	1851.2904	1200.95	302.4
918.8934	1852.9453	1191.4	302.6
919.0331	1854.5994	1194.95	305.15
919.1727	1856.2528	1191.85	299.5
919.3124	1857.9054	1195.2	309.45
919.452	1859.5572	1191.8	306.1
919.5916	1861.2083	1187.85	300.65
919.7312	1862.8587	1184.8	298.1
919.8708	1864.5084	1191.2	303.9
920.0103	1866.1572	1179.65	292.45
920.1498	1867.8054	1187.05	298.7
920.2893	1869.4528	1186.5	297.85
920.4288	1871.0994	1182.95	295
920.5683	1872.7453	1178.85	290.95
920.7077	1874.3905	1190.2	295.95
920.8471	1876.0349	1181.5	293.35
920.9865	1877.6786	1186	297.45
921.1259	1879.3215	1180.4	294
921.2653	1880.9637	1175.25	287.8
921.4046	1882.6051	1180.75	293.25
921.5439	1884.2458	1176.5	287.5
921.6832	1885.8858	1175.7	288.6
921.8225	1887.525	1176	287.15
921.9617	1889.1634	1167.55	278
922.101	1890.8011	1176.55	287.3
922.2402	1892.4381	1173.65	286.4
922.3794	1894.0743	1174.75	290.55
922.5185	1895.7098	1171.05	285.6
922.6577	1897.3446	1164.15	275.35
922.7968	1898.9786	1171.4	277.5
922.9359	1900.6118	1167.7	282.7
923.075	1902.2443	1167.75	277.15
923.214	1903.8761	1168.35	283.6
923.3531	1905.5071	1165.3	276.3
923.4921	1907.1374	1162.95	278.4
923.6311	1908.7669	1158.9	270.4
923.77	1910.3957	1161.25	275.1
923.909	1912.0237	1163.05	276
924.0479	1913.651	1161.05	272.25
924.1868	1915.2776	1157.8	273.95
924.3257	1916.9034	1158.05	272.8
924.4646	1918.5285	1156.35	269.95
924.6034	1920.1528	1153.55	267.25
924.7422	1921.7764	1154.05	267
924.881	1923.3992	1159.95	273.2
925.0198	1925.0213	1154.95	269.35
925.1586	1926.6427	1149.55	263.55
925.2973	1928.2633	1368	268.15
925.436	1929.8832	1161.65	271.3
925.5747	1931.5023	1148.45	263
925.7134	1933.1207	1149.3	260
925.852	1934.7383	1151.85	263.85
925.9906	1936.3552	1144.6	256.5
926.1292	1937.9714	1154.85	266.05
926.2678	1939.5868	1149.8	262.75
926.4064	1941.2015	1143.95	256.2
926.5449	1942.8154	1149.5	262.65
926.6834	1944.4286	1147.2	260.65
926.8219	1946.041	1173.2	263.75
926.9604	1947.6528	1145.7	252
927.0988	1949.2637	1137.35	250.65
927.2372	1950.8739	1144.1	255.55
927.3756	1952.4834	1144.4	259.4
927.514	1954.0921	1140.4	254.4
927.6523	1955.7001	1140.6	252.05
927.7907	1957.3074	1136.2	251.65
927.929	1958.9139	1130.5	245.15
928.0673	1960.5197	1134.4	247.55
928.2055	1962.1247	1134.4	248.6
928.3438	1963.729	1134.45	249.95
928.482	1965.3325	1152.25	245.8
928.6202	1966.9353	1130.2	244.05
928.7584	1968.5374	1130.2	245.75
928.8965	1970.1387	1132.05	247.65
929.0346	1971.7393	1130.15	245.05
929.1727	1973.3392	1128.45	242.45
929.3108	1974.9383	1121.3	237.8
929.4489	1976.5366	1119.5	234.85
929.5869	1978.1342	1125.7	240.9
929.7249	1979.7311	1124	237.7
929.8629	1981.3273	1121.15	237.45
930.0009	1982.9227	1123.9	238.75
930.1388	1984.5173	1123	239.7
930.2767	1986.1112	1122.5	240.1
930.4146	1987.7044	1119.8	236.85
930.5525	1989.2968	1121.25	233.35
930.6904	1990.8885	1122.7	233.9
930.8282	1992.4795	1122	236.75
930.966	1994.0697	1114.05	230.2
931.1038	1995.6592	1117.55	235.1
931.2415	1997.2479	1115.15	231.95
931.3793	1998.8359	1110.8	228.45
931.517	2000.4232	1117.2	236.4
931.6547	2002.0097	1111.55	230.3
931.7923	2003.5955	1110.1	227.5
931.93	2005.1805	1116.25	231.35
932.0676	2006.7648	1116.5	234.45
932.2052	2008.3484	1111.3	227.75
932.3427	2009.9312	1112.35	229.7
932.4803	2011.5133	1106.75	228.15
932.6178	2013.0946	1104.3	222.7
932.7553	2014.6752	1111.95	233.55
932.8928	2016.2551	1109.6	226.75
933.0302	2017.8342	1109.15	227.4
933.1676	2019.4126	1109.1	227.05
933.305	2020.9902	1104.65	222.7
933.4424	2022.5672	1110.2	227.25
933.5798	2024.1433	1110.45	223.5
933.7171	2025.7188	1107.65	227.85
933.8544	2027.2935	1102.35	220.45
933.9917	2028.8674	1103.8	223.65
934.129	2030.4406	1104.95	225.5
934.2662	2032.0131	1094.7	215.85
934.4034	2033.5849	1101.5	214.35
934.5406	2035.1559	1105.7	226.15
934.6778	2036.7261	1103.3	221.7
934.8149	2038.2957	1098.75	216.15
934.952	2039.8645	1103.05	221.75
935.0891	2041.4325	1105.15	218.7
935.2262	2042.9998	1099.2	219.35
935.3632	2044.5664	1102.75	219.05
935.5002	2046.1323	1100.1	218.2
935.6372	2047.6974	1099.8	219.1
935.7742	2049.2617	1093.5	215.15
935.9111	2050.8254	1136.25	220.7
936.048	2052.3883	1101.3	218.2
936.1849	2053.9504	1099.65	217.35
936.3218	2055.5118	1095.95	214.45
936.4586	2057.0725	1099.6	212.7
936.5955	2058.6325	1095.45	214.2
936.7323	2060.1917	1095.95	215.3
936.869	2061.7502	1097.2	214.1
937.0058	2063.3079	1091.9	212.05
937.1425	2064.8649	1096.5	212.25
937.2792	2066.4212	1090.55	207.9
937.4159	2067.9767	1089.75	207
937.5525	2069.5315	1089.05	209.3
937.6891	2071.0856	1089.6	207.05
937.8257	2072.6389	1093.2	210.55
937.9623	2074.1915	1086.45	207.4
938.0989	2075.7433	1090.2	204.65
938.2354	2077.2945	1090.65	210
938.3719	2078.8448	1089.8	205.9
938.5084	2080.3945	1092.1	209.75
938.6448	2081.9434	1092.25	209.65
938.7812	2083.4916	1093.75	209.2
938.9176	2085.039	1092.8	208.3
939.054	2086.5857	1092.95	207.4
939.1903	2088.1317	1091.45	206.55
939.3267	2089.677	1089.3	203.65
939.463	2091.2215	1088.8	204
939.5992	2092.7652	1085.5	197.8
939.7355	2094.3083	1089.85	202.85
939.8717	2095.8506	1087.85	206.2
940.0079	2097.3921	1084.05	199.85
940.1441	2098.933	1084.05	201.9
940.2802	2100.4731	1088.5	206.9
940.4163	2102.0124	1104.2	204.55
940.5524	2103.5511	1085.05	202.05
940.6885	2105.089	1084.3	201.25
940.8245	2106.6261	1085.6	203
940.9606	2108.1626	1086.65	203.6
941.0965	2109.6983	1109.2	198.4
941.2325	2111.2332	1084.55	202.9
941.3684	2112.7675	1087.2	203.6
941.5044	2114.301	1087.25	201.15
941.6403	2115.8337	1085	199.55
941.7761	2117.3657	1085	201.3
941.912	2118.897	1081	195.55
942.0478	2120.4276	1088.7	198.4
942.1835	2121.9575	1077.45	194
942.3193	2123.4866	1092.35	196.45
942.455	2125.0149	1079.35	193.35
942.5907	2126.5426	1079.45	199.7
942.7264	2128.0695	1081.85	195.2
942.8621	2129.5956	1078.3	196.15
942.9977	2131.1211	1078.15	191.85
943.1333	2132.6458	1079.75	198.75
943.2689	2134.1698	1082.9	201.3
943.4044	2135.693	1081	194.3
943.54	2137.2155	1080.7	195.85
943.6755	2138.7373	1077.1	194.15
943.8109	2140.2584	1076.4	195.45
943.9464	2141.7787	1081.25	194.55
944.0818	2143.2983	1075.4	195.3
944.2172	2144.8171	1077.35	196.75
944.3526	2146.3353	1077.35	191.95
944.4879	2147.8527	1074.05	193.3
944.6232	2149.3693	1074.9	192.4
944.7585	2150.8853	1074.25	192.4
944.8938	2152.4005	1079.15	195.85
945.029	2153.9149	1074.5	194.35
945.1642	2155.4287	1073.05	189.35
945.2994	2156.9417	1073.05	189.6
945.4346	2158.454	1075.45	189.6
945.5697	2159.9655	1072.55	191.65
945.7048	2161.4764	1074.15	191
945.8399	2162.9865	1076.1	191.4
945.9749	2164.4958	1077.65	194.65
946.1099	2166.0045	1071.7	187.8
946.2449	2167.5124	1067.15	186.15
946.3799	2169.0195	1068.5	187.5
946.5148	2170.526	1070.65	187.6
946.6498	2172.0317	1070	187.3
946.7846	2173.5367	1071.85	190.15
946.9195	2175.0409	1072.65	189.5
947.0543	2176.5445	1068.6	187.3
947.1891	2178.0473	1064.9	182
947.3239	2179.5494	1074.7	188.55
947.4587	2181.0507	1063.7	181.2
947.5934	2182.5513	1067.4	185.8
947.7281	2184.0512	1066.2	183.15
947.8628	2185.5504	1066.9	186.3
947.9974	2187.0488	1062.5	182.3
948.132	2188.5465	1063	182.35
948.2666	2190.0435	1062.4	177.55
948.4012	2191.5397	1063.85	182.65
948.5357	2193.0353	1066.95	184.95
948.6702	2194.5301	1063.7	179.4
948.8047	2196.0241	1066.75	184.65
948.9392	2197.5175	1063.4	180.15
949.0736	2199.0101	1066.1	180.8
949.208	2200.502	1059.05	177.95
949.3424	2201.9931	1055.75	172.85
949.4767	2203.4835	1062.35	180.65
949.611	2204.9733	1079.8	180.4
949.7453	2206.4622	1054.95	173.95
949.8796	2207.9505	1060.2	176.15
950.0138	2209.438	1054.8	173.8
950.148	2210.9248	1053.85	170.55
950.2822	2212.4109	1054.7	173.85
950.4164	2213.8962	1059.1	174.75
950.5505	2215.3809	1060.65	176.05
950.6846	2216.8648	1054.7	170.3
950.8186	2218.3479	1060.45	173.65
950.9527	2219.8304	1061.15	173.8
951.0867	2221.3121	1058.55	172.15
951.2207	2222.7931	1056.6	175.6
951.3546	2224.2733	1048.15	164.3
951.4886	2225.7529	1052.55	170.45
951.6225	2227.2317	1051.45	167.1
951.7563	2228.7098	1049.8	169.05
951.8902	2230.1872	1047.6	168.45
952.024	2231.6638	1050.1	167.85
952.1578	2233.1397	1054.25	167.75
952.2916	2234.6149	1051.2	169.55
952.4253	2236.0894	1047.75	164.8
952.559	2237.5632	1054.6	163.65
952.6927	2239.0362	1045.65	163.35
952.8263	2240.5085	1044.65	162.45
952.9599	2241.9801	1046.05	164.75
953.0935	2243.4509	1043.5	157.45
953.2271	2244.921	1044.8	160.65
953.3606	2246.3904	1049.35	160.95
953.4941	2247.8591	1042.4	159.25
953.6276	2249.3271	1042.8	159.8
953.7611	2250.7943	1041.05	157.05
953.8945	2252.2608	1043.55	159.85
954.0279	2253.7266	1040.55	159.1
954.1612	2255.1917	1043.65	160.15
954.2946	2256.656	1045.2	163.35
954.4279	2258.1197	1037.95	156.6
954.5612	2259.5826	1039.7	155.95
954.6944	2261.0447	1037.3	153.35
954.8276	2262.5062	1040.2	155.65
954.9608	2263.9669	1043.2	159.45
955.094	2265.4269	1036.1	151.95
955.2271	2266.8862	1037.5	156.2
955.3602	2268.3448	1033.6	149.45
955.4933	2269.8026	1036	154
955.6264	2271.2598	1034.35	152.3
955.7594	2272.7162	1033.55	151.45
955.8924	2274.1719	1038.05	154.65
956.0253	2275.6268	1033.8	151.95
956.1583	2277.0811	1037.65	154.2
956.2912	2278.5346	1035.6	154.6
956.4241	2279.9874	1033.35	150.8
956.5569	2281.4395	1037.65	157.8
956.6897	2282.8908	1036.8	150.25
956.8225	2284.3414	1038.4	155.3
956.9553	2285.7914	1036.85	155.1
957.088	2287.2406	1039.05	153.45
957.2207	2288.689	1033.05	148.55
957.3534	2290.1368	1033.3	149.1
957.486	2291.5838	1034.65	149.2
957.6186	2293.0302	1037.75	151.6
957.7512	2294.4758	1034.65	151.15
957.8838	2295.9206	1038.45	152.5
958.0163	2297.3648	1034.65	151.6
958.1488	2298.8082	1030.2	145.75
958.2813	2300.251	1031.95	149.35
958.4137	2301.693	1034.85	147
958.5461	2303.1343	1036.45	153
958.6785	2304.5748	1029.75	147.1
958.8108	2306.0147	1026.2	143.6
958.9432	2307.4538	1032.15	148.75
959.0754	2308.8922	1026.9	147.15
959.2077	2310.3299	1026.2	144.85
959.3399	2311.7669	1024.45	144
959.4721	2313.2031	1026.35	144.55
959.6043	2314.6387	1028.85	144.45
959.7365	2316.0735	1027.5	142.8
959.8686	2317.5076	1029.15	146.7
960.0006	2318.941	1028.6	146.55
960.1327	2320.3737	1025.85	140.3
960.2647	2321.8056	1026.8	140.35
960.3967	2323.2369	1029.6	147.05
960.5287	2324.6674	1033.2	148.75
960.6606	2326.0972	1035.7	152.1
960.7925	2327.5263	1028.15	142.45
960.9244	2328.9547	1032.7	148.95
961.0562	2330.3823	1036.9	152.5
961.1881	2331.8092	1035.05	148.35
961.3198	2333.2355	1023.05	139.3
961.4516	2334.661	1024.25	141
961.5833	2336.0858	1024.2	139.9
961.715	2337.5098	1021.55	136.35
961.8467	2338.9332	1025.7	141.65
961.9783	2340.3558	1027.85	141.8
962.1099	2341.7778	1024.35	141.45
962.2415	2343.199	1022.85	137
962.373	2344.6195	1017.7	134.7
962.5045	2346.0393	1018.45	138.15
962.636	2347.4583	1021.15	138.35
962.7675	2348.8767	1022.3	137.1
962.8989	2350.2943	1020.4	135.45
963.0303	2351.7113	1019.55	134.6
963.1617	2353.1275	1020.45	135.2
963.293	2354.543	1045.55	136.7
963.4243	2355.9578	1017.7	132.75
963.5556	2357.3718	1015.5	132.95
963.6868	2358.7852	1017	130.1
963.818	2360.1978	1017.5	133.8
963.9492	2361.6098	1014.45	131.35
964.0803	2363.021	1018.6	133.05
964.2114	2364.4315	1018.45	135.15
964.3425	2365.8413	1018.6	133.35
964.4736	2367.2504	1017.35	135.8
964.6046	2368.6587	1012.7	127.8
964.7356	2370.0664	1015.85	131.85
964.8666	2371.4733	1015.9	131.2
964.9975	2372.8795	1013.05	129.9
965.1284	2374.285	1016.1	132.55
965.2593	2375.6899	1013	129.95
965.3901	2377.0939	1016.3	131.85
965.5209	2378.4973	1011.95	128.8
965.6517	2379.9	1011.6	127.75
965.7825	2381.3019	1014.35	131.95
965.9132	2382.7032	1010.8	126.9
966.0439	2384.1037	1010.65	128.65
966.1745	2385.5035	1009.9	126.45
966.3051	2386.9027	1008.6	124.25
966.4357	2388.3011	1012.7	125.5
966.5663	2389.6987	1012.2	129.25
966.6968	2391.0957	1009.8	126.85
966.8273	2392.492	1009.75	128.15
966.9578	2393.8876	1009.6	124.05
967.0882	2395.2824	1007.2	123.8
967.2186	2396.6765	1006.1	122.5
967.349	2398.07	1005.35	121.7
967.4793	2399.4627	1010.3	123.65
967.6097	2400.8547	1008.8	126
967.7399	2402.246	1007.6	116.35
967.8702	2403.6366	1005.5	120.85
968.0004	2405.0265	1006.9	121.45
968.1306	2406.4156	1007.15	117.7
968.2607	2407.8041	1006.7	118.6
968.3909	2409.1918	1004.85	117
968.521	2410.5789	999.15	115
968.651	2411.9652	1008.25	121.1
968.781	2413.3508	1002.55	115.5
968.911	2414.7358	1003.9	116.9
969.041	2416.12	1004.65	120.05
969.1709	2417.5035	1002.35	119.85
969.3008	2418.8863	998.9	111.25
969.4307	2420.2684	1002.2	116.95
969.5606	2421.6497	1003.45	119.85
969.6904	2423.0304	997.4	114.35
969.8201	2424.4104	1001.6	116.3
969.9499	2425.7896	1001.9	115.15
970.0796	2427.1682	1001.7	118.35
970.2093	2428.546	1001.15	114.5
970.3389	2429.9232	1001.55	115
970.4685	2431.2996	1000.85	115.6
970.5981	2432.6753	997	112.95
970.7277	2434.0503	999.75	115.1
970.8572	2435.4246	999.5	115.25
970.9867	2436.7982	999.8	113.15
971.1161	2438.1711	1002.1	118.3
971.2456	2439.5433	997.7	111.5
971.375	2440.9148	997.9	113.3
971.5043	2442.2856	997.55	113.1
971.6336	2443.6557	998.2	112.35
971.7629	2445.025	999.9	116.65
971.8922	2446.3937	998.75	113.1
972.0214	2447.7617	995.45	111.9
972.1506	2449.1289	998.85	113.6
972.2798	2450.4955	997.7	108.7
972.4089	2451.8613	994.35	111.35
972.538	2453.2265	994.8	108.1
972.6671	2454.5909	992.55	108.55
972.7961	2455.9546	994.6	111.25
972.9251	2457.3177	991.45	107.3
973.0541	2458.68	992.7	107.2
973.1831	2460.0416	993.9	109.9
973.312	2461.4025	993.6	107.8
973.4408	2462.7627	1003	107.85
973.5697	2464.1222	995.7	114.1
973.6985	2465.4811	992.35	109.8
973.8273	2466.8392	991.35	105
973.956	2468.1966	993.05	106.45
974.0847	2469.5533	997.7	109.8
974.2134	2470.9093	994.8	110.2
974.3421	2472.2645	995.2	107.85
974.4707	2473.6191	992.2	107.6
974.5993	2474.973	990.35	106.65
974.7278	2476.3262	994.3	108.95
974.8563	2477.6787	988.6	105.15
974.9848	2479.0305	989.65	104.95
975.1132	2480.3816	990.7	104.3
975.2417	2481.7319	989.5	105.3
975.37	2483.0816	993.85	109.45
975.4984	2484.4306	991.45	107.4
975.6267	2485.7789	987.2	102.5
975.755	2487.1264	992.5	108.45
975.8833	2488.4733	984.9	102.35
976.0115	2489.8195	995.4	105.6
976.1397	2491.165	991.75	105.75
976.2678	2492.5097	985.35	99.2
976.3959	2493.8538	985.6	104.65
976.524	2495.1972	989.7	106.1
976.6521	2496.5398	988.5	102.45
976.7801	2497.8818	992.15	105.05
976.9081	2499.2231	987.25	103.65
977.036	2500.5637	987.55	104.9
977.164	2501.9035	986.4	100.45
977.2918	2503.2427	992.15	104.9
977.4197	2504.5812	984.1	99.7
977.5475	2505.919	987.2	103.25
977.6753	2507.256	986.35	102.35
977.8031	2508.5924	985.1	100.45
977.9308	2509.9281	993	106.3
978.0585	2511.2631	984.05	98.65
978.1861	2512.5974	982.65	100.25
978.3137	2513.9309	982.85	99
978.4413	2515.2638	1009.35	100.3
978.5689	2516.596	983.6	100.85
978.6964	2517.9275	985.95	102.3
978.8239	2519.2583	981.8	95.05
978.9513	2520.5884	985.65	101.55
979.0788	2521.9178	984.55	100.95
979.2062	2523.2465	981.05	97.55
979.3335	2524.5745	979.55	96.65
979.4608	2525.9018	979.15	94.05
979.5881	2527.2284	979.45	97.4
979.7154	2528.5543	975.85	91.7
979.8426	2529.8796	981.3	98.2
979.9698	2531.2041	978.75	97.05
980.0969	2532.5279	979.3	97.3
980.224	2533.851	983.3	99.75
980.3511	2535.1735	984.25	99.05
980.4781	2536.4952	979.1	93.6
980.6052	2537.8163	979.2	96.3
980.7321	2539.1366	978.45	93
980.8591	2540.4562	983.65	98.85
980.986	2541.7752	976.6	92.15
981.1129	2543.0935	976.6	93.7
981.2397	2544.411	976.25	90.95
981.3665	2545.7279	977.85	94.55
981.4933	2547.0441	972.75	88.65
981.62	2548.3596	980.6	94.9
981.7467	2549.6744	978	95.3
981.8734	2550.9885	982.8	90
982.0001	2552.3019	974.25	90.6
982.1267	2553.6146	973.35	89.9
982.2532	2554.9266	976.75	91.6
982.3798	2556.2379	975.65	90.45
982.5063	2557.5485	976.65	96.35
982.6327	2558.8585	981.4	89.3
982.7592	2560.1677	980.7	95.25
982.8856	2561.4762	975.45	91.3
983.0119	2562.7841	975.8	86.8
983.1383	2564.0913	970.95	89.8
983.2646	2565.3977	971.3	86.6
983.3908	2566.7035	975.1	89.5
983.517	2568.0086	973.2	87.5
983.6432	2569.313	976.95	93
983.7694	2570.6167	977.45	91.7
983.8955	2571.9197	973.9	90.2
984.0216	2573.222	975.3	87.95
984.1476	2574.5236	972.05	89.2
984.2737	2575.8246	971.35	84.15
984.3996	2577.1248	975.55	89.3
984.5256	2578.4244	970.5	86.6
984.6515	2579.7232	972.8	89.35
984.7774	2581.0214	996.2	85.1
984.9032	2582.3189	970.8	87.85
985.029	2583.6157	973.65	87.05
985.1548	2584.9118	973.55	90.65
985.2806	2586.2072	971.55	89.05
985.4063	2587.5019	972.1	88.65
985.5319	2588.7959	975.2	89
985.6576	2590.0893	971.05	85.5
985.7832	2591.3819	975.25	93.1
985.9087	2592.6739	971.65	88.85
986.0343	2593.9652	975.5	89.65
986.1597	2595.2557	975.5	90.55
986.2852	2596.5456	974.6	88.7
986.4106	2597.8348	971.65	89.35
986.536	2599.1234	972.55	90.95
986.6614	2600.4112	974.2	91.45
986.7867	2601.6983	976.1	88.3
986.912	2602.9848	969.4	85.1
987.0372	2604.2705	978.1	85.85
987.1624	2605.5556	972.85	89.35
987.2876	2606.84	974.75	91.55
987.4128	2608.1237	971.75	86.7
987.5379	2609.4067	973.05	91.1
987.6629	2610.689	979.3	88.7
987.788	2611.9707	974.65	87.4
987.913	2613.2516	972.3	83.85
988.0379	2614.5319	969.65	86
988.1629	2615.8115	968.05	83.8
988.2878	2617.0903	970.4	84.95
988.4126	2618.3685	969.75	84.8
988.5375	2619.6461	968.4	85.95
988.6622	2620.9229	965.6	82.3
988.787	2622.199	968.4	82.7
988.9117	2623.4745	967.35	83.65
989.0364	2624.7493	968.8	84.35
989.161	2626.0234	965.4	82.95
989.2857	2627.2968	965.6	81.8
989.4102	2628.5695	967.7	82.2
989.5348	2629.8415	965.25	83.35
989.6593	2631.1128	965.3	78.25
989.7837	2632.3835	967.25	86.55
989.9082	2633.6535	962.6	78.55
990.0326	2634.9228	965.15	83.4
990.1569	2636.1914	962.65	81.85
990.2812	2637.4593	965.9	81.8
990.4055	2638.7265	964.6	81.3
990.5298	2639.9931	961.8	79.05
990.654	2641.259	964.15	78.4
990.7782	2642.5242	964.75	80.6
990.9023	2643.7887	965.45	82.85
991.0264	2645.0525	960.4	76.6
991.1505	2646.3156	965.6	81.45
991.2745	2647.5781	961.55	79.15
991.3985	2648.8398	957.95	75.5
991.5225	2650.1009	998.15	79.5
991.6464	2651.3613	964.4	80.6
991.7703	2652.6211	961.7	78.05
991.8942	2653.8801	955.35	74.55
992.018	2655.1385	959.05	71.55
992.1418	2656.3961	959.2	75.65
992.2655	2657.6531	959.3	76.55
992.3892	2658.9094	960.45	77.45
992.5129	2660.1651	960.25	78.25
992.6366	2661.42	959	78.85
992.7602	2662.6743	959.7	75.2
992.8837	2663.9279	959.4	78
993.0073	2665.1808	957.75	73.4
993.1307	2666.433	961.7	76.5
993.2542	2667.6846	958.25	75
993.3776	2668.9354	962.8	77.35
993.501	2670.1856	965.1	80.6
993.6244	2671.4351	963	80.7
993.7477	2672.6839	962.5	77.8
993.8709	2673.9321	963.2	82.45
993.9942	2675.1795	961.85	77.3
994.1174	2676.4263	964.55	82.3
994.2405	2677.6724	963.6	81.65
994.3637	2678.9179	963.2	79.3
994.4868	2680.1626	960.1	78.25
994.6098	2681.4067	962.35	78
994.7328	2682.6501	962.4	80.1
994.8558	2683.8928	958	75
994.9788	2685.1348	960.5	77.35
995.1017	2686.3761	960.85	79.3
995.2245	2687.6168	959	77.1
995.3474	2688.8568	958.1	75.5
995.4702	2690.0961	955.2	73.4
995.5929	2691.3348	956.05	72.65
995.7156	2692.5727	956.6	72.35
995.8383	2693.81	952.95	72.85
995.961	2695.0466	953.6	72.1
996.0836	2696.2826	956.05	73.95
996.2062	2697.5178	959.5	72.2
996.3287	2698.7524	958.1	75.7
996.4512	2699.9863	959.3	75.5
996.5737	2701.2195	955.3	73.35
996.6961	2702.452	959.5	76.55
996.8185	2703.6839	958.9	73.35
996.9408	2704.9151	955.5	73.25
997.0631	2706.1456	955	73.4
997.1854	2707.3755	957.55	74
997.3077	2708.6046	959.5	75.25
997.4299	2709.8331	957.5	74.05
997.552	2711.0609	959.9	76.1
997.6742	2712.2881	960.35	75.55
997.7963	2713.5145	962.15	74.25
997.9183	2714.7403	962.95	81.8
998.0403	2715.9654	962.35	80.05
998.1623	2717.1899	975.2	76.85
998.2842	2718.4136	961	79.5
998.4062	2719.6367	965.65	83.15
998.528	2720.8591	972.45	82.75
998.6498	2722.0809	967.3	85.9
998.7716	2723.3019	972.2	86.5
998.8934	2724.5223	971.7	87.35
999.0151	2725.7421	970	85.55
999.1368	2726.9611	970.65	87.8
999.2584	2728.1795	970.55	82.7
999.38	2729.3972	965.15	85.1
999.5016	2730.6142	969.2	79.45
999.6231	2731.8306	961.05	78.9
999.7446	2733.0462	958.2	72.8
999.8661	2734.2612	962.5	76.1
999.9875	2735.4756	959.35	76.05
1000.1089	2736.6892	959.6	77.45
1000.2302	2737.9022	954.5	74.55
1000.3515	2739.1145	955.1	71.85
1000.4728	2740.3262	960.15	69.3
1000.594	2741.5372	953.1	71.65
1000.7152	2742.7475	952.6	69.5
1000.8363	2743.9571	949.55	66.65
1000.9575	2745.1661	954.15	66.05
1001.0785	2746.3744	949.85	67.85
1001.1996	2747.582	950.55	67.5
1001.3206	2748.7889	949.45	65.4
1001.4415	2749.9952	945.55	66
1001.5625	2751.2008	946.15	64
1001.6833	2752.4057	947.85	65.05
1001.8042	2753.61	947.3	63.95
1001.925	2754.8136	946.15	62
1002.0458	2756.0165	942.75	60.15
1002.1665	2757.2188	942.2	61.6
1002.2872	2758.4204	946.4	63.2
1002.4078	2759.6213	947.9	63.35
1002.5285	2760.8215	949.05	63.2
1002.649	2762.0211	943.6	58.75
1002.7696	2763.22	947.6	61.05
1002.8901	2764.4182	945.8	60.7
1003.0106	2765.6158	947.3	63.65
1003.131	2766.8127	942.75	58.2
1003.2514	2768.009	943.25	61.25
1003.3717	2769.2045	943.25	61.55
1003.492	2770.3994	943.9	59.85
1003.6123	2771.5936	942	58.9
1003.7325	2772.7872	938.9	59.3
1003.8527	2773.9801	942.15	58.2
1003.9729	2775.1723	956.05	58.1
1004.093	2776.3639	936.4	54.9
1004.2131	2777.5548	940.95	59.3
1004.3331	2778.745	941.6	59.35
1004.4531	2779.9346	936.9	56
1004.5731	2781.1235	939.9	58.25
1004.693	2782.3117	941.5	59.4
1004.8129	2783.4992	938.05	58.9
1004.9328	2784.6861	939.9	58
1005.0526	2785.8723	940.2	57
1005.1723	2787.0579	940.45	56.2
1005.2921	2788.2428	938.9	55.5
1005.4118	2789.427	938.2	55.85
1005.5314	2790.6106	938.9	57.25
1005.651	2791.7935	941	57.6
1005.7706	2792.9757	939.45	57.8
1005.8902	2794.1573	939.7	55.6
1006.0097	2795.3382	939.9	55.3
1006.1291	2796.5184	937.8	56.2
1006.2485	2797.698	942.6	60.4
1006.3679	2798.8769	938.95	56.8
1006.4873	2800.0551	940.95	59.45
1006.6066	2801.2327	942.55	58.65
1006.7258	2802.4096	942.45	60.15
1006.8451	2803.5859	942.55	60.7
1006.9642	2804.7615	942.85	60.2
1007.0834	2805.9364	941.2	60.25
1007.2025	2807.1106	946	64.45
1007.3216	2808.2842	949.75	68.55
1007.4406	2809.4572	945.45	63.4
1007.5596	2810.6294	953	69.35
1007.6785	2811.801	950.95	70.85
1007.7975	2812.972	954.45	74.3
1007.9163	2814.1423	956.05	75.5
1008.0352	2815.3119	960.15	79.1
1008.154	2816.4808	959.85	80
1008.2727	2817.6491	965.65	82.35
1008.3914	2818.8167	972.15	91.25
1008.5101	2819.9837	982.05	95.05
1008.6288	2821.15	979.95	98.2
1008.7474	2822.3157	991.9	112.9
1008.8659	2823.4807	1000.75	118.6
1008.9844	2824.645	1011.7	128.1
1009.1029	2825.8086	1022.15	141.05
1009.2214	2826.9716	1031.3	152.5
1009.3398	2828.134	1039.85	157.55
1009.4581	2829.2957	1053.35	172.75
1009.5764	2830.4567	1057.15	177.4
1009.6947	2831.617	1064.25	181.5
1009.813	2832.7767	1071.6	191.1
1009.9312	2833.9358	1066.15	186.8
1010.0493	2835.0941	1070.05	187.85
1010.1675	2836.2519	1058.8	175.95
1010.2855	2837.4089	1057.6	174.8
1010.4036	2838.5653	1050.15	169.7
1010.5216	2839.7211	1045.8	164.2
1010.6396	2840.8761	1045.7	161.35
1010.7575	2842.0306	1043.9	164.65
1010.8754	2843.1843	1038	157.2
1010.9932	2844.3374	1045.05	164.75
1011.111	2845.4899	1047.6	164.8
1011.2288	2846.6417	1047.05	167.05
1011.3465	2847.7928	1046.3	165.45
1011.4642	2848.9433	1052.15	169.15
1011.5818	2850.0931	1057.3	176.5
1011.6995	2851.2422	1062.45	178.25
1011.817	2852.3907	1057.8	175
1011.9345	2853.5385	1061.3	177.4
1012.052	2854.6857	1087.85	179.7
1012.1695	2855.8323	1063.7	184
1012.2869	2856.9781	1066.45	183.85
1012.4042	2858.1233	1068.85	190.6
1012.5216	2859.2679	1074.1	193.3
1012.6389	2860.4118	1080	198.5
1012.7561	2861.555	1089.45	204.2
1012.8733	2862.6976	1091.4	208.45
1012.9905	2863.8395	1093.65	214.1
1013.1076	2864.9808	1088.95	207.2
1013.2247	2866.1214	1093.55	214.1
1013.3417	2867.2614	1097.4	214.15
1013.4587	2868.4007	1097.5	215.3
1013.5757	2869.5393	1105.85	221.25
1013.6926	2870.6773	1108.4	225.45
1013.8095	2871.8146	1110	225.25
1013.9263	2872.9513	1113.35	230.15
1014.0431	2874.0874	1113.6	230.05
1014.1599	2875.2227	1115.7	234.3
1014.2766	2876.3574	1119.6	236.75
1014.3933	2877.4915	1125.3	242.7
1014.51	2878.6249	1124.65	244.9
1014.6266	2879.7577	1129.35	246.8
1014.7431	2880.8898	1139.3	247.6
1014.8596	2882.0212	1138	256.6
1014.9761	2883.152	1138.75	258.65
1015.0925	2884.2821	1138.2	259.55
1015.2089	2885.4116	1141.6	260
1015.3253	2886.5405	1149.3	267.95
1015.4416	2887.6686	1150	266.4
1015.5579	2888.7962	1146.95	267.05
1015.6741	2889.923	1147.2	268.2
1015.7903	2891.0493	1143.95	263
1015.9065	2892.1748	1144.35	263.35
1016.0226	2893.2997	1144.25	262.4
1016.1387	2894.424	1143.5	263
1016.2547	2895.5476	1149.45	268.15
1016.3707	2896.6706	1142.95	264.3
1016.4866	2897.7929	1143.45	261.7
1016.6025	2898.9145	1150.85	269.95
1016.7184	2900.0355	1148.1	265.7
1016.8342	2901.1559	1145.1	264.4
1016.95	2902.2756	1151.3	263.45
1017.0658	2903.3946	1139.1	258.2
1017.1815	2904.513	1145.6	261.6
1017.2971	2905.6308	1136.7	255.7
1017.4127	2906.7479	1137.75	255.3
1017.5283	2907.8643	1141.45	259.75
1017.6439	2908.9801	1137.85	257.5
1017.7594	2910.0953	1136.95	255.6
1017.8748	2911.2098	1140.85	257.55
1017.9902	2912.3236	1146.95	260.25
1018.1056	2913.4368	1143.5	258.15
1018.2209	2914.5494	1137.45	256.45
1018.3362	2915.6613	1139.35	254.55
1018.4515	2916.7725	1134.9	250.9
1018.5667	2917.8831	1127	245.7
1018.6819	2918.9931	1125.5	242.55
1018.797	2920.1024	1123.6	241.7
1018.9121	2921.211	1113.3	232.95
1019.0271	2922.319	1115.35	234.45
1019.1421	2923.4264	1107.25	228.55
1019.2571	2924.5331	1107.6	227.75
1019.372	2925.6391	1105.1	225.95
1019.4869	2926.7445	1107.55	227.95
1019.6017	2927.8493	1106.25	224.5
1019.7165	2928.9534	1115.5	235.45
1019.8313	2930.0569	1118.2	232.85
1019.946	2931.1597	1119.5	236.05
1020.0606	2932.2619	1117.25	237.75
1020.1753	2933.3634	1120.9	239.9
1020.2899	2934.4643	1126.3	237.9
1020.4044	2935.5645	1132.75	246.85
1020.5189	2936.6641	1128	243.9
1020.6334	2937.763	1119.3	239.45
1020.7478	2938.8613	1117.35	233.85
1020.8622	2939.959	1125.8	238.35
1020.9765	2941.056	1111.85	231.05
1021.0908	2942.1523	1111.7	228.45
1021.2051	2943.248	1098.8	218.85
1021.3193	2944.3431	1089.6	208.2
1021.4334	2945.4375	1084.55	203.4
1021.5476	2946.5313	1064.9	185.05
1021.6617	2947.6244	1058.1	176.1
1021.7757	2948.7169	1049.1	167
1021.8897	2949.8087	1039.05	159.55
1022.0037	2950.8999	1036.5	154.65
1022.1176	2951.9904	1022.35	141.6
1022.2315	2953.0803	1016.15	135.95
1022.3453	2954.1696	1010.75	129.6
1022.4591	2955.2582	1004.25	122.95
1022.5728	2956.3462	1003.15	123.75
1022.6865	2957.4335	1004.2	122.8
1022.8002	2958.5202	1006.2	122.9
1022.9138	2959.6062	1002.5	122
1023.0274	2960.6916	999.8	120.95
1023.141	2961.7764	1002.2	120.1
1023.2545	2962.8605	1003.7	121.3
1023.3679	2963.9439	1000.25	119.4
1023.4813	2965.0267	1003.7	121.7
1023.5947	2966.1089	1025.25	120.9
1023.708	2967.1905	1001.7	121.35
1023.8213	2968.2714	998.1	118.35
1023.9346	2969.3516	993.7	113.1
1024.0478	2970.4312	1005.25	117.05
1024.1609	2971.5102	996.35	116.1
1024.274	2972.5885	992.35	112.5
1024.3871	2973.6662	1001.45	117.45
1024.5002	2974.7432	995.45	114.85
1024.6132	2975.8196	1000.9	121.4
1024.7261	2976.8954	993.65	112.3
1024.839	2977.9705	993.7	114.8
1024.9519	2979.045	997.3	115.35
1025.0647	2980.1188	990.65	110.7
1025.1775	2981.192	992.2	112.05
1025.2902	2982.2645	990.6	110.05
1025.4029	2983.3364	988.3	108.75
1025.5156	2984.4077	987.7	107.65
1025.6282	2985.4783	989.9	104.15
1025.7407	2986.5483	978.1	98.55
1025.8532	2987.6177	977.45	97.8
1025.9657	2988.6864	974.5	95.4
1026.0782	2989.7545	973.4	93.1
1026.1906	2990.8219	970.5	90.5
1026.3029	2991.8887	963.4	82
1026.4152	2992.9548	960.6	80.65
1026.5275	2994.0204	956.5	77.8
1026.6397	2995.0852	953.05	73.7
1026.7519	2996.1495	950.2	70.7
1026.864	2997.2131	945.45	66.05
1026.9761	2998.276	942.85	61.95
1027.0882	2999.3383	941.15	60
1027.2002	3000.4	938.5	58.65
1027.3122	3001.4611	935.1	53.6
1027.4241	3002.5215	935.85	55.2
1027.536	3003.5812	930.2	51.45
1027.6478	3004.6404	932.15	53.2
1027.7596	3005.6989	930.85	50.15
1027.8714	3006.7567	926.8	44.8
1027.9831	3007.8139	955.65	47.1
1028.0947	3008.8705	925.6	46.75
1028.2064	3009.9264	941.2	42.55
1028.3179	3010.9818	924.8	44.55
1028.4295	3012.0364	925.3	42.55
1028.541	3013.0905	919.75	40.25
1028.6524	3014.1439	920.75	41.8
1028.7638	3015.1966	920.65	41.4
1028.8752	3016.2487	920.7	38.9
1028.9865	3017.3002	921.4	35.85
1029.0978	3018.3511	916.55	37.4
1029.209	3019.4013	916	35.1
1029.3202	3020.4509	917.95	38.2
1029.4314	3021.4998	917.7	37.2
1029.5425	3022.5481	916	36.45
1029.6535	3023.5958	917.25	37.7
1029.7645	3024.6428	919	37.75
1029.8755	3025.6892	914.7	35.75
1029.9864	3026.735	915.6	35.05
1030.0973	3027.7802	916.45	37.1
1030.2082	3028.8247	916.9	37.2
1030.319	3029.8685	915.95	36.3
1030.4297	3030.9118	916.45	36.5
1030.5404	3031.9544	916.7	37.75
1030.6511	3032.9963	916	37
1030.7617	3034.0376	918.35	36.9
1030.8723	3035.0783	919.25	36.55
1030.9829	3036.1184	918.15	35.55
1031.0934	3037.1578	911.65	32.35
1031.2038	3038.1966	916.55	35
1031.3142	3039.2348	917.05	37.45
1031.4246	3040.2723	922.45	31.85
1031.5349	3041.3092	917.8	39.1
1031.6452	3042.3455	915.15	35.65
1031.7554	3043.3811	916.15	34.95
1031.8656	3044.4161	916.9	36.25
1031.9758	3045.4505	915.65	38.3
1032.0859	3046.4842	918.9	37.4
1032.1959	3047.5173	915.15	35.95
1032.3059	3048.5498	918.2	38.15
1032.4159	3049.5816	917.2	37.85
1032.5258	3050.6128	916.05	33.75
1032.6357	3051.6434	919.95	36.95
1032.7455	3052.6734	916.9	37.65
1032.8553	3053.7027	914.95	33.35
1032.9651	3054.7314	916.1	37.7
1033.0748	3055.7594	916	38.8
1033.1845	3056.7868	919.3	37.7
1033.2941	3057.8136	915.55	37.95
1033.4037	3058.8398	918.1	39.5
1033.5132	3059.8653	918.35	36.15
1033.6227	3060.8902	918.1	40.45
1033.7321	3061.9145	920.5	39.8
1033.8415	3062.9381	917.7	37.7
1033.9509	3063.9612	934.1	37.65
1034.0602	3064.9835	919.3	40.75
1034.1694	3066.0053	920.75	39.5
1034.2787	3067.0264	917.65	37.8
1034.3878	3068.0469	920.6	41.35
1034.497	3069.0668	921.55	38.7
1034.6061	3070.086	920	40.55
1034.7151	3071.1046	919.05	38.5
1034.8241	3072.1226	922.9	41.2
1034.9331	3073.1399	916.55	37.7
1035.042	3074.1567	915.5	37.6
1035.1508	3075.1727	918.05	35.95
1035.2597	3076.1882	915.65	36.85
1035.3684	3077.203	913.95	34.1
1035.4772	3078.2173	915.8	33.5
1035.5859	3079.2308	912.6	30.55
1035.6945	3080.2438	915.3	30.5
1035.8031	3081.2561	912.25	32.35
1035.9117	3082.2678	909.75	29.65
1036.0202	3083.2789	907.9	28.1
1036.1286	3084.2893	909.7	30.7
1036.2371	3085.2991	911.6	30.7
1036.3454	3086.3083	913	29.1
1036.4538	3087.3169	913.25	32.95
1036.562	3088.3248	910.85	30.35
1036.6703	3089.3321	912.95	31.95
1036.7785	3090.3388	904.95	25.3
1036.8866	3091.3449	905.2	25.75
1036.9948	3092.3503	908.3	27.4
1037.1028	3093.3551	903.7	24.95
1037.2108	3094.3593	904.65	25.75
1037.3188	3095.3629	903.75	25.5
1037.4267	3096.3658	906.7	25.15
1037.5346	3097.3681	905.7	26.4
1037.6425	3098.3698	909.35	26.75
1037.7503	3099.3708	907.05	27.85
1037.858	3100.3713	904.2	24.6
1037.9657	3101.3711	904.5	24.55
1038.0734	3102.3702	1046.15	28.8
1038.181	3103.3688	904.2	23.15
1038.2886	3104.3667	901.6	22.15
1038.3961	3105.364	904.4	26
1038.5036	3106.3607	902.2	17.5
1038.611	3107.3568	904.35	21.7
1038.7184	3108.3522	900.85	22.55
1038.8257	3109.347	902.1	22.65
1038.933	3110.3412	904.25	21
1039.0403	3111.3348	901.35	21.9
1039.1475	3112.3277	900	21.6
1039.2547	3113.32	896.75	17.7
1039.3618	3114.3117	900.1	20
1039.4689	3115.3028	898.1	17.65
1039.5759	3116.2932	899.95	19.05
1039.6829	3117.2831	902.9	18.65
1039.7898	3118.2723	899.9	22.6
1039.8967	3119.2608	900.25	19.3
1040.0035	3120.2488	898.85	19.65
1040.1103	3121.2361	897.85	19.35
1040.2171	3122.2229	898.5	18.35
1040.3238	3123.209	898.95	16.5
1040.4305	3124.1944	897.95	19.55
1040.5371	3125.1793	897.75	16.35
1040.6437	3126.1635	897.75	18.95
1040.7502	3127.1471	896.4	16.5
1040.8567	3128.1301	895.6	16.55
1040.9631	3129.1125	896.2	15.7
1041.0695	3130.0942	896.55	18.05
1041.1759	3131.0753	905.4	17.65
1041.2822	3132.0558	898.9	15.85
1041.3884	3133.0357	895.3	14.6
1041.4946	3134.015	896.25	15.15
1041.6008	3134.9936	898.05	16.3
1041.7069	3135.9716	917.35	15.2
1041.813	3136.949	897.45	17.65
1041.919	3137.9258	917	19.1
1042.025	3138.902	901.6	16.8
1042.1309	3139.8775	892.2	13.05
1042.2368	3140.8524	895.2	16.75
1042.3427	3141.8267	896.45	14.5
1042.4485	3142.8004	896.4	16.25
1042.5542	3143.7735	902.45	16.55
1042.6599	3144.7459	898.5	18.45
1042.7656	3145.7178	895.65	16.8
1042.8712	3146.689	891.85	13.4
1042.9768	3147.6596	894.8	12.6
1043.0823	3148.6295	895.75	14.45
1043.1878	3149.5989	893.05	14.55
1043.2932	3150.5676	893.9	15.15
1043.3986	3151.5357	893	16.7
1043.5039	3152.5032	892.6	15.2
1043.6092	3153.4701	893.05	13.1
1043.7145	3154.4364	895.85	14.45
1043.8197	3155.402	892.7	12.9
1043.9248	3156.367	893.8	12.6
1044.03	3157.3315	930.5	16.65
1044.135	3158.2952	893.35	11.65
1044.24	3159.2584	894.15	14.4
1044.345	3160.221	894	12.15
1044.4499	3161.1829	892.75	13.75
1044.5548	3162.1442	891.2	12.15
1044.6596	3163.105	892.95	12.1
1044.7644	3164.065	892.65	11.35
1044.8692	3165.0245	895.7	12
1044.9739	3165.9834	891.1	13.95
1045.0785	3166.9416	890.55	10.6
1045.1831	3167.8993	893.65	14.05
1045.2877	3168.8563	892.35	11.2
1045.3922	3169.8127	891.75	10.5
1045.4966	3170.7684	892.15	11.95
1045.6011	3171.7236	893.25	12.15
1045.7054	3172.6782	890.95	9.2
1045.8098	3173.6321	892.5	12.45
1045.914	3174.5854	897.8	14.3
1046.0183	3175.5381	893.7	14.35
1046.1224	3176.4902	889.6	9.45
1046.2266	3177.4417	891.4	12.3
1046.3307	3178.3926	890.6	10.45
1046.4347	3179.3428	890.9	11.6
1046.5387	3180.2924	889.7	12.2
1046.6427	3181.2415	890.5	9.95
1046.7466	3182.1899	890.55	9.15
1046.8504	3183.1377	893.25	13.1
1046.9542	3184.0848	893.15	10.45
1047.058	3185.0314	890.95	10
1047.1617	3185.9773	891.75	11.3
1047.2654	3186.9227	891.15	11.95
1047.369	3187.8674	890.3	11.8
1047.4726	3188.8115	893.3	9.1
1047.5761	3189.755	889.15	10.75
1047.6796	3190.6979	890.5	13.6
1047.783	3191.6402	888.7	8.8
1047.8864	3192.5818	891.4	14
1047.9898	3193.5229	918.4	12.3
1048.0931	3194.4633	890.65	13.1
1048.1963	3195.4031	889.75	10.55
1048.2995	3196.3423	890.5	12.05
1048.4027	3197.2809	890.8	10.25
1048.5058	3198.2189	889.55	11.15
1048.6089	3199.1563	894.65	8.45
1048.7119	3200.0931	889.55	11.6
1048.8148	3201.0292	889.6	12.8
1048.9178	3201.9648	891.1	11.5
1049.0206	3202.8997	891.1	8.3
1049.1235	3203.834	889.9	11.5
1049.2262	3204.7677	889.3	9.7
1049.329	3205.7008	891.4	11.15
1049.4317	3206.6333	887.3	8.6
1049.5343	3207.5652	890.7	10.1
1049.6369	3208.4964	890.05	10.55
1049.7394	3209.4271	887.65	8.45
1049.8419	3210.3571	890.1	11.25
1049.9444	3211.2865	890.95	9.9
1050.0468	3212.2154	889	9.75
1050.1491	3213.1436	894.05	11.05
1050.2514	3214.0712	896	9.5
1050.3537	3214.9982	889.3	9.3
1050.4559	3215.9246	889.55	10.1
1050.5581	3216.8503	886.15	7.3
1050.6602	3217.7755	888.6	9.45
1050.7623	3218.7001	888.2	10.05
1050.8643	3219.624	891.1	11.5
1050.9663	3220.5473	891.55	11.75
1051.0682	3221.4701	889.3	9.45
1051.1701	3222.3922	892.15	11.35
1051.2719	3223.3137	888.95	12.05
1051.3737	3224.2346	888.05	8.65
1051.4754	3225.1549	888.9	8.1
1051.5771	3226.0746	889.65	12.55
1051.6788	3226.9937	889.45	9.2
1051.7804	3227.9121	887.25	9.9
1051.8819	3228.83	887	8.4
1051.9834	3229.7473	889.15	10.65
1052.0849	3230.6639	888.4	8.7
1052.1863	3231.5799	886.85	9
1052.2876	3232.4954	887.2	8.65
1052.3889	3233.4102	886.35	8.5
1052.4902	3234.3244	885.8	6.7
1052.5914	3235.238	888.55	9.15
1052.6926	3236.151	910.7	7.95
1052.7937	3237.0634	885.75	8.5
1052.8948	3237.9752	886.75	9.1
1052.9958	3238.8864	887.75	7.9
1053.0968	3239.797	886	6.45
1053.1977	3240.7069	889.85	10.05
1053.2986	3241.6163	888.05	6.75
1053.3994	3242.5251	887.95	9.95
1053.5002	3243.4332	886.7	8.35
1053.6009	3244.3408	886	4.2
1053.7016	3245.2477	887.4	8.45
1053.8022	3246.154	886.95	7.05
1053.9028	3247.0598	887.85	8.75
1054.0034	3247.9649	885.85	5.5
1054.1039	3248.8694	885.1	4.75
1054.2043	3249.7733	888.15	11.45
1054.3047	3250.6766	887.3	8.5
1054.4051	3251.5793	886.7	6.95
1054.5054	3252.4814	886.05	8.5
1054.6056	3253.3829	885.95	5.95
1054.7058	3254.2838	886.8	8.35
1054.806	3255.1841	886.45	8.4
1054.9061	3256.0838	886.35	7.4
1055.0061	3256.9829	884.3	5.75
1055.1062	3257.8814	888.45	4.05
1055.2061	3258.7792	887.8	7.1
1055.306	3259.6765	887	5.75
1055.4059	3260.5731	885.7	6.15
1055.5057	3261.4692	885.3	3.9
1055.6055	3262.3647	886.6	6.7
1055.7052	3263.2595	886.75	8.55
1055.8049	3264.1538	884.4	4.7
1055.9045	3265.0474	887.1	8.5
1056.0041	3265.9404	882.9	3.5
1056.1036	3266.8329	884.4	7.25
1056.2031	3267.7247	893.8	5.9
1056.3025	3268.616	883.2	5.35
1056.4019	3269.5066	886.6	9.35
1056.5013	3270.3966	885.55	3.45
1056.6005	3271.286	882.4	3.25
