Software Version:	3.9.2.0
Unit SN:	10000200
Spectrometer SN:	6960
Date:	3/8/2024 2:21:57 PM
Data Line Index:	25
Spectral Points:	2048
Integration time (ms):	125
Averages:	20
Delay (ms):	30000
Sequence Number:	1
Processing:	dark subtract
Laser Power (mW):	300
Laser Current (mA):	826
Laser Diode Temp (C):	25
Laser Case Temp (C):	26.1
System Temp (C):	26.1
Spectrometer Temp (C):	24.1
CCD Temp (C):	0.004
Secondary Temp (C):	20.011
Heatsink Temp (C):	20.941
CCDPCB Temp (C):	35.962
SecondaryPCB Temp (C):	30.782

Wavelength	RamanShift	Raw Counts	Dark Subtracted
787.061	30.1047	458	50.05
787.2016	32.3739	460.75	55.65
787.3422	34.6426	465.05	59.35
787.4828	36.9109	471.4	63.4
787.6235	39.1787	483	71.7
787.7642	41.4461	487.45	69.15
787.9049	43.7131	498.9	78.1
788.0456	45.9796	505.2	83.25
788.1863	48.2456	515.55	88.75
788.3271	50.5112	527.6	95.7
788.4679	52.7764	538.6	103.55
788.6087	55.0411	545.6	105.1
788.7496	57.3054	561.7	116.7
788.8904	59.5692	564.4	118.5
789.0313	61.8326	578.8	131.15
789.1722	64.0955	592.05	142.05
789.3132	66.3579	612.05	152.8
789.4541	68.6199	629.4	169.25
789.5951	70.8815	668.05	202.5
789.7361	73.1426	748.35	280.3
789.8771	75.4032	956.35	483.6
790.0181	77.6634	1473.5	996.05
790.1592	79.9231	2672.6	2185.35
790.3003	82.1824	5321.75	4819.35
790.4414	84.4412	10050.9	9518.9
790.5825	86.6995	16513.05	15943.1
790.7237	88.9574	22783.85	22182.15
790.8648	91.2148	27122.55	26501
791.006	93.4717	29174.8	28535.75
791.1472	95.7282	29619.45	28972.1
791.2885	97.9842	29584.7	28937.35
791.4297	100.2398	29079.9	28428.85
791.571	102.4949	28519.5	27869.3
791.7123	104.7495	27799.15	27143.8
791.8536	107.0036	27031.25	26374.95
791.9949	109.2573	26278.4	25624.95
792.1363	111.5105	25578.65	24920.05
792.2777	113.7632	24849.35	24187.6
792.4191	116.0154	24196.5	23524.25
792.5605	118.2672	23729.75	23062.25
792.7019	120.5185	23243.75	22574.05
792.8434	122.7693	22889.9	22223.3
792.9849	125.0197	22597.35	21926.4
793.1264	127.2696	22301.05	21622.3
793.2679	129.519	22216.3	21531.8
793.4094	131.7679	22023.75	21335.15
793.551	134.0163	21906.65	21218
793.6926	136.2642	21699.15	21009.1
793.8342	138.5117	21532.2	20833.3
793.9758	140.7587	21354.6	20658
794.1175	143.0052	21165.65	20468.15
794.2591	145.2512	20944.4	20243.25
794.4008	147.4967	20710.3	20011.95
794.5425	149.7417	20574.85	19873.2
794.6842	151.9863	20475.8	19768.6
794.826	154.2304	20446.1	19733.3
794.9677	156.4739	20283.3	19569.3
795.1095	158.717	20193.25	19476.3
795.2513	160.9596	20069.65	19345.8
795.3931	163.2017	19831.1	19107.6
795.535	165.4433	19571.7	18843.75
795.6768	167.6844	19245.5	18517.3
795.8187	169.925	18950.25	18222.75
795.9606	172.1651	18605.45	17874.6
796.1025	174.4047	18315.85	17581.6
796.2445	176.6439	18062.4	17330.45
796.3864	178.8825	17803.75	17064.5
796.5284	181.1206	17635.05	16890.4
796.6704	183.3582	17506.25	16753.7
796.8124	185.5954	17378.9	16628.4
796.9544	187.832	17311.65	16555.75
797.0965	190.0681	17286.25	16529.3
797.2386	192.3037	17298.35	16536.9
797.3806	194.5388	17276.9	16515.4
797.5228	196.7734	17328.55	16565.95
797.6649	199.0075	17405.1	16638.55
797.807	201.2411	17579.4	16811.3
797.9492	203.4742	17631.05	16864.1
798.0914	205.7068	17789.65	17014.7
798.2336	207.9389	17904	17130.2
798.3758	210.1704	18069.3	17304.35
798.518	212.4015	18200.65	17448.6
798.6603	214.632	18396.15	17647.7
798.8025	216.862	18559.55	17807
798.9448	219.0915	18731	17977.35
799.0871	221.3205	18973.35	18213.15
799.2294	223.549	19249.05	18493.25
799.3718	225.777	19579.05	18826.45
799.5141	228.0044	20003.1	19243.5
799.6565	230.2314	20472.3	19715.2
799.7989	232.4578	20915.45	20150.95
799.9413	234.6837	21333.65	20562.85
800.0837	236.909	21550.25	20778.15
800.2262	239.1339	21541.35	20739.4
800.3687	241.3582	21358.4	20573.1
800.5111	243.582	21025.4	20212.65
800.6536	245.8053	20683.6	19883.05
800.7961	248.0281	20319.95	19524.45
800.9387	250.2503	20063.3	19261
801.0812	252.472	19894.65	19096.8
801.2238	254.6932	19826.4	19032
801.3664	256.9139	19718.8	18922.4
801.509	259.134	19704.25	18901.4
801.6516	261.3536	19675.95	18872.6
801.7942	263.5727	19730.5	18920.65
801.9369	265.7912	19640.9	18840.95
802.0795	268.0092	19622.9	18817.2
802.2222	270.2267	19620.55	18815.25
802.3649	272.4436	19552.4	18742.8
802.5076	274.6601	19509.65	18691.3
802.6504	276.8759	19459.85	18652.5
802.7931	279.0913	19434.8	18624.45
802.9359	281.3061	19409.5	18593
803.0787	283.5204	19513.05	18694.45
803.2215	285.7341	19597.9	18777.35
803.3643	287.9473	19801.45	18969
803.5071	290.16	20044.5	19221.55
803.6499	292.3721	20366.2	19551.85
803.7928	294.5837	20828.15	20007.7
803.9357	296.7947	21170.9	20353.45
804.0786	299.0052	21409	20587.9
804.2215	301.2152	21260.35	20438.2
804.3644	303.4246	20960.9	20144.75
804.5074	305.6334	20414.95	19596.9
804.6503	307.8418	19877.25	19054.4
804.7933	310.0495	19477.9	18653.9
804.9363	312.2568	19194.15	18368.2
805.0793	314.4635	18955.95	18125.1
805.2223	316.6696	18903.45	18071.65
805.3653	318.8752	18879.25	18038.4
805.5084	321.0802	18917.05	18085.3
805.6514	323.2847	19013.25	18181.9
805.7945	325.4887	19096.2	18263.1
805.9376	327.692	19066.55	18230.95
806.0807	329.8949	18987.35	18151.1
806.2238	332.0972	18713.5	17876.05
806.367	334.2989	18459.6	17618.15
806.5101	336.5001	18173.85	17330.2
806.6533	338.7007	17949.05	17107.2
806.7965	340.9008	17867.15	17022.5
806.9397	343.1003	17720.75	16874.55
807.0829	345.2992	17655.05	16807.7
807.2261	347.4976	17679.35	16832.7
807.3693	349.6955	17679.9	16833
807.5126	351.8927	17781.2	16928.65
807.6559	354.0895	17789	16924.75
807.7991	356.2856	17862.1	17009.4
807.9424	358.4812	17832.5	16975.25
808.0857	360.6763	17879.8	17022.3
808.2291	362.8707	17845.05	16988.65
808.3724	365.0646	17904.1	17046.1
808.5158	367.258	17924.1	17066.5
808.6591	369.4508	17908.3	17042
808.8025	371.643	18021.85	17157.3
808.9459	373.8346	18020.65	17151.6
809.0893	376.0257	17996.3	17128.95
809.2327	378.2162	17892.25	17027.6
809.3762	380.4062	17841.7	16979.3
809.5196	382.5956	17652.7	16792.85
809.6631	384.7844	17581.5	16722.65
809.8066	386.9726	17470.2	16611.05
809.9501	389.1603	17397.85	16542.5
810.0936	391.3474	17409.2	16518.45
810.2371	393.5339	17403.1	16542
810.3806	395.7199	17343.4	16486.3
810.5241	397.9052	17378.9	16520.65
810.6677	400.09	17409.5	16552.1
810.8113	402.2743	17476.55	16616.2
810.9548	404.4579	17536.35	16676.45
811.0984	406.641	17700.75	16839.45
811.2421	408.8235	17894.65	17036.05
811.3857	411.0054	18252.1	17386.9
811.5293	413.1868	18726.25	17856.75
811.673	415.3675	19081.15	18206.6
811.8166	417.5477	19317.7	18443
811.9603	419.7273	19367.35	18491.9
812.104	421.9064	19275.85	18396
812.2477	424.0848	19127	18257.55
812.3914	426.2627	18934.8	18060.1
812.5351	428.4399	18668.2	17794.75
812.6788	430.6166	18271.5	17392.1
812.8226	432.7928	17920.25	17036.45
812.9663	434.9683	17583.3	16708
813.1101	437.1432	17390.7	16517.15
813.2539	439.3176	17203.15	16334.15
813.3977	441.4914	17099.8	16234.2
813.5415	443.6645	17088.35	16219.55
813.6853	445.8371	17053.5	16179.4
813.8291	448.0091	16962.4	16086.95
813.973	450.1806	16919.45	16044.45
814.1168	452.3514	16878.15	16005.4
814.2607	454.5216	16905.7	16021.25
814.4046	456.6913	16823.35	15947.95
814.5485	458.8603	16852.65	15976.75
814.6924	461.0288	16933.2	16063.3
814.8363	463.1967	16967.8	16100.9
814.9802	465.3639	17093.85	16221.95
815.1241	467.5306	17190.6	16318.05
815.2681	469.6967	17335.95	16466.5
815.412	471.8622	17489.65	16623.2
815.556	474.0271	17668.85	16796.1
815.7	476.1914	17771.6	16893.9
815.844	478.3551	17776.8	16900.85
815.988	480.5182	17762.25	16890.85
816.132	482.6807	17765	16901.3
816.276	484.8426	17846	16987.6
816.4201	487.0039	18140.4	17274.5
816.5641	489.1647	18524.85	17649.9
816.7082	491.3248	18964.45	18085.45
816.8522	493.4843	19188.65	18317.85
816.9963	495.6432	19186.8	18316.75
817.1404	497.8015	19123.55	18235.85
817.2845	499.9592	19150.9	18261
817.4286	502.1163	19098.45	18204.95
817.5727	504.2728	18894.7	18016.5
817.7168	506.4287	18601.3	17731.3
817.861	508.5839	18161.4	17291.85
818.0051	510.7386	17859.3	16984.1
818.1493	512.8927	17682.85	16796.5
818.2935	515.0461	17567.15	16685.45
818.4377	517.199	17522.5	16635.3
818.5818	519.3512	17536.15	16648.05
818.726	521.5029	17546.8	16652.65
818.8703	523.6539	17600.1	16713.4
819.0145	525.8043	17678.2	16789.1
819.1587	527.9541	17692.2	16801.55
819.303	530.1033	17673.65	16783.55
819.4472	532.2519	17716.75	16830.9
819.5915	534.3999	17885.55	16994.6
819.7357	536.5472	18172.35	17282.55
819.88	538.694	18694.2	17809.25
820.0243	540.8401	19273.2	18382.55
820.1686	542.9856	19821.95	18923.35
820.3129	545.1305	20010.9	19103
820.4572	547.2748	19903.2	18995.45
820.6016	549.4185	19508.1	18597.6
820.7459	551.5615	19157.5	18251.45
820.8902	553.704	19021.9	18118.2
821.0346	555.8458	18943.4	18045
821.1789	557.987	18942.4	18046.45
821.3233	560.1276	18896.1	17996.6
821.4677	562.2675	18912.85	18007.8
821.6121	564.4069	18906.1	18004.25
821.7565	566.5456	18897.25	17996.2
821.9009	568.6837	18812	17920.35
822.0453	570.8212	18527.95	17632
822.1897	572.958	18232.95	17336.4
822.3342	575.0942	17993.85	17102.25
822.4786	577.2299	17832.6	16942.55
822.6231	579.3648	17826.95	16949.8
822.7675	581.4992	17871.05	17004.3
822.912	583.6329	18077.15	17208.6
823.0565	585.766	18334.55	17460.75
823.201	587.8985	18459.3	17579.35
823.3454	590.0304	18471.55	17569.65
823.4899	592.1616	18439.25	17541.25
823.6345	594.2922	18349.3	17448.85
823.779	596.4222	18210.25	17306.7
823.9235	598.5515	18056.7	17151.8
824.068	600.6802	17863.2	16961.3
824.2126	602.8083	17733	16834.75
824.3571	604.9358	17692.3	16789.9
824.5017	607.0626	17626.75	16722.5
824.6462	609.1888	17567.15	16653.4
824.7908	611.3144	17533.7	16620.7
824.9354	613.4393	17393.2	16480.7
825.08	615.5636	17287.3	16375.45
825.2246	617.6873	17220.8	16312.5
825.3692	619.8103	17132.75	16225.65
825.5138	621.9327	17053.3	16148.65
825.6584	624.0544	17045.5	16139.9
825.803	626.1756	17052.65	16149.4
825.9477	628.2961	17027.15	16119.55
826.0923	630.4159	16958.45	16052.65
826.237	632.5351	16932	16019.75
826.3816	634.6537	16879.5	15970.1
826.5263	636.7716	16865.1	15950.25
826.6709	638.8889	16876.1	15959.75
826.8156	641.0056	16916.7	16000
826.9603	643.1216	16903.2	15987.05
827.105	645.237	16976.25	16063.15
827.2497	647.3518	16976.55	16069.6
827.3944	649.4659	17011.5	16109.65
827.5391	651.5793	17030.2	16127.3
827.6838	653.6922	17003.05	16098.4
827.8285	655.8043	17001.4	16094.45
827.9733	657.9159	16978.2	16068.9
828.118	660.0268	16932.25	16025.95
828.2627	662.137	16873.75	15961.3
828.4075	664.2466	16852.3	15934.6
828.5522	666.3556	16870.75	15956.55
828.697	668.4639	16863.7	15952.1
828.8418	670.5716	16929.5	16022.9
828.9865	672.6786	17022.85	16111.65
829.1313	674.785	17073.95	16156.8
829.2761	676.8907	17153.5	16242.55
829.4209	678.9958	17225.75	16320.05
829.5657	681.1002	17186	16269.65
829.7105	683.204	17201.4	16279.45
829.8553	685.3072	17143.3	16221.55
830.0001	687.4097	17089.4	16175.5
830.1449	689.5115	17053.95	16133.8
830.2898	691.6127	17024.6	16109.45
830.4346	693.7132	16947.75	16035.65
830.5794	695.8131	16931.4	15994.95
830.7243	697.9123	16940.65	16018.4
830.8691	700.0109	16904.95	15986.5
831.014	702.1089	16892.9	15972.1
831.1588	704.2061	16933.5	16017.9
831.3037	706.3028	16956.15	16032.8
831.4486	708.3987	17047.6	16125.35
831.5935	710.4941	17087.75	16171.15
831.7383	712.5887	17300.3	16381.8
831.8832	714.6827	17555.45	16636.5
832.0281	716.7761	17940.35	17024.25
832.173	718.8688	18320.15	17402.85
832.3179	720.9608	18547.1	17621.3
832.4628	723.0522	18644.1	17714.4
832.6077	725.1429	18427.5	17502.5
832.7527	727.233	18158.95	17234.85
832.8976	729.3224	17897.45	16976.95
833.0425	731.4112	17602.5	16681.5
833.1874	733.4993	17410.85	16487.95
833.3324	735.5867	17256.8	16338.35
833.4773	737.6735	17146.8	16223.15
833.6222	739.7596	17114.2	16189.25
833.7672	741.845	17072.75	16152.9
833.9122	743.9298	17058.65	16136.1
834.0571	746.014	17053.8	16132.8
834.2021	748.0974	17105.5	16175.1
834.347	750.1802	17129.4	16199
834.492	752.2624	17095.75	16165.3
834.637	754.3439	17117.45	16188.8
834.782	756.4247	17228.85	16293.85
834.9269	758.5048	17304.6	16376.85
835.0719	760.5843	17497.75	16568.5
835.2169	762.6631	17799.4	16872.3
835.3619	764.7413	18234.35	17306.4
835.5069	766.8188	18797.9	17868.7
835.6519	768.8956	19253.4	18327.2
835.7969	770.9718	19642.8	18717.4
835.9419	773.0473	19492.65	18565.1
836.0869	775.1221	19182.8	18251.65
836.232	777.1962	18801.8	17871.7
836.377	779.2697	18608.9	17676.7
836.522	781.3426	18654.8	17705.55
836.667	783.4147	18897.25	17966.3
836.8121	785.4862	19312.6	18382.25
836.9571	787.557	19324.3	18393.95
837.1021	789.6271	18971.3	18036.85
837.2472	791.6966	18459.65	17528.7
837.3922	793.7654	17948.45	17020.4
837.5373	795.8335	17635.3	16703.9
837.6823	797.901	17440.35	16511.8
837.8274	799.9678	17378.15	16448.85
837.9724	802.0339	17430.35	16499.15
838.1175	804.0993	17486	16541.9
838.2626	806.1641	17448.45	16514.85
838.4076	808.2282	17429.1	16496.25
838.5527	810.2916	17357.85	16425.3
838.6978	812.3544	17267.75	16338.65
838.8428	814.4164	17169.4	16238.7
838.9879	816.4778	17182.2	16247.35
839.133	818.5385	17174	16239.45
839.2781	820.5986	17283.5	16346.45
839.4232	822.658	17350.1	16413.05
839.5682	824.7166	17461.55	16525.4
839.7133	826.7747	17688.7	16752.95
839.8584	828.832	17814.7	16878.85
840.0035	830.8886	17954.25	17020.95
840.1486	832.9446	18115.55	17175.95
840.2937	834.9999	18154.05	17220.5
840.4388	837.0545	18229.95	17290.95
840.5839	839.1085	18222	17285.75
840.729	841.1618	18224.2	17284.45
840.8741	843.2143	18230.3	17297.05
841.0192	845.2662	18124.2	17188.85
841.1643	847.3175	18090.45	17155.45
841.3095	849.368	17996.95	17062.2
841.4546	851.4179	17921.15	16988.5
841.5997	853.467	17762.8	16828.45
841.7448	855.5155	17638.85	16704
841.8899	857.5633	17578.55	16642.3
842.0351	859.6105	17462.45	16523.15
842.1802	861.6569	17390.3	16453.7
842.3253	863.7027	17380.05	16440.1
842.4704	865.7478	17377.15	16436.85
842.6156	867.7922	17382.55	16445.95
842.7607	869.8359	17407.95	16471.85
842.9058	871.8789	17563.05	16625.35
843.0509	873.9212	17755.05	16783.75
843.1961	875.9629	17873.75	16932
843.3412	878.0039	18105.25	17165.25
843.4863	880.0441	18236.2	17300.65
843.6315	882.0837	18219.8	17284
843.7766	884.1226	18148.95	17209
843.9218	886.1609	18008.3	17073.6
844.0669	888.1984	17931.1	16992.3
844.212	890.2352	17956	17016.55
844.3572	892.2714	17898.9	16960.6
844.5023	894.3069	17926.8	16983.6
844.6475	896.3416	17834.95	16894.7
844.7926	898.3757	17833.55	16890.3
844.9377	900.4091	17857.1	16915.6
845.0829	902.4418	17878.5	16931.05
845.228	904.4739	17851.8	16904.6
845.3732	906.5052	17862.7	16922.3
845.5183	908.5358	17758.95	16814.1
845.6635	910.5658	17640	16695.35
845.8086	912.595	17489.85	16551.55
845.9538	914.6236	17338.5	16395.2
846.0989	916.6515	17310.85	16370.25
846.2441	918.6786	17298	16357.5
846.3892	920.7051	17371.35	16425.5
846.5344	922.7309	17527.1	16584.8
846.6795	924.756	17549.9	16608.95
846.8246	926.7804	17673.8	16729.75
846.9698	928.8041	17599.2	16656.35
847.1149	930.8272	17665.55	16721.7
847.2601	932.8495	17542.25	16599.6
847.4052	934.8711	17531.2	16586.05
847.5504	936.892	17413.45	16468
847.6955	938.9123	17270.1	16328.35
847.8407	940.9318	17105.75	16163.3
847.9858	942.9506	16989.8	16051
848.131	944.9688	16893.7	15951.3
848.2761	946.9862	16858.8	15919.65
848.4213	949.003	16779.6	15838.75
848.5664	951.019	16771	15828.7
848.7115	953.0344	16836.6	15893.95
848.8567	955.0491	16849.35	15905
849.0018	957.063	16978.85	16036
849.147	959.0763	17082.7	16140.2
849.2921	961.0888	17136.05	16193.45
849.4373	963.1007	17225.5	16282.5
849.5824	965.1119	17284.35	16348.85
849.7275	967.1223	17330.4	16404.1
849.8727	969.1321	17357.8	16430.85
850.0178	971.1412	17386.5	16451.45
850.1629	973.1495	17411.1	16472.9
850.3081	975.1572	17464.1	16488.1
850.4532	977.1641	17519.65	16573.7
850.5983	979.1704	17463.2	16520.15
850.7435	981.1759	17498.2	16548.9
850.8886	983.1808	17562.8	16620
851.0337	985.1849	17639.3	16685.2
851.1788	987.1884	17787	16843.8
851.324	989.1911	17990.85	17049.25
851.4691	991.1932	18105.45	17166.1
851.6142	993.1945	18156.75	17216.75
851.7593	995.1951	18085.75	17143.75
851.9045	997.1951	18090.45	17140.35
852.0496	999.1943	18025.95	17080.9
852.1947	1001.1928	17957.35	17016.1
852.3398	1003.1906	17943.7	17004.4
852.4849	1005.1877	18014.9	17071.75
852.63	1007.1841	17945.95	17006.95
852.7751	1009.1798	17863.55	16923.1
852.9202	1011.1748	17673	16730.25
853.0653	1013.1691	17488.75	16547.65
853.2104	1015.1627	17237.25	16300.2
853.3555	1017.1556	17023.45	16084.05
853.5006	1019.1477	16971.95	16035.2
853.6457	1021.1392	16842.15	15908.95
853.7908	1023.1299	16855.55	15924.25
853.9359	1025.12	16849.85	15924.15
854.081	1027.1093	16876.5	15960.2
854.2261	1029.0979	16976	16063.15
854.3712	1031.0859	17061.1	16141.7
854.5163	1033.0731	17042.15	16116.05
854.6613	1035.0596	16978.95	16047.65
854.8064	1037.0454	16836.7	15901.45
854.9515	1039.0304	16739.7	15804.9
855.0965	1041.0148	16597.6	15656.15
855.2416	1042.9985	16517.55	15574.8
855.3867	1044.9814	16494.4	15557
855.5317	1046.9636	16420.45	15481.3
855.6768	1048.9452	16425.5	15486.1
855.8219	1050.926	16428.9	15489.55
855.9669	1052.9061	16428.65	15489.35
856.112	1054.8855	16422.15	15483.5
856.257	1056.8642	16424.75	15485.4
856.4021	1058.8421	16482.6	15537.75
856.5471	1060.8194	16521.7	15583.4
856.6921	1062.7959	16534.15	15592.55
856.8372	1064.7717	16585.6	15643.9
856.9822	1066.7469	16601.7	15660.95
857.1272	1068.7213	16634.75	15692.15
857.2723	1070.695	16618.4	15680.05
857.4173	1072.6679	16501.95	15561.45
857.5623	1074.6402	16477.55	15537.65
857.7073	1076.6117	16464.75	15519.3
857.8523	1078.5826	16484.05	15546.55
857.9973	1080.5527	16478.4	15532.75
858.1423	1082.5221	16596.75	15657.95
858.2873	1084.4908	16749.95	15812
858.4323	1086.4587	16973.75	16031.85
858.5773	1088.426	17120.9	16180.25
858.7223	1090.3925	17095.65	16152.45
858.8673	1092.3584	17070.7	16129.35
859.0123	1094.3235	16941.6	16003.8
859.1573	1096.2879	16853.3	15913.65
859.3022	1098.2515	16800.9	15862.75
859.4472	1100.2145	16888.7	15949.4
859.5922	1102.1767	16935.6	15993.3
859.7371	1104.1382	17089.8	16149.45
859.8821	1106.099	17294.45	16353.7
860.027	1108.0591	17499.15	16557.95
860.172	1110.0185	17635.8	16694.95
860.3169	1111.9771	17683.7	16743.1
860.4619	1113.9351	17465.55	16525.05
860.6068	1115.8923	17200.35	16263.9
860.7517	1117.8488	16894.9	15954.95
860.8967	1119.8045	16578.5	15643.25
861.0416	1121.7596	16449.7	15512.25
861.1865	1123.7139	16345.3	15412.15
861.3314	1125.6675	16349.2	15412.8
861.4763	1127.6204	16449.8	15511.2
861.6212	1129.5726	16427.55	15485.8
861.7661	1131.524	16433.15	15494.9
861.911	1133.4748	16459.3	15521.15
862.0559	1135.4248	16446.35	15504.9
862.2008	1137.3741	16451.75	15513.55
862.3457	1139.3226	16387	15446.45
862.4905	1141.2705	16357.65	15420.4
862.6354	1143.2176	16323.85	15378.2
862.7803	1145.164	16287.8	15346.45
862.9251	1147.1097	16319.5	15377.7
863.07	1149.0546	16333.1	15391.4
863.2148	1150.9989	16220.7	15281.45
863.3597	1152.9424	16125.95	15185.15
863.5045	1154.8852	15934.1	14994.1
863.6493	1156.8272	15834.55	14894.05
863.7942	1158.7686	15769.4	14826.5
863.939	1160.7092	15690.6	14748.25
864.0838	1162.6491	15677.95	14737
864.2286	1164.5883	15753.85	14815.6
864.3734	1166.5267	15830.1	14890.1
864.5182	1168.4644	16005.25	15066.55
864.663	1170.4014	16142.35	15196.65
864.8078	1172.3377	16414.3	15479.2
864.9526	1174.2732	16620.7	15684.5
865.0974	1176.2081	16841.3	15901.1
865.2421	1178.1421	17083.3	16142.7
865.3869	1180.0755	17296.1	16360.55
865.5317	1182.0082	17318.85	16384.65
865.6764	1183.9401	17313.55	16378.05
865.8212	1185.8713	17150.8	16220.4
865.9659	1187.8017	16932.7	16009.4
866.1106	1189.7315	16669.3	15755.05
866.2554	1191.6605	16381.5	15466.55
866.4001	1193.5888	16216.35	15294.05
866.5448	1195.5163	16092.05	15165.55
866.6895	1197.4432	15988.8	15052.45
866.8342	1199.3693	15908.6	14973.4
866.9789	1201.2947	15862.1	14919.95
867.1236	1203.2193	15839.35	14902.3
867.2683	1205.1432	15853	14920.2
867.413	1207.0664	15865.35	14930.8
867.5576	1208.9889	15908.45	14970.8
867.7023	1210.9106	15944.4	15011.45
867.847	1212.8316	16009	15076.2
867.9916	1214.7519	16093.25	15147.85
868.1363	1216.6715	16082.85	15150.7
868.2809	1218.5903	16073.6	15137.6
868.4255	1220.5084	16052.55	15117.5
868.5701	1222.4257	16035.65	15103.6
868.7148	1224.3424	15937.95	15008
868.8594	1226.2583	16022.8	15082.8
869.004	1228.1735	16112.6	15175
869.1486	1230.0879	16163.45	15229.65
869.2932	1232.0016	16293.75	15360.4
869.4377	1233.9146	16315.7	15380.45
869.5823	1235.8269	16235.2	15301
869.7269	1237.7384	16130.85	15200
869.8715	1239.6492	15903.5	14970.6
870.016	1241.5592	15813.3	14880.45
870.1606	1243.4686	15686.55	14749.4
870.3051	1245.3772	15668.4	14733.8
870.4496	1247.285	15674.75	14740.95
870.5941	1249.1922	15601.55	14669.55
870.7387	1251.0986	15595.45	14661.15
870.8832	1253.0042	15592.95	14660.85
871.0277	1254.9092	15615.45	14683.55
871.1722	1256.8134	15702.55	14770.55
871.3167	1258.7169	15826.85	14894.4
871.4611	1260.6196	15985.75	15056.55
871.6056	1262.5216	16198.95	15264.05
871.7501	1264.4229	16324.6	15394.65
871.8945	1266.3234	16437.8	15505.2
872.039	1268.2232	16525.25	15590
872.1834	1270.1223	16532.25	15595.75
872.3278	1272.0207	16538.2	15604.55
872.4723	1273.9183	16520.65	15582.3
872.6167	1275.8151	16399.25	15467.95
872.7611	1277.7113	16290.3	15358.35
872.9055	1279.6067	16154.2	15224.45
873.0499	1281.5014	16056.45	15122.6
873.1943	1283.3953	15989	15053.05
873.3386	1285.2885	15988.25	15059.15
873.483	1287.181	15973.55	15043
873.6274	1289.0727	16044.55	15114.9
873.7717	1290.9637	16132.15	15200.7
873.9161	1292.854	16247.45	15316.7
874.0604	1294.7435	16398.45	15466.35
874.2047	1296.6323	16584.95	15654.6
874.349	1298.5204	16830.3	15893.9
874.4933	1300.4077	17063.25	16129.7
874.6376	1302.2943	17191.35	16260.7
874.7819	1304.1802	17297.25	16368.95
874.9262	1306.0653	17188.4	16255.65
875.0705	1307.9497	16992.5	16061.3
875.2147	1309.8333	16860.4	15930.9
875.359	1311.7162	16791.6	15862.1
875.5032	1313.5984	16780.15	15846.9
875.6475	1315.4798	16842.5	15898.55
875.7917	1317.3605	16945.6	15997.05
875.9359	1319.2405	17024.85	16088.3
876.0801	1321.1197	17008	16070.45
876.2243	1322.9982	16895.3	15957.7
876.3685	1324.876	16810.1	15876.5
876.5127	1326.753	16721.05	15791.45
876.6569	1328.6293	16712.8	15780.3
876.801	1330.5048	16704.9	15771.8
876.9452	1332.3796	16623.45	15691.65
877.0893	1334.2537	16639.45	15682.35
877.2335	1336.127	16510.5	15577.05
877.3776	1337.9996	16497.2	15567.65
877.5217	1339.8714	16459.75	15527.1
877.6658	1341.7426	16424.1	15448.5
877.8099	1343.6129	16376.45	15441.05
877.954	1345.4826	16316.45	15383.5
878.0981	1347.3515	16314.15	15379.75
878.2422	1349.2196	16200.4	15266.65
878.3862	1351.087	16210	15279.45
878.5303	1352.9537	16230.25	15296.35
878.6743	1354.8197	16355.6	15422.1
878.8184	1356.6849	16540.7	15608.45
878.9624	1358.5493	16579.4	15647.3
879.1064	1360.4131	16625.65	15696.65
879.2504	1362.276	16551.5	15619.25
879.3944	1364.1383	16420.1	15489.2
879.5384	1365.9998	16190.5	15253.65
879.6823	1367.8606	15851.55	14919.55
879.8263	1369.7206	15592.1	14662.25
879.9702	1371.5799	15385.7	14449.75
880.1142	1373.4384	15233.5	14299.9
880.2581	1375.2962	15055.25	14119.5
880.402	1377.1533	14770.05	13839.4
880.5459	1379.0096	14451.25	13528.3
880.6898	1380.8652	14194.7	13269.4
880.8337	1382.7201	13942.3	13013.4
880.9776	1384.5742	13698.05	12769
881.1215	1386.4275	13538.05	12603.25
881.2653	1388.2802	13397.1	12469.8
881.4092	1390.132	13268.5	12337.45
881.553	1391.9832	13229.7	12294.5
881.6968	1393.8336	13156.6	12225.1
881.8406	1395.6832	13064.5	12130.75
881.9844	1397.5322	13027.75	12097.7
882.1282	1399.3803	12991.75	12058.7
882.272	1401.2278	12921.9	11995.55
882.4158	1403.0745	12908.25	11982.65
882.5595	1404.9204	12880.05	11950.45
882.7033	1406.7656	12893.05	11962
882.847	1408.6101	12867.5	11935.95
882.9908	1410.4538	12870.45	11940.15
883.1345	1412.2968	12896.1	11967.35
883.2782	1414.139	12957.5	12025.85
883.4219	1415.9805	13012.25	12084.7
883.5656	1417.8213	13088.7	12152.45
883.7092	1419.6613	13179.1	12250.35
883.8529	1421.5006	13349.4	12421.25
883.9965	1423.3391	13601.5	12671.9
884.1402	1425.1769	13890.35	12959
884.2838	1427.0139	14389.65	13460
884.4274	1428.8502	14930.3	14003.2
884.571	1430.6858	15514.15	14585.4
884.7146	1432.5206	15931.05	15004.1
884.8582	1434.3547	16154.3	15226.4
885.0018	1436.188	16155.5	15225.3
885.1453	1438.0206	16096	15168
885.2889	1439.8524	15961.7	15035.85
885.4324	1441.6835	15858.25	14929.7
885.5759	1443.5139	15775.55	14846.2
885.7194	1445.3435	15673.1	14747.85
885.8629	1447.1724	15640.8	14715.6
886.0064	1449.0005	15540.85	14613.95
886.1499	1450.8279	15420.3	14492.5
886.2933	1452.6545	15376.6	14450.6
886.4368	1454.4804	15395.35	14470.05
886.5802	1456.3056	15400.25	14463.2
886.7237	1458.13	15299.3	14375
886.8671	1459.9536	15055.05	14128.4
887.0105	1461.7766	14738.5	13811.6
887.1539	1463.5987	14311.7	13383.85
887.2972	1465.4202	13927.9	12999.6
887.4406	1467.2409	13557.85	12631.6
887.584	1469.0608	13268.15	12340.2
887.7273	1470.88	13026.8	12100.7
887.8706	1472.6984	12797.8	11868.95
888.0139	1474.5161	12557.2	11628.3
888.1572	1476.3331	12394.7	11468.6
888.3005	1478.1493	12222.25	11295.85
888.4438	1479.9648	12153.15	11227.2
888.5871	1481.7795	12051.55	11125.35
888.7303	1483.5935	11982.1	11054.45
888.8736	1485.4067	11894.2	10966.05
889.0168	1487.2192	11876.45	10950.75
889.16	1489.031	11831.15	10902.3
889.3032	1490.842	11756.2	10832.05
889.4464	1492.6522	11732.1	10805.9
889.5896	1494.4618	11672.8	10748.3
889.7327	1496.2705	11639.35	10712.4
889.8759	1498.0785	11603.9	10676.9
890.019	1499.8858	11547.15	10623.1
890.1622	1501.6924	11518.4	10590.5
890.3053	1503.4981	11478.9	10553.3
890.4484	1505.3032	11458.95	10532.65
890.5914	1507.1075	11429.45	10503.3
890.7345	1508.911	11379.85	10452.7
890.8776	1510.7138	11367.35	10440.3
891.0206	1512.5159	11282.65	10356.65
891.1637	1514.3172	11222.5	10299.25
891.3067	1516.1178	11160.8	10235.45
891.4497	1517.9176	11134.5	10207.1
891.5927	1519.7166	11075.4	10152.7
891.7357	1521.515	11037.8	10107.65
891.8786	1523.3126	11004.9	10082.65
892.0216	1525.1094	10977.45	10054.9
892.1645	1526.9055	10955.1	10033
892.3074	1528.7008	10878.6	9955.3
892.4503	1530.4954	10830.1	9908.6
892.5932	1532.2893	10821.7	9901.65
892.7361	1534.0824	10757.5	9831.15
892.879	1535.8747	10764.85	9846.3
893.0218	1537.6663	10732	9814.85
893.1647	1539.4572	10716	9795.65
893.3075	1541.2473	10693.35	9771.7
893.4503	1543.0367	10692.7	9776.45
893.5931	1544.8253	10647.15	9725.15
893.7359	1546.6132	10627.25	9700.9
893.8787	1548.4003	10637.7	9710.9
894.0214	1550.1867	10669.75	9741.95
894.1642	1551.9723	10642.25	9722.8
894.3069	1553.7572	10680.4	9761.2
894.4496	1555.5414	10692.8	9777.9
894.5923	1557.3247	10734.95	9819.05
894.735	1559.1074	10790.2	9877.75
894.8777	1560.8893	10844.45	9931.65
895.0204	1562.6705	10906.8	9995.6
895.163	1564.4509	10958.05	10044.9
895.3056	1566.2305	10995.5	10088.05
895.4482	1568.0094	11070.15	10160.8
895.5908	1569.7876	11108.9	10198.05
895.7334	1571.565	11128.5	10215.45
895.876	1573.3417	11139.35	10224.85
896.0186	1575.1176	11119.35	10204.05
896.1611	1576.8928	11072.4	10164.6
896.3036	1578.6672	10976.05	10073.8
896.4461	1580.4409	10860.2	9958.35
896.5886	1582.2138	10766.4	9860.3
896.7311	1583.986	10654.45	9746.05
896.8736	1585.7575	10563.2	9655.1
897.0161	1587.5282	10465.4	9560.15
897.1585	1589.2981	10413.1	9509.65
897.3009	1591.0673	10382.7	9480.25
897.4433	1592.8358	10399.3	9495.25
897.5857	1594.6035	10397.7	9490.6
897.7281	1596.3704	10379.9	9471.1
897.8705	1598.1366	10386.3	9479.15
898.0128	1599.9021	10407.85	9504.35
898.1551	1601.6668	10438.1	9529.35
898.2975	1603.4308	10523.95	9616.55
898.4398	1605.194	10633.2	9721.75
898.5821	1606.9564	10712.3	9812.6
898.7243	1608.7182	10798.9	9901.4
898.8666	1610.4791	10943.15	10050.9
899.0088	1612.2394	11084.95	10192.2
899.1511	1613.9988	11247.05	10354.4
899.2933	1615.7576	11444.4	10545.15
899.4355	1617.5156	11660	10750.65
899.5776	1619.2728	11868.4	10961.55
899.7198	1621.0293	12010.5	11104.4
899.862	1622.785	12034.55	11128.95
900.0041	1624.54	11925.15	11025.05
900.1462	1626.2942	11795.15	10896.9
900.2883	1628.0477	11527.6	10625.15
900.4304	1629.8005	11285.75	10382.5
900.5725	1631.5525	11093.2	10196.75
900.7145	1633.3037	10902.05	10003.15
900.8566	1635.0542	10762.85	9865.35
900.9986	1636.804	10637.35	9737.15
901.1406	1638.553	10622.65	9643.1
901.2826	1640.3013	10477.7	9577.95
901.4245	1642.0488	10457.05	9559
901.5665	1643.7955	10464.85	9569.75
901.7085	1645.5416	10502.7	9607.25
901.8504	1647.2868	10572.8	9676.6
901.9923	1649.0313	10641.35	9740.75
902.1342	1650.7751	10770.45	9868.4
902.2761	1652.5181	10944.9	10047.75
902.4179	1654.2604	11110.95	10213.4
902.5598	1656.0019	11389.15	10492.25
902.7016	1657.7427	11660.65	10760.45
902.8434	1659.4828	11965.95	11064.75
902.9852	1661.222	12141.45	11242.65
903.127	1662.9606	12164.1	11265.9
903.2687	1664.6984	11986.95	11085.6
903.4105	1666.4354	11605.85	10701.75
903.5522	1668.1717	11134.65	10231.95
903.6939	1669.9072	10629.35	9725.45
903.8356	1671.642	10232.05	9325.95
903.9773	1673.3761	9883.45	8982.75
904.119	1675.1094	9582.2	8683.2
904.2606	1676.8419	9358.35	8459.3
904.4022	1678.5737	9213.5	8316.2
904.5439	1680.3048	9058.7	8157.65
904.6855	1682.0351	8930.1	8028.9
904.827	1683.7646	8854.15	7950.7
904.9686	1685.4934	8757.05	7858.05
905.1101	1687.2215	8697	7798.15
905.2517	1688.9488	8619.05	7721.45
905.3932	1690.6754	8557.5	7659.8
905.5347	1692.4012	8535.75	7636.85
905.6761	1694.1263	8471.15	7570.9
905.8176	1695.8506	8446.9	7547.15
905.9591	1697.5742	8410.6	7513.6
906.1005	1699.297	8367.2	7471.95
906.2419	1701.0191	8302.75	7408.75
906.3833	1702.7404	8263.3	7370.05
906.5246	1704.461	8208.3	7311.45
906.666	1706.1808	8187.9	7291.4
906.8073	1707.8999	8161.55	7266.45
906.9487	1709.6182	8119.3	7227.7
907.09	1711.3358	8088.4	7197.65
907.2313	1713.0527	8049.25	7160.65
907.3725	1714.7688	8035.1	7139.6
907.5138	1716.4841	8009.2	7113.3
907.655	1718.1987	7995.75	7095.1
907.7962	1719.9126	7962.35	7070.45
907.9374	1721.6257	7906.05	7014.9
908.0786	1723.338	7895.8	7009.95
908.2198	1725.0496	7853.1	6962.8
908.3609	1726.7605	7838.7	6946.5
908.502	1728.4706	7804.2	6910.55
908.6431	1730.18	7756.45	6866.25
908.7842	1731.8886	7749.55	6858.65
908.9253	1733.5964	7751	6838.2
909.0664	1735.3036	7723.1	6826.45
909.2074	1737.0099	7717.2	6825.45
909.3484	1738.7156	7650.25	6763.1
909.4894	1740.4204	7617.8	6726.1
909.6304	1742.1246	7609.55	6718.35
909.7714	1743.8279	7600.2	6708.2
909.9123	1745.5306	7579	6686.6
910.0532	1747.2325	7540.9	6652.95
910.1941	1748.9336	7496.1	6608.4
910.335	1750.634	7471.3	6575.15
910.4759	1752.3336	7452.55	6562.75
910.6168	1754.0325	7454.7	6568.2
910.7576	1755.7307	7432.55	6544.4
910.8984	1757.4281	7429.35	6535.2
911.0392	1759.1247	7412.65	6511.3
911.18	1760.8206	7398.5	6499.4
911.3208	1762.5158	7376.05	6478.3
911.4615	1764.2102	7347.3	6455
911.6022	1765.9039	7300.15	6411.35
911.7429	1767.5968	7298.7	6414
911.8836	1769.289	7272.4	6385.4
912.0243	1770.9804	7242.05	6349.85
912.1649	1772.6711	7248.55	6353.55
912.3056	1774.361	7232.2	6338.25
912.4462	1776.0502	7233.1	6337.3
912.5868	1777.7386	7190.55	6294.7
912.7274	1779.4263	7164.25	6273.3
912.8679	1781.1132	7153.7	6267.5
913.0084	1782.7994	7142.9	6254.8
913.149	1784.4849	7123.15	6238
913.2895	1786.1696	7123.15	6228
913.4299	1787.8535	7076.45	6190.8
913.5704	1789.5367	7071.05	6183.95
913.7108	1791.2192	7050.85	6164.3
913.8513	1792.9009	7051.6	6138.75
913.9917	1794.5818	7002.6	6109.35
914.132	1796.2621	6988.5	6099.2
914.2724	1797.9415	6965.1	6074.3
914.4128	1799.6202	6948.65	6058.05
914.5531	1801.2982	6973.25	6082.35
914.6934	1802.9755	6950.75	6058.25
914.8337	1804.6519	6927.95	6035.15
914.9739	1806.3277	6880.15	5992.35
915.1142	1808.0027	6867.25	5983.8
915.2544	1809.6769	6869.5	5984.8
915.3946	1811.3504	6832.15	5945.8
915.5348	1813.0231	6827.85	5944.4
915.675	1814.6951	6814.6	5926.3
915.8151	1816.3664	6814.25	5924.6
915.9553	1818.0369	6806.25	5914
916.0954	1819.7067	6788.3	5900.3
916.2355	1821.3757	6776.05	5885.8
916.3755	1823.044	6752.75	5860.8
916.5156	1824.7115	6761.55	5871.85
916.6556	1826.3783	6707.1	5817.55
916.7956	1828.0443	6699	5812.1
916.9356	1829.7096	6679.15	5788.5
917.0756	1831.3741	6668.15	5777.1
917.2155	1833.0379	6656.8	5769.1
917.3555	1834.701	6612.3	5726.2
917.4954	1836.3633	6640.85	5753.55
917.6353	1838.0248	6613.05	5724.75
917.7751	1839.6856	6590.4	5701.15
917.915	1841.3457	6571.25	5683.85
918.0548	1843.005	6569.45	5679.7
918.1946	1844.6636	6571.6	5682.65
918.3344	1846.3214	6519	5630.8
918.4742	1847.9785	6529.55	5640.3
918.6139	1849.6349	6508.65	5617.65
918.7537	1851.2904	6507.25	5609.3
918.8934	1852.9453	6478.05	5584.85
919.0331	1854.5994	6461.25	5567.5
919.1727	1856.2528	6480.25	5586.9
919.3124	1857.9054	6451.75	5560.55
919.452	1859.5572	6451.85	5565.8
919.5916	1861.2083	6436.2	5547.25
919.7312	1862.8587	6433.25	5544.9
919.8708	1864.5084	6393.8	5501.85
920.0103	1866.1572	6388.1	5496.25
920.1498	1867.8054	6357.4	5464.2
920.2893	1869.4528	6353.35	5461.3
920.4288	1871.0994	6335.65	5443.5
920.5683	1872.7453	6331.45	5441.35
920.7077	1874.3905	6328.95	5421.9
920.8471	1876.0349	6277.25	5386.7
920.9865	1877.6786	6271.55	5380.05
921.1259	1879.3215	6260	5373.5
921.2653	1880.9637	6274.85	5385.85
921.4046	1882.6051	6250.05	5360.5
921.5439	1884.2458	6233.9	5341.9
921.6832	1885.8858	6198.45	5311.15
921.8225	1887.525	6195.3	5303.95
921.9617	1889.1634	6162.9	5273.5
922.101	1890.8011	6153.35	5260.65
922.2402	1892.4381	6141.4	5251.6
922.3794	1894.0743	6140.2	5252.1
922.5185	1895.7098	6113.45	5226.75
922.6577	1897.3446	6113.55	5225.15
922.7968	1898.9786	6092.85	5199.45
922.9359	1900.6118	6091.7	5202.8
923.075	1902.2443	6038.4	5150.05
923.214	1903.8761	6041.55	5153.15
923.3531	1905.5071	6001.9	5110.35
923.4921	1907.1374	5984.95	5095.9
923.6311	1908.7669	5985.9	5096.7
923.77	1910.3957	5969.25	5082.55
923.909	1912.0237	5943.2	5055.25
924.0479	1913.651	5939.05	5049.05
924.1868	1915.2776	5913.15	5026.9
924.3257	1916.9034	5897.5	5011.15
924.4646	1918.5285	5882.65	4995.55
924.6034	1920.1528	5868.6	4979.35
924.7422	1921.7764	5831.85	4944.05
924.881	1923.3992	5813.35	4925.9
925.0198	1925.0213	5785.5	4896.9
925.1586	1926.6427	5762.15	4873.65
925.2973	1928.2633	5828.85	4843.1
925.436	1929.8832	5767.75	4878.75
925.5747	1931.5023	5733.05	4843.35
925.7134	1933.1207	5720.25	4831.25
925.852	1934.7383	5716.3	4828.75
925.9906	1936.3552	5683.75	4797.55
926.1292	1937.9714	5684.35	4797.75
926.2678	1939.5868	5668.1	4777.15
926.4064	1941.2015	5620.65	4731.65
926.5449	1942.8154	5607.55	4717.15
926.6834	1944.4286	5585.15	4695.55
926.8219	1946.041	5560.6	4653.35
926.9604	1947.6528	5532.15	4641.45
927.0988	1949.2637	5535.9	4649.8
927.2372	1950.8739	5503.25	4617.2
927.3756	1952.4834	5510.15	4621.9
927.514	1954.0921	5505.5	4618
927.6523	1955.7001	5485.4	4593.85
927.7907	1957.3074	5445.85	4563
927.929	1958.9139	5422.15	4540.7
928.0673	1960.5197	5425.5	4539.05
928.2055	1962.1247	5407.95	4523.35
928.3438	1963.729	5396.7	4514.1
928.482	1965.3325	5368.3	4481.2
928.6202	1966.9353	5315.7	4431.85
928.7584	1968.5374	5330.15	4444.7
928.8965	1970.1387	5316.5	4433.75
929.0346	1971.7393	5293.2	4409.85
929.1727	1973.3392	5280.4	4395.9
929.3108	1974.9383	5257.4	4376.4
929.4489	1976.5366	5230.2	4347.25
929.5869	1978.1342	5233	4352
929.7249	1979.7311	5209.7	4325.75
929.8629	1981.3273	5205.6	4325.3
930.0009	1982.9227	5185.6	4304.9
930.1388	1984.5173	5160.8	4281.15
930.2767	1986.1112	5154.35	4272.95
930.4146	1987.7044	5132.25	4253.3
930.5525	1989.2968	5127.05	4243.8
930.6904	1990.8885	5131.05	4247.95
930.8282	1992.4795	5117.15	4236.35
930.966	1994.0697	5075.1	4195.85
931.1038	1995.6592	5068.5	4187.4
931.2415	1997.2479	5071.05	4189.4
931.3793	1998.8359	5047.25	4166.3
931.517	2000.4232	5032.55	4156.95
931.6547	2002.0097	5010.25	4134.2
931.7923	2003.5955	4977.35	4099.75
931.93	2005.1805	5003.4	4124.55
932.0676	2006.7648	4976.6	4099.75
932.2052	2008.3484	4967.95	4090.7
932.3427	2009.9312	4950.05	4073.1
932.4803	2011.5133	4942.35	4067.35
932.6178	2013.0946	4932.5	4056.8
932.7553	2014.6752	4915.55	4038.45
932.8928	2016.2551	4917.1	4040.5
933.0302	2017.8342	4883.1	4004.3
933.1676	2019.4126	4872.95	3997.3
933.305	2020.9902	4852.8	3977.75
933.4424	2022.5672	4846.95	3970.2
933.5798	2024.1433	4845.9	3966.9
933.7171	2025.7188	4814.5	3943.25
933.8544	2027.2935	4810.8	3934.7
933.9917	2028.8674	4787.8	3913.8
934.129	2030.4406	4789.3	3916.25
934.2662	2032.0131	4777.8	3905.95
934.4034	2033.5849	4756.05	3872.55
934.5406	2035.1559	4744.9	3872.5
934.6778	2036.7261	4748.75	3872.6
934.8149	2038.2957	4723.5	3844.7
934.952	2039.8645	4718.7	3839.55
935.0891	2041.4325	4723.05	3841.2
935.2262	2042.9998	4692.55	3816.2
935.3632	2044.5664	4689.45	3812.25
935.5002	2046.1323	4667.05	3790.35
935.6372	2047.6974	4668.35	3793.15
935.7742	2049.2617	4654.45	3780.2
935.9111	2050.8254	4652.45	3773.1
936.048	2052.3883	4636.85	3757.35
936.1849	2053.9504	4631.05	3749.4
936.3218	2055.5118	4616.8	3733.75
936.4586	2057.0725	4598.7	3718.15
936.5955	2058.6325	4575.1	3697
936.7323	2060.1917	4570.35	3694.85
936.869	2061.7502	4577.15	3697.25
937.0058	2063.3079	4536.6	3662.8
937.1425	2064.8649	4524.45	3645.2
937.2792	2066.4212	4524.55	3647.2
937.4159	2067.9767	4521.3	3644
937.5525	2069.5315	4495.05	3619.6
937.6891	2071.0856	4496.55	3618.8
937.8257	2072.6389	4456.75	3581.2
937.9623	2074.1915	4443.25	3570.35
938.0989	2075.7433	4428.85	3551
938.2354	2077.2945	4430.15	3552.85
938.3719	2078.8448	4408	3528.3
938.5084	2080.3945	4384	3506.65
938.6448	2081.9434	4400.95	3519.85
938.7812	2083.4916	4393.25	3511.5
938.9176	2085.039	4373.6	3488.6
939.054	2086.5857	4375.95	3489.5
939.1903	2088.1317	4361.65	3475.3
939.3267	2089.677	4326.15	3441.25
939.463	2091.2215	4334.05	3446.85
939.5992	2092.7652	4323.8	3436.25
939.7355	2094.3083	4316.9	3428.95
939.8717	2095.8506	4306.8	3423.35
940.0079	2097.3921	4312.5	3431.75
940.1441	2098.933	4301.3	3417.95
940.2802	2100.4731	4277	3395.2
940.4163	2102.0124	4284.35	3384.6
940.5524	2103.5511	4263.4	3383.4
940.6885	2105.089	4247.75	3365.65
940.8245	2106.6261	4241.65	3359.85
940.9606	2108.1626	4233.15	3351.25
941.0965	2109.6983	4245.95	3337.1
941.2325	2111.2332	4231.1	3349
941.3684	2112.7675	4217.15	3333.65
941.5044	2114.301	4215	3331.15
941.6403	2115.8337	4206.45	3324.9
941.7761	2117.3657	4180.15	3297.15
941.912	2118.897	4180.7	3298.35
942.0478	2120.4276	4169.15	3281.5
942.1835	2121.9575	4155.9	3272.8
942.3193	2123.4866	4164.9	3268.5
942.455	2125.0149	4135.6	3250.1
942.5907	2126.5426	4127.8	3249.7
942.7264	2128.0695	4106.35	3222.75
942.8621	2129.5956	4115.8	3240
942.9977	2131.1211	4102.1	3221.1
943.1333	2132.6458	4097.6	3217.9
943.2689	2134.1698	4079.9	3198.4
943.4044	2135.693	4077.55	3192.4
943.54	2137.2155	4066.4	3178.85
943.6755	2138.7373	4046.6	3165.05
943.8109	2140.2584	4032.4	3155.5
943.9464	2141.7787	4023.3	3139.4
944.0818	2143.2983	3994	3118.9
944.2172	2144.8171	3999.05	3123.95
944.3526	2146.3353	3986.6	3107.7
944.4879	2147.8527	3976.4	3098.45
944.6232	2149.3693	3964	3082.1
944.7585	2150.8853	3963.7	3081.25
944.8938	2152.4005	3945.15	3061.95
945.029	2153.9149	3947.2	3063.65
945.1642	2155.4287	3949.75	3067.15
945.2994	2156.9417	3936.7	3053.8
945.4346	2158.454	3934.5	3050.1
945.5697	2159.9655	3898.85	3019.9
945.7048	2161.4764	3900.25	3019.95
945.8399	2162.9865	3890	3009.05
945.9749	2164.4958	3891	3013.1
946.1099	2166.0045	3888.95	3008.45
946.2449	2167.5124	3871.2	2990.8
946.3799	2169.0195	3869.65	2987.35
946.5148	2170.526	3863.9	2980.7
946.6498	2172.0317	3834.2	2952.6
946.7846	2173.5367	3823.85	2941.55
946.9195	2175.0409	3817.25	2936.25
947.0543	2176.5445	3817.7	2936.45
947.1891	2178.0473	3826.8	2943.55
947.3239	2179.5494	3793.85	2908.3
947.4587	2181.0507	3795.4	2916.65
947.5934	2182.5513	3784.2	2901.95
947.7281	2184.0512	3792.2	2906.8
947.8628	2185.5504	3766.1	2887.15
947.9974	2187.0488	3733.55	2854.7
948.132	2188.5465	3736.25	2857.5
948.2666	2190.0435	3741.2	2861
948.4012	2191.5397	3733.2	2850.8
948.5357	2193.0353	3718.6	2834.55
948.6702	2194.5301	3713.05	2827.4
948.8047	2196.0241	3693.4	2808.4
948.9392	2197.5175	3681.5	2794.3
949.0736	2199.0101	3670.35	2778.6
949.208	2200.502	3643.7	2759.85
949.3424	2201.9931	3645.05	2766.7
949.4767	2203.4835	3657.35	2776.1
949.611	2204.9733	3628.35	2745.5
949.7453	2206.4622	3620.65	2741.45
949.8796	2207.9505	3603.35	2723.7
950.0138	2209.438	3598.4	2723.2
950.148	2210.9248	3583.45	2705.95
950.2822	2212.4109	3579.2	2697.55
950.4164	2213.8962	3579.75	2693.1
950.5505	2215.3809	3579.9	2692.1
950.6846	2216.8648	3580.05	2690.35
950.8186	2218.3479	3565.45	2672
950.9527	2219.8304	3546	2653.9
951.0867	2221.3121	3535.85	2645.45
951.2207	2222.7931	3537.85	2650
951.3546	2224.2733	3517.9	2633.15
951.4886	2225.7529	3505.2	2623.25
951.6225	2227.2317	3479.1	2597.55
951.7563	2228.7098	3488.5	2610.9
951.8902	2230.1872	3471.45	2592.7
952.024	2231.6638	3480.75	2602.05
952.1578	2233.1397	3460.95	2576.45
952.2916	2234.6149	3454.5	2576.5
952.4253	2236.0894	3448.65	2568.3
952.559	2237.5632	3448.55	2565.15
952.6927	2239.0362	3417.35	2534.15
952.8263	2240.5085	3429.35	2546.85
952.9599	2241.9801	3411.55	2529.2
953.0935	2243.4509	3401.2	2516.35
953.2271	2244.921	3393.6	2509.6
953.3606	2246.3904	3376.1	2486
953.4941	2247.8591	3370.25	2486.9
953.6276	2249.3271	3351	2466.5
953.7611	2250.7943	3358.85	2474.05
953.8945	2252.2608	3350.75	2467.05
954.0279	2253.7266	3339.35	2456.25
954.1612	2255.1917	3320.1	2435.2
954.2946	2256.656	3316.9	2435.7
954.4279	2258.1197	3309	2429.4
954.5612	2259.5826	3310.45	2427.25
954.6944	2261.0447	3311.15	2427.7
954.8276	2262.5062	3285.95	2399.5
954.9608	2263.9669	3285	2398.5
955.094	2265.4269	3289.35	2405.95
955.2271	2266.8862	3266.5	2384.35
955.3602	2268.3448	3249.35	2367.4
955.4933	2269.8026	3256.6	2376.45
955.6264	2271.2598	3247.15	2365.7
955.7594	2272.7162	3249.6	2366.3
955.8924	2274.1719	3235.2	2350
956.0253	2275.6268	3240.4	2355.6
956.1583	2277.0811	3230	2344.95
956.2912	2278.5346	3218.35	2336.7
956.4241	2279.9874	3218.55	2335.6
956.5569	2281.4395	3209.05	2329.5
956.6897	2282.8908	3212.4	2327.15
956.8225	2284.3414	3193.65	2308.75
956.9553	2285.7914	3175.85	2293.85
957.088	2287.2406	3176.75	2293.4
957.2207	2288.689	3179.5	2292.8
957.3534	2290.1368	3165.85	2277.05
957.486	2291.5838	3163.95	2270.9
957.6186	2293.0302	3167.65	2276.55
957.7512	2294.4758	3146.85	2262.4
957.8838	2295.9206	3133.05	2245.4
958.0163	2297.3648	3129.8	2249.3
958.1488	2298.8082	3124.9	2240.1
958.2813	2300.251	3114.55	2226.3
958.4137	2301.693	3108.85	2219.25
958.5461	2303.1343	3101.05	2215.55
958.6785	2304.5748	3101.9	2219.1
958.8108	2306.0147	3098	2214.9
958.9432	2307.4538	3073.15	2191.7
959.0754	2308.8922	3051.15	2173.45
959.2077	2310.3299	3065.3	2184.75
959.3399	2311.7669	3053.1	2173.2
959.4721	2313.2031	3053.8	2170.45
959.6043	2314.6387	3047.4	2162.15
959.7365	2316.0735	3032.85	2149.75
959.8686	2317.5076	3024.6	2140.2
960.0006	2318.941	3029	2144.7
960.1327	2320.3737	3025.8	2137.45
960.2647	2321.8056	3015.25	2128.75
960.3967	2323.2369	3006.15	2122.25
960.5287	2324.6674	3006.45	2118.95
960.6606	2326.0972	2993.05	2106.35
960.7925	2327.5263	2985.35	2101.25
960.9244	2328.9547	2974.35	2089.2
961.0562	2330.3823	2971.75	2084.85
961.1881	2331.8092	2983.7	2092.95
961.3198	2333.2355	2939.3	2054.1
961.4516	2334.661	2963.9	2076.95
961.5833	2336.0858	2947.8	2060.75
961.715	2337.5098	2950.1	2066.05
961.8467	2338.9332	2936.15	2051.35
961.9783	2340.3558	2926.05	2039.25
962.1099	2341.7778	2925.75	2043.65
962.2415	2343.199	2925.1	2042.45
962.373	2344.6195	2920.9	2039
962.5045	2346.0393	2909.2	2025.9
962.636	2347.4583	2910.85	2027.85
962.7675	2348.8767	2904.7	2020.35
962.8989	2350.2943	2894.65	2011.6
963.0303	2351.7113	2882.6	1993.9
963.1617	2353.1275	2883.55	1998.05
963.293	2354.543	2898.65	1989.15
963.4243	2355.9578	2872.4	1987.6
963.5556	2357.3718	2843.25	1958.95
963.6868	2358.7852	2837.95	1956.25
963.818	2360.1978	2842.05	1958
963.9492	2361.6098	2843.35	1965
964.0803	2363.021	2832.75	1946.3
964.2114	2364.4315	2829.8	1946.55
964.3425	2365.8413	2820.75	1935.85
964.4736	2367.2504	2807.15	1926.4
964.6046	2368.6587	2800.45	1919.15
964.7356	2370.0664	2792.15	1912.25
964.8666	2371.4733	2792.1	1911.65
964.9975	2372.8795	2781.85	1901
965.1284	2374.285	2773.45	1889.2
965.2593	2375.6899	2774.4	1895.05
965.3901	2377.0939	2756.75	1875.7
965.5209	2378.4973	2757.15	1879.2
965.6517	2379.9	2745.6	1865.45
965.7825	2381.3019	2736.65	1857.6
965.9132	2382.7032	2722.8	1842.35
966.0439	2384.1037	2716.4	1839.1
966.1745	2385.5035	2709.5	1832.2
966.3051	2386.9027	2706.7	1829.75
966.4357	2388.3011	2703.85	1823.65
966.5663	2389.6987	2697.2	1820.4
966.6968	2391.0957	2692.8	1812.55
966.8273	2392.492	2680.4	1804
966.9578	2393.8876	2675.15	1797.55
967.0882	2395.2824	2663.35	1782.9
967.2186	2396.6765	2651.25	1772.65
967.349	2398.07	2647.6	1767.75
967.4793	2399.4627	2659.55	1778.4
967.6097	2400.8547	2645.4	1764.55
967.7399	2402.246	2634.2	1746.4
967.8702	2403.6366	2626.25	1745.55
968.0004	2405.0265	2609.2	1731.35
968.1306	2406.4156	2624.4	1742.25
968.2607	2407.8041	2601.95	1721.15
968.3909	2409.1918	2599.25	1716.8
968.521	2410.5789	2586.3	1708
968.651	2411.9652	2585.5	1703.35
968.781	2413.3508	2590.3	1709.45
968.911	2414.7358	2573.95	1692.05
969.041	2416.12	2579.25	1701.15
969.1709	2417.5035	2569.2	1688.45
969.3008	2418.8863	2552.2	1671.9
969.4307	2420.2684	2548.75	1666.25
969.5606	2421.6497	2545.95	1665.8
969.6904	2423.0304	2538.3	1658
969.8201	2424.4104	2548.35	1668.6
969.9499	2425.7896	2523.95	1644.6
970.0796	2427.1682	2517.3	1638.8
970.2093	2428.546	2528.05	1648.35
970.3389	2429.9232	2515.5	1633.3
970.4685	2431.2996	2513.45	1633.2
970.5981	2432.6753	2516.45	1636.9
970.7277	2434.0503	2501.65	1621.35
970.8572	2435.4246	2496.65	1615.25
970.9867	2436.7982	2494.35	1610.5
971.1161	2438.1711	2490.4	1611.05
971.2456	2439.5433	2478.7	1596.6
971.375	2440.9148	2475.95	1591.3
971.5043	2442.2856	2472.95	1592.45
971.6336	2443.6557	2463.75	1580.85
971.7629	2445.025	2454.3	1574.6
971.8922	2446.3937	2452.3	1571.95
972.0214	2447.7617	2441.65	1560.35
972.1506	2449.1289	2441	1562.35
972.2798	2450.4955	2439.45	1555.35
972.4089	2451.8613	2429	1550.15
972.538	2453.2265	2430.05	1548.85
972.6671	2454.5909	2432.1	1551.4
972.7961	2455.9546	2429.4	1550.4
972.9251	2457.3177	2412.75	1533.95
973.0541	2458.68	2409.1	1527.55
973.1831	2460.0416	2396.4	1514.05
973.312	2461.4025	2411.1	1530.55
973.4408	2462.7627	2417.9	1529
973.5697	2464.1222	2393.3	1515.6
973.6985	2465.4811	2380.1	1500.4
973.8273	2466.8392	2389	1509.5
973.956	2468.1966	2399.75	1514.45
974.0847	2469.5533	2402.45	1519.5
974.2134	2470.9093	2378.6	1499.3
974.3421	2472.2645	2375.8	1493.75
974.4707	2473.6191	2363.85	1482.25
974.5993	2474.973	2361.95	1479.25
974.7278	2476.3262	2358.85	1476.25
974.8563	2477.6787	2356.85	1477.75
974.9848	2479.0305	2346.55	1466.1
975.1132	2480.3816	2351.55	1468.35
975.2417	2481.7319	2347.6	1466.25
975.37	2483.0816	2320.65	1438.3
975.4984	2484.4306	2320.7	1439.75
975.6267	2485.7789	2317.25	1437.6
975.755	2487.1264	2314.85	1432.45
975.8833	2488.4733	2313.4	1434.3
976.0115	2489.8195	2306.15	1417.2
976.1397	2491.165	2298.6	1417.7
976.2678	2492.5097	2303.3	1421.05
976.3959	2493.8538	2286.9	1409.05
976.524	2495.1972	2287.4	1407.9
976.6521	2496.5398	2286.5	1403.3
976.7801	2497.8818	2274.6	1391.75
976.9081	2499.2231	2265.9	1385.45
977.036	2500.5637	2269.8	1383.75
977.164	2501.9035	2253.3	1369.75
977.2918	2503.2427	2258.45	1371.55
977.4197	2504.5812	2236.9	1356.55
977.5475	2505.919	2251	1367.1
977.6753	2507.256	2243.7	1362.65
977.8031	2508.5924	2234.4	1351.55
977.9308	2509.9281	2238.65	1352.9
978.0585	2511.2631	2219.7	1338.55
978.1861	2512.5974	2219.7	1338.25
978.3137	2513.9309	2219.95	1340.7
978.4413	2515.2638	2236.6	1329.9
978.5689	2516.596	2216.35	1336.4
978.6964	2517.9275	2215.5	1334.25
978.8239	2519.2583	2204.4	1322.65
978.9513	2520.5884	2198.3	1315.5
979.0788	2521.9178	2189.05	1308.3
979.2062	2523.2465	2191.85	1310.1
979.3335	2524.5745	2182.5	1302.4
979.4608	2525.9018	2193.15	1311.55
979.5881	2527.2284	2186.9	1306.15
979.7154	2528.5543	2173.55	1294.4
979.8426	2529.8796	2170.3	1290.65
979.9698	2531.2041	2167.95	1286.35
980.0969	2532.5279	2162.4	1283.9
980.224	2533.851	2159.9	1277.7
980.3511	2535.1735	2148.95	1269.25
980.4781	2536.4952	2150.1	1267.65
980.6052	2537.8163	2152.95	1271.8
980.7321	2539.1366	2142.25	1259.1
980.8591	2540.4562	2139.4	1257.25
980.986	2541.7752	2143.15	1261.7
981.1129	2543.0935	2137.15	1256.9
981.2397	2544.411	2134.5	1252.3
981.3665	2545.7279	2124.55	1243.5
981.4933	2547.0441	2120.8	1240
981.62	2548.3596	2128.55	1244.85
981.7467	2549.6744	2126.5	1244.65
981.8734	2550.9885	2125.6	1237.95
982.0001	2552.3019	2116.6	1233
982.1267	2553.6146	2108.45	1228.35
982.2532	2554.9266	2113.3	1231.05
982.3798	2556.2379	2105.3	1222.2
982.5063	2557.5485	2095.1	1216
982.6327	2558.8585	2100.65	1211.5
982.7592	2560.1677	2103.95	1219.2
982.8856	2561.4762	2091.55	1208.05
983.0119	2562.7841	2103.8	1219.1
983.1383	2564.0913	2083.75	1204.45
983.2646	2565.3977	2078.7	1198.3
983.3908	2566.7035	2088.7	1206.75
983.517	2568.0086	2073.75	1188.6
983.6432	2569.313	2075.9	1192.05
983.7694	2570.6167	2068.4	1184.5
983.8955	2571.9197	2069.6	1186.35
984.0216	2573.222	2079.9	1194.75
984.1476	2574.5236	2071.75	1190.7
984.2737	2575.8246	2064.55	1179.3
984.3996	2577.1248	2063.65	1181.4
984.5256	2578.4244	2058.2	1176.25
984.6515	2579.7232	2052.1	1171.25
984.7774	2581.0214	2079.35	1170.1
984.9032	2582.3189	2063.95	1184.35
985.029	2583.6157	2061.3	1175.6
985.1548	2584.9118	2059.8	1179.25
985.2806	2586.2072	2052.3	1168.15
985.4063	2587.5019	2052.35	1169.7
985.5319	2588.7959	2049.95	1166.25
985.6576	2590.0893	2060.2	1175.55
985.7832	2591.3819	2059.7	1177.15
985.9087	2592.6739	2038.45	1156
986.0343	2593.9652	2040.2	1157.05
986.1597	2595.2557	2039.9	1155.3
986.2852	2596.5456	2028.2	1144.2
986.4106	2597.8348	2031.8	1149.7
986.536	2599.1234	2028.55	1146.75
986.6614	2600.4112	2026.8	1144.1
986.7867	2601.6983	2034.2	1148.45
986.912	2602.9848	2026.55	1143.6
987.0372	2604.2705	2028.7	1140.2
987.1624	2605.5556	2010.45	1129.4
987.2876	2606.84	2011.05	1127.9
987.4128	2608.1237	2014.25	1131.75
987.5379	2609.4067	2006.8	1124.7
987.6629	2610.689	2010.45	1120.45
987.788	2611.9707	2001.5	1116.1
987.913	2613.2516	1987.65	1102.1
988.0379	2614.5319	1989.1	1109.55
988.1629	2615.8115	1983.3	1101.75
988.2878	2617.0903	1978.6	1097.15
988.4126	2618.3685	1980.5	1097.8
988.5375	2619.6461	1974.9	1094.1
988.6622	2620.9229	1974.95	1092.85
988.787	2622.199	1965	1082.65
988.9117	2623.4745	1967.5	1085.15
989.0364	2624.7493	1962.25	1080.65
989.161	2626.0234	1956.4	1076.75
989.2857	2627.2968	1963.75	1080.45
989.4102	2628.5695	1957.1	1074.15
989.5348	2629.8415	1949.7	1069.15
989.6593	2631.1128	1957	1073.3
989.7837	2632.3835	1949.4	1070.25
989.9082	2633.6535	1941.95	1061.95
990.0326	2634.9228	1934.65	1053.7
990.1569	2636.1914	1933.25	1053.55
990.2812	2637.4593	1932.3	1047.65
990.4055	2638.7265	1936.65	1054.25
990.5298	2639.9931	1938.1	1057.05
990.654	2641.259	1935.6	1050.75
990.7782	2642.5242	1909.1	1025.8
990.9023	2643.7887	1916.7	1034.8
991.0264	2645.0525	1917.2	1033.2
991.1505	2646.3156	1911.4	1027.75
991.2745	2647.5781	1905.4	1024.7
991.3985	2648.8398	1902.6	1021.05
991.5225	2650.1009	1904.2	1014.7
991.6464	2651.3613	1898.35	1018.55
991.7703	2652.6211	1886.15	1006.85
991.8942	2653.8801	1886.6	1005.7
992.018	2655.1385	1897.85	1013
992.1418	2656.3961	1883.7	1001.4
992.2655	2657.6531	1884.5	1003.4
992.3892	2658.9094	1885.9	1003.65
992.5129	2660.1651	1882.55	1001.4
992.6366	2661.42	1889.95	1008.85
992.7602	2662.6743	1878.5	994.25
992.8837	2663.9279	1890	1009.15
993.0073	2665.1808	1883.3	1000.55
993.1307	2666.433	1886.15	1003.15
993.2542	2667.6846	1879.85	1001.25
993.3776	2668.9354	1879.2	994.8
993.501	2670.1856	1868.4	985.55
993.6244	2671.4351	1877.7	997.05
993.7477	2672.6839	1896.75	1014.25
993.8709	2673.9321	1880.6	1001.75
993.9942	2675.1795	1885.25	1003.35
994.1174	2676.4263	1877.9	996.85
994.2405	2677.6724	1876.4	997.05
994.3637	2678.9179	1875.4	992.6
994.4868	2680.1626	1873.25	992.75
994.6098	2681.4067	1881.55	999.8
994.7328	2682.6501	1871.9	989.7
994.8558	2683.8928	1868.55	987.7
994.9788	2685.1348	1871.55	993.45
995.1017	2686.3761	1860.8	980.2
995.2245	2687.6168	1855.35	974.35
995.3474	2688.8568	1845.25	965
995.4702	2690.0961	1846.25	966.3
995.5929	2691.3348	1853.6	972.1
995.7156	2692.5727	1832.35	952.9
995.8383	2693.81	1832.15	950.75
995.961	2695.0466	1832.6	951.95
996.0836	2696.2826	1833.2	950.25
996.2062	2697.5178	1827.2	941.65
996.3287	2698.7524	1830.9	948.9
996.4512	2699.9863	1820.5	938.4
996.5737	2701.2195	1821.35	942.15
996.6961	2702.452	1830.55	949.3
996.8185	2703.6839	1833.2	952.9
996.9408	2704.9151	1827.25	948.25
997.0631	2706.1456	1832.2	950.45
997.1854	2707.3755	1843.1	962.7
997.3077	2708.6046	1860.6	978.9
997.4299	2709.8331	1852.85	969.45
997.552	2711.0609	1849.75	965.85
997.6742	2712.2881	1859.6	978.55
997.7963	2713.5145	1867.25	984.3
997.9183	2714.7403	1863.6	984.15
998.0403	2715.9654	1884.5	1003.9
998.1623	2717.1899	1900.55	1005.8
998.2842	2718.4136	1900.85	1021.5
998.4062	2719.6367	1924.4	1044.1
998.528	2720.8591	1920.95	1034.05
998.6498	2722.0809	1927.3	1045.2
998.7716	2723.3019	1938.4	1055.6
998.8934	2724.5223	1948.5	1068.8
999.0151	2725.7421	1956.65	1074.85
999.1368	2726.9611	1943	1060.3
999.2584	2728.1795	1952.9	1066.7
999.38	2729.3972	1932.25	1052.25
999.5016	2730.6142	1933.15	1040.65
999.6231	2731.8306	1899.85	1018.1
999.7446	2733.0462	1901.05	1017.95
999.8661	2734.2612	1878.65	994.45
999.9875	2735.4756	1855.75	975.25
1000.1089	2736.6892	1841.05	959.95
1000.2302	2737.9022	1815.4	935.2
1000.3515	2739.1145	1808.7	928.1
1000.4728	2740.3262	1803.15	915.1
1000.594	2741.5372	1781.15	901.3
1000.7152	2742.7475	1773.25	892.15
1000.8363	2743.9571	1753.3	870.35
1000.9575	2745.1661	1751.35	868.6
1001.0785	2746.3744	1737.3	856.25
1001.1996	2747.582	1725.15	846.7
1001.3206	2748.7889	1715.5	834.5
1001.4415	2749.9952	1714.45	833.85
1001.5625	2751.2008	1712	832.2
1001.6833	2752.4057	1716.5	833.9
1001.8042	2753.61	1699.85	819.4
1001.925	2754.8136	1706.25	824.85
1002.0458	2756.0165	1682.75	803
1002.1665	2757.2188	1689.65	811.7
1002.2872	2758.4204	1687.7	806.5
1002.4078	2759.6213	1686.15	804.8
1002.5285	2760.8215	1682.3	798.6
1002.649	2762.0211	1686.3	802.25
1002.7696	2763.22	1679.6	796.7
1002.8901	2764.4182	1671.6	792.6
1003.0106	2765.6158	1669.85	790.75
1003.131	2766.8127	1670.95	791.85
1003.2514	2768.009	1655	773.75
1003.3717	2769.2045	1656.95	775.35
1003.492	2770.3994	1647.7	767.65
1003.6123	2771.5936	1651.55	769.3
1003.7325	2772.7872	1650.4	771.55
1003.8527	2773.9801	1638.3	757.25
1003.9729	2775.1723	1652.05	756.15
1004.093	2776.3639	1638.2	760.8
1004.2131	2777.5548	1638.95	755.35
1004.3331	2778.745	1637	753.4
1004.4531	2779.9346	1632.7	752.8
1004.5731	2781.1235	1640.5	761
1004.693	2782.3117	1641.75	765.65
1004.8129	2783.4992	1645.7	767.05
1004.9328	2784.6861	1647.9	769.6
1005.0526	2785.8723	1660.6	780.05
1005.1723	2787.0579	1654.55	774.65
1005.2921	2788.2428	1657.85	778.8
1005.4118	2789.427	1662.7	784.65
1005.5314	2790.6106	1671.45	791.9
1005.651	2791.7935	1690.3	811
1005.7706	2792.9757	1688.4	812.45
1005.8902	2794.1573	1700.75	821.3
1006.0097	2795.3382	1710.95	833.8
1006.1291	2796.5184	1723.85	847.8
1006.2485	2797.698	1738.8	858.5
1006.3679	2798.8769	1749.95	869.95
1006.4873	2800.0551	1768.1	889.7
1006.6066	2801.2327	1789.1	907.5
1006.7258	2802.4096	1803.35	925.9
1006.8451	2803.5859	1829	950.1
1006.9642	2804.7615	1841.9	960.6
1007.0834	2805.9364	1863.55	986.2
1007.2025	2807.1106	1883.9	1005.45
1007.3216	2808.2842	1910.6	1028.7
1007.4406	2809.4572	1946.1	1068.8
1007.5596	2810.6294	1977.5	1096.4
1007.6785	2811.801	2018.9	1141.4
1007.7975	2812.972	2064.15	1185.2
1007.9163	2814.1423	2101.75	1223.6
1008.0352	2815.3119	2144.05	1266.3
1008.154	2816.4808	2187.1	1307.4
1008.2727	2817.6491	2237.55	1358.75
1008.3914	2818.8167	2283.8	1404
1008.5101	2819.9837	2329.8	1448.4
1008.6288	2821.15	2376	1496.65
1008.7474	2822.3157	2423.8	1546.85
1008.8659	2823.4807	2471.9	1591.9
1008.9844	2824.645	2514.5	1634.85
1009.1029	2825.8086	2560.6	1682.9
1009.2214	2826.9716	2600.75	1723.15
1009.3398	2828.134	2644.85	1766.7
1009.4581	2829.2957	2682.95	1804.45
1009.5764	2830.4567	2713	1835.8
1009.6947	2831.617	2723.65	1846.05
1009.813	2832.7767	2745.95	1866.5
1009.9312	2833.9358	2735.6	1856.1
1010.0493	2835.0941	2743.3	1864.4
1010.1675	2836.2519	2734.7	1857.25
1010.2855	2837.4089	2708.95	1830.35
1010.4036	2838.5653	2696.45	1817.05
1010.5216	2839.7211	2706.15	1829.2
1010.6396	2840.8761	2715.8	1837.45
1010.7575	2842.0306	2739.05	1862.8
1010.8754	2843.1843	2770.55	1894.25
1010.9932	2844.3374	2810.9	1931.8
1011.111	2845.4899	2874.45	1995.2
1011.2288	2846.6417	2943.85	2065.8
1011.3465	2847.7928	3007.45	2129.5
1011.4642	2848.9433	3097.2	2219
1011.5818	2850.0931	3173.8	2296.3
1011.6995	2851.2422	3241.65	2362.55
1011.817	2852.3907	3315.8	2438.1
1011.9345	2853.5385	3379.95	2499.3
1012.052	2854.6857	3433.85	2529.35
1012.1695	2855.8323	3470.3	2594.85
1012.2869	2856.9781	3523.15	2646.3
1012.4042	2858.1233	3580.7	2703.7
1012.5216	2859.2679	3609.2	2730.95
1012.6389	2860.4118	3651.25	2774.25
1012.7561	2861.555	3705.35	2824.4
1012.8733	2862.6976	3748.5	2868.3
1012.9905	2863.8395	3767.15	2889.85
1013.1076	2864.9808	3800	2922.55
1013.2247	2866.1214	3812.4	2935.35
1013.3417	2867.2614	3822.25	2943.4
1013.4587	2868.4007	3837.1	2957.7
1013.5757	2869.5393	3842.15	2964.4
1013.6926	2870.6773	3859.2	2978.25
1013.8095	2871.8146	3882.25	3000.75
1013.9263	2872.9513	3873.15	2992.8
1014.0431	2874.0874	3873.35	2997.2
1014.1599	2875.2227	3859.55	2981.35
1014.2766	2876.3574	3833.25	2955.65
1014.3933	2877.4915	3827.2	2949.1
1014.51	2878.6249	3785	2906.85
1014.6266	2879.7577	3770.5	2891.8
1014.7431	2880.8898	3768.9	2882.15
1014.8596	2882.0212	3747.8	2872.1
1014.9761	2883.152	3723.8	2842.95
1015.0925	2884.2821	3709.65	2834.15
1015.2089	2885.4116	3701.9	2826.35
1015.3253	2886.5405	3688.6	2810.8
1015.4416	2887.6686	3711.15	2830.1
1015.5579	2888.7962	3706.3	2829.8
1015.6741	2889.923	3709.45	2832.85
1015.7903	2891.0493	3722.15	2847.55
1015.9065	2892.1748	3730.25	2851.85
1016.0226	2893.2997	3727.6	2851.35
1016.1387	2894.424	3763.05	2887.1
1016.2547	2895.5476	3786.25	2911.1
1016.3707	2896.6706	3807.2	2932.9
1016.4866	2897.7929	3839.8	2963.75
1016.6025	2898.9145	3858.95	2984.45
1016.7184	2900.0355	3899.85	3023.1
1016.8342	2901.1559	3918.3	3039.15
1016.95	2902.2756	3933	3058
1017.0658	2903.3946	3983.85	3107.2
1017.1815	2904.513	3991.45	3111.2
1017.2971	2905.6308	4028.8	3151.3
1017.4127	2906.7479	4046.35	3169.85
1017.5283	2907.8643	4080.6	3204.05
1017.6439	2908.9801	4102.4	3222.95
1017.7594	2910.0953	4113.8	3237.85
1017.8748	2911.2098	4098.2	3216.2
1017.9902	2912.3236	4092.05	3207.8
1018.1056	2913.4368	4082.45	3202.1
1018.2209	2914.5494	4075.1	3197.7
1018.3362	2915.6613	4032.85	3149.75
1018.4515	2916.7725	4019.15	3140.8
1018.5667	2917.8831	3991	3113.7
1018.6819	2918.9931	3952.05	3075
1018.797	2920.1024	3921	3042.9
1018.9121	2921.211	3900.5	3024.8
1019.0271	2922.319	3869	2990.75
1019.1421	2923.4264	3858.4	2980.6
1019.2571	2924.5331	3853.35	2979.15
1019.372	2925.6391	3824.4	2948.1
1019.4869	2926.7445	3828.85	2953.8
1019.6017	2927.8493	3819.6	2942.95
1019.7165	2928.9534	3814.65	2938.5
1019.8313	2930.0569	3808.4	2929.6
1019.946	2931.1597	3806.95	2929.2
1020.0606	2932.2619	3769.9	2893.2
1020.1753	2933.3634	3777.8	2903.9
1020.2899	2934.4643	3771.6	2889.75
1020.4044	2935.5645	3750.75	2870.45
1020.5189	2936.6641	3734.25	2853.4
1020.6334	2937.763	3680.75	2805.9
1020.7478	2938.8613	3643.45	2766.6
1020.8622	2939.959	3579.35	2696.55
1020.9765	2941.056	3495	2619.45
1021.0908	2942.1523	3420.55	2542.75
1021.2051	2943.248	3324.9	2446.2
1021.3193	2944.3431	3240.9	2367.95
1021.4334	2945.4375	3132.25	2256.2
1021.5476	2946.5313	3033.2	2158.65
1021.6617	2947.6244	2929.3	2055.75
1021.7757	2948.7169	2835.15	1958.75
1021.8897	2949.8087	2739.1	1863.15
1022.0037	2950.8999	2638.7	1761.75
1022.1176	2951.9904	2567	1693.15
1022.2315	2953.0803	2491.85	1614.5
1022.3453	2954.1696	2428.5	1551.55
1022.4591	2955.2582	2376.6	1500.7
1022.5728	2956.3462	2331.2	1454.45
1022.6865	2957.4335	2280.7	1405.75
1022.8002	2958.5202	2249.9	1373
1022.9138	2959.6062	2228.4	1351.25
1023.0274	2960.6916	2201.25	1327.2
1023.141	2961.7764	2181.2	1302.8
1023.2545	2962.8605	2153.55	1276.65
1023.3679	2963.9439	2153.7	1278.55
1023.4813	2965.0267	2137	1260.1
1023.5947	2966.1089	2165.2	1267.85
1023.708	2967.1905	2121.7	1247.75
1023.8213	2968.2714	2118.75	1244.15
1023.9346	2969.3516	2124.65	1248.95
1024.0478	2970.4312	2120.3	1236.45
1024.1609	2971.5102	2121.85	1247.6
1024.274	2972.5885	2134.8	1259.9
1024.3871	2973.6662	2116.4	1237
1024.5002	2974.7432	2110.4	1236.05
1024.6132	2975.8196	2100.9	1224.65
1024.7261	2976.8954	2080.15	1205.85
1024.839	2977.9705	2082.5	1208.45
1024.9519	2979.045	2073.05	1198.8
1025.0647	2980.1188	2058.6	1183.95
1025.1775	2981.192	2030.55	1156.85
1025.2902	2982.2645	2006	1129.4
1025.4029	2983.3364	1987.5	1110.6
1025.5156	2984.4077	1957.15	1081.85
1025.6282	2985.4783	1933.2	1052.4
1025.7407	2986.5483	1900.9	1028.65
1025.8532	2987.6177	1872.1	998.3
1025.9657	2988.6864	1826.75	950.2
1026.0782	2989.7545	1795.8	918.3
1026.1906	2990.8219	1758.9	883.35
1026.3029	2991.8887	1725.95	846.35
1026.4152	2992.9548	1699.8	824.5
1026.5275	2994.0204	1664.65	790.95
1026.6397	2995.0852	1638.95	764.45
1026.7519	2996.1495	1615.15	740.8
1026.864	2997.2131	1588.25	711.1
1026.9761	2998.276	1570.1	695.9
1027.0882	2999.3383	1546.3	669.3
1027.2002	3000.4	1528.6	652.55
1027.3122	3001.4611	1510.65	635.85
1027.4241	3002.5215	1492.95	618.15
1027.536	3003.5812	1478.8	603.75
1027.6478	3004.6404	1465.15	590.05
1027.7596	3005.6989	1458.6	579.15
1027.8714	3006.7567	1443.65	568.05
1027.9831	3007.8139	1468.85	561
1028.0947	3008.8705	1434.1	559.8
1028.2064	3009.9264	1431.4	551.85
1028.3179	3010.9818	1419.3	541.75
1028.4295	3012.0364	1409.95	535.15
1028.541	3013.0905	1408.75	533.05
1028.6524	3014.1439	1403.9	529.2
1028.7638	3015.1966	1408.1	533
1028.8752	3016.2487	1397.45	521.85
1028.9865	3017.3002	1407.1	527.1
1029.0978	3018.3511	1404.05	533.05
1029.209	3019.4013	1398.9	523.25
1029.3202	3020.4509	1400.5	526
1029.4314	3021.4998	1400.7	524.4
1029.5425	3022.5481	1398.7	523.45
1029.6535	3023.5958	1397.65	523.8
1029.7645	3024.6428	1401.85	526
1029.8755	3025.6892	1397.95	525
1029.9864	3026.735	1400.5	526
1030.0973	3027.7802	1403.45	529.2
1030.2082	3028.8247	1403.35	528.3
1030.319	3029.8685	1408.1	531.25
1030.4297	3030.9118	1416.05	540.7
1030.5404	3031.9544	1409.8	535.7
1030.6511	3032.9963	1414.5	541.05
1030.7617	3034.0376	1423.5	548.55
1030.8723	3035.0783	1424.6	547.55
1030.9829	3036.1184	1432.35	558.4
1031.0934	3037.1578	1430	555.85
1031.2038	3038.1966	1429.8	553.85
1031.3142	3039.2348	1429.5	555.65
1031.4246	3040.2723	1444.45	560.85
1031.5349	3041.3092	1434.05	562.05
1031.6452	3042.3455	1427.5	552.35
1031.7554	3043.3811	1425.95	551.45
1031.8656	3044.4161	1424.8	551
1031.9758	3045.4505	1413.05	539.6
1032.0859	3046.4842	1414.25	539
1032.1959	3047.5173	1405.4	532.35
1032.3059	3048.5498	1406.65	533.15
1032.4159	3049.5816	1397	522.7
1032.5258	3050.6128	1386.55	512.3
1032.6357	3051.6434	1377.2	500.6
1032.7455	3052.6734	1370.2	494.45
1032.8553	3053.7027	1366.55	492.2
1032.9651	3054.7314	1363.95	489.35
1033.0748	3055.7594	1352.8	479.35
1033.1845	3056.7868	1349.55	474.1
1033.2941	3057.8136	1348.5	475.25
1033.4037	3058.8398	1336.25	462.85
1033.5132	3059.8653	1336.2	464.8
1033.6227	3060.8902	1329.45	456.05
1033.7321	3061.9145	1326.75	451.95
1033.8415	3062.9381	1317.7	442.35
1033.9509	3063.9612	1332.3	442.55
1034.0602	3064.9835	1306.75	432.75
1034.1694	3066.0053	1305.25	427.15
1034.2787	3067.0264	1295.5	422.25
1034.3878	3068.0469	1291.6	415.8
1034.497	3069.0668	1284.85	407.2
1034.6061	3070.086	1272.65	400.2
1034.7151	3071.1046	1264	390.65
1034.8241	3072.1226	1261.75	385.05
1034.9331	3073.1399	1247.05	373.3
1035.042	3074.1567	1240.65	366.3
1035.1508	3075.1727	1236.95	360.95
1035.2597	3076.1882	1216.75	342.5
1035.3684	3077.203	1213.05	337.15
1035.4772	3078.2173	1207.7	332.55
1035.5859	3079.2308	1204	328.5
1035.6945	3080.2438	1183.25	307.8
1035.8031	3081.2561	1187.7	316.4
1035.9117	3082.2678	1175.8	303.2
1036.0202	3083.2789	1173.5	300.9
1036.1286	3084.2893	1164.95	291.5
1036.2371	3085.2991	1160.8	287.7
1036.3454	3086.3083	1150.5	273.6
1036.4538	3087.3169	1142.25	267.15
1036.562	3088.3248	1135.2	261
1036.6703	3089.3321	1144.05	267.2
1036.7785	3090.3388	1129.2	254.9
1036.8866	3091.3449	1123.85	249.75
1036.9948	3092.3503	1128.6	252.65
1037.1028	3093.3551	1118.05	245.05
1037.2108	3094.3593	1113.8	242.05
1037.3188	3095.3629	1104.35	230.25
1037.4267	3096.3658	1111.6	236.7
1037.5346	3097.3681	1109.15	234.6
1037.6425	3098.3698	1106.85	232
1037.7503	3099.3708	1109.4	227.35
1037.858	3100.3713	1094.5	222.45
1037.9657	3101.3711	1095.5	221.45
1038.0734	3102.3702	1211	215.45
1038.181	3103.3688	1092.4	217.4
1038.2886	3104.3667	1090.45	216.55
1038.3961	3105.364	1087	214
1038.5036	3106.3607	1087.5	211.85
1038.611	3107.3568	1079.1	204
1038.7184	3108.3522	1081.05	209.4
1038.8257	3109.347	1081	207.5
1038.933	3110.3412	1077.85	201.8
1039.0403	3111.3348	1078.65	205.35
1039.1475	3112.3277	1070.1	197.85
1039.2547	3113.32	1063.9	191.6
1039.3618	3114.3117	1070.45	195.35
1039.4689	3115.3028	1065.25	191.5
1039.5759	3116.2932	1069.3	194.1
1039.6829	3117.2831	1070.2	191.5
1039.7898	3118.2723	1060.65	184.9
1039.8967	3119.2608	1058.85	184.25
1040.0035	3120.2488	1059.3	186.05
1040.1103	3121.2361	1059.9	186.65
1040.2171	3122.2229	1059.1	186.85
1040.3238	3123.209	1057.1	184.1
1040.4305	3124.1944	1048.6	177
1040.5371	3125.1793	1050.7	175.35
1040.6437	3126.1635	1048	174.75
1040.7502	3127.1471	1051.25	176.5
1040.8567	3128.1301	1046.8	173.55
1040.9631	3129.1125	1048	174.35
1041.0695	3130.0942	1042.8	169.35
1041.1759	3131.0753	1047.85	166.9
1041.2822	3132.0558	1044.95	168.95
1041.3884	3133.0357	1041.55	166.25
1041.4946	3134.015	1042.15	167.55
1041.6008	3134.9936	1038.05	163.4
1041.7069	3135.9716	1056.9	164.15
1041.813	3136.949	1037.8	166.1
1041.919	3137.9258	1050.85	160.5
1042.025	3138.902	1038.2	161.75
1042.1309	3139.8775	1033.55	159.65
1042.2368	3140.8524	1029.35	156.5
1042.3427	3141.8267	1030.55	153.75
1042.4485	3142.8004	1031.15	159
1042.5542	3143.7735	1037.05	156.15
1042.6599	3144.7459	1023.95	150.8
1042.7656	3145.7178	1028.05	155.15
1042.8712	3146.689	1025.5	154.55
1042.9768	3147.6596	1021.5	146.9
1043.0823	3148.6295	1021.85	148.8
1043.1878	3149.5989	1020.55	144.3
1043.2932	3150.5676	1017.4	144.75
1043.3986	3151.5357	1018.7	146.8
1043.5039	3152.5032	1015.25	141.9
1043.6092	3153.4701	1015.95	144.85
1043.7145	3154.4364	1019.05	143.1
1043.8197	3155.402	1011.35	140
1043.9248	3156.367	1017.4	143.05
1044.03	3157.3315	1041.15	143.05
1044.135	3158.2952	1013.35	141.75
1044.24	3159.2584	1009.35	136.45
1044.345	3160.221	1009.25	135.45
1044.4499	3161.1829	1010.1	137.2
1044.5548	3162.1442	1005.75	133.95
1044.6596	3163.105	1003.65	130.9
1044.7644	3164.065	1002.25	127.9
1044.8692	3165.0245	1007.9	130.1
1044.9739	3165.9834	1004.65	135.6
1045.0785	3166.9416	1000.75	128.6
1045.1831	3167.8993	1002.1	129.85
1045.2877	3168.8563	999.65	124.9
1045.3922	3169.8127	997.85	125.45
1045.4966	3170.7684	998.35	125
1045.6011	3171.7236	997.9	125.25
1045.7054	3172.6782	994.9	121.1
1045.8098	3173.6321	998	124.6
1045.914	3174.5854	998.45	120.15
1046.0183	3175.5381	994.5	122.35
1046.1224	3176.4902	994.35	121.2
1046.2266	3177.4417	991.25	120.75
1046.3307	3178.3926	992.5	119.45
1046.4347	3179.3428	990.5	119.5
1046.5387	3180.2924	989.7	116.6
1046.6427	3181.2415	991.6	117.9
1046.7466	3182.1899	989.9	113.8
1046.8504	3183.1377	986.55	114.8
1046.9542	3184.0848	989	114.4
1047.058	3185.0314	990.05	118.9
1047.1617	3185.9773	989.6	114.65
1047.2654	3186.9227	987.9	114.95
1047.369	3187.8674	982.05	106.9
1047.4726	3188.8115	983.9	105.65
1047.5761	3189.755	980.45	108
1047.6796	3190.6979	983.15	110.85
1047.783	3191.6402	979.55	107.95
1047.8864	3192.5818	977.8	105.6
1047.9898	3193.5229	986.05	108.1
1048.0931	3194.4633	980.3	107.75
1048.1963	3195.4031	981.2	107.9
1048.2995	3196.3423	980.25	109.05
1048.4027	3197.2809	977.35	103.6
1048.5058	3198.2189	976.6	104.15
1048.6089	3199.1563	992.35	105.8
1048.7119	3200.0931	974.35	103.55
1048.8148	3201.0292	975.35	104.8
1048.9178	3201.9648	973.25	101.35
1049.0206	3202.8997	974.75	100.3
1049.1235	3203.834	976.2	105.3
1049.2262	3204.7677	970.55	99.85
1049.329	3205.7008	975.75	101.25
1049.4317	3206.6333	974.2	102
1049.5343	3207.5652	973.4	98.2
1049.6369	3208.4964	972.9	99.9
1049.7394	3209.4271	970.8	98.95
1049.8419	3210.3571	971.8	101.4
1049.9444	3211.2865	970	97.75
1050.0468	3212.2154	968.45	93.25
1050.1491	3213.1436	971	94.1
1050.2514	3214.0712	975.1	96.8
1050.3537	3214.9982	968.3	95.75
1050.4559	3215.9246	966.95	95
1050.5581	3216.8503	964.1	92.5
1050.6602	3217.7755	968.75	97.7
1050.7623	3218.7001	966.4	94.25
1050.8643	3219.624	964.05	91.55
1050.9663	3220.5473	966.4	93.45
1051.0682	3221.4701	964.9	88.85
1051.1701	3222.3922	962.85	89.95
1051.2719	3223.3137	962.4	91.2
1051.3737	3224.2346	963.3	93.9
1051.4754	3225.1549	964.5	91.85
1051.5771	3226.0746	962.35	91.05
1051.6788	3226.9937	962.8	90.75
1051.7804	3227.9121	959.1	88.25
1051.8819	3228.83	958.95	88.25
1051.9834	3229.7473	958.9	86.9
1052.0849	3230.6639	957.7	84.45
1052.1863	3231.5799	958.25	87.25
1052.2876	3232.4954	957.25	85.9
1052.3889	3233.4102	959.05	88.65
1052.4902	3234.3244	959.25	88.6
1052.5914	3235.238	959.7	87.5
1052.6926	3236.151	972.2	85.9
1052.7937	3237.0634	954.45	85.3
1052.8948	3237.9752	953.5	81.2
1052.9958	3238.8864	953.4	83.65
1053.0968	3239.797	954.3	81.95
1053.1977	3240.7069	954.9	83.15
1053.2986	3241.6163	952.05	78.9
1053.3994	3242.5251	953.3	83.45
1053.5002	3243.4332	948.6	79.95
1053.6009	3244.3408	951.7	80.6
1053.7016	3245.2477	950.7	80.9
1053.8022	3246.154	949.7	75.9
1053.9028	3247.0598	950.35	77.15
1054.0034	3247.9649	947.65	75.2
1054.1039	3248.8694	948.8	77.95
1054.2043	3249.7733	946.6	73.45
1054.3047	3250.6766	949.95	78.8
1054.4051	3251.5793	945.65	73.05
1054.5054	3252.4814	946.9	76.35
1054.6056	3253.3829	945.8	73.85
1054.7058	3254.2838	942.75	72.3
1054.806	3255.1841	945.8	75.4
1054.9061	3256.0838	940.8	69.6
1055.0061	3256.9829	942.25	70.15
1055.1062	3257.8814	942.95	70.55
1055.2061	3258.7792	943.25	70.2
1055.306	3259.6765	941.85	70.35
1055.4059	3260.5731	938.65	66.35
1055.5057	3261.4692	938.8	66
1055.6055	3262.3647	936.4	63.45
1055.7052	3263.2595	940.7	67.45
1055.8049	3264.1538	933.4	63.25
1055.9045	3265.0474	934.6	63.1
1056.0041	3265.9404	932.65	61.85
1056.1036	3266.8329	933.55	61.6
1056.2031	3267.7247	941.65	58.95
1056.3025	3268.616	928.25	59.1
1056.4019	3269.5066	925.45	53.15
1056.5013	3270.3966	929.75	57.05
1056.6005	3271.286	922.7	53.3
