Software Version:	3.9.2.0
Unit SN:	10000200
Spectrometer SN:	6960
Date:	3/8/2024 11:43:43 AM
Data Line Index:	25
Spectral Points:	2048
Integration time (ms):	125
Averages:	20
Delay (ms):	30000
Sequence Number:	1
Processing:	dark subtract
Laser Power (mW):	300
Laser Current (mA):	823
Laser Diode Temp (C):	25
Laser Case Temp (C):	25.3
System Temp (C):	25.2
Spectrometer Temp (C):	23.2
CCD Temp (C):	0.007
Secondary Temp (C):	20.01
Heatsink Temp (C):	19.814
CCDPCB Temp (C):	34.462
SecondaryPCB Temp (C):	27.97

Wavelength	RamanShift	Raw Counts	Dark Subtracted
787.061	30.1047	415.75	7.25
787.2016	32.3739	413.5	6.35
787.3422	34.6426	414.1	6.3
787.4828	36.9109	416.85	5.35
787.6235	39.1787	420.95	6.7
787.7642	41.4461	426.65	8.4
787.9049	43.7131	429.4	7.5
788.0456	45.9796	434.8	11.55
788.1863	48.2456	437.05	8.8
788.3271	50.5112	441.2	7.3
788.4679	52.7764	445.2	11.7
788.6087	55.0411	451.1	10.15
788.7496	57.3054	458.3	12.6
788.8904	59.5692	459.7	12.65
789.0313	61.8326	460.8	12.3
789.1722	64.0955	466.3	13.75
789.3132	66.3579	474.9	18.55
789.4541	68.6199	481.25	21.35
789.5951	70.8815	491.2	25.8
789.7361	73.1426	509	39.75
789.8771	75.4032	543.55	70.2
790.0181	77.6634	612.25	134.6
790.1592	79.9231	783.3	303.5
790.3003	82.1824	1130.8	642.55
790.4414	84.4412	1701.85	1197.85
790.5825	86.6995	2432.55	1913.4
790.7237	88.9574	3132.75	2597.2
790.8648	91.2148	3606.6	3060.9
791.006	93.4717	3781.65	3229.75
791.1472	95.7282	3819.05	3262.6
791.2885	97.9842	3780.2	3224.1
791.4297	100.2398	3733.5	3173.7
791.571	102.4949	3686.25	3122.75
791.7123	104.7495	3644.5	3077.9
791.8536	107.0036	3590.75	3024.75
791.9949	109.2573	3507.3	2940.9
792.1363	111.5105	3424.6	2855.65
792.2777	113.7632	3320.8	2750.1
792.4191	116.0154	3220.65	2640.55
792.5605	118.2672	3101.8	2526.2
792.7019	120.5185	2980.2	2399.2
792.8434	122.7693	2890.95	2307
792.9849	125.0197	2813.85	2225.8
793.1264	127.2696	2735.05	2144.8
793.2679	129.519	2689.4	2097.3
793.4094	131.7679	2665.45	2072
793.551	134.0163	2648	2051.85
793.6926	136.2642	2638.05	2035.95
793.8342	138.5117	2618.75	2014.5
793.9758	140.7587	2586.8	1982.85
794.1175	143.0052	2540.6	1933.05
794.2591	145.2512	2489.5	1879.5
794.4008	147.4967	2449.25	1838.6
794.5425	149.7417	2414.35	1802.5
794.6842	151.9863	2376.7	1760.75
794.826	154.2304	2366.1	1744.45
794.9677	156.4739	2355.8	1734.95
795.1095	158.717	2373.15	1746.6
795.2513	160.9596	2403.85	1771.75
795.3931	163.2017	2422.5	1791.25
795.535	165.4433	2431.25	1796.6
795.6768	167.6844	2416.4	1781.15
795.8187	169.925	2391.45	1750.15
795.9606	172.1651	2331.7	1690.1
796.1025	174.4047	2282.4	1633.95
796.2445	176.6439	2247.15	1598.2
796.3864	178.8825	2225.55	1574.2
796.5284	181.1206	2205.7	1549.65
796.6704	183.3582	2199	1539.05
796.8124	185.5954	2188.95	1529.35
796.9544	187.832	2195.35	1529.95
797.0965	190.0681	2198.9	1531.3
797.2386	192.3037	2201.95	1531
797.3806	194.5388	2201.5	1526
797.5228	196.7734	2223.45	1548.3
797.6649	199.0075	2229.35	1548.5
797.807	201.2411	2249.6	1568.1
797.9492	203.4742	2275.55	1597.75
798.0914	205.7068	2305.65	1621.3
798.2336	207.9389	2323.35	1637.15
798.3758	210.1704	2339.65	1655.5
798.518	212.4015	2327.15	1651.95
798.6603	214.632	2339.6	1680
798.8025	216.862	2328.55	1668.95
798.9448	219.0915	2346.5	1682.65
799.0871	221.3205	2347.45	1678.45
799.2294	223.549	2362.9	1699.5
799.3718	225.777	2367.4	1704.15
799.5141	228.0044	2349.85	1682.7
799.6565	230.2314	2346	1675.95
799.7989	232.4578	2319.15	1643.45
799.9413	234.6837	2318.9	1634.85
800.0837	236.909	2314.6	1628.5
800.2262	239.1339	2314.45	1605.65
800.3687	241.3582	2312.35	1617.1
800.5111	243.582	2341.9	1619.1
800.6536	245.8053	2327.05	1618.75
800.7961	248.0281	2325.9	1619.9
800.9387	250.2503	2338.7	1629.25
801.0812	252.472	2343.6	1628.8
801.2238	254.6932	2345	1630.5
801.3664	256.9139	2366.3	1651.95
801.509	259.134	2383.6	1665.8
801.6516	261.3536	2407.45	1689.4
801.7942	263.5727	2447.65	1731.15
801.9369	265.7912	2497.15	1781.65
802.0795	268.0092	2553.95	1837.15
802.2222	270.2267	2618.45	1900
802.3649	272.4436	2654.75	1934.1
802.5076	274.6601	2700.55	1970.3
802.6504	276.8759	2721.65	1994.75
802.7931	279.0913	2743.05	2013.9
802.9359	281.3061	2749.6	2020.85
803.0787	283.5204	2774.4	2039.95
803.2215	285.7341	2801.1	2067.65
803.3643	287.9473	2818.25	2078.7
803.5071	290.16	2827.35	2089.6
803.6499	292.3721	2779.9	2048.85
803.7928	294.5837	2735.55	2001.2
803.9357	296.7947	2708.7	1974.75
804.0786	299.0052	2705.8	1970.55
804.2215	301.2152	2691.45	1955.35
804.3644	303.4246	2677.35	1945.2
804.5074	305.6334	2659.35	1925.6
804.6503	307.8418	2636.15	1895.05
804.7933	310.0495	2622.05	1882
804.9363	312.2568	2573.7	1831.85
805.0793	314.4635	2523.1	1781.1
805.2223	316.6696	2476.1	1729.7
805.3653	318.8752	2436.95	1681.2
805.5084	321.0802	2411.75	1663.3
805.6514	323.2847	2406.05	1655.6
805.7945	325.4887	2412.8	1663.55
805.9376	327.692	2431.35	1680.9
806.0807	329.8949	2472	1718.7
806.2238	332.0972	2514.6	1760.85
806.367	334.2989	2537.2	1777.6
806.5101	336.5001	2532.9	1775.75
806.6533	338.7007	2494.65	1734.75
806.7965	340.9008	2447.7	1689.05
806.9397	343.1003	2396.7	1632.35
807.0829	345.2992	2342.85	1582.65
807.2261	347.4976	2308.45	1543.2
807.3693	349.6955	2273.05	1505.1
807.5126	351.8927	2265.35	1494.7
807.6559	354.0895	2246.3	1467.85
807.7991	356.2856	2238.7	1467.8
807.9424	358.4812	2223.4	1453.5
808.0857	360.6763	2224.35	1451.45
808.2291	362.8707	2213.3	1440.05
808.3724	365.0646	2224.95	1446.45
808.5158	367.258	2233.65	1454.8
808.6591	369.4508	2241.35	1460.05
808.8025	371.643	2272.85	1491.9
808.9459	373.8346	2306.15	1522.7
809.0893	376.0257	2351.9	1565.9
809.2327	378.2162	2365.9	1580.35
809.3762	380.4062	2373	1587.35
809.5196	382.5956	2347.55	1564.6
809.6631	384.7844	2299.55	1521.75
809.8066	386.9726	2256.5	1478.5
809.9501	389.1603	2232.5	1455.7
810.0936	391.3474	2258.9	1445.85
810.2371	393.5339	2229.4	1447.45
810.3806	395.7199	2233.65	1453.7
810.5241	397.9052	2263.45	1484.15
810.6677	400.09	2298.2	1518.75
810.8113	402.2743	2356.45	1577.45
810.9548	404.4579	2394.8	1610.25
811.0984	406.641	2436.05	1653.7
811.2421	408.8235	2474.3	1692.05
811.3857	411.0054	2519.6	1730.6
811.5293	413.1868	2602.7	1808.85
811.673	415.3675	2648.7	1858.15
811.8166	417.5477	2637.1	1842.2
811.9603	419.7273	2568.75	1772.25
812.104	421.9064	2503.1	1703
812.2477	424.0848	2436.5	1640
812.3914	426.2627	2363.85	1563.1
812.5351	428.4399	2309	1506.85
812.6788	430.6166	2259.25	1454.85
812.8226	432.7928	2215.95	1409.3
812.9663	434.9683	2169.05	1367.45
813.1101	437.1432	2144.8	1338.65
813.2539	439.3176	2122.95	1320.3
813.3977	441.4914	2108.4	1307.25
813.5415	443.6645	2110.9	1307.25
813.6853	445.8371	2110.95	1305
813.8291	448.0091	2109.7	1301.95
813.973	450.1806	2116	1310.5
814.1168	452.3514	2093.9	1285.6
814.2607	454.5216	2107.45	1291.85
814.4046	456.6913	2101.45	1292.3
814.5485	458.8603	2107.2	1300.15
814.6924	461.0288	2110.6	1304.05
814.8363	463.1967	2108.65	1303.15
814.9802	465.3639	2104.65	1295.95
815.1241	467.5306	2104.15	1294.3
815.2681	469.6967	2097.45	1288.55
815.412	471.8622	2088.7	1282.15
815.556	474.0271	2088	1280.15
815.7	476.1914	2087.55	1272.9
815.844	478.3551	2085.8	1275.55
815.988	480.5182	2085.05	1275.2
816.132	482.6807	2076.25	1265.45
816.276	484.8426	2107.55	1296.7
816.4201	487.0039	2145.7	1333.2
816.5641	489.1647	2203.55	1390.8
816.7082	491.3248	2248.9	1434.3
816.8522	493.4843	2265.4	1453.9
816.9963	495.6432	2256.4	1441.7
817.1404	497.8015	2217.4	1394.85
817.2845	499.9592	2196.5	1376.65
817.4286	502.1163	2128.75	1309.3
817.5727	504.2728	2094.5	1274.9
817.7168	506.4287	2056.65	1240.05
817.861	508.5839	2048.6	1233.75
818.0051	510.7386	2034.55	1215
818.1493	512.8927	2048.4	1220.7
818.2935	515.0461	2046.7	1225.05
818.4377	517.199	2073.55	1252.95
818.5818	519.3512	2118.45	1296
818.726	521.5029	2186.45	1356
818.8703	523.6539	2235.8	1409.7
819.0145	525.8043	2235.15	1409.45
819.1587	527.9541	2191.8	1364.65
819.303	530.1033	2123.4	1296.4
819.4472	532.2519	2071.85	1245.05
819.5915	534.3999	2058.9	1229.9
819.7357	536.5472	2048.45	1221.05
819.88	538.694	2043.75	1215.3
820.0243	540.8401	2070.4	1241.35
820.1686	542.9856	2087.4	1254.2
820.3129	545.1305	2095	1259.6
820.4572	547.2748	2110.35	1275.75
820.6016	549.4185	2117.5	1279.2
820.7459	551.5615	2119.15	1281.7
820.8902	553.704	2140.65	1303.5
821.0346	555.8458	2157.75	1325.85
821.1789	557.987	2192.3	1361.3
821.3233	560.1276	2211.2	1378.3
821.4677	562.2675	2262.3	1428.15
821.6121	564.4069	2323.15	1488.5
821.7565	566.5456	2358.3	1524.5
821.9009	568.6837	2348.1	1512
822.0453	570.8212	2276.55	1444.4
822.1897	572.958	2209.55	1374.85
822.3342	575.0942	2140.6	1310.65
822.4786	577.2299	2104.7	1271.8
822.6231	579.3648	2068.45	1241.25
822.7675	581.4992	2052.85	1225.5
822.912	583.6329	2071.5	1243
823.0565	585.766	2098.85	1269.9
823.201	587.8985	2152.55	1321.4
823.3454	590.0304	2221	1373.5
823.4899	592.1616	2238.35	1398.95
823.6345	594.2922	2225.85	1386.8
823.779	596.4222	2178.75	1336.2
823.9235	598.5515	2123.5	1282.65
824.068	600.6802	2076.75	1235.5
824.2126	602.8083	2019.75	1181.3
824.3571	604.9358	2017.3	1174.85
824.5017	607.0626	2011.5	1167.9
824.6462	609.1888	2034.75	1188.3
824.7908	611.3144	2053.9	1206.3
824.9354	613.4393	2094.75	1250.4
825.08	615.5636	2147.75	1301.85
825.2246	617.6873	2204.75	1358
825.3692	619.8103	2230.15	1382.35
825.5138	621.9327	2214	1367.6
825.6584	624.0544	2174.05	1328.8
825.803	626.1756	2116.05	1272.9
825.9477	628.2961	2074.95	1229.75
826.0923	630.4159	2055.9	1208.3
826.237	632.5351	2047.95	1197.3
826.3816	634.6537	2040.5	1191.05
826.5263	636.7716	2029.65	1177.7
826.6709	638.8889	2020.8	1169.2
826.8156	641.0056	2032.95	1182.5
826.9603	643.1216	2036.7	1184.5
827.105	645.237	2037.25	1183.7
827.2497	647.3518	2025.05	1175
827.3944	649.4659	1997.75	1148.5
827.5391	651.5793	1966.7	1116.25
827.6838	653.6922	1953.3	1105.7
827.8285	655.8043	1954.75	1106.3
827.9733	657.9159	1939.5	1088.7
828.118	660.0268	1927.75	1075.6
828.2627	662.137	1932.1	1079.2
828.4075	664.2466	1932.35	1074.75
828.5522	666.3556	1924.45	1068.8
828.697	668.4639	1923.85	1071.55
828.8418	670.5716	1916.65	1064.1
828.9865	672.6786	1914.95	1062.25
829.1313	674.785	1902.3	1043.5
829.2761	676.8907	1912.95	1055.7
829.4209	678.9958	1902.25	1049.35
829.5657	681.1002	1900.75	1045.55
829.7105	683.204	1900.55	1040.25
829.8553	685.3072	1901.95	1042
830.0001	687.4097	1906.25	1047.25
830.1449	689.5115	1901.2	1042.05
830.2898	691.6127	1909.9	1054.35
830.4346	693.7132	1894.5	1037.8
830.5794	695.8131	1917.25	1041
830.7243	697.9123	1905.9	1045.7
830.8691	700.0109	1905.5	1043.5
831.014	702.1089	1907.05	1044.35
831.1588	704.2061	1933.05	1070.65
831.3037	706.3028	1959.5	1097.4
831.4486	708.3987	1967.9	1107.6
831.5935	710.4941	1987.5	1128.2
831.7383	712.5887	1995.05	1134.7
831.8832	714.6827	1992.45	1128.8
832.0281	716.7761	1981.45	1122.15
832.173	718.8688	1980.1	1117.25
832.3179	720.9608	1991.6	1126
832.4628	723.0522	2005.5	1137.75
832.6077	725.1429	2024.85	1160.65
832.7527	727.233	2061.05	1196.15
832.8976	729.3224	2133.85	1269.25
833.0425	731.4112	2179	1312.75
833.1874	733.4993	2182.5	1318.6
833.3324	735.5867	2122.7	1256.7
833.4773	737.6735	2062.45	1196.35
833.6222	739.7596	1997.55	1130.55
833.7672	741.845	1970.65	1103.95
833.9122	743.9298	1965.3	1097.6
834.0571	746.014	1972.35	1106.5
834.2021	748.0974	1985.65	1116.25
834.347	750.1802	1997.55	1128.6
834.492	752.2624	1983.9	1117
834.637	754.3439	1969.4	1100.4
834.782	756.4247	1972.25	1093.5
834.9269	758.5048	1967.3	1098.3
835.0719	760.5843	1989.6	1120.35
835.2169	762.6631	2017.1	1147.65
835.3619	764.7413	2069.65	1202.1
835.5069	766.8188	2156.75	1287.2
835.6519	768.8956	2243.25	1370.1
835.7969	770.9718	2302.1	1434.95
835.9419	773.0473	2299.2	1431.55
836.0869	775.1221	2257.25	1388.5
836.232	777.1962	2257.2	1386.7
836.377	779.2697	2307.95	1435.15
836.522	781.3426	2426.05	1538.45
836.667	783.4147	2478.65	1608.85
836.8121	785.4862	2444.6	1575.7
836.9571	787.557	2358.4	1484.35
837.1021	789.6271	2229.8	1358.35
837.2472	791.6966	2101	1229.15
837.3922	793.7654	2014.4	1144.45
837.5373	795.8335	1952.7	1079.45
837.6823	797.901	1928.2	1055.8
837.8274	799.9678	1920.65	1046.9
837.9724	802.0339	1929.65	1055.45
838.1175	804.0993	1934.85	1049.2
838.2626	806.1641	1912	1037.65
838.4076	808.2282	1887.8	1010.95
838.5527	810.2916	1876.9	1001.45
838.6978	812.3544	1857.85	984
838.8428	814.4164	1856.1	982.5
838.9879	816.4778	1864.85	988.85
839.133	818.5385	1874.95	998.7
839.2781	820.5986	1909.65	1033.9
839.4232	822.658	1959.35	1081.5
839.5682	824.7166	2031.1	1155.9
839.7133	826.7747	2112.55	1241.45
839.8584	828.832	2203.1	1324.95
840.0035	830.8886	2259.5	1383.7
840.1486	832.9446	2284.6	1404.8
840.2937	834.9999	2254.5	1380.25
840.4388	837.0545	2179.85	1302.3
840.5839	839.1085	2083.05	1204.6
840.729	841.1618	2014.05	1130.9
840.8741	843.2143	1953.25	1078.1
841.0192	845.2662	1916.8	1041.25
841.1643	847.3175	1909.1	1030.6
841.3095	849.368	1896.7	1017.95
841.4546	851.4179	1896.4	1019.8
841.5997	853.467	1888.2	1009.8
841.7448	855.5155	1902	1025.05
841.8899	857.5633	1891.95	1015
842.0351	859.6105	1891.15	1014
842.1802	861.6569	1879.1	1001.05
842.3253	863.7027	1884.1	1005.5
842.4704	865.7478	1857.25	979.9
842.6156	867.7922	1854.45	973.05
842.7607	869.8359	1840.85	959.4
842.9058	871.8789	1839.25	961
843.0509	873.9212	1874.9	962.5
843.1961	875.9629	1850.25	971.5
843.3412	878.0039	1868.4	984.95
843.4863	880.0441	1874.15	995.45
843.6315	882.0837	1897.1	1018.35
843.7766	884.1226	1919.05	1036.45
843.9218	886.1609	1951.5	1072.9
844.0669	888.1984	2005.55	1122.15
844.212	890.2352	2048.15	1167.95
844.3572	892.2714	2067.5	1183.9
844.5023	894.3069	2032.95	1150.75
844.6475	896.3416	1970.3	1086.55
844.7926	898.3757	1940.4	1057.8
844.9377	900.4091	1916.05	1030.9
845.0829	902.4418	1917.5	1032.55
845.228	904.4739	1933.65	1050.35
845.3732	906.5052	1946.1	1061
845.5183	908.5358	1933.05	1051.9
845.6635	910.5658	1917.95	1033.95
845.8086	912.595	1888.15	1002.55
845.9538	914.6236	1841.35	955.35
846.0989	916.6515	1812.55	928.2
846.2441	918.6786	1800.3	915.9
846.3892	920.7051	1789.05	902.35
846.5344	922.7309	1789.05	906.45
846.6795	924.756	1785.7	902.75
846.8246	926.7804	1803.15	916.25
846.9698	928.8041	1805.45	919.8
847.1149	930.8272	1832.1	948.2
847.2601	932.8495	1844.95	958.65
847.4052	934.8711	1851.4	967.2
847.5504	936.892	1847.3	961.95
847.6955	938.9123	1875.75	987.95
847.8407	940.9318	1891.9	1007.4
847.9858	942.9506	1914.75	1028.4
848.131	944.9688	1898.2	1012.35
848.2761	946.9862	1872.85	988.35
848.4213	949.003	1847.85	961.7
848.5664	951.019	1812.5	928.45
848.7115	953.0344	1806	921
848.8567	955.0491	1782.65	895.5
849.0018	957.063	1786.1	901.6
849.147	959.0763	1783.35	900.4
849.2921	961.0888	1785.35	895.25
849.4373	963.1007	1769.7	883.7
849.5824	965.1119	1764.45	880.05
849.7275	967.1223	1767.15	888.45
849.8727	969.1321	1759.7	879.45
850.0178	971.1412	1753.35	871.4
850.1629	973.1495	1740	856.3
850.3081	975.1572	1778.5	862.2
850.4532	977.1641	1741.6	856.3
850.5983	979.1704	1746.5	858.45
850.7435	981.1759	1755.65	867.2
850.8886	983.1808	1734.8	845.55
851.0337	985.1849	1751.55	851.15
851.1788	987.1884	1738.55	848.65
851.324	989.1911	1743.1	853.65
851.4691	991.1932	1756.35	868.15
851.6142	993.1945	1754.25	867
851.7593	995.1951	1749.9	860.15
851.9045	997.1951	1745.95	854.1
852.0496	999.1943	1730.8	843.15
852.1947	1001.1928	1748.1	861.65
852.3398	1003.1906	1751.9	863.6
852.4849	1005.1877	1784.9	898.1
852.63	1007.1841	1802.75	913.65
852.7751	1009.1798	1812.9	927.3
852.9202	1011.1748	1808.15	920.95
853.0653	1013.1691	1775.5	885.35
853.2104	1015.1627	1745.7	857.8
853.3555	1017.1556	1722.95	835.85
853.5006	1019.1477	1696.55	807.9
853.6457	1021.1392	1684.35	800.55
853.7908	1023.1299	1671.45	787.35
853.9359	1025.12	1675.6	791.6
854.081	1027.1093	1682.05	804
854.2261	1029.0979	1700.7	822.4
854.3712	1031.0859	1727.45	845.3
854.5163	1033.0731	1746.15	861.95
854.6613	1035.0596	1730.7	846.6
854.8064	1037.0454	1708.25	823.85
854.9515	1039.0304	1712.75	823.3
855.0965	1041.0148	1688	801.3
855.2416	1042.9985	1668.55	779.6
855.3867	1044.9814	1660.95	774.55
855.5317	1046.9636	1657.75	768.45
855.6768	1048.9452	1666.75	780.25
855.8219	1050.926	1682.95	794.3
855.9669	1052.9061	1698	809.6
856.112	1054.8855	1701.8	812.45
856.257	1056.8642	1701.55	811.6
856.4021	1058.8421	1699	806.8
856.5471	1060.8194	1699.8	811.5
856.6921	1062.7959	1694.1	805.55
856.8372	1064.7717	1694.8	804.9
856.9822	1066.7469	1705.65	814.35
857.1272	1068.7213	1701.7	810.1
857.2723	1070.695	1713.7	826.2
857.4173	1072.6679	1737.35	848
857.5623	1074.6402	1754.4	862.3
857.7073	1076.6117	1765.35	869.95
857.8523	1078.5826	1737.05	845.95
857.9973	1080.5527	1711.35	819.3
858.1423	1082.5221	1675.25	785
858.2873	1084.4908	1647.8	759.8
858.4323	1086.4587	1633	743.25
858.5773	1088.426	1623.8	733.65
858.7223	1090.3925	1625.2	728.7
858.8673	1092.3584	1636.35	749.55
859.0123	1094.3235	1643.5	753.3
859.1573	1096.2879	1664.3	773.9
859.3022	1098.2515	1679.55	790.3
859.4472	1100.2145	1702.85	813.25
859.5922	1102.1767	1739.45	847.8
859.7371	1104.1382	1796	905.9
859.8821	1106.099	1844	951.45
860.027	1108.0591	1884.55	993.3
860.172	1110.0185	1926.3	1033.25
860.3169	1111.9771	1967.9	1079.3
860.4619	1113.9351	2016.45	1126.1
860.6068	1115.8923	2068.9	1178.65
860.7517	1117.8488	2096.05	1204.7
860.8967	1119.8045	2040.35	1150.65
861.0416	1121.7596	1946.65	1056.05
861.1865	1123.7139	1853.15	963.3
861.3314	1125.6675	1794.6	907.05
861.4763	1127.6204	1793.05	904.5
861.6212	1129.5726	1815.85	923.35
861.7661	1131.524	1806.1	915.8
861.911	1133.4748	1778.4	888
862.0559	1135.4248	1715.05	823.65
862.2008	1137.3741	1664.6	775.05
862.3457	1139.3226	1635.95	744.95
862.4905	1141.2705	1639.85	749.6
862.6354	1143.2176	1663.85	770.1
862.7803	1145.164	1665.9	774.1
862.9251	1147.1097	1659.1	767.8
863.07	1149.0546	1640.35	747.2
863.2148	1150.9989	1611.55	719.85
863.3597	1152.9424	1596.5	702.85
863.5045	1154.8852	1580.5	687.9
863.6493	1156.8272	1570.35	681.8
863.7942	1158.7686	1579.55	681.9
863.939	1160.7092	1580.05	686.65
864.0838	1162.6491	1581.05	687.7
864.2286	1164.5883	1603.45	712.15
864.3734	1166.5267	1617.3	723.4
864.5182	1168.4644	1634.3	743.5
864.663	1170.4014	1668.7	774.95
864.8078	1172.3377	1698.65	808.8
864.9526	1174.2732	1759.9	870.6
865.0974	1176.2081	1853.1	962.25
865.2421	1178.1421	1974.2	1077.4
865.3869	1180.0755	2074.25	1182.65
865.5317	1182.0082	2131.2	1240.55
865.6764	1183.9401	2110.55	1219.45
865.8212	1185.8713	1992.5	1101.8
865.9659	1187.8017	1880.3	992.65
866.1106	1189.7315	1773.7	890.85
866.2554	1191.6605	1726.15	811.75
866.4001	1193.5888	1660.65	773.2
866.5448	1195.5163	1640.75	753.1
866.6895	1197.4432	1626.3	733.5
866.8342	1199.3693	1609.05	719.5
866.9789	1201.2947	1594.2	701.4
867.1236	1203.2193	1587.7	694.5
867.2683	1205.1432	1578.15	687.1
867.413	1207.0664	1582	690.05
867.5576	1208.9889	1580.8	688.9
867.7023	1210.9106	1582.15	691.45
867.847	1212.8316	1588.65	701.3
867.9916	1214.7519	1615.3	715.6
868.1363	1216.6715	1610.25	719.45
868.2809	1218.5903	1619	725.35
868.4255	1220.5084	1628.25	733.45
868.5701	1222.4257	1648.25	758.1
868.7148	1224.3424	1654.15	764.8
868.8594	1226.2583	1685.4	791.6
869.004	1228.1735	1715.3	824.7
869.1486	1230.0879	1744.9	853.1
869.2932	1232.0016	1779.75	889.1
869.4377	1233.9146	1820.5	926.7
869.5823	1235.8269	1838.85	946.5
869.7269	1237.7384	1851.45	959.9
869.8715	1239.6492	1854.3	963.4
870.016	1241.5592	1873.85	981.65
870.1606	1243.4686	1915.45	1022.8
870.3051	1245.3772	1992.35	1100.15
870.4496	1247.285	2081.25	1187.3
870.5941	1249.1922	2164.85	1271.5
870.7387	1251.0986	2235.65	1341.6
870.8832	1253.0042	2285.7	1390.5
871.0277	1254.9092	2370.85	1475.2
871.1722	1256.8134	2453.95	1563.9
871.3167	1258.7169	2523.05	1631.2
871.4611	1260.6196	2554.5	1662.8
871.6056	1262.5216	2561.55	1668.65
871.7501	1264.4229	2544.3	1651.85
871.8945	1266.3234	2509.05	1615.6
872.039	1268.2232	2458.6	1566.45
872.1834	1270.1223	2408.85	1514
872.3278	1272.0207	2375.9	1482.4
872.4723	1273.9183	2350.65	1453.65
872.6167	1275.8151	2358.75	1465.2
872.7611	1277.7113	2414.6	1523
872.9055	1279.6067	2503.15	1610.45
873.0499	1281.5014	2623.1	1729.9
873.1943	1283.3953	2807.7	1914.9
873.3386	1285.2885	2976.35	2084.6
873.483	1287.181	3090.6	2197.05
873.6274	1289.0727	3126.85	2235.4
873.7717	1290.9637	3098.35	2203.35
873.9161	1292.854	3011.5	2117.75
874.0604	1294.7435	2907	2014.05
874.2047	1296.6323	2789.5	1898.35
874.349	1298.5204	2728.25	1830.35
874.4933	1300.4077	2648.95	1752.45
874.6376	1302.2943	2597.25	1705.2
874.7819	1304.1802	2563.8	1669.5
874.9262	1306.0653	2542.1	1648.8
875.0705	1307.9497	2489.8	1598.3
875.2147	1309.8333	2461.95	1568.2
875.359	1311.7162	2421.5	1528.6
875.5032	1313.5984	2398.3	1502.1
875.6475	1315.4798	2379.75	1476.2
875.7917	1317.3605	2366.25	1467.6
875.9359	1319.2405	2352.35	1456.7
876.0801	1321.1197	2325.2	1432.55
876.2243	1322.9982	2276.5	1380.05
876.3685	1324.876	2207.55	1312.35
876.5127	1326.753	2092.45	1200.25
876.6569	1328.6293	2014.95	1119.65
876.801	1330.5048	1940.85	1045.35
876.9452	1332.3796	1881.9	989.3
877.0893	1334.2537	1844.1	927.3
877.2335	1336.127	1798.85	904
877.3776	1337.9996	1764.3	868.2
877.5217	1339.8714	1746.75	853.95
877.6658	1341.7426	1762.8	824.95
877.8099	1343.6129	1722.7	829.15
877.954	1345.4826	1706.7	812.1
878.0981	1347.3515	1696.15	800.4
878.2422	1349.2196	1676.4	779.65
878.3862	1351.087	1673.75	779.95
878.5303	1352.9537	1671.55	778.6
878.6743	1354.8197	1673.6	781.65
878.8184	1356.6849	1678.3	785.8
878.9624	1358.5493	1705	810.75
879.1064	1360.4131	1712.1	821.65
879.2504	1362.276	1756.4	863.7
879.3944	1364.1383	1788.6	894.35
879.5384	1365.9998	1813.75	914.6
879.6823	1367.8606	1797.95	903.05
879.8263	1369.7206	1780.8	887.05
879.9702	1371.5799	1782.2	885.3
880.1142	1373.4384	1777.8	884.45
880.2581	1375.2962	1739	843.7
880.402	1377.1533	1688.4	794.2
880.5459	1379.0096	1649.15	756.75
880.6898	1380.8652	1604.6	713.3
880.8337	1382.7201	1580.8	688.8
880.9776	1384.5742	1559.85	667.45
881.1215	1386.4275	1538.2	643.15
881.2653	1388.2802	1525.7	633.05
881.4092	1390.132	1509.9	614.25
881.553	1391.9832	1504.15	607.95
881.6968	1393.8336	1495.05	601.4
881.8406	1395.6832	1483.25	587.2
881.9844	1397.5322	1475.05	579.2
882.1282	1399.3803	1483	585.75
882.272	1401.2278	1459.9	564.65
882.4158	1403.0745	1450.85	557.75
882.5595	1404.9204	1447.25	555.85
882.7033	1406.7656	1447.7	553.8
882.847	1408.6101	1438	543.55
882.9908	1410.4538	1436.35	542.4
883.1345	1412.2968	1440.85	546.25
883.2782	1414.139	1453.1	560.5
883.4219	1415.9805	1447.3	554.35
883.5656	1417.8213	1467.35	568.75
883.7092	1419.6613	1472.15	580.7
883.8529	1421.5006	1499.75	607.25
883.9965	1423.3391	1542.7	647.25
884.1402	1425.1769	1585.4	689.9
884.2838	1427.0139	1662.85	768.55
884.4274	1428.8502	1740.4	845.75
884.571	1430.6858	1805.95	910.8
884.7146	1432.5206	1821.9	926.75
884.8582	1434.3547	1827.6	932.3
885.0018	1436.188	1799.2	906.2
885.1453	1438.0206	1784.9	888.6
885.2889	1439.8524	1777.85	884.8
885.4324	1441.6835	1786.85	891.1
885.5759	1443.5139	1784.2	887.05
885.7194	1445.3435	1776.55	883.35
885.8629	1447.1724	1787.45	894.85
886.0064	1449.0005	1784.45	894.2
886.1499	1450.8279	1765.55	874.25
886.2933	1452.6545	1759.25	866.55
886.4368	1454.4804	1758.7	867.7
886.5802	1456.3056	1765.25	864.1
886.7237	1458.13	1732.2	842.1
886.8671	1459.9536	1716.8	823.25
887.0105	1461.7766	1672.9	780.35
887.1539	1463.5987	1642.6	750.15
887.2972	1465.4202	1610.05	715.15
887.4406	1467.2409	1564.55	671.7
887.584	1469.0608	1541.85	647.75
887.7273	1470.88	1510.55	616.1
887.8706	1472.6984	1486.45	592.9
888.0139	1474.5161	1472.45	575.1
888.1572	1476.3331	1447.3	553.65
888.3005	1478.1493	1449.45	555.8
888.4438	1479.9648	1439.25	543.1
888.5871	1481.7795	1447.45	554.5
888.7303	1483.5935	1439.05	546.65
888.8736	1485.4067	1437.95	543.85
889.0168	1487.2192	1441.95	547.5
889.16	1489.031	1436.15	541.25
889.3032	1490.842	1436.05	544.4
889.4464	1492.6522	1436.9	544.5
889.5896	1494.4618	1436.25	541.05
889.7327	1496.2705	1427.75	532.4
889.8759	1498.0785	1422.3	528.65
890.019	1499.8858	1416.05	522.85
890.1622	1501.6924	1417.2	523.85
890.3053	1503.4981	1403.15	510.1
890.4484	1505.3032	1394.65	502.15
890.5914	1507.1075	1390.3	494.85
890.7345	1508.911	1381.25	487.65
890.8776	1510.7138	1380.65	487.7
891.0206	1512.5159	1373	481.25
891.1637	1514.3172	1366.15	474.55
891.3067	1516.1178	1362	471.2
891.4497	1517.9176	1361	465.15
891.5927	1519.7166	1352.05	458.6
891.7357	1521.515	1350.9	451.7
891.8786	1523.3126	1343.9	451.55
892.0216	1525.1094	1338.7	443.2
892.1645	1526.9055	1335.4	444.1
892.3074	1528.7008	1335.75	441.65
892.4503	1530.4954	1336.05	435.45
892.5932	1532.2893	1323.6	433.25
892.7361	1534.0824	1325.1	428.25
892.879	1535.8747	1317.35	424.95
893.0218	1537.6663	1318	424.4
893.1647	1539.4572	1324.05	431.85
893.3075	1541.2473	1323.8	433.95
893.4503	1543.0367	1320.6	430.4
893.5931	1544.8253	1321.35	424.8
893.7359	1546.6132	1329.85	434.2
893.8787	1548.4003	1336.45	435
894.0214	1550.1867	1348.9	448.35
894.1642	1551.9723	1351.95	456.1
894.3069	1553.7572	1362.35	471.35
894.4496	1555.5414	1382.8	491
894.5923	1557.3247	1404.2	512.95
894.735	1559.1074	1441.1	554.9
894.8777	1560.8893	1481	590.3
895.0204	1562.6705	1504.9	614.3
895.163	1564.4509	1526.45	636.05
895.3056	1566.2305	1532.75	644.7
895.4482	1568.0094	1537.55	647.15
895.5908	1569.7876	1534.6	645.5
895.7334	1571.565	1529.6	639.9
895.876	1573.3417	1524.2	635.2
896.0186	1575.1176	1529.8	640.9
896.1611	1576.8928	1548.9	659.7
896.3036	1578.6672	1571.8	683.4
896.4461	1580.4409	1588.7	702.95
896.5886	1582.2138	1630.3	739.75
896.7311	1583.986	1658.75	770.2
896.8736	1585.7575	1691.1	802.15
897.0161	1587.5282	1715.8	827.1
897.1585	1589.2981	1745.3	859.95
897.3009	1591.0673	1761.95	872.4
897.4433	1592.8358	1770.9	884.75
897.5857	1594.6035	1770.05	879.35
897.7281	1596.3704	1762.25	873.2
897.8705	1598.1366	1748.05	859.9
898.0128	1599.9021	1717.5	829.45
898.1551	1601.6668	1700	810.1
898.2975	1603.4308	1701.2	811.9
898.4398	1605.194	1701.5	809.45
898.5821	1606.9564	1720.8	836.1
898.7243	1608.7182	1776.45	888.25
898.8666	1610.4791	1849.9	968.3
899.0088	1612.2394	1944.6	1060.75
899.1511	1613.9988	2030.75	1144.55
899.2933	1615.7576	2091.6	1205.2
899.4355	1617.5156	2116.35	1223.4
899.5776	1619.2728	2069.65	1179.05
899.7198	1621.0293	1982.15	1095.45
899.862	1622.785	1888.65	997.45
900.0041	1624.54	1775.9	889.4
900.1462	1626.2942	1670.7	782.85
900.2883	1628.0477	1576.3	686.9
900.4304	1629.8005	1521.1	631.15
900.5725	1631.5525	1456.25	569.1
900.7145	1633.3037	1412.1	525.4
900.8566	1635.0542	1378.15	491.9
900.9986	1636.804	1344.05	458
901.1406	1638.553	1430.75	437.15
901.2826	1640.3013	1301.3	413.1
901.4245	1642.0488	1287.15	399.85
901.5665	1643.7955	1270.3	386
901.7085	1645.5416	1266.2	380.95
901.8504	1647.2868	1253.6	366.7
901.9923	1649.0313	1247.7	360.9
902.1342	1650.7751	1249.9	359.4
902.2761	1652.5181	1243.25	357.65
902.4179	1654.2604	1245.5	359.05
902.5598	1656.0019	1247	361.35
902.7016	1657.7427	1265.6	378.45
902.8434	1659.4828	1279.95	393.45
902.9852	1661.222	1311	424.85
903.127	1662.9606	1339.25	450.95
903.2687	1664.6984	1365.6	476.85
903.4105	1666.4354	1366	475.9
903.5522	1668.1717	1335.25	445.65
903.6939	1669.9072	1301.45	411.5
903.8356	1671.642	1263.45	372.7
903.9773	1673.3761	1230.5	344.95
904.119	1675.1094	1207.2	322.05
904.2606	1676.8419	1187.2	298.45
904.4022	1678.5737	1175.45	287.2
904.5439	1680.3048	1171.55	283.85
904.6855	1682.0351	1157.5	269.3
904.827	1683.7646	1158.95	267.85
904.9686	1685.4934	1149.55	260.5
905.1101	1687.2215	1146.6	259.05
905.2517	1688.9488	1140	252.6
905.3932	1690.6754	1139.95	255.2
905.5347	1692.4012	1136.15	249.7
905.6761	1694.1263	1135.15	246.55
905.8176	1695.8506	1130.6	242.4
905.9591	1697.5742	1133.25	248.15
906.1005	1699.297	1124.05	237.95
906.2419	1701.0191	1129.9	245.75
906.3833	1702.7404	1122.4	234.7
906.5246	1704.461	1120.25	231.95
906.666	1706.1808	1119.9	232.8
906.8073	1707.8999	1113.6	225.75
906.9487	1709.6182	1113.4	228.2
907.09	1711.3358	1114.55	229.3
907.2313	1713.0527	1107.45	224.5
907.3725	1714.7688	1117.6	225.8
907.5138	1716.4841	1109.05	220.95
907.655	1718.1987	1112.45	221
907.7962	1719.9126	1101.55	217.4
907.9374	1721.6257	1102.65	215.6
908.0786	1723.338	1107.4	222.05
908.2198	1725.0496	1107.7	220.35
908.3609	1726.7605	1103.65	216.35
908.502	1728.4706	1098.2	212.4
908.6431	1730.18	1104.85	219.25
908.7842	1731.8886	1096.4	211.8
908.9253	1733.5964	1119.2	214.2
909.0664	1735.3036	1100.6	211.55
909.2074	1737.0099	1094.65	209.95
909.3484	1738.7156	1098.4	216.15
909.4894	1740.4204	1096.4	208.45
909.6304	1742.1246	1097.65	209.85
909.7714	1743.8279	1092.4	208.3
909.9123	1745.5306	1096.5	209.7
910.0532	1747.2325	1097.6	212.85
910.1941	1748.9336	1093.85	208.4
910.335	1750.634	1093.4	206.8
910.4759	1752.3336	1093.65	208.55
910.6168	1754.0325	1092.75	207.6
910.7576	1755.7307	1085.15	199.5
910.8984	1757.4281	1088.1	200.05
911.0392	1759.1247	1098.2	205.15
911.18	1760.8206	1093.2	200.9
911.3208	1762.5158	1095.45	202.9
911.4615	1764.2102	1088.95	202.65
911.6022	1765.9039	1086.9	201.25
911.7429	1767.5968	1086	200.3
911.8836	1769.289	1081.35	197
912.0243	1770.9804	1085.1	197.9
912.1649	1772.6711	1087.6	198.2
912.3056	1774.361	1084.25	197.65
912.4462	1776.0502	1084	196.8
912.5868	1777.7386	1084.75	195.4
912.7274	1779.4263	1087.6	199.95
912.8679	1781.1132	1080.2	194.95
913.0084	1782.7994	1081.45	196.2
913.149	1784.4849	1079.15	195.35
913.2895	1786.1696	1097.8	195.15
913.4299	1787.8535	1073.35	190
913.5704	1789.5367	1075.9	191.95
913.7108	1791.2192	1076.55	192.35
913.8513	1792.9009	1100.8	186.95
913.9917	1794.5818	1079.95	192.9
914.132	1796.2621	1072.8	190.05
914.2724	1797.9415	1083.65	198
914.4128	1799.6202	1076.6	193.55
914.5531	1801.2982	1075.1	189.75
914.6934	1802.9755	1075.45	186.1
914.8337	1804.6519	1073.05	188
914.9739	1806.3277	1073.15	188.05
915.1142	1808.0027	1064.5	183.3
915.2544	1809.6769	1067.7	184.1
915.3946	1811.3504	1073.5	186.95
915.5348	1813.0231	1070.15	186.55
915.675	1814.6951	1071.25	186.2
915.8151	1816.3664	1070	184.35
915.9553	1818.0369	1065	179.3
916.0954	1819.7067	1064.1	178.9
916.2355	1821.3757	1065.75	179.95
916.3755	1823.044	1068	180.4
916.5156	1824.7115	1068	183.5
916.6556	1826.3783	1066.4	181.65
916.7956	1828.0443	1064.85	180.15
916.9356	1829.7096	1064.25	178.75
917.0756	1831.3741	1070.15	179.85
917.2155	1833.0379	1062	177.8
917.3555	1834.701	1064.7	177.75
917.4954	1836.3633	1057.65	174.6
917.6353	1838.0248	1060.8	176.6
917.7751	1839.6856	1061.9	177.65
917.915	1841.3457	1062.85	177.7
918.0548	1843.005	1062.85	178.3
918.1946	1844.6636	1058.65	172.6
918.3344	1846.3214	1064.05	179.55
918.4742	1847.9785	1053.85	167.15
918.6139	1849.6349	1065.4	178.55
918.7537	1851.2904	1069.15	173.7
918.8934	1852.9453	1060.35	172.85
919.0331	1854.5994	1059.85	171.05
919.1727	1856.2528	1063.9	172.7
919.3124	1857.9054	1061.5	176.05
919.452	1859.5572	1056.1	172.9
919.5916	1861.2083	1055.5	168.4
919.7312	1862.8587	1060.2	176.55
919.8708	1864.5084	1059.6	172.05
920.0103	1866.1572	1059.2	174.2
920.1498	1867.8054	1055.25	167.55
920.2893	1869.4528	1052.45	165.85
920.4288	1871.0994	1060.8	172.8
920.5683	1872.7453	1055.8	169.65
920.7077	1874.3905	1061.5	169.15
920.8471	1876.0349	1051.25	164.15
920.9865	1877.6786	1050.75	161.4
921.1259	1879.3215	1049.45	166.2
921.2653	1880.9637	1054.3	167.85
921.4046	1882.6051	1051.55	166.8
921.5439	1884.2458	1059.05	172.05
921.6832	1885.8858	1049.05	163.65
921.8225	1887.525	1051.45	166.2
921.9617	1889.1634	1048.05	162.2
922.101	1890.8011	1045.5	158.1
922.2402	1892.4381	1051.85	166.3
922.3794	1894.0743	1050.95	165.3
922.5185	1895.7098	1044	157.9
922.6577	1897.3446	1048.7	161.65
922.7968	1898.9786	1047.35	158.15
922.9359	1900.6118	1041.25	159.35
923.075	1902.2443	1044.4	157.2
923.214	1903.8761	1043.1	158.6
923.3531	1905.5071	1042.35	154.7
923.4921	1907.1374	1044.9	157.8
923.6311	1908.7669	1042.85	157.6
923.77	1910.3957	1041.85	155.55
923.909	1912.0237	1040.3	155
924.0479	1913.651	1043.7	157.85
924.1868	1915.2776	1039.35	156.3
924.3257	1916.9034	1038	153.05
924.4646	1918.5285	1037	153.25
924.6034	1920.1528	1039.5	154.5
924.7422	1921.7764	1037.65	151.95
924.881	1923.3992	1039.15	152.25
925.0198	1925.0213	1036.85	151.45
925.1586	1926.6427	1036.1	153.65
925.2973	1928.2633	1254	150.65
925.436	1929.8832	1041.45	153
925.5747	1931.5023	1035.7	149.4
925.7134	1933.1207	1030.65	145.8
925.852	1934.7383	1040	156.55
925.9906	1936.3552	1030.65	147.95
926.1292	1937.9714	1032	147.55
926.2678	1939.5868	1036.75	149.3
926.4064	1941.2015	1036.25	149.75
926.5449	1942.8154	1032.5	145.45
926.6834	1944.4286	1031.55	144
926.8219	1946.041	1053.45	146.85
926.9604	1947.6528	1036.15	146.05
927.0988	1949.2637	1029.35	143.55
927.2372	1950.8739	1031.35	143.65
927.3756	1952.4834	1028.7	145
927.514	1954.0921	1030.5	145.4
927.6523	1955.7001	1030	141.6
927.7907	1957.3074	1028.65	144.85
927.929	1958.9139	1029	145.45
928.0673	1960.5197	1030	143.45
928.2055	1962.1247	1023.5	139.9
928.3438	1963.729	1028.6	146.8
928.482	1965.3325	1026.3	138.4
928.6202	1966.9353	1024.4	141.15
928.7584	1968.5374	1024.8	141.2
928.8965	1970.1387	1029.65	145.2
929.0346	1971.7393	1022.65	136.3
929.1727	1973.3392	1022.85	141.2
929.3108	1974.9383	1020.95	138.95
929.4489	1976.5366	1022.95	142
929.5869	1978.1342	1022.25	140.1
929.7249	1979.7311	1027.9	146
929.8629	1981.3273	1023.7	140.05
930.0009	1982.9227	1020.45	138.15
930.1388	1984.5173	1018.2	137.1
930.2767	1986.1112	1020.8	138.55
930.4146	1987.7044	1021.8	140.85
930.5525	1989.2968	1022.4	140.5
930.6904	1990.8885	1022.5	139.75
930.8282	1992.4795	1017.8	136
930.966	1994.0697	1013.8	132.3
931.1038	1995.6592	1016.9	132.8
931.2415	1997.2479	1014.05	131.65
931.3793	1998.8359	1014.05	134.35
931.517	2000.4232	1016.45	135.4
931.6547	2002.0097	1015.2	139.95
931.7923	2003.5955	1016.15	135.5
931.93	2005.1805	1014.85	132.85
932.0676	2006.7648	1015.2	137.3
932.2052	2008.3484	1018.55	137.05
932.3427	2009.9312	1013.4	132.75
932.4803	2011.5133	1012.05	132.35
932.6178	2013.0946	1011.3	130.8
932.7553	2014.6752	1013.7	134.45
932.8928	2016.2551	1016	132.45
933.0302	2017.8342	1013.65	134.5
933.1676	2019.4126	1009.8	130.05
933.305	2020.9902	1008.65	130.15
933.4424	2022.5672	1013.65	135.3
933.5798	2024.1433	1016.3	132.65
933.7171	2025.7188	1012	136.8
933.8544	2027.2935	1012.3	132.1
933.9917	2028.8674	1008.35	130
934.129	2030.4406	1006	128.4
934.2662	2032.0131	1010.4	131.75
934.4034	2033.5849	1009.85	129.2
934.5406	2035.1559	1005.85	127.5
934.6778	2036.7261	1007.7	129.8
934.8149	2038.2957	1013.05	130.4
934.952	2039.8645	1010.35	129.95
935.0891	2041.4325	1017.55	136.45
935.2262	2042.9998	1006.35	127.9
935.3632	2044.5664	1012.6	131.35
935.5002	2046.1323	1008.8	131.55
935.6372	2047.6974	1007.3	128.75
935.7742	2049.2617	1003.9	126.65
935.9111	2050.8254	1030.05	123.1
936.048	2052.3883	1008.35	125.2
936.1849	2053.9504	1009.85	128.25
936.3218	2055.5118	1011.65	130.35
936.4586	2057.0725	1008.4	123.25
936.5955	2058.6325	1007.2	126.95
936.7323	2060.1917	1005.1	126.5
936.869	2061.7502	1006.8	124.75
937.0058	2063.3079	1003.4	125.35
937.1425	2064.8649	1007.35	125.35
937.2792	2066.4212	1007.55	125.35
937.4159	2067.9767	1006.1	126.9
937.5525	2069.5315	1006.45	126.7
937.6891	2071.0856	1008.45	128.7
937.8257	2072.6389	1006.5	127.9
937.9623	2074.1915	1002.1	124.25
938.0989	2075.7433	1007.05	125.15
938.2354	2077.2945	1005.75	129.25
938.3719	2078.8448	1004.45	123.85
938.5084	2080.3945	1006.25	128.25
938.6448	2081.9434	1004.1	123.7
938.7812	2083.4916	1009.5	128.3
938.9176	2085.039	1006.55	121.6
939.054	2086.5857	1010.35	124.2
939.1903	2088.1317	1004	121.15
939.3267	2089.677	1007.85	124.35
939.463	2091.2215	1009.05	123.65
939.5992	2092.7652	1006.5	122.35
939.7355	2094.3083	1006	122.7
939.8717	2095.8506	1001.95	121.6
940.0079	2097.3921	1001.9	122.2
940.1441	2098.933	1003.45	122.65
940.2802	2100.4731	1005.25	124.1
940.4163	2102.0124	1022.95	123.3
940.5524	2103.5511	1005.6	123.8
940.6885	2105.089	1004.1	122.4
940.8245	2106.6261	1004.4	121.95
940.9606	2108.1626	1004.3	122.3
941.0965	2109.6983	1033.1	126
941.2325	2111.2332	1002.95	119.25
941.3684	2112.7675	1001	119.3
941.5044	2114.301	1004.35	118.8
941.6403	2115.8337	1006	122.6
941.7761	2117.3657	1006.1	125.65
941.912	2118.897	1006.35	124.8
942.0478	2120.4276	1014.2	128.8
942.1835	2121.9575	1006.35	124.45
942.3193	2123.4866	1017.95	123.8
942.455	2125.0149	1003.75	120.65
942.5907	2126.5426	1000.8	119.75
942.7264	2128.0695	1006.35	123.85
942.8621	2129.5956	998.8	118.7
942.9977	2131.1211	1004.7	122.75
943.1333	2132.6458	997.7	117.05
943.2689	2134.1698	1000.25	119.85
943.4044	2135.693	1002.95	120.4
943.54	2137.2155	1005.4	122.25
943.6755	2138.7373	1001.05	117.8
943.8109	2140.2584	998.5	119.5
943.9464	2141.7787	1002.25	115.6
944.0818	2143.2983	998.05	121.6
944.2172	2144.8171	997.65	118
944.3526	2146.3353	997.6	115.7
944.4879	2147.8527	995.3	116.35
944.6232	2149.3693	1001.7	119.7
944.7585	2150.8853	998.35	117.7
944.8938	2152.4005	1002.3	119.7
945.029	2153.9149	1001.7	118.75
945.1642	2155.4287	1001.05	121.8
945.2994	2156.9417	997	113.25
945.4346	2158.454	998	114.9
945.5697	2159.9655	998.15	118.4
945.7048	2161.4764	997.8	117.1
945.8399	2162.9865	998.3	119.4
945.9749	2164.4958	997.45	115.95
946.1099	2166.0045	999.45	116.65
946.2449	2167.5124	997.7	117.85
946.3799	2169.0195	996.55	114.35
946.5148	2170.526	998.9	117.65
946.6498	2172.0317	998.4	116.45
946.7846	2173.5367	1002.15	120.6
946.9195	2175.0409	995.75	115.75
947.0543	2176.5445	998.9	118
947.1891	2178.0473	995.8	116.05
947.3239	2179.5494	999.65	114.6
947.4587	2181.0507	994.7	113.7
947.5934	2182.5513	994.5	113.75
947.7281	2184.0512	995.3	112.9
947.8628	2185.5504	995.4	116.1
947.9974	2187.0488	990.4	110.65
948.132	2188.5465	993.45	114.85
948.2666	2190.0435	991.2	110.6
948.4012	2191.5397	992.2	112.15
948.5357	2193.0353	993.45	113.05
948.6702	2194.5301	996.55	113.4
948.8047	2196.0241	997.7	114.45
948.9392	2197.5175	994.15	112.05
949.0736	2199.0101	997.2	112.2
949.208	2200.502	990.8	111.65
949.3424	2201.9931	993.2	113.05
949.4767	2203.4835	991.45	110.1
949.611	2204.9733	1008	113.95
949.7453	2206.4622	987.85	107.6
949.8796	2207.9505	990.8	109.7
950.0138	2209.438	988.2	109.15
950.148	2210.9248	991.95	111.35
950.2822	2212.4109	990.95	112
950.4164	2213.8962	992.15	110.05
950.5505	2215.3809	989.85	105.5
950.6846	2216.8648	990.65	107.35
950.8186	2218.3479	995.25	109.3
950.9527	2219.8304	993.05	108
951.0867	2221.3121	992.25	107
951.2207	2222.7931	983.3	101.95
951.3546	2224.2733	988.15	105.5
951.4886	2225.7529	991.75	109.5
951.6225	2227.2317	989	105.6
951.7563	2228.7098	987.85	108.1
951.8902	2230.1872	983.2	103.25
952.024	2231.6638	984.4	105.05
952.1578	2233.1397	991.9	105.95
952.2916	2234.6149	989.4	110.95
952.4253	2236.0894	987.6	105.55
952.559	2237.5632	997.9	106.4
952.6927	2239.0362	987.95	109.85
952.8263	2240.5085	984.75	104.25
952.9599	2241.9801	983.4	102.2
953.0935	2243.4509	986.45	105.9
953.2271	2244.921	985	102.75
953.3606	2246.3904	990.3	105.45
953.4941	2247.8591	979.25	98.6
953.6276	2249.3271	984.9	105.2
953.7611	2250.7943	982.65	99.15
953.8945	2252.2608	985.15	104.1
954.0279	2253.7266	981.2	101
954.1612	2255.1917	983.6	101.9
954.2946	2256.656	981	100.5
954.4279	2258.1197	983.5	102.35
954.5612	2259.5826	980.75	97.05
954.6944	2261.0447	983.4	101.15
954.8276	2262.5062	981.4	98.6
954.9608	2263.9669	983.2	98.95
955.094	2265.4269	978.95	100.6
955.2271	2266.8862	978.9	98.65
955.3602	2268.3448	979.5	98.4
955.4933	2269.8026	980.15	99.55
955.6264	2271.2598	977.3	98.3
955.7594	2272.7162	977.15	96.4
955.8924	2274.1719	980.9	100.6
956.0253	2275.6268	980.55	96.15
956.1583	2277.0811	978.2	95.75
956.2912	2278.5346	977.55	98.5
956.4241	2279.9874	976.95	98.85
956.5569	2281.4395	977.05	97.9
956.6897	2282.8908	981.1	97.25
956.8225	2284.3414	979.95	97
956.9553	2285.7914	977.55	100.6
957.088	2287.2406	980.8	99.15
957.2207	2288.689	977.2	96.3
957.3534	2290.1368	980.75	97
957.486	2291.5838	982.7	96.35
957.6186	2293.0302	980.35	97.9
957.7512	2294.4758	979.45	98.4
957.8838	2295.9206	977.4	92.9
958.0163	2297.3648	975.65	95.7
958.1488	2298.8082	978.8	97.5
958.2813	2300.251	975.7	93.6
958.4137	2301.693	980.8	95.2
958.5461	2303.1343	973	91.15
958.6785	2304.5748	975.8	93.55
958.8108	2306.0147	976.6	95.3
958.9432	2307.4538	974.6	90.5
959.0754	2308.8922	973.05	95.3
959.2077	2310.3299	975	95.1
959.3399	2311.7669	970.05	90.2
959.4721	2313.2031	974.25	93.35
959.6043	2314.6387	973.8	93.7
959.7365	2316.0735	973.5	90.75
959.8686	2317.5076	974.8	92.95
960.0006	2318.941	973.55	93
960.1327	2320.3737	974.75	90.6
960.2647	2321.8056	978.4	96.85
960.3967	2323.2369	977	93.4
960.5287	2324.6674	978.25	96
960.6606	2326.0972	979.45	98.9
960.7925	2327.5263	983.85	104.9
960.9244	2328.9547	982.45	101.1
961.0562	2330.3823	987	105.4
961.1881	2331.8092	980.6	96.4
961.3198	2333.2355	977.05	95.3
961.4516	2334.661	973.1	88.8
961.5833	2336.0858	975.7	89.55
961.715	2337.5098	971.7	89.95
961.8467	2338.9332	972.85	89.5
961.9783	2340.3558	974.5	90.4
962.1099	2341.7778	970.65	90.45
962.2415	2343.199	970.4	88.35
962.373	2344.6195	970.95	91.4
962.5045	2346.0393	970.1	90.15
962.636	2347.4583	969.25	88.65
962.7675	2348.8767	968.95	87.45
962.8989	2350.2943	972.55	87.95
963.0303	2351.7113	971.4	88.05
963.1617	2353.1275	970.25	87.05
963.293	2354.543	997.95	91.75
963.4243	2355.9578	970.5	86.8
963.5556	2357.3718	970.45	89.2
963.6868	2358.7852	969.05	85.8
963.818	2360.1978	967.8	85.2
963.9492	2361.6098	967.9	85.95
964.0803	2363.021	971.6	86.4
964.2114	2364.4315	970.2	89.6
964.3425	2365.8413	971.1	84.05
964.4736	2367.2504	968.1	89.5
964.6046	2368.6587	966.3	86.8
964.7356	2370.0664	967.8	86.9
964.8666	2371.4733	966.2	84.3
964.9975	2372.8795	967.6	84.75
965.1284	2374.285	967.45	84.4
965.2593	2375.6899	964.85	83.45
965.3901	2377.0939	963.35	81.45
965.5209	2378.4973	966.4	84.5
965.6517	2379.9	964.65	82.25
965.7825	2381.3019	966.65	83.7
965.9132	2382.7032	962.2	81.9
966.0439	2384.1037	964.6	83.8
966.1745	2385.5035	963.2	80.95
966.3051	2386.9027	962.4	80.15
966.4357	2388.3011	965.4	80.75
966.5663	2389.6987	963.8	81.95
966.6968	2391.0957	964.7	83.25
966.8273	2392.492	962	81.5
966.9578	2393.8876	964.55	82.7
967.0882	2395.2824	962.8	81.55
967.2186	2396.6765	964.45	82.1
967.349	2398.07	959.65	78.8
967.4793	2399.4627	965.35	79.65
967.6097	2400.8547	962.8	78.4
967.7399	2402.246	966.5	77.4
967.8702	2403.6366	961.5	79.45
968.0004	2405.0265	963.9	84.05
968.1306	2406.4156	965.65	76.8
968.2607	2407.8041	964.25	79.15
968.3909	2409.1918	962.6	78.15
968.521	2410.5789	958.2	74.45
968.651	2411.9652	960.7	76.1
968.781	2413.3508	961.05	77.25
968.911	2414.7358	963.05	79.65
969.041	2416.12	958.85	74.55
969.1709	2417.5035	959.4	77.3
969.3008	2418.8863	960.65	77.35
969.4307	2420.2684	959	77.05
969.5606	2421.6497	962.3	77.85
969.6904	2423.0304	959.6	78.35
969.8201	2424.4104	958.25	74.2
969.9499	2425.7896	964.6	77.3
970.0796	2427.1682	954.85	74.05
970.2093	2428.546	959.35	74.9
970.3389	2429.9232	961.35	76.65
970.4685	2431.2996	956.35	74.2
970.5981	2432.6753	957	74.35
970.7277	2434.0503	954.35	73.15
970.8572	2435.4246	958.75	77.45
970.9867	2436.7982	961.8	78.5
971.1161	2438.1711	953.7	69.35
971.2456	2439.5433	956.15	72.95
971.375	2440.9148	957.65	74.75
971.5043	2442.2856	955.1	72.9
971.6336	2443.6557	956.3	72.2
971.7629	2445.025	953.2	69.9
971.8922	2446.3937	955.9	71.15
972.0214	2447.7617	959.85	75.5
972.1506	2449.1289	954.15	72.35
972.2798	2450.4955	958.9	74.2
972.4089	2451.8613	950.9	70.15
972.538	2453.2265	952.15	69.35
972.6671	2454.5909	956.75	74.55
972.7961	2455.9546	950.35	66.8
972.9251	2457.3177	950.35	67.9
973.0541	2458.68	953.9	70.35
973.1831	2460.0416	953.1	71.65
973.312	2461.4025	959.6	76.2
973.4408	2462.7627	962.1	66.75
973.5697	2464.1222	947.35	67.2
973.6985	2465.4811	952.85	70.75
973.8273	2466.8392	953	70.25
973.956	2468.1966	952.75	68.45
974.0847	2469.5533	951.7	66.1
974.2134	2470.9093	954.05	73.05
974.3421	2472.2645	952.05	68.05
974.4707	2473.6191	951.55	70.6
974.5993	2474.973	951	68.05
974.7278	2476.3262	952.35	69.35
974.8563	2477.6787	950.5	68.9
974.9848	2479.0305	951.9	69.85
975.1132	2480.3816	950.75	65.15
975.2417	2481.7319	953.35	73.45
975.37	2483.0816	952.35	67.95
975.4984	2484.4306	952.5	69.5
975.6267	2485.7789	951.7	69.2
975.755	2487.1264	948.25	64.9
975.8833	2488.4733	947.25	66.1
976.0115	2489.8195	957.1	69.4
976.1397	2491.165	952.35	67.55
976.2678	2492.5097	950	66.85
976.3959	2493.8538	947.75	64.8
976.524	2495.1972	949.8	66.75
976.6521	2496.5398	950.05	65.25
976.7801	2497.8818	948.8	63.1
976.9081	2499.2231	947.05	66
977.036	2500.5637	946.5	63.8
977.164	2501.9035	952.15	69.4
977.2918	2503.2427	951.15	64.95
977.4197	2504.5812	947.75	64.25
977.5475	2505.919	951.7	66.65
977.6753	2507.256	947.2	66.05
977.8031	2508.5924	946.6	64.3
977.9308	2509.9281	953.6	67.2
978.0585	2511.2631	944.7	62.55
978.1861	2512.5974	944.35	63.1
978.3137	2513.9309	945.25	62.25
978.4413	2515.2638	971.55	64
978.5689	2516.596	944.5	63.55
978.6964	2517.9275	950.7	68.4
978.8239	2519.2583	949.6	67.1
978.9513	2520.5884	946.8	62.95
979.0788	2521.9178	945.7	66.5
979.2062	2523.2465	944.5	62.25
979.3335	2524.5745	944.2	62.4
979.4608	2525.9018	944.8	61.85
979.5881	2527.2284	940.1	59.1
979.7154	2528.5543	943.55	64.85
979.8426	2529.8796	944.05	61.65
979.9698	2531.2041	945.85	63.25
980.0969	2532.5279	943.8	62.75
980.224	2533.851	944.4	63.65
980.3511	2535.1735	942.65	61.35
980.4781	2536.4952	944.95	60.45
980.6052	2537.8163	944.4	62.3
980.7321	2539.1366	944.65	60.95
980.8591	2540.4562	943.85	61.2
980.986	2541.7752	940.05	58.6
981.1129	2543.0935	945.55	63.05
981.2397	2544.411	944.5	60.8
981.3665	2545.7279	942.4	61.55
981.4933	2547.0441	943.45	61.1
981.62	2548.3596	943.6	56.6
981.7467	2549.6744	944.3	62.05
981.8734	2550.9885	949.55	59.7
982.0001	2552.3019	943.75	62.05
982.1267	2553.6146	945.65	63.35
982.2532	2554.9266	944.95	63.5
982.3798	2556.2379	941.85	58.8
982.5063	2557.5485	937	57.35
982.6327	2558.8585	948.65	57.95
982.7592	2560.1677	944.2	55.4
982.8856	2561.4762	940.8	57.8
983.0119	2562.7841	945.9	58.7
983.1383	2564.0913	939.75	57.35
983.2646	2565.3977	941.3	61.35
983.3908	2566.7035	938.6	57.35
983.517	2568.0086	944	61.05
983.6432	2569.313	941.05	60.1
983.7694	2570.6167	943.95	59.05
983.8955	2571.9197	938.2	56.95
984.0216	2573.222	943.25	57.25
984.1476	2574.5236	937.4	53.65
984.2737	2575.8246	944.45	59.95
984.3996	2577.1248	942.85	58.8
984.5256	2578.4244	937	54.3
984.6515	2579.7232	939.1	58.1
984.7774	2581.0214	964	54.7
984.9032	2582.3189	941.5	62.75
985.029	2583.6157	944.8	59.6
985.1548	2584.9118	939.85	59.75
985.2806	2586.2072	937.05	56.15
985.4063	2587.5019	938.5	58.25
985.5319	2588.7959	940.5	58.3
985.6576	2590.0893	942.25	55.95
985.7832	2591.3819	938.8	58.6
985.9087	2592.6739	939.05	57.7
986.0343	2593.9652	940.75	59.05
986.1597	2595.2557	937.65	57.35
986.2852	2596.5456	938.85	54.5
986.4106	2597.8348	937.25	55.5
986.536	2599.1234	943.3	61.65
986.6614	2600.4112	942.4	58.85
986.7867	2601.6983	941.25	56
986.912	2602.9848	940.85	58.85
987.0372	2604.2705	947.3	57.35
987.1624	2605.5556	942.75	60.35
987.2876	2606.84	939.75	58.15
987.4128	2608.1237	937.1	56.5
987.5379	2609.4067	941.9	59.55
987.6629	2610.689	944.2	55.25
987.788	2611.9707	942.15	59.5
987.913	2613.2516	943.45	59.9
988.0379	2614.5319	934.65	54
988.1629	2615.8115	936.85	54.35
988.2878	2617.0903	937.3	52.15
988.4126	2618.3685	934.4	52.15
988.5375	2619.6461	934.1	54.85
988.6622	2620.9229	933.3	50.3
988.787	2622.199	934.5	52.1
988.9117	2623.4745	936.4	53.9
989.0364	2624.7493	936.65	55.85
989.161	2626.0234	936.2	56.75
989.2857	2627.2968	932.45	51.2
989.4102	2628.5695	932.95	47.15
989.5348	2629.8415	930.65	49.25
989.6593	2631.1128	934.8	54.3
989.7837	2632.3835	934.4	49.55
989.9082	2633.6535	934.55	52.5
990.0326	2634.9228	935.95	55.65
990.1569	2636.1914	932.35	53.7
990.2812	2637.4593	940.75	54.15
990.4055	2638.7265	935.85	54.75
990.5298	2639.9931	935.8	53.7
990.654	2641.259	931.7	49.9
990.7782	2642.5242	932.15	48.75
990.9023	2643.7887	932	50.65
991.0264	2645.0525	929.05	47.05
991.1505	2646.3156	933.9	48.95
991.2745	2647.5781	932.25	51.05
991.3985	2648.8398	932.65	54.65
991.5225	2650.1009	937.3	46.25
991.6464	2651.3613	931.6	52.25
991.7703	2652.6211	928.1	47.3
991.8942	2653.8801	928.8	48.8
992.018	2655.1385	933.7	48.85
992.1418	2656.3961	929.35	48.35
992.2655	2657.6531	927.6	46.2
992.3892	2658.9094	929.2	46
992.5129	2660.1651	929.15	49.55
992.6366	2661.42	930.4	48.65
992.7602	2662.6743	932.4	52.1
992.8837	2663.9279	930.1	50.75
993.0073	2665.1808	933.45	51.75
993.1307	2666.433	934.25	51.35
993.2542	2667.6846	930.25	50.6
993.3776	2668.9354	933.85	51.05
993.501	2670.1856	930.7	49.3
993.6244	2671.4351	931.15	52.25
993.7477	2672.6839	930.6	45.15
993.8709	2673.9321	929.2	50.35
993.9942	2675.1795	930.3	49.5
994.1174	2676.4263	929.75	47.45
994.2405	2677.6724	929.4	51.95
994.3637	2678.9179	931.05	47.95
994.4868	2680.1626	928.75	46.6
994.6098	2681.4067	931.55	49.5
994.7328	2682.6501	931.55	49.85
994.8558	2683.8928	929.55	49.1
994.9788	2685.1348	931.35	51.4
995.1017	2686.3761	929.25	50.4
995.2245	2687.6168	926.4	45.4
995.3474	2688.8568	927	46.2
995.4702	2690.0961	926.6	46.45
995.5929	2691.3348	926.6	46.75
995.7156	2692.5727	930.2	51.55
995.8383	2693.81	926.55	45.45
995.961	2695.0466	925	45.45
996.0836	2696.2826	926.45	43.7
996.2062	2697.5178	928	43.9
996.3287	2698.7524	929.65	48.15
996.4512	2699.9863	931.45	49.8
996.5737	2701.2195	924.95	44.5
996.6961	2702.452	929.65	48.95
996.8185	2703.6839	929	48.7
996.9408	2704.9151	929.2	49.75
997.0631	2706.1456	929.05	47.15
997.1854	2707.3755	929.7	48.65
997.3077	2708.6046	931.85	49.45
997.4299	2709.8331	932.95	52.45
997.552	2711.0609	931.3	50.95
997.6742	2712.2881	931	49.1
997.7963	2713.5145	934.55	51.65
997.9183	2714.7403	929.95	47.95
998.0403	2715.9654	931.3	50.4
998.1623	2717.1899	946.25	51.9
998.2842	2718.4136	935.25	55.1
998.4062	2719.6367	934.7	55.6
998.528	2720.8591	944.05	56.25
998.6498	2722.0809	936.6	57.95
998.7716	2723.3019	939.9	55.65
998.8934	2724.5223	938.15	57.7
999.0151	2725.7421	940.25	56.2
999.1368	2726.9611	938.6	57.15
999.2584	2728.1795	938.3	52.1
999.38	2729.3972	933.35	53.2
999.5016	2730.6142	933.45	49.6
999.6231	2731.8306	930.95	51.75
999.7446	2733.0462	931.55	49.7
999.8661	2734.2612	934.4	50.5
999.9875	2735.4756	930.6	48
1000.1089	2736.6892	930.1	50.2
1000.2302	2737.9022	925.85	46.15
1000.3515	2739.1145	928.7	47.6
1000.4728	2740.3262	935.75	47.55
1000.594	2741.5372	925.25	45.35
1000.7152	2742.7475	923.7	42.5
1000.8363	2743.9571	925.65	45.8
1000.9575	2745.1661	927.1	40.3
1001.0785	2746.3744	925.85	44.75
1001.1996	2747.582	923.05	42.25
1001.3206	2748.7889	923.35	41.2
1001.4415	2749.9952	920.35	39.95
1001.5625	2751.2008	920.7	38.75
1001.6833	2752.4057	923.65	41.75
1001.8042	2753.61	921.5	41.15
1001.925	2754.8136	924.3	42.3
1002.0458	2756.0165	918.35	37.5
1002.1665	2757.2188	916.2	38.75
1002.2872	2758.4204	916.9	35.75
1002.4078	2759.6213	921.35	37.4
1002.5285	2760.8215	924.05	40.2
1002.649	2762.0211	922.95	40.9
1002.7696	2763.22	922.25	40.45
1002.8901	2764.4182	919.8	38.55
1003.0106	2765.6158	921.15	42.25
1003.131	2766.8127	919.45	38.7
1003.2514	2768.009	918	37.55
1003.3717	2769.2045	919.05	37.8
1003.492	2770.3994	919.4	36.65
1003.6123	2771.5936	919	36.85
1003.7325	2772.7872	915.9	38.25
1003.8527	2773.9801	918.1	35.4
1003.9729	2775.1723	932.55	37.9
1004.093	2776.3639	914.25	36.95
1004.2131	2777.5548	921.5	40.3
1004.3331	2778.745	919.5	38.6
1004.4531	2779.9346	914.55	34.9
1004.5731	2781.1235	916.65	37.1
1004.693	2782.3117	917.05	38.05
1004.8129	2783.4992	915.35	37.1
1004.9328	2784.6861	917.5	38.2
1005.0526	2785.8723	916.5	34.4
1005.1723	2787.0579	914.8	35.45
1005.2921	2788.2428	914.95	35.35
1005.4118	2789.427	916.8	36.25
1005.5314	2790.6106	918	39.45
1005.651	2791.7935	916.35	34.8
1005.7706	2792.9757	915.1	35.25
1005.8902	2794.1573	918.4	36.65
1006.0097	2795.3382	916.5	35.85
1006.1291	2796.5184	916.2	38.8
1006.2485	2797.698	920	41.5
1006.3679	2798.8769	917.8	38.2
1006.4873	2800.0551	919.55	39
1006.6066	2801.2327	921.05	40.55
1006.7258	2802.4096	917.5	40.85
1006.8451	2803.5859	918.05	36.6
1006.9642	2804.7615	921.65	41.5
1007.0834	2805.9364	918.4	40.2
1007.2025	2807.1106	920.5	39.65
1007.3216	2808.2842	922.1	42.75
1007.4406	2809.4572	923.3	43.35
1007.5596	2810.6294	924.85	46.2
1007.6785	2811.801	924.1	46.8
1007.7975	2812.972	926.15	44.2
1007.9163	2814.1423	925.75	46.6
1008.0352	2815.3119	929.1	48.6
1008.154	2816.4808	934.35	56.35
1008.2727	2817.6491	935.55	54.5
1008.3914	2818.8167	937.05	56.8
1008.5101	2819.9837	944.5	60.6
1008.6288	2821.15	945.9	66.3
1008.7474	2822.3157	950.3	71.65
1008.8659	2823.4807	955.5	77.85
1008.9844	2824.645	961.9	82.25
1009.1029	2825.8086	969.4	89.5
1009.2214	2826.9716	976.2	97.2
1009.3398	2828.134	987.35	107.95
1009.4581	2829.2957	991.4	112.8
1009.5764	2830.4567	989.15	108.45
1009.6947	2831.617	1000.3	119.65
1009.813	2832.7767	998.5	119.85
1009.9312	2833.9358	997.7	117.65
1010.0493	2835.0941	1001.8	120
1010.1675	2836.2519	999	119.85
1010.2855	2837.4089	996.65	116.15
1010.4036	2838.5653	991.6	113.05
1010.5216	2839.7211	985.05	106.8
1010.6396	2840.8761	988.8	106.4
1010.7575	2842.0306	980.85	103.6
1010.8754	2843.1843	984.1	106.1
1010.9932	2844.3374	985	104.95
1011.111	2845.4899	988.5	108
1011.2288	2846.6417	989.55	109.75
1011.3465	2847.7928	990.3	112.65
1011.4642	2848.9433	998.25	119.05
1011.5818	2850.0931	993.95	114.8
1011.6995	2851.2422	996.65	115.9
1011.817	2852.3907	998.75	117.45
1011.9345	2853.5385	993.85	111.85
1012.052	2854.6857	1024.5	120
1012.1695	2855.8323	999.55	121.55
1012.2869	2856.9781	1002.85	124
1012.4042	2858.1233	1002.15	123.5
1012.5216	2859.2679	1009.8	129.45
1012.6389	2860.4118	1010.35	130.85
1012.7561	2861.555	1019.5	134.9
1012.8733	2862.6976	1017.3	136.5
1012.9905	2863.8395	1018.8	139.5
1013.1076	2864.9808	1018.5	140.1
1013.2247	2866.1214	1019.4	140
1013.3417	2867.2614	1018.6	140.15
1013.4587	2868.4007	1024.25	145.2
1013.5757	2869.5393	1025.2	146.1
1013.6926	2870.6773	1028.3	147.65
1013.8095	2871.8146	1030.65	148.25
1013.9263	2872.9513	1032	149.55
1014.0431	2874.0874	1025.65	147.8
1014.1599	2875.2227	1034.7	154.85
1014.2766	2876.3574	1031.1	151.75
1014.3933	2877.4915	1034.9	155.6
1014.51	2878.6249	1037.8	160.5
1014.6266	2879.7577	1045.4	166.95
1014.7431	2880.8898	1052.15	163.75
1014.8596	2882.0212	1046.85	169.85
1014.9761	2883.152	1047.35	169.3
1015.0925	2884.2821	1045.2	165.25
1015.2089	2885.4116	1046.3	168.75
1015.3253	2886.5405	1051.95	174.05
1015.4416	2887.6686	1052	170.35
1015.5579	2888.7962	1047.45	169.6
1015.6741	2889.923	1049.65	172.65
1015.7903	2891.0493	1045.8	169.5
1015.9065	2892.1748	1048.65	171.2
1016.0226	2893.2997	1049.45	171.3
1016.1387	2894.424	1048.85	172.4
1016.2547	2895.5476	1055.7	176.8
1016.3707	2896.6706	1052.2	173.6
1016.4866	2897.7929	1051.75	175.45
1016.6025	2898.9145	1054.15	176.15
1016.7184	2900.0355	1054.7	175.75
1016.8342	2901.1559	1050.85	171.45
1016.95	2902.2756	1054.3	171.4
1017.0658	2903.3946	1048.4	170.65
1017.1815	2904.513	1056.3	174.3
1017.2971	2905.6308	1046.05	167.4
1017.4127	2906.7479	1044.85	163.3
1017.5283	2907.8643	1048.7	169.35
1017.6439	2908.9801	1053.4	176.1
1017.7594	2910.0953	1048.65	169.9
1017.8748	2911.2098	1054.8	173.65
1017.9902	2912.3236	1054.75	167.7
1018.1056	2913.4368	1052.4	170.6
1018.2209	2914.5494	1047.85	170.4
1018.3362	2915.6613	1053.4	168.25
1018.4515	2916.7725	1047.5	167.45
1018.5667	2917.8831	1041.45	161.4
1018.6819	2918.9931	1038.95	156.55
1018.797	2920.1024	1034.85	154.25
1018.9121	2921.211	1036	155.95
1019.0271	2922.319	1030.4	153.35
1019.1421	2923.4264	1031.3	152.85
1019.2571	2924.5331	1029	151.8
1019.372	2925.6391	1028.25	150.75
1019.4869	2926.7445	1026.75	150.8
1019.6017	2927.8493	1025.2	147.95
1019.7165	2928.9534	1032.55	151.9
1019.8313	2930.0569	1037.8	156.9
1019.946	2931.1597	1035.85	154.8
1020.0606	2932.2619	1036.6	156.85
1020.1753	2933.3634	1032.2	153.5
1020.2899	2934.4643	1042.7	155.6
1020.4044	2935.5645	1042.3	158.35
1020.5189	2936.6641	1041.05	158.6
1020.6334	2937.763	1039.4	159.1
1020.7478	2938.8613	1036.35	157.55
1020.8622	2939.959	1040.35	156.7
1020.9765	2941.056	1034.55	158.2
1021.0908	2942.1523	1027.05	148.15
1021.2051	2943.248	1020.9	142.9
1021.3193	2944.3431	1012.5	133.85
1021.4334	2945.4375	1009	130.75
1021.5476	2946.5313	999.05	120.4
1021.6617	2947.6244	995.1	116.8
1021.7757	2948.7169	991.05	112.7
1021.8897	2949.8087	983.85	105.2
1022.0037	2950.8999	973.85	95.6
1022.1176	2951.9904	969.25	90.75
1022.2315	2953.0803	967.25	88.35
1022.3453	2954.1696	961.85	82.8
1022.4591	2955.2582	958.85	81.65
1022.5728	2956.3462	959.75	82.75
1022.6865	2957.4335	959.2	80.7
1022.8002	2958.5202	959.7	78.75
1022.9138	2959.6062	954.8	75.2
1023.0274	2960.6916	950.55	74.85
1023.141	2961.7764	955.9	76.35
1023.2545	2962.8605	955.7	76.25
1023.3679	2963.9439	952.6	76
1023.4813	2965.0267	954.55	75.9
1023.5947	2966.1089	977	76.4
1023.708	2967.1905	954	76.4
1023.8213	2968.2714	952.3	74.85
1023.9346	2969.3516	953.6	75.75
1024.0478	2970.4312	959.55	72.1
1024.1609	2971.5102	952.85	76.15
1024.274	2972.5885	950.25	73.45
1024.3871	2973.6662	959.3	76.95
1024.5002	2974.7432	951.6	73.55
1024.6132	2975.8196	952	74.45
1024.7261	2976.8954	950.7	73.6
1024.839	2977.9705	954.1	78.05
1024.9519	2979.045	952.1	73.9
1025.0647	2980.1188	948	71.65
1025.1775	2981.192	952.15	74.7
1025.2902	2982.2645	950.15	70.95
1025.4029	2983.3364	950.6	71.15
1025.5156	2984.4077	948.4	68.35
1025.6282	2985.4783	950.55	67.7
1025.7407	2986.5483	940.85	63.55
1025.8532	2987.6177	939.7	63.1
1025.9657	2988.6864	936.8	59.2
1026.0782	2989.7545	937.1	57.3
1026.1906	2990.8219	934.2	58
1026.3029	2991.8887	933.15	54.25
1026.4152	2992.9548	929.75	53.35
1026.5275	2994.0204	926.1	48.7
1026.6397	2995.0852	923.4	47.05
1026.7519	2996.1495	926.2	47.15
1026.864	2997.2131	918.25	40.25
1026.9761	2998.276	916.85	38.1
1027.0882	2999.3383	916.5	38.6
1027.2002	3000.4	914.2	33.8
1027.3122	3001.4611	913.3	35.65
1027.4241	3002.5215	911.7	34.95
1027.536	3003.5812	908.4	31.45
1027.6478	3004.6404	908.35	30.7
1027.7596	3005.6989	908.05	29
1027.8714	3006.7567	908.1	29.5
1027.9831	3007.8139	938.4	29.85
1028.0947	3008.8705	906.3	29
1028.2064	3009.9264	909.85	26.3
1028.3179	3010.9818	906.05	27.15
1028.4295	3012.0364	905.6	27.25
1028.541	3013.0905	903.3	24.7
1028.6524	3014.1439	905.25	26.8
1028.7638	3015.1966	903	26.6
1028.8752	3016.2487	903.45	24.2
1028.9865	3017.3002	907.5	26.35
1029.0978	3018.3511	902.15	24.6
1029.209	3019.4013	901.55	23.7
1029.3202	3020.4509	900.15	22.45
1029.4314	3021.4998	901	22.35
1029.5425	3022.5481	903.75	26.8
1029.6535	3023.5958	900.65	22.45
1029.7645	3024.6428	901.9	22.6
1029.8755	3025.6892	902.2	25.8
1029.9864	3026.735	900.95	25.05
1030.0973	3027.7802	900.05	23.2
1030.2082	3028.8247	897.45	21.05
1030.319	3029.8685	898.95	22.45
1030.4297	3030.9118	902.35	22.95
1030.5404	3031.9544	898.85	20.1
1030.6511	3032.9963	900.85	23.6
1030.7617	3034.0376	901.45	26.65
1030.8723	3035.0783	902.75	21.8
1030.9829	3036.1184	903.6	24.15
1031.0934	3037.1578	900.65	23.15
1031.2038	3038.1966	900.85	21.45
1031.3142	3039.2348	902.45	24.75
1031.4246	3040.2723	909.3	22.5
1031.5349	3041.3092	901.15	26
1031.6452	3042.3455	903.35	28.1
1031.7554	3043.3811	904.85	27.05
1031.8656	3044.4161	902.55	23.35
1031.9758	3045.4505	899.9	21.75
1032.0859	3046.4842	901.85	23.15
1032.1959	3047.5173	898.55	22.95
1032.3059	3048.5498	903.75	25.7
1032.4159	3049.5816	902.65	25.55
1032.5258	3050.6128	900.65	21.95
1032.6357	3051.6434	902.55	24.35
1032.7455	3052.6734	902.95	24.65
1032.8553	3053.7027	900.25	22.65
1032.9651	3054.7314	902.55	25.3
1033.0748	3055.7594	899.3	22.55
1033.1845	3056.7868	901.9	25
1033.2941	3057.8136	901.6	23.9
1033.4037	3058.8398	901.8	24.35
1033.5132	3059.8653	904.05	24.95
1033.6227	3060.8902	900.9	23.9
1033.7321	3061.9145	902.85	25.3
1033.8415	3062.9381	902.25	23.95
1033.9509	3063.9612	919.3	25.2
1034.0602	3064.9835	903.5	26.2
1034.1694	3066.0053	905.6	26.25
1034.2787	3067.0264	904.85	27.55
1034.3878	3068.0469	904.75	25.2
1034.497	3069.0668	905.05	24.35
1034.6061	3070.086	901.5	24.5
1034.7151	3071.1046	901.4	23.85
1034.8241	3072.1226	903.9	23.25
1034.9331	3073.1399	901.4	24
1035.042	3074.1567	902.8	25.7
1035.1508	3075.1727	901.65	22.75
1035.2597	3076.1882	901.2	24.2
1035.3684	3077.203	898.4	19.95
1035.4772	3078.2173	898.4	18.85
1035.5859	3079.2308	901.3	22.2
1035.6945	3080.2438	898.95	21
1035.8031	3081.2561	897.9	20.65
1035.9117	3082.2678	898.65	22.65
1036.0202	3083.2789	898.1	20.6
1036.1286	3084.2893	897.2	20.9
1036.2371	3085.2991	895.6	18.65
1036.3454	3086.3083	899.7	18.35
1036.4538	3087.3169	896.85	17.7
1036.562	3088.3248	896.6	18.95
1036.6703	3089.3321	896.35	17.9
1036.7785	3090.3388	894.85	19.9
1036.8866	3091.3449	892.85	16.25
1036.9948	3092.3503	898.1	19.4
1037.1028	3093.3551	893	18.6
1037.2108	3094.3593	893.1	16.35
1037.3188	3095.3629	891.25	14.2
1037.4267	3096.3658	895.95	17.6
1037.5346	3097.3681	897.1	20.85
1037.6425	3098.3698	895.7	15.6
1037.7503	3099.3708	894	16.6
1037.858	3100.3713	892	16.6
1037.9657	3101.3711	895	17.85
1038.0734	3102.3702	1030.3	20.35
1038.181	3103.3688	893.25	15.5
1038.2886	3104.3667	892.45	16.4
1038.3961	3105.364	891.35	16.95
1038.5036	3106.3607	894.4	14.7
1038.611	3107.3568	895.25	16.25
1038.7184	3108.3522	890.3	13.35
1038.8257	3109.347	894.2	15.9
1038.933	3110.3412	898.7	17.45
1039.0403	3111.3348	891.35	12.8
1039.1475	3112.3277	891	14.1
1039.2547	3113.32	887.7	12.4
1039.3618	3114.3117	890.75	13
1039.4689	3115.3028	888.6	12.55
1039.5759	3116.2932	891.9	12.25
1039.6829	3117.2831	895.9	13.35
1039.7898	3118.2723	890.3	12.5
1039.8967	3119.2608	890.8	13.25
1040.0035	3120.2488	890.2	12.8
1040.1103	3121.2361	891.35	14.95
1040.2171	3122.2229	890.4	12.6
1040.3238	3123.209	889.7	10.85
1040.4305	3124.1944	888.3	13.3
1040.5371	3125.1793	891.35	13.65
1040.6437	3126.1635	889.65	13.55
1040.7502	3127.1471	887.25	9.1
1040.8567	3128.1301	889.25	13.1
1040.9631	3129.1125	888.35	11.9
1041.0695	3130.0942	890.4	13.35
1041.1759	3131.0753	896.25	9.7
1041.2822	3132.0558	891.45	11.05
1041.3884	3133.0357	888.15	8.1
1041.4946	3134.015	888.1	11.4
1041.6008	3134.9936	891.2	13.15
1041.7069	3135.9716	907.8	11.45
1041.813	3136.949	887.3	9.1
1041.919	3137.9258	904.95	8.45
1042.025	3138.902	892.9	10.8
1042.1309	3139.8775	886	7.05
1042.2368	3140.8524	887.85	9.7
1042.3427	3141.8267	888.5	7.75
1042.4485	3142.8004	888.3	12.2
1042.5542	3143.7735	890.85	6.8
1042.6599	3144.7459	887.55	9.2
1042.7656	3145.7178	888.95	11.65
1042.8712	3146.689	886.75	10.65
1042.9768	3147.6596	889.05	10.75
1043.0823	3148.6295	885.25	8.25
1043.1878	3149.5989	885.2	6.05
1043.2932	3150.5676	885.1	8.45
1043.3986	3151.5357	883.75	7.45
1043.5039	3152.5032	885.15	10.5
1043.6092	3153.4701	884.7	8.55
1043.7145	3154.4364	888.3	9
1043.8197	3155.402	884.7	10.15
1043.9248	3156.367	886.2	8.5
1044.03	3157.3315	930.65	10.95
1044.135	3158.2952	888.3	10.9
1044.24	3159.2584	884	9.2
1044.345	3160.221	886.55	8.9
1044.4499	3161.1829	885.1	7.25
1044.5548	3162.1442	886.75	9.8
1044.6596	3163.105	886.4	8.65
1044.7644	3164.065	884.5	9.9
1044.8692	3165.0245	887.95	7.2
1044.9739	3165.9834	883	5.5
1045.0785	3166.9416	886.15	9.7
1045.1831	3167.8993	886.45	9.4
1045.2877	3168.8563	885.1	7.85
1045.3922	3169.8127	883.5	6.4
1045.4966	3170.7684	884.95	8.7
1045.6011	3171.7236	887.65	10.4
1045.7054	3172.6782	883.5	5.35
1045.8098	3173.6321	886.4	8.65
1045.914	3174.5854	888.35	6.85
1046.0183	3175.5381	885.75	8.95
1046.1224	3176.4902	884.2	8.9
1046.2266	3177.4417	884.4	6.25
1046.3307	3178.3926	883.5	6.4
1046.4347	3179.3428	883.1	7.8
1046.5387	3180.2924	885.25	7.45
1046.6427	3181.2415	884.4	6.85
1046.7466	3182.1899	884.3	6.1
1046.8504	3183.1377	884.3	7.6
1046.9542	3184.0848	887.6	9.35
1047.058	3185.0314	886	7.3
1047.1617	3185.9773	885.2	7.25
1047.2654	3186.9227	884.75	7.15
1047.369	3187.8674	884.25	6.95
1047.4726	3188.8115	888.55	6.65
1047.5761	3189.755	882.9	7.35
1047.6796	3190.6979	884.35	6.85
1047.783	3191.6402	882.25	4.7
1047.8864	3192.5818	882.85	6.45
1047.9898	3193.5229	898.75	9.1
1048.0931	3194.4633	883.3	6.05
1048.1963	3195.4031	884.3	5.7
1048.2995	3196.3423	882.7	5.95
1048.4027	3197.2809	882.8	5.2
1048.5058	3198.2189	884.35	7.05
1048.6089	3199.1563	890.6	6.45
1048.7119	3200.0931	883.8	9.95
1048.8148	3201.0292	883.75	7.9
1048.9178	3201.9648	883.3	5.85
1049.0206	3202.8997	884.8	3.85
1049.1235	3203.834	884.15	7.85
1049.2262	3204.7677	884.85	9.65
1049.329	3205.7008	883.3	5.25
1049.4317	3206.6333	881.65	3
1049.5343	3207.5652	884.45	5.55
1049.6369	3208.4964	882.6	4.8
1049.7394	3209.4271	882.2	6.2
1049.8419	3210.3571	882	5.35
1049.9444	3211.2865	883.3	4.9
1050.0468	3212.2154	884.4	5.3
1050.1491	3213.1436	886.2	6.35
1050.2514	3214.0712	888.9	5.25
1050.3537	3214.9982	881.75	5.65
1050.4559	3215.9246	883.55	7.05
1050.5581	3216.8503	881.8	4.35
1050.6602	3217.7755	884.55	6.55
1050.7623	3218.7001	881.15	4.95
1050.8643	3219.624	885.15	9.05
1050.9663	3220.5473	880.75	1.65
1051.0682	3221.4701	884.7	7.45
1051.1701	3222.3922	885.5	7.75
1051.2719	3223.3137	881.65	5.75
1051.3737	3224.2346	885.2	10.05
1051.4754	3225.1549	881.95	5.1
1051.5771	3226.0746	882.3	5.65
1051.6788	3226.9937	882.15	6.7
1051.7804	3227.9121	880.5	5.05
1051.8819	3228.83	882.75	5.85
1051.9834	3229.7473	881.95	4.9
1052.0849	3230.6639	884.5	5.3
1052.1863	3231.5799	882.8	5.55
1052.2876	3232.4954	882.45	4.05
1052.3889	3233.4102	882	3.7
1052.4902	3234.3244	881.4	5.25
1052.5914	3235.238	883.5	6.3
1052.6926	3236.151	904.35	2.9
1052.7937	3237.0634	884.2	9.5
1052.8948	3237.9752	880.7	3.5
1052.9958	3238.8864	882.45	4.7
1053.0968	3239.797	881.95	5.7
1053.1977	3240.7069	883.05	5.05
1053.2986	3241.6163	883.95	7.05
1053.3994	3242.5251	881.1	5.55
1053.5002	3243.4332	881.3	4.5
1053.6009	3244.3408	879.7	3.85
1053.7016	3245.2477	881.65	6
1053.8022	3246.154	882.55	5.15
1053.9028	3247.0598	880	2.05
1054.0034	3247.9649	880.35	1.65
1054.1039	3248.8694	880.6	3.9
1054.2043	3249.7733	881.55	6.2
1054.3047	3250.6766	882.35	4.75
1054.4051	3251.5793	883.2	6.75
1054.5054	3252.4814	880	2.55
1054.6056	3253.3829	881.45	4.35
1054.7058	3254.2838	881.2	2.95
1054.806	3255.1841	880.35	4.8
1054.9061	3256.0838	882.45	7.35
1055.0061	3256.9829	880.2	3.85
1055.1062	3257.8814	883.8	5.75
1055.2061	3258.7792	885.3	5.6
1055.306	3259.6765	882.85	7.2
1055.4059	3260.5731	879.6	4.35
1055.5057	3261.4692	881.05	4.4
1055.6055	3262.3647	880.05	1.8
1055.7052	3263.2595	880.15	3.85
1055.8049	3264.1538	878.4	3.45
1055.9045	3265.0474	881.35	3.9
1056.0041	3265.9404	880.45	4.7
1056.1036	3266.8329	877.25	1.35
1056.2031	3267.7247	890.5	4.25
1056.3025	3268.616	878.65	4.55
1056.4019	3269.5066	882.15	5.5
1056.5013	3270.3966	882.15	4.8
1056.6005	3271.286	879.25	3.3
