Software Version:	3.9.2.0
Unit SN:	10000200
Spectrometer SN:	6960
Date:	3/8/2024 11:41:16 AM
Data Line Index:	25
Spectral Points:	2048
Integration time (ms):	125
Averages:	20
Delay (ms):	30000
Sequence Number:	1
Processing:	dark subtract
Laser Power (mW):	300
Laser Current (mA):	823
Laser Diode Temp (C):	25.1
Laser Case Temp (C):	25.2
System Temp (C):	25.3
Spectrometer Temp (C):	23.1
CCD Temp (C):	0.007
Secondary Temp (C):	20.011
Heatsink Temp (C):	19.712
CCDPCB Temp (C):	34.84
SecondaryPCB Temp (C):	27.403

Wavelength	RamanShift	Raw Counts	Dark Subtracted
787.061	30.1047	413.85	4.3
787.2016	32.3739	413.35	5.85
787.3422	34.6426	413.2	4.3
787.4828	36.9109	416.4	6.6
787.6235	39.1787	420.85	5.05
787.7642	41.4461	426.8	7.1
787.9049	43.7131	431.85	10.55
788.0456	45.9796	434.4	7.7
788.1863	48.2456	438.65	10.2
788.3271	50.5112	441.2	9.75
788.4679	52.7764	447.25	12.4
788.6087	55.0411	451	13.25
788.7496	57.3054	455.3	9.4
788.8904	59.5692	459.4	12.8
789.0313	61.8326	464.4	14.95
789.1722	64.0955	468.3	15.1
789.3132	66.3579	475.25	15.5
789.4541	68.6199	480.6	18.5
789.5951	70.8815	491.65	25.5
789.7361	73.1426	508.9	40.55
789.8771	75.4032	543.75	71.6
790.0181	77.6634	620.9	145.25
790.1592	79.9231	792.5	312
790.3003	82.1824	1160.5	673.35
790.4414	84.4412	1750.05	1248.15
790.5825	86.6995	2494.8	1977.55
790.7237	88.9574	3200.2	2670.35
790.8648	91.2148	3692.6	3150
791.006	93.4717	3890.5	3344.9
791.1472	95.7282	3912.65	3362.9
791.2885	97.9842	3888.45	3338.4
791.4297	100.2398	3837.7	3283.25
791.571	102.4949	3779	3222.45
791.7123	104.7495	3745.7	3185.1
791.8536	107.0036	3691.2	3127.95
791.9949	109.2573	3601.95	3041.45
792.1363	111.5105	3506.4	2942.45
792.2777	113.7632	3413.6	2848
792.4191	116.0154	3303.15	2725.65
792.5605	118.2672	3192.35	2622.25
792.7019	120.5185	3065.15	2490.55
792.8434	122.7693	2973.15	2394.8
792.9849	125.0197	2883.3	2301.15
793.1264	127.2696	2810.45	2223.75
793.2679	129.519	2764.5	2179.6
793.4094	131.7679	2728.05	2140.2
793.551	134.0163	2705.35	2116.4
793.6926	136.2642	2701.8	2106.8
793.8342	138.5117	2691.9	2094.4
793.9758	140.7587	2646.1	2050.45
794.1175	143.0052	2614.55	2011.35
794.2591	145.2512	2552.45	1949.7
794.4008	147.4967	2504.55	1900.55
794.5425	149.7417	2455.95	1849.75
794.6842	151.9863	2426.35	1816.35
794.826	154.2304	2427.75	1813
794.9677	156.4739	2417.15	1798.4
795.1095	158.717	2427.15	1804
795.2513	160.9596	2464.4	1837.95
795.3931	163.2017	2471.2	1847.85
795.535	165.4433	2489.4	1859.65
795.6768	167.6844	2487.05	1855.75
795.8187	169.925	2443.4	1810.8
795.9606	172.1651	2377.4	1740.9
796.1025	174.4047	2339.55	1699.2
796.2445	176.6439	2297.2	1652.05
796.3864	178.8825	2264.25	1615.85
796.5284	181.1206	2259.15	1609.35
796.6704	183.3582	2245.95	1592.35
796.8124	185.5954	2247.25	1591.75
796.9544	187.832	2238.05	1579.6
797.0965	190.0681	2242	1579.65
797.2386	192.3037	2251.3	1583.8
797.3806	194.5388	2251.45	1582.15
797.5228	196.7734	2273.2	1601.15
797.6649	199.0075	2290.75	1619.45
797.807	201.2411	2307.9	1639.25
797.9492	203.4742	2321.7	1647.4
798.0914	205.7068	2350.9	1670
798.2336	207.9389	2377.75	1695.5
798.3758	210.1704	2390.45	1720.55
798.518	212.4015	2388.7	1727.55
798.6603	214.632	2383.95	1726.55
798.8025	216.862	2398.25	1740.7
798.9448	219.0915	2401.55	1745.45
799.0871	221.3205	2414.95	1755.9
799.2294	223.549	2409.05	1752.85
799.3718	225.777	2416.35	1758.55
799.5141	228.0044	2412.85	1745.65
799.6565	230.2314	2402.55	1733.75
799.7989	232.4578	2390.1	1719.5
799.9413	234.6837	2376.7	1696
800.0837	236.909	2365.85	1684.9
800.2262	239.1339	2374	1667.65
800.3687	241.3582	2374.3	1681.9
800.5111	243.582	2382.3	1662.1
800.6536	245.8053	2381.3	1674.1
800.7961	248.0281	2388.7	1686.05
800.9387	250.2503	2393	1685.15
801.0812	252.472	2396.65	1688.1
801.2238	254.6932	2413.4	1708.55
801.3664	256.9139	2415.4	1706.6
801.509	259.134	2443.25	1729.4
801.6516	261.3536	2462.4	1753.05
801.7942	263.5727	2507.95	1794.05
801.9369	265.7912	2562.45	1850.15
802.0795	268.0092	2608.95	1895.55
802.2222	270.2267	2678.1	1967.7
802.3649	272.4436	2736	2018.75
802.5076	274.6601	2774.5	2047.5
802.6504	276.8759	2783.65	2063.4
802.7931	279.0913	2798.45	2078.05
802.9359	281.3061	2827.2	2100.95
803.0787	283.5204	2856.5	2130.15
803.2215	285.7341	2867.1	2141.3
803.3643	287.9473	2885.65	2157.4
803.5071	290.16	2892	2157.35
803.6499	292.3721	2850	2124.65
803.7928	294.5837	2827	2096.8
803.9357	296.7947	2797.9	2068.3
804.0786	299.0052	2780.3	2050.8
804.2215	301.2152	2755.7	2021.4
804.3644	303.4246	2747.05	2017.5
804.5074	305.6334	2728.25	1998.7
804.6503	307.8418	2693.3	1958.2
804.7933	310.0495	2672	1936.7
804.9363	312.2568	2639.85	1905.95
805.0793	314.4635	2593.95	1856.05
805.2223	316.6696	2545.2	1807.2
805.3653	318.8752	2489.75	1741
805.5084	321.0802	2463.8	1722.7
805.6514	323.2847	2460.25	1714.05
805.7945	325.4887	2461.55	1716.05
805.9376	327.692	2476.55	1732
806.0807	329.8949	2535.55	1786.7
806.2238	332.0972	2569.55	1819.75
806.367	334.2989	2598.8	1844.75
806.5101	336.5001	2589.35	1838.55
806.6533	338.7007	2569.15	1815.5
806.7965	340.9008	2518.85	1765.7
806.9397	343.1003	2453.1	1695.35
807.0829	345.2992	2397.4	1640.6
807.2261	347.4976	2352.35	1592.75
807.3693	349.6955	2331.25	1569.45
807.5126	351.8927	2313.45	1550.6
807.6559	354.0895	2303.15	1530.2
807.7991	356.2856	2281.4	1514.45
807.9424	358.4812	2267.55	1500
808.0857	360.6763	2273.85	1505.3
808.2291	362.8707	2265.6	1496.75
808.3724	365.0646	2268.65	1497.3
808.5158	367.258	2279.5	1503.55
808.6591	369.4508	2303.3	1525.9
808.8025	371.643	2329.2	1552
808.9459	373.8346	2354	1572.3
809.0893	376.0257	2396.65	1613.6
809.2327	378.2162	2411.05	1629.5
809.3762	380.4062	2424.95	1646.4
809.5196	382.5956	2416.65	1637.55
809.6631	384.7844	2373.4	1598
809.8066	386.9726	2319.4	1546.75
809.9501	389.1603	2281.95	1513.35
810.0936	391.3474	2308.1	1505.1
810.2371	393.5339	2285.1	1507.85
810.3806	395.7199	2266.15	1492.75
810.5241	397.9052	2299.65	1526.5
810.6677	400.09	2359.65	1583.4
810.8113	402.2743	2416.3	1638.9
810.9548	404.4579	2451.05	1674.2
811.0984	406.641	2492.7	1712.35
811.2421	408.8235	2550.6	1770.05
811.3857	411.0054	2594.75	1813.3
811.5293	413.1868	2655.25	1865.6
811.673	415.3675	2707.1	1918.7
811.8166	417.5477	2695.95	1906.4
811.9603	419.7273	2637.95	1845.65
812.104	421.9064	2551.6	1753.3
812.2477	424.0848	2486.85	1692.45
812.3914	426.2627	2416.4	1624.45
812.5351	428.4399	2366.4	1568.7
812.6788	430.6166	2317.7	1517.4
812.8226	432.7928	2254.75	1456.55
812.9663	434.9683	2214	1413.75
813.1101	437.1432	2185.75	1381.95
813.2539	439.3176	2167.2	1366.75
813.3977	441.4914	2150.9	1353.6
813.5415	443.6645	2155	1357.5
813.6853	445.8371	2153.9	1352.3
813.8291	448.0091	2164.8	1364.35
813.973	450.1806	2152.4	1352.3
814.1168	452.3514	2140.65	1337.65
814.2607	454.5216	2160.05	1347.25
814.4046	456.6913	2151.9	1348.05
814.5485	458.8603	2150.35	1344.55
814.6924	461.0288	2150	1348.35
814.8363	463.1967	2154.1	1351.2
814.9802	465.3639	2144.15	1340.1
815.1241	467.5306	2148.2	1341
815.2681	469.6967	2140.2	1338
815.412	471.8622	2134.2	1330.55
815.556	474.0271	2138	1331.05
815.7	476.1914	2135.95	1328.2
815.844	478.3551	2127.75	1320.9
815.988	480.5182	2131.1	1324.9
816.132	482.6807	2123.95	1316.8
816.276	484.8426	2150.9	1345.85
816.4201	487.0039	2195.1	1388.65
816.5641	489.1647	2242.1	1428.6
816.7082	491.3248	2294.25	1484.5
816.8522	493.4843	2309.95	1500.8
816.9963	495.6432	2300.15	1490.2
817.1404	497.8015	2277	1459.15
817.2845	499.9592	2233.1	1418.5
817.4286	502.1163	2179.5	1363
817.5727	504.2728	2115.7	1299.3
817.7168	506.4287	2103.8	1290.45
817.861	508.5839	2086.8	1273.6
818.0051	510.7386	2074.8	1258.65
818.1493	512.8927	2082.15	1259.6
818.2935	515.0461	2092.65	1269.85
818.4377	517.199	2114.7	1294.35
818.5818	519.3512	2157.85	1339.4
818.726	521.5029	2232.35	1406.8
818.8703	523.6539	2289	1466.8
819.0145	525.8043	2296	1474.05
819.1587	527.9541	2246.15	1420.8
819.303	530.1033	2164	1342.45
819.4472	532.2519	2108.35	1287.1
819.5915	534.3999	2091.55	1265.9
819.7357	536.5472	2082.5	1256.1
819.88	538.694	2090.95	1266.6
820.0243	540.8401	2101.45	1277.1
820.1686	542.9856	2128.2	1300.45
820.3129	545.1305	2139.05	1307.85
820.4572	547.2748	2144.35	1313.5
820.6016	549.4185	2149.15	1316.45
820.7459	551.5615	2160.25	1331
820.8902	553.704	2186.2	1356.65
821.0346	555.8458	2199.4	1369.7
821.1789	557.987	2230.55	1404.25
821.3233	560.1276	2258.85	1425.95
821.4677	562.2675	2318.35	1487.9
821.6121	564.4069	2367.05	1535.5
821.7565	566.5456	2418.05	1589.8
821.9009	568.6837	2411.45	1582.3
822.0453	570.8212	2327.95	1499.95
822.1897	572.958	2246.8	1415.9
822.3342	575.0942	2190.75	1362.05
822.4786	577.2299	2144.6	1312.6
822.6231	579.3648	2127.7	1299.4
822.7675	581.4992	2105.1	1281
822.912	583.6329	2114.2	1287.75
823.0565	585.766	2149.7	1323.65
823.201	587.8985	2205.3	1375.65
823.3454	590.0304	2261.9	1415.5
823.4899	592.1616	2282.6	1445.95
823.6345	594.2922	2277.15	1440.65
823.779	596.4222	2227.6	1389.1
823.9235	598.5515	2164.9	1325.85
824.068	600.6802	2116.9	1280.6
824.2126	602.8083	2073	1233.25
824.3571	604.9358	2059.4	1221.05
824.5017	607.0626	2054.65	1215.9
824.6462	609.1888	2071.65	1229.45
824.7908	611.3144	2092.55	1249.85
824.9354	613.4393	2134.15	1294.6
825.08	615.5636	2191.2	1349.6
825.2246	617.6873	2233.6	1392.05
825.3692	619.8103	2269.5	1424.35
825.5138	621.9327	2275.2	1430.15
825.6584	624.0544	2223.15	1381.65
825.803	626.1756	2162.1	1320.7
825.9477	628.2961	2115.75	1270.65
826.0923	630.4159	2091.8	1246.5
826.237	632.5351	2092.4	1247.25
826.3816	634.6537	2078.65	1233.15
826.5263	636.7716	2062.7	1214.35
826.6709	638.8889	2054.95	1205.3
826.8156	641.0056	2065.5	1218.55
826.9603	643.1216	2076.7	1228.7
827.105	645.237	2084.6	1235.3
827.2497	647.3518	2052.4	1210.65
827.3944	649.4659	2032	1189.7
827.5391	651.5793	2009.95	1166.85
827.6838	653.6922	2005.95	1160.45
827.8285	655.8043	1992.95	1144.1
827.9733	657.9159	1976.4	1128.8
828.118	660.0268	1972.4	1121.95
828.2627	662.137	1968.3	1118.6
828.4075	664.2466	1969.25	1120.6
828.5522	666.3556	1969.05	1116.85
828.697	668.4639	1957.8	1109.9
828.8418	670.5716	1951.25	1105.9
828.9865	672.6786	1951.25	1099.15
829.1313	674.785	1942.3	1087.85
829.2761	676.8907	1932.7	1079.55
829.4209	678.9958	1938.4	1086.95
829.5657	681.1002	1929.95	1076.45
829.7105	683.204	1946.15	1090.45
829.8553	685.3072	1933.25	1077.65
830.0001	687.4097	1934.8	1083.05
830.1449	689.5115	1941.4	1086.9
830.2898	691.6127	1933.9	1081.9
830.4346	693.7132	1929.15	1075.7
830.5794	695.8131	1951.05	1075.1
830.7243	697.9123	1944.4	1087.65
830.8691	700.0109	1937.65	1081.6
831.014	702.1089	1955.2	1097.9
831.1588	704.2061	1972.35	1115
831.3037	706.3028	1994.6	1135.15
831.4486	708.3987	2004.95	1149.05
831.5935	710.4941	2020.3	1162.1
831.7383	712.5887	2034	1175.45
831.8832	714.6827	2029.35	1166.45
832.0281	716.7761	2019.5	1161.2
832.173	718.8688	2018.5	1162.45
832.3179	720.9608	2024.25	1159
832.4628	723.0522	2045.35	1181.9
832.6077	725.1429	2069.15	1208.45
832.7527	727.233	2108.55	1246.9
832.8976	729.3224	2174.4	1314.6
833.0425	731.4112	2228.4	1367.15
833.1874	733.4993	2223.9	1360.7
833.3324	735.5867	2182	1319.9
833.4773	737.6735	2101.65	1237.85
833.6222	739.7596	2034.55	1170.2
833.7672	741.845	1999.7	1136.2
833.9122	743.9298	2010.45	1143.45
834.0571	746.014	2004.75	1144.1
834.2021	748.0974	2021.65	1156.65
834.347	750.1802	2014.45	1150.45
834.492	752.2624	2009.55	1142.3
834.637	754.3439	2004.95	1136.45
834.782	756.4247	2001.95	1127.45
834.9269	758.5048	2008.15	1145.65
835.0719	760.5843	2013.9	1146.75
835.2169	762.6631	2067.35	1200.6
835.3619	764.7413	2122	1258.2
835.5069	766.8188	2209	1343
835.6519	768.8956	2302.4	1431.95
835.7969	770.9718	2360.35	1495.4
835.9419	773.0473	2352.25	1486.85
836.0869	775.1221	2320.45	1454.4
836.232	777.1962	2302.45	1435.4
836.377	779.2697	2366.05	1493.45
836.522	781.3426	2478.55	1593.6
836.667	783.4147	2541.05	1670.85
836.8121	785.4862	2510.15	1645.75
836.9571	787.557	2410.6	1539.8
837.1021	789.6271	2278.75	1408.3
837.2472	791.6966	2140	1271.25
837.3922	793.7654	2061.45	1190.05
837.5373	795.8335	2001.75	1133.4
837.6823	797.901	1959.95	1091.9
837.8274	799.9678	1951.1	1079.35
837.9724	802.0339	1958.05	1087
838.1175	804.0993	1959.7	1078.05
838.2626	806.1641	1942.95	1071.95
838.4076	808.2282	1932.7	1063.85
838.5527	810.2916	1912.6	1040.2
838.6978	812.3544	1897.25	1028.15
838.8428	814.4164	1882.15	1013.45
838.9879	816.4778	1894.45	1022.3
839.133	818.5385	1918.05	1048.95
839.2781	820.5986	1941.05	1069.85
839.4232	822.658	2000.95	1127.55
839.5682	824.7166	2056.6	1184.95
839.7133	826.7747	2160.35	1286.95
839.8584	828.832	2249.75	1376.9
840.0035	830.8886	2305.85	1431.3
840.1486	832.9446	2331.8	1457.05
840.2937	834.9999	2293.5	1421.3
840.4388	837.0545	2215.4	1339.35
840.5839	839.1085	2124.7	1252.45
840.729	841.1618	2050.95	1173.45
840.8741	843.2143	1992.25	1118.8
841.0192	845.2662	1965.35	1093.25
841.1643	847.3175	1948.65	1075
841.3095	849.368	1933.1	1059.85
841.4546	851.4179	1932	1056.55
841.5997	853.467	1927.95	1055.25
841.7448	855.5155	1934.75	1059.2
841.8899	857.5633	1938.6	1062.95
842.0351	859.6105	1929.1	1055.65
842.1802	861.6569	1914.25	1037.5
842.3253	863.7027	1905.7	1026.5
842.4704	865.7478	1889.5	1011.6
842.6156	867.7922	1883.15	1005.85
842.7607	869.8359	1868.2	992.95
842.9058	871.8789	1862.25	984.55
843.0509	873.9212	1894	987.7
843.1961	875.9629	1873.65	996.3
843.3412	878.0039	1885.3	1006.9
843.4863	880.0441	1907.65	1034.1
843.6315	882.0837	1928.95	1051.05
843.7766	884.1226	1948.8	1070.45
843.9218	886.1609	1982.6	1106.25
844.0669	888.1984	2039.6	1163.1
844.212	890.2352	2093.25	1212.85
844.3572	892.2714	2098.6	1218.8
844.5023	894.3069	2077.3	1197.4
844.6475	896.3416	2011.15	1131.4
844.7926	898.3757	1973.75	1093.65
844.9377	900.4091	1939.05	1059
845.0829	902.4418	1953.6	1069.1
845.228	904.4739	1965.25	1083.55
845.3732	906.5052	1983.45	1103.75
845.5183	908.5358	1983.6	1101.5
845.6635	910.5658	1952.05	1069.25
845.8086	912.595	1918.55	1039.65
845.9538	914.6236	1876.3	994.65
846.0989	916.6515	1855.65	977.55
846.2441	918.6786	1824.6	942.2
846.3892	920.7051	1817.65	935.75
846.5344	922.7309	1816.4	936.6
846.6795	924.756	1820.4	939
846.8246	926.7804	1835.2	953.05
846.9698	928.8041	1844.35	958.25
847.1149	930.8272	1853.9	971.55
847.2601	932.8495	1869.55	986.95
847.4052	934.8711	1882.75	999.95
847.5504	936.892	1891.65	1012.3
847.6955	938.9123	1911.05	1027.7
847.8407	940.9318	1927.2	1046.1
847.9858	942.9506	1950.95	1069.1
848.131	944.9688	1946.15	1061.2
848.2761	946.9862	1902.85	1020
848.4213	949.003	1884.1	1003.3
848.5664	951.019	1846.6	966.1
848.7115	953.0344	1827.1	945.15
848.8567	955.0491	1821.7	939.85
849.0018	957.063	1811.5	925.55
849.147	959.0763	1811.25	932.5
849.2921	961.0888	1805.9	919.75
849.4373	963.1007	1804.3	922.55
849.5824	965.1119	1796.35	918.3
849.7275	967.1223	1796.85	918.5
849.8727	969.1321	1786.8	908.15
850.0178	971.1412	1795.5	915.8
850.1629	973.1495	1780.35	897.35
850.3081	975.1572	1809.35	893.5
850.4532	977.1641	1786.4	904.35
850.5983	979.1704	1778	893.35
850.7435	981.1759	1772.85	884.9
850.8886	983.1808	1772.1	888.8
851.0337	985.1849	1764.3	867.3
851.1788	987.1884	1772.2	885.9
851.324	989.1911	1771.95	882.75
851.4691	991.1932	1777.75	893.65
851.6142	993.1945	1783.95	900.55
851.7593	995.1951	1775.9	891.65
851.9045	997.1951	1776.95	889.55
852.0496	999.1943	1767.8	882.3
852.1947	1001.1928	1773	886.25
852.3398	1003.1906	1783.25	900.8
852.4849	1005.1877	1812.55	925.65
852.63	1007.1841	1830.35	944.95
852.7751	1009.1798	1850.4	967
852.9202	1011.1748	1832.65	948.15
853.0653	1013.1691	1817	929.05
853.2104	1015.1627	1776.25	888.65
853.3555	1017.1556	1753.2	866.8
853.5006	1019.1477	1720.4	832.9
853.6457	1021.1392	1701.6	820.9
853.7908	1023.1299	1701.55	819.15
853.9359	1025.12	1705.2	822
854.081	1027.1093	1703.6	826.15
854.2261	1029.0979	1729.45	856.95
854.3712	1031.0859	1744.05	864.2
854.5163	1033.0731	1764.4	881.55
854.6613	1035.0596	1765.9	886.3
854.8064	1037.0454	1750.35	867.9
854.9515	1039.0304	1738	852.1
855.0965	1041.0148	1724.05	839.55
855.2416	1042.9985	1702.35	813.4
855.3867	1044.9814	1682.4	798
855.5317	1046.9636	1685.3	795.5
855.6768	1048.9452	1692.4	807
855.8219	1050.926	1713.55	827.5
855.9669	1052.9061	1731.7	846.85
856.112	1054.8855	1730.55	845.35
856.257	1056.8642	1727.85	842.35
856.4021	1058.8421	1734.6	842.65
856.5471	1060.8194	1723.55	835.35
856.6921	1062.7959	1724.25	840.35
856.8372	1064.7717	1720.45	833.35
856.9822	1066.7469	1731	842.4
857.1272	1068.7213	1723.2	834.15
857.2723	1070.695	1735.95	848.5
857.4173	1072.6679	1774.2	886.8
857.5623	1074.6402	1786.75	900.5
857.7073	1076.6117	1797.55	904.85
857.8523	1078.5826	1774.2	887.9
857.9973	1080.5527	1732	842.5
858.1423	1082.5221	1702.15	814.25
858.2873	1084.4908	1678.8	793.3
858.4323	1086.4587	1661.65	773.65
858.5773	1088.426	1652.4	764.45
858.7223	1090.3925	1655.75	764.5
858.8673	1092.3584	1663.45	774.65
859.0123	1094.3235	1670.45	785.5
859.1573	1096.2879	1683.9	795.25
859.3022	1098.2515	1705.7	818.55
859.4472	1100.2145	1738.2	851.7
859.5922	1102.1767	1779.05	890.05
859.7371	1104.1382	1828.45	941.75
859.8821	1106.099	1879.7	990.75
860.027	1108.0591	1927.95	1040.45
860.172	1110.0185	1964.8	1073.7
860.3169	1111.9771	2009.7	1120.65
860.4619	1113.9351	2053.5	1165
860.6068	1115.8923	2119.3	1230.7
860.7517	1117.8488	2147.45	1258.6
860.8967	1119.8045	2081.15	1191.9
861.0416	1121.7596	1988.25	1098.35
861.1865	1123.7139	1873.7	987.1
861.3314	1125.6675	1831.1	941.05
861.4763	1127.6204	1842.55	956.5
861.6212	1129.5726	1846.7	958.15
861.7661	1131.524	1840.3	953.15
861.911	1133.4748	1802.7	913.4
862.0559	1135.4248	1742.15	851.85
862.2008	1137.3741	1692.3	804.8
862.3457	1139.3226	1659.2	768.7
862.4905	1141.2705	1679.7	790
862.6354	1143.2176	1687.55	791.6
862.7803	1145.164	1685.65	793.9
862.9251	1147.1097	1682.45	793.85
863.07	1149.0546	1658.65	766.95
863.2148	1150.9989	1633.55	743.5
863.3597	1152.9424	1624.3	737.4
863.5045	1154.8852	1590	699.9
863.6493	1156.8272	1601.85	711.3
863.7942	1158.7686	1612.05	714.8
863.939	1160.7092	1598.25	707.95
864.0838	1162.6491	1603.95	712.6
864.2286	1164.5883	1624.9	736.15
864.3734	1166.5267	1638.9	748.35
864.5182	1168.4644	1653	761.7
864.663	1170.4014	1696.2	801.95
864.8078	1172.3377	1724.7	836.2
864.9526	1174.2732	1787.85	898.9
865.0974	1176.2081	1887.75	1000.2
865.2421	1178.1421	2012.55	1119
865.3869	1180.0755	2123.35	1235.35
865.5317	1182.0082	2184.25	1296.55
865.6764	1183.9401	2151.7	1261.75
865.8212	1185.8713	2056	1168.05
865.9659	1187.8017	1916.85	1031.25
866.1106	1189.7315	1811.6	926.35
866.2554	1191.6605	1761.5	851.35
866.4001	1193.5888	1683.1	796.75
866.5448	1195.5163	1663.6	776.8
866.6895	1197.4432	1649.8	761
866.8342	1199.3693	1632.4	744.45
866.9789	1201.2947	1621	730.9
867.1236	1203.2193	1607.2	716.85
867.2683	1205.1432	1602.2	712.75
867.413	1207.0664	1609.55	719.45
867.5576	1208.9889	1612.85	718.1
867.7023	1210.9106	1610.8	723
867.847	1212.8316	1612.05	724.25
867.9916	1214.7519	1635.3	740.05
868.1363	1216.6715	1635.65	746.95
868.2809	1218.5903	1649.7	760.2
868.4255	1220.5084	1662.75	774.9
868.5701	1222.4257	1675.7	787.7
868.7148	1224.3424	1684.95	794.8
868.8594	1226.2583	1715.3	821.95
869.004	1228.1735	1748.05	857.6
869.1486	1230.0879	1778.45	886.75
869.2932	1232.0016	1817.25	927.95
869.4377	1233.9146	1858.95	967.9
869.5823	1235.8269	1872.35	982.65
869.7269	1237.7384	1881.25	992.45
869.8715	1239.6492	1886.1	998.2
870.016	1241.5592	1909.8	1019.05
870.1606	1243.4686	1963.05	1071.65
870.3051	1245.3772	2027.85	1137.65
870.4496	1247.285	2117.85	1227.95
870.5941	1249.1922	2206.9	1315.25
870.7387	1251.0986	2286.65	1395.8
870.8832	1253.0042	2350.45	1457.9
871.0277	1254.9092	2437.85	1548.5
871.1722	1256.8134	2526.35	1637.55
871.3167	1258.7169	2600.2	1708.25
871.4611	1260.6196	2628.2	1739.75
871.6056	1262.5216	2649	1757.25
871.7501	1264.4229	2609.8	1720.15
871.8945	1266.3234	2585.65	1695.4
872.039	1268.2232	2525.35	1633.2
872.1834	1270.1223	2478.45	1585.85
872.3278	1272.0207	2438.3	1546.75
872.4723	1273.9183	2426.65	1529.55
872.6167	1275.8151	2429.1	1538.35
872.7611	1277.7113	2486.4	1593.05
872.9055	1279.6067	2568.65	1677.25
873.0499	1281.5014	2693.85	1803.75
873.1943	1283.3953	2896.6	2001.8
873.3386	1285.2885	3059.95	2171.95
873.483	1287.181	3196.55	2305.45
873.6274	1289.0727	3231.05	2342.7
873.7717	1290.9637	3201	2309
873.9161	1292.854	3113.4	2222.95
874.0604	1294.7435	3006.6	2114.2
874.2047	1296.6323	2891.45	1999.6
874.349	1298.5204	2807.95	1912
874.4933	1300.4077	2720.55	1828
874.6376	1302.2943	2680.3	1789.4
874.7819	1304.1802	2644.6	1752.8
874.9262	1306.0653	2612.55	1718.5
875.0705	1307.9497	2569.65	1679.7
875.2147	1309.8333	2537.65	1647.45
875.359	1311.7162	2490.15	1596.95
875.5032	1313.5984	2459.35	1567.35
875.6475	1315.4798	2440.65	1533.5
875.7917	1317.3605	2423.55	1525.35
875.9359	1319.2405	2419.15	1525.75
876.0801	1321.1197	2388.85	1494.75
876.2243	1322.9982	2339.45	1443.35
876.3685	1324.876	2262.8	1372.4
876.5127	1326.753	2161	1270.65
876.6569	1328.6293	2085.9	1192.15
876.801	1330.5048	2000.45	1108.45
876.9452	1332.3796	1924.65	1036.15
877.0893	1334.2537	1888.55	971.4
877.2335	1336.127	1825.85	934.45
877.3776	1337.9996	1805.85	913.65
877.5217	1339.8714	1774.9	882.05
877.6658	1341.7426	1800.9	866.5
877.8099	1343.6129	1753.8	862.1
877.954	1345.4826	1733.1	842.6
878.0981	1347.3515	1723.75	827.05
878.2422	1349.2196	1706.9	813
878.3862	1351.087	1699.65	807.65
878.5303	1352.9537	1699.85	807.3
878.6743	1354.8197	1705.55	813
878.8184	1356.6849	1708.4	816.75
878.9624	1358.5493	1728.25	836.4
879.1064	1360.4131	1750.3	856.85
879.2504	1362.276	1802.2	910.9
879.3944	1364.1383	1830.9	939.3
879.5384	1365.9998	1840.5	942.3
879.6823	1367.8606	1832.2	941.95
879.8263	1369.7206	1820.8	927.85
879.9702	1371.5799	1815.65	922.3
880.1142	1373.4384	1800.1	907.6
880.2581	1375.2962	1776.2	885
880.402	1377.1533	1721.8	829.05
880.5459	1379.0096	1672.8	781.6
880.6898	1380.8652	1637.05	745.2
880.8337	1382.7201	1611.55	719.65
880.9776	1384.5742	1581.45	689.35
881.1215	1386.4275	1559.6	666.95
881.2653	1388.2802	1545.65	655.7
881.4092	1390.132	1537.9	646.2
881.553	1391.9832	1531.3	638.85
881.6968	1393.8336	1516.65	622.95
881.8406	1395.6832	1515.55	622.85
881.9844	1397.5322	1499.4	608.4
882.1282	1399.3803	1500.4	602.5
882.272	1401.2278	1484.35	592.2
882.4158	1403.0745	1480.95	589
882.5595	1404.9204	1461.05	570.55
882.7033	1406.7656	1466.6	574.1
882.847	1408.6101	1463.55	570.65
882.9908	1410.4538	1459.05	567.2
883.1345	1412.2968	1458.05	564.4
883.2782	1414.139	1465.05	572.8
883.4219	1415.9805	1476.9	586.1
883.5656	1417.8213	1487.15	589.25
883.7092	1419.6613	1499.65	607.9
883.8529	1421.5006	1533.95	641.7
883.9965	1423.3391	1568.4	674.85
884.1402	1425.1769	1621.65	728.7
884.2838	1427.0139	1689.55	797.5
884.4274	1428.8502	1774.55	881.25
884.571	1430.6858	1846.55	952.8
884.7146	1432.5206	1874.6	983.95
884.8582	1434.3547	1870.05	977.9
885.0018	1436.188	1837.7	946.9
885.1453	1438.0206	1831.7	939.75
885.2889	1439.8524	1816.6	923.45
885.4324	1441.6835	1807.75	916.5
885.5759	1443.5139	1823.95	929.65
885.7194	1445.3435	1824.25	932.95
885.8629	1447.1724	1822.5	930.4
886.0064	1449.0005	1824.4	932.3
886.1499	1450.8279	1815.35	923.5
886.2933	1452.6545	1811.7	918.65
886.4368	1454.4804	1815.85	926.25
886.5802	1456.3056	1809.15	913.15
886.7237	1458.13	1773.6	884.35
886.8671	1459.9536	1745.15	852.85
887.0105	1461.7766	1705.05	813.65
887.1539	1463.5987	1674.9	781.8
887.2972	1465.4202	1632.2	738.75
887.4406	1467.2409	1605.75	713.85
887.584	1469.0608	1569.35	678.45
887.7273	1470.88	1537.05	644.1
887.8706	1472.6984	1512.2	621.85
888.0139	1474.5161	1491.2	597.05
888.1572	1476.3331	1474.65	584.55
888.3005	1478.1493	1465.15	573.1
888.4438	1479.9648	1463.2	573.65
888.5871	1481.7795	1471.25	579.1
888.7303	1483.5935	1468.2	576.2
888.8736	1485.4067	1456.6	564.15
889.0168	1487.2192	1465.15	574.3
889.16	1489.031	1464.4	567.3
889.3032	1490.842	1458.95	566.9
889.4464	1492.6522	1453.65	560.85
889.5896	1494.4618	1453.35	561.45
889.7327	1496.2705	1450.05	559.65
889.8759	1498.0785	1437.6	545.6
890.019	1499.8858	1438.45	544.65
890.1622	1501.6924	1432.8	542
890.3053	1503.4981	1433.75	543.05
890.4484	1505.3032	1419.95	529
890.5914	1507.1075	1409.55	520.3
890.7345	1508.911	1401.6	511.85
890.8776	1510.7138	1401.85	508.55
891.0206	1512.5159	1390.4	500.15
891.1637	1514.3172	1384.65	494.1
891.3067	1516.1178	1383	493.75
891.4497	1517.9176	1383.05	490.7
891.5927	1519.7166	1373.45	483.3
891.7357	1521.515	1371.05	476.55
891.8786	1523.3126	1359.95	465.55
892.0216	1525.1094	1362.5	470.15
892.1645	1526.9055	1353.85	463.05
892.3074	1528.7008	1345.3	455.8
892.4503	1530.4954	1354.85	458.25
892.5932	1532.2893	1343.05	454.15
892.7361	1534.0824	1340.8	446.55
892.879	1535.8747	1343.8	453.75
893.0218	1537.6663	1343.35	453.25
893.1647	1539.4572	1339.7	449.65
893.3075	1541.2473	1342.5	454.45
893.4503	1543.0367	1337.75	448.9
893.5931	1544.8253	1344.85	451.1
893.7359	1546.6132	1355.4	462.6
893.8787	1548.4003	1364.15	464.65
894.0214	1550.1867	1369.2	468.45
894.1642	1551.9723	1371.25	478.2
894.3069	1553.7572	1388.1	496.8
894.4496	1555.5414	1401.95	512.6
894.5923	1557.3247	1429.95	540.9
894.735	1559.1074	1458.1	570.65
894.8777	1560.8893	1500.05	613.1
895.0204	1562.6705	1540.45	653.3
895.163	1564.4509	1560.9	669.95
895.3056	1566.2305	1559.9	672.65
895.4482	1568.0094	1572.7	683.15
895.5908	1569.7876	1564.65	677.25
895.7334	1571.565	1564.5	674.5
895.876	1573.3417	1566.8	677.95
896.0186	1575.1176	1570.1	681.05
896.1611	1576.8928	1584.2	698.2
896.3036	1578.6672	1608.05	722.3
896.4461	1580.4409	1620.35	736.85
896.5886	1582.2138	1657.05	770
896.7311	1583.986	1700.1	813.15
896.8736	1585.7575	1734.9	848.75
897.0161	1587.5282	1760.9	875.2
897.1585	1589.2981	1784.4	899.65
897.3009	1591.0673	1800.4	912.75
897.4433	1592.8358	1813.15	927.35
897.5857	1594.6035	1811.65	921.85
897.7281	1596.3704	1811	923.55
897.8705	1598.1366	1797.35	912
898.0128	1599.9021	1769.35	880.65
898.1551	1601.6668	1747.15	856.2
898.2975	1603.4308	1734	846
898.4398	1605.194	1755.1	860.55
898.5821	1606.9564	1767.4	881.5
898.7243	1608.7182	1828.9	941.1
898.8666	1610.4791	1907.15	1022.45
899.0088	1612.2394	1992.65	1108.45
899.1511	1613.9988	2082.6	1197.65
899.2933	1615.7576	2151.1	1266
899.4355	1617.5156	2189.6	1295.15
899.5776	1619.2728	2138.9	1252.45
899.7198	1621.0293	2053.6	1166.45
899.862	1622.785	1937.55	1049.25
900.0041	1624.54	1824.4	935.95
900.1462	1626.2942	1714.45	827.4
900.2883	1628.0477	1621.15	733.25
900.4304	1629.8005	1547.1	657.9
900.5725	1631.5525	1482.95	597.2
900.7145	1633.3037	1437.25	551.05
900.8566	1635.0542	1396.5	510.3
900.9986	1636.804	1375.7	488.15
901.1406	1638.553	1453.1	458.5
901.2826	1640.3013	1329.45	442.15
901.4245	1642.0488	1310.6	423.9
901.5665	1643.7955	1292.45	409.85
901.7085	1645.5416	1280.85	393.25
901.8504	1647.2868	1279.3	396.25
901.9923	1649.0313	1270.2	386.25
902.1342	1650.7751	1263.55	371.9
902.2761	1652.5181	1259.6	374.4
902.4179	1654.2604	1266.4	381.15
902.5598	1656.0019	1263	378.05
902.7016	1657.7427	1279.55	392.2
902.8434	1659.4828	1300.35	413.75
902.9852	1661.222	1330.7	442.7
903.127	1662.9606	1360.75	474.05
903.2687	1664.6984	1388.95	500.75
903.4105	1666.4354	1388.6	499.6
903.5522	1668.1717	1364.85	474.8
903.6939	1669.9072	1328.3	440.55
903.8356	1671.642	1282.7	394.05
903.9773	1673.3761	1244.95	358.1
904.119	1675.1094	1221.8	336.25
904.2606	1676.8419	1204.3	318.75
904.4022	1678.5737	1190.65	302.6
904.5439	1680.3048	1188	301.55
904.6855	1682.0351	1174.8	287.95
904.827	1683.7646	1175.35	286.05
904.9686	1685.4934	1161.65	275.05
905.1101	1687.2215	1163.85	275.95
905.2517	1688.9488	1151.65	265.9
905.3932	1690.6754	1150.3	265.55
905.5347	1692.4012	1147.45	261.6
905.6761	1694.1263	1145.45	258.55
905.8176	1695.8506	1147.85	260.95
905.9591	1697.5742	1142.25	254.2
906.1005	1699.297	1147.05	260.5
906.2419	1701.0191	1139.65	253.6
906.3833	1702.7404	1135.5	252.75
906.5246	1704.461	1137	250.05
906.666	1706.1808	1130.95	244
906.8073	1707.8999	1130.5	243.25
906.9487	1709.6182	1127.7	241.4
907.09	1711.3358	1122.05	236.5
907.2313	1713.0527	1117.75	234.65
907.3725	1714.7688	1123.7	232.4
907.5138	1716.4841	1117.1	230.75
907.655	1718.1987	1127.95	238.05
907.7962	1719.9126	1118.7	236.2
907.9374	1721.6257	1123.2	234.15
908.0786	1723.338	1115.05	231.8
908.2198	1725.0496	1113.55	226.7
908.3609	1726.7605	1115.25	230.8
908.502	1728.4706	1113.95	226.65
908.6431	1730.18	1112.8	225.5
908.7842	1731.8886	1110.85	225.8
908.9253	1733.5964	1126.85	220.35
909.0664	1735.3036	1110.9	223.65
909.2074	1737.0099	1108.05	221.45
909.3484	1738.7156	1105.6	221.1
909.4894	1740.4204	1110.9	225.45
909.6304	1742.1246	1108.5	222.7
909.7714	1743.8279	1105.05	221.2
909.9123	1745.5306	1104.3	220.35
910.0532	1747.2325	1107.45	222.75
910.1941	1748.9336	1102.3	217.7
910.335	1750.634	1102.65	214.8
910.4759	1752.3336	1101.6	219.45
910.6168	1754.0325	1095.25	211.8
910.7576	1755.7307	1101.05	217.2
910.8984	1757.4281	1101.1	216.45
911.0392	1759.1247	1108.3	215.65
911.18	1760.8206	1103.5	213
911.3208	1762.5158	1105.15	214.45
911.4615	1764.2102	1099.75	213.25
911.6022	1765.9039	1098.5	213.5
911.7429	1767.5968	1094.7	211.35
911.8836	1769.289	1095.45	210.95
912.0243	1770.9804	1095.25	209.6
912.1649	1772.6711	1097.2	211.35
912.3056	1774.361	1095.3	205.65
912.4462	1776.0502	1095.05	207.85
912.5868	1777.7386	1098	208.65
912.7274	1779.4263	1091.4	205.95
912.8679	1781.1132	1093.8	209.25
913.0084	1782.7994	1094.35	209.25
913.149	1784.4849	1087.3	203.8
913.2895	1786.1696	1108.4	206.5
913.4299	1787.8535	1091.5	208.9
913.5704	1789.5367	1091.1	208.9
913.7108	1791.2192	1089.8	205
913.8513	1792.9009	1114.35	202
913.9917	1794.5818	1088.4	200.5
914.132	1796.2621	1084.7	198.35
914.2724	1797.9415	1088.15	203.9
914.4128	1799.6202	1084.05	196
914.5531	1801.2982	1079.2	193.3
914.6934	1802.9755	1090.1	202.7
914.8337	1804.6519	1084	198.75
914.9739	1806.3277	1084.6	200.75
915.1142	1808.0027	1078.6	194.05
915.2544	1809.6769	1081.8	198.55
915.3946	1811.3504	1082.7	197.15
915.5348	1813.0231	1077.55	191.45
915.675	1814.6951	1077.6	193.45
915.8151	1816.3664	1083.9	195.65
915.9553	1818.0369	1079.25	195.1
916.0954	1819.7067	1076.7	191.25
916.2355	1821.3757	1078.1	191.1
916.3755	1823.044	1077.4	192.65
916.5156	1824.7115	1075.05	188.15
916.6556	1826.3783	1072.3	188.55
916.7956	1828.0443	1078.1	192.65
916.9356	1829.7096	1077.9	190.65
917.0756	1831.3741	1076.85	189.2
917.2155	1833.0379	1073.05	189.1
917.3555	1834.701	1074.2	188.2
917.4954	1836.3633	1072.9	189.35
917.6353	1838.0248	1075.05	188.05
917.7751	1839.6856	1073.65	190.45
917.915	1841.3457	1067.15	184.05
918.0548	1843.005	1068.3	184.2
918.1946	1844.6636	1068.4	184.4
918.3344	1846.3214	1073.9	190.25
918.4742	1847.9785	1069.7	185.7
918.6139	1849.6349	1068.65	179.55
918.7537	1851.2904	1078.8	183.1
918.8934	1852.9453	1071	183.8
919.0331	1854.5994	1072.35	186.2
919.1727	1856.2528	1075.25	184.65
919.3124	1857.9054	1068.6	183.45
919.452	1859.5572	1069.45	186.15
919.5916	1861.2083	1069.9	183.6
919.7312	1862.8587	1065.15	178.15
919.8708	1864.5084	1063.4	178.1
920.0103	1866.1572	1065.8	181.5
920.1498	1867.8054	1065.65	177.7
920.2893	1869.4528	1066.4	182.65
920.4288	1871.0994	1060.65	175.9
920.5683	1872.7453	1063.65	176.5
920.7077	1874.3905	1067.75	175.95
920.8471	1876.0349	1066.25	178.3
920.9865	1877.6786	1065.7	177.65
921.1259	1879.3215	1061.8	175.8
921.2653	1880.9637	1058.85	173.5
921.4046	1882.6051	1053.35	168.5
921.5439	1884.2458	1061.8	175.65
921.6832	1885.8858	1058.3	174.85
921.8225	1887.525	1062.05	174.45
921.9617	1889.1634	1055.5	170.2
922.101	1890.8011	1055.35	169.4
922.2402	1892.4381	1056	172.1
922.3794	1894.0743	1057.4	172.75
922.5185	1895.7098	1052.55	166.8
922.6577	1897.3446	1058	171.15
922.7968	1898.9786	1059.4	169.75
922.9359	1900.6118	1054.55	170.2
923.075	1902.2443	1056.8	172.2
923.214	1903.8761	1049.35	163.5
923.3531	1905.5071	1052.5	167.2
923.4921	1907.1374	1054.1	167.3
923.6311	1908.7669	1052.75	168.4
923.77	1910.3957	1048.4	162.8
923.909	1912.0237	1051.05	165.5
924.0479	1913.651	1050.65	163.9
924.1868	1915.2776	1045.75	161.3
924.3257	1916.9034	1048	165.25
924.4646	1918.5285	1051.3	168.1
924.6034	1920.1528	1050.5	164.2
924.7422	1921.7764	1047.45	162.3
924.881	1923.3992	1049.5	165.05
925.0198	1925.0213	1045.4	158.4
925.1586	1926.6427	1041.4	156.35
925.2973	1928.2633	1257.75	159
925.436	1929.8832	1049.85	160.55
925.5747	1931.5023	1042.55	160.5
925.7134	1933.1207	1045.45	159.1
925.852	1934.7383	1040.2	155.35
925.9906	1936.3552	1041.75	158
926.1292	1937.9714	1043.75	159.5
926.2678	1939.5868	1043.1	155.95
926.4064	1941.2015	1039	154.35
926.5449	1942.8154	1038.9	152.7
926.6834	1944.4286	1041	156.15
926.8219	1946.041	1060.65	150.75
926.9604	1947.6528	1045.4	154.85
927.0988	1949.2637	1036.75	151.55
927.2372	1950.8739	1038.3	153.3
927.3756	1952.4834	1042.2	156.6
927.514	1954.0921	1039	154.6
927.6523	1955.7001	1044.45	156.1
927.7907	1957.3074	1033.9	151.65
927.929	1958.9139	1035.35	151.25
928.0673	1960.5197	1034.65	150.2
928.2055	1962.1247	1035.35	151.55
928.3438	1963.729	1033.65	150.5
928.482	1965.3325	1037.75	149.55
928.6202	1966.9353	1032.3	150.15
928.7584	1968.5374	1028.7	144.7
928.8965	1970.1387	1032.45	149.45
929.0346	1971.7393	1032.7	148.1
929.1727	1973.3392	1025.3	139.35
929.3108	1974.9383	1028.4	146.7
929.4489	1976.5366	1033.5	151.75
929.5869	1978.1342	1029.55	146.15
929.7249	1979.7311	1032.7	149.9
929.8629	1981.3273	1029.1	146
930.0009	1982.9227	1032.75	149.2
930.1388	1984.5173	1025.2	145.15
930.2767	1986.1112	1031.75	149.85
930.4146	1987.7044	1024.8	145.4
930.5525	1989.2968	1026.3	142.7
930.6904	1990.8885	1031.45	144.95
930.8282	1992.4795	1028.35	144.5
930.966	1994.0697	1026.85	144.8
931.1038	1995.6592	1025.05	142.65
931.2415	1997.2479	1025.3	144.75
931.3793	1998.8359	1020.95	138
931.517	2000.4232	1019.7	140.25
931.6547	2002.0097	1017.05	137.9
931.7923	2003.5955	1019.1	138.7
931.93	2005.1805	1021.9	140.3
932.0676	2006.7648	1020.1	140.4
932.2052	2008.3484	1018.4	136.2
932.3427	2009.9312	1020.05	138.95
932.4803	2011.5133	1016.95	138.6
932.6178	2013.0946	1023.2	144.05
932.7553	2014.6752	1020.85	141.65
932.8928	2016.2551	1022.55	142.05
933.0302	2017.8342	1018.9	138.05
933.1676	2019.4126	1015.8	138.45
933.305	2020.9902	1017.05	138.35
933.4424	2022.5672	1017.45	137.75
933.5798	2024.1433	1023.35	138.3
933.7171	2025.7188	1013.65	135.05
933.8544	2027.2935	1019.95	139.35
933.9917	2028.8674	1021.45	143.1
934.129	2030.4406	1015.9	135.75
934.2662	2032.0131	1012.6	135.9
934.4034	2033.5849	1019.15	135.2
934.5406	2035.1559	1014.05	136.9
934.6778	2036.7261	1011.05	132.7
934.8149	2038.2957	1018	137.45
934.952	2039.8645	1014.4	133.75
935.0891	2041.4325	1018.15	134.85
935.2262	2042.9998	1015.6	134.55
935.3632	2044.5664	1016.85	136.8
935.5002	2046.1323	1015.25	139.5
935.6372	2047.6974	1014.95	138.55
935.7742	2049.2617	1016.55	137.75
935.9111	2050.8254	1037.2	133
936.048	2052.3883	1018.95	137.3
936.1849	2053.9504	1016	135
936.3218	2055.5118	1013.8	133.85
936.4586	2057.0725	1017	133.15
936.5955	2058.6325	1009.85	129.4
936.7323	2060.1917	1014.25	133.6
936.869	2061.7502	1017.35	135.65
937.0058	2063.3079	1010.95	131.55
937.1425	2064.8649	1016.25	134.45
937.2792	2066.4212	1012.15	130.85
937.4159	2067.9767	1015.4	134.55
937.5525	2069.5315	1015.05	135.95
937.6891	2071.0856	1012.95	133.65
937.8257	2072.6389	1013.5	133.1
937.9623	2074.1915	1011.1	134.15
938.0989	2075.7433	1014.25	133.5
938.2354	2077.2945	1011.25	133.1
938.3719	2078.8448	1010.05	128.3
938.5084	2080.3945	1008.25	127.8
938.6448	2081.9434	1012.85	133.2
938.7812	2083.4916	1008.5	125.9
938.9176	2085.039	1014.2	132
939.054	2086.5857	1014.95	131.6
939.1903	2088.1317	1015.3	133.65
939.3267	2089.677	1015.95	132.25
939.463	2091.2215	1013.65	132.15
939.5992	2092.7652	1013.55	129.55
939.7355	2094.3083	1016.45	132.85
939.8717	2095.8506	1010.35	131.45
940.0079	2097.3921	1009.6	129.05
940.1441	2098.933	1010.2	130.9
940.2802	2100.4731	1014.25	130.6
940.4163	2102.0124	1022.25	123.3
940.5524	2103.5511	1009.6	128.15
940.6885	2105.089	1011.25	128.2
940.8245	2106.6261	1008.15	126.8
940.9606	2108.1626	1010	127.4
941.0965	2109.6983	1036.2	127
941.2325	2111.2332	1012.35	130.7
941.3684	2112.7675	1013.2	129.5
941.5044	2114.301	1012.3	129.25
941.6403	2115.8337	1008.25	128.5
941.7761	2117.3657	1007.5	127.35
941.912	2118.897	1008.7	126.35
942.0478	2120.4276	1012.95	125.3
942.1835	2121.9575	1009.6	127.7
942.3193	2123.4866	1022.15	125.2
942.455	2125.0149	1011.45	126.85
942.5907	2126.5426	1008.4	129.05
942.7264	2128.0695	1011	126.85
942.8621	2129.5956	1001.75	123.4
942.9977	2131.1211	1010.75	125.75
943.1333	2132.6458	1004.7	124.35
943.2689	2134.1698	1008.65	127.4
943.4044	2135.693	1008.8	124.55
943.54	2137.2155	1008.75	127.6
943.6755	2138.7373	1004.6	124.3
943.8109	2140.2584	1005.55	125.75
943.9464	2141.7787	1010.1	126.95
944.0818	2143.2983	1003.6	125.05
944.2172	2144.8171	1003.45	126.7
944.3526	2146.3353	1006.95	123.9
944.4879	2147.8527	1002.15	122.7
944.6232	2149.3693	1008.1	129.3
944.7585	2150.8853	1006.15	124.4
944.8938	2152.4005	1004.4	123.2
945.029	2153.9149	1003.3	124
945.1642	2155.4287	1002.85	122.45
945.2994	2156.9417	1005.05	123.9
945.4346	2158.454	1007.4	124.75
945.5697	2159.9655	1004.1	122.95
945.7048	2161.4764	1002.75	122
945.8399	2162.9865	1004.8	124.35
945.9749	2164.4958	1004.45	125.6
946.1099	2166.0045	1004.65	121.55
946.2449	2167.5124	999.55	120.95
946.3799	2169.0195	1002.3	121.45
946.5148	2170.526	1000.75	119.85
946.6498	2172.0317	999.55	117.65
946.7846	2173.5367	1001.35	121.95
946.9195	2175.0409	1001.4	122.5
947.0543	2176.5445	1004.6	122.25
947.1891	2178.0473	1001.25	120
947.3239	2179.5494	1001.7	118.05
947.4587	2181.0507	999	118.3
947.5934	2182.5513	1000.9	119.4
947.7281	2184.0512	1000.8	119.15
947.8628	2185.5504	1001.85	120.05
947.9974	2187.0488	996.8	118.4
948.132	2188.5465	999.1	119
948.2666	2190.0435	1000.3	119.25
948.4012	2191.5397	999.9	117.75
948.5357	2193.0353	996.8	116.25
948.6702	2194.5301	1002.5	121.6
948.8047	2196.0241	1003.15	120.5
948.9392	2197.5175	1005.5	122.3
949.0736	2199.0101	1001.95	118.3
949.208	2200.502	996.15	117
949.3424	2201.9931	999.45	118.6
949.4767	2203.4835	993.6	112.7
949.611	2204.9733	1011.4	117.85
949.7453	2206.4622	996.3	117.35
949.8796	2207.9505	997.35	114.4
950.0138	2209.438	997.7	118.75
950.148	2210.9248	995.75	114.9
950.2822	2212.4109	996.25	115.75
950.4164	2213.8962	1000.35	117.05
950.5505	2215.3809	997.35	112.5
950.6846	2216.8648	996.9	113.15
950.8186	2218.3479	999.45	110.75
950.9527	2219.8304	997.7	113.3
951.0867	2221.3121	994.45	110.25
951.2207	2222.7931	996.75	116.85
951.3546	2224.2733	993	111.4
951.4886	2225.7529	993.15	111.2
951.6225	2227.2317	993.85	109.5
951.7563	2228.7098	993.95	113.25
951.8902	2230.1872	988.9	110.75
952.024	2231.6638	989.75	111.1
952.1578	2233.1397	999.1	114.15
952.2916	2234.6149	989.35	110
952.4253	2236.0894	988.2	106.8
952.559	2237.5632	1000	109.55
952.6927	2239.0362	990.55	109.35
952.8263	2240.5085	988.9	109.1
952.9599	2241.9801	987.9	105.95
953.0935	2243.4509	987.65	106.95
953.2271	2244.921	991.2	107.8
953.3606	2246.3904	992.65	107.2
953.4941	2247.8591	990.45	110.8
953.6276	2249.3271	988.1	107.75
953.7611	2250.7943	991.05	109.25
953.8945	2252.2608	985.3	103.65
954.0279	2253.7266	988.75	108.35
954.1612	2255.1917	983.1	102.9
954.2946	2256.656	986.95	105.5
954.4279	2258.1197	988.25	108.35
954.5612	2259.5826	989	104.7
954.6944	2261.0447	984.5	103.15
954.8276	2262.5062	986.2	104.85
954.9608	2263.9669	987.95	104.05
955.094	2265.4269	987.15	108.55
955.2271	2266.8862	987	104.65
955.3602	2268.3448	983.85	103.45
955.4933	2269.8026	981.55	99.35
955.6264	2271.2598	979.75	102.5
955.7594	2272.7162	984.45	104.6
955.8924	2274.1719	983.05	101.55
956.0253	2275.6268	980.8	100
956.1583	2277.0811	983.95	102.45
956.2912	2278.5346	979.15	99.7
956.4241	2279.9874	982.65	102.45
956.5569	2281.4395	981.4	103.55
956.6897	2282.8908	985.35	97.9
956.8225	2284.3414	984.15	103.8
956.9553	2285.7914	984.55	104
957.088	2287.2406	982.75	99
957.2207	2288.689	981.35	100.8
957.3534	2290.1368	982.8	101.55
957.486	2291.5838	983.95	100.3
957.6186	2293.0302	982.85	99.15
957.7512	2294.4758	983	103.7
957.8838	2295.9206	982.25	99.6
958.0163	2297.3648	981.1	101.1
958.1488	2298.8082	981	101.55
958.2813	2300.251	982.25	100.05
958.4137	2301.693	984.8	99.5
958.5461	2303.1343	983.5	102.2
958.6785	2304.5748	980.95	100.2
958.8108	2306.0147	980.85	100.55
958.9432	2307.4538	982.1	99.95
959.0754	2308.8922	977	98.7
959.2077	2310.3299	980.1	100.45
959.3399	2311.7669	974.1	95.65
959.4721	2313.2031	977.25	95.95
959.6043	2314.6387	978.6	96.7
959.7365	2316.0735	978.7	97.35
959.8686	2317.5076	981	100.55
960.0006	2318.941	978.7	96.05
960.1327	2320.3737	980.95	97.85
960.2647	2321.8056	980.95	96.9
960.3967	2323.2369	978	96.9
960.5287	2324.6674	982.65	99.1
960.6606	2326.0972	981.1	97.95
960.7925	2327.5263	984.4	103.85
960.9244	2328.9547	993.35	110.95
961.0562	2330.3823	985.75	103.35
961.1881	2331.8092	986	100.55
961.3198	2333.2355	979.4	96.85
961.4516	2334.661	978.4	95.55
961.5833	2336.0858	976.3	93.4
961.715	2337.5098	972.8	89.4
961.8467	2338.9332	973.65	91.85
961.9783	2340.3558	980.4	97.75
962.1099	2341.7778	974.25	92.8
962.2415	2343.199	972.7	92.15
962.373	2344.6195	972.4	92.95
962.5045	2346.0393	972.4	92.65
962.636	2347.4583	976.25	94.95
962.7675	2348.8767	973.1	90.85
962.8989	2350.2943	974	90.4
963.0303	2351.7113	973.95	89.15
963.1617	2353.1275	973.9	91.2
963.293	2354.543	995.2	87.6
963.4243	2355.9578	972.85	90.85
963.5556	2357.3718	973.35	91.95
963.6868	2358.7852	973.2	90.5
963.818	2360.1978	973.2	90.25
963.9492	2361.6098	971.4	93.4
964.0803	2363.021	973.75	87.85
964.2114	2364.4315	973.1	93.3
964.3425	2365.8413	977.15	88.95
964.4736	2367.2504	968.1	88.45
964.6046	2368.6587	969	85.1
964.7356	2370.0664	972.5	89.4
964.8666	2371.4733	974.25	91.95
964.9975	2372.8795	972.2	90.35
965.1284	2374.285	969.9	87.05
965.2593	2375.6899	971.4	90.2
965.3901	2377.0939	970.65	88.1
965.5209	2378.4973	968.5	86
965.6517	2379.9	971.35	89.5
965.7825	2381.3019	970.95	86.45
965.9132	2382.7032	970.35	87.1
966.0439	2384.1037	964.8	85.85
966.1745	2385.5035	966.35	85.65
966.3051	2386.9027	968.75	89.5
966.4357	2388.3011	971.85	87.35
966.5663	2389.6987	966.7	85.35
966.6968	2391.0957	967.2	83.6
966.8273	2392.492	965.05	83.15
966.9578	2393.8876	965.6	82.15
967.0882	2395.2824	964.1	83.5
967.2186	2396.6765	965.35	83
967.349	2398.07	961.45	80.3
967.4793	2399.4627	964.95	80.9
967.6097	2400.8547	967.45	84.6
967.7399	2402.246	970.75	82.55
967.8702	2403.6366	967.85	84.6
968.0004	2405.0265	961.95	78.9
968.1306	2406.4156	967.75	80.45
968.2607	2407.8041	969.05	83
968.3909	2409.1918	968.65	84.95
968.521	2410.5789	962.65	76.75
968.651	2411.9652	968.65	82.4
968.781	2413.3508	963.2	79.2
968.911	2414.7358	964.15	80.75
969.041	2416.12	958.65	75.4
969.1709	2417.5035	961.35	77.5
969.3008	2418.8863	962.4	77.55
969.4307	2420.2684	961.1	78.4
969.5606	2421.6497	963.3	77.75
969.6904	2423.0304	959.3	77
969.8201	2424.4104	962.65	78.4
969.9499	2425.7896	967.25	78.85
970.0796	2427.1682	963.95	80.05
970.2093	2428.546	959.35	74.5
970.3389	2429.9232	964.35	79.85
970.4685	2431.2996	955.7	70.7
970.5981	2432.6753	963.6	80.9
970.7277	2434.0503	957.45	75.3
970.8572	2435.4246	958.95	76.35
970.9867	2436.7982	961.55	76.9
971.1161	2438.1711	958	74.9
971.2456	2439.5433	960.6	74.55
971.375	2440.9148	961.25	77.55
971.5043	2442.2856	958.3	76.95
971.6336	2443.6557	961.4	77.7
971.7629	2445.025	957.45	76.7
971.8922	2446.3937	959.4	75.75
972.0214	2447.7617	953.2	68.7
972.1506	2449.1289	958.05	75.25
972.2798	2450.4955	964.05	76.9
972.4089	2451.8613	956.35	73.65
972.538	2453.2265	956.75	72.55
972.6671	2454.5909	957.2	73.55
972.7961	2455.9546	957	74.85
972.9251	2457.3177	956.3	72.75
973.0541	2458.68	957.65	74.15
973.1831	2460.0416	955.8	72.55
973.312	2461.4025	957	73.75
973.4408	2462.7627	963.5	70.45
973.5697	2464.1222	955.9	75.75
973.6985	2465.4811	954.75	72.2
973.8273	2466.8392	954	71.8
973.956	2468.1966	957.2	74.35
974.0847	2469.5533	955.35	72.35
974.2134	2470.9093	958.25	75.15
974.3421	2472.2645	955.3	70.25
974.4707	2473.6191	952.05	70.25
974.5993	2474.973	952.65	70.25
974.7278	2476.3262	953.35	68.8
974.8563	2477.6787	954.25	74
974.9848	2479.0305	954.9	71.85
975.1132	2480.3816	949.25	66.4
975.2417	2481.7319	953.8	71.7
975.37	2483.0816	954.3	70.75
975.4984	2484.4306	956.25	74.75
975.6267	2485.7789	952.35	71.45
975.755	2487.1264	955.1	70.05
975.8833	2488.4733	951.45	68.35
976.0115	2489.8195	959.25	71.1
976.1397	2491.165	956.45	71.95
976.2678	2492.5097	953.05	69.55
976.3959	2493.8538	949.6	71.25
976.524	2495.1972	952.15	69.5
976.6521	2496.5398	955.85	72.4
976.7801	2497.8818	953.8	69
976.9081	2499.2231	954.9	73.05
977.036	2500.5637	954.5	68.15
977.164	2501.9035	951.8	66.35
977.2918	2503.2427	956.25	72
977.4197	2504.5812	949.25	67.05
977.5475	2505.919	953	68.4
977.6753	2507.256	954.35	72.45
977.8031	2508.5924	949.4	67.2
977.9308	2509.9281	953.5	64.9
978.0585	2511.2631	949.85	69.3
978.1861	2512.5974	946.85	66.55
978.3137	2513.9309	946.3	64.15
978.4413	2515.2638	976.75	69.3
978.5689	2516.596	947.95	65.95
978.6964	2517.9275	950.3	65.45
978.8239	2519.2583	948.35	66.2
978.9513	2520.5884	951.2	67.1
979.0788	2521.9178	948.45	65.7
979.2062	2523.2465	949.05	67.45
979.3335	2524.5745	946.5	64.2
979.4608	2525.9018	949	67.05
979.5881	2527.2284	946.05	65.85
979.7154	2528.5543	946.9	66.2
979.8426	2529.8796	948.5	67.3
979.9698	2531.2041	950.15	67.25
980.0969	2532.5279	946.3	64.2
980.224	2533.851	947	64.85
980.3511	2535.1735	947.05	66.1
980.4781	2536.4952	944.7	62.5
980.6052	2537.8163	946.25	65.65
980.7321	2539.1366	941.75	60.8
980.8591	2540.4562	946.7	62.3
980.986	2541.7752	947.45	63.6
981.1129	2543.0935	945	62.3
981.2397	2544.411	945.8	63.3
981.3665	2545.7279	945.4	63.9
981.4933	2547.0441	943.75	63.7
981.62	2548.3596	948.15	61.75
981.7467	2549.6744	943.3	61.15
981.8734	2550.9885	948.95	58.1
982.0001	2552.3019	946.35	63.9
982.1267	2553.6146	943.25	61.9
982.2532	2554.9266	944.3	60.6
982.3798	2556.2379	946.85	62.75
982.5063	2557.5485	943.3	65.15
982.6327	2558.8585	949.75	58.35
982.7592	2560.1677	950	65.4
982.8856	2561.4762	942.85	61.05
983.0119	2562.7841	947.35	62.55
983.1383	2564.0913	943.3	63.3
983.2646	2565.3977	936.95	53.75
983.3908	2566.7035	943.95	63.35
983.517	2568.0086	943.35	59.65
983.6432	2569.313	943.95	60.95
983.7694	2570.6167	946.75	59.4
983.8955	2571.9197	942.5	60.35
984.0216	2573.222	947.25	61.35
984.1476	2574.5236	941.75	57
984.2737	2575.8246	943.9	59
984.3996	2577.1248	947.95	62.55
984.5256	2578.4244	939.5	57.45
984.6515	2579.7232	941.6	59.7
984.7774	2581.0214	967.75	60.6
984.9032	2582.3189	941.6	60.3
985.029	2583.6157	947.9	61.5
985.1548	2584.9118	944.6	61.45
985.2806	2586.2072	941.15	59.35
985.4063	2587.5019	940.85	61.35
985.5319	2588.7959	942.65	57.2
985.6576	2590.0893	944.4	60
985.7832	2591.3819	940.3	58.95
985.9087	2592.6739	942	61.6
986.0343	2593.9652	943.4	61.05
986.1597	2595.2557	944.05	61.75
986.2852	2596.5456	943.45	59.75
986.4106	2597.8348	941.85	59.95
986.536	2599.1234	939.4	56.9
986.6614	2600.4112	943.85	60.9
986.7867	2601.6983	950.45	63.7
986.912	2602.9848	944.75	63.25
987.0372	2604.2705	950.3	61.4
987.1624	2605.5556	943	60.65
987.2876	2606.84	939.9	58.45
987.4128	2608.1237	943.3	59.35
987.5379	2609.4067	942.8	59.55
987.6629	2610.689	950.15	57.95
987.788	2611.9707	944.35	59.7
987.913	2613.2516	946.65	60.1
988.0379	2614.5319	940.3	57.95
988.1629	2615.8115	943	59.25
988.2878	2617.0903	939.95	54.75
988.4126	2618.3685	937.9	57.35
988.5375	2619.6461	940.5	57.05
988.6622	2620.9229	939	57.15
988.787	2622.199	942.35	59.35
988.9117	2623.4745	938.75	55.25
989.0364	2624.7493	937.3	56.9
989.161	2626.0234	934.1	52.85
989.2857	2627.2968	935.45	53.6
989.4102	2628.5695	936.4	54.4
989.5348	2629.8415	936.75	56.35
989.6593	2631.1128	938.85	53.25
989.7837	2632.3835	937.4	56
989.9082	2633.6535	936.9	54.65
990.0326	2634.9228	936.65	56.35
990.1569	2636.1914	931.5	49.35
990.2812	2637.4593	940	51.65
990.4055	2638.7265	936	52.55
990.5298	2639.9931	934.6	54.45
990.654	2641.259	936.65	54.6
990.7782	2642.5242	933.2	50.85
990.9023	2643.7887	935.95	54.35
991.0264	2645.0525	934.45	56.05
991.1505	2646.3156	932.85	49.45
991.2745	2647.5781	934.35	53.5
991.3985	2648.8398	931.95	49.6
991.5225	2650.1009	942.75	52.35
991.6464	2651.3613	931.8	48.95
991.7703	2652.6211	933.6	52.85
991.8942	2653.8801	930.5	49.95
992.018	2655.1385	936.95	53.5
992.1418	2656.3961	932.25	51.4
992.2655	2657.6531	933.7	53.25
992.3892	2658.9094	933.35	52.8
992.5129	2660.1651	930.6	50.85
992.6366	2661.42	932.25	51.25
992.7602	2662.6743	934.05	52
992.8837	2663.9279	930.05	49.7
993.0073	2665.1808	931.75	50.55
993.1307	2666.433	933.15	49.55
993.2542	2667.6846	933	52.15
993.3776	2668.9354	937.25	52.45
993.501	2670.1856	933.2	51.8
993.6244	2671.4351	932.45	50.9
993.7477	2672.6839	936.05	53.6
993.8709	2673.9321	934.55	54.05
993.9942	2675.1795	933.55	51.5
994.1174	2676.4263	932.6	51.25
994.2405	2677.6724	932.5	51.9
994.3637	2678.9179	935.5	52.35
994.4868	2680.1626	933.2	53.85
994.6098	2681.4067	936.95	56.3
994.7328	2682.6501	934.55	53.55
994.8558	2683.8928	932.3	52.15
994.9788	2685.1348	930.7	47.9
995.1017	2686.3761	931.9	51.1
995.2245	2687.6168	930.7	51.55
995.3474	2688.8568	930.6	51.45
995.4702	2690.0961	932.05	51.9
995.5929	2691.3348	928.95	47.25
995.7156	2692.5727	927.85	48.1
995.8383	2693.81	930.45	48.8
995.961	2695.0466	931.75	52.9
996.0836	2696.2826	934	50.1
996.2062	2697.5178	933.4	49.4
996.3287	2698.7524	927.2	45.75
996.4512	2699.9863	929.9	48
996.5737	2701.2195	930.2	50.05
996.6961	2702.452	933.6	52.65
996.8185	2703.6839	930.85	49.25
996.9408	2704.9151	930.05	51
997.0631	2706.1456	933.8	52.5
997.1854	2707.3755	932.6	50.55
997.3077	2708.6046	933.2	50.55
997.4299	2709.8331	931.2	49.35
997.552	2711.0609	929.9	49.15
997.6742	2712.2881	932.7	51.85
997.7963	2713.5145	934	51.15
997.9183	2714.7403	931.65	52
998.0403	2715.9654	935.65	52.65
998.1623	2717.1899	950.75	53.8
998.2842	2718.4136	937.9	59
998.4062	2719.6367	938.15	57.5
998.528	2720.8591	944.85	58.7
998.6498	2722.0809	939.2	59.7
998.7716	2723.3019	941.8	58.15
998.8934	2724.5223	940.5	58.55
999.0151	2725.7421	941.9	60.4
999.1368	2726.9611	939.8	56.55
999.2584	2728.1795	942.35	56.9
999.38	2729.3972	937.1	54.3
999.5016	2730.6142	942.6	54.7
999.6231	2731.8306	936.4	54.9
999.7446	2733.0462	937.5	57.05
999.8661	2734.2612	937.8	51.5
999.9875	2735.4756	930.55	50.2
1000.1089	2736.6892	930.65	49.6
1000.2302	2737.9022	928.55	47.4
1000.3515	2739.1145	927.9	48.45
1000.4728	2740.3262	936.45	49.45
1000.594	2741.5372	927.75	49.05
1000.7152	2742.7475	927.65	47.1
1000.8363	2743.9571	931.4	49.25
1000.9575	2745.1661	931.4	46.2
1001.0785	2746.3744	927.8	46.25
1001.1996	2747.582	923.2	42.75
1001.3206	2748.7889	924.05	41.95
1001.4415	2749.9952	921.85	41.55
1001.5625	2751.2008	923.75	41.4
1001.6833	2752.4057	925.3	42.15
1001.8042	2753.61	923.4	43.4
1001.925	2754.8136	925.05	41.4
1002.0458	2756.0165	924.6	44.9
1002.1665	2757.2188	919.55	40.1
1002.2872	2758.4204	922.2	40.7
1002.4078	2759.6213	925.8	43.5
1002.5285	2760.8215	926.75	40.6
1002.649	2762.0211	925.85	43.1
1002.7696	2763.22	924.4	39.05
1002.8901	2764.4182	921.35	40.5
1003.0106	2765.6158	923.25	42
1003.131	2766.8127	919.45	38.1
1003.2514	2768.009	922.25	42.75
1003.3717	2769.2045	920.3	38.25
1003.492	2770.3994	923.4	40.4
1003.6123	2771.5936	920.55	40.15
1003.7325	2772.7872	917.95	38.2
1003.8527	2773.9801	922.05	37.75
1003.9729	2775.1723	936.25	41.25
1004.093	2776.3639	916.65	36.4
1004.2131	2777.5548	921.6	36.6
1004.3331	2778.745	917.95	36.55
1004.4531	2779.9346	917.55	39.1
1004.5731	2781.1235	919.5	37.2
1004.693	2782.3117	917.75	37.5
1004.8129	2783.4992	915.15	35.9
1004.9328	2784.6861	918.6	38.2
1005.0526	2785.8723	922.35	42.05
1005.1723	2787.0579	922.15	41.3
1005.2921	2788.2428	918.35	37.55
1005.4118	2789.427	916.1	35.65
1005.5314	2790.6106	919.45	39.05
1005.651	2791.7935	921.85	40.55
1005.7706	2792.9757	916.6	39
1005.8902	2794.1573	921	37.1
1006.0097	2795.3382	921.4	42.35
1006.1291	2796.5184	916.9	36.65
1006.2485	2797.698	921.9	39.8
1006.3679	2798.8769	918.75	39.1
1006.4873	2800.0551	921	40.65
1006.6066	2801.2327	922.15	42.1
1006.7258	2802.4096	922	42
1006.8451	2803.5859	923.3	42
1006.9642	2804.7615	922.45	42.1
1007.0834	2805.9364	921.5	42.5
1007.2025	2807.1106	921.5	41.8
1007.3216	2808.2842	925.4	45.7
1007.4406	2809.4572	926.05	46.5
1007.5596	2810.6294	930.15	50.65
1007.6785	2811.801	927.4	49.7
1007.7975	2812.972	926.45	48.2
1007.9163	2814.1423	929.65	49.45
1008.0352	2815.3119	935.2	56.1
1008.154	2816.4808	933.85	56.5
1008.2727	2817.6491	937.75	55.6
1008.3914	2818.8167	941	61.6
1008.5101	2819.9837	946.95	62.3
1008.6288	2821.15	950.45	68.1
1008.7474	2822.3157	955.05	78.1
1008.8659	2823.4807	960.55	79.65
1008.9844	2824.645	968.3	87.05
1009.1029	2825.8086	974	92.65
1009.2214	2826.9716	985.2	106.65
1009.3398	2828.134	991.55	112.85
1009.4581	2829.2957	996.55	116.2
1009.5764	2830.4567	1003.05	127.2
1009.6947	2831.617	1009.9	129.35
1009.813	2832.7767	1008.9	129.85
1009.9312	2833.9358	1008.05	128.5
1010.0493	2835.0941	1010.95	128.2
1010.1675	2836.2519	1001.9	122.6
1010.2855	2837.4089	1000.95	121.3
1010.4036	2838.5653	997.95	117.9
1010.5216	2839.7211	993.5	115.15
1010.6396	2840.8761	994.65	114.3
1010.7575	2842.0306	990.3	112.55
1010.8754	2843.1843	987.65	107.85
1010.9932	2844.3374	993.55	114.3
1011.111	2845.4899	993.6	114.1
1011.2288	2846.6417	995.6	115.45
1011.3465	2847.7928	997.1	116.65
1011.4642	2848.9433	998.7	118.45
1011.5818	2850.0931	1000.3	120.8
1011.6995	2851.2422	1003.35	120.75
1011.817	2852.3907	1002.75	120.45
1011.9345	2853.5385	1002.1	119.75
1012.052	2854.6857	1035.1	128
1012.1695	2855.8323	1005	125.9
1012.2869	2856.9781	1011.4	131.1
1012.4042	2858.1233	1011.1	132.25
1012.5216	2859.2679	1018.1	139.8
1012.6389	2860.4118	1017.3	139.85
1012.7561	2861.555	1024.6	139.2
1012.8733	2862.6976	1028.1	144.4
1012.9905	2863.8395	1027.5	147.9
1013.1076	2864.9808	1028.8	148.6
1013.2247	2866.1214	1028.25	148.55
1013.3417	2867.2614	1029.95	149.9
1013.4587	2868.4007	1029.45	147.35
1013.5757	2869.5393	1031.75	151.65
1013.6926	2870.6773	1039.45	157.15
1013.8095	2871.8146	1041.7	158.25
1013.9263	2872.9513	1040.8	159.8
1014.0431	2874.0874	1040.8	163.55
1014.1599	2875.2227	1037.9	157.45
1014.2766	2876.3574	1042.8	162.95
1014.3933	2877.4915	1047.85	169.45
1014.51	2878.6249	1048.6	168.2
1014.6266	2879.7577	1049.65	170.65
1014.7431	2880.8898	1061	173.45
1014.8596	2882.0212	1054.3	176.35
1014.9761	2883.152	1055.5	175.2
1015.0925	2884.2821	1057.6	178.85
1015.2089	2885.4116	1063.4	183.35
1015.3253	2886.5405	1057.9	179.35
1015.4416	2887.6686	1071.2	187.55
1015.5579	2888.7962	1060.75	182.95
1015.6741	2889.923	1061.2	181.05
1015.7903	2891.0493	1060.45	182.65
1015.9065	2892.1748	1062.5	182.4
1016.0226	2893.2997	1058.5	175.85
1016.1387	2894.424	1064.55	187.55
1016.2547	2895.5476	1061.8	180.45
1016.3707	2896.6706	1062.75	185.3
1016.4866	2897.7929	1062.65	182.7
1016.6025	2898.9145	1063.3	183.55
1016.7184	2900.0355	1061.75	181.8
1016.8342	2901.1559	1062.4	184.1
1016.95	2902.2756	1064.55	179.85
1017.0658	2903.3946	1061.05	182.45
1017.1815	2904.513	1062.45	178.2
1017.2971	2905.6308	1060.15	180.55
1017.4127	2906.7479	1058.5	178.25
1017.5283	2907.8643	1060.4	181.5
1017.6439	2908.9801	1062.65	183.7
1017.7594	2910.0953	1059.75	181.3
1017.8748	2911.2098	1063.15	181.5
1017.9902	2912.3236	1062.5	177.7
1018.1056	2913.4368	1062.75	183.1
1018.2209	2914.5494	1056.2	176.6
1018.3362	2915.6613	1060.95	176.55
1018.4515	2916.7725	1053.95	172.75
1018.5667	2917.8831	1055.75	175.35
1018.6819	2918.9931	1048.5	166
1018.797	2920.1024	1047.75	169.2
1018.9121	2921.211	1042.75	163.5
1019.0271	2922.319	1043.4	164.25
1019.1421	2923.4264	1041.35	163.95
1019.2571	2924.5331	1040.9	161.4
1019.372	2925.6391	1041.35	163.3
1019.4869	2926.7445	1035	158.75
1019.6017	2927.8493	1040	161.45
1019.7165	2928.9534	1042.05	162.35
1019.8313	2930.0569	1045.6	161.75
1019.946	2931.1597	1042.4	162.25
1020.0606	2932.2619	1046	167.3
1020.1753	2933.3634	1049.65	171.2
1020.2899	2934.4643	1053.3	166.8
1020.4044	2935.5645	1053.65	169.5
1020.5189	2936.6641	1052.55	167.75
1020.6334	2937.763	1049	172.6
1020.7478	2938.8613	1044.75	166.05
1020.8622	2939.959	1051.6	167.75
1020.9765	2941.056	1039.85	162.35
1021.0908	2942.1523	1034.7	155.3
1021.2051	2943.248	1033.7	154.8
1021.3193	2944.3431	1022.4	145.25
1021.4334	2945.4375	1015.3	136
1021.5476	2946.5313	1003.55	125.6
1021.6617	2947.6244	996.2	117.4
1021.7757	2948.7169	997.9	118.5
1021.8897	2949.8087	988	110.35
1022.0037	2950.8999	980.4	100.8
1022.1176	2951.9904	974.5	95.45
1022.2315	2953.0803	969.9	90.3
1022.3453	2954.1696	967.7	88.1
1022.4591	2955.2582	965.1	89.2
1022.5728	2956.3462	965.8	85.2
1022.6865	2957.4335	962.15	82.8
1022.8002	2958.5202	966.2	85.25
1022.9138	2959.6062	962.35	84.55
1023.0274	2960.6916	963.2	84.3
1023.141	2961.7764	959.6	79.4
1023.2545	2962.8605	963.4	83.65
1023.3679	2963.9439	962.4	83.25
1023.4813	2965.0267	958.45	79.6
1023.5947	2966.1089	982.25	79.15
1023.708	2967.1905	956.05	77.45
1023.8213	2968.2714	953.7	75.25
1023.9346	2969.3516	958.55	81.05
1024.0478	2970.4312	963	75.35
1024.1609	2971.5102	956.4	77
1024.274	2972.5885	956.45	77.25
1024.3871	2973.6662	959.4	76.7
1024.5002	2974.7432	956.35	78.45
1024.6132	2975.8196	959.9	80.1
1024.7261	2976.8954	954.35	76.25
1024.839	2977.9705	956.8	78
1024.9519	2979.045	955.3	77.85
1025.0647	2980.1188	954.45	78.25
1025.1775	2981.192	954.55	76.2
1025.2902	2982.2645	953.35	73.25
1025.4029	2983.3364	953.35	75.55
1025.5156	2984.4077	948.85	68.9
1025.6282	2985.4783	959.55	74.9
1025.7407	2986.5483	946.25	68.95
1025.8532	2987.6177	945.05	66
1025.9657	2988.6864	943.05	64.55
1026.0782	2989.7545	942.65	62.6
1026.1906	2990.8219	938.4	61.55
1026.3029	2991.8887	939.8	58.85
1026.4152	2992.9548	934.7	52.4
1026.5275	2994.0204	930.8	54.55
1026.6397	2995.0852	925.25	47.9
1026.7519	2996.1495	925.2	44.95
1026.864	2997.2131	922.25	43.1
1026.9761	2998.276	919.8	40.5
1027.0882	2999.3383	917	36.15
1027.2002	3000.4	921.1	42.2
1027.3122	3001.4611	915.95	36.85
1027.4241	3002.5215	914.3	34.4
1027.536	3003.5812	913.9	34.35
1027.6478	3004.6404	911.65	31.9
1027.7596	3005.6989	911.85	32.75
1027.8714	3006.7567	909.75	30.15
1027.9831	3007.8139	942.4	32.25
1028.0947	3008.8705	906.3	28
1028.2064	3009.9264	912.25	30.4
1028.3179	3010.9818	905.85	27.9
1028.4295	3012.0364	908.25	27.7
1028.541	3013.0905	906	27.05
1028.6524	3014.1439	906	28.6
1028.7638	3015.1966	906.05	28.3
1028.8752	3016.2487	904.7	27.9
1028.9865	3017.3002	909.25	27.2
1029.0978	3018.3511	904.1	27.6
1029.209	3019.4013	903.5	24.7
1029.3202	3020.4509	904.3	25.4
1029.4314	3021.4998	902.25	23.4
1029.5425	3022.5481	903.5	24.45
1029.6535	3023.5958	903.55	25.35
1029.7645	3024.6428	904.3	23.15
1029.8755	3025.6892	904.1	25.4
1029.9864	3026.735	902.05	22.65
1030.0973	3027.7802	903.5	26
1030.2082	3028.8247	902.9	24.75
1030.319	3029.8685	902.7	23.85
1030.4297	3030.9118	902.8	22.5
1030.5404	3031.9544	900.3	23.25
1030.6511	3032.9963	903.25	24.75
1030.7617	3034.0376	900.8	22.8
1030.8723	3035.0783	904.35	23.7
1030.9829	3036.1184	902.7	23.6
1031.0934	3037.1578	902.65	25.5
1031.2038	3038.1966	903.15	24.55
1031.3142	3039.2348	901.7	21.95
1031.4246	3040.2723	912.9	26.8
1031.5349	3041.3092	900.6	23.2
1031.6452	3042.3455	904.15	25.95
1031.7554	3043.3811	903.55	24.75
1031.8656	3044.4161	902.3	23.65
1031.9758	3045.4505	901.6	23.55
1032.0859	3046.4842	905.05	26.1
1032.1959	3047.5173	902.2	25.35
1032.3059	3048.5498	904.85	28.1
1032.4159	3049.5816	904.3	27.7
1032.5258	3050.6128	905.2	27
1032.6357	3051.6434	908.2	27.3
1032.7455	3052.6734	902.35	24.25
1032.8553	3053.7027	904.95	27.25
1032.9651	3054.7314	902.55	23.95
1033.0748	3055.7594	900.25	21.5
1033.1845	3056.7868	904.55	25.1
1033.2941	3057.8136	903	23.15
1033.4037	3058.8398	902.25	24.8
1033.5132	3059.8653	905.05	26
1033.6227	3060.8902	904.45	27.65
1033.7321	3061.9145	906.25	27.85
1033.8415	3062.9381	905.3	27.3
1033.9509	3063.9612	920.6	27.65
1034.0602	3064.9835	906.45	27.1
1034.1694	3066.0053	905.85	25.15
1034.2787	3067.0264	903	23.8
1034.3878	3068.0469	904.9	25.35
1034.497	3069.0668	906.95	25.8
1034.6061	3070.086	904.25	26.85
1034.7151	3071.1046	903.95	25.8
1034.8241	3072.1226	904.55	24.8
1034.9331	3073.1399	901.1	24.5
1035.042	3074.1567	902.3	23.7
1035.1508	3075.1727	903.7	23.55
1035.2597	3076.1882	899.8	20
1035.3684	3077.203	902.1	22.1
1035.4772	3078.2173	902.85	23.55
1035.5859	3079.2308	904.05	22.3
1035.6945	3080.2438	901.25	19.2
1035.8031	3081.2561	899.4	20.15
1035.9117	3082.2678	900.8	24.15
1036.0202	3083.2789	897.85	19.35
1036.1286	3084.2893	898.55	21.3
1036.2371	3085.2991	900.9	22.3
1036.3454	3086.3083	901.1	18.5
1036.4538	3087.3169	898	19.3
1036.562	3088.3248	899.8	19.8
1036.6703	3089.3321	897.85	18.4
1036.7785	3090.3388	893.4	15.15
1036.8866	3091.3449	896.6	16.35
1036.9948	3092.3503	898.1	17.05
1037.1028	3093.3551	895.85	19.7
1037.2108	3094.3593	895.6	19.2
1037.3188	3095.3629	896.5	18.4
1037.4267	3096.3658	895.65	15.75
1037.5346	3097.3681	894.7	16.45
1037.6425	3098.3698	896.85	17.4
1037.7503	3099.3708	895.15	15.95
1037.858	3100.3713	893	13.1
1037.9657	3101.3711	896.5	15.85
1038.0734	3102.3702	1028.5	16.85
1038.181	3103.3688	894.5	15.15
1038.2886	3104.3667	894.05	17.95
1038.3961	3105.364	893.1	14
1038.5036	3106.3607	895.45	16
1038.611	3107.3568	894.75	14.65
1038.7184	3108.3522	893.65	17.25
1038.8257	3109.347	892.3	13.15
1038.933	3110.3412	896.65	14.5
1039.0403	3111.3348	892.5	16
1039.1475	3112.3277	891.6	14.2
1039.2547	3113.32	891.5	14.8
1039.3618	3114.3117	891.85	15.5
1039.4689	3115.3028	892.1	14.35
1039.5759	3116.2932	890.55	11
1039.6829	3117.2831	896.7	13.35
1039.7898	3118.2723	892.15	13.15
1039.8967	3119.2608	890.65	11.35
1040.0035	3120.2488	893.3	14.55
1040.1103	3121.2361	889.95	8.8
1040.2171	3122.2229	889.4	12.6
1040.3238	3123.209	892.5	13.95
1040.4305	3124.1944	890.5	14.85
1040.5371	3125.1793	890.45	9.55
1040.6437	3126.1635	887.4	10.45
1040.7502	3127.1471	889.25	13.55
1040.8567	3128.1301	888.4	12.35
1040.9631	3129.1125	889.45	11.15
1041.0695	3130.0942	888.15	8.8
1041.1759	3131.0753	897.25	10.45
1041.2822	3132.0558	893.1	11.85
1041.3884	3133.0357	890.4	10.2
1041.4946	3134.015	887.65	9.45
1041.6008	3134.9936	889.2	11.1
1041.7069	3135.9716	907.3	7.2
1041.813	3136.949	889.8	14.45
1041.919	3137.9258	905.95	8.45
1042.025	3138.902	893.65	11.5
1042.1309	3139.8775	889.5	12.35
1042.2368	3140.8524	887.15	9.8
1042.3427	3141.8267	888.2	9.9
1042.4485	3142.8004	887.95	8.55
1042.5542	3143.7735	892.75	8.2
1042.6599	3144.7459	889.75	9.1
1042.7656	3145.7178	887.4	9.8
1042.8712	3146.689	885.85	10.3
1042.9768	3147.6596	888.35	8.5
1043.0823	3148.6295	888.95	11.3
1043.1878	3149.5989	889.15	10.3
1043.2932	3150.5676	887.1	10.1
1043.3986	3151.5357	885.5	11.05
1043.5039	3152.5032	886.1	8.75
1043.6092	3153.4701	886.55	9.6
1043.7145	3154.4364	889.2	7.8
1043.8197	3155.402	884.9	8
1043.9248	3156.367	888.9	10.45
1044.03	3157.3315	931.75	10.2
1044.135	3158.2952	887.35	10.2
1044.24	3159.2584	885.85	6.7
1044.345	3160.221	888	10.55
1044.4499	3161.1829	887.6	9.4
1044.5548	3162.1442	885	9.6
1044.6596	3163.105	886.85	8
1044.7644	3164.065	885.25	7.65
1044.8692	3165.0245	889.55	7.85
1044.9739	3165.9834	885.45	10.2
1045.0785	3166.9416	886.95	11.65
1045.1831	3167.8993	887.15	8.6
1045.2877	3168.8563	887.7	10.95
1045.3922	3169.8127	884.15	6.15
1045.4966	3170.7684	885.85	9.25
1045.6011	3171.7236	886.9	8.65
1045.7054	3172.6782	885.3	8.05
1045.8098	3173.6321	886.65	7.85
1045.914	3174.5854	890.35	8
1046.0183	3175.5381	886.75	9.75
1046.1224	3176.4902	885.65	8
1046.2266	3177.4417	886.15	6.8
1046.3307	3178.3926	888.5	11.85
1046.4347	3179.3428	880.75	2.95
1046.5387	3180.2924	884.85	8.6
1046.6427	3181.2415	883.35	7.15
1046.7466	3182.1899	884.25	3.9
1046.8504	3183.1377	883.25	7.2
1046.9542	3184.0848	887.65	4.55
1047.058	3185.0314	883.5	4.85
1047.1617	3185.9773	885.7	8.45
1047.2654	3186.9227	885.2	8.1
1047.369	3187.8674	886.45	9.75
1047.4726	3188.8115	891.1	8.3
1047.5761	3189.755	886.85	9.6
1047.6796	3190.6979	886.1	9.2
1047.783	3191.6402	880.45	4.4
1047.8864	3192.5818	882.35	5.05
1047.9898	3193.5229	907.5	6.85
1048.0931	3194.4633	884.35	8.25
1048.1963	3195.4031	885.3	9.45
1048.2995	3196.3423	884.6	6.05
1048.4027	3197.2809	886.3	8.65
1048.5058	3198.2189	884.6	6.45
1048.6089	3199.1563	889.6	4.4
1048.7119	3200.0931	884	9.1
1048.8148	3201.0292	882.15	4.6
1048.9178	3201.9648	884.05	5.25
1049.0206	3202.8997	887.2	6.05
1049.1235	3203.834	884.5	7.6
1049.2262	3204.7677	884.35	6.3
1049.329	3205.7008	886.15	6.25
1049.4317	3206.6333	882.35	6.4
1049.5343	3207.5652	886.2	5.2
1049.6369	3208.4964	885.05	8.25
1049.7394	3209.4271	882.45	5.75
1049.8419	3210.3571	884.1	5.9
1049.9444	3211.2865	884.85	7.6
1050.0468	3212.2154	886.15	7.45
1050.1491	3213.1436	887.75	6.85
1050.2514	3214.0712	889.3	6.2
1050.3537	3214.9982	882.75	6.2
1050.4559	3215.9246	886.9	9.45
1050.5581	3216.8503	883.25	6.65
1050.6602	3217.7755	884	4.55
1050.7623	3218.7001	884.75	8.7
1050.8643	3219.624	884.25	5.55
1050.9663	3220.5473	881.65	3.2
1051.0682	3221.4701	883.75	5.2
1051.1701	3222.3922	886.4	8.05
1051.2719	3223.3137	882.55	4.2
1051.3737	3224.2346	883.25	6.15
1051.4754	3225.1549	882.35	5.9
1051.5771	3226.0746	882.4	6.05
1051.6788	3226.9937	885.4	7.9
1051.7804	3227.9121	880.75	4.7
1051.8819	3228.83	884.35	7.55
1051.9834	3229.7473	883.5	4.65
1052.0849	3230.6639	883.6	3.75
1052.1863	3231.5799	882.9	5.05
1052.2876	3232.4954	883.15	4.55
1052.3889	3233.4102	883.45	5.75
1052.4902	3234.3244	884.35	4.75
1052.5914	3235.238	883.4	7
1052.6926	3236.151	906.65	6.45
1052.7937	3237.0634	880.9	3.75
1052.8948	3237.9752	883.05	4.8
1052.9958	3238.8864	883	4.9
1053.0968	3239.797	883.25	5.8
1053.1977	3240.7069	883.9	6.45
1053.2986	3241.6163	885.35	5.8
1053.3994	3242.5251	883.45	7.3
1053.5002	3243.4332	882.2	6.15
1053.6009	3244.3408	883.2	6.5
1053.7016	3245.2477	882.1	4.05
1053.8022	3246.154	885.05	5.85
1053.9028	3247.0598	881.25	1.6
1054.0034	3247.9649	882.25	3.65
1054.1039	3248.8694	881.65	3.4
1054.2043	3249.7733	883.85	5.25
1054.3047	3250.6766	882.65	4.7
1054.4051	3251.5793	884.2	5
1054.5054	3252.4814	880.8	3.85
1054.6056	3253.3829	879.35	0.6
1054.7058	3254.2838	881.45	3.9
1054.806	3255.1841	881.05	3.6
1054.9061	3256.0838	880.45	3.3
1055.0061	3256.9829	880.7	4.05
1055.1062	3257.8814	883.75	3.3
1055.2061	3258.7792	882.65	3.45
1055.306	3259.6765	882.9	3.8
1055.4059	3260.5731	883.1	8.2
1055.5057	3261.4692	881.7	5.4
1055.6055	3262.3647	881.65	4.2
1055.7052	3263.2595	882.75	6.7
1055.8049	3264.1538	881	3.5
1055.9045	3265.0474	882.1	3.9
1056.0041	3265.9404	881.15	4.8
1056.1036	3266.8329	880.3	3.25
1056.2031	3267.7247	891.15	4.7
1056.3025	3268.616	879.6	3
1056.4019	3269.5066	880.45	2.45
1056.5013	3270.3966	883.9	5.45
1056.6005	3271.286	879.5	2.95
