Software Version:	3.9.2.0
Unit SN:	10000200
Spectrometer SN:	6960
Date:	3/8/2024 11:29:22 AM
Data Line Index:	25
Spectral Points:	2048
Integration time (ms):	125
Averages:	20
Delay (ms):	30000
Sequence Number:	1
Processing:	dark subtract
Laser Power (mW):	300
Laser Current (mA):	822
Laser Diode Temp (C):	25
Laser Case Temp (C):	25
System Temp (C):	25
Spectrometer Temp (C):	22.9
CCD Temp (C):	0.005
Secondary Temp (C):	20.008
Heatsink Temp (C):	19.354
CCDPCB Temp (C):	32.639
SecondaryPCB Temp (C):	27.103

Wavelength	RamanShift	Raw Counts	Dark Subtracted
787.061	30.1047	414.85	5.3
787.2016	32.3739	413.55	6.55
787.3422	34.6426	414.15	4.85
787.4828	36.9109	415.6	6.6
787.6235	39.1787	422.85	7.9
787.7642	41.4461	425.7	7.8
787.9049	43.7131	432.15	12.3
788.0456	45.9796	434.7	11.35
788.1863	48.2456	435.75	7.55
788.3271	50.5112	444	11.45
788.4679	52.7764	443.9	7.6
788.6087	55.0411	450.05	9.5
788.7496	57.3054	457.1	11.2
788.8904	59.5692	457.2	11.05
789.0313	61.8326	460.35	12.3
789.1722	64.0955	466.55	15.7
789.3132	66.3579	474.95	18.8
789.4541	68.6199	479.7	19.15
789.5951	70.8815	489.4	25.3
789.7361	73.1426	507.9	38.85
789.8771	75.4032	540.95	68
790.0181	77.6634	610.4	132.65
790.1592	79.9231	767.3	284.8
790.3003	82.1824	1102.25	611.95
790.4414	84.4412	1655.05	1151.45
790.5825	86.6995	2341.1	1819.35
790.7237	88.9574	3003	2466.5
790.8648	91.2148	3428.7	2880.65
791.006	93.4717	3621.85	3062.8
791.1472	95.7282	3647	3086.4
791.2885	97.9842	3629	3063.1
791.4297	100.2398	3595.45	3028.45
791.571	102.4949	3540.85	2970.2
791.7123	104.7495	3506.55	2932.1
791.8536	107.0036	3471.8	2900.7
791.9949	109.2573	3395.35	2824.2
792.1363	111.5105	3308.9	2734.95
792.2777	113.7632	3237.9	2661
792.4191	116.0154	3142.8	2555.7
792.5605	118.2672	3052.2	2473.95
792.7019	120.5185	2961.45	2379.8
792.8434	122.7693	2864.3	2277.8
792.9849	125.0197	2786.25	2193.9
793.1264	127.2696	2711.2	2116.05
793.2679	129.519	2668.9	2071.45
793.4094	131.7679	2647.9	2048.7
793.551	134.0163	2623.4	2022.3
793.6926	136.2642	2616.5	2013.55
793.8342	138.5117	2626.45	2014.6
793.9758	140.7587	2594.15	1982.5
794.1175	143.0052	2555.6	1942.85
794.2591	145.2512	2496.15	1882.2
794.4008	147.4967	2448.65	1834.25
794.5425	149.7417	2403.45	1787.5
794.6842	151.9863	2393.5	1772.25
794.826	154.2304	2369.1	1742.4
794.9677	156.4739	2363.65	1733.6
795.1095	158.717	2383.65	1752.85
795.2513	160.9596	2400	1763.45
795.3931	163.2017	2430.05	1794.7
795.535	165.4433	2449.5	1807.05
795.6768	167.6844	2439.7	1795.35
795.8187	169.925	2425.15	1780.1
795.9606	172.1651	2354.65	1706.2
796.1025	174.4047	2331.95	1681.8
796.2445	176.6439	2288.3	1635.75
796.3864	178.8825	2239.6	1582.85
796.5284	181.1206	2243.1	1583
796.6704	183.3582	2223.2	1560
796.8124	185.5954	2232.1	1568.3
796.9544	187.832	2236.3	1565.35
797.0965	190.0681	2235.3	1563.75
797.2386	192.3037	2253.85	1575.45
797.3806	194.5388	2239.9	1562.4
797.5228	196.7734	2245.85	1565.8
797.6649	199.0075	2270.8	1591.7
797.807	201.2411	2303.85	1620.75
797.9492	203.4742	2310.9	1626.85
798.0914	205.7068	2339.15	1649.4
798.2336	207.9389	2366.2	1680
798.3758	210.1704	2375.15	1692.8
798.518	212.4015	2364.4	1692.75
798.6603	214.632	2357.05	1685.7
798.8025	216.862	2373.35	1709.4
798.9448	219.0915	2384.5	1715.1
799.0871	221.3205	2385.5	1714.5
799.2294	223.549	2390.6	1722.95
799.3718	225.777	2393.45	1725.95
799.5141	228.0044	2389.5	1714.15
799.6565	230.2314	2383.25	1703.3
799.7989	232.4578	2375	1695.45
799.9413	234.6837	2358.15	1670.7
800.0837	236.909	2373.15	1680
800.2262	239.1339	2369.05	1649.55
800.3687	241.3582	2356.75	1655.65
800.5111	243.582	2375.7	1643.15
800.6536	245.8053	2376.3	1659.45
800.7961	248.0281	2368.35	1655.45
800.9387	250.2503	2381.3	1666.5
801.0812	252.472	2378	1658.25
801.2238	254.6932	2390.9	1673.85
801.3664	256.9139	2397.25	1679.65
801.509	259.134	2408.15	1682.95
801.6516	261.3536	2434.3	1714.75
801.7942	263.5727	2477.75	1752.1
801.9369	265.7912	2508.6	1785.9
802.0795	268.0092	2569.15	1844.35
802.2222	270.2267	2612.9	1890.25
802.3649	272.4436	2670.9	1946.1
802.5076	274.6601	2700.15	1965.4
802.6504	276.8759	2723.5	1989.95
802.7931	279.0913	2755.6	2023.45
802.9359	281.3061	2760	2025.15
803.0787	283.5204	2784.8	2044.45
803.2215	285.7341	2801.95	2059.85
803.3643	287.9473	2822.65	2082
803.5071	290.16	2826.2	2082.2
803.6499	292.3721	2783.15	2046.7
803.7928	294.5837	2750.55	2013.35
803.9357	296.7947	2709.75	1970.95
804.0786	299.0052	2712.15	1972.9
804.2215	301.2152	2691.05	1949.5
804.3644	303.4246	2685.9	1947.65
804.5074	305.6334	2664.95	1926.95
804.6503	307.8418	2648.05	1905.2
804.7933	310.0495	2622.3	1879.5
804.9363	312.2568	2590.4	1844.3
805.0793	314.4635	2551.3	1803.1
805.2223	316.6696	2507.4	1758.75
805.3653	318.8752	2480.45	1723.15
805.5084	321.0802	2437.2	1684.35
805.6514	323.2847	2430.1	1675.2
805.7945	325.4887	2432.65	1676.15
805.9376	327.692	2463.8	1707.6
806.0807	329.8949	2489.95	1734.85
806.2238	332.0972	2535.5	1774.85
806.367	334.2989	2574.35	1811.2
806.5101	336.5001	2557.8	1795.95
806.6533	338.7007	2540	1778.6
806.7965	340.9008	2493.55	1730.4
806.9397	343.1003	2443.75	1678.05
807.0829	345.2992	2390	1622.65
807.2261	347.4976	2349.2	1583.15
807.3693	349.6955	2319.95	1545.4
807.5126	351.8927	2307.65	1535.2
807.6559	354.0895	2300.15	1519
807.7991	356.2856	2282.3	1506.95
807.9424	358.4812	2266.05	1492.15
808.0857	360.6763	2269.2	1489.25
808.2291	362.8707	2260.3	1480.6
808.3724	365.0646	2270.55	1486.7
808.5158	367.258	2299.45	1514.55
808.6591	369.4508	2299.2	1510.85
808.8025	371.643	2318.9	1532.05
808.9459	373.8346	2343.8	1553.7
809.0893	376.0257	2375.35	1582.3
809.2327	378.2162	2399.45	1610.25
809.3762	380.4062	2422.6	1632.45
809.5196	382.5956	2407.15	1618.9
809.6631	384.7844	2370.4	1589.1
809.8066	386.9726	2313.35	1532.1
809.9501	389.1603	2278.85	1499.15
810.0936	391.3474	2311.4	1493.35
810.2371	393.5339	2274.7	1490.2
810.3806	395.7199	2265.05	1482.95
810.5241	397.9052	2294.25	1513.6
810.6677	400.09	2341.35	1557.1
810.8113	402.2743	2396.2	1609.95
810.9548	404.4579	2420.55	1635.3
811.0984	406.641	2467.55	1679.3
811.2421	408.8235	2509.35	1720.5
811.3857	411.0054	2560.25	1768
811.5293	413.1868	2615.25	1820.55
811.673	415.3675	2660.5	1861.35
811.8166	417.5477	2687.25	1887.7
811.9603	419.7273	2625.2	1824.6
812.104	421.9064	2537.65	1728.75
812.2477	424.0848	2475.1	1673.75
812.3914	426.2627	2413.6	1611.9
812.5351	428.4399	2353.05	1552.1
812.6788	430.6166	2300.9	1492.75
812.8226	432.7928	2263.15	1452.05
812.9663	434.9683	2219.65	1411.8
813.1101	437.1432	2193.9	1387.95
813.2539	439.3176	2169.75	1364.5
813.3977	441.4914	2157.8	1353.95
813.5415	443.6645	2160.35	1349.3
813.6853	445.8371	2156.35	1348.65
813.8291	448.0091	2173.7	1363.6
813.973	450.1806	2153.3	1344.3
814.1168	452.3514	2143.75	1334.3
814.2607	454.5216	2150.55	1332.65
814.4046	456.6913	2135.8	1321.05
814.5485	458.8603	2145.25	1331
814.6924	461.0288	2153.75	1342.7
814.8363	463.1967	2147.9	1340.15
814.9802	465.3639	2154.8	1343.05
815.1241	467.5306	2150.6	1336.5
815.2681	469.6967	2132.6	1323.2
815.412	471.8622	2147.6	1334.2
815.556	474.0271	2131.75	1319.7
815.7	476.1914	2132.95	1317.15
815.844	478.3551	2129.35	1313.65
815.988	480.5182	2129.5	1315.3
816.132	482.6807	2123.7	1309.9
816.276	484.8426	2151.45	1340.7
816.4201	487.0039	2190.05	1377.6
816.5641	489.1647	2231.75	1411.9
816.7082	491.3248	2274	1457.15
816.8522	493.4843	2293.4	1475.5
816.9963	495.6432	2284.5	1465.75
817.1404	497.8015	2257.15	1431.25
817.2845	499.9592	2217.85	1394.25
817.4286	502.1163	2177.1	1354.05
817.5727	504.2728	2118.6	1295.85
817.7168	506.4287	2105.55	1287.05
817.861	508.5839	2089.9	1269.95
818.0051	510.7386	2082.15	1259.2
818.1493	512.8927	2092	1262.5
818.2935	515.0461	2090.05	1263.85
818.4377	517.199	2110.7	1285.75
818.5818	519.3512	2148.65	1321.2
818.726	521.5029	2213.95	1379.65
818.8703	523.6539	2265.7	1436.75
819.0145	525.8043	2280.85	1451.95
819.1587	527.9541	2222	1389.3
819.303	530.1033	2163.95	1334.35
819.4472	532.2519	2115	1284.75
819.5915	534.3999	2092.45	1259.35
819.7357	536.5472	2078.3	1249.7
819.88	538.694	2073.95	1244.95
820.0243	540.8401	2094.8	1261.35
820.1686	542.9856	2115.05	1279.2
820.3129	545.1305	2126.15	1285.65
820.4572	547.2748	2147.1	1305.35
820.6016	549.4185	2153.15	1310.8
820.7459	551.5615	2155.1	1317.25
820.8902	553.704	2172.75	1335.2
821.0346	555.8458	2181	1344.75
821.1789	557.987	2211.3	1374.5
821.3233	560.1276	2235.2	1396.25
821.4677	562.2675	2287.45	1449.7
821.6121	564.4069	2356.65	1518.85
821.7565	566.5456	2394.45	1559.45
821.9009	568.6837	2373.55	1536.5
822.0453	570.8212	2299.35	1464.85
822.1897	572.958	2237.05	1399.25
822.3342	575.0942	2175.15	1339.35
822.4786	577.2299	2133.4	1298.2
822.6231	579.3648	2105.2	1271.85
822.7675	581.4992	2090.7	1261.85
822.912	583.6329	2095.6	1266.05
823.0565	585.766	2129.35	1294.5
823.201	587.8985	2164.45	1328.45
823.3454	590.0304	2231.25	1378.85
823.4899	592.1616	2249.4	1405.3
823.6345	594.2922	2254.65	1411.3
823.779	596.4222	2214.15	1367.75
823.9235	598.5515	2163.65	1317.4
824.068	600.6802	2105.35	1260.2
824.2126	602.8083	2067.75	1225.85
824.3571	604.9358	2045.15	1200.4
824.5017	607.0626	2043.4	1193.8
824.6462	609.1888	2062.05	1212
824.7908	611.3144	2076.65	1224.25
824.9354	613.4393	2107.45	1262.5
825.08	615.5636	2166.65	1318.05
825.2246	617.6873	2212.45	1364
825.3692	619.8103	2254.65	1403.2
825.5138	621.9327	2237	1387.1
825.6584	624.0544	2211.1	1362.8
825.803	626.1756	2150.2	1302.2
825.9477	628.2961	2101.85	1248.9
826.0923	630.4159	2071	1219.8
826.237	632.5351	2069.3	1218.65
826.3816	634.6537	2059.95	1208.05
826.5263	636.7716	2056.1	1201.45
826.6709	638.8889	2061.4	1202.5
826.8156	641.0056	2067.85	1211.55
826.9603	643.1216	2074.65	1220.3
827.105	645.237	2081.35	1225.3
827.2497	647.3518	2054.8	1204.4
827.3944	649.4659	2024.3	1177.15
827.5391	651.5793	2011.75	1160.7
827.6838	653.6922	1993.65	1142.95
827.8285	655.8043	1980	1126.65
827.9733	657.9159	1971.6	1116.35
828.118	660.0268	1965.8	1109.55
828.2627	662.137	1959	1101.5
828.4075	664.2466	1971.4	1111.6
828.5522	666.3556	1966.5	1109.3
828.697	668.4639	1951.3	1092.2
828.8418	670.5716	1949.6	1092.7
828.9865	672.6786	1955.3	1097.8
829.1313	674.785	1940.4	1079.6
829.2761	676.8907	1926.25	1065.15
829.4209	678.9958	1939.8	1083.1
829.5657	681.1002	1934.65	1074.65
829.7105	683.204	1933.85	1070.05
829.8553	685.3072	1940.55	1081.05
830.0001	687.4097	1917.8	1055
830.1449	689.5115	1926.5	1064.5
830.2898	691.6127	1927.75	1070.75
830.4346	693.7132	1922.55	1063.3
830.5794	695.8131	1938.75	1062.15
830.7243	697.9123	1939.35	1076.6
830.8691	700.0109	1933.1	1069.55
831.014	702.1089	1948	1085.8
831.1588	704.2061	1961.8	1099.25
831.3037	706.3028	1982.2	1115.7
831.4486	708.3987	2001.65	1133.5
831.5935	710.4941	2014.5	1150.55
831.7383	712.5887	2022.3	1157.55
831.8832	714.6827	2015.65	1149.45
832.0281	716.7761	2001.2	1138.85
832.173	718.8688	1996.35	1132.95
832.3179	720.9608	2007.8	1135.3
832.4628	723.0522	2020.55	1149.35
832.6077	725.1429	2037	1168.7
832.7527	727.233	2075.4	1207.6
832.8976	729.3224	2134.25	1266.8
833.0425	731.4112	2192.1	1322.1
833.1874	733.4993	2199.55	1329.75
833.3324	735.5867	2143.45	1274.25
833.4773	737.6735	2079.9	1209.2
833.6222	739.7596	2025.2	1156.15
833.7672	741.845	1999.5	1131.85
833.9122	743.9298	1991.4	1122.15
834.0571	746.014	1998.45	1127.55
834.2021	748.0974	2022.75	1149.65
834.347	750.1802	2013	1140.3
834.492	752.2624	2002.75	1129.75
834.637	754.3439	1992.5	1119.5
834.782	756.4247	2004.25	1124.7
834.9269	758.5048	1992.35	1121.1
835.0719	760.5843	2005.9	1128.15
835.2169	762.6631	2034.6	1161.4
835.3619	764.7413	2092.2	1221.55
835.5069	766.8188	2169.3	1295.95
835.6519	768.8956	2243.75	1373.45
835.7969	770.9718	2301.8	1430.55
835.9419	773.0473	2284.15	1410.15
836.0869	775.1221	2255.75	1381.65
836.232	777.1962	2248.05	1376.75
836.377	779.2697	2299.15	1423.7
836.522	781.3426	2407.65	1512.45
836.667	783.4147	2467.2	1589.9
836.8121	785.4862	2450	1575.9
836.9571	787.557	2368.15	1491.8
837.1021	789.6271	2239.4	1365.1
837.2472	791.6966	2119.4	1243.4
837.3922	793.7654	2019.55	1143.85
837.5373	795.8335	1976.35	1101.5
837.6823	797.901	1943.35	1068.15
837.8274	799.9678	1926.95	1050.1
837.9724	802.0339	1932.25	1057.6
838.1175	804.0993	1951.45	1065
838.2626	806.1641	1932.25	1056.9
838.4076	808.2282	1912.65	1034.3
838.5527	810.2916	1901.25	1020.65
838.6978	812.3544	1881.55	1006.45
838.8428	814.4164	1874.95	1001.35
838.9879	816.4778	1886.95	1010
839.133	818.5385	1891.75	1012.85
839.2781	820.5986	1929.35	1052.6
839.4232	822.658	1972.95	1094.15
839.5682	824.7166	2035.6	1157.65
839.7133	826.7747	2129.55	1251.1
839.8584	828.832	2206.1	1326.85
840.0035	830.8886	2254.5	1373.45
840.1486	832.9446	2283.2	1400.6
840.2937	834.9999	2246.9	1369.8
840.4388	837.0545	2190.8	1307.8
840.5839	839.1085	2099.45	1218.45
840.729	841.1618	2022.85	1138.75
840.8741	843.2143	1966.55	1087.25
841.0192	845.2662	1928.05	1048.2
841.1643	847.3175	1919.55	1041.7
841.3095	849.368	1911.5	1033.2
841.4546	851.4179	1902.3	1021.35
841.5997	853.467	1904.9	1024.15
841.7448	855.5155	1920.35	1038.35
841.8899	857.5633	1913.15	1030.1
842.0351	859.6105	1911.8	1030.3
842.1802	861.6569	1906.7	1025.3
842.3253	863.7027	1886.85	1004.15
842.4704	865.7478	1881.75	997.75
842.6156	867.7922	1868.45	987.8
842.7607	869.8359	1863.15	976.6
842.9058	871.8789	1848	964.25
843.0509	873.9212	1875.7	961.1
843.1961	875.9629	1861	979.5
843.3412	878.0039	1871.7	988.6
843.4863	880.0441	1880.5	999.2
843.6315	882.0837	1903.95	1021.9
843.7766	884.1226	1925.85	1039.9
843.9218	886.1609	1952.55	1070.75
844.0669	888.1984	2004.2	1121.95
844.212	890.2352	2049.25	1165.95
844.3572	892.2714	2063.45	1173.8
844.5023	894.3069	2034.65	1149.7
844.6475	896.3416	1989.35	1102.8
844.7926	898.3757	1940	1058
844.9377	900.4091	1921.6	1035.65
845.0829	902.4418	1932.15	1043.5
845.228	904.4739	1942.75	1055.45
845.3732	906.5052	1952.2	1067.45
845.5183	908.5358	1960.85	1074.2
845.6635	910.5658	1932.55	1043.15
845.8086	912.595	1896.95	1009.5
845.9538	914.6236	1855.9	968.35
846.0989	916.6515	1835.85	947.95
846.2441	918.6786	1825.15	938.65
846.3892	920.7051	1816.15	927.3
846.5344	922.7309	1811.3	925.75
846.6795	924.756	1805.1	919.5
846.8246	926.7804	1824	935.6
846.9698	928.8041	1830.8	943
847.1149	930.8272	1848.75	958.55
847.2601	932.8495	1860.75	974.7
847.4052	934.8711	1860.55	972.6
847.5504	936.892	1867.75	978.5
847.6955	938.9123	1895.15	1006.35
847.8407	940.9318	1908.25	1021.3
847.9858	942.9506	1931.3	1041.5
848.131	944.9688	1914.95	1028.1
848.2761	946.9862	1888.35	999.35
848.4213	949.003	1858.45	969.35
848.5664	951.019	1838.25	950.5
848.7115	953.0344	1817.5	929.05
848.8567	955.0491	1812.15	923.9
849.0018	957.063	1804.85	917.35
849.147	959.0763	1799.1	911.4
849.2921	961.0888	1789.55	899.65
849.4373	963.1007	1788.5	898.45
849.5824	965.1119	1780.15	894.4
849.7275	967.1223	1776.55	891.55
849.8727	969.1321	1776.75	892.9
850.0178	971.1412	1779.1	893.55
850.1629	973.1495	1762.1	874.9
850.3081	975.1572	1793.85	871.8
850.4532	977.1641	1771.95	883.1
850.5983	979.1704	1773.15	882.6
850.7435	981.1759	1765.55	874.95
850.8886	983.1808	1762.35	869.8
851.0337	985.1849	1766.1	867.3
851.1788	987.1884	1749.9	855.15
851.324	989.1911	1757.6	865.95
851.4691	991.1932	1761.2	872.5
851.6142	993.1945	1765.15	876.35
851.7593	995.1951	1762.35	871.85
851.9045	997.1951	1766.7	869.85
852.0496	999.1943	1763.5	875.05
852.1947	1001.1928	1764.7	875.2
852.3398	1003.1906	1778.7	886.7
852.4849	1005.1877	1793.9	902.9
852.63	1007.1841	1820.15	928.9
852.7751	1009.1798	1821.7	930.55
852.9202	1011.1748	1815.7	924.5
853.0653	1013.1691	1796	901.35
853.2104	1015.1627	1761.7	872.1
853.3555	1017.1556	1725.35	835.6
853.5006	1019.1477	1718.35	827.25
853.6457	1021.1392	1697.4	808.85
853.7908	1023.1299	1687.65	800.15
853.9359	1025.12	1694.55	807.55
854.081	1027.1093	1695.75	816.75
854.2261	1029.0979	1712.95	834
854.3712	1031.0859	1739	855.95
854.5163	1033.0731	1755.05	867.45
854.6613	1035.0596	1753.65	867.7
854.8064	1037.0454	1743.3	854.7
854.9515	1039.0304	1732.3	842.4
855.0965	1041.0148	1715.55	825.6
855.2416	1042.9985	1694.4	801.1
855.3867	1044.9814	1683.5	792.8
855.5317	1046.9636	1678.85	787.25
855.6768	1048.9452	1681.4	791.2
855.8219	1050.926	1699.2	809.25
855.9669	1052.9061	1709.9	821.85
856.112	1054.8855	1722.1	832.05
856.257	1056.8642	1716.35	824.55
856.4021	1058.8421	1719.65	823
856.5471	1060.8194	1714.7	820.85
856.6921	1062.7959	1711.75	819.85
856.8372	1064.7717	1721.7	827.65
856.9822	1066.7469	1715.65	823.9
857.1272	1068.7213	1724.2	828.85
857.2723	1070.695	1730.75	838.65
857.4173	1072.6679	1746.4	852.15
857.5623	1074.6402	1773.15	880.3
857.7073	1076.6117	1782.8	884.95
857.8523	1078.5826	1763.8	871.55
857.9973	1080.5527	1730.8	832.55
858.1423	1082.5221	1699.35	809.4
858.2873	1084.4908	1666.85	773.6
858.4323	1086.4587	1651.4	759.65
858.5773	1088.426	1646.65	754.05
858.7223	1090.3925	1656.25	757.8
858.8673	1092.3584	1646	754.9
859.0123	1094.3235	1660.25	767.5
859.1573	1096.2879	1670.95	779.4
859.3022	1098.2515	1699.1	805.7
859.4472	1100.2145	1720.7	829.05
859.5922	1102.1767	1745.6	850
859.7371	1104.1382	1793.15	900.1
859.8821	1106.099	1844.35	950.95
860.027	1108.0591	1886.4	993.6
860.172	1110.0185	1929.4	1035.2
860.3169	1111.9771	1966.5	1076.75
860.4619	1113.9351	2010.8	1115.75
860.6068	1115.8923	2073.3	1182.7
860.7517	1117.8488	2099.95	1204.15
860.8967	1119.8045	2062.65	1168.35
861.0416	1121.7596	1970.25	1077.2
861.1865	1123.7139	1863.85	973.9
861.3314	1125.6675	1801.7	909.9
861.4763	1127.6204	1812.1	921.8
861.6212	1129.5726	1825.5	932.3
861.7661	1131.524	1823.7	930.05
861.911	1133.4748	1789.5	896
862.0559	1135.4248	1732.2	837.25
862.2008	1137.3741	1685.1	790.05
862.3457	1139.3226	1663.15	767.95
862.4905	1141.2705	1656.6	762.5
862.6354	1143.2176	1675.85	776.25
862.7803	1145.164	1680	784.1
862.9251	1147.1097	1683.55	790.05
863.07	1149.0546	1661.35	764.5
863.2148	1150.9989	1633.1	739.15
863.3597	1152.9424	1617.75	722.8
863.5045	1154.8852	1601.05	706.2
863.6493	1156.8272	1594.55	701.95
863.7942	1158.7686	1596.95	698.45
863.939	1160.7092	1596.6	701.65
864.0838	1162.6491	1600.3	702.9
864.2286	1164.5883	1613.35	719.05
864.3734	1166.5267	1621.6	726.6
864.5182	1168.4644	1645.15	752.3
864.663	1170.4014	1671.3	774.05
864.8078	1172.3377	1704.8	811.45
864.9526	1174.2732	1760.85	868.25
865.0974	1176.2081	1845.4	950.3
865.2421	1178.1421	1963.05	1066.85
865.3869	1180.0755	2079.45	1186.35
865.5317	1182.0082	2145.1	1252.6
865.6764	1183.9401	2122.25	1225.55
865.8212	1185.8713	2030.45	1136.4
865.9659	1187.8017	1912.9	1024
866.1106	1189.7315	1805.95	920.25
866.2554	1191.6605	1759.1	844.25
866.4001	1193.5888	1685.45	796.1
866.5448	1195.5163	1654.85	762.55
866.6895	1197.4432	1640.65	747.35
866.8342	1199.3693	1622.15	727.7
866.9789	1201.2947	1613.2	716.2
867.1236	1203.2193	1601.05	707.5
867.2683	1205.1432	1594.15	698.9
867.413	1207.0664	1592.7	698.4
867.5576	1208.9889	1604.1	706.3
867.7023	1210.9106	1599.25	704.75
867.847	1212.8316	1595.9	703.85
867.9916	1214.7519	1615.15	711.55
868.1363	1216.6715	1618.05	724.2
868.2809	1218.5903	1633.05	740.1
868.4255	1220.5084	1638.55	745.6
868.5701	1222.4257	1656	762.7
868.7148	1224.3424	1673.15	782
868.8594	1226.2583	1687.65	787.9
869.004	1228.1735	1714.7	819.75
869.1486	1230.0879	1742.55	845.3
869.2932	1232.0016	1786	892.6
869.4377	1233.9146	1817.25	919.7
869.5823	1235.8269	1838.95	946.5
869.7269	1237.7384	1840.9	946.35
869.8715	1239.6492	1846.25	953.25
870.016	1241.5592	1860.35	965.45
870.1606	1243.4686	1899.2	1003.2
870.3051	1245.3772	1969.65	1075.35
870.4496	1247.285	2045.4	1150
870.5941	1249.1922	2127.95	1232.9
870.7387	1251.0986	2195.5	1299.55
870.8832	1253.0042	2268.7	1373.5
871.0277	1254.9092	2338.85	1442.95
871.1722	1256.8134	2425.05	1532
871.3167	1258.7169	2511.3	1613.25
871.4611	1260.6196	2551	1657.25
871.6056	1262.5216	2578.2	1681.75
871.7501	1264.4229	2551.25	1654.85
871.8945	1266.3234	2538.55	1643.4
872.039	1268.2232	2477.55	1581.55
872.1834	1270.1223	2429.55	1533.35
872.3278	1272.0207	2384.45	1489
872.4723	1273.9183	2368	1466.4
872.6167	1275.8151	2377.2	1483.75
872.7611	1277.7113	2414.15	1519.15
872.9055	1279.6067	2489.5	1596.75
873.0499	1281.5014	2624.8	1727.4
873.1943	1283.3953	2797.05	1898.95
873.3386	1285.2885	2970.2	2072
873.483	1287.181	3133.6	2238.65
873.6274	1289.0727	3171.55	2280
873.7717	1290.9637	3118.9	2225.85
873.9161	1292.854	3030.9	2134.45
874.0604	1294.7435	2912.15	2014.65
874.2047	1296.6323	2795.7	1899.15
874.349	1298.5204	2692.9	1793.2
874.4933	1300.4077	2621.45	1726.15
874.6376	1302.2943	2568.8	1672.8
874.7819	1304.1802	2531.3	1636.35
874.9262	1306.0653	2511.95	1613.9
875.0705	1307.9497	2488.75	1594.1
875.2147	1309.8333	2439.45	1545.85
875.359	1311.7162	2411.35	1515.9
875.5032	1313.5984	2381.15	1484
875.6475	1315.4798	2370.35	1465.2
875.7917	1317.3605	2369.1	1467.05
875.9359	1319.2405	2372.4	1475.6
876.0801	1321.1197	2350.6	1451.95
876.2243	1322.9982	2318.95	1418.1
876.3685	1324.876	2246.95	1351.05
876.5127	1326.753	2159.55	1262.7
876.6569	1328.6293	2060.45	1162.45
876.801	1330.5048	1987.25	1088.8
876.9452	1332.3796	1909.9	1014.5
877.0893	1334.2537	1886.6	965.85
877.2335	1336.127	1816.35	919.8
877.3776	1337.9996	1780.95	885.95
877.5217	1339.8714	1769.75	875.55
877.6658	1341.7426	1790.7	852.95
877.8099	1343.6129	1738.1	840.6
877.954	1345.4826	1719.35	822.05
878.0981	1347.3515	1709.35	811.65
878.2422	1349.2196	1696.75	799.9
878.3862	1351.087	1682.5	785.6
878.5303	1352.9537	1676.8	777.6
878.6743	1354.8197	1681.8	784.8
878.8184	1356.6849	1703.7	806.75
878.9624	1358.5493	1707.25	809.35
879.1064	1360.4131	1727.2	830.7
879.2504	1362.276	1768.75	874.75
879.3944	1364.1383	1796.8	900.55
879.5384	1365.9998	1816	914.85
879.6823	1367.8606	1800.2	905.4
879.8263	1369.7206	1792.8	895.05
879.9702	1371.5799	1798.4	899
880.1142	1373.4384	1786.9	889.95
880.2581	1375.2962	1766.35	868.75
880.402	1377.1533	1714.9	817.95
880.5459	1379.0096	1668.1	772.15
880.6898	1380.8652	1637.5	744.15
880.8337	1382.7201	1611.95	718.15
880.9776	1384.5742	1586.55	692.5
881.1215	1386.4275	1559.1	663.4
881.2653	1388.2802	1543.35	646.95
881.4092	1390.132	1536.85	642.05
881.553	1391.9832	1531.95	634.8
881.6968	1393.8336	1520.7	621.15
881.8406	1395.6832	1520.95	623.45
881.9844	1397.5322	1511.7	616.4
882.1282	1399.3803	1501.65	602.3
882.272	1401.2278	1477.45	583.25
882.4158	1403.0745	1493.7	601.15
882.5595	1404.9204	1468.2	573.95
882.7033	1406.7656	1466.3	568.7
882.847	1408.6101	1466.65	570.85
882.9908	1410.4538	1457.45	562.35
883.1345	1412.2968	1463.25	567.5
883.2782	1414.139	1470.95	574.5
883.4219	1415.9805	1478.65	581.15
883.5656	1417.8213	1488.15	584.7
883.7092	1419.6613	1496.4	602.05
883.8529	1421.5006	1531.6	636.65
883.9965	1423.3391	1561.05	664.1
884.1402	1425.1769	1604.4	709.2
884.2838	1427.0139	1678.35	782.75
884.4274	1428.8502	1762.45	865.45
884.571	1430.6858	1830.65	934.6
884.7146	1432.5206	1851.1	956.25
884.8582	1434.3547	1851.65	953.75
885.0018	1436.188	1819.4	922.55
885.1453	1438.0206	1819.1	922.45
885.2889	1439.8524	1799.1	902.75
885.4324	1441.6835	1802.75	907.45
885.5759	1443.5139	1806.45	909.05
885.7194	1445.3435	1805.6	910.6
885.8629	1447.1724	1811.9	916.05
886.0064	1449.0005	1809.45	915
886.1499	1450.8279	1793	897.35
886.2933	1452.6545	1795.55	898.9
886.4368	1454.4804	1781.65	887.4
886.5802	1456.3056	1789.5	888.25
886.7237	1458.13	1766.05	871.8
886.8671	1459.9536	1730.3	837.6
887.0105	1461.7766	1702.75	806.3
887.1539	1463.5987	1661.55	763
887.2972	1465.4202	1633.9	736.6
887.4406	1467.2409	1597.8	701.8
887.584	1469.0608	1570.15	674.45
887.7273	1470.88	1536	639.2
887.8706	1472.6984	1513.2	618.2
888.0139	1474.5161	1490.75	593.45
888.1572	1476.3331	1478.55	582.1
888.3005	1478.1493	1472.05	574.9
888.4438	1479.9648	1470.8	574.9
888.5871	1481.7795	1460.4	564
888.7303	1483.5935	1459.6	563.55
888.8736	1485.4067	1462.85	568.45
889.0168	1487.2192	1461.5	565.9
889.16	1489.031	1467.25	568.8
889.3032	1490.842	1460	563.05
889.4464	1492.6522	1459.55	563.45
889.5896	1494.4618	1459.7	563.3
889.7327	1496.2705	1458.85	566.75
889.8759	1498.0785	1451.8	556.05
890.019	1499.8858	1450.7	553.55
890.1622	1501.6924	1446.75	555.05
890.3053	1503.4981	1442.9	548.75
890.4484	1505.3032	1422.25	526.95
890.5914	1507.1075	1428.5	533.85
890.7345	1508.911	1409.85	516.5
890.8776	1510.7138	1411.25	513.95
891.0206	1512.5159	1406.95	511.45
891.1637	1514.3172	1397.45	501.95
891.3067	1516.1178	1395.15	500
891.4497	1517.9176	1396.55	499.8
891.5927	1519.7166	1389.2	495.4
891.7357	1521.515	1383.2	481.45
891.8786	1523.3126	1375.45	480.55
892.0216	1525.1094	1371.95	474.1
892.1645	1526.9055	1366.9	472.15
892.3074	1528.7008	1363.6	469.7
892.4503	1530.4954	1369.6	470.15
892.5932	1532.2893	1352.65	459.2
892.7361	1534.0824	1358.25	461.4
892.879	1535.8747	1358.6	463.7
893.0218	1537.6663	1356.6	462.9
893.1647	1539.4572	1352.75	456.5
893.3075	1541.2473	1352.7	456.45
893.4503	1543.0367	1356.35	464.4
893.5931	1544.8253	1360.25	460.3
893.7359	1546.6132	1362.2	466.75
893.8787	1548.4003	1366.4	461.25
894.0214	1550.1867	1369.85	468.4
894.1642	1551.9723	1376.15	478.2
894.3069	1553.7572	1395.05	501.85
894.4496	1555.5414	1409.5	517.1
894.5923	1557.3247	1433.75	542.3
894.735	1559.1074	1462.4	570.8
894.8777	1560.8893	1505.2	615.6
895.0204	1562.6705	1540.95	649.4
895.163	1564.4509	1565.55	674.15
895.3056	1566.2305	1568.7	679
895.4482	1568.0094	1568.65	678.7
895.5908	1569.7876	1571.2	681.65
895.7334	1571.565	1564.3	673.7
895.876	1573.3417	1566.45	676.1
896.0186	1575.1176	1570.1	679.95
896.1611	1576.8928	1592	699.6
896.3036	1578.6672	1604.15	717.1
896.4461	1580.4409	1627.25	740.1
896.5886	1582.2138	1661.25	769.2
896.7311	1583.986	1703.7	813.25
896.8736	1585.7575	1736.7	847.6
897.0161	1587.5282	1766.8	876.45
897.1585	1589.2981	1789.7	901.4
897.3009	1591.0673	1803.7	915.2
897.4433	1592.8358	1812	924.25
897.5857	1594.6035	1817.55	924.35
897.7281	1596.3704	1806.65	913.3
897.8705	1598.1366	1789.8	899
898.0128	1599.9021	1760.9	874.45
898.1551	1601.6668	1751.15	858.55
898.2975	1603.4308	1723.85	831.8
898.4398	1605.194	1733.65	837.8
898.5821	1606.9564	1752.25	866.35
898.7243	1608.7182	1801.75	911.2
898.8666	1610.4791	1874.35	990.1
899.0088	1612.2394	1969.05	1087.45
899.1511	1613.9988	2061.5	1174.2
899.2933	1615.7576	2143.35	1255.5
899.4355	1617.5156	2180.9	1284.4
899.5776	1619.2728	2145.4	1252.05
899.7198	1621.0293	2067.55	1176.9
899.862	1622.785	1968	1075.15
900.0041	1624.54	1853.9	961.95
900.1462	1626.2942	1738.55	850.45
900.2883	1628.0477	1642.55	753.85
900.4304	1629.8005	1560.75	669.75
900.5725	1631.5525	1505.75	618.5
900.7145	1633.3037	1460.25	573.5
900.8566	1635.0542	1416.55	527.1
900.9986	1636.804	1383.15	494.3
901.1406	1638.553	1421.85	469.95
901.2826	1640.3013	1341.8	452.85
901.4245	1642.0488	1324.3	434.6
901.5665	1643.7955	1305.1	418.05
901.7085	1645.5416	1293.75	407.4
901.8504	1647.2868	1295.25	408.2
901.9923	1649.0313	1284.3	396.9
902.1342	1650.7751	1284.8	394.4
902.2761	1652.5181	1278.75	392.6
902.4179	1654.2604	1273.1	384.45
902.5598	1656.0019	1274	387.15
902.7016	1657.7427	1289.3	400.9
902.8434	1659.4828	1309.7	420.1
902.9852	1661.222	1339.3	448.2
903.127	1662.9606	1368.4	480.1
903.2687	1664.6984	1394.85	506.95
903.4105	1666.4354	1412.3	522.45
903.5522	1668.1717	1390.3	500.4
903.6939	1669.9072	1353.95	462.4
903.8356	1671.642	1315.35	421.95
903.9773	1673.3761	1272.2	384.05
904.119	1675.1094	1241.6	354.35
904.2606	1676.8419	1232.15	342.85
904.4022	1678.5737	1211.45	320.55
904.5439	1680.3048	1209.45	319.15
904.6855	1682.0351	1196.65	307.45
904.827	1683.7646	1195.55	301.6
904.9686	1685.4934	1184.95	295.2
905.1101	1687.2215	1186.8	296.95
905.2517	1688.9488	1177.65	288.65
905.3932	1690.6754	1177.2	290.2
905.5347	1692.4012	1169.4	280.75
905.6761	1694.1263	1168.45	280.4
905.8176	1695.8506	1166.05	275.75
905.9591	1697.5742	1164.7	276.3
906.1005	1699.297	1159.6	273.2
906.2419	1701.0191	1158.85	272.95
906.3833	1702.7404	1153.65	267.25
906.5246	1704.461	1154.6	266.65
906.666	1706.1808	1158.2	269.5
906.8073	1707.8999	1155.5	266.5
906.9487	1709.6182	1148.65	262.05
907.09	1711.3358	1150.05	263.35
907.2313	1713.0527	1145.35	260.45
907.3725	1714.7688	1150.25	258
907.5138	1716.4841	1143.05	253.6
907.655	1718.1987	1147.95	254.2
907.7962	1719.9126	1141.65	256
907.9374	1721.6257	1139.6	252.4
908.0786	1723.338	1141.65	254.45
908.2198	1725.0496	1135.55	247.65
908.3609	1726.7605	1139.4	251.3
908.502	1728.4706	1138.35	250.2
908.6431	1730.18	1137.05	248.05
908.7842	1731.8886	1133	249.1
908.9253	1733.5964	1150.7	244.5
909.0664	1735.3036	1131.55	241.2
909.2074	1737.0099	1131.15	242.85
909.3484	1738.7156	1127.5	242.45
909.4894	1740.4204	1133.6	244.5
909.6304	1742.1246	1130.05	239.65
909.7714	1743.8279	1132.05	244.1
909.9123	1745.5306	1123.1	237.7
910.0532	1747.2325	1124.5	238.1
910.1941	1748.9336	1122.3	234.75
910.335	1750.634	1129.2	239.65
910.4759	1752.3336	1121.35	235.95
910.6168	1754.0325	1114.5	231.15
910.7576	1755.7307	1119.15	233.25
910.8984	1757.4281	1125.15	238.45
911.0392	1759.1247	1131.35	232.7
911.18	1760.8206	1126.8	233.1
911.3208	1762.5158	1127.6	236.85
911.4615	1764.2102	1118.25	230.3
911.6022	1765.9039	1115.45	228
911.7429	1767.5968	1113.3	225.3
911.8836	1769.289	1113.05	226.95
912.0243	1770.9804	1113.95	225.2
912.1649	1772.6711	1119.15	230.9
912.3056	1774.361	1116.9	227.75
912.4462	1776.0502	1117.75	229.1
912.5868	1777.7386	1119.8	227.65
912.7274	1779.4263	1120.55	230.9
912.8679	1781.1132	1112.35	226.4
913.0084	1782.7994	1110.9	223.2
913.149	1784.4849	1111.1	225.55
913.2895	1786.1696	1123.75	219.15
913.4299	1787.8535	1109.7	225.45
913.5704	1789.5367	1106	219.8
913.7108	1791.2192	1110.45	225.7
913.8513	1792.9009	1132.4	219.1
913.9917	1794.5818	1103.75	213.65
914.132	1796.2621	1106.85	221
914.2724	1797.9415	1109.25	220.2
914.4128	1799.6202	1109.95	222.65
914.5531	1801.2982	1106.7	218.9
914.6934	1802.9755	1103.85	217.2
914.8337	1804.6519	1104.85	216.05
914.9739	1806.3277	1094.8	209.45
915.1142	1808.0027	1095.05	211.4
915.2544	1809.6769	1096.35	213.5
915.3946	1811.3504	1099.5	212.2
915.5348	1813.0231	1101.15	215.95
915.675	1814.6951	1095.5	211.5
915.8151	1816.3664	1096.6	208.75
915.9553	1818.0369	1100.3	214.5
916.0954	1819.7067	1093.75	207.45
916.2355	1821.3757	1097.05	206.95
916.3755	1823.044	1095.2	207.15
916.5156	1824.7115	1096.7	207
916.6556	1826.3783	1094	207.15
916.7956	1828.0443	1095.65	209.6
916.9356	1829.7096	1095.75	209
917.0756	1831.3741	1101.9	210.45
917.2155	1833.0379	1093.5	209.35
917.3555	1834.701	1093.3	206.5
917.4954	1836.3633	1091.4	206
917.6353	1838.0248	1093.15	207.75
917.7751	1839.6856	1089.05	203.55
917.915	1841.3457	1095.05	208.7
918.0548	1843.005	1085.55	198.55
918.1946	1844.6636	1084.5	198.6
918.3344	1846.3214	1087.6	200.1
918.4742	1847.9785	1085.65	199.5
918.6139	1849.6349	1089.9	201.25
918.7537	1851.2904	1099.05	202.15
918.8934	1852.9453	1092.25	203.6
919.0331	1854.5994	1089.25	199.7
919.1727	1856.2528	1094.55	203.8
919.3124	1857.9054	1085.4	199.25
919.452	1859.5572	1082.75	196.6
919.5916	1861.2083	1077.8	189.65
919.7312	1862.8587	1089.3	201.2
919.8708	1864.5084	1088.1	200.55
920.0103	1866.1572	1081.35	193.3
920.1498	1867.8054	1082.3	196.2
920.2893	1869.4528	1081.45	192.8
920.4288	1871.0994	1085.35	196.45
920.5683	1872.7453	1079.15	189.35
920.7077	1874.3905	1087.9	192.35
920.8471	1876.0349	1079	190.7
920.9865	1877.6786	1083.55	193.95
921.1259	1879.3215	1083.85	197.3
921.2653	1880.9637	1081.25	193.45
921.4046	1882.6051	1073.85	186.65
921.5439	1884.2458	1082.9	195.2
921.6832	1885.8858	1077.95	191.05
921.8225	1887.525	1080.05	191.7
921.9617	1889.1634	1076.4	189.7
922.101	1890.8011	1074.5	184.75
922.2402	1892.4381	1074.55	187.15
922.3794	1894.0743	1076.55	188.8
922.5185	1895.7098	1075.3	187.9
922.6577	1897.3446	1072.55	185.55
922.7968	1898.9786	1077.1	185.45
922.9359	1900.6118	1072.1	184.85
923.075	1902.2443	1078.45	187.95
923.214	1903.8761	1072.7	186.45
923.3531	1905.5071	1072.55	184.4
923.4921	1907.1374	1070.15	181.45
923.6311	1908.7669	1070	182.8
923.77	1910.3957	1068.8	181.7
923.909	1912.0237	1068.25	181.1
924.0479	1913.651	1063.1	173.75
924.1868	1915.2776	1065.25	180.25
924.3257	1916.9034	1059.3	172.9
924.4646	1918.5285	1065.4	178.9
924.6034	1920.1528	1066.05	179.15
924.7422	1921.7764	1062.95	175.95
924.881	1923.3992	1063.9	176.9
925.0198	1925.0213	1058.75	174.25
925.1586	1926.6427	1059.2	174.65
925.2973	1928.2633	1274.15	170.65
925.436	1929.8832	1068.1	177.9
925.5747	1931.5023	1062.9	176.15
925.7134	1933.1207	1063.35	176.15
925.852	1934.7383	1060.3	174.6
925.9906	1936.3552	1061.35	177.2
926.1292	1937.9714	1057.8	170.3
926.2678	1939.5868	1059.25	171.45
926.4064	1941.2015	1060.05	171.95
926.5449	1942.8154	1053.3	165.65
926.6834	1944.4286	1059.5	172.25
926.8219	1946.041	1082.15	169.9
926.9604	1947.6528	1060.3	169.5
927.0988	1949.2637	1052.25	165.9
927.2372	1950.8739	1053.55	167.35
927.3756	1952.4834	1054.6	169.2
927.514	1954.0921	1054.95	168.3
927.6523	1955.7001	1058.45	169.1
927.7907	1957.3074	1050.4	166.05
927.929	1958.9139	1051.05	168.25
928.0673	1960.5197	1046.35	157.85
928.2055	1962.1247	1046.25	161.35
928.3438	1963.729	1046.45	163.55
928.482	1965.3325	1057.1	165.4
928.6202	1966.9353	1045.4	163
928.7584	1968.5374	1048.2	163
928.8965	1970.1387	1045.3	159.6
929.0346	1971.7393	1045.3	160.6
929.1727	1973.3392	1045.95	160.25
929.3108	1974.9383	1038.5	155.6
929.4489	1976.5366	1041.85	157.1
929.5869	1978.1342	1038.3	155.35
929.7249	1979.7311	1042.3	158.35
929.8629	1981.3273	1045.6	162.4
930.0009	1982.9227	1040.15	155.05
930.1388	1984.5173	1038.8	156.1
930.2767	1986.1112	1043.1	161.8
930.4146	1987.7044	1037.55	156.85
930.5525	1989.2968	1036.45	152.2
930.6904	1990.8885	1042.25	155.8
930.8282	1992.4795	1037.6	153.25
930.966	1994.0697	1035	154.25
931.1038	1995.6592	1041.8	160.15
931.2415	1997.2479	1031.45	146.85
931.3793	1998.8359	1038.25	156.05
931.517	2000.4232	1039.3	159.65
931.6547	2002.0097	1034.8	155
931.7923	2003.5955	1034.7	152.5
931.93	2005.1805	1033.45	151.65
932.0676	2006.7648	1035	154.95
932.2052	2008.3484	1034.65	153.55
932.3427	2009.9312	1033.75	151.95
932.4803	2011.5133	1034.15	156.55
932.6178	2013.0946	1029.2	149.45
932.7553	2014.6752	1031.15	152.2
932.8928	2016.2551	1034.05	153
933.0302	2017.8342	1031.9	151.85
933.1676	2019.4126	1029.55	151.35
933.305	2020.9902	1025.8	146.4
933.4424	2022.5672	1028.15	147.55
933.5798	2024.1433	1035.65	150.65
933.7171	2025.7188	1027.35	151.4
933.8544	2027.2935	1028.4	148.7
933.9917	2028.8674	1026.75	148.65
934.129	2030.4406	1023.25	144.15
934.2662	2032.0131	1026.45	150.45
934.4034	2033.5849	1027.65	145.3
934.5406	2035.1559	1027	149
934.6778	2036.7261	1024.45	145.65
934.8149	2038.2957	1027.55	144.75
934.952	2039.8645	1031.75	149.3
935.0891	2041.4325	1030.2	147
935.2262	2042.9998	1027.5	147.4
935.3632	2044.5664	1025.3	146.65
935.5002	2046.1323	1026	147.35
935.6372	2047.6974	1023.55	143.15
935.7742	2049.2617	1024.45	145.25
935.9111	2050.8254	1023.55	136.95
936.048	2052.3883	1026.45	146.5
936.1849	2053.9504	1022.35	140.35
936.3218	2055.5118	1025.5	145.15
936.4586	2057.0725	1028.55	143.15
936.5955	2058.6325	1022.05	142.45
936.7323	2060.1917	1023.7	145.05
936.869	2061.7502	1027.1	144.85
937.0058	2063.3079	1023.15	145.05
937.1425	2064.8649	1022.75	140.65
937.2792	2066.4212	1022.25	143.05
937.4159	2067.9767	1023.7	144.35
937.5525	2069.5315	1022.8	143.35
937.6891	2071.0856	1023.9	144.4
937.8257	2072.6389	1019.7	141.55
937.9623	2074.1915	1017.45	140.5
938.0989	2075.7433	1018.8	136.15
938.2354	2077.2945	1020.7	143
938.3719	2078.8448	1019.6	137.45
938.5084	2080.3945	1017.05	135.8
938.6448	2081.9434	1020.65	138.7
938.7812	2083.4916	1023.05	140.4
938.9176	2085.039	1025.2	140.95
939.054	2086.5857	1022.9	139.15
939.1903	2088.1317	1022.5	139.3
939.3267	2089.677	1022.85	139.95
939.463	2091.2215	1017.35	135.1
939.5992	2092.7652	1019.7	135.9
939.7355	2094.3083	1018.05	136.4
939.8717	2095.8506	1018.1	136.9
940.0079	2097.3921	1016.6	132.95
940.1441	2098.933	1016	131.75
940.2802	2100.4731	1019.6	137.25
940.4163	2102.0124	1035.8	135.8
940.5524	2103.5511	1015.5	132.4
940.6885	2105.089	1018.2	136.95
940.8245	2106.6261	1019.7	138
940.9606	2108.1626	1019.55	138.25
941.0965	2109.6983	1045.3	133.65
941.2325	2111.2332	1018.15	134.15
941.3684	2112.7675	1017.95	134.5
941.5044	2114.301	1018.9	134.1
941.6403	2115.8337	1014.3	133.5
941.7761	2117.3657	1018.5	136.25
941.912	2118.897	1016.45	135.6
942.0478	2120.4276	1020.9	134.6
942.1835	2121.9575	1018.4	134.8
942.3193	2123.4866	1034.6	137.9
942.455	2125.0149	1019.3	134.4
942.5907	2126.5426	1013.05	133.3
942.7264	2128.0695	1016	132.65
942.8621	2129.5956	1011.15	133.95
942.9977	2131.1211	1016.9	132
943.1333	2132.6458	1011	132.8
943.2689	2134.1698	1016.65	132.5
943.4044	2135.693	1018.5	136.2
943.54	2137.2155	1016.6	131.3
943.6755	2138.7373	1008.15	126.65
943.8109	2140.2584	1009.9	131.5
943.9464	2141.7787	1015.75	131.45
944.0818	2143.2983	1008.35	129.25
944.2172	2144.8171	1006	127.65
944.3526	2146.3353	1010.05	128.8
944.4879	2147.8527	1007.75	128.75
944.6232	2149.3693	1009	125.7
944.7585	2150.8853	1015.55	135.1
944.8938	2152.4005	1009.6	128
945.029	2153.9149	1011	130
945.1642	2155.4287	1014.85	132.85
945.2994	2156.9417	1007.75	123.6
945.4346	2158.454	1013.7	131.05
945.5697	2159.9655	1005.65	126.05
945.7048	2161.4764	1013.1	132.55
945.8399	2162.9865	1004.7	125.15
945.9749	2164.4958	1008.65	128.25
946.1099	2166.0045	1009.55	125.15
946.2449	2167.5124	1009.8	130.4
946.3799	2169.0195	1005.7	125.05
946.5148	2170.526	1007.35	125.8
946.6498	2172.0317	1006.7	124.6
946.7846	2173.5367	1007.5	125.45
946.9195	2175.0409	1008.8	130.35
947.0543	2176.5445	1009.1	127.3
947.1891	2178.0473	1009.5	126.55
947.3239	2179.5494	1010.95	126.9
947.4587	2181.0507	1005.1	122.8
947.5934	2182.5513	1006.2	125.4
947.7281	2184.0512	1006.05	123.55
947.8628	2185.5504	1004.5	123.7
947.9974	2187.0488	1001.9	123.45
948.132	2188.5465	1004.7	124.4
948.2666	2190.0435	1001.6	120.95
948.4012	2191.5397	1001.05	120.9
948.5357	2193.0353	1001.1	119.6
948.6702	2194.5301	1003.6	121.55
948.8047	2196.0241	1007.9	125.9
948.9392	2197.5175	1003.5	121.05
949.0736	2199.0101	1007.4	120
949.208	2200.502	1000.9	117
949.3424	2201.9931	996.85	118.75
949.4767	2203.4835	1001.7	119.5
949.611	2204.9733	1014.15	118.2
949.7453	2206.4622	998.85	120.2
949.8796	2207.9505	1000.05	117.05
950.0138	2209.438	999.2	123
950.148	2210.9248	999.1	117.25
950.2822	2212.4109	1000.85	123.3
950.4164	2213.8962	1003.35	116.9
950.5505	2215.3809	998.6	115.05
950.6846	2216.8648	997.8	113.1
950.8186	2218.3479	1003.6	115.3
950.9527	2219.8304	1002.95	116.95
951.0867	2221.3121	1003.55	118.85
951.2207	2222.7931	998.9	116.75
951.3546	2224.2733	997.95	113.35
951.4886	2225.7529	996.4	112.35
951.6225	2227.2317	997.15	113.65
951.7563	2228.7098	992.3	113.65
951.8902	2230.1872	996.05	118.55
952.024	2231.6638	992.2	113.9
952.1578	2233.1397	1002	116.8
952.2916	2234.6149	991.85	114.6
952.4253	2236.0894	992.25	111.7
952.559	2237.5632	998.7	107.5
952.6927	2239.0362	993.75	112.9
952.8263	2240.5085	991.8	109.45
952.9599	2241.9801	992.7	109.85
953.0935	2243.4509	988.2	105.9
953.2271	2244.921	995	111.25
953.3606	2246.3904	993.2	110.8
953.4941	2247.8591	994.25	112.75
953.6276	2249.3271	996.4	113.9
953.7611	2250.7943	992.95	112.4
953.8945	2252.2608	990.5	108.35
954.0279	2253.7266	989.95	110.5
954.1612	2255.1917	989.2	108.5
954.2946	2256.656	989.65	106.7
954.4279	2258.1197	983.9	105.15
954.5612	2259.5826	988.85	106.8
954.6944	2261.0447	988.95	108.55
954.8276	2262.5062	989.25	105.7
954.9608	2263.9669	992.2	108.75
955.094	2265.4269	989.45	109.15
955.2271	2266.8862	987.95	108.05
955.3602	2268.3448	984.05	103.05
955.4933	2269.8026	986.2	106.1
955.6264	2271.2598	983	101.95
955.7594	2272.7162	987.3	108.6
955.8924	2274.1719	986.85	104.5
956.0253	2275.6268	985.7	105.85
956.1583	2277.0811	986.2	104.1
956.2912	2278.5346	985.9	107.9
956.4241	2279.9874	985.9	104.6
956.5569	2281.4395	980.45	98.9
956.6897	2282.8908	991.25	103.1
956.8225	2284.3414	986.9	103.7
956.9553	2285.7914	985.05	103.8
957.088	2287.2406	986.3	103.3
957.2207	2288.689	983.35	103.4
957.3534	2290.1368	986.5	101.65
957.486	2291.5838	990.3	103.65
957.6186	2293.0302	985.6	101.8
957.7512	2294.4758	985.6	103.65
957.8838	2295.9206	986.9	100.7
958.0163	2297.3648	984	102.5
958.1488	2298.8082	985.1	103.45
958.2813	2300.251	980.15	99.3
958.4137	2301.693	984.9	99.8
958.5461	2303.1343	984.2	104.05
958.6785	2304.5748	978.65	95.1
958.8108	2306.0147	979	98.45
958.9432	2307.4538	982.9	100.6
959.0754	2308.8922	979.4	100.9
959.2077	2310.3299	981.7	100.25
959.3399	2311.7669	978.75	100.15
959.4721	2313.2031	980.7	98.35
959.6043	2314.6387	981.7	100.9
959.7365	2316.0735	976.2	96.4
959.8686	2317.5076	978.95	97.55
960.0006	2318.941	978.95	97.4
960.1327	2320.3737	980.75	97.6
960.2647	2321.8056	987.1	101.6
960.3967	2323.2369	985.2	104.2
960.5287	2324.6674	986.35	101.85
960.6606	2326.0972	986.55	105.4
960.7925	2327.5263	991	109.2
960.9244	2328.9547	990.75	109
961.0562	2330.3823	993.4	109.5
961.1881	2331.8092	987	101.05
961.3198	2333.2355	978.55	94
961.4516	2334.661	979.75	96.9
961.5833	2336.0858	982.75	98.45
961.715	2337.5098	978.6	94.6
961.8467	2338.9332	978.5	94.7
961.9783	2340.3558	978.15	92.95
962.1099	2341.7778	974.05	92.05
962.2415	2343.199	978.45	96.15
962.373	2344.6195	973.2	90.1
962.5045	2346.0393	972.55	92.15
962.636	2347.4583	974.05	93.3
962.7675	2348.8767	976.35	92.1
962.8989	2350.2943	978.75	95.25
963.0303	2351.7113	975.9	92
963.1617	2353.1275	974.35	90.45
963.293	2354.543	998.55	91.9
963.4243	2355.9578	974.75	90.45
963.5556	2357.3718	972.5	91.6
963.6868	2358.7852	979.95	93.75
963.818	2360.1978	968.65	87.25
963.9492	2361.6098	969.95	88.4
964.0803	2363.021	976.75	89.55
964.2114	2364.4315	972.5	92.65
964.3425	2365.8413	978.75	90.1
964.4736	2367.2504	971.95	91.95
964.6046	2368.6587	969.2	86.35
964.7356	2370.0664	973.2	92.05
964.8666	2371.4733	973.15	91.55
964.9975	2372.8795	975.75	91.95
965.1284	2374.285	973.35	90.3
965.2593	2375.6899	971	91.15
965.3901	2377.0939	974.3	92.35
965.5209	2378.4973	972.85	89.35
965.6517	2379.9	970.5	86.15
965.7825	2381.3019	971.3	88.8
965.9132	2382.7032	972.65	91.1
966.0439	2384.1037	966.5	86.8
966.1745	2385.5035	966.8	85.8
966.3051	2386.9027	967.65	86.65
966.4357	2388.3011	973.95	88.4
966.5663	2389.6987	969.3	86.75
966.6968	2391.0957	968.55	86.25
966.8273	2392.492	972.4	89.6
966.9578	2393.8876	969	86.9
967.0882	2395.2824	968.55	85.95
967.2186	2396.6765	968.1	86.4
967.349	2398.07	963.9	78.3
967.4793	2399.4627	969	84.7
967.6097	2400.8547	965.4	79.6
967.7399	2402.246	973.75	84.3
967.8702	2403.6366	969.2	85.15
968.0004	2405.0265	966.35	83.9
968.1306	2406.4156	970.35	81.75
968.2607	2407.8041	965.9	80.4
968.3909	2409.1918	969.8	83.85
968.521	2410.5789	966.9	82.05
968.651	2411.9652	968.75	80.75
968.781	2413.3508	967.15	83.45
968.911	2414.7358	970.25	84.3
969.041	2416.12	964.05	79.7
969.1709	2417.5035	966.55	82.8
969.3008	2418.8863	966	79.65
969.4307	2420.2684	964.35	81.05
969.5606	2421.6497	965.55	83.7
969.6904	2423.0304	961.55	78.95
969.8201	2424.4104	961.25	78.4
969.9499	2425.7896	965.3	76.4
970.0796	2427.1682	960.8	77.65
970.2093	2428.546	965.55	80.75
970.3389	2429.9232	963.15	78.1
970.4685	2431.2996	960.3	77.6
970.5981	2432.6753	964.35	80.05
970.7277	2434.0503	964.1	79.6
970.8572	2435.4246	958.45	73.05
970.9867	2436.7982	966.4	78.55
971.1161	2438.1711	960.95	79.05
971.2456	2439.5433	962.6	76.95
971.375	2440.9148	962.85	77.85
971.5043	2442.2856	960.35	76.1
971.6336	2443.6557	961.8	75.25
971.7629	2445.025	962.4	80.1
971.8922	2446.3937	961.7	78
972.0214	2447.7617	960.75	76.85
972.1506	2449.1289	960.4	78.4
972.2798	2450.4955	965.35	76.4
972.4089	2451.8613	955	72.7
972.538	2453.2265	953.75	69
972.6671	2454.5909	960.3	78.15
972.7961	2455.9546	959.55	77.25
972.9251	2457.3177	959	77.35
973.0541	2458.68	957.05	71.2
973.1831	2460.0416	957.7	77.85
973.312	2461.4025	955.6	71.85
973.4408	2462.7627	967.65	73.8
973.5697	2464.1222	954.7	74
973.6985	2465.4811	956.1	73.7
973.8273	2466.8392	959.2	76.55
973.956	2468.1966	959.4	74.15
974.0847	2469.5533	960.5	74.15
974.2134	2470.9093	956.25	72.45
974.3421	2472.2645	955.7	72.4
974.4707	2473.6191	954.85	71.75
974.5993	2474.973	957.9	73.8
974.7278	2476.3262	958.65	75.65
974.8563	2477.6787	954.6	70.65
974.9848	2479.0305	955.85	74.95
975.1132	2480.3816	960.05	76.45
975.2417	2481.7319	956	75.1
975.37	2483.0816	958.55	72.85
975.4984	2484.4306	954.95	70.15
975.6267	2485.7789	953.25	71.5
975.755	2487.1264	956.7	71.3
975.8833	2488.4733	953.05	72.15
976.0115	2489.8195	957.9	68.65
976.1397	2491.165	957.75	70.55
976.2678	2492.5097	955.75	70.85
976.3959	2493.8538	952.9	72.55
976.524	2495.1972	954.05	71.2
976.6521	2496.5398	957.05	75.15
976.7801	2497.8818	956.35	70.9
976.9081	2499.2231	954.45	72.85
977.036	2500.5637	954.35	68.85
977.164	2501.9035	953.25	70.25
977.2918	2503.2427	955.45	69.7
977.4197	2504.5812	952.25	68.6
977.5475	2505.919	954.25	67.45
977.6753	2507.256	951.9	69.15
977.8031	2508.5924	951	68.2
977.9308	2509.9281	958.9	70.65
978.0585	2511.2631	952.3	70.85
978.1861	2512.5974	951.8	67.75
978.3137	2513.9309	951.65	68.95
978.4413	2515.2638	973.35	63.2
978.5689	2516.596	952.5	71.7
978.6964	2517.9275	947.6	62.85
978.8239	2519.2583	950.25	68.35
978.9513	2520.5884	949.85	65.6
979.0788	2521.9178	950.25	67.55
979.2062	2523.2465	950.85	69.95
979.3335	2524.5745	949.75	65.2
979.4608	2525.9018	949.5	66.8
979.5881	2527.2284	947.65	66.2
979.7154	2528.5543	945.65	62.55
979.8426	2529.8796	951.1	70.2
979.9698	2531.2041	951.25	69.45
980.0969	2532.5279	945.55	64.55
980.224	2533.851	948.7	67.15
980.3511	2535.1735	949.3	68.1
980.4781	2536.4952	947.4	62.4
980.6052	2537.8163	946.9	62
980.7321	2539.1366	946.5	63.25
980.8591	2540.4562	949.75	64.4
980.986	2541.7752	944.5	62.55
981.1129	2543.0935	947.1	63.55
981.2397	2544.411	946.65	62.3
981.3665	2545.7279	949.4	67.3
981.4933	2547.0441	949.1	66.5
981.62	2548.3596	950.35	65.8
981.7467	2549.6744	945.3	61.7
981.8734	2550.9885	954.7	63.3
982.0001	2552.3019	943.55	60.5
982.1267	2553.6146	946.75	62.3
982.2532	2554.9266	943.2	59.35
982.3798	2556.2379	946.3	62.7
982.5063	2557.5485	942.45	60.35
982.6327	2558.8585	953.25	64.65
982.7592	2560.1677	948.25	61.1
982.8856	2561.4762	943	60.55
983.0119	2562.7841	948.5	63
983.1383	2564.0913	944.05	63.85
983.2646	2565.3977	944.3	63.5
983.3908	2566.7035	946.5	63.7
983.517	2568.0086	945.8	61.2
983.6432	2569.313	946.55	64.35
983.7694	2570.6167	950.75	64.7
983.8955	2571.9197	943.65	63.65
984.0216	2573.222	948.35	61.1
984.1476	2574.5236	944.7	62.8
984.2737	2575.8246	948.15	64.6
984.3996	2577.1248	946.4	62.65
984.5256	2578.4244	942.55	61.3
984.6515	2579.7232	943.6	61
984.7774	2581.0214	971.65	62.5
984.9032	2582.3189	945.45	61.65
985.029	2583.6157	945.7	59.1
985.1548	2584.9118	944.85	60.55
985.2806	2586.2072	943.75	60.85
985.4063	2587.5019	941.2	59.55
985.5319	2588.7959	940.45	57.6
985.6576	2590.0893	944.85	60.7
985.7832	2591.3819	943.55	62.4
985.9087	2592.6739	945.4	63.3
986.0343	2593.9652	944.55	60.55
986.1597	2595.2557	946.2	63.65
986.2852	2596.5456	946.35	59.4
986.4106	2597.8348	942.55	61.9
986.536	2599.1234	943.4	63.7
986.6614	2600.4112	943.35	62
986.7867	2601.6983	947.15	61.05
986.912	2602.9848	948.3	67.9
987.0372	2604.2705	947.7	54.8
987.1624	2605.5556	942.3	60
987.2876	2606.84	943.15	59.55
987.4128	2608.1237	945.6	62.8
987.5379	2609.4067	941.7	59.4
987.6629	2610.689	950.1	60.05
987.788	2611.9707	943.25	57.95
987.913	2613.2516	945.7	59.25
988.0379	2614.5319	935.85	54.85
988.1629	2615.8115	937.15	55.65
988.2878	2617.0903	941.8	57.75
988.4126	2618.3685	941.1	59.4
988.5375	2619.6461	939.05	53.5
988.6622	2620.9229	939.2	57.25
988.787	2622.199	938.4	55.35
988.9117	2623.4745	938.45	56.1
989.0364	2624.7493	937.8	55.35
989.161	2626.0234	939.8	59.3
989.2857	2627.2968	940.4	58.95
989.4102	2628.5695	938.45	56.5
989.5348	2629.8415	939.85	58
989.6593	2631.1128	936.95	53.25
989.7837	2632.3835	937	55.05
989.9082	2633.6535	939.85	57.45
990.0326	2634.9228	938.15	56.15
990.1569	2636.1914	934.95	54.15
990.2812	2637.4593	938.45	54.15
990.4055	2638.7265	937.4	54.3
990.5298	2639.9931	937.15	54.05
990.654	2641.259	940.2	57.8
990.7782	2642.5242	937.85	55.4
990.9023	2643.7887	936.45	54.8
991.0264	2645.0525	935.6	55.65
991.1505	2646.3156	935.55	52.4
991.2745	2647.5781	936.35	56.2
991.3985	2648.8398	932.85	51.45
991.5225	2650.1009	970.05	49.3
991.6464	2651.3613	936	56.3
991.7703	2652.6211	937.7	55.3
991.8942	2653.8801	932.05	52.35
992.018	2655.1385	935.7	49.8
992.1418	2656.3961	934.8	53.75
992.2655	2657.6531	937.55	55.6
992.3892	2658.9094	935	51.95
992.5129	2660.1651	934.45	54.1
992.6366	2661.42	932.75	52.4
992.7602	2662.6743	936.2	53.3
992.8837	2663.9279	935.8	53.25
993.0073	2665.1808	935.95	54.35
993.1307	2666.433	935.85	50.8
993.2542	2667.6846	934.15	53.4
993.3776	2668.9354	936.8	51.5
993.501	2670.1856	934.45	53.3
993.6244	2671.4351	932.75	50.9
993.7477	2672.6839	934.1	47.95
993.8709	2673.9321	932.25	52.6
993.9942	2675.1795	938.05	58.35
994.1174	2676.4263	934.2	54.35
994.2405	2677.6724	936.4	55.35
994.3637	2678.9179	935.25	54.05
994.4868	2680.1626	935.15	52.9
994.6098	2681.4067	936.15	53.1
994.7328	2682.6501	934.95	52.85
994.8558	2683.8928	935.85	55
994.9788	2685.1348	931.2	52.4
995.1017	2686.3761	933.45	52.35
995.2245	2687.6168	931.85	52.75
995.3474	2688.8568	932.8	50.95
995.4702	2690.0961	932.3	52.05
995.5929	2691.3348	932.85	48.85
995.7156	2692.5727	928.1	45.45
995.8383	2693.81	929.45	47.35
995.961	2695.0466	928.85	49
996.0836	2696.2826	932.65	49.4
996.2062	2697.5178	933.8	47.55
996.3287	2698.7524	930.95	49.7
996.4512	2699.9863	933.9	50.9
996.5737	2701.2195	931.6	50.05
996.6961	2702.452	932.45	51.7
996.8185	2703.6839	931.55	47.7
996.9408	2704.9151	932.2	50.7
997.0631	2706.1456	930.3	46.3
997.1854	2707.3755	928.45	47.8
997.3077	2708.6046	935.95	53.15
997.4299	2709.8331	936.65	53
997.552	2711.0609	932.25	49.9
997.6742	2712.2881	931.7	50.45
997.7963	2713.5145	935.15	51.55
997.9183	2714.7403	932.2	53.3
998.0403	2715.9654	937.4	53.85
998.1623	2717.1899	946.65	51.1
998.2842	2718.4136	936.6	55.8
998.4062	2719.6367	938.3	57.25
998.528	2720.8591	943.75	56.2
998.6498	2722.0809	940.9	58.4
998.7716	2723.3019	942.95	58.55
998.8934	2724.5223	942.2	60.6
999.0151	2725.7421	940.75	56.8
999.1368	2726.9611	941.65	61.1
999.2584	2728.1795	943.35	55.05
999.38	2729.3972	939.25	59.4
999.5016	2730.6142	942.05	50.65
999.6231	2731.8306	938.15	55.4
999.7446	2733.0462	936.65	53.7
999.8661	2734.2612	937.6	52.65
999.9875	2735.4756	933.5	49.8
1000.1089	2736.6892	930.9	49.4
1000.2302	2737.9022	931.35	51.25
1000.3515	2739.1145	929.5	46.5
1000.4728	2740.3262	934.4	45.7
1000.594	2741.5372	931.95	49.7
1000.7152	2742.7475	930.75	49.8
1000.8363	2743.9571	927.7	45.2
1000.9575	2745.1661	933.2	48.05
1001.0785	2746.3744	928.15	44
1001.1996	2747.582	925.95	45
1001.3206	2748.7889	929.85	47.4
1001.4415	2749.9952	925.8	45.25
1001.5625	2751.2008	924.55	43.65
1001.6833	2752.4057	926.8	44.4
1001.8042	2753.61	928	45.65
1001.925	2754.8136	925.2	43.95
1002.0458	2756.0165	924.6	44.85
1002.1665	2757.2188	920.7	41.05
1002.2872	2758.4204	923.7	43
1002.4078	2759.6213	925.1	38.3
1002.5285	2760.8215	927.3	43.65
1002.649	2762.0211	924.35	42.3
1002.7696	2763.22	926.2	42.4
1002.8901	2764.4182	923.55	41.95
1003.0106	2765.6158	922.6	43.45
1003.131	2766.8127	921.9	43.35
1003.2514	2768.009	922.8	42.05
1003.3717	2769.2045	923.1	40.85
1003.492	2770.3994	922.35	40.25
1003.6123	2771.5936	922.6	42.9
1003.7325	2772.7872	920.05	41.65
1003.8527	2773.9801	922.3	38.15
1003.9729	2775.1723	937.1	40.25
1004.093	2776.3639	917.7	38.45
1004.2131	2777.5548	925	43.25
1004.3331	2778.745	920.6	39.95
1004.4531	2779.9346	921.7	41.4
1004.5731	2781.1235	918.75	37.9
1004.693	2782.3117	921.45	42.25
1004.8129	2783.4992	918.95	39.8
1004.9328	2784.6861	918.45	39.65
1005.0526	2785.8723	918.95	38.9
1005.1723	2787.0579	920.3	41.2
1005.2921	2788.2428	918.95	39.65
1005.4118	2789.427	917.4	37.3
1005.5314	2790.6106	920.4	40.05
1005.651	2791.7935	919.95	38.2
1005.7706	2792.9757	917.5	38.3
1005.8902	2794.1573	922.75	41.45
1006.0097	2795.3382	920.45	39.4
1006.1291	2796.5184	917.9	39.45
1006.2485	2797.698	921.75	38.95
1006.3679	2798.8769	921.05	45.7
1006.4873	2800.0551	920.4	39.45
1006.6066	2801.2327	922.8	38.55
1006.7258	2802.4096	923.35	44
1006.8451	2803.5859	922.85	39.95
1006.9642	2804.7615	922.85	40.4
1007.0834	2805.9364	921.5	43.95
1007.2025	2807.1106	922.55	41.6
1007.3216	2808.2842	925.4	46.65
1007.4406	2809.4572	928.1	47.55
1007.5596	2810.6294	929.1	48.25
1007.6785	2811.801	924.1	44.2
1007.7975	2812.972	929.65	48.55
1007.9163	2814.1423	932.65	52.7
1008.0352	2815.3119	933.9	52
1008.154	2816.4808	934.5	57.35
1008.2727	2817.6491	938.1	56.7
1008.3914	2818.8167	936.35	57.35
1008.5101	2819.9837	946.7	63.9
1008.6288	2821.15	949.2	69.55
1008.7474	2822.3157	954.6	76.45
1008.8659	2823.4807	963.15	82.75
1008.9844	2824.645	970.3	88.4
1009.1029	2825.8086	973.6	95.35
1009.2214	2826.9716	982.2	104.85
1009.3398	2828.134	989.3	108.8
1009.4581	2829.2957	994.5	114.8
1009.5764	2830.4567	999.9	124.05
1009.6947	2831.617	1004.6	123.6
1009.813	2832.7767	1009.2	130.45
1009.9312	2833.9358	1005.8	126.1
1010.0493	2835.0941	1007.95	125.05
1010.1675	2836.2519	1005.9	125.4
1010.2855	2837.4089	999.75	120.55
1010.4036	2838.5653	995.05	116.45
1010.5216	2839.7211	994.6	115.75
1010.6396	2840.8761	993.85	111.95
1010.7575	2842.0306	989.45	111.6
1010.8754	2843.1843	989.95	110.25
1010.9932	2844.3374	987.1	106.5
1011.111	2845.4899	991.15	110.2
1011.2288	2846.6417	992.4	113.6
1011.3465	2847.7928	996.15	117.65
1011.4642	2848.9433	996.55	118.15
1011.5818	2850.0931	994.4	116.15
1011.6995	2851.2422	1001.2	120.5
1011.817	2852.3907	1000.9	118.85
1011.9345	2853.5385	1002.45	120.5
1012.052	2854.6857	1032.1	126.9
1012.1695	2855.8323	999.55	119.3
1012.2869	2856.9781	1007.1	126.8
1012.4042	2858.1233	1007.1	128.4
1012.5216	2859.2679	1014.6	134.6
1012.6389	2860.4118	1015.3	137.8
1012.7561	2861.555	1024.3	141.95
1012.8733	2862.6976	1025.25	144.4
1012.9905	2863.8395	1020.9	142.1
1013.1076	2864.9808	1028.85	150
1013.2247	2866.1214	1025.2	146.9
1013.3417	2867.2614	1025.7	146.35
1013.4587	2868.4007	1033.05	152.55
1013.5757	2869.5393	1034.65	153.2
1013.6926	2870.6773	1033.2	151.65
1013.8095	2871.8146	1039.95	158.05
1013.9263	2872.9513	1041.85	161.55
1014.0431	2874.0874	1040.25	159.75
1014.1599	2875.2227	1044.6	164.9
1014.2766	2876.3574	1038.2	158.1
1014.3933	2877.4915	1039.55	162.6
1014.51	2878.6249	1044.95	165.55
1014.6266	2879.7577	1050.2	171.15
1014.7431	2880.8898	1057.2	168.35
1014.8596	2882.0212	1052.2	173.7
1014.9761	2883.152	1055	174.65
1015.0925	2884.2821	1053.7	174.15
1015.2089	2885.4116	1057.8	179.8
1015.3253	2886.5405	1059.45	181.05
1015.4416	2887.6686	1068.35	187.5
1015.5579	2888.7962	1057.35	181.5
1015.6741	2889.923	1060.8	183.7
1015.7903	2891.0493	1060.9	181.45
1015.9065	2892.1748	1062.55	182.95
1016.0226	2893.2997	1062.55	183.45
1016.1387	2894.424	1057.25	179.45
1016.2547	2895.5476	1060.75	182.7
1016.3707	2896.6706	1062	183.8
1016.4866	2897.7929	1062	182.85
1016.6025	2898.9145	1062.45	182.25
1016.7184	2900.0355	1060.65	180.9
1016.8342	2901.1559	1057.75	178.7
1016.95	2902.2756	1066.55	182.35
1017.0658	2903.3946	1059.85	182.55
1017.1815	2904.513	1059.6	175.9
1017.2971	2905.6308	1056.65	179.7
1017.4127	2906.7479	1054.95	174.6
1017.5283	2907.8643	1058.5	179.25
1017.6439	2908.9801	1055.8	179.25
1017.7594	2910.0953	1055.3	175.55
1017.8748	2911.2098	1058.6	173.45
1017.9902	2912.3236	1066.75	181.5
1018.1056	2913.4368	1062.8	181.45
1018.2209	2914.5494	1052	173.2
1018.3362	2915.6613	1057.1	173.1
1018.4515	2916.7725	1056.75	173.5
1018.5667	2917.8831	1050.25	171.85
1018.6819	2918.9931	1046.85	165
1018.797	2920.1024	1045.15	164.65
1018.9121	2921.211	1036.9	157.75
1019.0271	2922.319	1041.15	162.7
1019.1421	2923.4264	1039.75	160.4
1019.2571	2924.5331	1035.6	157.6
1019.372	2925.6391	1035.85	156.55
1019.4869	2926.7445	1040.15	162.4
1019.6017	2927.8493	1035.35	155.8
1019.7165	2928.9534	1038.4	160.4
1019.8313	2930.0569	1036.65	155.85
1019.946	2931.1597	1041.3	161.55
1020.0606	2932.2619	1039.3	161.5
1020.1753	2933.3634	1044.3	164.8
1020.2899	2934.4643	1049.3	163.3
1020.4044	2935.5645	1053.4	166.5
1020.5189	2936.6641	1052.45	169.85
1020.6334	2937.763	1046.05	168.4
1020.7478	2938.8613	1045.3	165.45
1020.8622	2939.959	1046.1	162.75
1020.9765	2941.056	1042.95	163.75
1021.0908	2942.1523	1036.05	156.85
1021.2051	2943.248	1030.55	151.55
1021.3193	2944.3431	1018.65	140.05
1021.4334	2945.4375	1014.05	134.35
1021.5476	2946.5313	1008.3	129.15
1021.6617	2947.6244	997.4	117.55
1021.7757	2948.7169	993.1	114.8
1021.8897	2949.8087	986.65	106.9
1022.0037	2950.8999	979.25	99.3
1022.1176	2951.9904	976.6	99
1022.2315	2953.0803	971.45	91.85
1022.3453	2954.1696	968.8	93.5
1022.4591	2955.2582	965.45	87.35
1022.5728	2956.3462	962.85	82.4
1022.6865	2957.4335	961.05	82.9
1022.8002	2958.5202	965.8	83.1
1022.9138	2959.6062	962.35	84.1
1023.0274	2960.6916	960.3	81.45
1023.141	2961.7764	963.3	83.15
1023.2545	2962.8605	957.75	78.5
1023.3679	2963.9439	962.35	84.9
1023.4813	2965.0267	963.15	85.9
1023.5947	2966.1089	982	80.4
1023.708	2967.1905	957.9	80.1
1023.8213	2968.2714	956.65	77.9
1023.9346	2969.3516	957.25	77.1
1024.0478	2970.4312	965	80.3
1024.1609	2971.5102	957.7	79.4
1024.274	2972.5885	954.95	76.75
1024.3871	2973.6662	959.6	75.15
1024.5002	2974.7432	957.55	79.95
1024.6132	2975.8196	957.75	78.9
1024.7261	2976.8954	955.25	79.15
1024.839	2977.9705	954.15	77.5
1024.9519	2979.045	958.2	80.15
1025.0647	2980.1188	955.3	76.2
1025.1775	2981.192	954.4	78.55
1025.2902	2982.2645	955.1	77.35
1025.4029	2983.3364	953.5	75.2
1025.5156	2984.4077	952.3	75.15
1025.6282	2985.4783	956.95	72.55
1025.7407	2986.5483	947.6	70.75
1025.8532	2987.6177	946.25	68.7
1025.9657	2988.6864	945	66.95
1026.0782	2989.7545	943.85	63.3
1026.1906	2990.8219	936.45	56.85
1026.3029	2991.8887	937.35	58.4
1026.4152	2992.9548	933.55	56.65
1026.5275	2994.0204	930.4	54.5
1026.6397	2995.0852	926.9	50.8
1026.7519	2996.1495	927.9	48.3
1026.864	2997.2131	924.6	45.15
1026.9761	2998.276	921.65	44.05
1027.0882	2999.3383	920.7	41.75
1027.2002	3000.4	917.75	39.7
1027.3122	3001.4611	918.35	40.3
1027.4241	3002.5215	915.4	36.6
1027.536	3003.5812	915.6	37.4
1027.6478	3004.6404	911.85	34.4
1027.7596	3005.6989	912.25	33.3
1027.8714	3006.7567	908.95	31.2
1027.9831	3007.8139	937.45	34.6
1028.0947	3008.8705	907.65	30.8
1028.2064	3009.9264	911.2	26.7
1028.3179	3010.9818	907.2	29.75
1028.4295	3012.0364	908.3	27.4
1028.541	3013.0905	906.55	27.65
1028.6524	3014.1439	905.25	27.25
1028.7638	3015.1966	902.85	25.2
1028.8752	3016.2487	904.85	29.55
1028.9865	3017.3002	911.05	25.7
1029.0978	3018.3511	903.05	26.15
1029.209	3019.4013	902.35	23.55
1029.3202	3020.4509	903.6	23.65
1029.4314	3021.4998	904.1	25.15
1029.5425	3022.5481	902.3	24.95
1029.6535	3023.5958	904.7	25.85
1029.7645	3024.6428	904.05	24.4
1029.8755	3025.6892	902.1	23.9
1029.9864	3026.735	903.15	25.3
1030.0973	3027.7802	901.95	24.45
1030.2082	3028.8247	902.25	23.4
1030.319	3029.8685	901.55	25.65
1030.4297	3030.9118	903.4	24.95
1030.5404	3031.9544	901.4	23.95
1030.6511	3032.9963	901.45	23.95
1030.7617	3034.0376	902.6	25.75
1030.8723	3035.0783	901.9	21.25
1030.9829	3036.1184	903.85	24.6
1031.0934	3037.1578	901	26.1
1031.2038	3038.1966	903.4	24.5
1031.3142	3039.2348	900.35	24
1031.4246	3040.2723	910.25	22
1031.5349	3041.3092	900.35	23.4
1031.6452	3042.3455	901.6	23.35
1031.7554	3043.3811	903.95	25.8
1031.8656	3044.4161	903.6	23.3
1031.9758	3045.4505	899.95	24.1
1032.0859	3046.4842	902.9	22.85
1032.1959	3047.5173	900.75	24.1
1032.3059	3048.5498	901.8	23.1
1032.4159	3049.5816	904.35	26.65
1032.5258	3050.6128	905.25	27.1
1032.6357	3051.6434	903.3	26.1
1032.7455	3052.6734	902.45	23.65
1032.8553	3053.7027	902.25	22.3
1032.9651	3054.7314	900.6	23.8
1033.0748	3055.7594	902.5	25.65
1033.1845	3056.7868	903.45	26.75
1033.2941	3057.8136	905.15	28.4
1033.4037	3058.8398	902.6	24.7
1033.5132	3059.8653	905.2	26.95
1033.6227	3060.8902	905.1	28.15
1033.7321	3061.9145	902.9	25
1033.8415	3062.9381	905.45	26.95
1033.9509	3063.9612	920.25	24.95
1034.0602	3064.9835	902.5	24.75
1034.1694	3066.0053	906.75	25.6
1034.2787	3067.0264	904.2	26.7
1034.3878	3068.0469	906.15	27.75
1034.497	3069.0668	907.95	27.8
1034.6061	3070.086	903.9	27.45
1034.7151	3071.1046	907.65	27.6
1034.8241	3072.1226	905.5	27.15
1034.9331	3073.1399	903.45	26.45
1035.042	3074.1567	900.2	23.95
1035.1508	3075.1727	901.85	21.75
1035.2597	3076.1882	900.7	22.85
1035.3684	3077.203	903.15	25.55
1035.4772	3078.2173	904.45	25.05
1035.5859	3079.2308	904.1	24.4
1035.6945	3080.2438	902.4	23.05
1035.8031	3081.2561	898.95	21.35
1035.9117	3082.2678	899.25	23.35
1036.0202	3083.2789	899	21.8
1036.1286	3084.2893	898.45	21.65
1036.2371	3085.2991	899.55	22.15
1036.3454	3086.3083	901.6	18.15
1036.4538	3087.3169	899.9	20.65
1036.562	3088.3248	897.85	19.5
1036.6703	3089.3321	898.65	19.6
1036.7785	3090.3388	895.75	18.9
1036.8866	3091.3449	896.95	21.15
1036.9948	3092.3503	899.25	20.55
1037.1028	3093.3551	897.45	22.65
1037.2108	3094.3593	896.25	21.25
1037.3188	3095.3629	896.05	19.35
1037.4267	3096.3658	894.9	17.25
1037.5346	3097.3681	895.2	16.45
1037.6425	3098.3698	894.45	14.7
1037.7503	3099.3708	893.4	16.2
1037.858	3100.3713	895.2	18.95
1037.9657	3101.3711	894.15	15.4
1038.0734	3102.3702	1031.8	19.85
1038.181	3103.3688	897.6	17.55
1038.2886	3104.3667	894	15.95
1038.3961	3105.364	891.3	14.65
1038.5036	3106.3607	895.15	16.85
1038.611	3107.3568	894.6	14.95
1038.7184	3108.3522	892.5	16
1038.8257	3109.347	892.3	14.7
1038.933	3110.3412	896.1	15.8
1039.0403	3111.3348	892.6	15.8
1039.1475	3112.3277	890.8	12.6
1039.2547	3113.32	892.35	15
1039.3618	3114.3117	892.6	14.3
1039.4689	3115.3028	889.65	11.2
1039.5759	3116.2932	891.95	13.9
1039.6829	3117.2831	895.05	12.3
1039.7898	3118.2723	890.25	14.55
1039.8967	3119.2608	892.35	15.85
1040.0035	3120.2488	889.9	11.4
1040.1103	3121.2361	890.15	12.85
1040.2171	3122.2229	889.3	13.15
1040.3238	3123.209	890.85	12.8
1040.4305	3124.1944	889.9	11.3
1040.5371	3125.1793	891	11.4
1040.6437	3126.1635	889.45	12.2
1040.7502	3127.1471	888.3	13.05
1040.8567	3128.1301	887.35	11.3
1040.9631	3129.1125	889.05	12.55
1041.0695	3130.0942	890.4	12.65
1041.1759	3131.0753	897.05	14.25
1041.2822	3132.0558	891.75	13
1041.3884	3133.0357	890.2	12.85
1041.4946	3134.015	889.45	12.15
1041.6008	3134.9936	891	12.4
1041.7069	3135.9716	906.3	10.5
1041.813	3136.949	890.1	13.3
1041.919	3137.9258	904.35	10.35
1042.025	3138.902	895.5	12.8
1042.1309	3139.8775	888.15	10.8
1042.2368	3140.8524	889	9.75
1042.3427	3141.8267	888.95	10.25
1042.4485	3142.8004	887.35	6.65
1042.5542	3143.7735	891.8	9.2
1042.6599	3144.7459	890.25	9.15
1042.7656	3145.7178	889	9.2
1042.8712	3146.689	887.5	12.8
1042.9768	3147.6596	887.7	9.45
1043.0823	3148.6295	887.8	13.55
1043.1878	3149.5989	886.95	8.95
1043.2932	3150.5676	886.85	10.45
1043.3986	3151.5357	885	9.55
1043.5039	3152.5032	885.4	9.9
1043.6092	3153.4701	886.95	9.75
1043.7145	3154.4364	888.4	8.4
1043.8197	3155.402	883.85	9.5
1043.9248	3156.367	888.6	9.5
1044.03	3157.3315	930.6	8.65
1044.135	3158.2952	886.75	8.9
1044.24	3159.2584	884.15	6.9
1044.345	3160.221	885.95	9.75
1044.4499	3161.1829	886.3	7.45
1044.5548	3162.1442	886.5	7.85
1044.6596	3163.105	885.8	9.4
1044.7644	3164.065	887.05	10.7
1044.8692	3165.0245	887.6	10.15
1044.9739	3165.9834	886.05	11.05
1045.0785	3166.9416	886.85	10.6
1045.1831	3167.8993	885.85	8.5
1045.2877	3168.8563	887.55	11.65
1045.3922	3169.8127	884.6	8.15
1045.4966	3170.7684	885.9	8
1045.6011	3171.7236	886.35	8.5
1045.7054	3172.6782	887.85	11.35
1045.8098	3173.6321	886.6	7.7
1045.914	3174.5854	890.75	8.1
1046.0183	3175.5381	886.3	10.65
1046.1224	3176.4902	886	6.4
1046.2266	3177.4417	882.85	5.05
1046.3307	3178.3926	884.95	8.35
1046.4347	3179.3428	883.45	6.05
1046.5387	3180.2924	885.95	10.25
1046.6427	3181.2415	884.1	6.2
1046.7466	3182.1899	886.9	8.5
1046.8504	3183.1377	884.1	6.85
1046.9542	3184.0848	888.75	9.55
1047.058	3185.0314	886.5	11.45
1047.1617	3185.9773	885.9	9.2
1047.2654	3186.9227	886.65	6.45
1047.369	3187.8674	885.1	9
1047.4726	3188.8115	888.5	9
1047.5761	3189.755	883.8	8.25
1047.6796	3190.6979	884.6	8.5
1047.783	3191.6402	883.9	7.75
1047.8864	3192.5818	886.25	9.7
1047.9898	3193.5229	910.85	10.4
1048.0931	3194.4633	885.85	10.05
1048.1963	3195.4031	884.75	8.15
1048.2995	3196.3423	884.55	7.65
1048.4027	3197.2809	884.75	6.55
1048.5058	3198.2189	885.45	6.35
1048.6089	3199.1563	888.75	7.35
1048.7119	3200.0931	882.95	5.95
1048.8148	3201.0292	882.65	5.8
1048.9178	3201.9648	885.75	8.6
1049.0206	3202.8997	885.35	6.55
1049.1235	3203.834	884.1	7.8
1049.2262	3204.7677	884.5	8.1
1049.329	3205.7008	884.2	4.9
1049.4317	3206.6333	881.7	3.75
1049.5343	3207.5652	887	11.05
1049.6369	3208.4964	884.7	8.15
1049.7394	3209.4271	882.35	6.85
1049.8419	3210.3571	883.9	5.7
1049.9444	3211.2865	885.1	6.15
1050.0468	3212.2154	882.45	3.85
1050.1491	3213.1436	885.95	7.65
1050.2514	3214.0712	890	6.8
1050.3537	3214.9982	883.9	8.25
1050.4559	3215.9246	885.05	7.3
1050.5581	3216.8503	882.45	7.3
1050.6602	3217.7755	883.2	6.85
1050.7623	3218.7001	882.4	8.15
1050.8643	3219.624	884.2	6.3
1050.9663	3220.5473	884.9	7.75
1051.0682	3221.4701	884.8	6.15
1051.1701	3222.3922	883.55	4.45
1051.2719	3223.3137	880.8	4.6
1051.3737	3224.2346	883.75	6.55
1051.4754	3225.1549	879.5	3.85
1051.5771	3226.0746	880.75	3.95
1051.6788	3226.9937	884.15	7.55
1051.7804	3227.9121	883.8	6.4
1051.8819	3228.83	882.35	6.85
1051.9834	3229.7473	883.25	6.8
1052.0849	3230.6639	881.7	5.3
1052.1863	3231.5799	882.35	6.45
1052.2876	3232.4954	884.8	7.4
1052.3889	3233.4102	881.85	6.6
1052.4902	3234.3244	882.05	4.8
1052.5914	3235.238	881.15	5.95
1052.6926	3236.151	907.9	8.1
1052.7937	3237.0634	881.4	8
1052.8948	3237.9752	882	6.95
1052.9958	3238.8864	883.05	7.6
1053.0968	3239.797	881.85	6.25
1053.1977	3240.7069	885.5	7.9
1053.2986	3241.6163	883.5	3.65
1053.3994	3242.5251	879.1	2.9
1053.5002	3243.4332	881.05	6.5
1053.6009	3244.3408	882.1	4.75
1053.7016	3245.2477	882.15	5.6
1053.8022	3246.154	881.95	4.85
1053.9028	3247.0598	882.3	5.85
1054.0034	3247.9649	884.25	7.15
1054.1039	3248.8694	883.3	5.55
1054.2043	3249.7733	880.25	3.6
1054.3047	3250.6766	882.95	5.8
1054.4051	3251.5793	882.45	3.75
1054.5054	3252.4814	882.9	8.4
1054.6056	3253.3829	880.1	3.75
1054.7058	3254.2838	878.55	2.1
1054.806	3255.1841	882.8	8.1
1054.9061	3256.0838	880.5	4.95
1055.0061	3256.9829	881.95	6.45
1055.1062	3257.8814	882.55	3.95
1055.2061	3258.7792	884.4	4.65
1055.306	3259.6765	880.1	0.85
1055.4059	3260.5731	879.65	2.25
1055.5057	3261.4692	880.55	3.9
1055.6055	3262.3647	882.2	4.3
1055.7052	3263.2595	879.6	3.1
1055.8049	3264.1538	881.7	5.65
1055.9045	3265.0474	881.8	3.65
1056.0041	3265.9404	879.95	5.55
1056.1036	3266.8329	880.4	4.45
1056.2031	3267.7247	890.15	2.7
1056.3025	3268.616	880.1	4.4
1056.4019	3269.5066	881.3	4.25
1056.5013	3270.3966	882.2	2.8
1056.6005	3271.286	879.25	4.8
